 LCModel (Version 6.3-1R) Copyright: S.W. Provencher.          Ref.: Magn. Reson. Med. 30:672-679 (1993).                
 onepulse 10x19_ftSpec_smooth_lcm
 26 lines in following concentration table = NCONC+1
    Conc.  %SD /Cr+PCr  Metabolite                                         
 1.12E-10 271%  18.175 Ala                                                 
 2.05E-09  40% 332.530 Asp                                                 
 6.15E-12 999%   1.000 Cr                                                  
 1.91E-09  31% 311.107 GABA                                                
 1.24E-09  71% 201.637 Glc                                                 
    0.000 999%   0.000 Gln                                                 
    0.000 999%   0.000 Glu                                                 
    0.000 999%   0.000 Glyc                                                
 1.20E-10  79%  19.500 GPC                                                 
 5.73E-11 702%   9.305 GSH                                                 
 6.59E-10  78% 107.010 Ins                                                 
    0.000 999%   0.000 Lac                                                 
    0.000 999%   0.000 NAAG                                                
 2.69E-10  87%  43.655 NAA                                                 
    0.000 999%   0.000 PCh                                                 
    0.000 999%   0.000 PCr                                                 
    0.000 999%   0.000 PE                                                  
 9.31E-11 229%  15.126 Scyllo                                              
 1.96E-10 565%  31.777 Ser                                                 
    0.000 999%   0.000 Tau                                                 
 1.20E-10  79%  19.500 GPC+PCh                                             
 2.69E-10  87%  43.655 NAA+NAAG                                            
 6.59E-10  78% 107.010 Ins+Glyc                                            
 6.15E-12 999%   1.000 Cr+PCr                                              
    0.000 999%   0.000 Glu+Gln                                             
   6 lines in following misc. output table
  FWHM = 0.112 ppm    S/N =   2                                            
  Data shift = 0.347 ppm                                                   
  Ph:  90 deg       9.0 deg/ppm                                            
  alphaB,S = 6.4E-01,   2.6E+01                                            
    8 spline knots.   Ns = 5(1)                                            
  ( 9) 3 infls.   ( 9) 1 extrs.                                            
  363 points on ppm-axis = NY
      4.250000     4.238821     4.227641     4.216462     4.205282     4.194103     4.182923     4.171744     4.160564     4.149385
      4.138206     4.127026     4.115847     4.104667     4.093488     4.082308     4.071129     4.059949     4.048770     4.037591
      4.026411     4.015232     4.004052     3.992873     3.981693     3.970514     3.959334     3.948155     3.936975     3.925796
      3.914617     3.903437     3.892258     3.881078     3.869899     3.858719     3.847540     3.836360     3.825181     3.814002
      3.802822     3.791643     3.780463     3.769284     3.758104     3.746925     3.735745     3.724566     3.713387     3.702207
      3.691028     3.679848     3.668669     3.657489     3.646310     3.635130     3.623951     3.612772     3.601592     3.590413
      3.579233     3.568054     3.556874     3.545695     3.534515     3.523336     3.512156     3.500977     3.489798     3.478618
      3.467439     3.456259     3.445080     3.433900     3.422721     3.411541     3.400362     3.389183     3.378003     3.366824
      3.355644     3.344465     3.333285     3.322106     3.310926     3.299747     3.288568     3.277388     3.266209     3.255029
      3.243850     3.232670     3.221491     3.210311     3.199132     3.187953     3.176773     3.165594     3.154414     3.143235
      3.132055     3.120876     3.109696     3.098517     3.087337     3.076158     3.064979     3.053799     3.042620     3.031440
      3.020261     3.009081     2.997902     2.986722     2.975543     2.964364     2.953184     2.942005     2.930825     2.919646
      2.908466     2.897287     2.886107     2.874928     2.863749     2.852569     2.841390     2.830210     2.819031     2.807851
      2.796672     2.785492     2.774313     2.763134     2.751954     2.740775     2.729595     2.718416     2.707236     2.696057
      2.684877     2.673698     2.662519     2.651339     2.640160     2.628980     2.617801     2.606621     2.595442     2.584262
      2.573083     2.561903     2.550724     2.539545     2.528365     2.517186     2.506006     2.494827     2.483647     2.472468
      2.461288     2.450109     2.438930     2.427750     2.416571     2.405391     2.394212     2.383032     2.371853     2.360673
      2.349494     2.338315     2.327135     2.315956     2.304776     2.293597     2.282417     2.271238     2.260058     2.248879
      2.237700     2.226520     2.215341     2.204161     2.192982     2.181802     2.170623     2.159443     2.148264     2.137084
      2.125905     2.114726     2.103546     2.092367     2.081187     2.070008     2.058828     2.047649     2.036469     2.025290
      2.014111     2.002931     1.991752     1.980572     1.969393     1.958213     1.947034     1.935854     1.924675     1.913496
      1.902316     1.891137     1.879957     1.868778     1.857598     1.846419     1.835239     1.824060     1.812881     1.801701
      1.790522     1.779342     1.768163     1.756983     1.745804     1.734624     1.723445     1.712265     1.701086     1.689907
      1.678727     1.667548     1.656368     1.645189     1.634009     1.622830     1.611650     1.600471     1.589292     1.578112
      1.566933     1.555753     1.544574     1.533394     1.522215     1.511035     1.499856     1.488677     1.477497     1.466318
      1.455138     1.443959     1.432779     1.421600     1.410420     1.399241     1.388062     1.376882     1.365703     1.354523
      1.343344     1.332164     1.320985     1.309805     1.298626     1.287446     1.276267     1.265088     1.253908     1.242729
      1.231549     1.220370     1.209190     1.198011     1.186831     1.175652     1.164473     1.153293     1.142114     1.130934
      1.119755     1.108575     1.097396     1.086216     1.075037     1.063858     1.052678     1.041499     1.030319     1.019140
      1.007960     0.996781     0.985601     0.974422     0.963243     0.952063     0.940884     0.929704     0.918525     0.907345
      0.896166     0.884986     0.873807     0.862628     0.851448     0.840269     0.829089     0.817910     0.806730     0.795551
      0.784371     0.773192     0.762012     0.750833     0.739654     0.728474     0.717295     0.706115     0.694936     0.683756
      0.672577     0.661397     0.650218     0.639039     0.627859     0.616680     0.605500     0.594321     0.583141     0.571962
      0.560782     0.549603     0.538424     0.527244     0.516065     0.504885     0.493706     0.482526     0.471347     0.460167
      0.448988     0.437809     0.426629     0.415450     0.404270     0.393091     0.381911     0.370732     0.359552     0.348373
      0.337193     0.326014     0.314835     0.303655     0.292476     0.281296     0.270117     0.258937     0.247758     0.236578
      0.225399     0.214220     0.203040
 NY phased data points follow
   1.25569E-08  8.87894E-09  1.33809E-08  9.67744E-09  1.37088E-08  1.00833E-08  1.36231E-08  1.01619E-08  1.30285E-08  9.91749E-09
   1.30978E-08  9.90154E-09  1.31829E-08  9.62723E-09  1.25246E-08  9.87352E-09  1.25348E-08  9.22575E-09  1.26415E-08  9.97666E-09
   1.26726E-08  9.86380E-09  1.29587E-08  9.51242E-09  1.22604E-08  9.19834E-09  1.18689E-08  9.37690E-09  1.20138E-08  9.33184E-09
   1.16557E-08  9.25989E-09  1.07091E-08  9.44620E-09  1.14159E-08  9.66873E-09  1.22408E-08  9.98353E-09  1.23424E-08  9.49811E-09
   1.19924E-08  9.48703E-09  1.16296E-08  9.44353E-09  1.15091E-08  9.06295E-09  1.10093E-08  9.20485E-09  1.06368E-08  8.66594E-09
   9.89239E-09  8.14819E-09  9.78665E-09  8.01095E-09  9.71334E-09  7.50322E-09  9.49045E-09  7.40123E-09  8.68524E-09  7.12963E-09
   8.54411E-09  6.78589E-09  8.31759E-09  6.36530E-09  9.02277E-09  7.25749E-09  9.67070E-09  7.85120E-09  9.52820E-09  8.16657E-09
   9.92334E-09  8.15692E-09  9.65613E-09  7.38509E-09  8.84102E-09  7.07232E-09  8.44009E-09  6.56651E-09  8.31918E-09  6.63788E-09
   8.63923E-09  7.08110E-09  9.69219E-09  8.60324E-09  1.12353E-08  9.68499E-09  1.17899E-08  1.00153E-08  1.20567E-08  1.01782E-08
   1.19814E-08  1.01485E-08  1.20617E-08  1.02102E-08  1.15529E-08  9.62365E-09  1.13997E-08  9.52778E-09  1.03728E-08  8.93106E-09
   1.05102E-08  8.05789E-09  1.00542E-08  8.25639E-09  9.29844E-09  8.18557E-09  9.24793E-09  7.55827E-09  8.97150E-09  7.11979E-09
   8.46164E-09  6.60216E-09  7.90836E-09  6.21691E-09  7.29951E-09  5.63036E-09  7.41797E-09  5.89957E-09  7.46217E-09  5.29180E-09
   7.30060E-09  5.90025E-09  6.82745E-09  5.22293E-09  6.83347E-09  4.99655E-09  6.24691E-09  4.59424E-09  6.49080E-09  4.69034E-09
   6.12105E-09  5.29297E-09  6.66433E-09  4.77415E-09  6.73498E-09  5.39747E-09  7.23521E-09  5.81465E-09  7.57233E-09  5.90494E-09
   7.65764E-09  6.71613E-09  8.32984E-09  7.31744E-09  8.91655E-09  7.46161E-09  9.19083E-09  8.01494E-09  9.87948E-09  8.20379E-09
   1.01046E-08  9.34250E-09  1.05438E-08  8.79452E-09  1.04634E-08  8.71489E-09  1.04356E-08  8.80126E-09  1.02077E-08  8.91990E-09
   1.03174E-08  8.82614E-09  1.06374E-08  8.82497E-09  1.07553E-08  8.95331E-09  1.06005E-08  9.17048E-09  1.12507E-08  9.88363E-09
   1.20455E-08  1.11622E-08  1.32519E-08  1.26675E-08  1.50650E-08  1.37836E-08  1.54158E-08  1.34010E-08  1.45480E-08  1.20284E-08
   1.23775E-08  1.05593E-08  1.07397E-08  8.10070E-09  7.60090E-09  5.12298E-09  4.55738E-09  1.18833E-09  1.22671E-09 -1.97490E-09
  -2.18350E-09 -5.15755E-09 -5.65117E-09 -7.62547E-09 -7.63732E-09 -9.48595E-09 -9.42104E-09 -1.05640E-08 -1.04055E-08 -1.17261E-08
  -1.08383E-08 -1.17832E-08 -1.05647E-08 -1.14758E-08 -1.05460E-08 -1.12708E-08 -9.82042E-09 -1.05053E-08 -9.37819E-09 -9.55966E-09
  -8.04576E-09 -8.27534E-09 -7.04077E-09 -6.41155E-09 -5.09066E-09 -5.42705E-09 -4.20148E-09 -4.39027E-09 -3.19821E-09 -3.35013E-09
  -3.13958E-09 -3.76769E-09 -2.49012E-09 -3.07619E-09 -2.26665E-09 -3.24722E-09 -2.67205E-09 -2.94526E-09 -2.56978E-09 -3.30928E-09
  -2.82798E-09 -3.06341E-09 -2.87282E-09 -3.29550E-09 -2.93074E-09 -3.17527E-09 -2.54623E-09 -2.87491E-09 -2.95865E-09 -3.35844E-09
  -2.95716E-09 -3.46124E-09 -3.16749E-09 -3.17276E-09 -3.01341E-09 -3.21688E-09 -3.24117E-09 -3.28223E-09 -3.10360E-09 -2.95086E-09
  -2.82319E-09 -3.16382E-09 -2.92023E-09 -3.25266E-09 -3.12544E-09 -2.76534E-09 -2.96379E-09 -3.12281E-09 -2.75250E-09 -3.06214E-09
  -3.37446E-09 -3.28658E-09 -3.17989E-09 -3.81067E-09 -3.53719E-09 -3.35756E-09 -3.34171E-09 -3.59907E-09 -3.35531E-09 -3.24908E-09
  -3.11493E-09 -2.94770E-09 -3.02735E-09 -3.14395E-09 -3.12802E-09 -2.71974E-09 -2.75017E-09 -2.44239E-09 -2.51659E-09 -2.64410E-09
  -2.97793E-09 -2.17413E-09 -2.37807E-09 -2.66352E-09 -2.81078E-09 -2.47875E-09 -3.46365E-09 -2.45882E-09 -3.54844E-09 -3.32566E-09
  -3.30220E-09 -3.16064E-09 -3.48766E-09 -2.53573E-09 -3.73679E-09 -2.80076E-09 -4.02895E-09 -3.09266E-09 -3.71355E-09 -3.38943E-09
  -3.87305E-09 -2.80308E-09 -4.49363E-09 -3.87767E-09 -3.83028E-09 -3.80620E-09 -3.95307E-09 -3.61763E-09 -4.04818E-09 -3.66418E-09
  -4.19236E-09 -3.19893E-09 -4.07054E-09 -3.61671E-09 -4.04435E-09 -3.66491E-09 -4.79932E-09 -3.01106E-09 -4.40311E-09 -3.57492E-09
  -4.52023E-09 -3.80504E-09 -4.49794E-09 -3.73579E-09 -4.52126E-09 -3.64531E-09 -5.08664E-09 -2.98053E-09 -4.36462E-09 -3.83033E-09
  -4.15089E-09 -3.54579E-09 -4.43385E-09 -3.19834E-09 -4.18903E-09 -3.46554E-09 -4.03773E-09 -3.33593E-09 -4.04414E-09 -3.46078E-09
  -4.36091E-09 -3.01922E-09 -3.77415E-09 -3.61915E-09 -4.00996E-09 -3.05230E-09 -3.91891E-09 -3.27027E-09 -3.99313E-09 -2.89248E-09
  -3.48030E-09 -3.01892E-09 -2.93338E-09 -3.06707E-09 -3.30890E-09 -2.75236E-09 -3.56029E-09 -2.66103E-09 -3.61595E-09 -3.02971E-09
  -3.22316E-09 -2.74937E-09 -2.67284E-09
 NY points of the fit to the data follow
   1.19474E-08  1.17278E-08  1.14427E-08  1.14471E-08  1.15440E-08  1.15675E-08  1.13178E-08  1.09206E-08  1.07170E-08  1.05949E-08
   1.05967E-08  1.06506E-08  1.08467E-08  1.13166E-08  1.17415E-08  1.18880E-08  1.20032E-08  1.21511E-08  1.19016E-08  1.13711E-08
   1.11773E-08  1.12564E-08  1.12338E-08  1.13193E-08  1.11310E-08  1.06524E-08  1.03885E-08  1.01988E-08  1.00223E-08  1.01311E-08
   1.06071E-08  1.08152E-08  1.09268E-08  1.09440E-08  1.03722E-08  1.01546E-08  1.04495E-08  1.08009E-08  1.10253E-08  1.09868E-08
   1.07053E-08  1.05007E-08  1.04075E-08  9.87698E-09  9.46130E-09  9.83092E-09  9.67871E-09  9.01088E-09  8.74200E-09  8.87260E-09
   9.27506E-09  9.69959E-09  9.99326E-09  9.85781E-09  9.27466E-09  8.69349E-09  8.13377E-09  8.28048E-09  8.39529E-09  8.17072E-09
   7.93302E-09  7.97035E-09  8.27393E-09  8.55873E-09  8.89240E-09  9.52235E-09  9.86803E-09  9.94900E-09  1.01413E-08  1.04051E-08
   1.05982E-08  1.05408E-08  1.01854E-08  9.72821E-09  9.54623E-09  8.96225E-09  8.09418E-09  8.31519E-09  8.57626E-09  8.40225E-09
   8.42746E-09  8.53819E-09  8.65366E-09  9.05333E-09  9.57801E-09  9.85733E-09  1.00111E-08  9.89253E-09  9.48566E-09  9.51610E-09
   9.58657E-09  9.63506E-09  9.82839E-09  9.80134E-09  9.41570E-09  9.34343E-09  9.31234E-09  8.89357E-09  8.63538E-09  8.56225E-09
   8.44723E-09  8.33410E-09  8.25879E-09  8.26251E-09  8.28732E-09  8.30773E-09  8.32645E-09  8.34568E-09  8.35046E-09  8.31680E-09
   8.23582E-09  8.15744E-09  8.15205E-09  8.07321E-09  7.94721E-09  7.89930E-09  7.87428E-09  7.85680E-09  7.84201E-09  7.82785E-09
   7.81321E-09  7.79752E-09  7.78035E-09  7.76137E-09  7.74033E-09  7.71704E-09  7.69133E-09  7.66305E-09  7.63210E-09  7.59834E-09
   7.56167E-09  7.52197E-09  7.47918E-09  7.43320E-09  7.38395E-09  7.33134E-09  7.27531E-09  7.21574E-09  7.15259E-09  7.08577E-09
   7.01525E-09  6.94096E-09  6.86284E-09  6.78082E-09  6.69486E-09  6.60491E-09  6.51100E-09  6.41330E-09  6.31200E-09  6.20728E-09
   6.09936E-09  5.98849E-09  5.87495E-09  5.75906E-09  5.64122E-09  5.52191E-09  5.40174E-09  5.28153E-09  5.16240E-09  5.04596E-09
   4.93466E-09  4.83247E-09  4.74637E-09  4.68991E-09  4.69373E-09  4.84501E-09  5.50863E-09  8.11348E-09  1.06920E-08  1.19368E-08
   1.23550E-08  1.26305E-08  1.32335E-08  1.42295E-08  1.55068E-08  1.63262E-08  1.54592E-08  1.16153E-08  5.87142E-09  3.26208E-09
   2.38040E-09  1.90016E-09  1.56248E-09  1.29015E-09  1.05279E-09  8.36267E-10  6.33218E-10  4.39495E-10  2.52572E-10  7.09242E-11
  -1.06432E-10 -2.80162E-10 -4.50674E-10 -6.18242E-10 -7.83023E-10 -9.45132E-10 -1.10462E-09 -1.26146E-09 -1.41566E-09 -1.56717E-09
  -1.71594E-09 -1.86189E-09 -2.00494E-09 -2.14501E-09 -2.28200E-09 -2.41581E-09 -2.54634E-09 -2.67348E-09 -2.79713E-09 -2.91715E-09
  -3.03347E-09 -3.14595E-09 -3.25447E-09 -3.35892E-09 -3.45920E-09 -3.55515E-09 -3.64668E-09 -3.73368E-09 -3.81600E-09 -3.89372E-09
  -3.96690E-09 -4.03567E-09 -4.10008E-09 -4.16025E-09 -4.21625E-09 -4.26820E-09 -4.31617E-09 -4.36025E-09 -4.40054E-09 -4.43712E-09
  -4.47010E-09 -4.49956E-09 -4.52558E-09 -4.54826E-09 -4.56770E-09 -4.58398E-09 -4.59719E-09 -4.60741E-09 -4.61475E-09 -4.61929E-09
  -4.62111E-09 -4.62034E-09 -4.61702E-09 -4.61127E-09 -4.60316E-09 -4.59279E-09 -4.58026E-09 -4.56565E-09 -4.54905E-09 -4.53054E-09
  -4.51024E-09 -4.48819E-09 -4.46456E-09 -4.43933E-09 -4.41266E-09 -4.38466E-09 -4.35537E-09 -4.32489E-09 -4.29333E-09 -4.26075E-09
  -4.22726E-09 -4.19296E-09 -4.15792E-09 -4.12224E-09 -4.08600E-09 -4.04929E-09 -4.01223E-09 -3.97485E-09 -3.93728E-09 -3.89962E-09
  -3.86193E-09 -3.82431E-09 -3.78687E-09 -3.74965E-09 -3.71280E-09 -3.67636E-09 -3.64045E-09 -3.60516E-09 -3.57054E-09 -3.53672E-09
  -3.50380E-09 -3.47183E-09 -3.44094E-09 -3.41116E-09 -3.38264E-09 -3.35544E-09 -3.32968E-09 -3.30537E-09 -3.28269E-09 -3.26170E-09
  -3.24245E-09 -3.22503E-09 -3.20937E-09 -3.19542E-09 -3.18312E-09 -3.17246E-09 -3.16335E-09 -3.15577E-09 -3.14965E-09 -3.14497E-09
  -3.14166E-09 -3.13967E-09 -3.13897E-09 -3.13951E-09 -3.14121E-09 -3.14406E-09 -3.14800E-09 -3.15299E-09 -3.15896E-09 -3.16587E-09
  -3.17368E-09 -3.18234E-09 -3.19181E-09 -3.20201E-09 -3.21293E-09 -3.22450E-09 -3.23669E-09 -3.24942E-09 -3.26268E-09 -3.27640E-09
  -3.29054E-09 -3.30503E-09 -3.31986E-09 -3.33495E-09 -3.35027E-09 -3.36575E-09 -3.38138E-09 -3.39708E-09 -3.41283E-09 -3.42854E-09
  -3.44420E-09 -3.45975E-09 -3.47512E-09 -3.49029E-09 -3.50522E-09 -3.51983E-09 -3.53410E-09 -3.54796E-09 -3.56139E-09 -3.57429E-09
  -3.58668E-09 -3.59845E-09 -3.60960E-09 -3.62007E-09 -3.62976E-09 -3.63871E-09 -3.64680E-09 -3.65404E-09 -3.66032E-09 -3.66564E-09
  -3.66994E-09 -3.67316E-09 -3.67526E-09 -3.67619E-09 -3.67591E-09 -3.67435E-09 -3.67151E-09 -3.66728E-09 -3.66164E-09 -3.65456E-09
  -3.64597E-09 -3.63582E-09 -3.62409E-09
 NY background values follow
     3.832E-09    3.851E-09    3.871E-09    3.890E-09    3.909E-09    3.928E-09    3.948E-09    3.966E-09    3.985E-09    4.004E-09
     4.023E-09    4.042E-09    4.061E-09    4.080E-09    4.098E-09    4.117E-09    4.136E-09    4.155E-09    4.174E-09    4.193E-09
     4.212E-09    4.231E-09    4.251E-09    4.270E-09    4.290E-09    4.310E-09    4.329E-09    4.349E-09    4.370E-09    4.390E-09
     4.411E-09    4.432E-09    4.453E-09    4.474E-09    4.496E-09    4.517E-09    4.540E-09    4.562E-09    4.585E-09    4.608E-09
     4.631E-09    4.655E-09    4.679E-09    4.703E-09    4.728E-09    4.753E-09    4.779E-09    4.805E-09    4.831E-09    4.858E-09
     4.885E-09    4.913E-09    4.941E-09    4.969E-09    4.999E-09    5.028E-09    5.058E-09    5.089E-09    5.120E-09    5.152E-09
     5.185E-09    5.217E-09    5.251E-09    5.285E-09    5.320E-09    5.355E-09    5.391E-09    5.428E-09    5.465E-09    5.503E-09
     5.542E-09    5.581E-09    5.621E-09    5.662E-09    5.703E-09    5.746E-09    5.788E-09    5.831E-09    5.875E-09    5.919E-09
     5.963E-09    6.007E-09    6.051E-09    6.096E-09    6.140E-09    6.185E-09    6.229E-09    6.273E-09    6.316E-09    6.359E-09
     6.402E-09    6.444E-09    6.486E-09    6.527E-09    6.567E-09    6.607E-09    6.645E-09    6.683E-09    6.720E-09    6.755E-09
     6.790E-09    6.823E-09    6.855E-09    6.885E-09    6.914E-09    6.942E-09    6.968E-09    6.992E-09    7.015E-09    7.036E-09
     7.055E-09    7.072E-09    7.087E-09    7.100E-09    7.110E-09    7.119E-09    7.125E-09    7.129E-09    7.131E-09    7.130E-09
     7.126E-09    7.120E-09    7.111E-09    7.099E-09    7.085E-09    7.067E-09    7.047E-09    7.023E-09    6.997E-09    6.967E-09
     6.934E-09    6.897E-09    6.857E-09    6.814E-09    6.767E-09    6.716E-09    6.662E-09    6.604E-09    6.542E-09    6.476E-09
     6.406E-09    6.332E-09    6.254E-09    6.172E-09    6.085E-09    5.995E-09    5.899E-09    5.800E-09    5.696E-09    5.589E-09
     5.478E-09    5.362E-09    5.244E-09    5.121E-09    4.996E-09    4.867E-09    4.735E-09    4.600E-09    4.462E-09    4.321E-09
     4.178E-09    4.032E-09    3.884E-09    3.734E-09    3.581E-09    3.427E-09    3.270E-09    3.112E-09    2.953E-09    2.791E-09
     2.629E-09    2.465E-09    2.300E-09    2.134E-09    1.967E-09    1.800E-09    1.631E-09    1.463E-09    1.294E-09    1.124E-09
     9.549E-10    7.855E-10    6.162E-10    4.471E-10    2.785E-10    1.103E-10   -5.727E-11   -2.240E-10   -3.900E-10   -5.549E-10
    -7.187E-10   -8.812E-10   -1.042E-09   -1.202E-09   -1.360E-09   -1.516E-09   -1.671E-09   -1.823E-09   -1.973E-09   -2.121E-09
    -2.267E-09   -2.410E-09   -2.551E-09   -2.689E-09   -2.823E-09   -2.955E-09   -3.084E-09   -3.210E-09   -3.332E-09   -3.450E-09
    -3.565E-09   -3.677E-09   -3.784E-09   -3.887E-09   -3.987E-09   -4.082E-09   -4.172E-09   -4.258E-09   -4.340E-09   -4.417E-09
    -4.489E-09   -4.557E-09   -4.621E-09   -4.681E-09   -4.736E-09   -4.787E-09   -4.835E-09   -4.878E-09   -4.918E-09   -4.954E-09
    -4.987E-09   -5.016E-09   -5.041E-09   -5.063E-09   -5.082E-09   -5.098E-09   -5.111E-09   -5.121E-09   -5.128E-09   -5.132E-09
    -5.133E-09   -5.132E-09   -5.128E-09   -5.122E-09   -5.114E-09   -5.103E-09   -5.090E-09   -5.075E-09   -5.058E-09   -5.040E-09
    -5.019E-09   -4.997E-09   -4.973E-09   -4.947E-09   -4.920E-09   -4.892E-09   -4.862E-09   -4.832E-09   -4.800E-09   -4.767E-09
    -4.733E-09   -4.698E-09   -4.663E-09   -4.627E-09   -4.591E-09   -4.554E-09   -4.516E-09   -4.479E-09   -4.441E-09   -4.403E-09
    -4.365E-09   -4.327E-09   -4.290E-09   -4.252E-09   -4.215E-09   -4.178E-09   -4.142E-09   -4.107E-09   -4.072E-09   -4.038E-09
    -4.005E-09   -3.972E-09   -3.941E-09   -3.911E-09   -3.883E-09   -3.855E-09   -3.829E-09   -3.805E-09   -3.782E-09   -3.760E-09
    -3.741E-09   -3.723E-09   -3.707E-09   -3.693E-09   -3.681E-09   -3.670E-09   -3.661E-09   -3.653E-09   -3.646E-09   -3.642E-09
    -3.638E-09   -3.636E-09   -3.635E-09   -3.635E-09   -3.637E-09   -3.639E-09   -3.643E-09   -3.648E-09   -3.654E-09   -3.660E-09
    -3.668E-09   -3.676E-09   -3.686E-09   -3.695E-09   -3.706E-09   -3.718E-09   -3.730E-09   -3.742E-09   -3.755E-09   -3.769E-09
    -3.782E-09   -3.797E-09   -3.811E-09   -3.826E-09   -3.841E-09   -3.857E-09   -3.872E-09   -3.887E-09   -3.903E-09   -3.918E-09
    -3.934E-09   -3.949E-09   -3.964E-09   -3.979E-09   -3.994E-09   -4.008E-09   -4.022E-09   -4.036E-09   -4.049E-09   -4.062E-09
    -4.074E-09   -4.086E-09   -4.097E-09   -4.107E-09   -4.116E-09   -4.125E-09   -4.133E-09   -4.140E-09   -4.146E-09   -4.151E-09
    -4.155E-09   -4.158E-09   -4.160E-09   -4.161E-09   -4.160E-09   -4.158E-09   -4.155E-09   -4.151E-09   -4.145E-09   -4.137E-09
    -4.129E-09   -4.118E-09   -4.106E-09
 Ala      Conc. = 1.12E-10
   3.90658E-09  3.93484E-09  3.95878E-09  3.98180E-09  4.00351E-09  4.02492E-09  4.04252E-09  4.04876E-09  4.06073E-09  4.08114E-09
   4.08445E-09  4.08810E-09  4.10416E-09  4.11571E-09  4.12602E-09  4.13992E-09  4.15561E-09  4.17231E-09  4.18967E-09  4.20748E-09
   4.22564E-09  4.24410E-09  4.26280E-09  4.28174E-09  4.30089E-09  4.32025E-09  4.33982E-09  4.35961E-09  4.37961E-09  4.39984E-09
   4.42029E-09  4.44098E-09  4.46192E-09  4.48312E-09  4.50458E-09  4.52632E-09  4.54834E-09  4.57067E-09  4.59330E-09  4.61625E-09
   4.63954E-09  4.66316E-09  4.68714E-09  4.71149E-09  4.73621E-09  4.76132E-09  4.78684E-09  4.81276E-09  4.83911E-09  4.86590E-09
   4.89313E-09  4.92083E-09  4.94899E-09  4.97764E-09  5.00679E-09  5.03644E-09  5.06662E-09  5.09733E-09  5.12857E-09  5.16038E-09
   5.19275E-09  5.22571E-09  5.25925E-09  5.29341E-09  5.32818E-09  5.36358E-09  5.39962E-09  5.43631E-09  5.47368E-09  5.51172E-09
   5.55046E-09  5.58989E-09  5.63006E-09  5.67094E-09  5.71252E-09  5.75473E-09  5.79749E-09  5.84074E-09  5.88441E-09  5.92843E-09
   5.97274E-09  6.01726E-09  6.06194E-09  6.10670E-09  6.15150E-09  6.19626E-09  6.24092E-09  6.28544E-09  6.32978E-09  6.37387E-09
   6.41771E-09  6.46128E-09  6.50460E-09  6.54774E-09  6.59083E-09  6.63418E-09  6.67842E-09  6.72493E-09  6.77744E-09  6.84931E-09
   6.96047E-09  7.03634E-09  7.08959E-09  7.18630E-09  7.28170E-09  7.35790E-09  7.42216E-09  7.47907E-09  7.51533E-09  7.50815E-09
   7.44962E-09  7.39096E-09  7.40307E-09  7.33982E-09  7.22773E-09  7.19214E-09  7.17793E-09  7.17020E-09  7.16426E-09  7.15817E-09
   7.15090E-09  7.14193E-09  7.13086E-09  7.11747E-09  7.10155E-09  7.08295E-09  7.06153E-09  7.03721E-09  7.00987E-09  6.97941E-09
   6.94575E-09  6.90881E-09  6.86850E-09  6.82475E-09  6.77748E-09  6.72660E-09  6.67206E-09  6.61376E-09  6.55165E-09  6.48563E-09
   6.41565E-09  6.34163E-09  6.26349E-09  6.18117E-09  6.09460E-09  6.00370E-09  5.90846E-09  5.80898E-09  5.70540E-09  5.59783E-09
   5.48641E-09  5.37125E-09  5.25249E-09  5.13026E-09  5.00467E-09  4.87587E-09  4.74399E-09  4.60915E-09  4.47151E-09  4.33122E-09
   4.18842E-09  4.04334E-09  3.89621E-09  3.74743E-09  3.59775E-09  3.44931E-09  3.31195E-09  3.20809E-09  3.09053E-09  2.94731E-09
   2.79255E-09  2.63688E-09  2.48719E-09  2.34312E-09  2.20163E-09  2.04698E-09  1.85656E-09  1.61196E-09  1.34884E-09  1.15482E-09
   9.76608E-10  8.02878E-10  6.31060E-10  4.60394E-10  2.90597E-10  1.21604E-10 -4.65594E-11 -2.13818E-10 -3.80124E-10 -5.45353E-10
  -7.09391E-10 -8.72150E-10 -1.03350E-09 -1.19332E-09 -1.35148E-09 -1.50788E-09 -1.66240E-09 -1.81490E-09 -1.96525E-09 -2.11335E-09
  -2.25907E-09 -2.40227E-09 -2.54285E-09 -2.68067E-09 -2.81561E-09 -2.94754E-09 -3.07634E-09 -3.20190E-09 -3.32407E-09 -3.44273E-09
  -3.55777E-09 -3.66906E-09 -3.77646E-09 -3.87987E-09 -3.97916E-09 -4.07418E-09 -4.16482E-09 -4.25099E-09 -4.33252E-09 -4.40948E-09
  -4.48194E-09 -4.55002E-09 -4.61377E-09 -4.67331E-09 -4.72870E-09 -4.78007E-09 -4.82748E-09 -4.87102E-09 -4.91079E-09 -4.94686E-09
  -4.97936E-09 -5.00834E-09 -5.03390E-09 -5.05614E-09 -5.07515E-09 -5.09100E-09 -5.10380E-09 -5.11363E-09 -5.12058E-09 -5.12473E-09
  -5.12618E-09 -5.12504E-09 -5.12138E-09 -5.11527E-09 -5.10682E-09 -5.09612E-09 -5.08325E-09 -5.06832E-09 -5.05141E-09 -5.03258E-09
  -5.01198E-09 -4.98963E-09 -4.96569E-09 -4.94018E-09 -4.91321E-09 -4.88493E-09 -4.85536E-09 -4.82460E-09 -4.79276E-09 -4.75991E-09
  -4.72615E-09 -4.69159E-09 -4.65629E-09 -4.62035E-09 -4.58385E-09 -4.54689E-09 -4.50958E-09 -4.47195E-09 -4.43413E-09 -4.39623E-09
  -4.35829E-09 -4.32043E-09 -4.28275E-09 -4.24529E-09 -4.20821E-09 -4.17153E-09 -4.13539E-09 -4.09986E-09 -4.06502E-09 -4.03097E-09
  -3.99781E-09 -3.96562E-09 -3.93450E-09 -3.90450E-09 -3.87575E-09 -3.84833E-09 -3.82235E-09 -3.79782E-09 -3.77492E-09 -3.75370E-09
  -3.73423E-09 -3.71660E-09 -3.70071E-09 -3.68654E-09 -3.67403E-09 -3.66315E-09 -3.65383E-09 -3.64603E-09 -3.63970E-09 -3.63479E-09
  -3.63127E-09 -3.62907E-09 -3.62816E-09 -3.62848E-09 -3.62997E-09 -3.63260E-09 -3.63633E-09 -3.64110E-09 -3.64686E-09 -3.65355E-09
  -3.66115E-09 -3.66959E-09 -3.67885E-09 -3.68884E-09 -3.69954E-09 -3.71090E-09 -3.72287E-09 -3.73539E-09 -3.74843E-09 -3.76193E-09
  -3.77586E-09 -3.79013E-09 -3.80474E-09 -3.81962E-09 -3.83472E-09 -3.84998E-09 -3.86539E-09 -3.88088E-09 -3.89640E-09 -3.91189E-09
  -3.92733E-09 -3.94266E-09 -3.95781E-09 -3.97276E-09 -3.98746E-09 -4.00185E-09 -4.01590E-09 -4.02953E-09 -4.04274E-09 -4.05541E-09
  -4.06757E-09 -4.07912E-09 -4.09004E-09 -4.10027E-09 -4.10973E-09 -4.11845E-09 -4.12632E-09 -4.13332E-09 -4.13937E-09 -4.14445E-09
  -4.14852E-09 -4.15150E-09 -4.15336E-09 -4.15405E-09 -4.15353E-09 -4.15173E-09 -4.14864E-09 -4.14417E-09 -4.13829E-09 -4.13097E-09
  -4.12212E-09 -4.11173E-09 -4.09975E-09
 Asp      Conc. = 2.05E-09
   6.35032E-09  6.09705E-09  5.81711E-09  5.65618E-09  5.45344E-09  5.16849E-09  4.91330E-09  4.55170E-09  4.40073E-09  4.33085E-09
   4.29561E-09  4.27894E-09  4.27466E-09  4.27998E-09  4.29065E-09  4.30244E-09  4.31603E-09  4.33130E-09  4.34804E-09  4.36607E-09
   4.38529E-09  4.40563E-09  4.42707E-09  4.44964E-09  4.47342E-09  4.49851E-09  4.52507E-09  4.55335E-09  4.58367E-09  4.61649E-09
   4.65246E-09  4.69256E-09  4.73830E-09  4.79223E-09  4.85907E-09  4.94926E-09  5.09077E-09  5.25644E-09  5.43046E-09  5.54926E-09
   5.60947E-09  5.67499E-09  5.81901E-09  6.17463E-09  6.55636E-09  7.11043E-09  7.39437E-09  7.31803E-09  7.29939E-09  7.53764E-09
   7.97392E-09  8.40855E-09  8.71369E-09  8.60615E-09  8.04922E-09  7.46399E-09  6.83983E-09  6.89551E-09  6.92374E-09  6.63532E-09
   6.32598E-09  6.21303E-09  6.10996E-09  6.07535E-09  6.18880E-09  6.21543E-09  6.05069E-09  5.95229E-09  5.90724E-09  5.88897E-09
   5.88637E-09  5.89401E-09  5.90892E-09  5.92923E-09  5.95373E-09  5.98154E-09  6.01200E-09  6.04463E-09  6.07902E-09  6.11488E-09
   6.15194E-09  6.18998E-09  6.22881E-09  6.26826E-09  6.30819E-09  6.34845E-09  6.38892E-09  6.42948E-09  6.47004E-09  6.51047E-09
   6.55068E-09  6.59058E-09  6.63006E-09  6.66907E-09  6.70748E-09  6.74522E-09  6.78222E-09  6.81839E-09  6.85364E-09  6.88790E-09
   6.92109E-09  6.95314E-09  6.98396E-09  7.01348E-09  7.04162E-09  7.06832E-09  7.09348E-09  7.11705E-09  7.13895E-09  7.15909E-09
   7.17743E-09  7.19387E-09  7.20834E-09  7.22077E-09  7.23108E-09  7.23922E-09  7.24510E-09  7.24865E-09  7.24980E-09  7.24849E-09
   7.24463E-09  7.23816E-09  7.22900E-09  7.21709E-09  7.20236E-09  7.18472E-09  7.16411E-09  7.14047E-09  7.11372E-09  7.08379E-09
   7.05062E-09  7.01412E-09  6.97425E-09  6.93091E-09  6.88405E-09  6.83359E-09  6.77948E-09  6.72164E-09  6.66000E-09  6.59449E-09
   6.52506E-09  6.45164E-09  6.37416E-09  6.29256E-09  6.20679E-09  6.11677E-09  6.02252E-09  5.92415E-09  5.82182E-09  5.71567E-09
   5.60585E-09  5.49255E-09  5.37593E-09  5.25618E-09  5.13351E-09  5.00817E-09  4.88043E-09  4.75064E-09  4.61925E-09  4.48682E-09
   4.35420E-09  4.22268E-09  4.09445E-09  3.97355E-09  3.86881E-09  3.80395E-09  3.86983E-09  4.52970E-09  5.22035E-09  5.50545E-09
   5.52370E-09  5.48697E-09  5.54383E-09  5.71901E-09  5.98607E-09  6.13355E-09  5.79681E-09  4.56247E-09  2.67843E-09  1.71295E-09
   1.31750E-09  1.05161E-09  8.31040E-10  6.31087E-10  4.42183E-10  2.59983E-10  8.22896E-11 -9.20781E-11 -2.63831E-10 -4.33325E-10
  -6.00766E-10 -7.66281E-10 -9.29890E-10 -1.09159E-09 -1.25133E-09 -1.40907E-09 -1.56473E-09 -1.71821E-09 -1.86941E-09 -2.01826E-09
  -2.16462E-09 -2.30841E-09 -2.44949E-09 -2.58777E-09 -2.72312E-09 -2.85541E-09 -2.98454E-09 -3.11039E-09 -3.23284E-09 -3.35174E-09
  -3.46702E-09 -3.57851E-09 -3.68610E-09 -3.78968E-09 -3.88914E-09 -3.98431E-09 -4.07510E-09 -4.16139E-09 -4.24305E-09 -4.32012E-09
  -4.39269E-09 -4.46087E-09 -4.52472E-09 -4.58436E-09 -4.63983E-09 -4.69128E-09 -4.73877E-09 -4.78238E-09 -4.82223E-09 -4.85837E-09
