 LCModel (Version 6.3-1R) Copyright: S.W. Provencher.          Ref.: Magn. Reson. Med. 30:672-679 (1993).                
 onepulse 10x17_ftSpec_smooth_lcm
 26 lines in following concentration table = NCONC+1
    Conc.  %SD   /Cr    Metabolite                                         
 1.39E-10 202%   0.000 Ala                                                 
 2.56E-09  21%   0.000 Asp                                                 
    0.000 999%   0.000 Cr                                                  
 2.27E-09  17%   0.000 GABA                                                
 9.12E-10  62%   0.000 Glc                                                 
    0.000 999%   0.000 Gln                                                 
    0.000 999%   0.000 Glu                                                 
    0.000 999%   0.000 Glyc                                                
 9.63E-11  81%   0.000 GPC                                                 
    0.000 999%   0.000 GSH                                                 
 6.95E-10  55%   0.000 Ins                                                 
    0.000 999%   0.000 Lac                                                 
    0.000 999%   0.000 NAAG                                                
 2.09E-10  98%   0.000 NAA                                                 
    0.000 999%   0.000 PCh                                                 
    0.000 999%   0.000 PCr                                                 
    0.000 999%   0.000 PE                                                  
 1.73E-10  83%   0.000 Scyllo                                              
    0.000 999%   0.000 Ser                                                 
    0.000 999%   0.000 Tau                                                 
 9.63E-11  81%   0.000 GPC+PCh                                             
 2.09E-10  98%   0.000 NAA+NAAG                                            
 6.95E-10  55%   0.000 Ins+Glyc                                            
    0.000 999%   0.000 Cr+PCr                                              
    0.000 999%   0.000 Glu+Gln                                             
   6 lines in following misc. output table
  FWHM = 0.067 ppm    S/N =   3                                            
  Data shift = 0.335 ppm                                                   
  Ph:  94 deg       3.7 deg/ppm                                            
  alphaB,S = 7.1E-01,   7.3E+00                                            
    8 spline knots.   Ns = 5(1)                                            
  (12) 3 infls.   (11) 3 extrs.                                            
  363 points on ppm-axis = NY
      4.250000     4.238821     4.227641     4.216462     4.205282     4.194103     4.182923     4.171744     4.160564     4.149385
      4.138206     4.127026     4.115847     4.104667     4.093488     4.082308     4.071129     4.059949     4.048770     4.037591
      4.026411     4.015232     4.004052     3.992873     3.981693     3.970514     3.959334     3.948155     3.936975     3.925796
      3.914617     3.903437     3.892258     3.881078     3.869899     3.858719     3.847540     3.836360     3.825181     3.814002
      3.802822     3.791643     3.780463     3.769284     3.758104     3.746925     3.735745     3.724566     3.713387     3.702207
      3.691028     3.679848     3.668669     3.657489     3.646310     3.635130     3.623951     3.612772     3.601592     3.590413
      3.579233     3.568054     3.556874     3.545695     3.534515     3.523336     3.512156     3.500977     3.489798     3.478618
      3.467439     3.456259     3.445080     3.433900     3.422721     3.411541     3.400362     3.389183     3.378003     3.366824
      3.355644     3.344465     3.333285     3.322106     3.310926     3.299747     3.288568     3.277388     3.266209     3.255029
      3.243850     3.232670     3.221491     3.210311     3.199132     3.187953     3.176773     3.165594     3.154414     3.143235
      3.132055     3.120876     3.109696     3.098517     3.087337     3.076158     3.064979     3.053799     3.042620     3.031440
      3.020261     3.009081     2.997902     2.986722     2.975543     2.964364     2.953184     2.942005     2.930825     2.919646
      2.908466     2.897287     2.886107     2.874928     2.863749     2.852569     2.841390     2.830210     2.819031     2.807851
      2.796672     2.785492     2.774313     2.763134     2.751954     2.740775     2.729595     2.718416     2.707236     2.696057
      2.684877     2.673698     2.662519     2.651339     2.640160     2.628980     2.617801     2.606621     2.595442     2.584262
      2.573083     2.561903     2.550724     2.539545     2.528365     2.517186     2.506006     2.494827     2.483647     2.472468
      2.461288     2.450109     2.438930     2.427750     2.416571     2.405391     2.394212     2.383032     2.371853     2.360673
      2.349494     2.338315     2.327135     2.315956     2.304776     2.293597     2.282417     2.271238     2.260058     2.248879
      2.237700     2.226520     2.215341     2.204161     2.192982     2.181802     2.170623     2.159443     2.148264     2.137084
      2.125905     2.114726     2.103546     2.092367     2.081187     2.070008     2.058828     2.047649     2.036469     2.025290
      2.014111     2.002931     1.991752     1.980572     1.969393     1.958213     1.947034     1.935854     1.924675     1.913496
      1.902316     1.891137     1.879957     1.868778     1.857598     1.846419     1.835239     1.824060     1.812881     1.801701
      1.790522     1.779342     1.768163     1.756983     1.745804     1.734624     1.723445     1.712265     1.701086     1.689907
      1.678727     1.667548     1.656368     1.645189     1.634009     1.622830     1.611650     1.600471     1.589292     1.578112
      1.566933     1.555753     1.544574     1.533394     1.522215     1.511035     1.499856     1.488677     1.477497     1.466318
      1.455138     1.443959     1.432779     1.421600     1.410420     1.399241     1.388062     1.376882     1.365703     1.354523
      1.343344     1.332164     1.320985     1.309805     1.298626     1.287446     1.276267     1.265088     1.253908     1.242729
      1.231549     1.220370     1.209190     1.198011     1.186831     1.175652     1.164473     1.153293     1.142114     1.130934
      1.119755     1.108575     1.097396     1.086216     1.075037     1.063858     1.052678     1.041499     1.030319     1.019140
      1.007960     0.996781     0.985601     0.974422     0.963243     0.952063     0.940884     0.929704     0.918525     0.907345
      0.896166     0.884986     0.873807     0.862628     0.851448     0.840269     0.829089     0.817910     0.806730     0.795551
      0.784371     0.773192     0.762012     0.750833     0.739654     0.728474     0.717295     0.706115     0.694936     0.683756
      0.672577     0.661397     0.650218     0.639039     0.627859     0.616680     0.605500     0.594321     0.583141     0.571962
      0.560782     0.549603     0.538424     0.527244     0.516065     0.504885     0.493706     0.482526     0.471347     0.460167
      0.448988     0.437809     0.426629     0.415450     0.404270     0.393091     0.381911     0.370732     0.359552     0.348373
      0.337193     0.326014     0.314835     0.303655     0.292476     0.281296     0.270117     0.258937     0.247758     0.236578
      0.225399     0.214220     0.203040
 NY phased data points follow
   9.34275E-09  1.21157E-08  1.08341E-08  1.33051E-08  1.11658E-08  1.33431E-08  1.05113E-08  1.24805E-08  9.89367E-09  1.19095E-08
   9.84876E-09  1.17207E-08  9.33289E-09  1.17282E-08  9.47235E-09  1.16919E-08  9.63831E-09  1.14258E-08  9.92114E-09  1.22706E-08
   9.80062E-09  1.13672E-08  9.45362E-09  1.12782E-08  9.16045E-09  1.10422E-08  8.84853E-09  1.09300E-08  9.55711E-09  1.06877E-08
   8.85527E-09  1.08227E-08  9.09361E-09  1.06630E-08  9.94590E-09  1.13331E-08  1.01577E-08  1.18200E-08  1.00481E-08  1.11169E-08
   9.24679E-09  1.09521E-08  9.03261E-09  1.04096E-08  8.73159E-09  9.98212E-09  8.56280E-09  9.89767E-09  8.28644E-09  9.40713E-09
   7.68318E-09  9.08738E-09  7.64833E-09  8.48597E-09  7.81186E-09  8.83333E-09  7.11389E-09  8.48831E-09  7.11039E-09  8.02015E-09
   7.33674E-09  8.10152E-09  6.86238E-09  8.47087E-09  7.68669E-09  9.76149E-09  8.86721E-09  1.07646E-08  8.88632E-09  1.02559E-08
   8.96491E-09  9.82456E-09  8.05148E-09  9.44078E-09  7.35489E-09  8.62984E-09  7.36885E-09  8.01935E-09  6.63268E-09  8.11991E-09
   7.41101E-09  9.53631E-09  8.62848E-09  1.13645E-08  1.05344E-08  1.23426E-08  1.04130E-08  1.20558E-08  1.03753E-08  1.21650E-08
   1.00685E-08  1.12481E-08  9.92305E-09  1.13453E-08  9.52553E-09  1.07272E-08  9.05746E-09  1.01297E-08  8.50510E-09  9.30349E-09
   8.25228E-09  9.17857E-09  6.99498E-09  8.77223E-09  7.42783E-09  8.48644E-09  7.68934E-09  8.02986E-09  7.16099E-09  7.92183E-09
   6.40228E-09  7.25105E-09  6.23684E-09  6.86969E-09  5.84861E-09  6.82020E-09  5.62154E-09  6.88540E-09  5.83456E-09  6.90436E-09
   5.67261E-09  6.91865E-09  5.90638E-09  6.52666E-09  5.48743E-09  6.69714E-09  5.28876E-09  6.21126E-09  4.93832E-09  6.59652E-09
   5.07787E-09  6.56188E-09  5.91540E-09  6.64693E-09  5.73465E-09  7.22785E-09  6.40505E-09  7.25871E-09  6.54747E-09  7.69808E-09
   6.88274E-09  7.98398E-09  7.49902E-09  8.64041E-09  8.35724E-09  9.19808E-09  8.06414E-09  9.46620E-09  9.03102E-09  1.01583E-08
   9.08670E-09  1.06667E-08  1.00133E-08  1.04947E-08  9.68755E-09  1.03873E-08  9.85062E-09  1.09097E-08  9.51842E-09  1.06710E-08
   9.78436E-09  1.11428E-08  9.83519E-09  1.11500E-08  9.72434E-09  1.12230E-08  1.01468E-08  1.10778E-08  1.00835E-08  1.14363E-08
   1.05838E-08  1.16715E-08  1.14544E-08  1.31652E-08  1.38160E-08  1.54158E-08  1.45119E-08  1.54631E-08  1.44517E-08  1.44131E-08
   1.29033E-08  1.24781E-08  1.11968E-08  1.05486E-08  8.56669E-09  7.35863E-09  5.39653E-09  4.55425E-09  1.31338E-09  9.34933E-10
  -1.42457E-09 -2.48349E-09 -4.73242E-09 -5.94039E-09 -7.18661E-09 -8.04118E-09 -8.81785E-09 -9.25023E-09 -9.50495E-09 -9.85266E-09
  -1.00694E-08 -9.82627E-09 -9.40701E-09 -8.57120E-09 -8.17127E-09 -7.72245E-09 -7.29916E-09 -6.82243E-09 -6.04796E-09 -6.13098E-09
  -5.65147E-09 -5.59322E-09 -4.83921E-09 -5.03488E-09 -3.87686E-09 -4.06296E-09 -3.59876E-09 -3.95825E-09 -3.01808E-09 -3.30645E-09
  -2.19852E-09 -3.30871E-09 -2.74869E-09 -2.68400E-09 -2.23265E-09 -2.32727E-09 -1.82148E-09 -2.36553E-09 -1.29192E-09 -2.14788E-09
  -1.64940E-09 -2.37143E-09 -1.25508E-09 -2.26444E-09 -1.57880E-09 -2.16469E-09 -1.55199E-09 -1.78049E-09 -1.21965E-09 -1.98818E-09
  -1.66403E-09 -1.92941E-09 -1.67779E-09 -2.40199E-09 -1.48368E-09 -2.34363E-09 -1.82750E-09 -2.27276E-09 -1.95166E-09 -2.78371E-09
  -1.94404E-09 -2.48577E-09 -2.10284E-09 -2.54000E-09 -1.74206E-09 -2.63859E-09 -1.41750E-09 -2.10973E-09 -1.92632E-09 -2.21649E-09
  -1.44028E-09 -2.64297E-09 -2.21332E-09 -2.44377E-09 -2.34507E-09 -2.88230E-09 -2.25858E-09 -2.91993E-09 -2.14138E-09 -2.92521E-09
  -2.36688E-09 -3.11681E-09 -2.13681E-09 -2.96036E-09 -2.16847E-09 -3.09223E-09 -1.92641E-09 -2.65185E-09 -1.59043E-09 -2.09037E-09
  -1.39341E-09 -2.72078E-09 -1.53010E-09 -2.01680E-09 -1.60162E-09 -2.27900E-09 -9.99889E-10 -2.66010E-09 -1.38069E-09 -2.39471E-09
  -2.05331E-09 -2.39641E-09 -2.00541E-09 -2.60615E-09 -1.68311E-09 -2.51897E-09 -1.88477E-09 -2.75580E-09 -1.94277E-09 -2.39225E-09
  -2.61596E-09 -2.90967E-09 -2.01551E-09 -2.72671E-09 -2.95601E-09 -2.62276E-09 -2.66000E-09 -3.02968E-09 -2.84571E-09 -3.04911E-09
  -2.96581E-09 -3.27096E-09 -2.91086E-09 -2.91708E-09 -3.31509E-09 -3.24842E-09 -3.02892E-09 -3.34230E-09 -2.69945E-09 -3.32275E-09
  -3.25418E-09 -3.41809E-09 -3.56291E-09 -3.83189E-09 -3.52075E-09 -3.69961E-09 -3.59267E-09 -4.22898E-09 -3.91503E-09 -3.21003E-09
  -4.07083E-09 -3.77883E-09 -3.56781E-09 -3.80309E-09 -4.11993E-09 -3.62019E-09 -3.93466E-09 -4.27371E-09 -4.38115E-09 -3.96458E-09
  -4.29565E-09 -4.48623E-09 -4.25607E-09 -3.82219E-09 -4.29109E-09 -4.47372E-09 -4.53181E-09 -4.14145E-09 -4.52210E-09 -4.41884E-09
  -4.89609E-09 -4.25133E-09 -4.69165E-09 -3.91152E-09 -4.25499E-09 -4.60733E-09 -4.67686E-09 -4.31866E-09 -4.58791E-09 -4.64271E-09
  -5.16585E-09 -4.64271E-09 -5.20233E-09
 NY points of the fit to the data follow
   1.21104E-08  1.14192E-08  1.10871E-08  1.11195E-08  1.14032E-08  1.08881E-08  1.07137E-08  1.05182E-08  1.05005E-08  1.05869E-08
   1.05751E-08  1.06945E-08  1.11504E-08  1.17420E-08  1.16568E-08  1.09911E-08  1.11732E-08  1.16523E-08  1.07718E-08  9.98070E-09
   9.89354E-09  1.03120E-08  1.05502E-08  1.07252E-08  1.01221E-08  9.70784E-09  9.78958E-09  9.83429E-09  9.18813E-09  9.65895E-09
   1.01010E-08  1.03240E-08  1.09394E-08  1.08698E-08  9.61729E-09  9.92976E-09  1.04594E-08  1.07037E-08  1.07636E-08  1.03502E-08
   9.70276E-09  9.75749E-09  1.02701E-08  9.26592E-09  8.67683E-09  9.78550E-09  8.93567E-09  8.06966E-09  8.21488E-09  8.63747E-09
   9.10662E-09  9.57063E-09  9.79796E-09  9.61598E-09  8.78670E-09  8.54897E-09  7.27779E-09  7.89742E-09  8.49789E-09  8.33612E-09
   8.17712E-09  8.70473E-09  9.25714E-09  9.09580E-09  9.72480E-09  1.08355E-08  1.03764E-08  1.01159E-08  1.02557E-08  1.04114E-08
   1.05555E-08  1.03320E-08  9.66477E-09  8.68533E-09  9.07089E-09  8.78908E-09  7.05617E-09  7.73986E-09  8.19043E-09  7.78772E-09
   7.96632E-09  8.15158E-09  8.45690E-09  9.21964E-09  9.50265E-09  9.64967E-09  1.00645E-08  1.00036E-08  9.29298E-09  9.55103E-09
   9.59691E-09  9.36823E-09  9.73895E-09  9.92664E-09  8.90355E-09  8.82883E-09  9.23349E-09  8.46957E-09  8.11293E-09  8.28089E-09
   8.15001E-09  7.97950E-09  7.97987E-09  8.05620E-09  8.09738E-09  8.12686E-09  8.15079E-09  8.20028E-09  8.25397E-09  8.25726E-09
   8.15052E-09  8.01074E-09  8.10446E-09  8.05038E-09  7.86769E-09  7.85140E-09  7.86235E-09  7.87715E-09  7.89085E-09  7.90209E-09
   7.91026E-09  7.91531E-09  7.91722E-09  7.91593E-09  7.91142E-09  7.90371E-09  7.89279E-09  7.87867E-09  7.86134E-09  7.84082E-09
   7.81708E-09  7.79009E-09  7.75991E-09  7.72650E-09  7.68985E-09  7.64993E-09  7.60679E-09  7.56035E-09  7.51064E-09  7.45762E-09
   7.40135E-09  7.34182E-09  7.27906E-09  7.21303E-09  7.14379E-09  7.07136E-09  6.99585E-09  6.91746E-09  6.83644E-09  6.75304E-09
   6.66755E-09  6.58032E-09  6.49174E-09  6.40232E-09  6.31264E-09  6.22347E-09  6.13578E-09  6.05085E-09  5.97049E-09  5.89726E-09
   5.83500E-09  5.78997E-09  5.77290E-09  5.80447E-09  5.93079E-09  6.28123E-09  7.38243E-09  1.08380E-08  1.25325E-08  1.23867E-08
   1.17548E-08  1.18313E-08  1.26299E-08  1.35818E-08  1.44503E-08  1.57174E-08  1.70072E-08  1.64838E-08  9.42825E-09  4.15431E-09
   2.88565E-09  2.36100E-09  2.04852E-09  1.81781E-09  1.62478E-09  1.45132E-09  1.28901E-09  1.13355E-09  9.82570E-10  8.34790E-10
   6.89493E-10  5.46204E-10  4.04731E-10  2.64945E-10  1.26854E-10 -9.56590E-12 -1.44281E-10 -2.77162E-10 -4.08151E-10 -5.37183E-10
  -6.64131E-10 -7.88892E-10 -9.11350E-10 -1.03141E-09 -1.14897E-09 -1.26388E-09 -1.37606E-09 -1.48541E-09 -1.59181E-09 -1.69510E-09
  -1.79527E-09 -1.89214E-09 -1.98561E-09 -2.07560E-09 -2.16201E-09 -2.24470E-09 -2.32359E-09 -2.39861E-09 -2.46961E-09 -2.53668E-09
  -2.59987E-09 -2.65929E-09 -2.71501E-09 -2.76712E-09 -2.81570E-09 -2.86086E-09 -2.90267E-09 -2.94121E-09 -2.97659E-09 -3.00888E-09
  -3.03819E-09 -3.06459E-09 -3.08818E-09 -3.10904E-09 -3.12728E-09 -3.14297E-09 -3.15622E-09 -3.16710E-09 -3.17572E-09 -3.18215E-09
  -3.18648E-09 -3.18884E-09 -3.18928E-09 -3.18790E-09 -3.18478E-09 -3.18003E-09 -3.17373E-09 -3.16597E-09 -3.15684E-09 -3.14642E-09
  -3.13483E-09 -3.12210E-09 -3.10839E-09 -3.09371E-09 -3.07819E-09 -3.06193E-09 -3.04499E-09 -3.02745E-09 -3.00941E-09 -2.99094E-09
  -2.97213E-09 -2.95308E-09 -2.93385E-09 -2.91453E-09 -2.89519E-09 -2.87591E-09 -2.85679E-09 -2.83787E-09 -2.81925E-09 -2.80102E-09
  -2.78322E-09 -2.76594E-09 -2.74927E-09 -2.73324E-09 -2.71797E-09 -2.70349E-09 -2.68989E-09 -2.67724E-09 -2.66558E-09 -2.65499E-09
  -2.64556E-09 -2.63731E-09 -2.63034E-09 -2.62467E-09 -2.62038E-09 -2.61754E-09 -2.61619E-09 -2.61636E-09 -2.61814E-09 -2.62159E-09
  -2.62671E-09 -2.63355E-09 -2.64203E-09 -2.65211E-09 -2.66372E-09 -2.67681E-09 -2.69130E-09 -2.70716E-09 -2.72432E-09 -2.74273E-09
  -2.76232E-09 -2.78305E-09 -2.80485E-09 -2.82767E-09 -2.85145E-09 -2.87614E-09 -2.90169E-09 -2.92804E-09 -2.95513E-09 -2.98291E-09
  -3.01134E-09 -3.04034E-09 -3.06988E-09 -3.09990E-09 -3.13035E-09 -3.16117E-09 -3.19232E-09 -3.22375E-09 -3.25540E-09 -3.28724E-09
  -3.31920E-09 -3.35123E-09 -3.38331E-09 -3.41537E-09 -3.44737E-09 -3.47925E-09 -3.51100E-09 -3.54254E-09 -3.57385E-09 -3.60486E-09
  -3.63555E-09 -3.66588E-09 -3.69578E-09 -3.72524E-09 -3.75421E-09 -3.78265E-09 -3.81052E-09 -3.83777E-09 -3.86439E-09 -3.89031E-09
  -3.91553E-09 -3.93999E-09 -3.96366E-09 -3.98652E-09 -4.00851E-09 -4.02963E-09 -4.04982E-09 -4.06908E-09 -4.08735E-09 -4.10462E-09
  -4.12086E-09 -4.13604E-09 -4.15013E-09 -4.16311E-09 -4.17496E-09 -4.18564E-09 -4.19515E-09 -4.20345E-09 -4.21053E-09 -4.21637E-09
  -4.22095E-09 -4.22424E-09 -4.22624E-09
 NY background values follow
     5.154E-09    5.206E-09    5.257E-09    5.307E-09    5.357E-09    5.406E-09    5.455E-09    5.503E-09    5.551E-09    5.597E-09
     5.644E-09    5.690E-09    5.735E-09    5.780E-09    5.824E-09    5.868E-09    5.911E-09    5.953E-09    5.995E-09    6.037E-09
     6.077E-09    6.118E-09    6.158E-09    6.197E-09    6.236E-09    6.274E-09    6.312E-09    6.349E-09    6.386E-09    6.422E-09
     6.458E-09    6.494E-09    6.529E-09    6.563E-09    6.597E-09    6.631E-09    6.664E-09    6.697E-09    6.729E-09    6.761E-09
     6.792E-09    6.823E-09    6.854E-09    6.884E-09    6.914E-09    6.944E-09    6.973E-09    7.002E-09    7.031E-09    7.059E-09
     7.087E-09    7.115E-09    7.142E-09    7.169E-09    7.196E-09    7.223E-09    7.249E-09    7.275E-09    7.301E-09    7.327E-09
     7.352E-09    7.378E-09    7.403E-09    7.428E-09    7.452E-09    7.477E-09    7.501E-09    7.526E-09    7.550E-09    7.574E-09
     7.598E-09    7.622E-09    7.646E-09    7.670E-09    7.694E-09    7.718E-09    7.741E-09    7.765E-09    7.788E-09    7.811E-09
     7.834E-09    7.856E-09    7.878E-09    7.900E-09    7.921E-09    7.942E-09    7.963E-09    7.982E-09    8.002E-09    8.020E-09
     8.038E-09    8.055E-09    8.072E-09    8.088E-09    8.102E-09    8.116E-09    8.129E-09    8.141E-09    8.152E-09    8.162E-09
     8.171E-09    8.178E-09    8.185E-09    8.190E-09    8.194E-09    8.196E-09    8.197E-09    8.196E-09    8.194E-09    8.191E-09
     8.185E-09    8.178E-09    8.170E-09    8.159E-09    8.147E-09    8.133E-09    8.116E-09    8.098E-09    8.078E-09    8.056E-09
     8.031E-09    8.004E-09    7.975E-09    7.944E-09    7.910E-09    7.874E-09    7.835E-09    7.794E-09    7.750E-09    7.704E-09
     7.654E-09    7.602E-09    7.548E-09    7.490E-09    7.429E-09    7.366E-09    7.299E-09    7.230E-09    7.157E-09    7.081E-09
     7.001E-09    6.919E-09    6.833E-09    6.744E-09    6.651E-09    6.554E-09    6.455E-09    6.351E-09    6.245E-09    6.135E-09
     6.022E-09    5.905E-09    5.786E-09    5.664E-09    5.539E-09    5.412E-09    5.282E-09    5.149E-09    5.014E-09    4.877E-09
     4.738E-09    4.596E-09    4.453E-09    4.308E-09    4.161E-09    4.012E-09    3.862E-09    3.710E-09    3.557E-09    3.403E-09
     3.248E-09    3.092E-09    2.935E-09    2.777E-09    2.618E-09    2.459E-09    2.300E-09    2.140E-09    1.980E-09    1.820E-09
     1.660E-09    1.500E-09    1.340E-09    1.181E-09    1.022E-09    8.643E-10    7.068E-10    5.502E-10    3.946E-10    2.399E-10
     8.652E-11   -6.565E-11   -2.164E-10   -3.657E-10   -5.133E-10   -6.592E-10   -8.033E-10   -9.453E-10   -1.085E-09   -1.223E-09
    -1.359E-09   -1.492E-09   -1.622E-09   -1.751E-09   -1.876E-09   -1.998E-09   -2.118E-09   -2.234E-09   -2.348E-09   -2.458E-09
    -2.564E-09   -2.668E-09   -2.767E-09   -2.863E-09   -2.956E-09   -3.044E-09   -3.129E-09   -3.209E-09   -3.285E-09   -3.357E-09
    -3.426E-09   -3.490E-09   -3.550E-09   -3.607E-09   -3.660E-09   -3.710E-09   -3.756E-09   -3.798E-09   -3.838E-09   -3.874E-09
    -3.907E-09   -3.937E-09   -3.964E-09   -3.989E-09   -4.010E-09   -4.029E-09   -4.046E-09   -4.060E-09   -4.071E-09   -4.080E-09
    -4.088E-09   -4.093E-09   -4.096E-09   -4.097E-09   -4.096E-09   -4.094E-09   -4.090E-09   -4.084E-09   -4.077E-09   -4.069E-09
    -4.059E-09   -4.048E-09   -4.036E-09   -4.023E-09   -4.009E-09   -3.995E-09   -3.979E-09   -3.963E-09   -3.946E-09   -3.929E-09
    -3.911E-09   -3.893E-09   -3.875E-09   -3.857E-09   -3.839E-09   -3.820E-09   -3.802E-09   -3.784E-09   -3.766E-09   -3.748E-09
    -3.731E-09   -3.714E-09   -3.698E-09   -3.682E-09   -3.667E-09   -3.653E-09   -3.639E-09   -3.627E-09   -3.615E-09   -3.604E-09
    -3.595E-09   -3.587E-09   -3.579E-09   -3.573E-09   -3.569E-09   -3.566E-09   -3.564E-09   -3.564E-09   -3.565E-09   -3.568E-09
    -3.572E-09   -3.578E-09   -3.586E-09   -3.595E-09   -3.606E-09   -3.618E-09   -3.632E-09   -3.647E-09   -3.663E-09   -3.680E-09
    -3.699E-09   -3.718E-09   -3.739E-09   -3.761E-09   -3.783E-09   -3.806E-09   -3.830E-09   -3.855E-09   -3.881E-09   -3.907E-09
    -3.934E-09   -3.961E-09   -3.989E-09   -4.018E-09   -4.046E-09   -4.075E-09   -4.105E-09   -4.134E-09   -4.164E-09   -4.194E-09
    -4.224E-09   -4.254E-09   -4.284E-09   -4.313E-09   -4.343E-09   -4.373E-09   -4.402E-09   -4.432E-09   -4.461E-09   -4.489E-09
    -4.518E-09   -4.545E-09   -4.573E-09   -4.600E-09   -4.626E-09   -4.652E-09   -4.677E-09   -4.702E-09   -4.726E-09   -4.749E-09
    -4.771E-09   -4.793E-09   -4.814E-09   -4.834E-09   -4.853E-09   -4.871E-09   -4.888E-09   -4.905E-09   -4.920E-09   -4.934E-09
    -4.947E-09   -4.959E-09   -4.970E-09   -4.980E-09   -4.989E-09   -4.996E-09   -5.002E-09   -5.007E-09   -5.011E-09   -5.014E-09
    -5.015E-09   -5.015E-09   -5.013E-09
 Ala      Conc. = 1.39E-10
   5.26372E-09  5.30736E-09  5.35387E-09  5.39554E-09  5.43634E-09  5.48604E-09  5.51856E-09  5.52447E-09  5.58776E-09  5.64216E-09
   5.63671E-09  5.68262E-09  5.74128E-09  5.77153E-09  5.81241E-09  5.85778E-09  5.90347E-09  5.94866E-09  5.99313E-09  6.03686E-09
   6.07985E-09  6.12213E-09  6.16372E-09  6.20466E-09  6.24495E-09  6.28464E-09  6.32373E-09  6.36225E-09  6.40021E-09  6.43762E-09
   6.47451E-09  6.51087E-09  6.54673E-09  6.58210E-09  6.61697E-09  6.65141E-09  6.68535E-09  6.71885E-09  6.75194E-09  6.78457E-09
   6.81680E-09  6.84862E-09  6.88005E-09  6.91108E-09  6.94175E-09  6.97205E-09  7.00202E-09  7.03162E-09  7.06090E-09  7.08987E-09
   7.11852E-09  7.14689E-09  7.17495E-09  7.20275E-09  7.23031E-09  7.25759E-09  7.28464E-09  7.31150E-09  7.33809E-09  7.36451E-09
   7.39075E-09  7.41680E-09  7.44270E-09  7.46844E-09  7.49408E-09  7.51958E-09  7.54499E-09  7.57029E-09  7.59553E-09  7.62072E-09
   7.64585E-09  7.67095E-09  7.69608E-09  7.72119E-09  7.74632E-09  7.77142E-09  7.79647E-09  7.82147E-09  7.84636E-09  7.87115E-09
   7.89578E-09  7.92027E-09  7.94457E-09  7.96869E-09  7.99262E-09  8.01635E-09  8.03988E-09  8.06325E-09  8.08647E-09  8.10961E-09
   8.13272E-09  8.15599E-09  8.17955E-09  8.20378E-09  8.22913E-09  8.25641E-09  8.28717E-09  8.32443E-09  8.37550E-09  8.46201E-09
   8.54408E-09  8.52144E-09  8.56935E-09  8.65167E-09  8.67889E-09  8.68430E-09  8.67916E-09  8.69672E-09  8.71666E-09  8.68542E-09
   8.54317E-09  8.36876E-09  8.42863E-09  8.34142E-09  8.12641E-09  8.07848E-09  8.05786E-09  8.04192E-09  8.02566E-09  8.00766E-09
   7.98731E-09  7.96448E-09  7.93905E-09  7.91098E-09  7.88026E-09  7.84682E-09  7.81065E-09  7.77176E-09  7.73007E-09  7.68557E-09
   7.63822E-09  7.58796E-09  7.53479E-09  7.47865E-09  7.41948E-09  7.35722E-09  7.29191E-09  7.22341E-09  7.15173E-09  7.07677E-09
   6.99853E-09  6.91695E-09  6.83198E-09  6.74355E-09  6.65165E-09  6.55622E-09  6.45724E-09  6.35480E-09  6.24899E-09  6.13993E-09
   6.02769E-09  5.91240E-09  5.79413E-09  5.67302E-09  5.54916E-09  5.42267E-09  5.29367E-09  5.16228E-09  5.02866E-09  4.89296E-09
   4.75535E-09  4.61612E-09  4.47561E-09  4.33448E-09  4.19414E-09  4.05877E-09  3.94807E-09  3.88254E-09  3.73495E-09  3.57739E-09
   3.41112E-09  3.27065E-09  3.13540E-09  3.00032E-09  2.86313E-09  2.73848E-09  2.60305E-09  2.39989E-09  2.04961E-09  1.84890E-09
   1.67762E-09  1.51343E-09  1.35186E-09  1.19170E-09  1.03253E-09  8.74211E-10  7.16765E-10  5.60273E-10  4.04737E-10  2.50293E-10
   9.70655E-11 -5.48973E-11 -2.05452E-10 -3.54506E-10 -5.01910E-10 -6.47594E-10 -7.91461E-10 -9.33337E-10 -1.07314E-09 -1.21079E-09
  -1.34616E-09 -1.47912E-09 -1.60958E-09 -1.73742E-09 -1.86256E-09 -1.98484E-09 -2.10420E-09 -2.22053E-09 -2.33373E-09 -2.44363E-09
  -2.55023E-09 -2.65335E-09 -2.75292E-09 -2.84883E-09 -2.94101E-09 -3.02931E-09 -3.11366E-09 -3.19399E-09 -3.27017E-09 -3.34227E-09
  -3.41035E-09 -3.47454E-09 -3.53489E-09 -3.59152E-09 -3.64448E-09 -3.69391E-09 -3.73987E-09 -3.78245E-09 -3.82175E-09 -3.85785E-09
  -3.89086E-09 -3.92086E-09 -3.94795E-09 -3.97221E-09 -3.99374E-09 -4.01263E-09 -4.02898E-09 -4.04286E-09 -4.05438E-09 -4.06363E-09
  -4.07070E-09 -4.07569E-09 -4.07868E-09 -4.07977E-09 -4.07903E-09 -4.07658E-09 -4.07249E-09 -4.06687E-09 -4.05980E-09 -4.05135E-09
  -4.04165E-09 -4.03074E-09 -4.01878E-09 -4.00577E-09 -3.99184E-09 -3.97710E-09 -3.96161E-09 -3.94545E-09 -3.92871E-09 -3.91148E-09
  -3.89384E-09 -3.87589E-09 -3.85769E-09 -3.83934E-09 -3.82089E-09 -3.80244E-09 -3.78409E-09 -3.76587E-09 -3.74790E-09 -3.73024E-09
  -3.71296E-09 -3.69613E-09 -3.67986E-09 -3.66416E-09 -3.64917E-09 -3.63490E-09 -3.62146E-09 -3.60890E-09 -3.59728E-09 -3.58668E-09
  -3.57717E-09 -3.56880E-09 -3.56164E-09 -3.55572E-09 -3.55114E-09 -3.54795E-09 -3.54620E-09 -3.54591E-09 -3.54719E-09 -3.55007E-09
  -3.55458E-09 -3.56076E-09 -3.56853E-09 -3.57784E-09 -3.58863E-09 -3.60086E-09 -3.61444E-09 -3.62934E-09 -3.64549E-09 -3.66284E-09
  -3.68133E-09 -3.70090E-09 -3.72150E-09 -3.74308E-09 -3.76556E-09 -3.78892E-09 -3.81308E-09 -3.83801E-09 -3.86362E-09 -3.88989E-09
  -3.91675E-09 -3.94415E-09 -3.97205E-09 -4.00037E-09 -4.02909E-09 -4.05814E-09 -4.08748E-09 -4.11704E-09 -4.14680E-09 -4.17669E-09
  -4.20668E-09 -4.23669E-09 -4.26671E-09 -4.29668E-09 -4.32654E-09 -4.35624E-09 -4.38578E-09 -4.41507E-09 -4.44408E-09 -4.47277E-09
  -4.50110E-09 -4.52903E-09 -4.55650E-09 -4.58348E-09 -4.60994E-09 -4.63583E-09 -4.66112E-09 -4.68576E-09 -4.70973E-09 -4.73297E-09
  -4.75547E-09 -4.77718E-09 -4.79807E-09 -4.81811E-09 -4.83725E-09 -4.85549E-09 -4.87276E-09 -4.88908E-09 -4.90437E-09 -4.91863E-09
  -4.93183E-09 -4.94394E-09 -4.95493E-09 -4.96478E-09 -4.97347E-09 -4.98096E-09 -4.98726E-09 -4.99231E-09 -4.99611E-09 -4.99865E-09
  -4.99989E-09 -4.99982E-09 -4.99844E-09
 Asp      Conc. = 2.56E-09
   6.80789E-09  6.22665E-09  5.81519E-09  5.58362E-09  5.54570E-09  5.14831E-09  5.13491E-09  4.73161E-09  4.87723E-09  5.06705E-09
   5.24158E-09  5.39788E-09  5.54041E-09  5.67579E-09  5.80131E-09  5.91350E-09  6.01925E-09  6.12029E-09  6.21767E-09  6.31223E-09
   6.40467E-09  6.49562E-09  6.58568E-09  6.67540E-09  6.76534E-09  6.85611E-09  6.94834E-09  7.04278E-09  7.14028E-09  7.24189E-09
   7.34897E-09  7.46332E-09  7.58743E-09  7.72505E-09  7.88213E-09  8.06897E-09  8.30005E-09  8.45226E-09  8.60573E-09  8.61692E-09
   8.70599E-09  8.90714E-09  9.28075E-09  9.84100E-09  1.00717E-08  1.05830E-08  1.00754E-08  9.64530E-09  9.61078E-09  9.80165E-09
   1.00173E-08  1.02735E-08  1.03036E-08  9.97763E-09  8.95694E-09  8.51664E-09  6.98721E-09  7.35435E-09  7.71143E-09  7.32486E-09
   6.82572E-09  6.92230E-09  6.88402E-09  6.78791E-09  7.08367E-09  7.34192E-09  7.02589E-09  6.91935E-09  6.92489E-09  6.96228E-09
   7.01054E-09  7.06256E-09  7.11547E-09  7.16794E-09  7.21942E-09  7.26963E-09  7.31843E-09  7.36580E-09  7.41174E-09  7.45628E-09
   7.49944E-09  7.54128E-09  7.58180E-09  7.62105E-09  7.65907E-09  7.69585E-09  7.73140E-09  7.76576E-09  7.79892E-09  7.83086E-09
   7.86160E-09  7.89114E-09  7.91942E-09  7.94649E-09  7.97229E-09  7.99679E-09  8.02001E-09  8.04190E-09  8.06242E-09  8.08157E-09
   8.09930E-09  8.11558E-09  8.13038E-09  8.14368E-09  8.15540E-09  8.16554E-09  8.17404E-09  8.18089E-09  8.18602E-09  8.18937E-09
   8.19097E-09  8.19070E-09  8.18854E-09  8.18446E-09  8.17839E-09  8.17031E-09  8.16017E-09  8.14792E-09  8.13348E-09  8.11688E-09
   8.09797E-09  8.07679E-09  8.05324E-09  8.02730E-09  7.99892E-09  7.96803E-09  7.93457E-09  7.89855E-09  7.85988E-09  7.81851E-09
   7.77441E-09  7.72751E-09  7.67780E-09  7.62521E-09  7.56970E-09  7.51119E-09  7.44972E-09  7.38516E-09  7.31753E-09  7.24673E-09
   7.17278E-09  7.09563E-09  7.01523E-09  6.93154E-09  6.84457E-09  6.75428E-09  6.66069E-09  6.56392E-09  6.46410E-09  6.36141E-09
   6.25598E-09  6.14802E-09  6.03771E-09  5.92531E-09  5.81106E-09  5.69531E-09  5.57845E-09  5.46099E-09  5.34363E-09  5.22730E-09
   5.11334E-09  5.00392E-09  4.90257E-09  4.81589E-09  4.75775E-09  4.76398E-09  4.96056E-09  5.99018E-09  6.73972E-09  6.61312E-09
   6.29974E-09  6.14271E-09  6.30784E-09  6.54304E-09  6.74856E-09  7.05633E-09  7.45149E-09  7.41582E-09  5.18976E-09  2.72425E-09
   2.08348E-09  1.76954E-09  1.54581E-09  1.35625E-09  1.18236E-09  1.01673E-09  8.56000E-10  6.98529E-10  5.43385E-10  3.90160E-10
   2.38655E-10  8.87167E-11 -5.96377E-11 -2.06401E-10 -3.51476E-10 -4.94829E-10 -6.36387E-10 -7.75995E-10 -9.13578E-10 -1.04906E-09
  -1.18231E-09 -1.31323E-09 -1.44169E-09 -1.56760E-09 -1.69087E-09 -1.81134E-09 -1.92894E-09 -2.04356E-09 -2.15510E-09 -2.26341E-09
  -2.36846E-09 -2.47008E-09 -2.56818E-09 -2.66268E-09 -2.75350E-09 -2.84047E-09 -2.92353E-09 -3.00262E-09 -3.07758E-09 -3.14851E-09
  -3.21545E-09 -3.27854E-09 -3.33782E-09 -3.39341E-09 -3.44537E-09 -3.49382E-09 -3.53883E-09 -3.58050E-09 -3.61891E-09 -3.65415E-09
