 LCModel (Version 6.3-1R) Copyright: S.W. Provencher.          Ref.: Magn. Reson. Med. 30:672-679 (1993).                
 onepulse 10x18_ftSpec_smooth_lcm
 26 lines in following concentration table = NCONC+1
    Conc.  %SD   /Cr    Metabolite                                         
 4.09E-11 502%   0.000 Ala                                                 
 1.77E-09  29%   0.000 Asp                                                 
    0.000 999%   0.000 Cr                                                  
 1.56E-09  24%   0.000 GABA                                                
 1.19E-09  57%   0.000 Glc                                                 
 5.68E-10  80%   0.000 Gln                                                 
    0.000 999%   0.000 Glu                                                 
    0.000 999%   0.000 Glyc                                                
 2.34E-11 550%   0.000 GPC                                                 
 8.76E-10  36%   0.000 GSH                                                 
 1.24E-09  28%   0.000 Ins                                                 
    0.000 999%   0.000 Lac                                                 
 2.68E-10  69%   0.000 NAAG                                                
 4.72E-10  48%   0.000 NAA                                                 
    0.000 999%   0.000 PCh                                                 
    0.000 999%   0.000 PCr                                                 
 2.02E-09  38%   0.000 PE                                                  
 1.20E-10 109%   0.000 Scyllo                                              
    0.000 999%   0.000 Ser                                                 
    0.000 999%   0.000 Tau                                                 
 2.34E-11 550%   0.000 GPC+PCh                                             
 7.40E-10  25%   0.000 NAA+NAAG                                            
 1.24E-09  28%   0.000 Ins+Glyc                                            
    0.000 999%   0.000 Cr+PCr                                              
 5.68E-10  80%   0.000 Glu+Gln                                             
   6 lines in following misc. output table
  FWHM = 0.123 ppm    S/N =   4                                            
  Data shift = 0.447 ppm                                                   
  Ph:  16 deg     -46.1 deg/ppm                                            
  alphaB,S = 2.8E-01,   1.4E+00                                            
   10 spline knots.   Ns = 5(1)                                            
  12 inflections.    11 extrema                                            
  363 points on ppm-axis = NY
      4.250000     4.238821     4.227641     4.216462     4.205282     4.194103     4.182923     4.171744     4.160564     4.149385
      4.138206     4.127026     4.115847     4.104667     4.093488     4.082308     4.071129     4.059949     4.048770     4.037591
      4.026411     4.015232     4.004052     3.992873     3.981693     3.970514     3.959334     3.948155     3.936975     3.925796
      3.914617     3.903437     3.892258     3.881078     3.869899     3.858719     3.847540     3.836360     3.825181     3.814002
      3.802822     3.791643     3.780463     3.769284     3.758104     3.746925     3.735745     3.724566     3.713387     3.702207
      3.691028     3.679848     3.668669     3.657489     3.646310     3.635130     3.623951     3.612772     3.601592     3.590413
      3.579233     3.568054     3.556874     3.545695     3.534515     3.523336     3.512156     3.500977     3.489798     3.478618
      3.467439     3.456259     3.445080     3.433900     3.422721     3.411541     3.400362     3.389183     3.378003     3.366824
      3.355644     3.344465     3.333285     3.322106     3.310926     3.299747     3.288568     3.277388     3.266209     3.255029
      3.243850     3.232670     3.221491     3.210311     3.199132     3.187953     3.176773     3.165594     3.154414     3.143235
      3.132055     3.120876     3.109696     3.098517     3.087337     3.076158     3.064979     3.053799     3.042620     3.031440
      3.020261     3.009081     2.997902     2.986722     2.975543     2.964364     2.953184     2.942005     2.930825     2.919646
      2.908466     2.897287     2.886107     2.874928     2.863749     2.852569     2.841390     2.830210     2.819031     2.807851
      2.796672     2.785492     2.774313     2.763134     2.751954     2.740775     2.729595     2.718416     2.707236     2.696057
      2.684877     2.673698     2.662519     2.651339     2.640160     2.628980     2.617801     2.606621     2.595442     2.584262
      2.573083     2.561903     2.550724     2.539545     2.528365     2.517186     2.506006     2.494827     2.483647     2.472468
      2.461288     2.450109     2.438930     2.427750     2.416571     2.405391     2.394212     2.383032     2.371853     2.360673
      2.349494     2.338315     2.327135     2.315956     2.304776     2.293597     2.282417     2.271238     2.260058     2.248879
      2.237700     2.226520     2.215341     2.204161     2.192982     2.181802     2.170623     2.159443     2.148264     2.137084
      2.125905     2.114726     2.103546     2.092367     2.081187     2.070008     2.058828     2.047649     2.036469     2.025290
      2.014111     2.002931     1.991752     1.980572     1.969393     1.958213     1.947034     1.935854     1.924675     1.913496
      1.902316     1.891137     1.879957     1.868778     1.857598     1.846419     1.835239     1.824060     1.812881     1.801701
      1.790522     1.779342     1.768163     1.756983     1.745804     1.734624     1.723445     1.712265     1.701086     1.689907
      1.678727     1.667548     1.656368     1.645189     1.634009     1.622830     1.611650     1.600471     1.589292     1.578112
      1.566933     1.555753     1.544574     1.533394     1.522215     1.511035     1.499856     1.488677     1.477497     1.466318
      1.455138     1.443959     1.432779     1.421600     1.410420     1.399241     1.388062     1.376882     1.365703     1.354523
      1.343344     1.332164     1.320985     1.309805     1.298626     1.287446     1.276267     1.265088     1.253908     1.242729
      1.231549     1.220370     1.209190     1.198011     1.186831     1.175652     1.164473     1.153293     1.142114     1.130934
      1.119755     1.108575     1.097396     1.086216     1.075037     1.063858     1.052678     1.041499     1.030319     1.019140
      1.007960     0.996781     0.985601     0.974422     0.963243     0.952063     0.940884     0.929704     0.918525     0.907345
      0.896166     0.884986     0.873807     0.862628     0.851448     0.840269     0.829089     0.817910     0.806730     0.795551
      0.784371     0.773192     0.762012     0.750833     0.739654     0.728474     0.717295     0.706115     0.694936     0.683756
      0.672577     0.661397     0.650218     0.639039     0.627859     0.616680     0.605500     0.594321     0.583141     0.571962
      0.560782     0.549603     0.538424     0.527244     0.516065     0.504885     0.493706     0.482526     0.471347     0.460167
      0.448988     0.437809     0.426629     0.415450     0.404270     0.393091     0.381911     0.370732     0.359552     0.348373
      0.337193     0.326014     0.314835     0.303655     0.292476     0.281296     0.270117     0.258937     0.247758     0.236578
      0.225399     0.214220     0.203040
 NY phased data points follow
   1.06123E-08  1.38412E-08  1.03636E-08  1.37619E-08  1.01090E-08  1.35135E-08  1.04462E-08  1.31875E-08  1.02617E-08  1.40538E-08
   1.07287E-08  1.34391E-08  1.04114E-08  1.33150E-08  9.85921E-09  1.29140E-08  9.62215E-09  1.26385E-08  1.01792E-08  1.27154E-08
   9.67395E-09  1.24671E-08  9.78692E-09  1.18556E-08  1.04637E-08  1.25346E-08  1.07143E-08  1.32116E-08  1.08919E-08  1.28328E-08
   1.01348E-08  1.26617E-08  1.00215E-08  1.21044E-08  9.85671E-09  1.18082E-08  9.46910E-09  1.15546E-08  9.45123E-09  1.10101E-08
   8.82575E-09  1.04366E-08  8.66134E-09  9.97962E-09  8.58125E-09  1.01766E-08  8.00724E-09  9.85999E-09  7.92494E-09  9.10931E-09
   7.89863E-09  9.17118E-09  7.35893E-09  9.03243E-09  7.58219E-09  1.00198E-08  8.59798E-09  1.09757E-08  9.05367E-09  1.05728E-08
   9.33066E-09  1.07712E-08  8.77528E-09  1.03136E-08  8.17976E-09  9.33222E-09  7.98651E-09  8.86403E-09  7.16554E-09  8.58531E-09
   7.29879E-09  9.23947E-09  7.94759E-09  1.04040E-08  9.76166E-09  1.20303E-08  1.05797E-08  1.22635E-08  1.08116E-08  1.25559E-08
   1.10767E-08  1.21559E-08  1.09172E-08  1.24404E-08  1.10626E-08  1.18618E-08  1.06293E-08  1.15851E-08  1.04177E-08  1.06835E-08
   9.93074E-09  1.09144E-08  8.97124E-09  1.01311E-08  9.31980E-09  9.63551E-09  9.42328E-09  9.61531E-09  8.82853E-09  9.45471E-09
   8.29618E-09  8.79355E-09  7.94065E-09  8.30518E-09  7.44851E-09  7.84704E-09  6.92583E-09  7.72680E-09  7.08907E-09  7.79868E-09
   6.73262E-09  7.46887E-09  7.20916E-09  7.25333E-09  6.42895E-09  7.17184E-09  6.33658E-09  6.52105E-09  5.64711E-09  6.57507E-09
   5.70587E-09  5.94610E-09  6.17371E-09  6.51374E-09  5.67726E-09  6.34520E-09  6.24122E-09  6.56651E-09  6.32288E-09  6.82264E-09
   6.50212E-09  6.77953E-09  6.93515E-09  7.26816E-09  7.67064E-09  8.14823E-09  7.73206E-09  8.20674E-09  8.31451E-09  8.98929E-09
   8.70287E-09  9.24444E-09  9.96878E-09  1.01321E-08  9.90137E-09  1.01497E-08  9.96680E-09  1.05492E-08  1.02186E-08  1.04308E-08
   1.04274E-08  1.09765E-08  1.06846E-08  1.12451E-08  1.09262E-08  1.12776E-08  1.14006E-08  1.14141E-08  1.14262E-08  1.17342E-08
   1.21826E-08  1.21902E-08  1.31981E-08  1.35765E-08  1.51633E-08  1.64728E-08  1.78849E-08  1.85823E-08  1.99155E-08  2.00734E-08
   2.10000E-08  2.01215E-08  2.11435E-08  2.06066E-08  2.10755E-08  1.97507E-08  1.96915E-08  1.87388E-08  1.75560E-08  1.58995E-08
   1.54952E-08  1.31612E-08  1.27571E-08  9.62813E-09  9.31118E-09  6.67232E-09  6.52857E-09  3.93276E-09  4.11973E-09  2.01469E-09
   1.83364E-09 -1.33700E-10  3.40261E-10 -1.07517E-09 -8.65011E-11 -1.63672E-09 -7.31694E-10 -2.20828E-09 -7.05964E-10 -2.41920E-09
  -1.30193E-09 -2.78842E-09 -1.21089E-09 -3.02817E-09 -1.17847E-09 -2.02355E-09 -5.94515E-10 -1.99905E-09 -2.85828E-10 -1.43121E-09
   6.98230E-10 -5.74040E-10  1.12269E-10 -7.68751E-10  7.54483E-10 -2.60286E-10  1.35771E-09 -3.36895E-10  1.50219E-09  3.23865E-10
   1.67639E-09  9.57061E-11  1.65466E-09  4.40854E-10  1.55687E-09  3.46876E-10  1.36091E-09  3.95843E-10  1.97633E-09  7.96852E-10
   1.73089E-09  6.77848E-10  1.88939E-09  3.18417E-10  1.75904E-09  5.40081E-10  1.66167E-09  5.32284E-10  1.52725E-09  1.73576E-10
   1.26040E-09  4.35666E-10  1.39377E-09  1.72258E-10  1.54294E-09  3.37583E-11  1.33956E-09  7.20567E-10  1.42540E-09  4.73614E-10
   1.97593E-09  8.34463E-10  1.28835E-09  7.78066E-10  1.57816E-09  1.07538E-10  1.27200E-09  2.23454E-10  1.27890E-09 -1.15246E-11
   1.13029E-09 -2.67832E-10  9.49268E-10 -3.94846E-11  1.09301E-09 -2.93969E-10  7.80098E-10 -1.58530E-10  8.56663E-10  2.35150E-10
   1.62918E-09  1.84642E-10  9.17766E-10  6.94971E-10  1.72097E-09  4.55451E-10  2.07586E-09  9.75866E-10  1.58267E-09  1.50716E-09
   1.53166E-09  8.89595E-10  1.69526E-09  7.06024E-10  1.63143E-09  1.27677E-09  1.74640E-09  1.47278E-09  1.42893E-09  1.63193E-09
   1.71487E-09  1.08845E-09  1.58936E-09  2.08932E-09  1.32073E-09  1.28304E-09  1.79455E-09  1.29737E-09  1.60042E-09  1.21069E-09
   1.66111E-09  1.14196E-09  1.33004E-09  1.52399E-09  1.61294E-09  1.12050E-09  1.83317E-09  1.21754E-09  1.37300E-09  1.76555E-09
   1.61452E-09  1.63956E-09  1.63343E-09  1.41685E-09  1.48087E-09  1.34018E-09  1.57907E-09  1.51503E-09  4.93109E-10  1.65792E-09
   1.32766E-09  1.00096E-09  1.34650E-09  1.39687E-09  9.57337E-10  1.33011E-09  1.36959E-09  1.23852E-09  1.06416E-09  1.25256E-09
   1.39587E-09  1.13419E-09  7.20249E-10  1.24574E-09  1.46283E-09  1.13716E-09  8.69801E-10  1.20448E-09  1.12010E-09  1.16057E-09
   6.70445E-10  8.78411E-10  7.75735E-10  6.18841E-10  1.50188E-09  9.58202E-10  1.08392E-09  1.03651E-09  1.14820E-09  1.32296E-09
   1.04530E-09  8.37303E-10  9.12360E-10  2.90032E-10  1.02267E-09  5.12588E-10  1.43988E-09  8.79197E-10  1.22745E-09  8.17294E-10
   1.04309E-09  6.18438E-10  1.39036E-09
 NY points of the fit to the data follow
   1.10031E-08  1.35178E-08  1.03189E-08  1.25812E-08  1.04802E-08  1.33328E-08  9.66605E-09  1.38015E-08  1.06817E-08  1.48309E-08
   1.14376E-08  1.08401E-08  1.07592E-08  1.12483E-08  1.09138E-08  1.20416E-08  1.10549E-08  1.10396E-08  1.16502E-08  1.20736E-08
   1.07784E-08  1.13457E-08  1.07750E-08  1.28549E-08  1.09420E-08  1.29853E-08  1.01282E-08  1.27557E-08  1.06656E-08  1.22624E-08
   1.09129E-08  1.16575E-08  1.09428E-08  1.25298E-08  9.72541E-09  1.10163E-08  1.05352E-08  1.05296E-08  9.84238E-09  1.02905E-08
   1.01715E-08  9.88982E-09  8.81796E-09  1.11675E-08  9.45309E-09  1.02442E-08  8.63363E-09  9.67350E-09  7.98823E-09  8.96780E-09
   7.67261E-09  9.03160E-09  8.19295E-09  9.34037E-09  9.16164E-09  9.38266E-09  9.47821E-09  9.00565E-09  8.82736E-09  9.35795E-09
   9.41401E-09  8.92480E-09  9.99511E-09  8.46341E-09  9.25214E-09  1.02684E-08  8.75874E-09  9.49468E-09  9.46867E-09  8.93639E-09
   9.58845E-09  9.34272E-09  9.62655E-09  1.02589E-08  8.88186E-09  1.07735E-08  1.15833E-08  1.18533E-08  1.07593E-08  1.21833E-08
   1.13138E-08  1.24099E-08  1.02606E-08  1.25842E-08  1.10949E-08  1.13454E-08  1.09549E-08  1.19817E-08  9.55962E-09  8.74778E-09
   8.61845E-09  8.64327E-09  7.98802E-09  8.21522E-09  8.71357E-09  7.65346E-09  7.68214E-09  8.11658E-09  7.47172E-09  7.38238E-09
   7.43848E-09  7.21861E-09  7.25585E-09  7.22361E-09  7.21583E-09  7.23957E-09  7.27517E-09  7.31440E-09  7.36662E-09  7.40782E-09
   7.51312E-09  7.51186E-09  7.51829E-09  7.68124E-09  7.68234E-09  7.73493E-09  7.80426E-09  7.87955E-09  7.95782E-09  8.03759E-09
   8.11828E-09  8.19908E-09  8.27978E-09  8.36000E-09  8.43940E-09  8.51767E-09  8.59456E-09  8.66987E-09  8.74320E-09  8.81446E-09
   8.88334E-09  8.94964E-09  9.01313E-09  9.07363E-09  9.13088E-09  9.18473E-09  9.23491E-09  9.28128E-09  9.32362E-09  9.36176E-09
   9.39550E-09  9.42467E-09  9.44911E-09  9.46867E-09  9.48319E-09  9.49251E-09  9.49655E-09  9.49516E-09  9.48831E-09  9.47595E-09
   9.45806E-09  9.43470E-09  9.40602E-09  9.37223E-09  9.33374E-09  9.29115E-09  9.24549E-09  9.19854E-09  9.15312E-09  9.11345E-09
   9.08642E-09  9.08418E-09  9.13053E-09  9.27940E-09  9.68208E-09  1.09370E-08  1.64237E-08  2.06321E-08  2.04377E-08  2.02667E-08
   2.13809E-08  2.09854E-08  2.15851E-08  2.10990E-08  2.14234E-08  1.98334E-08  2.01854E-08  2.09392E-08  1.64187E-08  8.94877E-09
   7.08575E-09  6.30103E-09  5.82782E-09  5.47929E-09  5.19148E-09  4.93742E-09  4.70401E-09  4.48427E-09  4.27428E-09  4.07167E-09
   3.87501E-09  3.68344E-09  3.49642E-09  3.31369E-09  3.13507E-09  2.96055E-09  2.79015E-09  2.62400E-09  2.46220E-09  2.30494E-09
   2.15241E-09  2.00480E-09  1.86234E-09  1.72526E-09  1.59379E-09  1.46817E-09  1.34869E-09  1.23555E-09  1.12895E-09  1.02874E-09
   9.34778E-10  8.46897E-10  7.64950E-10  6.88770E-10  6.18219E-10  5.53124E-10  4.93351E-10  4.38754E-10  3.89158E-10  3.44423E-10
   3.04425E-10  2.68986E-10  2.37964E-10  2.11221E-10  1.88594E-10  1.69949E-10  1.55161E-10  1.44027E-10  1.36414E-10  1.32225E-10
   1.31282E-10  1.33429E-10  1.38540E-10  1.46448E-10  1.57026E-10  1.70104E-10  1.85548E-10  2.03235E-10  2.22996E-10  2.44693E-10
   2.68180E-10  2.93319E-10  3.19955E-10  3.47937E-10  3.77144E-10  4.07413E-10  4.38591E-10  4.70522E-10  5.03129E-10  5.36230E-10
   5.69659E-10  6.03270E-10  6.36951E-10  6.70566E-10  7.03899E-10  7.36893E-10  7.69353E-10  8.01160E-10  8.32146E-10  8.62166E-10
   8.91184E-10  9.19187E-10  9.46190E-10  9.72208E-10  9.97257E-10  1.02135E-09  1.04450E-09  1.06672E-09  1.08802E-09  1.10843E-09
   1.12795E-09  1.14660E-09  1.16439E-09  1.18134E-09  1.19746E-09  1.21277E-09  1.22727E-09  1.24099E-09  1.25394E-09  1.26613E-09
   1.27758E-09  1.28830E-09  1.29831E-09  1.30762E-09  1.31624E-09  1.32419E-09  1.33148E-09  1.33813E-09  1.34415E-09  1.34956E-09
   1.35436E-09  1.35858E-09  1.36223E-09  1.36532E-09  1.36787E-09  1.36988E-09  1.37139E-09  1.37239E-09  1.37291E-09  1.37296E-09
   1.37254E-09  1.37169E-09  1.37040E-09  1.36871E-09  1.36661E-09  1.36412E-09  1.36126E-09  1.35805E-09  1.35448E-09  1.35060E-09
   1.34639E-09  1.34188E-09  1.33708E-09  1.33200E-09  1.32664E-09  1.32101E-09  1.31513E-09  1.30899E-09  1.30260E-09  1.29599E-09
   1.28914E-09  1.28207E-09  1.27479E-09  1.26730E-09  1.25962E-09  1.25174E-09  1.24369E-09  1.23546E-09  1.22707E-09  1.21851E-09
   1.20981E-09  1.20096E-09  1.19198E-09  1.18288E-09  1.17365E-09  1.16431E-09  1.15487E-09  1.14533E-09  1.13571E-09  1.12600E-09
   1.11622E-09  1.10638E-09  1.09648E-09  1.08653E-09  1.07654E-09  1.06651E-09  1.05646E-09  1.04639E-09  1.03631E-09  1.02623E-09
   1.01615E-09  1.00609E-09  9.96042E-10  9.86025E-10  9.76042E-10  9.66105E-10  9.56218E-10  9.46389E-10  9.36627E-10  9.26939E-10
   9.17332E-10  9.07814E-10  8.98394E-10
 NY background values follow
     1.796E-10    2.155E-10    2.520E-10    2.893E-10    3.272E-10    3.657E-10    4.049E-10    4.446E-10    4.849E-10    5.258E-10
     5.671E-10    6.090E-10    6.514E-10    6.942E-10    7.375E-10    7.812E-10    8.253E-10    8.698E-10    9.146E-10    9.598E-10
     1.005E-09    1.051E-09    1.097E-09    1.143E-09    1.190E-09    1.237E-09    1.283E-09    1.330E-09    1.378E-09    1.425E-09
     1.472E-09    1.520E-09    1.567E-09    1.615E-09    1.662E-09    1.710E-09    1.758E-09    1.805E-09    1.852E-09    1.900E-09
     1.947E-09    1.994E-09    2.041E-09    2.087E-09    2.134E-09    2.180E-09    2.226E-09    2.272E-09    2.317E-09    2.362E-09
     2.407E-09    2.451E-09    2.495E-09    2.539E-09    2.582E-09    2.625E-09    2.668E-09    2.710E-09    2.753E-09    2.795E-09
     2.837E-09    2.879E-09    2.922E-09    2.964E-09    3.007E-09    3.049E-09    3.092E-09    3.136E-09    3.179E-09    3.223E-09
     3.268E-09    3.313E-09    3.358E-09    3.404E-09    3.451E-09    3.498E-09    3.546E-09    3.595E-09    3.645E-09    3.696E-09
     3.747E-09    3.800E-09    3.854E-09    3.908E-09    3.964E-09    4.021E-09    4.079E-09    4.139E-09    4.199E-09    4.262E-09
     4.325E-09    4.390E-09    4.457E-09    4.525E-09    4.595E-09    4.666E-09    4.740E-09    4.815E-09    4.891E-09    4.970E-09
     5.050E-09    5.133E-09    5.218E-09    5.304E-09    5.393E-09    5.484E-09    5.576E-09    5.670E-09    5.766E-09    5.863E-09
     5.961E-09    6.059E-09    6.159E-09    6.258E-09    6.358E-09    6.459E-09    6.558E-09    6.658E-09    6.757E-09    6.855E-09
     6.953E-09    7.049E-09    7.144E-09    7.237E-09    7.329E-09    7.419E-09    7.506E-09    7.592E-09    7.674E-09    7.754E-09
     7.832E-09    7.906E-09    7.976E-09    8.043E-09    8.107E-09    8.167E-09    8.222E-09    8.273E-09    8.320E-09    8.362E-09
     8.399E-09    8.431E-09    8.458E-09    8.479E-09    8.495E-09    8.504E-09    8.508E-09    8.505E-09    8.496E-09    8.480E-09
     8.458E-09    8.428E-09    8.391E-09    8.347E-09    8.295E-09    8.235E-09    8.167E-09    8.091E-09    8.007E-09    7.917E-09
     7.819E-09    7.715E-09    7.604E-09    7.487E-09    7.364E-09    7.236E-09    7.102E-09    6.963E-09    6.820E-09    6.672E-09
     6.520E-09    6.364E-09    6.204E-09    6.041E-09    5.875E-09    5.706E-09    5.534E-09    5.360E-09    5.185E-09    5.008E-09
     4.829E-09    4.649E-09    4.469E-09    4.287E-09    4.106E-09    3.925E-09    3.744E-09    3.563E-09    3.383E-09    3.205E-09
     3.028E-09    2.852E-09    2.679E-09    2.508E-09    2.339E-09    2.174E-09    2.011E-09    1.852E-09    1.696E-09    1.544E-09
     1.397E-09    1.254E-09    1.116E-09    9.826E-10    8.548E-10    7.327E-10    6.165E-10    5.064E-10    4.027E-10    3.052E-10
     2.139E-10    1.285E-10    4.898E-11   -2.490E-11   -9.324E-11   -1.562E-10   -2.139E-10   -2.665E-10   -3.142E-10   -3.571E-10
    -3.953E-10   -4.289E-10   -4.583E-10   -4.833E-10   -5.043E-10   -5.214E-10   -5.346E-10   -5.443E-10   -5.504E-10   -5.531E-10
    -5.527E-10   -5.491E-10   -5.426E-10   -5.334E-10   -5.215E-10   -5.071E-10   -4.904E-10   -4.715E-10   -4.505E-10   -4.276E-10
    -4.029E-10   -3.766E-10   -3.488E-10   -3.197E-10   -2.894E-10   -2.580E-10   -2.258E-10   -1.928E-10   -1.591E-10   -1.249E-10
    -9.049E-11   -5.586E-11   -2.117E-11    1.343E-11    4.774E-11    8.170E-11    1.151E-10    1.479E-10    1.798E-10    2.107E-10
     2.407E-10    2.696E-10    2.975E-10    3.244E-10    3.503E-10    3.752E-10    3.992E-10    4.223E-10    4.444E-10    4.657E-10
     4.860E-10    5.055E-10    5.241E-10    5.418E-10    5.587E-10    5.748E-10    5.901E-10    6.046E-10    6.183E-10    6.312E-10
     6.434E-10    6.549E-10    6.656E-10    6.756E-10    6.850E-10    6.936E-10    7.016E-10    7.090E-10    7.157E-10    7.218E-10
     7.273E-10    7.322E-10    7.365E-10    7.402E-10    7.435E-10    7.461E-10    7.483E-10    7.499E-10    7.511E-10    7.518E-10
     7.520E-10    7.517E-10    7.511E-10    7.500E-10    7.485E-10    7.466E-10    7.444E-10    7.418E-10    7.388E-10    7.355E-10
     7.319E-10    7.279E-10    7.237E-10    7.192E-10    7.144E-10    7.094E-10    7.040E-10    6.985E-10    6.926E-10    6.866E-10
     6.803E-10    6.737E-10    6.670E-10    6.601E-10    6.529E-10    6.456E-10    6.380E-10    6.303E-10    6.225E-10    6.144E-10
     6.063E-10    5.979E-10    5.895E-10    5.809E-10    5.721E-10    5.633E-10    5.544E-10    5.453E-10    5.362E-10    5.270E-10
     5.177E-10    5.084E-10    4.990E-10    4.895E-10    4.800E-10    4.704E-10    4.609E-10    4.513E-10    4.417E-10    4.321E-10
     4.225E-10    4.129E-10    4.033E-10    3.938E-10    3.842E-10    3.748E-10    3.653E-10    3.560E-10    3.467E-10    3.374E-10
     3.283E-10    3.192E-10    3.103E-10
 Ala      Conc. = 4.09E-11
   2.05873E-10  2.38657E-10  2.81731E-10  3.19711E-10  3.60222E-10  3.92763E-10  4.33144E-10  4.83024E-10  5.05450E-10  5.44435E-10
   5.99304E-10  6.25437E-10  6.64827E-10  7.10000E-10  7.49339E-10  7.90705E-10  8.33303E-10  8.76727E-10  9.20774E-10  9.65331E-10
   1.01032E-09  1.05569E-09  1.10139E-09  1.14739E-09  1.19366E-09  1.24016E-09  1.28686E-09  1.33375E-09  1.38080E-09  1.42797E-09
   1.47526E-09  1.52263E-09  1.57006E-09  1.61753E-09  1.66501E-09  1.71249E-09  1.75993E-09  1.80733E-09  1.85464E-09  1.90186E-09
   1.94897E-09  1.99593E-09  2.04273E-09  2.08934E-09  2.13574E-09  2.18192E-09  2.22784E-09  2.27349E-09  2.31884E-09  2.36387E-09
   2.40857E-09  2.45290E-09  2.49685E-09  2.54041E-09  2.58364E-09  2.62658E-09  2.66928E-09  2.71179E-09  2.75415E-09  2.79642E-09
   2.83864E-09  2.88087E-09  2.92315E-09  2.96553E-09  3.00806E-09  3.05079E-09  3.09377E-09  3.13704E-09  3.18066E-09  3.22467E-09
   3.26913E-09  3.31408E-09  3.35957E-09  3.40566E-09  3.45238E-09  3.49979E-09  3.54795E-09  3.59689E-09  3.64668E-09  3.69735E-09
   3.74896E-09  3.80156E-09  3.85520E-09  3.90993E-09  3.96581E-09  4.02288E-09  4.08121E-09  4.14084E-09  4.20184E-09  4.26426E-09
   4.32818E-09  4.39367E-09  4.46082E-09  4.52976E-09  4.60064E-09  4.67375E-09  4.74959E-09  4.82934E-09  4.91652E-09  5.02651E-09
   5.16159E-09  5.15951E-09  5.34748E-09  5.43625E-09  5.52435E-09  5.62370E-09  5.72252E-09  5.81541E-09  5.91360E-09  5.99607E-09
   6.13723E-09  6.16816E-09  6.20329E-09  6.39292E-09  6.41773E-09  6.49295E-09  6.58254E-09  6.67659E-09  6.77221E-09  6.86819E-09
   6.96389E-09  7.05886E-09  7.15279E-09  7.24538E-09  7.33639E-09  7.42559E-09  7.51274E-09  7.59765E-09  7.68008E-09  7.75985E-09
   7.83673E-09  7.91053E-09  7.98106E-09  8.04808E-09  8.11143E-09  8.17089E-09  8.22626E-09  8.27734E-09  8.32395E-09  8.36587E-09
   8.40290E-09  8.43485E-09  8.46153E-09  8.48273E-09  8.49825E-09  8.50789E-09  8.51147E-09  8.50878E-09  8.49962E-09  8.48381E-09
   8.46112E-09  8.43138E-09  8.39440E-09  8.34995E-09  8.29787E-09  8.23794E-09  8.17004E-09  8.09432E-09  8.01107E-09  7.92060E-09
   7.82321E-09  7.71922E-09  7.60900E-09  7.49306E-09  7.37224E-09  7.24900E-09  7.13621E-09  7.04312E-09  6.84829E-09  6.75144E-09
   6.55835E-09  6.44360E-09  6.24686E-09  6.12108E-09  5.91967E-09  5.78266E-09  5.56862E-09  5.45443E-09  5.21212E-09  5.01963E-09
   4.83653E-09  4.65486E-09  4.47325E-09  4.29150E-09  4.10967E-09  3.92801E-09  3.74671E-09  3.56603E-09  3.38626E-09  3.20765E-09
   3.03047E-09  2.85503E-09  2.68156E-09  2.51038E-09  2.34173E-09  2.17592E-09  2.01321E-09  1.85391E-09  1.69825E-09  1.54654E-09
   1.39907E-09  1.25610E-09  1.11792E-09  9.84791E-10  8.57010E-10  7.34847E-10  6.18608E-10  5.08521E-10  4.04813E-10  3.07346E-10
   2.15997E-10  1.30609E-10  5.10502E-11 -2.28411E-11 -9.11924E-11 -1.54170E-10 -2.11896E-10 -2.64517E-10 -3.12200E-10 -3.55081E-10
  -3.93279E-10 -4.26969E-10 -4.56289E-10 -4.81376E-10 -5.02384E-10 -5.19453E-10 -5.32700E-10 -5.42328E-10 -5.48468E-10 -5.51214E-10
  -5.50744E-10 -5.47215E-10 -5.40743E-10 -5.31504E-10 -5.19616E-10 -5.05254E-10 -4.88546E-10 -4.69617E-10 -4.48636E-10 -4.25738E-10
  -4.01068E-10 -3.74764E-10 -3.46983E-10 -3.17870E-10 -2.87551E-10 -2.56184E-10 -2.23925E-10 -1.90924E-10 -1.57267E-10 -1.23126E-10
  -8.86738E-11 -5.40494E-11 -1.93698E-11  1.52318E-11  4.95395E-11  8.34977E-11  1.16908E-10  1.49656E-10  1.81570E-10  2.12509E-10
   2.42434E-10  2.71336E-10  2.99226E-10  3.26123E-10  3.52040E-10  3.76989E-10  4.00988E-10  4.24049E-10  4.46189E-10  4.67420E-10
   4.87755E-10  5.07213E-10  5.25802E-10  5.43544E-10  5.60451E-10  5.76532E-10  5.91808E-10  6.06291E-10  6.19997E-10  6.32935E-10
   6.45128E-10  6.56579E-10  6.67316E-10  6.77346E-10  6.86680E-10  6.95336E-10  7.03333E-10  7.10680E-10  7.17390E-10  7.23477E-10
   7.28961E-10  7.33856E-10  7.38175E-10  7.41924E-10  7.45131E-10  7.47799E-10  7.49951E-10  7.51597E-10  7.52754E-10  7.53430E-10
   7.53642E-10  7.53415E-10  7.52745E-10  7.51662E-10  7.50173E-10  7.48289E-10  7.46028E-10  7.43413E-10  7.40440E-10  7.37141E-10
   7.33517E-10  7.29582E-10  7.25360E-10  7.20850E-10  7.16061E-10  7.11000E-10  7.05675E-10  7.00094E-10  6.94266E-10  6.88197E-10
   6.81898E-10  6.75373E-10  6.68632E-10  6.61683E-10  6.54534E-10  6.47192E-10  6.39665E-10  6.31962E-10  6.24089E-10  6.16055E-10
   6.07869E-10  5.99538E-10  5.91067E-10  5.82469E-10  5.73748E-10  5.64913E-10  5.55973E-10  5.46935E-10  5.37805E-10  5.28593E-10
   5.19307E-10  5.09954E-10  5.00541E-10  4.91078E-10  4.81570E-10  4.72026E-10  4.62455E-10  4.52864E-10  4.43260E-10  4.33651E-10
   4.24046E-10  4.14451E-10  4.04876E-10  3.95326E-10  3.85810E-10  3.76336E-10  3.66913E-10  3.57545E-10  3.48244E-10  3.39014E-10
   3.29865E-10  3.20805E-10  3.11839E-10
 Asp      Conc. = 1.77E-09
   1.80294E-09  2.44654E-09  1.74876E-09  1.75426E-09  1.78880E-09  1.23745E-09  1.56120E-09  1.24092E-09  1.00103E-09  9.02688E-10
   8.70738E-10  8.57307E-10  8.69719E-10  8.77497E-10  9.05950E-10  9.36121E-10  9.68460E-10  1.00311E-09  1.03980E-09  1.07826E-09
   1.11826E-09  1.15966E-09  1.20233E-09  1.24623E-09  1.29132E-09  1.33762E-09  1.38522E-09  1.43426E-09  1.48496E-09  1.53770E-09
   1.59306E-09  1.65195E-09  1.71595E-09  1.78794E-09  1.87384E-09  1.98836E-09  2.17858E-09  2.44316E-09  2.35803E-09  2.73922E-09
   2.39404E-09  2.84221E-09  2.67870E-09  3.58866E-09  3.19208E-09  4.99649E-09  3.69005E-09  4.85684E-09  3.92513E-09  5.64287E-09
   3.99266E-09  5.52762E-09  4.57346E-09  5.75763E-09  4.48702E-09  5.73979E-09  4.84190E-09  4.35882E-09  3.80270E-09  4.71235E-09
   4.18913E-09  3.75485E-09  4.04175E-09  3.80402E-09  3.57242E-09  3.74804E-09  3.86989E-09  3.73622E-09  3.67904E-09  3.65770E-09
   3.65527E-09  3.66440E-09  3.68139E-09  3.70411E-09  3.73129E-09  3.76205E-09  3.79583E-09  3.83223E-09  3.87095E-09  3.91180E-09
   3.95461E-09  3.99929E-09  4.04575E-09  4.09393E-09  4.14381E-09  4.19537E-09  4.24858E-09  4.30345E-09  4.35999E-09  4.41822E-09
   4.47814E-09  4.53978E-09  4.60316E-09  4.66833E-09  4.73529E-09  4.80410E-09  4.87477E-09  4.94737E-09  5.02190E-09  5.09842E-09
   5.17697E-09  5.25759E-09  5.34031E-09  5.42519E-09  5.51226E-09  5.60143E-09  5.69249E-09  5.78525E-09  5.87950E-09  5.97505E-09
   6.07169E-09  6.16923E-09  6.26746E-09  6.36618E-09  6.46520E-09  6.56431E-09  6.66332E-09  6.76203E-09  6.86023E-09  6.95773E-09
   7.05432E-09  7.14982E-09  7.24403E-09  7.33673E-09  7.42774E-09  7.51686E-09  7.60389E-09  7.68863E-09  7.77088E-09  7.85045E-09
   7.92714E-09  8.00075E-09  8.07109E-09  8.13795E-09  8.20114E-09  8.26047E-09  8.31574E-09  8.36675E-09  8.41331E-09  8.45523E-09
   8.49230E-09  8.52434E-09  8.55116E-09  8.57257E-09  8.58837E-09  8.59837E-09  8.60240E-09  8.60027E-09  8.59180E-09  8.57681E-09
   8.55514E-09  8.52662E-09  8.49112E-09  8.44848E-09  8.39860E-09  8.34137E-09  8.27685E-09  8.20537E-09  8.12757E-09  8.04422E-09
   7.95641E-09  7.86580E-09  7.77522E-09  7.69014E-09  7.62318E-09  7.61078E-09  7.80210E-09  9.14681E-09  9.33897E-09  8.61993E-09
   9.20394E-09  8.60401E-09  8.95976E-09  8.40467E-09  8.66550E-09  8.11045E-09  8.01003E-09  7.70065E-09  8.24263E-09  5.87630E-09
   5.24656E-09  4.91865E-09  4.67044E-09  4.45210E-09  4.24768E-09  4.05091E-09  3.85893E-09  3.67035E-09  3.48455E-09  3.30122E-09
   3.12025E-09  2.94171E-09  2.76566E-09  2.59232E-09  2.42183E-09  2.25442E-09  2.09033E-09  1.92981E-09  1.77308E-09  1.62041E-09
   1.47208E-09  1.32833E-09  1.18944E-09  1.05567E-09  9.27301E-10  8.04595E-10  6.87853E-10  5.77298E-10  4.73155E-10  3.75282E-10
   2.83551E-10  1.97804E-10  1.17905E-10  4.36940E-11 -2.49618E-11 -8.82273E-11 -1.46229E-10 -1.99114E-10 -2.47048E-10 -2.90171E-10
  -3.28600E-10 -3.62513E-10 -3.92047E-10 -4.17340E-10 -4.38548E-10 -4.55810E-10 -4.69243E-10 -4.79053E-10 -4.85367E-10 -4.88285E-10
