 LCModel (Version 6.3-1R) Copyright: S.W. Provencher.          Ref.: Magn. Reson. Med. 30:672-679 (1993).                
 onepulse 10x16_ftSpec_smooth_lcm
 26 lines in following concentration table = NCONC+1
    Conc.  %SD /Cr+PCr  Metabolite                                         
 2.16E-10 124%   1.059 Ala                                                 
 3.62E-09  15%  17.757 Asp                                                 
    0.000 999%   0.000 Cr                                                  
 1.52E-09  33%   7.468 GABA                                                
 8.52E-10  79%   4.180 Glc                                                 
    0.000 999%   0.000 Gln                                                 
    0.000 999%   0.000 Glu                                                 
    0.000 999%   0.000 Glyc                                                
 1.27E-10  63%   0.624 GPC                                                 
 5.80E-11 533%   0.285 GSH                                                 
 9.80E-10  41%   4.808 Ins                                                 
    0.000 999%   0.000 Lac                                                 
    0.000 999%   0.000 NAAG                                                
    0.000 999%   0.000 NAA                                                 
    0.000 999%   0.000 PCh                                                 
 2.04E-10 128%   1.000 PCr                                                 
    0.000 999%   0.000 PE                                                  
 2.60E-10  69%   1.277 Scyllo                                              
    0.000 999%   0.000 Ser                                                 
    0.000 999%   0.000 Tau                                                 
 1.27E-10  63%   0.624 GPC+PCh                                             
    0.000 999%   0.000 NAA+NAAG                                            
 9.80E-10  41%   4.808 Ins+Glyc                                            
 2.04E-10 128%   1.000 Cr+PCr                                              
    0.000 999%   0.000 Glu+Gln                                             
   6 lines in following misc. output table
  FWHM = 0.101 ppm    S/N =   3                                            
  Data shift = 0.369 ppm                                                   
  Ph:-166 deg      35.5 deg/ppm                                            
  alphaB,S = 1.1E+00,   3.2E+01                                            
    9 spline knots.   Ns = 5(1)                                            
  ( 8) 5 infls.   ( 7) 5 extrs.                                            
  363 points on ppm-axis = NY
      4.250000     4.238821     4.227641     4.216462     4.205282     4.194103     4.182923     4.171744     4.160564     4.149385
      4.138206     4.127026     4.115847     4.104667     4.093488     4.082308     4.071129     4.059949     4.048770     4.037591
      4.026411     4.015232     4.004052     3.992873     3.981693     3.970514     3.959334     3.948155     3.936975     3.925796
      3.914617     3.903437     3.892258     3.881078     3.869899     3.858719     3.847540     3.836360     3.825181     3.814002
      3.802822     3.791643     3.780463     3.769284     3.758104     3.746925     3.735745     3.724566     3.713387     3.702207
      3.691028     3.679848     3.668669     3.657489     3.646310     3.635130     3.623951     3.612772     3.601592     3.590413
      3.579233     3.568054     3.556874     3.545695     3.534515     3.523336     3.512156     3.500977     3.489798     3.478618
      3.467439     3.456259     3.445080     3.433900     3.422721     3.411541     3.400362     3.389183     3.378003     3.366824
      3.355644     3.344465     3.333285     3.322106     3.310926     3.299747     3.288568     3.277388     3.266209     3.255029
      3.243850     3.232670     3.221491     3.210311     3.199132     3.187953     3.176773     3.165594     3.154414     3.143235
      3.132055     3.120876     3.109696     3.098517     3.087337     3.076158     3.064979     3.053799     3.042620     3.031440
      3.020261     3.009081     2.997902     2.986722     2.975543     2.964364     2.953184     2.942005     2.930825     2.919646
      2.908466     2.897287     2.886107     2.874928     2.863749     2.852569     2.841390     2.830210     2.819031     2.807851
      2.796672     2.785492     2.774313     2.763134     2.751954     2.740775     2.729595     2.718416     2.707236     2.696057
      2.684877     2.673698     2.662519     2.651339     2.640160     2.628980     2.617801     2.606621     2.595442     2.584262
      2.573083     2.561903     2.550724     2.539545     2.528365     2.517186     2.506006     2.494827     2.483647     2.472468
      2.461288     2.450109     2.438930     2.427750     2.416571     2.405391     2.394212     2.383032     2.371853     2.360673
      2.349494     2.338315     2.327135     2.315956     2.304776     2.293597     2.282417     2.271238     2.260058     2.248879
      2.237700     2.226520     2.215341     2.204161     2.192982     2.181802     2.170623     2.159443     2.148264     2.137084
      2.125905     2.114726     2.103546     2.092367     2.081187     2.070008     2.058828     2.047649     2.036469     2.025290
      2.014111     2.002931     1.991752     1.980572     1.969393     1.958213     1.947034     1.935854     1.924675     1.913496
      1.902316     1.891137     1.879957     1.868778     1.857598     1.846419     1.835239     1.824060     1.812881     1.801701
      1.790522     1.779342     1.768163     1.756983     1.745804     1.734624     1.723445     1.712265     1.701086     1.689907
      1.678727     1.667548     1.656368     1.645189     1.634009     1.622830     1.611650     1.600471     1.589292     1.578112
      1.566933     1.555753     1.544574     1.533394     1.522215     1.511035     1.499856     1.488677     1.477497     1.466318
      1.455138     1.443959     1.432779     1.421600     1.410420     1.399241     1.388062     1.376882     1.365703     1.354523
      1.343344     1.332164     1.320985     1.309805     1.298626     1.287446     1.276267     1.265088     1.253908     1.242729
      1.231549     1.220370     1.209190     1.198011     1.186831     1.175652     1.164473     1.153293     1.142114     1.130934
      1.119755     1.108575     1.097396     1.086216     1.075037     1.063858     1.052678     1.041499     1.030319     1.019140
      1.007960     0.996781     0.985601     0.974422     0.963243     0.952063     0.940884     0.929704     0.918525     0.907345
      0.896166     0.884986     0.873807     0.862628     0.851448     0.840269     0.829089     0.817910     0.806730     0.795551
      0.784371     0.773192     0.762012     0.750833     0.739654     0.728474     0.717295     0.706115     0.694936     0.683756
      0.672577     0.661397     0.650218     0.639039     0.627859     0.616680     0.605500     0.594321     0.583141     0.571962
      0.560782     0.549603     0.538424     0.527244     0.516065     0.504885     0.493706     0.482526     0.471347     0.460167
      0.448988     0.437809     0.426629     0.415450     0.404270     0.393091     0.381911     0.370732     0.359552     0.348373
      0.337193     0.326014     0.314835     0.303655     0.292476     0.281296     0.270117     0.258937     0.247758     0.236578
      0.225399     0.214220     0.203040
 NY phased data points follow
   9.84049E-09  8.70149E-09  1.11609E-08  9.69709E-09  1.10835E-08  9.41607E-09  1.05371E-08  9.10661E-09  1.05232E-08  8.54656E-09
   9.76084E-09  8.65967E-09  9.70890E-09  8.72786E-09  9.50008E-09  8.62973E-09  1.02590E-08  9.32326E-09  9.89283E-09  8.79490E-09
   9.84871E-09  8.82207E-09  9.69383E-09  8.47329E-09  9.08752E-09  8.79640E-09  9.51730E-09  7.98266E-09  9.05582E-09  7.98249E-09
   8.65390E-09  8.01584E-09  9.46496E-09  8.67649E-09  1.02908E-08  9.48776E-09  1.05126E-08  9.17043E-09  1.01458E-08  9.24281E-09
   1.00158E-08  9.08121E-09  9.54845E-09  8.81199E-09  9.70326E-09  8.74806E-09  9.51629E-09  8.41807E-09  8.90931E-09  8.30706E-09
   8.39753E-09  7.73908E-09  8.90502E-09  7.57200E-09  8.03841E-09  7.21348E-09  7.55415E-09  6.70566E-09  7.42093E-09  5.78202E-09
   6.75566E-09  5.58407E-09  7.14304E-09  6.71520E-09  8.63487E-09  7.94528E-09  9.00842E-09  8.40924E-09  9.14208E-09  7.93754E-09
   8.95418E-09  7.51824E-09  8.02259E-09  7.21065E-09  7.46000E-09  5.69816E-09  6.15961E-09  4.96499E-09  6.42215E-09  5.58088E-09
   7.95299E-09  7.87393E-09  9.84542E-09  8.84303E-09  1.00707E-08  9.29727E-09  1.07328E-08  9.83614E-09  1.02561E-08  9.77890E-09
   1.06398E-08  9.83428E-09  1.07834E-08  9.97141E-09  1.04853E-08  9.59658E-09  1.00374E-08  9.25376E-09  1.00511E-08  8.43504E-09
   9.06296E-09  8.60849E-09  8.97993E-09  8.89728E-09  8.94643E-09  8.38118E-09  9.13665E-09  8.09910E-09  8.25145E-09  7.70828E-09
   7.95723E-09  6.96642E-09  7.83243E-09  6.75963E-09  7.48545E-09  6.71117E-09  7.48569E-09  6.64113E-09  7.42641E-09  6.68167E-09
   7.18450E-09  6.35036E-09  7.26548E-09  6.14893E-09  6.81934E-09  5.40482E-09  6.49713E-09  5.56115E-09  6.26954E-09  5.84341E-09
   6.09662E-09  5.56437E-09  6.47997E-09  6.12221E-09  6.54118E-09  6.02752E-09  6.79961E-09  6.29770E-09  6.90629E-09  6.67737E-09
   7.58502E-09  7.33197E-09  8.34191E-09  7.25599E-09  8.35064E-09  8.32448E-09  9.41018E-09  8.58787E-09  9.88288E-09  9.61267E-09
   9.98805E-09  9.59844E-09  1.00680E-08  9.90450E-09  1.09589E-08  9.81494E-09  1.06806E-08  1.00072E-08  1.12591E-08  1.04391E-08
   1.14343E-08  1.04342E-08  1.15343E-08  1.10949E-08  1.14857E-08  1.09470E-08  1.16270E-08  1.11645E-08  1.15457E-08  1.13666E-08
   1.29328E-08  1.42616E-08  1.62554E-08  1.60634E-08  1.71008E-08  1.69807E-08  1.69130E-08  1.62301E-08  1.60990E-08  1.51528E-08
   1.47347E-08  1.32311E-08  1.22450E-08  1.04246E-08  9.75639E-09  6.83617E-09  5.96034E-09  4.04998E-09  2.47523E-09  2.35270E-10
  -1.39572E-09 -2.81004E-09 -4.31179E-09 -5.31793E-09 -6.14589E-09 -6.72310E-09 -7.47494E-09 -7.76603E-09 -7.91610E-09 -7.76783E-09
  -7.02122E-09 -6.70104E-09 -6.25627E-09 -5.84409E-09 -5.35196E-09 -4.60014E-09 -4.38100E-09 -3.91124E-09 -4.01489E-09 -3.40635E-09
  -3.48303E-09 -2.89257E-09 -2.87122E-09 -2.72156E-09 -3.05073E-09 -2.48133E-09 -2.67124E-09 -1.87587E-09 -2.52368E-09 -2.19957E-09
  -2.01365E-09 -2.00710E-09 -1.86531E-09 -1.60944E-09 -1.73504E-09 -1.17752E-09 -1.72261E-09 -1.62041E-09 -1.90334E-09 -1.04810E-09
  -1.77553E-09 -1.47047E-09 -1.58728E-09 -1.27834E-09 -1.34360E-09 -1.27901E-09 -1.54138E-09 -1.71016E-09 -1.61068E-09 -1.71667E-09
  -2.04705E-09 -1.52706E-09 -1.92838E-09 -1.97495E-09 -1.78405E-09 -1.95282E-09 -2.46242E-09 -2.05724E-09 -2.26802E-09 -2.12585E-09
  -2.25925E-09 -1.86569E-09 -2.22707E-09 -1.62745E-09 -1.96758E-09 -2.27177E-09 -2.05392E-09 -1.85434E-09 -2.55907E-09 -2.48014E-09
  -2.42481E-09 -2.52139E-09 -2.75989E-09 -2.63859E-09 -2.84472E-09 -2.30131E-09 -2.84458E-09 -2.70762E-09 -2.84352E-09 -2.50477E-09
  -2.94334E-09 -2.56989E-09 -2.90820E-09 -2.15784E-09 -2.40876E-09 -1.78667E-09 -2.10848E-09 -1.87998E-09 -2.48699E-09 -1.90316E-09
  -2.23893E-09 -2.14368E-09 -2.21712E-09 -1.65902E-09 -2.81841E-09 -1.91946E-09 -2.75451E-09 -2.35318E-09 -2.52286E-09 -2.66091E-09
  -2.61515E-09 -2.42213E-09 -2.90970E-09 -2.78259E-09 -3.02262E-09 -2.48153E-09 -2.95190E-09 -3.38998E-09 -3.10505E-09 -2.77897E-09
  -3.43969E-09 -3.40182E-09 -3.16829E-09 -3.51582E-09 -3.57533E-09 -3.48084E-09 -3.64106E-09 -3.88362E-09 -3.68681E-09 -3.65349E-09
  -3.54989E-09 -4.18352E-09 -3.69974E-09 -3.85862E-09 -3.53380E-09 -3.63445E-09 -4.14866E-09 -4.03351E-09 -4.04899E-09 -4.54954E-09
  -4.36574E-09 -4.08631E-09 -4.15044E-09 -4.53316E-09 -4.55813E-09 -4.13069E-09 -3.86988E-09 -4.57623E-09 -4.11866E-09 -4.28558E-09
  -4.36824E-09 -4.74406E-09 -4.17260E-09 -4.83325E-09 -5.01705E-09 -5.11976E-09 -4.52023E-09 -5.06759E-09 -4.79202E-09 -4.59892E-09
  -4.42952E-09 -5.06684E-09 -4.85592E-09 -4.99750E-09 -4.62708E-09 -5.06337E-09 -4.83305E-09 -5.30501E-09 -4.51554E-09 -5.07293E-09
  -4.34313E-09 -5.29524E-09 -5.07447E-09 -5.21638E-09 -4.62458E-09 -5.42843E-09 -5.11988E-09 -5.57548E-09 -4.76508E-09 -5.56622E-09
  -4.44913E-09 -4.88465E-09 -4.50066E-09
 NY points of the fit to the data follow
   1.05559E-08  9.54309E-09  9.02858E-09  9.18966E-09  9.27600E-09  9.05886E-09  8.87815E-09  8.87899E-09  9.22644E-09  9.45108E-09
   9.61630E-09  9.87707E-09  1.02180E-08  1.02545E-08  9.92345E-09  9.65293E-09  9.72928E-09  9.56090E-09  8.84437E-09  8.60031E-09
   8.86291E-09  9.13985E-09  9.24526E-09  9.36960E-09  9.25275E-09  9.03154E-09  8.72264E-09  8.10551E-09  7.68342E-09  8.34007E-09
   8.91450E-09  9.20642E-09  9.25578E-09  8.86593E-09  8.45636E-09  8.98357E-09  9.54351E-09  9.83755E-09  9.83695E-09  9.54224E-09
   9.07799E-09  8.66515E-09  8.16406E-09  8.17172E-09  8.71716E-09  9.38991E-09  9.18370E-09  8.82839E-09  8.94904E-09  9.55292E-09
   1.00607E-08  1.03158E-08  1.01897E-08  9.44687E-09  8.26720E-09  7.37109E-09  6.76225E-09  7.33071E-09  7.69359E-09  7.46989E-09
   7.26415E-09  7.66146E-09  8.05083E-09  8.28112E-09  8.76718E-09  9.23572E-09  9.12150E-09  8.97703E-09  9.06155E-09  9.10776E-09
   8.96614E-09  8.62378E-09  8.20066E-09  7.90466E-09  7.78916E-09  7.26450E-09  6.87854E-09  7.22404E-09  7.35366E-09  7.34641E-09
   7.61118E-09  7.83471E-09  8.05404E-09  8.44493E-09  8.72212E-09  8.86422E-09  9.13744E-09  9.38769E-09  9.52248E-09  9.60271E-09
   9.57002E-09  9.54501E-09  9.58360E-09  9.32558E-09  8.95907E-09  8.97852E-09  8.85408E-09  8.51288E-09  8.47546E-09  8.54253E-09
   8.53684E-09  8.52348E-09  8.57833E-09  8.68667E-09  8.75232E-09  8.77941E-09  8.79185E-09  8.78333E-09  8.71690E-09  8.56685E-09
   8.37511E-09  8.26694E-09  8.21584E-09  8.02380E-09  7.86994E-09  7.85282E-09  7.85361E-09  7.85483E-09  7.85313E-09  7.84789E-09
   7.83886E-09  7.82637E-09  7.81054E-09  7.79155E-09  7.76955E-09  7.74472E-09  7.71718E-09  7.68706E-09  7.65451E-09  7.61961E-09
   7.58246E-09  7.54319E-09  7.50185E-09  7.45858E-09  7.41344E-09  7.36654E-09  7.31794E-09  7.26775E-09  7.21607E-09  7.16298E-09
   7.10861E-09  7.05306E-09  6.99644E-09  6.93892E-09  6.88054E-09  6.82151E-09  6.76201E-09  6.70225E-09  6.64241E-09  6.58279E-09
   6.52369E-09  6.46541E-09  6.40844E-09  6.35334E-09  6.30071E-09  6.25141E-09  6.20661E-09  6.16774E-09  6.13680E-09  6.11672E-09
   6.11164E-09  6.12822E-09  6.17732E-09  6.27890E-09  6.47438E-09  6.87075E-09  7.86155E-09  1.03403E-08  1.30582E-08  1.44815E-08
   1.51662E-08  1.58045E-08  1.65739E-08  1.74473E-08  1.83834E-08  1.89545E-08  1.79554E-08  1.40297E-08  7.96131E-09  4.12371E-09
   3.21373E-09  2.87281E-09  2.68575E-09  2.55445E-09  2.44669E-09  2.34966E-09  2.25764E-09  2.16785E-09  2.07891E-09  1.99010E-09
   1.90105E-09  1.81163E-09  1.72176E-09  1.63147E-09  1.54077E-09  1.44971E-09  1.35839E-09  1.26685E-09  1.17517E-09  1.08342E-09
   9.91659E-10  8.99943E-10  8.08347E-10  7.16936E-10  6.25749E-10  5.34848E-10  4.44277E-10  3.54122E-10  2.64383E-10  1.75119E-10
   8.63772E-11 -1.78407E-12 -8.93399E-11 -1.76238E-10 -2.62475E-10 -3.47984E-10 -4.32720E-10 -5.16668E-10 -5.99807E-10 -6.82072E-10
  -7.63436E-10 -8.43876E-10 -9.23366E-10 -1.00188E-09 -1.07940E-09 -1.15584E-09 -1.23124E-09 -1.30556E-09 -1.37873E-09 -1.45076E-09
  -1.52162E-09 -1.59129E-09 -1.65973E-09 -1.72695E-09 -1.79289E-09 -1.85754E-09 -1.92090E-09 -1.98293E-09 -2.04361E-09 -2.10291E-09
  -2.16084E-09 -2.21736E-09 -2.27246E-09 -2.32615E-09 -2.37846E-09 -2.42942E-09 -2.47905E-09 -2.52738E-09 -2.57445E-09 -2.62028E-09
  -2.66489E-09 -2.70833E-09 -2.75061E-09 -2.79177E-09 -2.83183E-09 -2.87082E-09 -2.90878E-09 -2.94573E-09 -2.98169E-09 -3.01671E-09
  -3.05079E-09 -3.08399E-09 -3.11631E-09 -3.14780E-09 -3.17847E-09 -3.20835E-09 -3.23748E-09 -3.26588E-09 -3.29357E-09 -3.32058E-09
  -3.34694E-09 -3.37268E-09 -3.39782E-09 -3.42238E-09 -3.44639E-09 -3.46987E-09 -3.49286E-09 -3.51537E-09 -3.53742E-09 -3.55904E-09
  -3.58025E-09 -3.60109E-09 -3.62155E-09 -3.64167E-09 -3.66147E-09 -3.68097E-09 -3.70018E-09 -3.71914E-09 -3.73785E-09 -3.75633E-09
  -3.77461E-09 -3.79269E-09 -3.81061E-09 -3.82836E-09 -3.84597E-09 -3.86346E-09 -3.88083E-09 -3.89810E-09 -3.91528E-09 -3.93239E-09
  -3.94944E-09 -3.96644E-09 -3.98339E-09 -4.00029E-09 -4.01712E-09 -4.03385E-09 -4.05044E-09 -4.06687E-09 -4.08311E-09 -4.09913E-09
  -4.11490E-09 -4.13039E-09 -4.14558E-09 -4.16045E-09 -4.17495E-09 -4.18907E-09 -4.20277E-09 -4.21604E-09 -4.22884E-09 -4.24115E-09
  -4.25295E-09 -4.26421E-09 -4.27490E-09 -4.28500E-09 -4.29449E-09 -4.30335E-09 -4.31154E-09 -4.31904E-09 -4.32585E-09 -4.33192E-09
  -4.33725E-09 -4.34181E-09 -4.34557E-09 -4.34853E-09 -4.35065E-09 -4.35192E-09 -4.35231E-09 -4.35182E-09 -4.35042E-09 -4.34809E-09
  -4.34482E-09 -4.34058E-09 -4.33538E-09 -4.32917E-09 -4.32196E-09 -4.31372E-09 -4.30445E-09 -4.29412E-09 -4.28272E-09 -4.27025E-09
  -4.25668E-09 -4.24200E-09 -4.22621E-09 -4.20930E-09 -4.19124E-09 -4.17204E-09 -4.15168E-09 -4.13015E-09 -4.10745E-09 -4.08356E-09
  -4.05849E-09 -4.03221E-09 -4.00473E-09
 NY background values follow
     4.205E-09    4.317E-09    4.428E-09    4.537E-09    4.645E-09    4.751E-09    4.856E-09    4.960E-09    5.062E-09    5.164E-09
     5.263E-09    5.362E-09    5.459E-09    5.554E-09    5.648E-09    5.741E-09    5.833E-09    5.923E-09    6.012E-09    6.099E-09
     6.185E-09    6.270E-09    6.353E-09    6.435E-09    6.516E-09    6.595E-09    6.673E-09    6.749E-09    6.824E-09    6.898E-09
     6.970E-09    7.041E-09    7.111E-09    7.179E-09    7.246E-09    7.312E-09    7.376E-09    7.439E-09    7.501E-09    7.561E-09
     7.620E-09    7.678E-09    7.734E-09    7.789E-09    7.843E-09    7.895E-09    7.947E-09    7.996E-09    8.045E-09    8.092E-09
     8.138E-09    8.183E-09    8.227E-09    8.269E-09    8.310E-09    8.350E-09    8.388E-09    8.426E-09    8.462E-09    8.497E-09
     8.530E-09    8.563E-09    8.594E-09    8.624E-09    8.653E-09    8.681E-09    8.708E-09    8.733E-09    8.757E-09    8.780E-09
     8.802E-09    8.822E-09    8.841E-09    8.859E-09    8.876E-09    8.891E-09    8.905E-09    8.918E-09    8.930E-09    8.940E-09
     8.949E-09    8.956E-09    8.963E-09    8.968E-09    8.971E-09    8.973E-09    8.974E-09    8.974E-09    8.972E-09    8.969E-09
     8.964E-09    8.958E-09    8.950E-09    8.941E-09    8.931E-09    8.919E-09    8.905E-09    8.890E-09    8.874E-09    8.856E-09
     8.837E-09    8.816E-09    8.793E-09    8.769E-09    8.743E-09    8.716E-09    8.687E-09    8.657E-09    8.625E-09    8.591E-09
     8.555E-09    8.518E-09    8.480E-09    8.439E-09    8.397E-09    8.353E-09    8.308E-09    8.260E-09    8.211E-09    8.160E-09
     8.108E-09    8.053E-09    7.997E-09    7.939E-09    7.879E-09    7.818E-09    7.755E-09    7.690E-09    7.623E-09    7.555E-09
     7.485E-09    7.414E-09    7.341E-09    7.266E-09    7.190E-09    7.113E-09    7.034E-09    6.953E-09    6.871E-09    6.788E-09
     6.703E-09    6.617E-09    6.530E-09    6.441E-09    6.351E-09    6.260E-09    6.168E-09    6.074E-09    5.980E-09    5.884E-09
     5.787E-09    5.690E-09    5.591E-09    5.491E-09    5.391E-09    5.289E-09    5.187E-09    5.083E-09    4.979E-09    4.874E-09
     4.769E-09    4.662E-09    4.555E-09    4.448E-09    4.340E-09    4.231E-09    4.122E-09    4.012E-09    3.902E-09    3.791E-09
     3.680E-09    3.569E-09    3.457E-09    3.345E-09    3.233E-09    3.121E-09    3.008E-09    2.896E-09    2.783E-09    2.670E-09
     2.557E-09    2.445E-09    2.332E-09    2.219E-09    2.107E-09    1.994E-09    1.882E-09    1.770E-09    1.658E-09    1.547E-09
     1.436E-09    1.325E-09    1.214E-09    1.104E-09    9.946E-10    8.854E-10    7.766E-10    6.684E-10    5.607E-10    4.535E-10
     3.470E-10    2.410E-10    1.358E-10    3.115E-11   -7.276E-11   -1.759E-10   -2.784E-10   -3.800E-10   -4.808E-10   -5.807E-10
    -6.798E-10   -7.780E-10   -8.753E-10   -9.716E-10   -1.067E-09   -1.161E-09   -1.255E-09   -1.347E-09   -1.438E-09   -1.528E-09
    -1.617E-09   -1.705E-09   -1.792E-09   -1.877E-09   -1.962E-09   -2.045E-09   -2.127E-09   -2.207E-09   -2.286E-09   -2.364E-09
    -2.441E-09   -2.516E-09   -2.590E-09   -2.662E-09   -2.733E-09   -2.803E-09   -2.871E-09   -2.937E-09   -3.003E-09   -3.066E-09
    -3.128E-09   -3.189E-09   -3.248E-09   -3.305E-09   -3.361E-09   -3.416E-09   -3.469E-09   -3.520E-09   -3.571E-09   -3.620E-09
    -3.667E-09   -3.713E-09   -3.758E-09   -3.802E-09   -3.845E-09   -3.886E-09   -3.926E-09   -3.965E-09   -4.003E-09   -4.040E-09
    -4.076E-09   -4.111E-09   -4.145E-09   -4.178E-09   -4.210E-09   -4.242E-09   -4.272E-09   -4.302E-09   -4.330E-09   -4.358E-09
    -4.386E-09   -4.412E-09   -4.438E-09   -4.463E-09   -4.488E-09   -4.512E-09   -4.535E-09   -4.558E-09   -4.580E-09   -4.602E-09
    -4.623E-09   -4.644E-09   -4.664E-09   -4.684E-09   -4.704E-09   -4.723E-09   -4.742E-09   -4.760E-09   -4.778E-09   -4.796E-09
    -4.814E-09   -4.831E-09   -4.848E-09   -4.865E-09   -4.882E-09   -4.898E-09   -4.914E-09   -4.930E-09   -4.946E-09   -4.962E-09
    -4.977E-09   -4.993E-09   -5.008E-09   -5.024E-09   -5.039E-09   -5.054E-09   -5.068E-09   -5.083E-09   -5.097E-09   -5.111E-09
    -5.125E-09   -5.138E-09   -5.151E-09   -5.164E-09   -5.176E-09   -5.188E-09   -5.199E-09   -5.210E-09   -5.220E-09   -5.230E-09
    -5.239E-09   -5.247E-09   -5.255E-09   -5.263E-09   -5.269E-09   -5.275E-09   -5.280E-09   -5.285E-09   -5.289E-09   -5.291E-09
    -5.294E-09   -5.295E-09   -5.295E-09   -5.295E-09   -5.294E-09   -5.291E-09   -5.288E-09   -5.284E-09   -5.279E-09   -5.273E-09
    -5.266E-09   -5.258E-09   -5.249E-09   -5.239E-09   -5.228E-09   -5.216E-09   -5.203E-09   -5.189E-09   -5.173E-09   -5.157E-09
    -5.139E-09   -5.120E-09   -5.100E-09   -5.079E-09   -5.056E-09   -5.033E-09   -5.008E-09   -4.982E-09   -4.955E-09   -4.927E-09
    -4.897E-09   -4.866E-09   -4.834E-09
 Ala      Conc. = 2.16E-10
   4.36271E-09  4.45610E-09  4.55290E-09  4.64797E-09  4.73998E-09  4.82693E-09  4.89569E-09  4.97521E-09  5.08614E-09  5.16033E-09
   5.22386E-09  5.33462E-09  5.43439E-09  5.51910E-09  5.61649E-09  5.71558E-09  5.81319E-09  5.90884E-09  6.00253E-09  6.09431E-09
   6.18427E-09  6.27247E-09  6.35897E-09  6.44384E-09  6.52711E-09  6.60882E-09  6.68898E-09  6.76763E-09  6.84480E-09  6.92049E-09
   6.99474E-09  7.06753E-09  7.13889E-09  7.20886E-09  7.27740E-09  7.34455E-09  7.41033E-09  7.47473E-09  7.53776E-09  7.59945E-09
   7.65976E-09  7.71874E-09  7.77640E-09  7.83274E-09  7.88774E-09  7.94146E-09  7.99387E-09  8.04496E-09  8.09482E-09  8.14338E-09
   8.19068E-09  8.23671E-09  8.28151E-09  8.32507E-09  8.36739E-09  8.40848E-09  8.44837E-09  8.48707E-09  8.52457E-09  8.56093E-09
   8.59610E-09  8.63011E-09  8.66297E-09  8.69468E-09  8.72523E-09  8.75464E-09  8.78289E-09  8.81000E-09  8.83594E-09  8.86073E-09
   8.88438E-09  8.90687E-09  8.92822E-09  8.94841E-09  8.96747E-09  8.98541E-09  9.00219E-09  9.01789E-09  9.03244E-09  9.04592E-09
   9.05832E-09  9.06966E-09  9.07996E-09  9.08929E-09  9.09768E-09  9.10514E-09  9.11181E-09  9.11773E-09  9.12302E-09  9.12784E-09
   9.13237E-09  9.13692E-09  9.14183E-09  9.14761E-09  9.15510E-09  9.16554E-09  9.18103E-09  9.20557E-09  9.24788E-09  9.33075E-09
   9.41464E-09  9.42538E-09  9.46316E-09  9.53822E-09  9.56354E-09  9.54749E-09  9.51583E-09  9.46295E-09  9.35236E-09  9.15863E-09
   8.92398E-09  8.77417E-09  8.68256E-09  8.45100E-09  8.25854E-09  8.20357E-09  8.16725E-09  8.13227E-09  8.09520E-09  8.05537E-09
   8.01249E-09  7.96679E-09  7.91835E-09  7.86734E-09  7.81388E-09  7.75809E-09  7.70006E-09  7.63990E-09  7.57769E-09  7.51349E-09
   7.44737E-09  7.37940E-09  7.30960E-09  7.23806E-09  7.16481E-09  7.08990E-09  7.01336E-09  6.93524E-09  6.85561E-09  6.77446E-09
   6.69187E-09  6.60786E-09  6.52246E-09  6.43576E-09  6.34772E-09  6.25841E-09  6.16789E-09  6.07620E-09  5.98333E-09  5.88938E-09
   5.79440E-09  5.69835E-09  5.60135E-09  5.50347E-09  5.40469E-09  5.30509E-09  5.20480E-09  5.10384E-09  5.00231E-09  4.90039E-09
   4.79818E-09  4.69601E-09  4.59427E-09  4.49378E-09  4.39621E-09  4.30644E-09  4.24521E-09  4.23151E-09  4.18055E-09  4.09519E-09
   4.00354E-09  3.91542E-09  3.83062E-09  3.74805E-09  3.66543E-09  3.55900E-09  3.38389E-09  3.11433E-09  2.83354E-09  2.68757E-09
   2.56621E-09  2.45076E-09  2.33738E-09  2.22492E-09  2.11291E-09  2.00121E-09  1.88976E-09  1.77853E-09  1.66754E-09  1.55680E-09
   1.44632E-09  1.33615E-09  1.22631E-09  1.11684E-09  1.00776E-09  8.99085E-10  7.90879E-10  6.83158E-10  5.75942E-10  4.69281E-10
   3.63197E-10  2.57701E-10  1.52839E-10  4.86495E-11 -5.48592E-11 -1.57650E-10 -2.59700E-10 -3.60948E-10 -4.61412E-10 -5.61050E-10
  -6.59833E-10 -7.57718E-10 -8.54695E-10 -9.50724E-10 -1.04581E-09 -1.13991E-09 -1.23297E-09 -1.32501E-09 -1.41599E-09 -1.50587E-09
  -1.59463E-09 -1.68225E-09 -1.76872E-09 -1.85401E-09 -1.93811E-09 -2.02094E-09 -2.10255E-09 -2.18289E-09 -2.26191E-09 -2.33963E-09
  -2.41602E-09 -2.49104E-09 -2.56469E-09 -2.63695E-09 -2.70779E-09 -2.77719E-09 -2.84515E-09 -2.91165E-09 -2.97666E-09 -3.04015E-09
  -3.10214E-09 -3.16259E-09 -3.22149E-09 -3.27885E-09 -3.33471E-09 -3.38909E-09 -3.44203E-09 -3.49355E-09 -3.54369E-09 -3.59248E-09
  -3.63994E-09 -3.68611E-09 -3.73102E-09 -3.77469E-09 -3.81716E-09 -3.85846E-09 -3.89862E-09 -3.93767E-09 -3.97563E-09 -4.01254E-09
  -4.04843E-09 -4.08333E-09 -4.11726E-09 -4.15025E-09 -4.18234E-09 -4.21355E-09 -4.24391E-09 -4.27345E-09 -4.30220E-09 -4.33017E-09
  -4.35741E-09 -4.38394E-09 -4.40978E-09 -4.43495E-09 -4.45950E-09 -4.48343E-09 -4.50679E-09 -4.52958E-09 -4.55184E-09 -4.57358E-09
  -4.59484E-09 -4.61564E-09 -4.63600E-09 -4.65593E-09 -4.67546E-09 -4.69462E-09 -4.71342E-09 -4.73188E-09 -4.75003E-09 -4.76788E-09
  -4.78545E-09 -4.80275E-09 -4.81982E-09 -4.83665E-09 -4.85327E-09 -4.86970E-09 -4.88594E-09 -4.90202E-09 -4.91793E-09 -4.93371E-09
  -4.94937E-09 -4.96490E-09 -4.98033E-09 -4.99564E-09 -5.01082E-09 -5.02583E-09 -5.04064E-09 -5.05523E-09 -5.06957E-09 -5.08362E-09
  -5.09737E-09 -5.11078E-09 -5.12383E-09 -5.13649E-09 -5.14873E-09 -5.16053E-09 -5.17186E-09 -5.18270E-09 -5.19301E-09 -5.20278E-09
  -5.21198E-09 -5.22059E-09 -5.22857E-09 -5.23592E-09 -5.24260E-09 -5.24858E-09 -5.25385E-09 -5.25839E-09 -5.26218E-09 -5.26518E-09
  -5.26739E-09 -5.26878E-09 -5.26932E-09 -5.26900E-09 -5.26781E-09 -5.26571E-09 -5.26270E-09 -5.25875E-09 -5.25384E-09 -5.24796E-09
  -5.24110E-09 -5.23322E-09 -5.22432E-09 -5.21439E-09 -5.20341E-09 -5.19136E-09 -5.17822E-09 -5.16399E-09 -5.14866E-09 -5.13220E-09
  -5.11460E-09 -5.09587E-09 -5.07598E-09 -5.05492E-09 -5.03268E-09 -5.00926E-09 -4.98464E-09 -4.95882E-09 -4.93178E-09 -4.90353E-09
  -4.87405E-09 -4.84334E-09 -4.81138E-09
 Asp      Conc. = 3.62E-09
   5.43097E-09  4.72379E-09  4.26141E-09  4.11365E-09  3.86774E-09  3.64575E-09  3.56323E-09  3.46262E-09  3.82422E-09  4.19205E-09
   4.51477E-09  4.80085E-09  5.06081E-09  5.30101E-09  5.52180E-09  5.72347E-09  5.91434E-09  6.09696E-09  6.27297E-09  6.44371E-09
   6.61028E-09  6.77368E-09  6.93481E-09  7.09452E-09  7.25363E-09  7.41301E-09  7.57353E-09  7.73621E-09  7.90222E-09  8.07289E-09
   8.24995E-09  8.43552E-09  8.63252E-09  8.84500E-09  9.07888E-09  9.34338E-09  9.65111E-09  9.95668E-09  1.01946E-08  1.03574E-08
   1.04807E-08  1.06739E-08  1.10010E-08  1.15238E-08  1.19149E-08  1.23788E-08  1.22741E-08  1.18003E-08  1.16279E-08  1.19435E-08
   1.21850E-08  1.21996E-08  1.18521E-08  1.08938E-08  9.51383E-09  8.42793E-09  7.62564E-09  7.99835E-09  8.15918E-09  7.71717E-09
   7.26122E-09  7.34412E-09  7.36316E-09  7.43665E-09  7.72692E-09  7.77513E-09  7.54592E-09  7.46551E-09  7.51298E-09  7.58977E-09
   7.67266E-09  7.75455E-09  7.83293E-09  7.90693E-09  7.97636E-09  8.04127E-09  8.10181E-09  8.15824E-09  8.21072E-09  8.25952E-09
   8.30480E-09  8.34673E-09  8.38549E-09  8.42124E-09  8.45410E-09  8.48414E-09  8.51154E-09  8.53632E-09  8.55860E-09  8.57844E-09
   8.59590E-09  8.61107E-09  8.62397E-09  8.63464E-09  8.64313E-09  8.64947E-09  8.65371E-09  8.65585E-09  8.65593E-09  8.65400E-09
   8.65002E-09  8.64405E-09  8.63610E-09  8.62616E-09  8.61426E-09  8.60041E-09  8.58459E-09  8.56685E-09  8.54719E-09  8.52558E-09
   8.50208E-09  8.47660E-09  8.44924E-09  8.41991E-09  8.38870E-09  8.35554E-09  8.32048E-09  8.28349E-09  8.24458E-09  8.20381E-09
   8.16099E-09  8.11629E-09  8.06966E-09  8.02115E-09  7.97078E-09  7.91858E-09  7.86457E-09  7.80880E-09  7.75130E-09  7.69211E-09
   7.63125E-09  7.56878E-09  7.50470E-09  7.43909E-09  7.37196E-09  7.30338E-09  7.23336E-09  7.16196E-09  7.08925E-09  7.01525E-09
   6.94004E-09  6.86365E-09  6.78615E-09  6.70765E-09  6.62814E-09  6.54774E-09  6.46654E-09  6.38465E-09  6.30214E-09  6.21917E-09
   6.13590E-09  6.05241E-09  5.96898E-09  5.88586E-09  5.80328E-09  5.72161E-09  5.64139E-09  5.56319E-09  5.48781E-09  5.41648E-09
   5.35076E-09  5.29325E-09  5.24794E-09  5.22186E-09  5.22849E-09  5.29842E-09  5.52085E-09  6.27387E-09  7.68458E-09  8.50142E-09
   8.80206E-09  9.01528E-09  9.28817E-09  9.61617E-09  9.98432E-09  1.03288E-08  1.02341E-08  8.97690E-09  6.24753E-09  3.55767E-09
   2.90002E-09  2.63261E-09  2.46521E-09  2.33316E-09  2.21603E-09  2.10589E-09  1.99922E-09  1.89433E-09  1.79036E-09  1.68688E-09
   1.58365E-09  1.48057E-09  1.37759E-09  1.27473E-09  1.17199E-09  1.06938E-09  9.66972E-10  8.64791E-10  7.62870E-10  6.61273E-10
   5.60036E-10  4.59180E-10  3.58767E-10  2.58843E-10  1.59428E-10  6.05709E-11 -3.76993E-11 -1.35310E-10 -2.32272E-10 -3.28538E-10
  -4.24069E-10 -5.18819E-10 -6.12770E-10 -7.05877E-10 -7.98145E-10 -8.89513E-10 -9.79942E-10 -1.06942E-09 -1.15794E-09 -1.24544E-09
  -1.33189E-09 -1.41728E-09 -1.50158E-09 -1.58478E-09 -1.66685E-09 -1.74772E-09 -1.82743E-09 -1.90593E-09 -1.98317E-09 -2.05916E-09
