 LCModel (Version 6.3-1R) Copyright: S.W. Provencher.          Ref.: Magn. Reson. Med. 30:672-679 (1993).                
 onepulse 10x15_ftSpec_smooth_lcm
 26 lines in following concentration table = NCONC+1
    Conc.  %SD /Cr+PCr  Metabolite                                         
 1.75E-10 143%   0.996 Ala                                                 
 3.12E-09  16%  17.703 Asp                                                 
    0.000 999%   0.000 Cr                                                  
 1.30E-09  36%   7.408 GABA                                                
 6.00E-10  99%   3.408 Glc                                                 
    0.000 999%   0.000 Gln                                                 
    0.000 999%   0.000 Glu                                                 
    0.000 999%   0.000 Glyc                                                
 9.89E-11  75%   0.562 GPC                                                 
 2.68E-11 999%   0.152 GSH                                                 
 9.05E-10  41%   5.138 Ins                                                 
    0.000 999%   0.000 Lac                                                 
    0.000 999%   0.000 NAAG                                                
    0.000 999%   0.000 NAA                                                 
    0.000 999%   0.000 PCh                                                 
 1.76E-10 137%   1.000 PCr                                                 
    0.000 999%   0.000 PE                                                  
 2.52E-10  63%   1.433 Scyllo                                              
    0.000 999%   0.000 Ser                                                 
    0.000 999%   0.000 Tau                                                 
 9.89E-11  75%   0.562 GPC+PCh                                             
    0.000 999%   0.000 NAA+NAAG                                            
 9.05E-10  41%   5.138 Ins+Glyc                                            
 1.76E-10 137%   1.000 Cr+PCr                                              
    0.000 999%   0.000 Glu+Gln                                             
   6 lines in following misc. output table
  FWHM = 0.078 ppm    S/N =   3                                            
  Data shift = 0.358 ppm                                                   
  Ph:-169 deg      38.2 deg/ppm                                            
  alphaB,S = 1.2E+00,   2.0E+01                                            
    9 spline knots.   Ns = 5(1)                                            
  (10) 5 infls.   (11) 3 extrs.                                            
  363 points on ppm-axis = NY
      4.250000     4.238821     4.227641     4.216462     4.205282     4.194103     4.182923     4.171744     4.160564     4.149385
      4.138206     4.127026     4.115847     4.104667     4.093488     4.082308     4.071129     4.059949     4.048770     4.037591
      4.026411     4.015232     4.004052     3.992873     3.981693     3.970514     3.959334     3.948155     3.936975     3.925796
      3.914617     3.903437     3.892258     3.881078     3.869899     3.858719     3.847540     3.836360     3.825181     3.814002
      3.802822     3.791643     3.780463     3.769284     3.758104     3.746925     3.735745     3.724566     3.713387     3.702207
      3.691028     3.679848     3.668669     3.657489     3.646310     3.635130     3.623951     3.612772     3.601592     3.590413
      3.579233     3.568054     3.556874     3.545695     3.534515     3.523336     3.512156     3.500977     3.489798     3.478618
      3.467439     3.456259     3.445080     3.433900     3.422721     3.411541     3.400362     3.389183     3.378003     3.366824
      3.355644     3.344465     3.333285     3.322106     3.310926     3.299747     3.288568     3.277388     3.266209     3.255029
      3.243850     3.232670     3.221491     3.210311     3.199132     3.187953     3.176773     3.165594     3.154414     3.143235
      3.132055     3.120876     3.109696     3.098517     3.087337     3.076158     3.064979     3.053799     3.042620     3.031440
      3.020261     3.009081     2.997902     2.986722     2.975543     2.964364     2.953184     2.942005     2.930825     2.919646
      2.908466     2.897287     2.886107     2.874928     2.863749     2.852569     2.841390     2.830210     2.819031     2.807851
      2.796672     2.785492     2.774313     2.763134     2.751954     2.740775     2.729595     2.718416     2.707236     2.696057
      2.684877     2.673698     2.662519     2.651339     2.640160     2.628980     2.617801     2.606621     2.595442     2.584262
      2.573083     2.561903     2.550724     2.539545     2.528365     2.517186     2.506006     2.494827     2.483647     2.472468
      2.461288     2.450109     2.438930     2.427750     2.416571     2.405391     2.394212     2.383032     2.371853     2.360673
      2.349494     2.338315     2.327135     2.315956     2.304776     2.293597     2.282417     2.271238     2.260058     2.248879
      2.237700     2.226520     2.215341     2.204161     2.192982     2.181802     2.170623     2.159443     2.148264     2.137084
      2.125905     2.114726     2.103546     2.092367     2.081187     2.070008     2.058828     2.047649     2.036469     2.025290
      2.014111     2.002931     1.991752     1.980572     1.969393     1.958213     1.947034     1.935854     1.924675     1.913496
      1.902316     1.891137     1.879957     1.868778     1.857598     1.846419     1.835239     1.824060     1.812881     1.801701
      1.790522     1.779342     1.768163     1.756983     1.745804     1.734624     1.723445     1.712265     1.701086     1.689907
      1.678727     1.667548     1.656368     1.645189     1.634009     1.622830     1.611650     1.600471     1.589292     1.578112
      1.566933     1.555753     1.544574     1.533394     1.522215     1.511035     1.499856     1.488677     1.477497     1.466318
      1.455138     1.443959     1.432779     1.421600     1.410420     1.399241     1.388062     1.376882     1.365703     1.354523
      1.343344     1.332164     1.320985     1.309805     1.298626     1.287446     1.276267     1.265088     1.253908     1.242729
      1.231549     1.220370     1.209190     1.198011     1.186831     1.175652     1.164473     1.153293     1.142114     1.130934
      1.119755     1.108575     1.097396     1.086216     1.075037     1.063858     1.052678     1.041499     1.030319     1.019140
      1.007960     0.996781     0.985601     0.974422     0.963243     0.952063     0.940884     0.929704     0.918525     0.907345
      0.896166     0.884986     0.873807     0.862628     0.851448     0.840269     0.829089     0.817910     0.806730     0.795551
      0.784371     0.773192     0.762012     0.750833     0.739654     0.728474     0.717295     0.706115     0.694936     0.683756
      0.672577     0.661397     0.650218     0.639039     0.627859     0.616680     0.605500     0.594321     0.583141     0.571962
      0.560782     0.549603     0.538424     0.527244     0.516065     0.504885     0.493706     0.482526     0.471347     0.460167
      0.448988     0.437809     0.426629     0.415450     0.404270     0.393091     0.381911     0.370732     0.359552     0.348373
      0.337193     0.326014     0.314835     0.303655     0.292476     0.281296     0.270117     0.258937     0.247758     0.236578
      0.225399     0.214220     0.203040
 NY phased data points follow
   6.56281E-09  8.25251E-09  8.07837E-09  9.65774E-09  9.00202E-09  9.55402E-09  8.63616E-09  8.98499E-09  8.29036E-09  8.91546E-09
   7.66604E-09  8.30032E-09  7.79747E-09  8.27983E-09  7.90694E-09  8.14669E-09  8.12068E-09  8.98295E-09  8.43710E-09  8.45928E-09
   8.03172E-09  8.61842E-09  8.07876E-09  8.46029E-09  7.63571E-09  8.08739E-09  8.05081E-09  8.44602E-09  7.28109E-09  8.08613E-09
   7.12583E-09  7.68133E-09  7.25644E-09  8.51340E-09  8.16316E-09  9.41903E-09  8.80226E-09  9.47970E-09  8.45011E-09  9.03624E-09
   8.36461E-09  8.99549E-09  8.16801E-09  8.45558E-09  7.98849E-09  8.63484E-09  7.92775E-09  8.47881E-09  7.69002E-09  7.90207E-09
   7.53306E-09  7.48294E-09  7.14930E-09  7.97539E-09  6.92820E-09  7.16723E-09  6.51231E-09  6.80941E-09  6.13754E-09  6.51317E-09
   5.22031E-09  6.03528E-09  5.08250E-09  6.41675E-09  6.36821E-09  7.90002E-09  7.53364E-09  8.42995E-09  7.91731E-09  8.24717E-09
   7.46086E-09  8.08043E-09  6.87860E-09  7.36802E-09  6.63395E-09  6.65943E-09  5.14325E-09  5.37135E-09  4.47045E-09  5.59167E-09
   5.34114E-09  7.72918E-09  7.57078E-09  9.28246E-09  8.30599E-09  9.33009E-09  8.72585E-09  9.84503E-09  8.91855E-09  9.24518E-09
   8.94430E-09  9.44763E-09  8.86393E-09  9.75174E-09  8.95900E-09  9.35530E-09  8.44190E-09  8.98392E-09  8.11406E-09  8.72106E-09
   7.39117E-09  7.97695E-09  7.47201E-09  7.93097E-09  7.70820E-09  7.79997E-09  7.27062E-09  8.04223E-09  7.09446E-09  7.21745E-09
   6.73506E-09  6.87521E-09  5.93462E-09  6.87686E-09  5.90306E-09  6.52883E-09  5.80627E-09  6.67224E-09  5.82399E-09  6.61571E-09
   5.76532E-09  6.34932E-09  5.69996E-09  6.49416E-09  5.38500E-09  6.06157E-09  4.65361E-09  5.77899E-09  4.94166E-09  5.66565E-09
   4.90400E-09  5.31493E-09  4.90699E-09  5.80089E-09  5.32800E-09  5.91253E-09  5.27795E-09  6.18234E-09  5.55301E-09  6.18675E-09
   6.00687E-09  6.96977E-09  6.41826E-09  7.53332E-09  6.39240E-09  7.72071E-09  7.50350E-09  8.56713E-09  7.65956E-09  9.02367E-09
   8.29676E-09  8.82535E-09  8.35912E-09  8.89349E-09  8.77052E-09  9.56732E-09  8.46272E-09  9.28287E-09  8.62233E-09  9.77027E-09
   9.00246E-09  9.88398E-09  8.89151E-09  1.00198E-08  9.41814E-09  9.76461E-09  9.17704E-09  9.71064E-09  9.00630E-09  9.35154E-09
   9.02440E-09  1.10815E-08  1.22172E-08  1.41961E-08  1.36762E-08  1.46669E-08  1.40684E-08  1.40188E-08  1.31559E-08  1.32136E-08
   1.17999E-08  1.16355E-08  9.97444E-09  9.38042E-09  7.40478E-09  6.90804E-09  4.15370E-09  3.50138E-09  1.55429E-09  2.45348E-10
  -2.14571E-09 -3.14124E-09 -4.81244E-09 -5.87600E-09 -7.05459E-09 -7.37475E-09 -8.18327E-09 -8.42483E-09 -8.72350E-09 -8.39056E-09
  -8.37595E-09 -7.25052E-09 -7.03473E-09 -6.15881E-09 -5.94601E-09 -4.84554E-09 -4.45833E-09 -3.59734E-09 -3.39668E-09 -3.24549E-09
  -3.03127E-09 -2.76700E-09 -2.81926E-09 -2.27217E-09 -2.79239E-09 -2.66994E-09 -2.62439E-09 -2.35314E-09 -2.10089E-09 -2.07793E-09
  -2.13146E-09 -1.70317E-09 -2.13762E-09 -1.61467E-09 -1.86495E-09 -1.43396E-09 -1.63080E-09 -1.63848E-09 -2.02084E-09 -1.66085E-09
  -1.33041E-09 -1.54367E-09 -1.69104E-09 -1.30927E-09 -1.42714E-09 -1.28768E-09 -1.66353E-09 -1.43638E-09 -2.04782E-09 -1.64169E-09
  -2.09130E-09 -1.89432E-09 -1.81721E-09 -1.71610E-09 -2.22719E-09 -1.46714E-09 -2.12188E-09 -2.08858E-09 -2.22746E-09 -1.92629E-09
  -2.07938E-09 -1.95798E-09 -2.01760E-09 -1.82366E-09 -1.95469E-09 -1.90599E-09 -2.54644E-09 -1.79123E-09 -2.25838E-09 -2.36093E-09
  -2.54809E-09 -2.13346E-09 -2.51817E-09 -2.54589E-09 -2.73261E-09 -2.41422E-09 -2.35687E-09 -2.57585E-09 -2.70227E-09 -2.33553E-09
  -2.60295E-09 -2.54703E-09 -2.60753E-09 -2.38555E-09 -2.07056E-09 -1.83799E-09 -1.78657E-09 -1.87883E-09 -1.94700E-09 -1.85026E-09
  -1.95924E-09 -1.94588E-09 -2.17558E-09 -1.71703E-09 -1.90166E-09 -2.44076E-09 -2.07211E-09 -2.45195E-09 -2.16572E-09 -2.25267E-09
  -2.64688E-09 -2.17620E-09 -2.62142E-09 -2.74370E-09 -2.98480E-09 -2.57020E-09 -2.59618E-09 -2.74581E-09 -3.24874E-09 -2.59068E-09
  -2.91343E-09 -3.16378E-09 -3.15162E-09 -2.96791E-09 -3.48999E-09 -3.18599E-09 -3.23314E-09 -3.37854E-09 -3.73100E-09 -3.19864E-09
  -3.45426E-09 -3.20104E-09 -3.90067E-09 -3.21920E-09 -3.45660E-09 -3.00489E-09 -3.61642E-09 -3.66020E-09 -3.66029E-09 -3.48446E-09
  -4.25084E-09 -3.64609E-09 -3.56780E-09 -3.49092E-09 -4.16964E-09 -3.60778E-09 -3.57330E-09 -3.40528E-09 -3.89411E-09 -3.53054E-09
  -3.90847E-09 -3.76240E-09 -4.11790E-09 -3.64006E-09 -4.38726E-09 -4.33730E-09 -4.52640E-09 -3.84197E-09 -4.37314E-09 -3.94131E-09
  -3.87825E-09 -3.83388E-09 -4.34749E-09 -3.94656E-09 -4.24711E-09 -3.93048E-09 -4.22209E-09 -4.01257E-09 -4.45817E-09 -3.73831E-09
  -4.33008E-09 -3.82217E-09 -4.69627E-09 -4.15781E-09 -4.26697E-09 -3.81096E-09 -4.63912E-09 -4.13330E-09 -4.51105E-09 -3.79954E-09
  -4.54822E-09 -3.40172E-09 -4.03981E-09
 NY points of the fit to the data follow
   8.89331E-09  8.01024E-09  7.56211E-09  7.82442E-09  8.05124E-09  7.81723E-09  7.72339E-09  7.81469E-09  8.22428E-09  8.35452E-09
   8.37748E-09  8.64416E-09  9.13252E-09  9.25258E-09  8.83675E-09  8.47612E-09  8.72659E-09  8.73544E-09  7.79468E-09  7.30223E-09
   7.59853E-09  8.11086E-09  8.38163E-09  8.52278E-09  8.34827E-09  8.18261E-09  8.00886E-09  7.42237E-09  6.76050E-09  7.34074E-09
   7.87874E-09  8.25049E-09  8.42903E-09  8.01020E-09  7.47312E-09  8.02069E-09  8.61455E-09  8.89113E-09  8.85694E-09  8.57334E-09
   8.24940E-09  8.09481E-09  7.58488E-09  7.51857E-09  8.04910E-09  8.63000E-09  8.14673E-09  7.75133E-09  7.97060E-09  8.64779E-09
   9.12582E-09  9.34498E-09  9.28425E-09  8.71532E-09  7.68967E-09  6.93146E-09  6.14482E-09  6.72876E-09  7.10855E-09  6.88576E-09
   6.68903E-09  7.09726E-09  7.39120E-09  7.47333E-09  7.98536E-09  8.46737E-09  8.22668E-09  8.05409E-09  8.17062E-09  8.28006E-09
   8.20150E-09  7.88605E-09  7.46978E-09  7.23450E-09  7.23120E-09  6.69637E-09  6.28299E-09  6.64375E-09  6.75485E-09  6.73830E-09
   6.97730E-09  7.12334E-09  7.31957E-09  7.70999E-09  7.89277E-09  7.96929E-09  8.22847E-09  8.43887E-09  8.54472E-09  8.60951E-09
   8.55287E-09  8.54089E-09  8.64731E-09  8.38525E-09  7.99302E-09  8.08728E-09  7.97807E-09  7.60789E-09  7.58827E-09  7.64692E-09
   7.60664E-09  7.55346E-09  7.58530E-09  7.68202E-09  7.72681E-09  7.72802E-09  7.72931E-09  7.74015E-09  7.71488E-09  7.59773E-09
   7.40846E-09  7.29726E-09  7.28187E-09  7.10818E-09  6.93932E-09  6.91085E-09  6.90086E-09  6.89177E-09  6.88025E-09  6.86570E-09
   6.84786E-09  6.82703E-09  6.80332E-09  6.77688E-09  6.74785E-09  6.71640E-09  6.68261E-09  6.64661E-09  6.60854E-09  6.56847E-09
   6.52649E-09  6.48271E-09  6.43718E-09  6.39003E-09  6.34131E-09  6.29112E-09  6.23951E-09  6.18658E-09  6.13243E-09  6.07712E-09
   6.02078E-09  5.96349E-09  5.90535E-09  5.84650E-09  5.78700E-09  5.72701E-09  5.66671E-09  5.60627E-09  5.54585E-09  5.48572E-09
   5.42614E-09  5.36735E-09  5.30980E-09  5.25398E-09  5.20038E-09  5.14979E-09  5.10320E-09  5.06186E-09  5.02753E-09  5.00281E-09
   4.99137E-09  4.99919E-09  5.03620E-09  5.12094E-09  5.29299E-09  5.65825E-09  6.62346E-09  9.11876E-09  1.11053E-08  1.14201E-08
   1.13969E-08  1.20395E-08  1.31631E-08  1.42104E-08  1.51020E-08  1.59167E-08  1.57617E-08  1.27889E-08  6.91373E-09  3.25279E-09
   2.41081E-09  2.09803E-09  1.92831E-09  1.81030E-09  1.71409E-09  1.62789E-09  1.54644E-09  1.46721E-09  1.38892E-09  1.31096E-09
   1.23296E-09  1.15482E-09  1.07645E-09  9.97874E-10  9.19109E-10  8.40187E-10  7.61187E-10  6.82152E-10  6.03131E-10  5.24197E-10
   4.45396E-10  3.66764E-10  2.88365E-10  2.10253E-10  1.32455E-10  5.50208E-11 -2.20152E-11 -9.85842E-11 -1.74690E-10 -2.50286E-10
  -3.25337E-10 -3.99798E-10 -4.73651E-10 -5.46856E-10 -6.19416E-10 -6.91278E-10 -7.62407E-10 -8.32795E-10 -9.02430E-10 -9.71260E-10
  -1.03927E-09 -1.10644E-09 -1.17275E-09 -1.23820E-09 -1.30275E-09 -1.36636E-09 -1.42906E-09 -1.49080E-09 -1.55156E-09 -1.61133E-09
  -1.67009E-09 -1.72784E-09 -1.78454E-09 -1.84020E-09 -1.89478E-09 -1.94829E-09 -2.00070E-09 -2.05201E-09 -2.10220E-09 -2.15125E-09
  -2.19916E-09 -2.24592E-09 -2.29150E-09 -2.33594E-09 -2.37923E-09 -2.42141E-09 -2.46250E-09 -2.50250E-09 -2.54145E-09 -2.57937E-09
  -2.61627E-09 -2.65218E-09 -2.68711E-09 -2.72109E-09 -2.75413E-09 -2.78627E-09 -2.81751E-09 -2.84789E-09 -2.87741E-09 -2.90610E-09
  -2.93399E-09 -2.96109E-09 -2.98742E-09 -3.01300E-09 -3.03786E-09 -3.06200E-09 -3.08546E-09 -3.10825E-09 -3.13039E-09 -3.15190E-09
  -3.17280E-09 -3.19311E-09 -3.21284E-09 -3.23202E-09 -3.25067E-09 -3.26879E-09 -3.28642E-09 -3.30356E-09 -3.32024E-09 -3.33647E-09
  -3.35226E-09 -3.36764E-09 -3.38262E-09 -3.39722E-09 -3.41144E-09 -3.42531E-09 -3.43884E-09 -3.45205E-09 -3.46495E-09 -3.47755E-09
  -3.48986E-09 -3.50189E-09 -3.51367E-09 -3.52520E-09 -3.53650E-09 -3.54757E-09 -3.55842E-09 -3.56907E-09 -3.57952E-09 -3.58978E-09
  -3.59987E-09 -3.60979E-09 -3.61954E-09 -3.62913E-09 -3.63854E-09 -3.64773E-09 -3.65670E-09 -3.66543E-09 -3.67388E-09 -3.68206E-09
  -3.68993E-09 -3.69747E-09 -3.70466E-09 -3.71150E-09 -3.71795E-09 -3.72400E-09 -3.72963E-09 -3.73482E-09 -3.73956E-09 -3.74382E-09
  -3.74760E-09 -3.75086E-09 -3.75360E-09 -3.75580E-09 -3.75744E-09 -3.75850E-09 -3.75898E-09 -3.75884E-09 -3.75809E-09 -3.75670E-09
  -3.75466E-09 -3.75195E-09 -3.74856E-09 -3.74447E-09 -3.73969E-09 -3.73417E-09 -3.72792E-09 -3.72093E-09 -3.71318E-09 -3.70465E-09
  -3.69535E-09 -3.68524E-09 -3.67433E-09 -3.66261E-09 -3.65006E-09 -3.63667E-09 -3.62243E-09 -3.60734E-09 -3.59138E-09 -3.57455E-09
  -3.55683E-09 -3.53823E-09 -3.51873E-09 -3.49833E-09 -3.47701E-09 -3.45477E-09 -3.43162E-09 -3.40753E-09 -3.38251E-09 -3.35655E-09
  -3.32964E-09 -3.30179E-09 -3.27298E-09
 NY background values follow
     3.689E-09    3.799E-09    3.909E-09    4.017E-09    4.123E-09    4.228E-09    4.332E-09    4.434E-09    4.535E-09    4.635E-09
     4.733E-09    4.829E-09    4.925E-09    5.018E-09    5.111E-09    5.202E-09    5.291E-09    5.379E-09    5.466E-09    5.551E-09
     5.635E-09    5.717E-09    5.798E-09    5.877E-09    5.955E-09    6.032E-09    6.107E-09    6.181E-09    6.253E-09    6.324E-09
     6.394E-09    6.462E-09    6.528E-09    6.593E-09    6.657E-09    6.720E-09    6.781E-09    6.840E-09    6.898E-09    6.955E-09
     7.010E-09    7.064E-09    7.117E-09    7.168E-09    7.218E-09    7.266E-09    7.313E-09    7.359E-09    7.403E-09    7.446E-09
     7.488E-09    7.528E-09    7.567E-09    7.605E-09    7.641E-09    7.676E-09    7.710E-09    7.742E-09    7.773E-09    7.803E-09
     7.831E-09    7.858E-09    7.884E-09    7.909E-09    7.932E-09    7.954E-09    7.975E-09    7.995E-09    8.013E-09    8.030E-09
     8.045E-09    8.060E-09    8.073E-09    8.084E-09    8.095E-09    8.104E-09    8.112E-09    8.118E-09    8.123E-09    8.127E-09
     8.129E-09    8.131E-09    8.130E-09    8.129E-09    8.126E-09    8.122E-09    8.116E-09    8.109E-09    8.101E-09    8.091E-09
     8.080E-09    8.068E-09    8.054E-09    8.039E-09    8.022E-09    8.004E-09    7.985E-09    7.964E-09    7.941E-09    7.918E-09
     7.893E-09    7.866E-09    7.838E-09    7.808E-09    7.778E-09    7.745E-09    7.711E-09    7.676E-09    7.639E-09    7.601E-09
     7.561E-09    7.520E-09    7.477E-09    7.432E-09    7.387E-09    7.339E-09    7.290E-09    7.240E-09    7.188E-09    7.134E-09
     7.079E-09    7.023E-09    6.964E-09    6.905E-09    6.843E-09    6.781E-09    6.716E-09    6.651E-09    6.583E-09    6.515E-09
     6.445E-09    6.374E-09    6.301E-09    6.227E-09    6.152E-09    6.076E-09    5.998E-09    5.919E-09    5.839E-09    5.758E-09
     5.676E-09    5.593E-09    5.508E-09    5.423E-09    5.337E-09    5.249E-09    5.161E-09    5.072E-09    4.982E-09    4.891E-09
     4.799E-09    4.706E-09    4.613E-09    4.519E-09    4.425E-09    4.329E-09    4.233E-09    4.137E-09    4.040E-09    3.942E-09
     3.844E-09    3.745E-09    3.647E-09    3.547E-09    3.448E-09    3.347E-09    3.247E-09    3.147E-09    3.046E-09    2.945E-09
     2.844E-09    2.743E-09    2.641E-09    2.540E-09    2.439E-09    2.337E-09    2.236E-09    2.135E-09    2.034E-09    1.933E-09
     1.833E-09    1.732E-09    1.632E-09    1.532E-09    1.433E-09    1.334E-09    1.235E-09    1.136E-09    1.038E-09    9.406E-10
     8.434E-10    7.467E-10    6.505E-10    5.548E-10    4.596E-10    3.650E-10    2.709E-10    1.775E-10    8.464E-11   -7.557E-12
    -9.909E-11   -1.900E-10   -2.801E-10   -3.696E-10   -4.583E-10   -5.463E-10   -6.335E-10   -7.199E-10   -8.055E-10   -8.903E-10
    -9.742E-10   -1.057E-09   -1.139E-09   -1.221E-09   -1.301E-09   -1.381E-09   -1.459E-09   -1.537E-09   -1.613E-09   -1.689E-09
    -1.763E-09   -1.837E-09   -1.909E-09   -1.981E-09   -2.051E-09   -2.120E-09   -2.188E-09   -2.255E-09   -2.321E-09   -2.386E-09
    -2.450E-09   -2.512E-09   -2.573E-09   -2.633E-09   -2.692E-09   -2.750E-09   -2.806E-09   -2.862E-09   -2.915E-09   -2.968E-09
    -3.020E-09   -3.070E-09   -3.119E-09   -3.166E-09   -3.213E-09   -3.258E-09   -3.302E-09   -3.345E-09   -3.386E-09   -3.427E-09
    -3.466E-09   -3.504E-09   -3.542E-09   -3.578E-09   -3.613E-09   -3.647E-09   -3.680E-09   -3.712E-09   -3.743E-09   -3.774E-09
    -3.803E-09   -3.832E-09   -3.859E-09   -3.886E-09   -3.912E-09   -3.938E-09   -3.962E-09   -3.986E-09   -4.009E-09   -4.031E-09
    -4.053E-09   -4.074E-09   -4.094E-09   -4.114E-09   -4.133E-09   -4.151E-09   -4.169E-09   -4.186E-09   -4.203E-09   -4.220E-09
    -4.235E-09   -4.251E-09   -4.265E-09   -4.280E-09   -4.294E-09   -4.307E-09   -4.320E-09   -4.333E-09   -4.345E-09   -4.357E-09
    -4.369E-09   -4.380E-09   -4.391E-09   -4.402E-09   -4.412E-09   -4.422E-09   -4.432E-09   -4.442E-09   -4.451E-09   -4.460E-09
    -4.469E-09   -4.477E-09   -4.486E-09   -4.494E-09   -4.502E-09   -4.509E-09   -4.517E-09   -4.524E-09   -4.530E-09   -4.537E-09
    -4.543E-09   -4.548E-09   -4.554E-09   -4.559E-09   -4.563E-09   -4.567E-09   -4.570E-09   -4.573E-09   -4.576E-09   -4.578E-09
    -4.579E-09   -4.580E-09   -4.580E-09   -4.580E-09   -4.579E-09   -4.578E-09   -4.575E-09   -4.573E-09   -4.569E-09   -4.565E-09
    -4.560E-09   -4.555E-09   -4.548E-09   -4.541E-09   -4.534E-09   -4.525E-09   -4.516E-09   -4.506E-09   -4.495E-09   -4.483E-09
    -4.470E-09   -4.457E-09   -4.443E-09   -4.428E-09   -4.412E-09   -4.395E-09   -4.377E-09   -4.359E-09   -4.339E-09   -4.319E-09
    -4.298E-09   -4.275E-09   -4.252E-09   -4.228E-09   -4.203E-09   -4.177E-09   -4.150E-09   -4.122E-09   -4.093E-09   -4.063E-09
    -4.033E-09   -4.001E-09   -3.968E-09
 Ala      Conc. = 1.75E-10
   3.81649E-09  3.90949E-09  4.00776E-09  4.10576E-09  4.20237E-09  4.29512E-09  4.36514E-09  4.44213E-09  4.55966E-09  4.63879E-09
   4.69649E-09  4.80586E-09  4.90655E-09  4.98837E-09  5.08271E-09  5.17882E-09  5.27348E-09  5.36622E-09  5.45701E-09  5.54590E-09
   5.63297E-09  5.71827E-09  5.80185E-09  5.88378E-09  5.96408E-09  6.04278E-09  6.11989E-09  6.19545E-09  6.26948E-09  6.34198E-09
   6.41299E-09  6.48249E-09  6.55050E-09  6.61705E-09  6.68213E-09  6.74574E-09  6.80792E-09  6.86866E-09  6.92796E-09  6.98584E-09
   7.04229E-09  7.09733E-09  7.15097E-09  7.20322E-09  7.25406E-09  7.30354E-09  7.35163E-09  7.39834E-09  7.44372E-09  7.48773E-09
   7.53039E-09  7.57169E-09  7.61169E-09  7.65036E-09  7.68770E-09  7.72372E-09  7.75845E-09  7.79191E-09  7.82406E-09  7.85499E-09
   7.88462E-09  7.91300E-09  7.94014E-09  7.96604E-09  7.99068E-09  8.01409E-09  8.03625E-09  8.05719E-09  8.07689E-09  8.09535E-09
   8.11258E-09  8.12859E-09  8.14338E-09  8.15695E-09  8.16931E-09  8.18048E-09  8.19043E-09  8.19924E-09  8.20683E-09  8.21329E-09
   8.21861E-09  8.22279E-09  8.22588E-09  8.22792E-09  8.22894E-09  8.22896E-09  8.22809E-09  8.22636E-09  8.22388E-09  8.22078E-09
   8.21721E-09  8.21343E-09  8.20971E-09  8.20650E-09  8.20448E-09  8.20468E-09  8.20892E-09  8.22061E-09  8.24750E-09  8.31012E-09
   8.36183E-09  8.33058E-09  8.34809E-09  8.41627E-09  8.42635E-09  8.39043E-09  8.35370E-09  8.32634E-09  8.26305E-09  8.10829E-09
   7.88205E-09  7.73505E-09  7.68482E-09  7.47719E-09  7.27519E-09  7.21423E-09  7.17236E-09  7.13219E-09  7.09033E-09  7.04611E-09
   6.99924E-09  6.94993E-09  6.89826E-09  6.84438E-09  6.78838E-09  6.73039E-09  6.67048E-09  6.60875E-09  6.54527E-09  6.48010E-09
   6.41330E-09  6.34494E-09  6.27504E-09  6.20369E-09  6.13089E-09  6.05672E-09  5.98119E-09  5.90436E-09  5.82628E-09  5.74696E-09
   5.66646E-09  5.58480E-09  5.50203E-09  5.41822E-09  5.33334E-09  5.24744E-09  5.16058E-09  5.07282E-09  4.98414E-09  4.89463E-09
   4.80433E-09  4.71323E-09  4.62141E-09  4.52895E-09  4.43583E-09  4.34213E-09  4.24795E-09  4.15332E-09  4.05833E-09  3.96313E-09
   3.86779E-09  3.77263E-09  3.67795E-09  3.58448E-09  3.49372E-09  3.41012E-09  3.35339E-09  3.33870E-09  3.26745E-09  3.16392E-09
   3.07077E-09  2.99997E-09  2.93349E-09  2.86028E-09  2.78551E-09  2.70607E-09  2.57912E-09  2.35365E-09  2.08370E-09  1.94980E-09
   1.84078E-09  1.73773E-09  1.63687E-09  1.53708E-09  1.43792E-09  1.33926E-09  1.24102E-09  1.14318E-09  1.04574E-09  9.48712E-10
   8.52102E-10  7.55952E-10  6.60258E-10  5.65068E-10  4.70385E-10  3.76221E-10  2.82625E-10  1.89606E-10  9.71782E-11  5.37848E-12
  -8.57776E-11 -1.76287E-10 -2.66112E-10 -3.55226E-10 -4.43627E-10 -5.31286E-10 -6.18191E-10 -7.04292E-10 -7.89609E-10 -8.74113E-10
  -9.57781E-10 -1.04058E-09 -1.12252E-09 -1.20355E-09 -1.28369E-09 -1.36291E-09 -1.44117E-09 -1.51848E-09 -1.59483E-09 -1.67017E-09
  -1.74450E-09 -1.81781E-09 -1.89008E-09 -1.96131E-09 -2.03148E-09 -2.10055E-09 -2.16854E-09 -2.23542E-09 -2.30117E-09 -2.36578E-09
  -2.42925E-09 -2.49155E-09 -2.55268E-09 -2.61263E-09 -2.67138E-09 -2.72892E-09 -2.78525E-09 -2.84035E-09 -2.89421E-09 -2.94681E-09
  -2.99816E-09 -3.04824E-09 -3.09705E-09 -3.14459E-09 -3.19088E-09 -3.23596E-09 -3.27983E-09 -3.32253E-09 -3.36407E-09 -3.40447E-09
  -3.44376E-09 -3.48197E-09 -3.51910E-09 -3.55519E-09 -3.59025E-09 -3.62432E-09 -3.65740E-09 -3.68952E-09 -3.72071E-09 -3.75098E-09
  -3.78035E-09 -3.80886E-09 -3.83651E-09 -3.86334E-09 -3.88936E-09 -3.91458E-09 -3.93904E-09 -3.96276E-09 -3.98574E-09 -4.00802E-09
  -4.02962E-09 -4.05055E-09 -4.07083E-09 -4.09048E-09 -4.10953E-09 -4.12798E-09 -4.14587E-09 -4.16320E-09 -4.17999E-09 -4.19626E-09
  -4.21204E-09 -4.22733E-09 -4.24216E-09 -4.25653E-09 -4.27047E-09 -4.28399E-09 -4.29710E-09 -4.30983E-09 -4.32218E-09 -4.33417E-09
  -4.34581E-09 -4.35712E-09 -4.36811E-09 -4.37879E-09 -4.38917E-09 -4.39927E-09 -4.40910E-09 -4.41865E-09 -4.42796E-09 -4.43702E-09
  -4.44585E-09 -4.45445E-09 -4.46283E-09 -4.47099E-09 -4.47892E-09 -4.48658E-09 -4.49396E-09 -4.50104E-09 -4.50780E-09 -4.51423E-09
  -4.52030E-09 -4.52599E-09 -4.53129E-09 -4.53617E-09 -4.54062E-09 -4.54462E-09 -4.54815E-09 -4.55119E-09 -4.55373E-09 -4.55575E-09
  -4.55723E-09 -4.55816E-09 -4.55852E-09 -4.55828E-09 -4.55745E-09 -4.55599E-09 -4.55390E-09 -4.55116E-09 -4.54775E-09 -4.54366E-09
  -4.53888E-09 -4.53340E-09 -4.52718E-09 -4.52023E-09 -4.51254E-09 -4.50408E-09 -4.49484E-09 -4.48482E-09 -4.47400E-09 -4.46237E-09
  -4.44992E-09 -4.43663E-09 -4.42250E-09 -4.40752E-09 -4.39167E-09 -4.37495E-09 -4.35734E-09 -4.33885E-09 -4.31945E-09 -4.29915E-09
  -4.27793E-09 -4.25578E-09 -4.23270E-09 -4.20869E-09 -4.18373E-09 -4.15782E-09 -4.13096E-09 -4.10313E-09 -4.07434E-09 -4.04458E-09
  -4.01384E-09 -3.98213E-09 -3.94943E-09
 Asp      Conc. = 3.12E-09
   4.81939E-09  4.20546E-09  3.79253E-09  3.67599E-09  3.50629E-09  3.28227E-09  3.24195E-09  3.08410E-09  3.42065E-09  3.76085E-09
   4.05863E-09  4.32199E-09  4.56135E-09  4.78348E-09  4.98800E-09  5.17449E-09  5.35109E-09  5.52008E-09  5.68293E-09  5.84083E-09
   5.99477E-09  6.14562E-09  6.29419E-09  6.44121E-09  6.58742E-09  6.73356E-09  6.88039E-09  7.02880E-09  7.17982E-09  7.33459E-09
   7.49463E-09  7.66181E-09  7.83868E-09  8.02886E-09  8.23764E-09  8.47332E-09  8.74614E-09  8.98679E-09  9.16758E-09  9.27507E-09
   9.39485E-09  9.63037E-09  9.99678E-09  1.05134E-08  1.07770E-08  1.11432E-08  1.08382E-08  1.03169E-08  1.02807E-08  1.07113E-08
   1.09635E-08  1.09789E-08  1.07298E-08  9.97856E-09  8.78226E-09  7.85982E-09  6.90509E-09  7.31697E-09  7.51661E-09  7.09672E-09
   6.67178E-09  6.79226E-09  6.79159E-09  6.82308E-09  7.13766E-09  7.22473E-09  6.96460E-09  6.88059E-09  6.91738E-09  6.98148E-09
   7.05119E-09  7.11988E-09  7.18528E-09  7.24657E-09  7.30360E-09  7.35641E-09  7.40514E-09  7.45004E-09  7.49124E-09  7.52901E-09
   7.56348E-09  7.59483E-09  7.62319E-09  7.64874E-09  7.67158E-09  7.69177E-09  7.70947E-09  7.72473E-09  7.73763E-09  7.74824E-09
   7.75662E-09  7.76286E-09  7.76696E-09  7.76897E-09  7.76896E-09  7.76694E-09  7.76296E-09  7.75703E-09  7.74918E-09  7.73947E-09
   7.72787E-09  7.71443E-09  7.69916E-09  7.68207E-09  7.66319E-09  7.64252E-09  7.62006E-09  7.59585E-09  7.56991E-09  7.54220E-09
   7.51279E-09  7.48159E-09  7.44872E-09  7.41409E-09  7.37777E-09  7.33974E-09  7.30002E-09  7.25860E-09  7.21549E-09  7.17076E-09
   7.12423E-09  7.07605E-09  7.02621E-09  6.97474E-09  6.92165E-09  6.86699E-09  6.81078E-09  6.75305E-09  6.69386E-09  6.63321E-09
   6.57116E-09  6.50773E-09  6.44296E-09  6.37690E-09  6.30956E-09  6.24102E-09  6.17128E-09  6.10042E-09  6.02847E-09  5.95547E-09
   5.88150E-09  5.80657E-09  5.73077E-09  5.65418E-09  5.57680E-09  5.49874E-09  5.42008E-09  5.34092E-09  5.26133E-09  5.18145E-09
   5.10141E-09  5.02131E-09  4.94138E-09  4.86184E-09  4.78290E-09  4.70490E-09  4.62830E-09  4.55362E-09  4.48158E-09  4.41328E-09
   4.35014E-09  4.29454E-09  4.25020E-09  4.22378E-09  4.22844E-09  4.29527E-09  4.52006E-09  5.33393E-09  6.55788E-09  6.86343E-09
   6.73843E-09  6.83861E-09  7.27560E-09  7.75115E-09  8.12349E-09  8.47591E-09  8.65018E-09  7.85534E-09  5.40002E-09  2.76558E-09
   2.15031E-09  1.90379E-09  1.75184E-09  1.63333E-09  1.52898E-09  1.43135E-09  1.33715E-09  1.24479E-09  1.15349E-09  1.06283E-09
   9.72582E-10  8.82664E-10  7.93009E-10  7.03631E-10  6.14521E-10  5.25689E-10  4.37189E-10  3.49040E-10  2.61266E-10  1.73917E-10
   8.70187E-11  5.86337E-13 -8.53326E-11 -1.70702E-10 -2.55508E-10 -3.39716E-10 -4.23303E-10 -5.06213E-10 -5.88459E-10 -6.70005E-10
  -7.50824E-10 -8.30878E-10 -9.10158E-10 -9.88631E-10 -1.06630E-09 -1.14313E-09 -1.21909E-09 -1.29416E-09 -1.36835E-09 -1.44161E-09
  -1.51392E-09 -1.58528E-09 -1.65566E-09 -1.72506E-09 -1.79346E-09 -1.86081E-09 -1.92714E-09 -1.99242E-09 -2.05661E-09 -2.11972E-09
