 LCModel (Version 6.3-1R) Copyright: S.W. Provencher.          Ref.: Magn. Reson. Med. 30:672-679 (1993).                
 onepulse 10x21_ftSpec_smooth_lcm
 26 lines in following concentration table = NCONC+1
    Conc.  %SD   /Cr    Metabolite                                         
    0.000 999%   0.000 Ala                                                 
    0.000 999%   0.000 Asp                                                 
    0.000 999%   0.000 Cr                                                  
    0.000 999%   0.000 GABA                                                
    0.000 999%   0.000 Glc                                                 
    0.000 999%   0.000 Gln                                                 
    0.000 999%   0.000 Glu                                                 
    0.000 999%   0.000 Glyc                                                
 1.79E-11 528%   0.000 GPC                                                 
    0.000 999%   0.000 GSH                                                 
    0.000 999%   0.000 Ins                                                 
    0.000 999%   0.000 Lac                                                 
 7.22E-11 274%   0.000 NAAG                                                
    0.000 999%   0.000 NAA                                                 
    0.000 999%   0.000 PCh                                                 
    0.000 999%   0.000 PCr                                                 
    0.000 999%   0.000 PE                                                  
    0.000 999%   0.000 Scyllo                                              
    0.000 999%   0.000 Ser                                                 
    0.000 999%   0.000 Tau                                                 
 1.79E-11 528%   0.000 GPC+PCh                                             
 7.22E-11 274%   0.000 NAA+NAAG                                            
    0.000 999%   0.000 Ins+Glyc                                            
    0.000 999%   0.000 Cr+PCr                                              
    0.000 999%   0.000 Glu+Gln                                             
   6 lines in following misc. output table
  FWHM = 0.089 ppm    S/N =   0                                            
  Data shift = 0.313 ppm                                                   
  Ph:  60 deg      68.7 deg/ppm                                            
  alphaB,S = 8.3E-01,   4.0E-01                                            
    8 spline knots.   Ns = 5(1)                                            
   1 inflections.     1 extrema                                            
  363 points on ppm-axis = NY
      4.250000     4.238821     4.227641     4.216462     4.205282     4.194103     4.182923     4.171744     4.160564     4.149385
      4.138206     4.127026     4.115847     4.104667     4.093488     4.082308     4.071129     4.059949     4.048770     4.037591
      4.026411     4.015232     4.004052     3.992873     3.981693     3.970514     3.959334     3.948155     3.936975     3.925796
      3.914617     3.903437     3.892258     3.881078     3.869899     3.858719     3.847540     3.836360     3.825181     3.814002
      3.802822     3.791643     3.780463     3.769284     3.758104     3.746925     3.735745     3.724566     3.713387     3.702207
      3.691028     3.679848     3.668669     3.657489     3.646310     3.635130     3.623951     3.612772     3.601592     3.590413
      3.579233     3.568054     3.556874     3.545695     3.534515     3.523336     3.512156     3.500977     3.489798     3.478618
      3.467439     3.456259     3.445080     3.433900     3.422721     3.411541     3.400362     3.389183     3.378003     3.366824
      3.355644     3.344465     3.333285     3.322106     3.310926     3.299747     3.288568     3.277388     3.266209     3.255029
      3.243850     3.232670     3.221491     3.210311     3.199132     3.187953     3.176773     3.165594     3.154414     3.143235
      3.132055     3.120876     3.109696     3.098517     3.087337     3.076158     3.064979     3.053799     3.042620     3.031440
      3.020261     3.009081     2.997902     2.986722     2.975543     2.964364     2.953184     2.942005     2.930825     2.919646
      2.908466     2.897287     2.886107     2.874928     2.863749     2.852569     2.841390     2.830210     2.819031     2.807851
      2.796672     2.785492     2.774313     2.763134     2.751954     2.740775     2.729595     2.718416     2.707236     2.696057
      2.684877     2.673698     2.662519     2.651339     2.640160     2.628980     2.617801     2.606621     2.595442     2.584262
      2.573083     2.561903     2.550724     2.539545     2.528365     2.517186     2.506006     2.494827     2.483647     2.472468
      2.461288     2.450109     2.438930     2.427750     2.416571     2.405391     2.394212     2.383032     2.371853     2.360673
      2.349494     2.338315     2.327135     2.315956     2.304776     2.293597     2.282417     2.271238     2.260058     2.248879
      2.237700     2.226520     2.215341     2.204161     2.192982     2.181802     2.170623     2.159443     2.148264     2.137084
      2.125905     2.114726     2.103546     2.092367     2.081187     2.070008     2.058828     2.047649     2.036469     2.025290
      2.014111     2.002931     1.991752     1.980572     1.969393     1.958213     1.947034     1.935854     1.924675     1.913496
      1.902316     1.891137     1.879957     1.868778     1.857598     1.846419     1.835239     1.824060     1.812881     1.801701
      1.790522     1.779342     1.768163     1.756983     1.745804     1.734624     1.723445     1.712265     1.701086     1.689907
      1.678727     1.667548     1.656368     1.645189     1.634009     1.622830     1.611650     1.600471     1.589292     1.578112
      1.566933     1.555753     1.544574     1.533394     1.522215     1.511035     1.499856     1.488677     1.477497     1.466318
      1.455138     1.443959     1.432779     1.421600     1.410420     1.399241     1.388062     1.376882     1.365703     1.354523
      1.343344     1.332164     1.320985     1.309805     1.298626     1.287446     1.276267     1.265088     1.253908     1.242729
      1.231549     1.220370     1.209190     1.198011     1.186831     1.175652     1.164473     1.153293     1.142114     1.130934
      1.119755     1.108575     1.097396     1.086216     1.075037     1.063858     1.052678     1.041499     1.030319     1.019140
      1.007960     0.996781     0.985601     0.974422     0.963243     0.952063     0.940884     0.929704     0.918525     0.907345
      0.896166     0.884986     0.873807     0.862628     0.851448     0.840269     0.829089     0.817910     0.806730     0.795551
      0.784371     0.773192     0.762012     0.750833     0.739654     0.728474     0.717295     0.706115     0.694936     0.683756
      0.672577     0.661397     0.650218     0.639039     0.627859     0.616680     0.605500     0.594321     0.583141     0.571962
      0.560782     0.549603     0.538424     0.527244     0.516065     0.504885     0.493706     0.482526     0.471347     0.460167
      0.448988     0.437809     0.426629     0.415450     0.404270     0.393091     0.381911     0.370732     0.359552     0.348373
      0.337193     0.326014     0.314835     0.303655     0.292476     0.281296     0.270117     0.258937     0.247758     0.236578
      0.225399     0.214220     0.203040
 NY phased data points follow
   7.91253E-09  9.22144E-09  8.54896E-09  9.85871E-09  9.16103E-09  1.05927E-08  9.49392E-09  1.07730E-08  9.67708E-09  1.03927E-08
   9.15298E-09  9.83879E-09  9.03692E-09  9.63147E-09  8.73868E-09  9.25549E-09  8.20941E-09  9.17315E-09  8.33064E-09  8.95082E-09
   7.96640E-09  8.58427E-09  7.98626E-09  8.58596E-09  7.90776E-09  8.44942E-09  7.08019E-09  7.97064E-09  6.86578E-09  7.77026E-09
   6.52268E-09  7.40336E-09  6.08498E-09  6.89577E-09  5.69599E-09  6.91384E-09  6.52758E-09  6.78570E-09  6.35156E-09  6.26544E-09
   5.31751E-09  5.76206E-09  4.33700E-09  5.08704E-09  4.15165E-09  4.86673E-09  3.45237E-09  4.15140E-09  2.75109E-09  3.86305E-09
   2.71936E-09  3.22172E-09  2.08788E-09  2.61052E-09  2.38272E-09  2.79334E-09  1.89198E-09  2.38794E-09  1.79133E-09  2.41111E-09
   1.54968E-09  2.24058E-09  1.42599E-09  2.30545E-09  1.81137E-09  1.89165E-09  2.42544E-09  2.85363E-09  2.20807E-09  2.82098E-09
   1.91478E-09  2.60021E-09  1.49400E-09  1.95508E-09  1.11976E-09  8.13706E-10  6.73534E-10  8.18254E-10  5.65142E-10  1.32872E-09
   8.52863E-10  1.50378E-09  1.64155E-09  2.08232E-09  2.13650E-09  2.25561E-09  1.63656E-09  1.46663E-09  7.88657E-10  3.47164E-10
  -4.87498E-10 -9.62683E-10 -1.38557E-09 -1.57128E-09 -2.57504E-09 -2.56695E-09 -3.06810E-09 -3.31831E-09 -3.34192E-09 -3.51373E-09
  -4.45122E-09 -4.17541E-09 -4.31592E-09 -4.49280E-09 -4.52971E-09 -4.52358E-09 -5.11583E-09 -4.54946E-09 -4.97375E-09 -5.12448E-09
  -5.25872E-09 -4.93816E-09 -5.30611E-09 -5.46961E-09 -5.10945E-09 -5.04847E-09 -5.09981E-09 -5.03240E-09 -4.32082E-09 -4.52140E-09
  -4.56790E-09 -4.76266E-09 -4.07847E-09 -4.35694E-09 -4.40618E-09 -4.42881E-09 -4.30517E-09 -4.35059E-09 -4.01991E-09 -3.96676E-09
  -3.77938E-09 -3.63205E-09 -3.76468E-09 -3.51889E-09 -3.53488E-09 -3.78673E-09 -3.19537E-09 -3.40190E-09 -2.96961E-09 -3.58056E-09
  -3.66335E-09 -3.67281E-09 -3.42522E-09 -3.37854E-09 -3.66324E-09 -4.25380E-09 -3.78637E-09 -4.32279E-09 -4.44129E-09 -4.76091E-09
  -4.85057E-09 -5.77227E-09 -5.41891E-09 -5.83575E-09 -6.29029E-09 -6.90815E-09 -6.31312E-09 -7.48594E-09 -7.00471E-09 -7.60897E-09
  -7.52147E-09 -7.43494E-09 -7.43951E-09 -7.38930E-09 -7.33484E-09 -7.90889E-09 -7.69901E-09 -8.53180E-09 -8.18001E-09 -8.35203E-09
  -8.35719E-09 -8.95196E-09 -8.98400E-09 -9.99999E-09 -9.87646E-09 -1.14251E-08 -1.21218E-08 -1.37733E-08 -1.40704E-08 -1.53288E-08
  -1.47640E-08 -1.57117E-08 -1.52086E-08 -1.55118E-08 -1.50229E-08 -1.53019E-08 -1.39526E-08 -1.34151E-08 -1.24433E-08 -1.15546E-08
  -1.00090E-08 -9.48693E-09 -7.32312E-09 -6.56822E-09 -4.53349E-09 -3.42337E-09 -1.75203E-09 -8.11045E-10  1.44270E-09  2.51724E-09
   4.17074E-09  5.56852E-09  7.37412E-09  8.37963E-09  1.03798E-08  1.11105E-08  1.25699E-08  1.31886E-08  1.40359E-08  1.37045E-08
   1.44428E-08  1.30816E-08  1.26866E-08  1.09659E-08  1.01782E-08  8.38916E-09  7.35262E-09  5.61914E-09  5.08353E-09  3.67234E-09
   4.01292E-09  2.55290E-09  2.81127E-09  1.77441E-09  2.79868E-09  1.54594E-09  2.48602E-09  1.75491E-09  2.83626E-09  2.14097E-09
   3.12369E-09  2.34530E-09  3.66926E-09  2.29187E-09  3.31387E-09  2.48721E-09  3.33081E-09  2.16952E-09  2.81356E-09  1.86123E-09
   2.82090E-09  2.43722E-09  3.13219E-09  2.04232E-09  3.08996E-09  2.05991E-09  2.52029E-09  1.55390E-09  2.75938E-09  1.69808E-09
   2.45581E-09  1.74406E-09  2.33359E-09  1.70898E-09  2.45287E-09  1.62022E-09  2.63538E-09  1.45003E-09  2.17037E-09  1.43816E-09
   2.24793E-09  1.17522E-09  2.23254E-09  1.11070E-09  2.52117E-09  1.51257E-09  2.55339E-09  1.45046E-09  2.05418E-09  1.29755E-09
   1.90965E-09  6.84842E-10  1.40294E-09  4.19244E-10  1.47465E-09  4.41856E-10  1.39876E-09  2.38392E-11  1.05279E-09 -2.22783E-10
   1.13605E-09 -2.68070E-10  8.82495E-10 -1.93549E-10  8.55157E-10 -9.42128E-11  1.34478E-09  1.39336E-10  1.39577E-09  3.21343E-10
   1.27832E-09  6.49863E-10  1.37156E-09  9.45211E-11  1.40339E-09 -1.97128E-10  1.09618E-09 -5.43808E-11  9.66793E-10  1.89633E-10
   8.72263E-10  2.31122E-11  1.00072E-09 -2.82550E-10  8.35098E-10  4.59673E-10  4.92468E-10 -4.48726E-10  2.30478E-10 -1.02859E-09
   4.82777E-10 -9.06464E-10  2.62478E-10 -1.56071E-09 -1.62621E-10 -1.37962E-09  7.00100E-11 -1.44445E-09  6.40205E-11 -1.98856E-09
  -8.49626E-10 -1.77077E-09 -7.81525E-10 -1.55001E-09 -1.01951E-09 -1.96490E-09 -9.83067E-10 -2.42023E-09 -1.22236E-09 -2.76797E-09
  -1.75275E-09 -2.27722E-09 -2.06444E-09 -2.74853E-09 -1.92267E-09 -2.97448E-09 -2.12037E-09 -2.99400E-09 -2.58456E-09 -3.20862E-09
  -2.33624E-09 -3.40925E-09 -2.18692E-09 -3.32398E-09 -2.94126E-09 -3.19009E-09 -2.73720E-09 -3.69880E-09 -2.75112E-09 -3.69990E-09
  -2.88733E-09 -3.96612E-09 -3.16451E-09 -3.79648E-09 -3.32707E-09 -4.07253E-09 -3.05654E-09 -3.89088E-09 -2.62553E-09 -4.00166E-09
  -3.26046E-09 -3.83930E-09 -3.46112E-09
 NY points of the fit to the data follow
   1.04575E-08  1.03055E-08  1.01596E-08  1.00248E-08  9.90188E-09  9.78463E-09  9.66607E-09  9.54189E-09  9.41200E-09  9.27510E-09
   9.12997E-09  8.97688E-09  8.81884E-09  8.65882E-09  8.50241E-09  8.35272E-09  8.21044E-09  8.07185E-09  7.93457E-09  7.79867E-09
   7.66484E-09  7.53520E-09  7.41804E-09  7.35538E-09  7.30518E-09  7.23950E-09  7.15061E-09  7.04824E-09  6.93604E-09  6.77754E-09
   6.59049E-09  6.38717E-09  6.15660E-09  5.93010E-09  5.76513E-09  5.62349E-09  5.48485E-09  5.34854E-09  5.21421E-09  5.08214E-09
   4.95429E-09  4.82637E-09  4.70018E-09  4.57117E-09  4.43914E-09  4.30480E-09  4.17080E-09  4.03647E-09  3.90345E-09  3.76961E-09
   3.63956E-09  3.51124E-09  3.37752E-09  3.24488E-09  3.11328E-09  2.97818E-09  2.84265E-09  2.70703E-09  2.56997E-09  2.43630E-09
   2.30566E-09  2.18102E-09  2.05572E-09  1.92351E-09  1.79192E-09  1.67304E-09  1.55678E-09  1.44358E-09  1.33695E-09  1.23035E-09
   1.12547E-09  1.03112E-09  9.29386E-10  8.18890E-10  7.03510E-10  6.26962E-10  6.02045E-10  5.48365E-10  4.61890E-10  3.56033E-10
   2.39436E-10  9.69372E-11 -8.56792E-11 -2.87944E-10 -5.22085E-10 -7.77606E-10 -9.81035E-10 -1.11971E-09 -1.25326E-09 -1.38268E-09
  -1.50972E-09 -1.63571E-09 -1.75881E-09 -1.88012E-09 -2.00025E-09 -2.11851E-09 -2.23439E-09 -2.34938E-09 -2.46327E-09 -2.57322E-09
  -2.68120E-09 -2.78844E-09 -2.89381E-09 -2.99680E-09 -3.09776E-09 -3.19675E-09 -3.29381E-09 -3.38893E-09 -3.48210E-09 -3.57331E-09
  -3.66244E-09 -3.74954E-09 -3.83455E-09 -3.91744E-09 -3.99815E-09 -4.07665E-09 -4.15288E-09 -4.22682E-09 -4.29844E-09 -4.36764E-09
  -4.43445E-09 -4.49876E-09 -4.56057E-09 -4.61980E-09 -4.67642E-09 -4.73040E-09 -4.78170E-09 -4.83022E-09 -4.87597E-09 -4.91888E-09
  -4.95890E-09 -4.99601E-09 -5.03012E-09 -5.06122E-09 -5.08925E-09 -5.11420E-09 -5.13594E-09 -5.15450E-09 -5.16979E-09 -5.18181E-09
  -5.19047E-09 -5.19573E-09 -5.19755E-09 -5.19592E-09 -5.19073E-09 -5.18196E-09 -5.16960E-09 -5.15371E-09 -5.13437E-09 -5.11166E-09
  -5.08564E-09 -5.05639E-09 -5.02399E-09 -4.98851E-09 -4.95001E-09 -4.90858E-09 -4.86426E-09 -4.81714E-09 -4.76726E-09 -4.71467E-09
  -4.65941E-09 -4.60146E-09 -4.54077E-09 -4.47712E-09 -4.40995E-09 -4.33736E-09 -4.25036E-09 -4.12854E-09 -4.00958E-09 -3.89995E-09
  -3.80190E-09 -3.70785E-09 -3.62170E-09 -3.56440E-09 -3.51588E-09 -3.47613E-09 -3.44913E-09 -3.40713E-09 -3.32573E-09 -3.24064E-09
  -3.15334E-09 -3.06442E-09 -2.97426E-09 -2.88309E-09 -2.79108E-09 -2.69834E-09 -2.60500E-09 -2.51113E-09 -2.41684E-09 -2.32221E-09
  -2.22730E-09 -2.13223E-09 -2.03705E-09 -1.94185E-09 -1.84671E-09 -1.75170E-09 -1.65691E-09 -1.56240E-09 -1.46825E-09 -1.37455E-09
  -1.28138E-09 -1.18879E-09 -1.09688E-09 -1.00571E-09 -9.15375E-10 -8.25932E-10 -7.37470E-10 -6.50062E-10 -5.63786E-10 -4.78714E-10
  -3.94927E-10 -3.12495E-10 -2.31498E-10 -1.52011E-10 -7.41131E-11  2.12582E-12  7.66191E-11  1.49303E-10  2.20100E-10  2.89001E-10
   3.56005E-10  4.21145E-10  4.84403E-10  5.45812E-10  6.05356E-10  6.63077E-10  7.18964E-10  7.73029E-10  8.25284E-10  8.75734E-10
   9.24405E-10  9.71292E-10  1.01641E-09  1.05976E-09  1.10137E-09  1.14123E-09  1.17937E-09  1.21578E-09  1.25049E-09  1.28349E-09
   1.31480E-09  1.34444E-09  1.37240E-09  1.39870E-09  1.42334E-09  1.44634E-09  1.46772E-09  1.48747E-09  1.50562E-09  1.52215E-09
   1.53711E-09  1.55047E-09  1.56229E-09  1.57250E-09  1.58117E-09  1.58832E-09  1.59393E-09  1.59801E-09  1.60058E-09  1.60163E-09
   1.60120E-09  1.59930E-09  1.59592E-09  1.59109E-09  1.58478E-09  1.57704E-09  1.56788E-09  1.55727E-09  1.54526E-09  1.53186E-09
   1.51705E-09  1.50085E-09  1.48329E-09  1.46435E-09  1.44407E-09  1.42244E-09  1.39948E-09  1.37520E-09  1.34959E-09  1.32268E-09
   1.29449E-09  1.26501E-09  1.23426E-09  1.20223E-09  1.16895E-09  1.13443E-09  1.09869E-09  1.06168E-09  1.02349E-09  9.84089E-10
   9.43478E-10  9.01699E-10  8.58760E-10  8.14685E-10  7.69493E-10  7.23210E-10  6.75852E-10  6.27445E-10  5.78010E-10  5.27567E-10
   4.76141E-10  4.23751E-10  3.70420E-10  3.16170E-10  2.61021E-10  2.04996E-10  1.48118E-10  9.04079E-11  3.18866E-11 -2.74253E-11
  -8.75024E-11 -1.48327E-10 -2.09872E-10 -2.72122E-10 -3.35051E-10 -3.98639E-10 -4.62862E-10 -5.27702E-10 -5.93135E-10 -6.59138E-10
  -7.25690E-10 -7.92774E-10 -8.60362E-10 -9.28433E-10 -9.96969E-10 -1.06595E-09 -1.13534E-09 -1.20514E-09 -1.27530E-09 -1.34583E-09
  -1.41668E-09 -1.48785E-09 -1.55931E-09 -1.63103E-09 -1.70300E-09 -1.77519E-09 -1.84758E-09 -1.92016E-09 -1.99289E-09 -2.06577E-09
  -2.13875E-09 -2.21183E-09 -2.28498E-09 -2.35818E-09 -2.43142E-09 -2.50466E-09 -2.57788E-09 -2.65107E-09 -2.72420E-09 -2.79724E-09
  -2.87019E-09 -2.94302E-09 -3.01570E-09 -3.08821E-09 -3.16054E-09 -3.23265E-09 -3.30453E-09 -3.37616E-09 -3.44752E-09 -3.51858E-09
  -3.58932E-09 -3.65973E-09 -3.72976E-09
 NY background values follow
     1.036E-08    1.022E-08    1.009E-08    9.949E-09    9.812E-09    9.675E-09    9.539E-09    9.402E-09    9.265E-09    9.128E-09
     8.991E-09    8.855E-09    8.718E-09    8.581E-09    8.444E-09    8.307E-09    8.170E-09    8.034E-09    7.897E-09    7.760E-09
     7.623E-09    7.487E-09    7.350E-09    7.214E-09    7.077E-09    6.941E-09    6.804E-09    6.668E-09    6.532E-09    6.395E-09
     6.259E-09    6.123E-09    5.987E-09    5.851E-09    5.715E-09    5.580E-09    5.444E-09    5.308E-09    5.173E-09    5.037E-09
     4.902E-09    4.767E-09    4.632E-09    4.497E-09    4.362E-09    4.228E-09    4.093E-09    3.959E-09    3.825E-09    3.691E-09
     3.557E-09    3.423E-09    3.289E-09    3.156E-09    3.022E-09    2.889E-09    2.756E-09    2.623E-09    2.491E-09    2.358E-09
     2.226E-09    2.094E-09    1.962E-09    1.830E-09    1.699E-09    1.568E-09    1.437E-09    1.306E-09    1.175E-09    1.045E-09
     9.147E-10    7.847E-10    6.550E-10    5.255E-10    3.963E-10    2.674E-10    1.389E-10    1.076E-11   -1.169E-10   -2.441E-10
    -3.707E-10   -4.968E-10   -6.222E-10   -7.469E-10   -8.709E-10   -9.941E-10   -1.116E-09   -1.238E-09   -1.359E-09   -1.478E-09
    -1.597E-09   -1.714E-09   -1.831E-09   -1.946E-09   -2.060E-09   -2.173E-09   -2.285E-09   -2.395E-09   -2.504E-09   -2.611E-09
    -2.717E-09   -2.821E-09   -2.924E-09   -3.025E-09   -3.125E-09   -3.223E-09   -3.319E-09   -3.413E-09   -3.505E-09   -3.596E-09
    -3.685E-09   -3.771E-09   -3.856E-09   -3.938E-09   -4.019E-09   -4.097E-09   -4.173E-09   -4.246E-09   -4.318E-09   -4.387E-09
    -4.453E-09   -4.517E-09   -4.579E-09   -4.638E-09   -4.695E-09   -4.748E-09   -4.800E-09   -4.848E-09   -4.894E-09   -4.936E-09
    -4.976E-09   -5.013E-09   -5.047E-09   -5.078E-09   -5.106E-09   -5.131E-09   -5.153E-09   -5.172E-09   -5.187E-09   -5.199E-09
    -5.207E-09   -5.213E-09   -5.214E-09   -5.213E-09   -5.208E-09   -5.199E-09   -5.186E-09   -5.171E-09   -5.151E-09   -5.129E-09
    -5.103E-09   -5.073E-09   -5.041E-09   -5.006E-09   -4.967E-09   -4.926E-09   -4.882E-09   -4.835E-09   -4.786E-09   -4.734E-09
    -4.679E-09   -4.622E-09   -4.562E-09   -4.501E-09   -4.437E-09   -4.370E-09   -4.302E-09   -4.232E-09   -4.160E-09   -4.086E-09
    -4.010E-09   -3.933E-09   -3.854E-09   -3.773E-09   -3.691E-09   -3.608E-09   -3.523E-09   -3.437E-09   -3.350E-09   -3.262E-09
    -3.173E-09   -3.082E-09   -2.992E-09   -2.900E-09   -2.807E-09   -2.714E-09   -2.621E-09   -2.527E-09   -2.432E-09   -2.338E-09
    -2.243E-09   -2.147E-09   -2.052E-09   -1.957E-09   -1.862E-09   -1.767E-09   -1.672E-09   -1.577E-09   -1.483E-09   -1.389E-09
    -1.296E-09   -1.203E-09   -1.112E-09   -1.020E-09   -9.300E-10   -8.405E-10   -7.520E-10   -6.646E-10   -5.783E-10   -4.932E-10
    -4.094E-10   -3.270E-10   -2.460E-10   -1.665E-10   -8.858E-11   -1.233E-11    6.217E-11    1.349E-10    2.057E-10    2.746E-10
     3.416E-10    4.067E-10    4.700E-10    5.314E-10    5.910E-10    6.487E-10    7.046E-10    7.587E-10    8.109E-10    8.614E-10
     9.101E-10    9.570E-10    1.002E-09    1.045E-09    1.087E-09    1.127E-09    1.165E-09    1.201E-09    1.236E-09    1.269E-09
     1.301E-09    1.330E-09    1.358E-09    1.384E-09    1.409E-09    1.432E-09    1.453E-09    1.473E-09    1.491E-09    1.508E-09
     1.523E-09    1.536E-09    1.548E-09    1.558E-09    1.567E-09    1.574E-09    1.580E-09    1.584E-09    1.586E-09    1.587E-09
     1.587E-09    1.585E-09    1.582E-09    1.577E-09    1.571E-09    1.563E-09    1.554E-09    1.543E-09    1.531E-09    1.518E-09
     1.503E-09    1.487E-09    1.469E-09    1.450E-09    1.430E-09    1.408E-09    1.385E-09    1.361E-09    1.335E-09    1.309E-09
     1.280E-09    1.251E-09    1.220E-09    1.188E-09    1.155E-09    1.120E-09    1.085E-09    1.048E-09    1.009E-09    9.700E-10
     9.294E-10    8.877E-10    8.447E-10    8.006E-10    7.555E-10    7.092E-10    6.618E-10    6.134E-10    5.640E-10    5.136E-10
     4.621E-10    4.097E-10    3.564E-10    3.022E-10    2.470E-10    1.910E-10    1.341E-10    7.643E-11    1.791E-11   -4.140E-11
    -1.015E-10   -1.623E-10   -2.238E-10   -2.861E-10   -3.490E-10   -4.126E-10   -4.768E-10   -5.416E-10   -6.071E-10   -6.731E-10
    -7.396E-10   -8.067E-10   -8.743E-10   -9.423E-10   -1.011E-09   -1.080E-09   -1.149E-09   -1.219E-09   -1.289E-09   -1.360E-09
    -1.431E-09   -1.502E-09   -1.573E-09   -1.645E-09   -1.717E-09   -1.789E-09   -1.861E-09   -1.934E-09   -2.007E-09   -2.080E-09
    -2.153E-09   -2.226E-09   -2.299E-09   -2.372E-09   -2.445E-09   -2.518E-09   -2.592E-09   -2.665E-09   -2.738E-09   -2.811E-09
    -2.884E-09   -2.957E-09   -3.029E-09   -3.102E-09   -3.174E-09   -3.246E-09   -3.318E-09   -3.390E-09   -3.461E-09   -3.532E-09
    -3.603E-09   -3.673E-09   -3.744E-09
 GPC      Conc. = 1.79E-11
   1.04393E-08  1.02881E-08  1.01427E-08  1.00084E-08  9.88585E-09  9.76889E-09  9.65056E-09  9.52657E-09  9.39683E-09  9.26004E-09
   9.11499E-09  8.96195E-09  8.80394E-09  8.64393E-09  8.48750E-09  8.33778E-09  8.19546E-09  8.05680E-09  7.91943E-09  7.78343E-09
   7.64947E-09  7.51968E-09  7.40235E-09  7.33949E-09  7.28906E-09  7.22313E-09  7.13395E-09  7.03124E-09  6.91865E-09  6.75971E-09
   6.57214E-09  6.36821E-09  6.13693E-09  5.90959E-09  5.74358E-09  5.60066E-09  5.46040E-09  5.32194E-09  5.18459E-09  5.04786E-09
   4.91162E-09  4.77571E-09  4.64012E-09  4.50472E-09  4.36957E-09  4.23459E-09  4.09984E-09  3.96521E-09  3.83076E-09  3.69652E-09
   3.56242E-09  3.42852E-09  3.29474E-09  3.16116E-09  3.02779E-09  2.89454E-09  2.76148E-09  2.62868E-09  2.49592E-09  2.36342E-09
   2.23114E-09  2.09900E-09  1.96710E-09  1.83537E-09  1.70391E-09  1.57260E-09  1.44152E-09  1.31063E-09  1.17997E-09  1.04956E-09
   9.19345E-10  7.89349E-10  6.59642E-10  5.30120E-10  4.00892E-10  2.71979E-10  1.43420E-10  1.52791E-11 -1.12415E-10 -2.39600E-10
  -3.66251E-10 -4.92302E-10 -6.17716E-10 -7.42449E-10 -8.66434E-10 -9.89648E-10 -1.11204E-09 -1.23355E-09 -1.35414E-09 -1.47377E-09
  -1.59240E-09 -1.70994E-09 -1.82641E-09 -1.94169E-09 -2.05579E-09 -2.16866E-09 -2.28022E-09 -2.39044E-09 -2.49929E-09 -2.60669E-09
  -2.71262E-09 -2.81703E-09 -2.91987E-09 -3.02107E-09 -3.12063E-09 -3.21847E-09 -3.31455E-09 -3.40881E-09 -3.50123E-09 -3.59179E-09
  -3.68034E-09 -3.76694E-09 -3.85151E-09 -3.93399E-09 -4.01434E-09 -4.09251E-09 -4.16845E-09 -4.24212E-09 -4.31349E-09 -4.38246E-09
  -4.44907E-09 -4.51319E-09 -4.57482E-09 -4.63390E-09 -4.69037E-09 -4.74421E-09 -4.79539E-09 -4.84379E-09 -4.88943E-09 -4.93223E-09
  -4.97216E-09 -5.00919E-09 -5.04323E-09 -5.07425E-09 -5.10221E-09 -5.12710E-09 -5.14878E-09 -5.16729E-09 -5.18254E-09 -5.19452E-09
  -5.20315E-09 -5.20838E-09 -5.21017E-09 -5.20852E-09 -5.20332E-09 -5.19454E-09 -5.18218E-09 -5.16630E-09 -5.14698E-09 -5.12429E-09
  -5.09831E-09 -5.06912E-09 -5.03678E-09 -5.00138E-09 -4.96299E-09 -4.92169E-09 -4.87754E-09 -4.83063E-09 -4.78103E-09 -4.72880E-09
  -4.67402E-09 -4.61674E-09 -4.55702E-09 -4.49486E-09 -4.43023E-09 -4.36280E-09 -4.29085E-09 -4.21041E-09 -4.12900E-09 -4.04796E-09
  -3.96781E-09 -3.88709E-09 -3.80665E-09 -3.73070E-09 -3.65532E-09 -3.58057E-09 -3.50730E-09 -3.43006E-09 -3.34409E-09 -3.25653E-09
  -3.16772E-09 -3.07785E-09 -2.98706E-09 -2.89545E-09 -2.80310E-09 -2.71012E-09 -2.61659E-09 -2.52257E-09 -2.42815E-09 -2.33342E-09
  -2.23843E-09 -2.14328E-09 -2.04804E-09 -1.95279E-09 -1.85760E-09 -1.76255E-09 -1.66773E-09 -1.57319E-09 -1.47901E-09 -1.38529E-09
  -1.29209E-09 -1.19948E-09 -1.10754E-09 -1.01636E-09 -9.26007E-10 -8.36548E-10 -7.48072E-10 -6.60650E-10 -5.74360E-10 -4.89277E-10
  -4.05478E-10 -3.23035E-10 -2.42027E-10 -1.62530E-10 -8.46224E-11 -8.37427E-12  6.61278E-11  1.38821E-10  2.09625E-10  2.78535E-10
   3.45546E-10  4.10693E-10  4.73958E-10  5.35375E-10  5.94925E-10  6.52653E-10  7.08546E-10  7.62617E-10  8.14879E-10  8.65335E-10
   9.14012E-10  9.60904E-10  1.00602E-09  1.04938E-09  1.09100E-09  1.13087E-09  1.16901E-09  1.20543E-09  1.24014E-09  1.27314E-09
   1.30445E-09  1.33410E-09  1.36207E-09  1.38837E-09  1.41302E-09  1.43603E-09  1.45741E-09  1.47717E-09  1.49531E-09  1.51185E-09
   1.52681E-09  1.54017E-09  1.55200E-09  1.56222E-09  1.57089E-09  1.57804E-09  1.58365E-09  1.58774E-09  1.59031E-09  1.59137E-09
   1.59095E-09  1.58905E-09  1.58567E-09  1.58084E-09  1.57454E-09  1.56680E-09  1.55765E-09  1.54704E-09  1.53503E-09  1.52163E-09
   1.50683E-09  1.49063E-09  1.47308E-09  1.45414E-09  1.43387E-09  1.41224E-09  1.38928E-09  1.36500E-09  1.33940E-09  1.31249E-09
   1.28430E-09  1.25482E-09  1.22407E-09  1.19205E-09  1.15877E-09  1.12426E-09  1.08852E-09  1.05152E-09  1.01333E-09  9.73931E-10
   9.33323E-10  8.91547E-10  8.48612E-10  8.04539E-10  7.59350E-10  7.13070E-10  6.65716E-10  6.17312E-10  5.67880E-10  5.17440E-10
   4.66018E-10  4.13630E-10  3.60303E-10  3.06056E-10  2.50910E-10  1.94888E-10  1.38013E-10  8.03063E-11  2.17881E-11 -3.75206E-11
  -9.75945E-11 -1.58416E-10 -2.19958E-10 -2.82205E-10 -3.45130E-10 -4.08715E-10 -4.72935E-10 -5.37773E-10 -6.03202E-10 -6.69202E-10
  -7.35751E-10 -8.02832E-10 -8.70416E-10 -9.38484E-10 -1.00702E-09 -1.07599E-09 -1.14538E-09 -1.21517E-09 -1.28534E-09 -1.35586E-09
  -1.42671E-09 -1.49787E-09 -1.56933E-09 -1.64105E-09 -1.71301E-09 -1.78520E-09 -1.85759E-09 -1.93017E-09 -2.00289E-09 -2.07576E-09
  -2.14874E-09 -2.22182E-09 -2.29497E-09 -2.36817E-09 -2.44140E-09 -2.51463E-09 -2.58785E-09 -2.66104E-09 -2.73416E-09 -2.80721E-09
  -2.88015E-09 -2.95297E-09 -3.02565E-09 -3.09816E-09 -3.17048E-09 -3.24259E-09 -3.31447E-09 -3.38610E-09 -3.45745E-09 -3.52851E-09
  -3.59925E-09 -3.66965E-09 -3.73968E-09
 NAAG     Conc. = 7.22E-11
   1.03770E-08  1.02397E-08  1.01024E-08  9.96527E-09  9.82816E-09  9.69114E-09  9.55413E-09  9.41713E-09  9.28018E-09  9.14323E-09
   9.00632E-09  8.86944E-09  8.73258E-09  8.59574E-09  8.45894E-09  8.32216E-09  8.18539E-09  8.04869E-09  7.91203E-09  7.77541E-09
   7.63885E-09  7.50235E-09  7.36590E-09  7.22952E-09  7.09320E-09  6.95699E-09  6.82085E-09  6.68483E-09  6.54893E-09  6.41313E-09
   6.27749E-09  6.14201E-09  6.00669E-09  5.87162E-09  5.73679E-09  5.60236E-09  5.46831E-09  5.33488E-09  5.20247E-09  5.07175E-09
   4.94489E-09  4.81773E-09  4.69214E-09  4.56360E-09  4.43196E-09  4.29794E-09  4.16421E-09  4.03011E-09  3.89728E-09  3.76361E-09
   3.63370E-09  3.50551E-09  3.37191E-09  3.23937E-09  3.10787E-09  2.97285E-09  2.83740E-09  2.70185E-09  2.56486E-09  2.43124E-09
   2.30066E-09  2.17607E-09  2.05081E-09  1.91863E-09  1.78709E-09  1.66824E-09  1.55201E-09  1.43885E-09  1.33224E-09  1.22566E-09
   1.12081E-09  1.02649E-09  9.24774E-10  8.14299E-10  6.98939E-10  6.22410E-10  5.97511E-10  5.43848E-10  4.57389E-10  3.51546E-10
   2.34964E-10  9.24793E-11 -9.01241E-11 -2.92376E-10 -5.26505E-10 -7.82015E-10 -9.85434E-10 -1.12410E-09 -1.25764E-09 -1.38705E-09
  -1.51408E-09 -1.64006E-09 -1.76315E-09 -1.88445E-09 -2.00458E-09 -2.12283E-09 -2.23871E-09 -2.35368E-09 -2.46757E-09 -2.57752E-09
  -2.68549E-09 -2.79272E-09 -2.89808E-09 -3.00107E-09 -3.10202E-09 -3.20101E-09 -3.29806E-09 -3.39319E-09 -3.48635E-09 -3.57755E-09
  -3.66668E-09 -3.75378E-09 -3.83879E-09 -3.92167E-09 -4.00238E-09 -4.08087E-09 -4.15710E-09 -4.23104E-09 -4.30266E-09 -4.37185E-09
  -4.43866E-09 -4.50297E-09 -4.56477E-09 -4.62401E-09 -4.68063E-09 -4.73461E-09 -4.78591E-09 -4.83443E-09 -4.88017E-09 -4.92308E-09
  -4.96310E-09 -5.00021E-09 -5.03433E-09 -5.06543E-09 -5.09346E-09 -5.11841E-09 -5.14015E-09 -5.15871E-09 -5.17401E-09 -5.18603E-09
  -5.19470E-09 -5.19996E-09 -5.20179E-09 -5.20016E-09 -5.19498E-09 -5.18621E-09 -5.17386E-09 -5.15799E-09 -5.13866E-09 -5.11596E-09
  -5.08996E-09 -5.06073E-09 -5.02835E-09 -4.99290E-09 -4.95444E-09 -4.91304E-09 -4.86877E-09 -4.82171E-09 -4.77191E-09 -4.71941E-09
  -4.66427E-09 -4.60649E-09 -4.54604E-09 -4.48277E-09 -4.41623E-09 -4.34492E-09 -4.26165E-09 -4.15007E-09 -4.04040E-09 -3.93784E-09
  -3.84422E-09 -3.75347E-09 -3.66873E-09 -3.60682E-09 -3.55166E-09 -3.50325E-09 -3.46481E-09 -3.41411E-09 -3.33158E-09 -3.24588E-09
  -3.15821E-09 -3.06906E-09 -2.97874E-09 -2.88747E-09 -2.79537E-09 -2.70258E-09 -2.60919E-09 -2.51529E-09 -2.42097E-09 -2.32631E-09
  -2.23139E-09 -2.13630E-09 -2.04110E-09 -1.94590E-09 -1.85074E-09 -1.75573E-09 -1.66093E-09 -1.56641E-09 -1.47226E-09 -1.37855E-09
  -1.28537E-09 -1.19279E-09 -1.10086E-09 -1.00969E-09 -9.19356E-10 -8.29910E-10 -7.41446E-10 -6.54035E-10 -5.67757E-10 -4.82683E-10
  -3.98894E-10 -3.16460E-10 -2.35461E-10 -1.55973E-10 -7.80728E-11 -1.83232E-12  7.26624E-11  1.45348E-10  2.16146E-10  2.85049E-10
   3.52053E-10  4.17195E-10  4.80454E-10  5.41864E-10  6.01409E-10  6.59132E-10  7.15019E-10  7.69085E-10  8.21342E-10  8.71792E-10
