 LCModel (Version 6.3-1R) Copyright: S.W. Provencher.          Ref.: Magn. Reson. Med. 30:672-679 (1993).                
 onepulse 10x22_ftSpec_smooth_lcm
 26 lines in following concentration table = NCONC+1
    Conc.  %SD /Cr+PCr  Metabolite                                         
 3.74E-10 105%  21.869 Ala                                                 
    0.000 999%   0.000 Asp                                                 
    0.000 999%   0.000 Cr                                                  
    0.000 999%   0.000 GABA                                                
    0.000 999%   0.000 Glc                                                 
    0.000 999%   0.000 Gln                                                 
    0.000 999%   0.000 Glu                                                 
    0.000 999%   0.000 Glyc                                                
    0.000 999%   0.000 GPC                                                 
    0.000 999%   0.000 GSH                                                 
    0.000 999%   0.000 Ins                                                 
 1.13E-10 333%   6.633 Lac                                                 
    0.000 999%   0.000 NAAG                                                
    0.000 999%   0.000 NAA                                                 
    0.000 999%   0.000 PCh                                                 
 1.71E-11 999%   1.000 PCr                                                 
    0.000 999%   0.000 PE                                                  
 1.22E-11 999%   0.712 Scyllo                                              
 1.78E-09  44% 104.015 Ser                                                 
    0.000 999%   0.000 Tau                                                 
    0.000 999%   0.000 GPC+PCh                                             
    0.000 999%   0.000 NAA+NAAG                                            
    0.000 999%   0.000 Ins+Glyc                                            
 1.71E-11 999%   1.000 Cr+PCr                                              
    0.000 999%   0.000 Glu+Gln                                             
   6 lines in following misc. output table
  FWHM = 0.101 ppm    S/N =   1                                            
  Data shift = 0.201 ppm                                                   
  Ph:  28 deg     -16.9 deg/ppm                                            
  alphaB,S = 5.4E+01,   1.7E+01                                            
    8 spline knots.   Ns = 5(1)                                            
  (12) 2 infls.   ( 9) 1 extrs.                                            
  363 points on ppm-axis = NY
      4.250000     4.238821     4.227641     4.216462     4.205282     4.194103     4.182923     4.171744     4.160564     4.149385
      4.138206     4.127026     4.115847     4.104667     4.093488     4.082308     4.071129     4.059949     4.048770     4.037591
      4.026411     4.015232     4.004052     3.992873     3.981693     3.970514     3.959334     3.948155     3.936975     3.925796
      3.914617     3.903437     3.892258     3.881078     3.869899     3.858719     3.847540     3.836360     3.825181     3.814002
      3.802822     3.791643     3.780463     3.769284     3.758104     3.746925     3.735745     3.724566     3.713387     3.702207
      3.691028     3.679848     3.668669     3.657489     3.646310     3.635130     3.623951     3.612772     3.601592     3.590413
      3.579233     3.568054     3.556874     3.545695     3.534515     3.523336     3.512156     3.500977     3.489798     3.478618
      3.467439     3.456259     3.445080     3.433900     3.422721     3.411541     3.400362     3.389183     3.378003     3.366824
      3.355644     3.344465     3.333285     3.322106     3.310926     3.299747     3.288568     3.277388     3.266209     3.255029
      3.243850     3.232670     3.221491     3.210311     3.199132     3.187953     3.176773     3.165594     3.154414     3.143235
      3.132055     3.120876     3.109696     3.098517     3.087337     3.076158     3.064979     3.053799     3.042620     3.031440
      3.020261     3.009081     2.997902     2.986722     2.975543     2.964364     2.953184     2.942005     2.930825     2.919646
      2.908466     2.897287     2.886107     2.874928     2.863749     2.852569     2.841390     2.830210     2.819031     2.807851
      2.796672     2.785492     2.774313     2.763134     2.751954     2.740775     2.729595     2.718416     2.707236     2.696057
      2.684877     2.673698     2.662519     2.651339     2.640160     2.628980     2.617801     2.606621     2.595442     2.584262
      2.573083     2.561903     2.550724     2.539545     2.528365     2.517186     2.506006     2.494827     2.483647     2.472468
      2.461288     2.450109     2.438930     2.427750     2.416571     2.405391     2.394212     2.383032     2.371853     2.360673
      2.349494     2.338315     2.327135     2.315956     2.304776     2.293597     2.282417     2.271238     2.260058     2.248879
      2.237700     2.226520     2.215341     2.204161     2.192982     2.181802     2.170623     2.159443     2.148264     2.137084
      2.125905     2.114726     2.103546     2.092367     2.081187     2.070008     2.058828     2.047649     2.036469     2.025290
      2.014111     2.002931     1.991752     1.980572     1.969393     1.958213     1.947034     1.935854     1.924675     1.913496
      1.902316     1.891137     1.879957     1.868778     1.857598     1.846419     1.835239     1.824060     1.812881     1.801701
      1.790522     1.779342     1.768163     1.756983     1.745804     1.734624     1.723445     1.712265     1.701086     1.689907
      1.678727     1.667548     1.656368     1.645189     1.634009     1.622830     1.611650     1.600471     1.589292     1.578112
      1.566933     1.555753     1.544574     1.533394     1.522215     1.511035     1.499856     1.488677     1.477497     1.466318
      1.455138     1.443959     1.432779     1.421600     1.410420     1.399241     1.388062     1.376882     1.365703     1.354523
      1.343344     1.332164     1.320985     1.309805     1.298626     1.287446     1.276267     1.265088     1.253908     1.242729
      1.231549     1.220370     1.209190     1.198011     1.186831     1.175652     1.164473     1.153293     1.142114     1.130934
      1.119755     1.108575     1.097396     1.086216     1.075037     1.063858     1.052678     1.041499     1.030319     1.019140
      1.007960     0.996781     0.985601     0.974422     0.963243     0.952063     0.940884     0.929704     0.918525     0.907345
      0.896166     0.884986     0.873807     0.862628     0.851448     0.840269     0.829089     0.817910     0.806730     0.795551
      0.784371     0.773192     0.762012     0.750833     0.739654     0.728474     0.717295     0.706115     0.694936     0.683756
      0.672577     0.661397     0.650218     0.639039     0.627859     0.616680     0.605500     0.594321     0.583141     0.571962
      0.560782     0.549603     0.538424     0.527244     0.516065     0.504885     0.493706     0.482526     0.471347     0.460167
      0.448988     0.437809     0.426629     0.415450     0.404270     0.393091     0.381911     0.370732     0.359552     0.348373
      0.337193     0.326014     0.314835     0.303655     0.292476     0.281296     0.270117     0.258937     0.247758     0.236578
      0.225399     0.214220     0.203040
 NY phased data points follow
  -1.28012E-09 -2.12939E-09 -9.63219E-10 -1.73418E-09 -1.22529E-09 -1.97644E-09 -1.03785E-09 -1.48656E-09 -1.57208E-09 -2.12128E-09
  -2.00849E-09 -3.06062E-09 -3.03151E-09 -3.61316E-09 -3.34945E-09 -3.49875E-09 -3.12679E-09 -3.17139E-09 -2.48240E-09 -2.34589E-09
  -1.91557E-09 -2.04238E-09 -1.82951E-09 -1.71842E-09 -1.62778E-09 -1.52478E-09 -1.61396E-09 -1.69192E-09 -1.59125E-09 -1.58386E-09
  -1.19255E-09 -1.23574E-09 -1.50664E-09 -1.29301E-09 -1.30120E-09 -9.16192E-10 -8.22951E-10 -8.65914E-10 -6.35494E-10 -6.26150E-10
  -3.15982E-10 -2.29721E-10 -2.67728E-11 -4.01176E-10 -2.00372E-10 -7.31484E-10 -5.89045E-10 -2.33025E-10 -1.56211E-10  7.05957E-10
   6.43900E-10  8.33388E-10  1.30714E-09  1.13486E-09  1.13416E-09  1.26534E-09  1.73822E-09  1.54748E-09  1.91589E-09  1.34102E-09
   1.70717E-09  1.69145E-09  2.07588E-09  1.62999E-09  1.41407E-09  1.38201E-09  1.63775E-09  1.45553E-09  1.44885E-09  1.17015E-09
   1.26456E-09  1.16547E-09  1.32406E-09  6.90116E-10  9.61699E-10  7.54004E-10 -2.27177E-11  2.57767E-10  2.59916E-10  4.24329E-10
   7.75536E-10  6.61706E-10  1.36942E-09  1.11370E-09  1.53667E-09  1.79551E-09  1.53355E-09  1.61119E-09  1.26461E-09  7.28380E-10
   8.84674E-10  2.33699E-10 -2.14125E-10 -2.86745E-10 -3.77414E-10 -6.05747E-11  3.61849E-10  7.42737E-10  1.19440E-09  1.79249E-09
   2.26581E-09  2.84420E-09  2.90559E-09  3.19547E-09  3.89774E-09  3.87219E-09  4.00187E-09  4.21803E-09  3.89676E-09  4.24945E-09
   4.70835E-09  4.62721E-09  4.60857E-09  4.80928E-09  4.63389E-09  4.70865E-09  4.85698E-09  4.50340E-09  4.79567E-09  5.05707E-09
   5.15239E-09  4.67148E-09  4.99167E-09  5.27443E-09  4.62537E-09  4.73329E-09  4.55646E-09  4.68158E-09  3.95928E-09  4.08846E-09
   3.97104E-09  4.09948E-09  3.37180E-09  3.72692E-09  3.46588E-09  3.63287E-09  3.54602E-09  3.58561E-09  3.19363E-09  3.14644E-09
   3.04110E-09  2.73108E-09  2.85171E-09  2.66990E-09  2.57273E-09  2.74590E-09  2.28950E-09  2.28092E-09  1.90398E-09  2.16151E-09
   2.45239E-09  2.10755E-09  1.86057E-09  1.68768E-09  1.61356E-09  2.08721E-09  1.66459E-09  1.69198E-09  2.00018E-09  1.89090E-09
   2.01712E-09  2.67324E-09  2.51437E-09  2.61141E-09  3.05470E-09  3.43989E-09  2.97987E-09  3.93226E-09  3.93311E-09  4.20389E-09
   4.52384E-09  4.12358E-09  4.35641E-09  4.04824E-09  4.18621E-09  4.35473E-09  4.44304E-09  4.69429E-09  5.16706E-09  4.80734E-09
   4.96365E-09  5.07349E-09  5.19337E-09  5.69678E-09  5.57712E-09  6.46054E-09  7.67256E-09  8.98781E-09  1.00090E-08  1.12676E-08
   1.18593E-08  1.26624E-08  1.36664E-08  1.42885E-08  1.50028E-08  1.58502E-08  1.63283E-08  1.63220E-08  1.70533E-08  1.71991E-08
   1.72975E-08  1.77631E-08  1.75686E-08  1.73873E-08  1.75781E-08  1.70567E-08  1.69670E-08  1.66641E-08  1.58311E-08  1.47876E-08
   1.42265E-08  1.28573E-08  1.15575E-08  1.00034E-08  8.18472E-09  5.65317E-09  3.89130E-09  1.32491E-09 -9.42252E-10 -2.81050E-09
  -5.22182E-09 -6.73555E-09 -7.62752E-09 -8.39367E-09 -8.28528E-09 -8.10369E-09 -7.31793E-09 -6.58024E-09 -5.74649E-09 -4.47239E-09
  -4.09485E-09 -3.29441E-09 -2.70306E-09 -1.76294E-09 -1.74095E-09 -1.33365E-09 -8.56945E-10 -8.86861E-10 -6.58978E-10 -5.36440E-10
  -8.03327E-10 -6.40033E-10 -1.09220E-09 -1.22080E-09 -8.97572E-10 -1.35054E-09 -1.26999E-09 -1.58125E-09 -1.02598E-09 -1.08188E-09
  -6.88690E-10 -1.16409E-09 -1.31436E-09 -1.27162E-09 -1.13595E-09 -1.57026E-09 -1.24469E-09 -9.62475E-10 -8.84028E-10 -1.35921E-09
  -9.11697E-10 -1.41179E-09 -1.15042E-09 -1.37035E-09 -1.32799E-09 -1.27160E-09 -1.24518E-09 -1.50665E-09 -1.16632E-09 -1.38214E-09
  -1.24241E-09 -1.21234E-09 -1.00254E-09 -1.06458E-09 -6.94541E-10 -1.37756E-09 -1.20599E-09 -1.94502E-09 -1.50856E-09 -2.01665E-09
  -2.00856E-09 -2.05948E-09 -1.80752E-09 -1.93359E-09 -1.70245E-09 -1.78876E-09 -1.75303E-09 -1.72903E-09 -1.49339E-09 -1.48302E-09
  -1.18766E-09 -1.71169E-09 -8.63386E-10 -1.33306E-09 -8.00345E-10 -1.08419E-09 -6.61235E-10 -1.13912E-09 -7.80807E-10 -1.37862E-09
  -8.19116E-10 -1.46147E-09 -1.30187E-09 -1.71021E-09 -1.40268E-09 -1.80626E-09 -1.39110E-09 -1.87004E-09 -1.18067E-09 -1.79631E-09
  -1.29775E-09 -1.91659E-09 -1.58041E-09 -2.20680E-09 -1.52345E-09 -2.10331E-09 -2.34287E-09 -2.33313E-09 -2.38789E-09 -2.31219E-09
  -2.10871E-09 -2.54997E-09 -2.32103E-09 -2.82314E-09 -2.09518E-09 -2.54931E-09 -1.98527E-09 -2.86853E-09 -2.23086E-09 -3.09809E-09
  -2.15157E-09 -2.90257E-09 -1.88275E-09 -2.83980E-09 -2.41848E-09 -2.71745E-09 -2.53100E-09 -3.12170E-09 -2.34953E-09 -3.21209E-09
  -2.24028E-09 -3.06154E-09 -2.67504E-09 -2.82686E-09 -2.35770E-09 -2.90350E-09 -2.40815E-09 -3.12492E-09 -2.66802E-09 -2.78121E-09
  -2.38267E-09 -2.91996E-09 -2.01050E-09 -3.00564E-09 -2.43774E-09 -2.55003E-09 -2.42514E-09 -2.80969E-09 -2.36603E-09 -2.81248E-09
  -2.24823E-09 -2.85815E-09 -2.22604E-09
 NY points of the fit to the data follow
  -4.47174E-09 -3.60645E-09 -3.16741E-09 -2.76141E-09 -2.28550E-09 -1.94202E-09 -1.86537E-09 -1.95127E-09 -2.09008E-09 -2.23654E-09
  -2.33598E-09 -2.42294E-09 -2.47302E-09 -2.49644E-09 -2.51463E-09 -2.52378E-09 -2.52715E-09 -2.53240E-09 -2.51417E-09 -2.46630E-09
  -2.39669E-09 -2.31581E-09 -2.23127E-09 -2.14606E-09 -2.05924E-09 -1.96860E-09 -1.87524E-09 -1.78705E-09 -1.71619E-09 -1.66771E-09
  -1.61926E-09 -1.57250E-09 -1.50894E-09 -1.42697E-09 -1.33327E-09 -1.23518E-09 -1.13742E-09 -1.04131E-09 -9.45638E-10 -8.48670E-10
  -7.51514E-10 -6.59910E-10 -5.81599E-10 -5.17257E-10 -4.48753E-10 -3.77079E-10 -3.03736E-10 -2.29476E-10 -1.54732E-10 -7.97772E-11
  -4.79339E-12  7.00811E-11  1.44744E-10  2.19110E-10  2.93108E-10  3.66681E-10  4.39776E-10  5.12349E-10  5.84352E-10  6.55752E-10
   7.26512E-10  7.96594E-10  8.65970E-10  9.34604E-10  1.00247E-09  1.06953E-09  1.13576E-09  1.20113E-09  1.26560E-09  1.32915E-09
   1.39173E-09  1.45332E-09  1.51389E-09  1.57337E-09  1.63175E-09  1.68897E-09  1.74499E-09  1.79974E-09  1.85318E-09  1.90523E-09
   1.95581E-09  2.00484E-09  2.05222E-09  2.09784E-09  2.14157E-09  2.18323E-09  2.22265E-09  2.25959E-09  2.29378E-09  2.32487E-09
   2.35241E-09  2.37587E-09  2.39449E-09  2.40732E-09  2.41300E-09  2.40966E-09  2.39456E-09  2.36365E-09  2.31165E-09  2.24457E-09
   2.33522E-09  2.52609E-09  2.66613E-09  2.88298E-09  3.19097E-09  3.53863E-09  3.88018E-09  4.23538E-09  4.54573E-09  4.73836E-09
   4.84541E-09  4.90807E-09  5.03502E-09  5.08652E-09  4.99859E-09  4.94011E-09  4.89645E-09  4.84315E-09  4.78370E-09  4.74863E-09
   4.69328E-09  4.61210E-09  4.55864E-09  4.52228E-09  4.49615E-09  4.47668E-09  4.46179E-09  4.45019E-09  4.44091E-09  4.43329E-09
   4.42684E-09  4.42115E-09  4.41594E-09  4.41095E-09  4.40596E-09  4.40077E-09  4.39529E-09  4.38933E-09  4.38278E-09  4.37551E-09
   4.36744E-09  4.35844E-09  4.34842E-09  4.33725E-09  4.32484E-09  4.31107E-09  4.29580E-09  4.27889E-09  4.26018E-09  4.23950E-09
   4.21662E-09  4.19131E-09  4.16325E-09  4.13211E-09  4.09743E-09  4.05867E-09  4.01515E-09  3.96597E-09  3.90998E-09  3.84561E-09
   3.77071E-09  3.68226E-09  3.57586E-09  3.44496E-09  3.28021E-09  3.07446E-09  2.92820E-09  3.63279E-09  4.85560E-09  6.11698E-09
   7.12987E-09  7.82414E-09  8.27361E-09  8.58973E-09  8.81625E-09  8.84402E-09  8.45907E-09  7.56002E-09  6.45951E-09  5.90356E-09
   5.57844E-09  5.35348E-09  5.18261E-09  5.04498E-09  4.92943E-09  4.82936E-09  4.74059E-09  4.66034E-09  4.58657E-09  4.51789E-09
   4.45326E-09  4.39183E-09  4.33299E-09  4.27625E-09  4.22125E-09  4.16763E-09  4.11513E-09  4.06358E-09  4.01279E-09  3.96257E-09
   3.91284E-09  3.86347E-09  3.81440E-09  3.76552E-09  3.71677E-09  3.66812E-09  3.61951E-09  3.57087E-09  3.52218E-09  3.47345E-09
   3.42458E-09  3.37560E-09  3.32648E-09  3.27718E-09  3.22768E-09  3.17803E-09  3.12816E-09  3.07806E-09  3.02777E-09  2.97723E-09
   2.92648E-09  2.87547E-09  2.82424E-09  2.77276E-09  2.72105E-09  2.66909E-09  2.61689E-09  2.56445E-09  2.51177E-09  2.45886E-09
   2.40570E-09  2.35232E-09  2.29871E-09  2.24487E-09  2.19081E-09  2.13654E-09  2.08204E-09  2.02735E-09  1.97245E-09  1.91735E-09
   1.86207E-09  1.80658E-09  1.75093E-09  1.69509E-09  1.63910E-09  1.58294E-09  1.52663E-09  1.47016E-09  1.41355E-09  1.35682E-09
   1.29994E-09  1.24296E-09  1.18584E-09  1.12865E-09  1.07135E-09  1.01394E-09  9.56457E-10  8.98898E-10  8.41276E-10  7.83596E-10
   7.25862E-10  6.68076E-10  6.10254E-10  5.52395E-10  4.94531E-10  4.36651E-10  3.78750E-10  3.20880E-10  2.63005E-10  2.05148E-10
   1.47325E-10  8.95473E-11  3.17988E-11 -2.58782E-11 -8.35121E-11 -1.41063E-10 -1.98546E-10 -2.55936E-10 -3.13224E-10 -3.70411E-10
  -4.27497E-10 -4.84453E-10 -5.41287E-10 -5.97975E-10 -6.54519E-10 -7.10911E-10 -7.67148E-10 -8.23191E-10 -8.79064E-10 -9.34754E-10
  -9.90235E-10 -1.04552E-09 -1.10058E-09 -1.15543E-09 -1.21004E-09 -1.26441E-09 -1.31854E-09 -1.37241E-09 -1.42602E-09 -1.47935E-09
  -1.53240E-09 -1.58516E-09 -1.63762E-09 -1.68977E-09 -1.74161E-09 -1.79313E-09 -1.84432E-09 -1.89516E-09 -1.94566E-09 -1.99580E-09
  -2.04558E-09 -2.09498E-09 -2.14401E-09 -2.19264E-09 -2.24088E-09 -2.28871E-09 -2.33613E-09 -2.38314E-09 -2.42971E-09 -2.47584E-09
  -2.52153E-09 -2.56677E-09 -2.61155E-09 -2.65586E-09 -2.69969E-09 -2.74305E-09 -2.78591E-09 -2.82827E-09 -2.87013E-09 -2.91147E-09
  -2.95229E-09 -2.99259E-09 -3.03235E-09 -3.07157E-09 -3.11023E-09 -3.14834E-09 -3.18588E-09 -3.22285E-09 -3.25924E-09 -3.29505E-09
  -3.33026E-09 -3.36487E-09 -3.39888E-09 -3.43227E-09 -3.46505E-09 -3.49719E-09 -3.52870E-09 -3.55957E-09 -3.58979E-09 -3.61936E-09
  -3.64827E-09 -3.67651E-09 -3.70408E-09 -3.73097E-09 -3.75718E-09 -3.78270E-09 -3.80751E-09 -3.83162E-09 -3.85503E-09 -3.87771E-09
  -3.89968E-09 -3.92092E-09 -3.94143E-09
 NY background values follow
    -5.889E-09   -5.766E-09   -5.643E-09   -5.521E-09   -5.399E-09   -5.278E-09   -5.157E-09   -5.036E-09   -4.916E-09   -4.797E-09
    -4.678E-09   -4.559E-09   -4.442E-09   -4.324E-09   -4.207E-09   -4.091E-09   -3.976E-09   -3.860E-09   -3.746E-09   -3.632E-09
    -3.519E-09   -3.406E-09   -3.294E-09   -3.182E-09   -3.071E-09   -2.961E-09   -2.851E-09   -2.742E-09   -2.634E-09   -2.526E-09
    -2.419E-09   -2.313E-09   -2.207E-09   -2.102E-09   -1.998E-09   -1.895E-09   -1.792E-09   -1.690E-09   -1.588E-09   -1.487E-09
    -1.387E-09   -1.288E-09   -1.190E-09   -1.092E-09   -9.948E-10   -8.986E-10   -8.031E-10   -7.084E-10   -6.145E-10   -5.214E-10
    -4.290E-10   -3.374E-10   -2.467E-10   -1.567E-10   -6.758E-11    2.075E-11    1.083E-10    1.950E-10    2.808E-10    3.659E-10
     4.501E-10    5.334E-10    6.159E-10    6.976E-10    7.784E-10    8.584E-10    9.374E-10    1.016E-09    1.093E-09    1.170E-09
     1.245E-09    1.320E-09    1.394E-09    1.467E-09    1.539E-09    1.610E-09    1.680E-09    1.750E-09    1.818E-09    1.886E-09
     1.952E-09    2.018E-09    2.083E-09    2.147E-09    2.210E-09    2.272E-09    2.333E-09    2.393E-09    2.453E-09    2.511E-09
     2.569E-09    2.625E-09    2.681E-09    2.736E-09    2.789E-09    2.842E-09    2.894E-09    2.945E-09    2.995E-09    3.044E-09
     3.092E-09    3.140E-09    3.186E-09    3.231E-09    3.275E-09    3.319E-09    3.361E-09    3.403E-09    3.444E-09    3.483E-09
     3.522E-09    3.560E-09    3.597E-09    3.633E-09    3.668E-09    3.702E-09    3.735E-09    3.767E-09    3.798E-09    3.828E-09
     3.858E-09    3.886E-09    3.914E-09    3.940E-09    3.966E-09    3.990E-09    4.014E-09    4.037E-09    4.059E-09    4.080E-09
     4.100E-09    4.119E-09    4.137E-09    4.155E-09    4.171E-09    4.187E-09    4.201E-09    4.215E-09    4.228E-09    4.240E-09
     4.251E-09    4.261E-09    4.270E-09    4.279E-09    4.286E-09    4.293E-09    4.298E-09    4.303E-09    4.307E-09    4.310E-09
     4.312E-09    4.314E-09    4.314E-09    4.314E-09    4.313E-09    4.311E-09    4.308E-09    4.304E-09    4.300E-09    4.294E-09
     4.288E-09    4.281E-09    4.273E-09    4.265E-09    4.255E-09    4.245E-09    4.234E-09    4.223E-09    4.210E-09    4.197E-09
     4.182E-09    4.168E-09    4.152E-09    4.136E-09    4.118E-09    4.101E-09    4.082E-09    4.062E-09    4.042E-09    4.022E-09
     4.000E-09    3.978E-09    3.955E-09    3.931E-09    3.907E-09    3.882E-09    3.856E-09    3.830E-09    3.803E-09    3.775E-09
     3.746E-09    3.717E-09    3.688E-09    3.657E-09    3.627E-09    3.595E-09    3.563E-09    3.530E-09    3.497E-09    3.463E-09
     3.428E-09    3.393E-09    3.357E-09    3.321E-09    3.284E-09    3.247E-09    3.209E-09    3.170E-09    3.131E-09    3.092E-09
     3.052E-09    3.011E-09    2.970E-09    2.929E-09    2.887E-09    2.844E-09    2.801E-09    2.758E-09    2.714E-09    2.670E-09
     2.625E-09    2.580E-09    2.534E-09    2.488E-09    2.442E-09    2.395E-09    2.348E-09    2.300E-09    2.253E-09    2.204E-09
     2.156E-09    2.107E-09    2.057E-09    2.008E-09    1.958E-09    1.907E-09    1.857E-09    1.806E-09    1.755E-09    1.703E-09
     1.652E-09    1.600E-09    1.548E-09    1.495E-09    1.442E-09    1.390E-09    1.336E-09    1.283E-09    1.230E-09    1.176E-09
     1.122E-09    1.068E-09    1.014E-09    9.593E-10    9.048E-10    8.501E-10    7.953E-10    7.404E-10    6.854E-10    6.303E-10
     5.751E-10    5.198E-10    4.644E-10    4.090E-10    3.535E-10    2.980E-10    2.424E-10    1.869E-10    1.313E-10    7.565E-11
     2.004E-11   -3.556E-11   -9.115E-11   -1.467E-10   -2.022E-10   -2.577E-10   -3.131E-10   -3.685E-10   -4.238E-10   -4.790E-10
    -5.341E-10   -5.891E-10   -6.441E-10   -6.989E-10   -7.535E-10   -8.081E-10   -8.625E-10   -9.167E-10   -9.708E-10   -1.025E-09
    -1.078E-09   -1.132E-09   -1.185E-09   -1.238E-09   -1.291E-09   -1.344E-09   -1.397E-09   -1.449E-09   -1.501E-09   -1.553E-09
    -1.604E-09   -1.655E-09   -1.706E-09   -1.757E-09   -1.807E-09   -1.857E-09   -1.907E-09   -1.956E-09   -2.005E-09   -2.054E-09
    -2.102E-09   -2.150E-09   -2.198E-09   -2.245E-09   -2.292E-09   -2.338E-09   -2.384E-09   -2.430E-09   -2.475E-09   -2.520E-09
    -2.564E-09   -2.608E-09   -2.652E-09   -2.695E-09   -2.737E-09   -2.779E-09   -2.821E-09   -2.862E-09   -2.902E-09   -2.943E-09
    -2.982E-09   -3.021E-09   -3.060E-09   -3.098E-09   -3.135E-09   -3.172E-09   -3.209E-09   -3.244E-09   -3.280E-09   -3.314E-09
    -3.348E-09   -3.382E-09   -3.415E-09   -3.447E-09   -3.479E-09   -3.510E-09   -3.540E-09   -3.570E-09   -3.599E-09   -3.628E-09
    -3.655E-09   -3.683E-09   -3.709E-09   -3.735E-09   -3.760E-09   -3.785E-09   -3.809E-09   -3.832E-09   -3.854E-09   -3.876E-09
    -3.897E-09   -3.917E-09   -3.937E-09
 Ala      Conc. = 3.74E-10
  -6.18666E-09 -6.03379E-09 -5.87732E-09 -5.71805E-09 -5.55515E-09 -5.38865E-09 -5.21785E-09 -5.06031E-09 -4.92140E-09 -4.76832E-09
  -4.62305E-09 -4.51019E-09 -4.39221E-09 -4.27081E-09 -4.16116E-09 -4.05421E-09 -3.94737E-09 -3.84031E-09 -3.73303E-09 -3.62563E-09
  -3.51823E-09 -3.41092E-09 -3.30378E-09 -3.19689E-09 -3.09031E-09 -2.98408E-09 -2.87826E-09 -2.77289E-09 -2.66799E-09 -2.56360E-09
  -2.45974E-09 -2.35645E-09 -2.25373E-09 -2.15162E-09 -2.05012E-09 -1.94927E-09 -1.84906E-09 -1.74952E-09 -1.65067E-09 -1.55252E-09
  -1.45507E-09 -1.35834E-09 -1.26236E-09 -1.16711E-09 -1.07262E-09 -9.78902E-10 -8.85963E-10 -7.93811E-10 -7.02459E-10 -6.11920E-10
  -5.22200E-10 -4.33312E-10 -3.45264E-10 -2.58069E-10 -1.71737E-10 -8.62770E-11 -1.70113E-12  8.19810E-11  1.64755E-10  2.46613E-10
   3.27541E-10  4.07527E-10  4.86558E-10  5.64620E-10  6.41703E-10  7.17786E-10  7.92857E-10  8.66896E-10  9.39887E-10  1.01181E-09
   1.08265E-09  1.15237E-09  1.22096E-09  1.28838E-09  1.35461E-09  1.41961E-09  1.48334E-09  1.54576E-09  1.60683E-09  1.66649E-09
   1.72467E-09  1.78130E-09  1.83630E-09  1.88956E-09  1.94098E-09  1.99041E-09  2.03768E-09  2.08259E-09  2.12487E-09  2.16423E-09
   2.20024E-09  2.23240E-09  2.26001E-09  2.28217E-09  2.29760E-09  2.30449E-09  2.30022E-09  2.28086E-09  2.24130E-09  2.18778E-09
   2.29340E-09  2.50103E-09  2.66023E-09  2.89948E-09  3.23437E-09  3.61503E-09  3.99268E-09  4.33276E-09  4.60173E-09  4.76335E-09
   4.80405E-09  4.77114E-09  4.79265E-09  4.74394E-09  4.57016E-09  4.44880E-09  4.37503E-09  4.32819E-09  4.29796E-09  4.27877E-09
   4.26718E-09  4.26107E-09  4.25894E-09  4.25976E-09  4.26277E-09  4.26738E-09  4.27315E-09  4.27978E-09  4.28695E-09  4.29447E-09
   4.30216E-09  4.30985E-09  4.31746E-09  4.32485E-09  4.33195E-09  4.33865E-09  4.34496E-09  4.35075E-09  4.35602E-09  4.36067E-09
   4.36472E-09  4.36810E-09  4.37079E-09  4.37273E-09  4.37392E-09  4.37432E-09  4.37390E-09  4.37263E-09  4.37046E-09  4.36738E-09
   4.36334E-09  4.35830E-09  4.35219E-09  4.34498E-09  4.33657E-09  4.32688E-09  4.31582E-09  4.30321E-09  4.28891E-09  4.27264E-09
   4.25407E-09  4.23273E-09  4.20793E-09  4.17865E-09  4.14340E-09  4.10089E-09  4.06362E-09  4.16145E-09  4.34683E-09  4.54101E-09
   4.69538E-09  4.79699E-09  4.85716E-09  4.89419E-09  4.91623E-09  4.90673E-09  4.83094E-09  4.67019E-09  4.47110E-09  4.35868E-09
   4.28573E-09  4.22922E-09  4.18121E-09  4.13817E-09  4.09824E-09  4.06030E-09  4.02367E-09  3.98792E-09  3.95267E-09  3.91771E-09
   3.88290E-09  3.84807E-09  3.81314E-09  3.77802E-09  3.74270E-09  3.70709E-09  3.67113E-09  3.63486E-09  3.59823E-09  3.56118E-09
   3.52373E-09  3.48587E-09  3.44760E-09  3.40889E-09  3.36973E-09  3.33016E-09  3.29013E-09  3.24966E-09  3.20874E-09  3.16741E-09
   3.12560E-09  3.08338E-09  3.04073E-09  2.99764E-09  2.95409E-09  2.91016E-09  2.86581E-09  2.82102E-09  2.77585E-09  2.73026E-09
   2.68429E-09  2.63791E-09  2.59116E-09  2.54402E-09  2.49653E-09  2.44866E-09  2.40043E-09  2.35185E-09  2.30293E-09  2.25368E-09
   2.20409E-09  2.15418E-09  2.10395E-09  2.05342E-09  2.00259E-09  1.95147E-09  1.90006E-09  1.84838E-09  1.79642E-09  1.74421E-09
   1.69176E-09  1.63904E-09  1.58610E-09  1.53293E-09  1.47954E-09  1.42594E-09  1.37214E-09  1.31814E-09  1.26396E-09  1.20960E-09
   1.15507E-09  1.10038E-09  1.04552E-09  9.90553E-10  9.35441E-10  8.80190E-10  8.24826E-10  7.69355E-10  7.13789E-10  6.58135E-10
   6.02398E-10  5.46579E-10  4.90697E-10  4.34750E-10  3.78772E-10  3.22753E-10  2.66688E-10  2.10629E-10  1.54542E-10  9.84502E-11
   4.23689E-11 -1.36877E-11 -6.97368E-11 -1.25735E-10 -1.81711E-10 -2.37623E-10 -2.93487E-10 -3.49276E-10 -4.04982E-10 -4.60605E-10
  -5.16144E-10 -5.71571E-10 -6.26891E-10 -6.82082E-10 -7.37146E-10 -7.92073E-10 -8.46860E-10 -9.01469E-10 -9.55922E-10 -1.01021E-09
  -1.06430E-09 -1.11820E-09 -1.17190E-09 -1.22540E-09 -1.27868E-09 -1.33172E-09 -1.38454E-09 -1.43711E-09 -1.48943E-09 -1.54148E-09
  -1.59327E-09 -1.64478E-09 -1.69600E-09 -1.74692E-09 -1.79754E-09 -1.84785E-09 -1.89784E-09 -1.94749E-09 -1.99681E-09 -2.04579E-09
  -2.09441E-09 -2.14267E-09 -2.19055E-09 -2.23806E-09 -2.28518E-09 -2.33190E-09 -2.37822E-09 -2.42413E-09 -2.46962E-09 -2.51468E-09
  -2.55930E-09 -2.60349E-09 -2.64721E-09 -2.69048E-09 -2.73329E-09 -2.77562E-09 -2.81746E-09 -2.85881E-09 -2.89967E-09 -2.94002E-09
  -2.97985E-09 -3.01916E-09 -3.05795E-09 -3.09621E-09 -3.13391E-09 -3.17107E-09 -3.20767E-09 -3.24370E-09 -3.27916E-09 -3.31405E-09
  -3.34834E-09 -3.38205E-09 -3.41515E-09 -3.44764E-09 -3.47953E-09 -3.51079E-09 -3.54142E-09 -3.57142E-09 -3.60078E-09 -3.62948E-09
  -3.65754E-09 -3.68493E-09 -3.71166E-09 -3.73772E-09 -3.76309E-09 -3.78779E-09 -3.81178E-09 -3.83508E-09 -3.85768E-09 -3.87956E-09
  -3.90074E-09 -3.92119E-09 -3.94090E-09
 Lac      Conc. = 1.13E-10
  -5.87118E-09 -5.75080E-09 -5.63060E-09 -5.51059E-09 -5.39079E-09 -5.27127E-09 -5.15203E-09 -5.03314E-09 -4.91461E-09 -4.79647E-09
  -4.67876E-09 -4.56148E-09 -4.44467E-09 -4.32832E-09 -4.21247E-09 -4.09712E-09 -3.98228E-09 -3.86799E-09 -3.75423E-09 -3.64103E-09
  -3.52840E-09 -3.41634E-09 -3.30488E-09 -3.19401E-09 -3.08374E-09 -2.97409E-09 -2.86506E-09 -2.75668E-09 -2.64893E-09 -2.54183E-09
  -2.43539E-09 -2.32962E-09 -2.22452E-09 -2.12011E-09 -2.01638E-09 -1.91336E-09 -1.81104E-09 -1.70943E-09 -1.60854E-09 -1.50838E-09
  -1.40895E-09 -1.31025E-09 -1.21231E-09 -1.11512E-09 -1.01869E-09 -9.23027E-10 -8.28138E-10 -7.34025E-10 -6.40699E-10 -5.48165E-10
  -4.56428E-10 -3.65496E-10 -2.75373E-10 -1.86066E-10 -9.75815E-11 -9.92374E-12  7.69004E-11  1.62887E-10  2.48025E-10  3.32315E-10
   4.15749E-10  4.98318E-10  5.80022E-10  6.60850E-10  7.40802E-10  8.19867E-10  8.98042E-10  9.75317E-10  1.05169E-09  1.12716E-09
   1.20170E-09  1.27533E-09  1.34803E-09  1.41979E-09  1.49061E-09  1.56048E-09  1.62939E-09  1.69734E-09  1.76432E-09  1.83031E-09
   1.89530E-09  1.95929E-09  2.02226E-09  2.08420E-09  2.14510E-09  2.20494E-09  2.26370E-09  2.32136E-09  2.37789E-09  2.43327E-09
   2.48747E-09  2.54045E-09  2.59216E-09  2.64256E-09  2.69158E-09  2.73912E-09  2.78510E-09  2.82939E-09  2.87182E-09  2.91218E-09
   2.95017E-09  2.98540E-09  3.01728E-09  3.04498E-09  3.06723E-09  3.08242E-09  3.09357E-09  3.15502E-09  3.24178E-09  3.31723E-09
   3.42711E-09  3.56528E-09  3.71240E-09  3.85337E-09  3.97907E-09  4.08091E-09  4.14908E-09  4.17979E-09  4.18685E-09  4.20639E-09
   4.19716E-09  4.15576E-09  4.13724E-09  4.13204E-09  4.13405E-09  4.14029E-09  4.14911E-09  4.15959E-09  4.17103E-09  4.18302E-09
   4.19525E-09  4.20749E-09  4.21958E-09  4.23139E-09  4.24281E-09  4.25374E-09  4.26418E-09  4.27401E-09  4.28323E-09  4.29176E-09
   4.29962E-09  4.30676E-09  4.31317E-09  4.31880E-09  4.32366E-09  4.32774E-09  4.33100E-09  4.33346E-09  4.33507E-09  4.33585E-09
   4.33577E-09  4.33482E-09  4.33299E-09  4.33025E-09  4.32658E-09  4.32196E-09  4.31636E-09  4.30973E-09  4.30203E-09  4.29319E-09
   4.28308E-09  4.27160E-09  4.25851E-09  4.24355E-09  4.22625E-09  4.20622E-09  4.18683E-09  4.20714E-09  4.25395E-09  4.30340E-09
   4.34049E-09  4.36106E-09  4.36844E-09  4.36815E-09  4.36281E-09  4.34758E-09  4.31201E-09  4.25020E-09  4.17567E-09  4.12642E-09
   4.08904E-09  4.05627E-09  4.02559E-09  3.99598E-09  3.96682E-09  3.93780E-09  3.90871E-09  3.87944E-09  3.84983E-09  3.81986E-09
   3.78950E-09  3.75866E-09  3.72735E-09  3.69553E-09  3.66324E-09  3.63041E-09  3.59704E-09  3.56317E-09  3.52878E-09  3.49384E-09
   3.45837E-09  3.42237E-09  3.38586E-09  3.34881E-09  3.31123E-09  3.27317E-09  3.23458E-09  3.19548E-09  3.15586E-09  3.11579E-09
   3.07519E-09  3.03412E-09  2.99258E-09  2.95057E-09  2.90806E-09  2.86512E-09  2.82174E-09  2.77788E-09  2.73361E-09  2.68891E-09
   2.64378E-09  2.59823E-09  2.55228E-09  2.50592E-09  2.45918E-09  2.41205E-09  2.36454E-09  2.31666E-09  2.26842E-09  2.21983E-09
