 LCModel (Version 6.3-1R) Copyright: S.W. Provencher.          Ref.: Magn. Reson. Med. 30:672-679 (1993).                
 onepulse 10x23_ftSpec_smooth_lcm
 26 lines in following concentration table = NCONC+1
    Conc.  %SD   /Cr    Metabolite                                         
    0.000 999%   0.000 Ala                                                 
    0.000 999%   0.000 Asp                                                 
    0.000 999%   0.000 Cr                                                  
    0.000 999%   0.000 GABA                                                
    0.000 999%   0.000 Glc                                                 
    0.000 999%   0.000 Gln                                                 
    0.000 999%   0.000 Glu                                                 
    0.000 999%   0.000 Glyc                                                
    0.000 999%   0.000 GPC                                                 
    0.000 999%   0.000 GSH                                                 
    0.000 999%   0.000 Ins                                                 
    0.000 999%   0.000 Lac                                                 
    0.000 999%   0.000 NAAG                                                
    0.000 999%   0.000 NAA                                                 
    0.000 999%   0.000 PCh                                                 
    0.000 999%   0.000 PCr                                                 
    0.000 999%   0.000 PE                                                  
    0.000 999%   0.000 Scyllo                                              
    0.000 999%   0.000 Ser                                                 
    0.000 999%   0.000 Tau                                                 
    0.000 999%   0.000 GPC+PCh                                             
    0.000 999%   0.000 NAA+NAAG                                            
    0.000 999%   0.000 Ins+Glyc                                            
    0.000 999%   0.000 Cr+PCr                                              
    0.000 999%   0.000 Glu+Gln                                             
   6 lines in following misc. output table
  FWHM = 0.089 ppm    S/N =   0                                            
  Data shift = 0.324 ppm                                                   
  Ph: -46 deg      35.5 deg/ppm                                            
  alphaB,S = 1.1E+00,   4.0E-01                                            
    8 spline knots.   Ns = 5(1)                                            
   2 inflections.     1 extrema                                            
  363 points on ppm-axis = NY
      4.250000     4.238821     4.227641     4.216462     4.205282     4.194103     4.182923     4.171744     4.160564     4.149385
      4.138206     4.127026     4.115847     4.104667     4.093488     4.082308     4.071129     4.059949     4.048770     4.037591
      4.026411     4.015232     4.004052     3.992873     3.981693     3.970514     3.959334     3.948155     3.936975     3.925796
      3.914617     3.903437     3.892258     3.881078     3.869899     3.858719     3.847540     3.836360     3.825181     3.814002
      3.802822     3.791643     3.780463     3.769284     3.758104     3.746925     3.735745     3.724566     3.713387     3.702207
      3.691028     3.679848     3.668669     3.657489     3.646310     3.635130     3.623951     3.612772     3.601592     3.590413
      3.579233     3.568054     3.556874     3.545695     3.534515     3.523336     3.512156     3.500977     3.489798     3.478618
      3.467439     3.456259     3.445080     3.433900     3.422721     3.411541     3.400362     3.389183     3.378003     3.366824
      3.355644     3.344465     3.333285     3.322106     3.310926     3.299747     3.288568     3.277388     3.266209     3.255029
      3.243850     3.232670     3.221491     3.210311     3.199132     3.187953     3.176773     3.165594     3.154414     3.143235
      3.132055     3.120876     3.109696     3.098517     3.087337     3.076158     3.064979     3.053799     3.042620     3.031440
      3.020261     3.009081     2.997902     2.986722     2.975543     2.964364     2.953184     2.942005     2.930825     2.919646
      2.908466     2.897287     2.886107     2.874928     2.863749     2.852569     2.841390     2.830210     2.819031     2.807851
      2.796672     2.785492     2.774313     2.763134     2.751954     2.740775     2.729595     2.718416     2.707236     2.696057
      2.684877     2.673698     2.662519     2.651339     2.640160     2.628980     2.617801     2.606621     2.595442     2.584262
      2.573083     2.561903     2.550724     2.539545     2.528365     2.517186     2.506006     2.494827     2.483647     2.472468
      2.461288     2.450109     2.438930     2.427750     2.416571     2.405391     2.394212     2.383032     2.371853     2.360673
      2.349494     2.338315     2.327135     2.315956     2.304776     2.293597     2.282417     2.271238     2.260058     2.248879
      2.237700     2.226520     2.215341     2.204161     2.192982     2.181802     2.170623     2.159443     2.148264     2.137084
      2.125905     2.114726     2.103546     2.092367     2.081187     2.070008     2.058828     2.047649     2.036469     2.025290
      2.014111     2.002931     1.991752     1.980572     1.969393     1.958213     1.947034     1.935854     1.924675     1.913496
      1.902316     1.891137     1.879957     1.868778     1.857598     1.846419     1.835239     1.824060     1.812881     1.801701
      1.790522     1.779342     1.768163     1.756983     1.745804     1.734624     1.723445     1.712265     1.701086     1.689907
      1.678727     1.667548     1.656368     1.645189     1.634009     1.622830     1.611650     1.600471     1.589292     1.578112
      1.566933     1.555753     1.544574     1.533394     1.522215     1.511035     1.499856     1.488677     1.477497     1.466318
      1.455138     1.443959     1.432779     1.421600     1.410420     1.399241     1.388062     1.376882     1.365703     1.354523
      1.343344     1.332164     1.320985     1.309805     1.298626     1.287446     1.276267     1.265088     1.253908     1.242729
      1.231549     1.220370     1.209190     1.198011     1.186831     1.175652     1.164473     1.153293     1.142114     1.130934
      1.119755     1.108575     1.097396     1.086216     1.075037     1.063858     1.052678     1.041499     1.030319     1.019140
      1.007960     0.996781     0.985601     0.974422     0.963243     0.952063     0.940884     0.929704     0.918525     0.907345
      0.896166     0.884986     0.873807     0.862628     0.851448     0.840269     0.829089     0.817910     0.806730     0.795551
      0.784371     0.773192     0.762012     0.750833     0.739654     0.728474     0.717295     0.706115     0.694936     0.683756
      0.672577     0.661397     0.650218     0.639039     0.627859     0.616680     0.605500     0.594321     0.583141     0.571962
      0.560782     0.549603     0.538424     0.527244     0.516065     0.504885     0.493706     0.482526     0.471347     0.460167
      0.448988     0.437809     0.426629     0.415450     0.404270     0.393091     0.381911     0.370732     0.359552     0.348373
      0.337193     0.326014     0.314835     0.303655     0.292476     0.281296     0.270117     0.258937     0.247758     0.236578
      0.225399     0.214220     0.203040
 NY phased data points follow
   9.05009E-10  6.92727E-10  1.17806E-09  3.11916E-10  4.10555E-10 -1.06048E-10 -5.02601E-10 -1.12815E-09 -1.23632E-09 -1.61697E-09
  -1.42373E-09 -1.61967E-09 -1.68247E-09 -1.73306E-09 -1.75384E-09 -1.70008E-09 -1.70846E-09 -1.76971E-09 -1.86074E-09 -2.35007E-09
  -2.18874E-09 -2.02334E-09 -2.19186E-09 -2.38261E-09 -2.63428E-09 -2.58960E-09 -2.66336E-09 -2.95750E-09 -2.92474E-09 -3.31689E-09
  -3.36614E-09 -3.30646E-09 -2.75963E-09 -3.20254E-09 -2.81124E-09 -3.19943E-09 -3.46793E-09 -3.87638E-09 -4.53062E-09 -4.28816E-09
  -4.41674E-09 -4.80013E-09 -4.59274E-09 -4.54348E-09 -4.65643E-09 -4.95999E-09 -4.59098E-09 -4.87596E-09 -4.34346E-09 -4.63108E-09
  -4.57949E-09 -4.77336E-09 -4.12859E-09 -4.12094E-09 -3.95624E-09 -4.27942E-09 -3.96739E-09 -4.02249E-09 -3.60795E-09 -3.81428E-09
  -3.76640E-09 -3.71541E-09 -3.20010E-09 -3.67736E-09 -2.96178E-09 -2.99188E-09 -3.24009E-09 -3.49188E-09 -3.94405E-09 -4.31803E-09
  -4.38750E-09 -4.79527E-09 -4.42905E-09 -4.79276E-09 -4.54739E-09 -4.40265E-09 -4.16772E-09 -3.72747E-09 -3.24870E-09 -3.32465E-09
  -2.64590E-09 -2.83248E-09 -2.93249E-09 -3.58921E-09 -4.05273E-09 -4.80777E-09 -5.10563E-09 -5.92539E-09 -6.09914E-09 -6.59099E-09
  -6.67858E-09 -6.81983E-09 -6.90631E-09 -7.51565E-09 -6.93928E-09 -7.21501E-09 -6.77589E-09 -6.81667E-09 -6.93590E-09 -7.20232E-09
  -6.90567E-09 -7.10074E-09 -6.83458E-09 -6.73024E-09 -6.59122E-09 -6.55816E-09 -6.21850E-09 -6.80491E-09 -6.69805E-09 -6.75210E-09
  -5.86757E-09 -6.70920E-09 -6.01042E-09 -5.71680E-09 -5.53754E-09 -5.45600E-09 -5.13508E-09 -4.92714E-09 -4.67643E-09 -4.74568E-09
  -4.36598E-09 -4.17962E-09 -4.34701E-09 -4.22768E-09 -4.24221E-09 -4.33457E-09 -4.09930E-09 -3.80893E-09 -3.77013E-09 -3.66149E-09
  -3.33806E-09 -3.70471E-09 -3.31744E-09 -3.56723E-09 -3.39797E-09 -3.26974E-09 -3.11482E-09 -3.26716E-09 -3.40088E-09 -3.64286E-09
  -2.94634E-09 -3.18609E-09 -3.02139E-09 -3.27153E-09 -3.50069E-09 -3.45284E-09 -3.61664E-09 -4.07808E-09 -3.73278E-09 -4.66379E-09
  -4.70190E-09 -4.78968E-09 -5.04598E-09 -5.70490E-09 -5.31690E-09 -5.60305E-09 -6.30327E-09 -6.07578E-09 -6.36472E-09 -6.22770E-09
  -6.07954E-09 -6.27573E-09 -6.19291E-09 -6.62614E-09 -6.71689E-09 -6.90477E-09 -7.14594E-09 -7.68049E-09 -7.12155E-09 -7.81588E-09
  -7.75517E-09 -8.45416E-09 -8.69578E-09 -9.44539E-09 -1.06277E-08 -1.19305E-08 -1.24704E-08 -1.30196E-08 -1.32038E-08 -1.32232E-08
  -1.32879E-08 -1.36450E-08 -1.32320E-08 -1.33881E-08 -1.32030E-08 -1.28100E-08 -1.24124E-08 -1.25249E-08 -1.18172E-08 -1.15099E-08
  -1.10145E-08 -1.02084E-08 -9.54334E-09 -9.06787E-09 -7.61845E-09 -6.95250E-09 -5.09861E-09 -3.41937E-09 -1.69534E-09  3.35654E-12
   2.36243E-09  4.48739E-09  6.78403E-09  9.32315E-09  1.18181E-08  1.31069E-08  1.53961E-08  1.59501E-08  1.68126E-08  1.70080E-08
   1.60597E-08  1.48156E-08  1.33624E-08  1.12004E-08  9.46381E-09  7.36071E-09  6.24694E-09  4.60624E-09  3.65239E-09  3.02398E-09
   2.41672E-09  1.84541E-09  1.78349E-09  1.92496E-09  1.59496E-09  1.66994E-09  2.00513E-09  1.65760E-09  1.93902E-09  2.18557E-09
   2.00149E-09  2.40286E-09  2.00770E-09  2.12293E-09  2.32997E-09  2.15893E-09  2.16239E-09  1.66661E-09  1.85532E-09  1.77118E-09
   2.18269E-09  1.86047E-09  1.76665E-09  1.62073E-09  1.87975E-09  1.24744E-09  1.34433E-09  1.64073E-09  1.92724E-09  1.69365E-09
   1.98103E-09  1.53757E-09  1.72325E-09  1.35763E-09  1.25062E-09  1.25633E-09  1.29992E-09  1.15854E-09  1.27568E-09  9.28573E-10
   9.14616E-10  1.02006E-09  1.11474E-09  1.08706E-09  1.77164E-09  1.72595E-09  1.96944E-09  1.52751E-09  1.92912E-09  1.33058E-09
   1.29173E-09  1.09072E-09  1.14651E-09  6.54641E-10  7.54908E-10  5.61032E-10  3.89719E-10  4.30102E-10  1.70600E-10  5.79504E-10
   3.25208E-10  1.66167E-10  4.55142E-10  2.26369E-10  5.13925E-10  4.17545E-10  7.35090E-10  8.39827E-10  8.02954E-10  8.27210E-10
   1.22095E-09  9.19860E-10  1.26642E-09  7.50416E-10  9.73532E-10  9.14254E-10  7.33315E-10  7.61978E-10  8.97215E-10  8.33382E-10
   1.29957E-09  8.78509E-10  1.25804E-09  7.48473E-10  1.23710E-09  9.38620E-10  9.11151E-10  8.94657E-10  7.34193E-10  8.48936E-10
   5.31397E-10  5.77493E-10  4.71469E-10  4.07708E-10  3.61631E-10  3.96028E-10  5.56018E-10  5.48873E-11  2.28581E-10  1.58272E-10
   2.72466E-11 -8.40123E-11  4.76389E-10 -2.19763E-10  8.40639E-11  8.04925E-11 -1.80670E-10 -3.42995E-10 -1.46021E-10 -4.03368E-10
  -1.10296E-10 -6.70686E-10 -6.89322E-10 -7.07296E-10 -5.45266E-10 -5.79471E-10 -4.59479E-10 -9.04285E-10 -9.17664E-10 -8.49001E-10
  -1.01566E-09 -1.22865E-09 -7.42344E-10 -1.38343E-09 -1.10965E-09 -1.16669E-09 -1.11073E-09 -1.31570E-09 -1.34002E-09 -1.52931E-09
  -1.34763E-09 -1.65851E-09 -1.38188E-09 -1.62070E-09 -1.75157E-09 -1.99808E-09 -1.53051E-09 -1.55117E-09 -1.44829E-09 -2.11577E-09
  -1.75449E-09 -2.15575E-09 -2.04849E-09
 NY points of the fit to the data follow
  -1.70734E-09 -1.75394E-09 -1.80050E-09 -1.84702E-09 -1.89349E-09 -1.93991E-09 -1.98628E-09 -2.03257E-09 -2.07880E-09 -2.12496E-09
  -2.17103E-09 -2.21701E-09 -2.26290E-09 -2.30868E-09 -2.35437E-09 -2.39994E-09 -2.44540E-09 -2.49073E-09 -2.53593E-09 -2.58100E-09
  -2.62592E-09 -2.67070E-09 -2.71533E-09 -2.75980E-09 -2.80411E-09 -2.84825E-09 -2.89221E-09 -2.93599E-09 -2.97958E-09 -3.02298E-09
  -3.06617E-09 -3.10917E-09 -3.15195E-09 -3.19452E-09 -3.23686E-09 -3.27897E-09 -3.32085E-09 -3.36249E-09 -3.40389E-09 -3.44503E-09
  -3.48591E-09 -3.52653E-09 -3.56688E-09 -3.60696E-09 -3.64675E-09 -3.68626E-09 -3.72547E-09 -3.76439E-09 -3.80300E-09 -3.84130E-09
  -3.87928E-09 -3.91694E-09 -3.95428E-09 -3.99127E-09 -4.02793E-09 -4.06424E-09 -4.10020E-09 -4.13580E-09 -4.17105E-09 -4.20592E-09
  -4.24041E-09 -4.27453E-09 -4.30825E-09 -4.34159E-09 -4.37452E-09 -4.40706E-09 -4.43918E-09 -4.47089E-09 -4.50217E-09 -4.53303E-09
  -4.56345E-09 -4.59344E-09 -4.62297E-09 -4.65206E-09 -4.68068E-09 -4.70883E-09 -4.73650E-09 -4.76366E-09 -4.79030E-09 -4.81642E-09
  -4.84200E-09 -4.86702E-09 -4.89148E-09 -4.91535E-09 -4.93863E-09 -4.96131E-09 -4.98336E-09 -5.00478E-09 -5.02555E-09 -5.04566E-09
  -5.06510E-09 -5.08386E-09 -5.10191E-09 -5.11925E-09 -5.13586E-09 -5.15173E-09 -5.16685E-09 -5.18121E-09 -5.19478E-09 -5.20756E-09
  -5.21954E-09 -5.23070E-09 -5.24102E-09 -5.25050E-09 -5.25912E-09 -5.26687E-09 -5.27373E-09 -5.27970E-09 -5.28475E-09 -5.28888E-09
  -5.29207E-09 -5.29431E-09 -5.29558E-09 -5.29587E-09 -5.29518E-09 -5.29347E-09 -5.29076E-09 -5.28701E-09 -5.28222E-09 -5.27637E-09
  -5.26945E-09 -5.26144E-09 -5.25234E-09 -5.24213E-09 -5.23079E-09 -5.21832E-09 -5.20470E-09 -5.18991E-09 -5.17395E-09 -5.15680E-09
  -5.13845E-09 -5.11887E-09 -5.09807E-09 -5.07603E-09 -5.05273E-09 -5.02816E-09 -5.00232E-09 -4.97517E-09 -4.94672E-09 -4.91694E-09
  -4.88583E-09 -4.85337E-09 -4.81954E-09 -4.78435E-09 -4.74777E-09 -4.70978E-09 -4.67040E-09 -4.62964E-09 -4.58754E-09 -4.54414E-09
  -4.49947E-09 -4.45356E-09 -4.40645E-09 -4.35817E-09 -4.30875E-09 -4.25823E-09 -4.20665E-09 -4.15402E-09 -4.10040E-09 -4.04582E-09
  -3.99029E-09 -3.93387E-09 -3.87657E-09 -3.81845E-09 -3.75953E-09 -3.69984E-09 -3.63943E-09 -3.57831E-09 -3.51652E-09 -3.45411E-09
  -3.39110E-09 -3.32753E-09 -3.26343E-09 -3.19883E-09 -3.13377E-09 -3.06828E-09 -3.00239E-09 -2.93615E-09 -2.86957E-09 -2.80270E-09
  -2.73557E-09 -2.66822E-09 -2.60067E-09 -2.53296E-09 -2.46513E-09 -2.39720E-09 -2.32921E-09 -2.26121E-09 -2.19321E-09 -2.12525E-09
  -2.05738E-09 -1.98960E-09 -1.92197E-09 -1.85452E-09 -1.78728E-09 -1.72029E-09 -1.65356E-09 -1.58716E-09 -1.52111E-09 -1.45542E-09
  -1.39015E-09 -1.32533E-09 -1.26099E-09 -1.19716E-09 -1.13387E-09 -1.07118E-09 -1.00910E-09 -9.47661E-10 -8.86897E-10 -8.26873E-10
  -7.67573E-10 -7.09068E-10 -6.51382E-10 -5.94543E-10 -5.38574E-10 -4.83540E-10 -4.29456E-10 -3.76342E-10 -3.24260E-10 -2.73192E-10
  -2.23148E-10 -1.74108E-10 -1.26086E-10 -7.90615E-11 -3.30510E-11  1.19738E-11  5.60012E-11  9.90373E-11  1.41088E-10  1.82153E-10
   2.22249E-10  2.61368E-10  2.99516E-10  3.36699E-10  3.72924E-10  4.08189E-10  4.42504E-10  4.75865E-10  5.08285E-10  5.39759E-10
   5.70294E-10  5.99907E-10  6.28586E-10  6.56340E-10  6.83166E-10  7.09080E-10  7.34081E-10  7.58175E-10  7.81365E-10  8.03647E-10
   8.25045E-10  8.45535E-10  8.65161E-10  8.83874E-10  9.01709E-10  9.18685E-10  9.34780E-10  9.50006E-10  9.64365E-10  9.77859E-10
   9.90499E-10  1.00229E-09  1.01324E-09  1.02335E-09  1.03260E-09  1.04102E-09  1.04862E-09  1.05537E-09  1.06131E-09  1.06644E-09
   1.07074E-09  1.07422E-09  1.07691E-09  1.07878E-09  1.07986E-09  1.08014E-09  1.07964E-09  1.07834E-09  1.07625E-09  1.07339E-09
   1.06976E-09  1.06535E-09  1.06018E-09  1.05424E-09  1.04754E-09  1.04008E-09  1.03189E-09  1.02292E-09  1.01323E-09  1.00279E-09
   9.91614E-10  9.79715E-10  9.67101E-10  9.53783E-10  9.39773E-10  9.25086E-10  9.09733E-10  8.93725E-10  8.77077E-10  8.59799E-10
   8.41904E-10  8.23406E-10  8.04315E-10  7.84645E-10  7.64407E-10  7.43614E-10  7.22280E-10  7.00415E-10  6.78032E-10  6.55144E-10
   6.31763E-10  6.07900E-10  5.83571E-10  5.58784E-10  5.33555E-10  5.07893E-10  4.81814E-10  4.55327E-10  4.28446E-10  4.01184E-10
   3.73553E-10  3.45563E-10  3.17229E-10  2.88564E-10  2.59577E-10  2.30283E-10  2.00695E-10  1.70822E-10  1.40680E-10  1.10278E-10
   7.96323E-11  4.87523E-11  1.76507E-11 -1.36596E-11 -4.51662E-11 -7.68576E-11 -1.08720E-10 -1.40742E-10 -1.72910E-10 -2.05215E-10
  -2.37640E-10 -2.70178E-10 -3.02810E-10 -3.35529E-10 -3.68322E-10 -4.01175E-10 -4.34076E-10 -4.67013E-10 -4.99974E-10 -5.32945E-10
  -5.65916E-10 -5.98873E-10 -6.31804E-10 -6.64698E-10 -6.97540E-10 -7.30320E-10 -7.63024E-10 -7.95641E-10 -8.28158E-10 -8.60563E-10
  -8.92844E-10 -9.24988E-10 -9.56981E-10
 NY background values follow
    -1.707E-09   -1.754E-09   -1.800E-09   -1.847E-09   -1.893E-09   -1.940E-09   -1.986E-09   -2.033E-09   -2.079E-09   -2.125E-09
    -2.171E-09   -2.217E-09   -2.263E-09   -2.309E-09   -2.354E-09   -2.400E-09   -2.445E-09   -2.491E-09   -2.536E-09   -2.581E-09
    -2.626E-09   -2.671E-09   -2.715E-09   -2.760E-09   -2.804E-09   -2.848E-09   -2.892E-09   -2.936E-09   -2.980E-09   -3.023E-09
    -3.066E-09   -3.109E-09   -3.152E-09   -3.195E-09   -3.237E-09   -3.279E-09   -3.321E-09   -3.362E-09   -3.404E-09   -3.445E-09
    -3.486E-09   -3.527E-09   -3.567E-09   -3.607E-09   -3.647E-09   -3.686E-09   -3.725E-09   -3.764E-09   -3.803E-09   -3.841E-09
    -3.879E-09   -3.917E-09   -3.954E-09   -3.991E-09   -4.028E-09   -4.064E-09   -4.100E-09   -4.136E-09   -4.171E-09   -4.206E-09
    -4.240E-09   -4.275E-09   -4.308E-09   -4.342E-09   -4.375E-09   -4.407E-09   -4.439E-09   -4.471E-09   -4.502E-09   -4.533E-09
    -4.563E-09   -4.593E-09   -4.623E-09   -4.652E-09   -4.681E-09   -4.709E-09   -4.736E-09   -4.764E-09   -4.790E-09   -4.816E-09
    -4.842E-09   -4.867E-09   -4.891E-09   -4.915E-09   -4.939E-09   -4.961E-09   -4.983E-09   -5.005E-09   -5.026E-09   -5.046E-09
    -5.065E-09   -5.084E-09   -5.102E-09   -5.119E-09   -5.136E-09   -5.152E-09   -5.167E-09   -5.181E-09   -5.195E-09   -5.208E-09
    -5.220E-09   -5.231E-09   -5.241E-09   -5.250E-09   -5.259E-09   -5.267E-09   -5.274E-09   -5.280E-09   -5.285E-09   -5.289E-09
    -5.292E-09   -5.294E-09   -5.296E-09   -5.296E-09   -5.295E-09   -5.293E-09   -5.291E-09   -5.287E-09   -5.282E-09   -5.276E-09
    -5.269E-09   -5.261E-09   -5.252E-09   -5.242E-09   -5.231E-09   -5.218E-09   -5.205E-09   -5.190E-09   -5.174E-09   -5.157E-09
    -5.138E-09   -5.119E-09   -5.098E-09   -5.076E-09   -5.053E-09   -5.028E-09   -5.002E-09   -4.975E-09   -4.947E-09   -4.917E-09
    -4.886E-09   -4.853E-09   -4.820E-09   -4.784E-09   -4.748E-09   -4.710E-09   -4.670E-09   -4.630E-09   -4.588E-09   -4.544E-09
    -4.499E-09   -4.454E-09   -4.406E-09   -4.358E-09   -4.309E-09   -4.258E-09   -4.207E-09   -4.154E-09   -4.100E-09   -4.046E-09
    -3.990E-09   -3.934E-09   -3.877E-09   -3.818E-09   -3.760E-09   -3.700E-09   -3.639E-09   -3.578E-09   -3.517E-09   -3.454E-09
    -3.391E-09   -3.328E-09   -3.263E-09   -3.199E-09   -3.134E-09   -3.068E-09   -3.002E-09   -2.936E-09   -2.870E-09   -2.803E-09
    -2.736E-09   -2.668E-09   -2.601E-09   -2.533E-09   -2.465E-09   -2.397E-09   -2.329E-09   -2.261E-09   -2.193E-09   -2.125E-09
    -2.057E-09   -1.990E-09   -1.922E-09   -1.855E-09   -1.787E-09   -1.720E-09   -1.654E-09   -1.587E-09   -1.521E-09   -1.455E-09
    -1.390E-09   -1.325E-09   -1.261E-09   -1.197E-09   -1.134E-09   -1.071E-09   -1.009E-09   -9.477E-10   -8.869E-10   -8.269E-10
    -7.676E-10   -7.091E-10   -6.514E-10   -5.945E-10   -5.386E-10   -4.835E-10   -4.295E-10   -3.763E-10   -3.243E-10   -2.732E-10
    -2.231E-10   -1.741E-10   -1.261E-10   -7.906E-11   -3.305E-11    1.197E-11    5.600E-11    9.904E-11    1.411E-10    1.822E-10
     2.222E-10    2.614E-10    2.995E-10    3.367E-10    3.729E-10    4.082E-10    4.425E-10    4.759E-10    5.083E-10    5.398E-10
     5.703E-10    5.999E-10    6.286E-10    6.563E-10    6.832E-10    7.091E-10    7.341E-10    7.582E-10    7.814E-10    8.036E-10
     8.250E-10    8.455E-10    8.652E-10    8.839E-10    9.017E-10    9.187E-10    9.348E-10    9.500E-10    9.644E-10    9.779E-10
     9.905E-10    1.002E-09    1.013E-09    1.023E-09    1.033E-09    1.041E-09    1.049E-09    1.055E-09    1.061E-09    1.066E-09
     1.071E-09    1.074E-09    1.077E-09    1.079E-09    1.080E-09    1.080E-09    1.080E-09    1.078E-09    1.076E-09    1.073E-09
     1.070E-09    1.065E-09    1.060E-09    1.054E-09    1.048E-09    1.040E-09    1.032E-09    1.023E-09    1.013E-09    1.003E-09
     9.916E-10    9.797E-10    9.671E-10    9.538E-10    9.398E-10    9.251E-10    9.097E-10    8.937E-10    8.771E-10    8.598E-10
     8.419E-10    8.234E-10    8.043E-10    7.846E-10    7.644E-10    7.436E-10    7.223E-10    7.004E-10    6.780E-10    6.551E-10
     6.318E-10    6.079E-10    5.836E-10    5.588E-10    5.336E-10    5.079E-10    4.818E-10    4.553E-10    4.284E-10    4.012E-10
     3.736E-10    3.456E-10    3.172E-10    2.886E-10    2.596E-10    2.303E-10    2.007E-10    1.708E-10    1.407E-10    1.103E-10
     7.963E-11    4.875E-11    1.765E-11   -1.366E-11   -4.517E-11   -7.686E-11   -1.087E-10   -1.407E-10   -1.729E-10   -2.052E-10
    -2.376E-10   -2.702E-10   -3.028E-10   -3.355E-10   -3.683E-10   -4.012E-10   -4.341E-10   -4.670E-10   -5.000E-10   -5.329E-10
    -5.659E-10   -5.989E-10   -6.318E-10   -6.647E-10   -6.975E-10   -7.303E-10   -7.630E-10   -7.956E-10   -8.282E-10   -8.606E-10
    -8.928E-10   -9.250E-10   -9.570E-10
   8 lines in following diagnostic table:
   1 ERROR     MYBASI 10                                                  
   4 ERRORS    AREABA  3                                                  
   1 warning   STARTV  5                                                  
   1 info      PNNLS   1                                                  
   1 info      STARTV 13                                                  
   1 warning   STARTV 25                                                  
   1 info      STARTV 20                                                  
   2 warnings  RBASOL  3                                                  
  79 lines in following table of input changes:
ATTH2O=1.0                                                                
FILH2O='/mnt/c/Users/divya/Downloads/Lexar/DataFo                         
   rDivya/meas_MID01415_FID95676_lb_RosetteSpinEc                         
   ho_ek_v1a_lcm/10x23_ftSpec_smooth_lcm_w'                               
DOWS=T                                                                    
DOECC=T                                                                   
CHRATO(8)='MM9/MM1 = 1.40 +- 0.7'                                         
CHRATO(7)='MM8/MM1 = 0.33 +- 0.17'                                        
CHRATO(6)='MM7/MM1 = 0.54 +- 0.27'                                        
CHRATO(5)='MM6/MM1 = 0.63 +- 0.16'                                        
CHRATO(4)='MM5/MM1 = 3.16 +- 0.79'                                        
CHRATO(3)='MM4/MM1 = 1.29 +- 1.03'                                        
CHRATO(2)='MM3/MM1 = 1.05 +- 0.63'                                        
CHRATO(1)='MM2/MM1 = 0.51 +- 0.17'                                        
NRATIO=8                                                                  
NORATO(7)='-CrCH2/totCr'                                                  
NORATO(6)='MM17/MM09*'                                                    
NORATO(5)='MM14/MM09*'                                                    
NORATO(4)='MM12/MM09*'                                                    
NORATO(3)='MM20/MM09*'                                                    
NORATO(2)='Lip20/Lip13*'                                                  
NORATO(1)='Lip09/Lip13*'                                                  
NNORAT=7                                                                  
CHOMIT(14)='-CrCH2'                                                       
CHOMIT(13)='MM17'                                                         
CHOMIT(12)='MM14'                                                         
CHOMIT(11)='MM12'                                                         
CHOMIT(10)='MM20'                                                         
CHOMIT(9)='Lip20'                                                         
CHOMIT(8)='MM09'                                                          
CHOMIT(7)='Lip09'                                                         
CHOMIT(6)='Lip13d'                                                        
CHOMIT(5)='Lip13c'                                                        
CHOMIT(4)='Lip13b'                                                        
CHOMIT(3)='Lip13a'                                                        
CHOMIT(2)='bHG'                                                           
CHOMIT(1)='bHB'                                                           
NOMIT=14                                                                  
NEACH=999                                                                 
DKNTMN=0.3                                                                
WDLINE(1)=0.025                                                           
RFWHM=0.15                                                                
PPMEND=0.2                                                                
PPMST=4.25                                                                
LPS=8                                                                     
DOREFS(1)=T                                                               
FILPRI='/mnt/c/Users/divya/Downloads/Lexar/DataFo                         
   rDivya/meas_MID01415_FID95676_lb_RosetteSpinEc                         
   ho_ek_v1a_lcm/10x23_ftSpec_smooth_lcm_out/10x2                         
   3_ftSpec_smooth_lcm.print'                                             
LCSV=11                                                                   
LCOORD=9                                                                  
LTABLE=7                                                                  
LPRINT=6                                                                  
ECHOT=20                                                                  
NUNFIL=576                                                                
DELTAT=0.00063000                                                         
HZPPPM=123.25                                                             
FILBAS='/mnt/c/Users/divya/Downloads/linux-send/f                         
   ida2/new/3T_SpinEchoRosetteMRSI_TE20.basis'                            
FILCSV='/mnt/c/Users/divya/Downloads/Lexar/DataFo                         
   rDivya/meas_MID01415_FID95676_lb_RosetteSpinEc                         
   ho_ek_v1a_lcm/10x23_ftSpec_smooth_lcm_out/10x2                         
   3_ftSpec_smooth_lcm.csv'                                               
FILCOO='/mnt/c/Users/divya/Downloads/Lexar/DataFo                         
   rDivya/meas_MID01415_FID95676_lb_RosetteSpinEc                         
   ho_ek_v1a_lcm/10x23_ftSpec_smooth_lcm_out/10x2                         
   3_ftSpec_smooth_lcm.coord'                                             
FILTAB='/mnt/c/Users/divya/Downloads/Lexar/DataFo                         
   rDivya/meas_MID01415_FID95676_lb_RosetteSpinEc                         
   ho_ek_v1a_lcm/10x23_ftSpec_smooth_lcm_out/10x2                         
   3_ftSpec_smooth_lcm.table'                                             
FILPS='/mnt/c/Users/divya/Downloads/Lexar/DataFor                         
   Divya/meas_MID01415_FID95676_lb_RosetteSpinEch                         
   o_ek_v1a_lcm/10x23_ftSpec_smooth_lcm_out/10x23                         
   _ftSpec_smooth_lcm.ps'                                                 
FILRAW='/mnt/c/Users/divya/Downloads/Lexar/DataFo                         
   rDivya/meas_MID01415_FID95676_lb_RosetteSpinEc                         
   ho_ek_v1a_lcm/10x23_ftSpec_smooth_lcm'                                 
