 LCModel (Version 6.3-1R) Copyright: S.W. Provencher.          Ref.: Magn. Reson. Med. 30:672-679 (1993).                
 onepulse 10x24_ftSpec_smooth_lcm
 26 lines in following concentration table = NCONC+1
    Conc.  %SD   /Cr    Metabolite                                         
 6.16E-10  52%   0.000 Ala                                                 
 2.72E-09  36%   0.000 Asp                                                 
    0.000 999%   0.000 Cr                                                  
 1.61E-09  36%   0.000 GABA                                                
 5.39E-10 460%   0.000 Glc                                                 
    0.000 999%   0.000 Gln                                                 
    0.000 999%   0.000 Glu                                                 
 9.45E-10 234%   0.000 Glyc                                                
    0.000 999%   0.000 GPC                                                 
    0.000 999%   0.000 GSH                                                 
 1.85E-10 999%   0.000 Ins                                                 
    0.000 999%   0.000 Lac                                                 
 2.24E-10 158%   0.000 NAAG                                                
 4.00E-10 116%   0.000 NAA                                                 
    0.000 999%   0.000 PCh                                                 
    0.000 999%   0.000 PCr                                                 
 1.71E-09 133%   0.000 PE                                                  
 5.11E-11 531%   0.000 Scyllo                                              
 5.53E-11 999%   0.000 Ser                                                 
    0.000 999%   0.000 Tau                                                 
    0.000 999%   0.000 GPC+PCh                                             
 6.25E-10  41%   0.000 NAA+NAAG                                            
 1.13E-09  58%   0.000 Ins+Glyc                                            
    0.000 999%   0.000 Cr+PCr                                              
    0.000 999%   0.000 Glu+Gln                                             
   6 lines in following misc. output table
  FWHM = 0.123 ppm    S/N =   3                                            
  Data shift = 0.503 ppm                                                   
  Ph: 155 deg      34.5 deg/ppm                                            
  alphaB,S = 1.1E+00,   1.3E+01                                            
    8 spline knots.   Ns = 5(1)                                            
  (12) 6 infls.   (11) 3 extrs.                                            
  363 points on ppm-axis = NY
      4.250000     4.238821     4.227641     4.216462     4.205282     4.194103     4.182923     4.171744     4.160564     4.149385
      4.138206     4.127026     4.115847     4.104667     4.093488     4.082308     4.071129     4.059949     4.048770     4.037591
      4.026411     4.015232     4.004052     3.992873     3.981693     3.970514     3.959334     3.948155     3.936975     3.925796
      3.914617     3.903437     3.892258     3.881078     3.869899     3.858719     3.847540     3.836360     3.825181     3.814002
      3.802822     3.791643     3.780463     3.769284     3.758104     3.746925     3.735745     3.724566     3.713387     3.702207
      3.691028     3.679848     3.668669     3.657489     3.646310     3.635130     3.623951     3.612772     3.601592     3.590413
      3.579233     3.568054     3.556874     3.545695     3.534515     3.523336     3.512156     3.500977     3.489798     3.478618
      3.467439     3.456259     3.445080     3.433900     3.422721     3.411541     3.400362     3.389183     3.378003     3.366824
      3.355644     3.344465     3.333285     3.322106     3.310926     3.299747     3.288568     3.277388     3.266209     3.255029
      3.243850     3.232670     3.221491     3.210311     3.199132     3.187953     3.176773     3.165594     3.154414     3.143235
      3.132055     3.120876     3.109696     3.098517     3.087337     3.076158     3.064979     3.053799     3.042620     3.031440
      3.020261     3.009081     2.997902     2.986722     2.975543     2.964364     2.953184     2.942005     2.930825     2.919646
      2.908466     2.897287     2.886107     2.874928     2.863749     2.852569     2.841390     2.830210     2.819031     2.807851
      2.796672     2.785492     2.774313     2.763134     2.751954     2.740775     2.729595     2.718416     2.707236     2.696057
      2.684877     2.673698     2.662519     2.651339     2.640160     2.628980     2.617801     2.606621     2.595442     2.584262
      2.573083     2.561903     2.550724     2.539545     2.528365     2.517186     2.506006     2.494827     2.483647     2.472468
      2.461288     2.450109     2.438930     2.427750     2.416571     2.405391     2.394212     2.383032     2.371853     2.360673
      2.349494     2.338315     2.327135     2.315956     2.304776     2.293597     2.282417     2.271238     2.260058     2.248879
      2.237700     2.226520     2.215341     2.204161     2.192982     2.181802     2.170623     2.159443     2.148264     2.137084
      2.125905     2.114726     2.103546     2.092367     2.081187     2.070008     2.058828     2.047649     2.036469     2.025290
      2.014111     2.002931     1.991752     1.980572     1.969393     1.958213     1.947034     1.935854     1.924675     1.913496
      1.902316     1.891137     1.879957     1.868778     1.857598     1.846419     1.835239     1.824060     1.812881     1.801701
      1.790522     1.779342     1.768163     1.756983     1.745804     1.734624     1.723445     1.712265     1.701086     1.689907
      1.678727     1.667548     1.656368     1.645189     1.634009     1.622830     1.611650     1.600471     1.589292     1.578112
      1.566933     1.555753     1.544574     1.533394     1.522215     1.511035     1.499856     1.488677     1.477497     1.466318
      1.455138     1.443959     1.432779     1.421600     1.410420     1.399241     1.388062     1.376882     1.365703     1.354523
      1.343344     1.332164     1.320985     1.309805     1.298626     1.287446     1.276267     1.265088     1.253908     1.242729
      1.231549     1.220370     1.209190     1.198011     1.186831     1.175652     1.164473     1.153293     1.142114     1.130934
      1.119755     1.108575     1.097396     1.086216     1.075037     1.063858     1.052678     1.041499     1.030319     1.019140
      1.007960     0.996781     0.985601     0.974422     0.963243     0.952063     0.940884     0.929704     0.918525     0.907345
      0.896166     0.884986     0.873807     0.862628     0.851448     0.840269     0.829089     0.817910     0.806730     0.795551
      0.784371     0.773192     0.762012     0.750833     0.739654     0.728474     0.717295     0.706115     0.694936     0.683756
      0.672577     0.661397     0.650218     0.639039     0.627859     0.616680     0.605500     0.594321     0.583141     0.571962
      0.560782     0.549603     0.538424     0.527244     0.516065     0.504885     0.493706     0.482526     0.471347     0.460167
      0.448988     0.437809     0.426629     0.415450     0.404270     0.393091     0.381911     0.370732     0.359552     0.348373
      0.337193     0.326014     0.314835     0.303655     0.292476     0.281296     0.270117     0.258937     0.247758     0.236578
      0.225399     0.214220     0.203040
 NY phased data points follow
  -2.14410E-09 -2.77982E-09 -2.16730E-09 -2.31424E-09 -1.55420E-09 -2.29022E-09 -1.75177E-09 -2.15719E-09 -1.29302E-09 -1.89101E-09
  -1.40260E-09 -1.57589E-09 -1.20648E-09 -1.22236E-09 -6.20621E-10 -9.12461E-10 -1.14057E-09 -1.29923E-09 -1.02582E-09 -1.46693E-09
  -7.68233E-10 -8.91275E-10  3.37416E-10 -1.66047E-10  3.22713E-10  2.42101E-10  8.70081E-10  3.89326E-10  7.95289E-10  8.67235E-10
   9.25367E-10  8.59341E-10  1.12492E-09  7.76117E-10  1.22691E-09  1.10575E-09  1.16501E-09  6.18057E-10  8.92259E-10  7.38156E-10
   1.08023E-09  7.11128E-10  8.22565E-10  4.64064E-10  9.78137E-10  4.49396E-10  4.47943E-10  4.35608E-10  2.12631E-10 -3.54649E-10
   8.19753E-11 -2.58979E-10  5.66229E-10  6.98181E-10  1.42109E-09  1.29667E-09  1.60823E-09  1.45782E-09  1.75351E-09  1.28611E-09
   1.60319E-09  9.23290E-10  7.10390E-10  9.49574E-12 -3.33075E-10 -8.17208E-10 -8.58915E-10 -7.11450E-10 -1.63116E-11  3.01814E-10
   8.62075E-10  1.43674E-09  1.94897E-09  2.13681E-09  2.53956E-09  2.52626E-09  2.82053E-09  3.42736E-09  3.53182E-09  3.49412E-09
   3.50065E-09  3.25816E-09  3.65671E-09  3.60771E-09  3.94290E-09  3.93909E-09  4.18723E-09  3.83829E-09  4.10390E-09  3.84018E-09
   3.77180E-09  4.01736E-09  4.44860E-09  4.61627E-09  4.12470E-09  4.56183E-09  4.66470E-09  4.06081E-09  4.32409E-09  3.87626E-09
   3.89132E-09  3.68001E-09  3.56012E-09  3.27736E-09  3.31433E-09  2.83791E-09  3.03032E-09  2.85874E-09  2.87614E-09  2.91126E-09
   3.10083E-09  2.58686E-09  2.57717E-09  2.38138E-09  2.00274E-09  2.17791E-09  2.00251E-09  1.88875E-09  1.98493E-09  1.70530E-09
   1.51224E-09  1.50482E-09  1.51540E-09  1.68994E-09  1.23473E-09  1.04653E-09  1.03480E-09  7.41163E-10  9.72545E-10  9.26885E-10
   8.99563E-10  1.20207E-09  7.52627E-10  1.36758E-09  1.62283E-09  1.42003E-09  1.76325E-09  2.35121E-09  2.23508E-09  2.06179E-09
   2.95319E-09  2.72858E-09  3.05276E-09  2.97867E-09  3.10325E-09  3.10540E-09  3.25930E-09  3.38210E-09  3.66232E-09  3.60879E-09
   3.69969E-09  4.31668E-09  3.99489E-09  4.27779E-09  4.42210E-09  4.57690E-09  4.91318E-09  5.35892E-09  6.51557E-09  7.88444E-09
   9.05580E-09  9.75693E-09  1.05189E-08  1.09852E-08  1.13073E-08  1.20662E-08  1.23346E-08  1.27185E-08  1.33795E-08  1.35525E-08
   1.39413E-08  1.45738E-08  1.50515E-08  1.52117E-08  1.56699E-08  1.59799E-08  1.61358E-08  1.67446E-08  1.64569E-08  1.66852E-08
   1.61726E-08  1.52025E-08  1.44462E-08  1.31831E-08  1.16754E-08  9.37130E-09  7.38197E-09  4.54588E-09  1.40960E-09 -9.78380E-10
  -4.09110E-09 -6.49533E-09 -8.28681E-09 -1.04497E-08 -1.10099E-08 -1.13233E-08 -1.09701E-08 -1.01056E-08 -8.77425E-09 -7.40860E-09
  -6.12067E-09 -5.26201E-09 -3.95410E-09 -3.44880E-09 -2.55369E-09 -1.97929E-09 -1.62963E-09 -1.73563E-09 -1.20523E-09 -1.20750E-09
  -1.39802E-09 -1.33873E-09 -1.00642E-09 -1.56763E-09 -1.11538E-09 -1.38600E-09 -1.06253E-09 -9.97760E-10 -1.32758E-09 -1.23306E-09
  -1.47854E-09 -1.23370E-09 -1.16921E-09 -1.21713E-09 -1.41932E-09 -1.29017E-09 -1.20301E-09 -8.56941E-10 -1.23870E-09 -8.24640E-10
  -5.70941E-10 -8.34869E-10 -1.27493E-09 -1.39712E-09 -1.46698E-09 -1.39426E-09 -1.23444E-09 -1.21696E-09 -8.00741E-10 -8.63424E-10
  -7.86567E-10 -8.44390E-10 -8.95743E-10 -7.06339E-10 -3.85198E-10 -5.15073E-10 -7.33450E-10 -3.47982E-10 -9.10886E-10 -1.22037E-09
  -1.47136E-09 -1.51516E-09 -1.63321E-09 -1.59090E-09 -1.23779E-09 -1.40695E-09 -1.26811E-09 -1.14857E-09 -8.23768E-10 -9.72673E-10
  -4.51787E-10 -7.66527E-10 -1.81565E-10 -5.89160E-10 -4.49092E-10 -3.83598E-10 -3.98313E-10 -2.84985E-10 -3.10291E-10 -3.90987E-10
  -3.38661E-10 -8.38296E-10 -5.11174E-10 -5.96417E-10 -9.76528E-10 -8.18441E-10 -1.22482E-09 -1.01960E-09 -7.72078E-10 -1.20547E-09
  -7.77181E-10 -9.43585E-10 -9.62678E-10 -9.14443E-10 -1.35343E-09 -1.15174E-09 -1.25440E-09 -1.35364E-09 -1.21674E-09 -1.44849E-09
  -1.13400E-09 -1.48829E-09 -1.26974E-09 -1.65174E-09 -1.13217E-09 -1.07899E-09 -1.10189E-09 -1.19120E-09 -1.21998E-09 -1.05263E-09
  -1.35447E-09 -9.50169E-10 -8.26130E-10 -1.22738E-09 -8.85055E-10 -8.87726E-10 -1.23242E-09 -9.85577E-10 -7.95695E-10 -1.18965E-09
  -9.13954E-10 -7.64505E-10 -7.98671E-10 -9.18560E-10 -9.33099E-10 -8.46550E-10 -4.59034E-10 -4.83707E-10 -4.12816E-10 -5.47490E-10
  -7.10967E-10 -6.23810E-10 -4.35269E-10 -5.90917E-10 -5.25118E-10 -1.48459E-10 -4.77258E-10 -2.22143E-10 -8.93354E-11 -1.39799E-10
  -1.51832E-10 -1.60753E-10 -1.62262E-10  7.76716E-11  3.42125E-11  1.60938E-10  8.63850E-11  1.50077E-11  1.93966E-10  5.73257E-10
   2.72709E-10  1.92296E-10  8.35942E-11  4.68409E-10  4.14602E-10  6.26289E-10  8.25435E-10  5.23215E-10  4.28804E-10  8.18467E-10
   6.25257E-10  5.11943E-10  7.57009E-10  9.47839E-10  8.55775E-10  6.27031E-10  9.33625E-10  1.21926E-09  9.34528E-10  1.13372E-09
   8.87869E-10  7.82378E-10  1.31115E-09
 NY points of the fit to the data follow
   1.59467E-10 -7.11170E-10 -1.66222E-09 -2.16630E-09 -2.59697E-09 -2.67734E-09 -2.82311E-09 -3.06578E-09 -2.01620E-09 -1.36150E-09
  -1.58873E-09 -1.82210E-09 -1.66916E-09 -1.20972E-09 -7.58565E-10 -5.86087E-10 -2.35167E-10  5.27066E-10  5.74743E-10 -1.17522E-09
  -1.79303E-09 -1.14683E-09 -7.02816E-10 -9.07501E-11  9.35656E-11  3.49448E-10  6.28202E-10  7.97253E-10  9.39146E-10  1.42339E-09
   1.79522E-09  1.59385E-09  1.60473E-09  1.80945E-09  1.03459E-09  8.99480E-10  6.29188E-10  7.60826E-10  8.18130E-10  7.16404E-10
   2.67881E-10  4.19391E-10  7.15183E-10  2.88195E-10  3.51738E-10  1.48799E-09  1.63276E-09  9.83436E-10  5.59095E-10  1.09987E-09
   1.35598E-09  1.61144E-09  2.12533E-09  2.31238E-09  2.03485E-09  1.76823E-09  8.12028E-10  4.77919E-10  9.44244E-10  1.04601E-09
   4.79863E-10  6.34788E-10  1.08721E-09  7.69550E-10  1.12467E-09  2.30437E-09  2.43988E-09  2.04190E-09  2.19420E-09  2.42812E-09
   2.68785E-09  2.79679E-09  2.45130E-09  1.96446E-09  2.35544E-09  2.37167E-09  1.97252E-09  3.06403E-09  3.42448E-09  3.07444E-09
   3.15294E-09  3.09160E-09  3.06727E-09  3.72464E-09  4.15269E-09  4.39848E-09  4.71972E-09  4.20319E-09  2.91325E-09  2.69001E-09
   2.56896E-09  2.43518E-09  2.77627E-09  2.80721E-09  2.22553E-09  2.35936E-09  2.52512E-09  2.11649E-09  2.09451E-09  2.42061E-09
   2.86557E-09  2.74012E-09  2.73657E-09  3.30190E-09  3.55697E-09  3.57230E-09  3.58075E-09  3.69971E-09  3.90209E-09  3.97072E-09
   3.55492E-09  2.94126E-09  3.22089E-09  3.07744E-09  2.34149E-09  2.11730E-09  2.03771E-09  2.01011E-09  2.00638E-09  2.01522E-09
   2.03127E-09  2.05161E-09  2.07457E-09  2.09901E-09  2.12421E-09  2.14970E-09  2.17510E-09  2.20007E-09  2.22447E-09  2.24813E-09
   2.27089E-09  2.29266E-09  2.31333E-09  2.33285E-09  2.35116E-09  2.36821E-09  2.38390E-09  2.39823E-09  2.41115E-09  2.42267E-09
   2.43272E-09  2.44131E-09  2.44844E-09  2.45411E-09  2.45829E-09  2.46100E-09  2.46230E-09  2.46229E-09  2.46109E-09  2.45884E-09
   2.45570E-09  2.45189E-09  2.44766E-09  2.44336E-09  2.43943E-09  2.43646E-09  2.43526E-09  2.43698E-09  2.44333E-09  2.45692E-09
   2.48198E-09  2.52582E-09  2.60216E-09  2.73994E-09  3.01133E-09  3.65077E-09  5.82146E-09  1.18986E-08  1.49142E-08  1.45413E-08
   1.39511E-08  1.41467E-08  1.46410E-08  1.49233E-08  1.53857E-08  1.67552E-08  1.84159E-08  1.64214E-08  8.31038E-09  4.09892E-09
   2.90227E-09  2.38155E-09  2.08545E-09  1.88808E-09  1.74193E-09  1.62538E-09  1.52728E-09  1.44134E-09  1.36379E-09  1.29224E-09
   1.22509E-09  1.16127E-09  1.10003E-09  1.04083E-09  9.83265E-10  9.27065E-10  8.72024E-10  8.17966E-10  7.64784E-10  7.12398E-10
   6.60744E-10  6.09776E-10  5.59462E-10  5.09791E-10  4.60760E-10  4.12351E-10  3.64582E-10  3.17460E-10  2.71002E-10  2.25215E-10
   1.80135E-10  1.35771E-10  9.21535E-11  4.93087E-11  7.26769E-12 -3.39508E-11 -7.43060E-11 -1.13771E-10 -1.52320E-10 -1.89949E-10
  -2.26664E-10 -2.62486E-10 -2.97413E-10 -3.31465E-10 -3.64639E-10 -3.96957E-10 -4.28419E-10 -4.59034E-10 -4.88812E-10 -5.17756E-10
  -5.45881E-10 -5.73188E-10 -5.99685E-10 -6.25381E-10 -6.50283E-10 -6.74396E-10 -6.97729E-10 -7.20284E-10 -7.42072E-10 -7.63096E-10
  -7.83362E-10 -8.02885E-10 -8.21662E-10 -8.39702E-10 -8.57006E-10 -8.73588E-10 -8.89451E-10 -9.04602E-10 -9.19046E-10 -9.32784E-10
  -9.45834E-10 -9.58185E-10 -9.69868E-10 -9.80856E-10 -9.91173E-10 -1.00083E-09 -1.00983E-09 -1.01817E-09 -1.02586E-09 -1.03290E-09
  -1.03931E-09 -1.04508E-09 -1.05024E-09 -1.05477E-09 -1.05868E-09 -1.06198E-09 -1.06469E-09 -1.06678E-09 -1.06829E-09 -1.06921E-09
  -1.06955E-09 -1.06930E-09 -1.06850E-09 -1.06712E-09 -1.06519E-09 -1.06269E-09 -1.05966E-09 -1.05608E-09 -1.05195E-09 -1.04730E-09
  -1.04213E-09 -1.03643E-09 -1.03022E-09 -1.02349E-09 -1.01626E-09 -1.00853E-09 -1.00031E-09 -9.91594E-10 -9.82401E-10 -9.72731E-10
  -9.62582E-10 -9.51974E-10 -9.40906E-10 -9.29386E-10 -9.17421E-10 -9.05021E-10 -8.92187E-10 -8.78932E-10 -8.65259E-10 -8.51177E-10
  -8.36693E-10 -8.21813E-10 -8.06546E-10 -7.90897E-10 -7.74873E-10 -7.58482E-10 -7.41732E-10 -7.24629E-10 -7.07180E-10 -6.89391E-10
  -6.71270E-10 -6.52824E-10 -6.34062E-10 -6.14987E-10 -5.95610E-10 -5.75935E-10 -5.55972E-10 -5.35723E-10 -5.15200E-10 -4.94409E-10
  -4.73357E-10 -4.52047E-10 -4.30491E-10 -4.08696E-10 -3.86665E-10 -3.64406E-10 -3.41932E-10 -3.19242E-10 -2.96350E-10 -2.73255E-10
  -2.49972E-10 -2.26504E-10 -2.02857E-10 -1.79040E-10 -1.55061E-10 -1.30924E-10 -1.06639E-10 -8.22101E-11 -5.76489E-11 -3.29539E-11
  -8.14304E-12  1.67870E-11  4.18199E-11  6.69539E-11  9.21862E-11  1.17499E-10  1.42894E-10  1.68358E-10  1.93891E-10  2.19479E-10
   2.45120E-10  2.70805E-10  2.96527E-10  3.22280E-10  3.48055E-10  3.73848E-10  3.99645E-10  4.25449E-10  4.51247E-10  4.77033E-10
   5.02801E-10  5.28543E-10  5.54248E-10
 NY background values follow
    -8.498E-09   -8.405E-09   -8.313E-09   -8.220E-09   -8.127E-09   -8.035E-09   -7.942E-09   -7.849E-09   -7.756E-09   -7.664E-09
    -7.571E-09   -7.478E-09   -7.385E-09   -7.292E-09   -7.200E-09   -7.107E-09   -7.014E-09   -6.921E-09   -6.828E-09   -6.736E-09
    -6.643E-09   -6.551E-09   -6.458E-09   -6.365E-09   -6.273E-09   -6.181E-09   -6.088E-09   -5.996E-09   -5.904E-09   -5.812E-09
    -5.720E-09   -5.628E-09   -5.536E-09   -5.444E-09   -5.353E-09   -5.261E-09   -5.170E-09   -5.079E-09   -4.988E-09   -4.897E-09
    -4.806E-09   -4.716E-09   -4.625E-09   -4.535E-09   -4.445E-09   -4.355E-09   -4.265E-09   -4.175E-09   -4.086E-09   -3.997E-09
    -3.908E-09   -3.819E-09   -3.730E-09   -3.642E-09   -3.554E-09   -3.466E-09   -3.378E-09   -3.290E-09   -3.203E-09   -3.116E-09
    -3.029E-09   -2.943E-09   -2.857E-09   -2.771E-09   -2.685E-09   -2.600E-09   -2.514E-09   -2.430E-09   -2.345E-09   -2.261E-09
    -2.177E-09   -2.093E-09   -2.010E-09   -1.927E-09   -1.844E-09   -1.762E-09   -1.680E-09   -1.599E-09   -1.517E-09   -1.437E-09
    -1.357E-09   -1.277E-09   -1.198E-09   -1.119E-09   -1.041E-09   -9.636E-10   -8.868E-10   -8.105E-10   -7.349E-10   -6.600E-10
    -5.857E-10   -5.122E-10   -4.394E-10   -3.673E-10   -2.961E-10   -2.256E-10   -1.560E-10   -8.721E-11   -1.930E-11    4.772E-11
     1.138E-10    1.790E-10    2.432E-10    3.064E-10    3.687E-10    4.299E-10    4.900E-10    5.491E-10    6.071E-10    6.640E-10
     7.197E-10    7.743E-10    8.277E-10    8.800E-10    9.309E-10    9.807E-10    1.029E-09    1.076E-09    1.122E-09    1.167E-09
     1.210E-09    1.252E-09    1.292E-09    1.331E-09    1.369E-09    1.405E-09    1.439E-09    1.472E-09    1.504E-09    1.534E-09
     1.562E-09    1.589E-09    1.614E-09    1.637E-09    1.659E-09    1.679E-09    1.698E-09    1.715E-09    1.729E-09    1.743E-09
     1.754E-09    1.764E-09    1.771E-09    1.777E-09    1.781E-09    1.783E-09    1.783E-09    1.781E-09    1.778E-09    1.772E-09
     1.765E-09    1.756E-09    1.745E-09    1.733E-09    1.719E-09    1.704E-09    1.687E-09    1.668E-09    1.648E-09    1.627E-09
     1.604E-09    1.580E-09    1.555E-09    1.528E-09    1.500E-09    1.471E-09    1.441E-09    1.409E-09    1.377E-09    1.343E-09
     1.309E-09    1.273E-09    1.237E-09    1.200E-09    1.162E-09    1.123E-09    1.083E-09    1.043E-09    1.001E-09    9.597E-10
     9.174E-10    8.744E-10    8.309E-10    7.870E-10    7.425E-10    6.977E-10    6.524E-10    6.069E-10    5.610E-10    5.148E-10
     4.684E-10    4.218E-10    3.751E-10    3.283E-10    2.814E-10    2.344E-10    1.875E-10    1.406E-10    9.373E-11    4.702E-11
     4.687E-13   -4.589E-11   -9.202E-11   -1.379E-10   -1.834E-10   -2.286E-10   -2.734E-10   -3.178E-10   -3.617E-10   -4.051E-10
    -4.480E-10   -4.903E-10   -5.320E-10   -5.730E-10   -6.133E-10   -6.529E-10   -6.918E-10   -7.298E-10   -7.669E-10   -8.032E-10
    -8.387E-10   -8.733E-10   -9.071E-10   -9.401E-10   -9.722E-10   -1.004E-09   -1.034E-09   -1.064E-09   -1.093E-09   -1.121E-09
    -1.148E-09   -1.174E-09   -1.200E-09   -1.225E-09   -1.249E-09   -1.273E-09   -1.295E-09   -1.317E-09   -1.338E-09   -1.359E-09
    -1.378E-09   -1.397E-09   -1.416E-09   -1.433E-09   -1.450E-09   -1.466E-09   -1.481E-09   -1.496E-09   -1.510E-09   -1.523E-09
    -1.535E-09   -1.547E-09   -1.559E-09   -1.569E-09   -1.579E-09   -1.588E-09   -1.597E-09   -1.605E-09   -1.612E-09   -1.618E-09
    -1.624E-09   -1.630E-09   -1.635E-09   -1.639E-09   -1.642E-09   -1.645E-09   -1.647E-09   -1.649E-09   -1.650E-09   -1.651E-09
    -1.651E-09   -1.650E-09   -1.649E-09   -1.647E-09   -1.645E-09   -1.642E-09   -1.639E-09   -1.635E-09   -1.631E-09   -1.626E-09
    -1.620E-09   -1.614E-09   -1.607E-09   -1.600E-09   -1.593E-09   -1.585E-09   -1.576E-09   -1.567E-09   -1.558E-09   -1.548E-09
    -1.537E-09   -1.526E-09   -1.515E-09   -1.503E-09   -1.491E-09   -1.478E-09   -1.465E-09   -1.452E-09   -1.438E-09   -1.423E-09
    -1.408E-09   -1.393E-09   -1.378E-09   -1.362E-09   -1.345E-09   -1.329E-09   -1.312E-09   -1.294E-09   -1.277E-09   -1.259E-09
    -1.240E-09   -1.221E-09   -1.202E-09   -1.183E-09   -1.163E-09   -1.143E-09   -1.123E-09   -1.103E-09   -1.082E-09   -1.061E-09
    -1.039E-09   -1.018E-09   -9.959E-10   -9.738E-10   -9.515E-10   -9.290E-10   -9.062E-10   -8.833E-10   -8.601E-10   -8.367E-10
    -8.131E-10   -7.894E-10   -7.654E-10   -7.413E-10   -7.171E-10   -6.926E-10   -6.681E-10   -6.434E-10   -6.185E-10   -5.935E-10
    -5.684E-10   -5.432E-10   -5.179E-10   -4.925E-10   -4.669E-10   -4.413E-10   -4.156E-10   -3.899E-10   -3.641E-10   -3.382E-10
    -3.122E-10   -2.862E-10   -2.602E-10   -2.342E-10   -2.081E-10   -1.820E-10   -1.559E-10   -1.298E-10   -1.037E-10   -7.759E-11
    -5.152E-11   -2.547E-11    5.491E-13
 Ala      Conc. = 6.16E-10
  -8.04472E-09 -7.94305E-09 -7.84049E-09 -7.72991E-09 -7.64269E-09 -7.53448E-09 -7.42502E-09 -7.44004E-09 -7.39910E-09 -7.23922E-09
  -7.24143E-09 -7.25227E-09 -7.15188E-09 -7.09392E-09 -7.04935E-09 -6.98397E-09 -6.90858E-09 -6.82781E-09 -6.74383E-09 -6.65775E-09
  -6.57027E-09 -6.48179E-09 -6.39259E-09 -6.30287E-09 -6.21273E-09 -6.12232E-09 -6.03169E-09 -5.94091E-09 -5.85002E-09 -5.75904E-09
  -5.66803E-09 -5.57700E-09 -5.48596E-09 -5.39496E-09 -5.30398E-09 -5.21311E-09 -5.12225E-09 -5.03147E-09 -4.94082E-09 -4.85023E-09
  -4.75977E-09 -4.66940E-09 -4.57920E-09 -4.48909E-09 -4.39915E-09 -4.30934E-09 -4.21971E-09 -4.13021E-09 -4.04088E-09 -3.95175E-09
  -3.86277E-09 -3.77401E-09 -3.68541E-09 -3.59702E-09 -3.50886E-09 -3.42086E-09 -3.33309E-09 -3.24559E-09 -3.15821E-09 -3.07111E-09
  -2.98426E-09 -2.89760E-09 -2.81122E-09 -2.72505E-09 -2.63918E-09 -2.55352E-09 -2.46813E-09 -2.38298E-09 -2.29809E-09 -2.21348E-09
  -2.12910E-09 -2.04499E-09 -1.96118E-09 -1.87758E-09 -1.79428E-09 -1.71126E-09 -1.62853E-09 -1.54611E-09 -1.46399E-09 -1.38220E-09
  -1.30071E-09 -1.21954E-09 -1.13866E-09 -1.05806E-09 -9.77713E-10 -8.97564E-10 -8.17547E-10 -7.37581E-10 -6.57525E-10 -5.77186E-10
  -4.96284E-10 -4.14432E-10 -3.30965E-10 -2.44946E-10 -1.54670E-10 -5.71836E-11  5.33400E-11  1.90199E-10  3.90996E-10  8.03062E-10
   1.46225E-09  1.48620E-09  1.58954E-09  2.23811E-09  2.55651E-09  2.62185E-09  2.67107E-09  2.82372E-09  3.05472E-09  3.14765E-09
   2.75240E-09  2.15693E-09  2.45266E-09  2.32359E-09  1.60060E-09  1.38795E-09  1.31852E-09  1.30011E-09  1.30476E-09  1.32123E-09
   1.34429E-09  1.37104E-09  1.39985E-09  1.42966E-09  1.45980E-09  1.48981E-09  1.51937E-09  1.54819E-09  1.57612E-09  1.60301E-09
   1.62872E-09  1.65320E-09  1.67632E-09  1.69804E-09  1.71831E-09  1.73708E-09  1.75425E-09  1.76984E-09  1.78379E-09  1.79608E-09
   1.80665E-09  1.81548E-09  1.82254E-09  1.82783E-09  1.83128E-09  1.83289E-09  1.83265E-09  1.83059E-09  1.82676E-09  1.82119E-09
   1.81393E-09  1.80503E-09  1.79454E-09  1.78252E-09  1.76904E-09  1.75416E-09  1.73799E-09  1.72063E-09  1.70226E-09  1.68309E-09
   1.66348E-09  1.64404E-09  1.62588E-09  1.61142E-09  1.60693E-09  1.63399E-09  1.80901E-09  2.25084E-09  2.32039E-09  2.22255E-09
   2.16381E-09  2.15954E-09  2.16029E-09  2.14077E-09  2.14773E-09  2.22752E-09  2.29112E-09  2.00288E-09  1.33105E-09  1.13579E-09
   1.04058E-09  9.72393E-10  9.14491E-10  8.61311E-10  8.10550E-10  7.61114E-10  7.12421E-10  6.64143E-10  6.16109E-10  5.68208E-10
   5.20368E-10  4.72573E-10  4.24807E-10  3.77075E-10  3.29377E-10  2.81740E-10  2.34191E-10  1.86741E-10  1.39423E-10  9.22761E-11
   4.53281E-11 -1.39171E-12 -4.78528E-11 -9.40129E-11 -1.39832E-10 -1.85292E-10 -2.30342E-10 -2.74949E-10 -3.19074E-10 -3.62691E-10
  -4.05747E-10 -4.48217E-10 -4.90060E-10 -5.31236E-10 -5.71706E-10 -6.11441E-10 -6.50393E-10 -6.88529E-10 -7.25816E-10 -7.62244E-10
  -7.97816E-10 -8.32547E-10 -8.66433E-10 -8.99488E-10 -9.31707E-10 -9.63110E-10 -9.93691E-10 -1.02346E-09 -1.05242E-09 -1.08058E-09
  -1.10795E-09 -1.13452E-09 -1.16031E-09 -1.18532E-09 -1.20956E-09 -1.23303E-09 -1.25573E-09 -1.27768E-09 -1.29888E-09 -1.31933E-09
  -1.33903E-09 -1.35801E-09 -1.37626E-09 -1.39378E-09 -1.41057E-09 -1.42666E-09 -1.44204E-09 -1.45672E-09 -1.47070E-09 -1.48398E-09
  -1.49658E-09 -1.50850E-09 -1.51975E-09 -1.53032E-09 -1.54022E-09 -1.54948E-09 -1.55807E-09 -1.56602E-09 -1.57332E-09 -1.57998E-09
  -1.58601E-09 -1.59142E-09 -1.59621E-09 -1.60038E-09 -1.60394E-09 -1.60689E-09 -1.60925E-09 -1.61100E-09 -1.61217E-09 -1.61276E-09
  -1.61277E-09 -1.61220E-09 -1.61107E-09 -1.60937E-09 -1.60712E-09 -1.60431E-09 -1.60097E-09 -1.59708E-09 -1.59265E-09 -1.58769E-09
  -1.58222E-09 -1.57622E-09 -1.56971E-09 -1.56269E-09 -1.55517E-09 -1.54715E-09 -1.53865E-09 -1.52964E-09 -1.52017E-09 -1.51022E-09
  -1.49978E-09 -1.48890E-09 -1.47755E-09 -1.46575E-09 -1.45351E-09 -1.44084E-09 -1.42773E-09 -1.41420E-09 -1.40026E-09 -1.38591E-09
  -1.37116E-09 -1.35601E-09 -1.34047E-09 -1.32456E-09 -1.30827E-09 -1.29161E-09 -1.27460E-09 -1.25723E-09 -1.23952E-09 -1.22147E-09
  -1.20308E-09 -1.18437E-09 -1.16535E-09 -1.14601E-09 -1.12638E-09 -1.10644E-09 -1.08622E-09 -1.06571E-09 -1.04492E-09 -1.02387E-09
  -1.00256E-09 -9.80987E-10 -9.59171E-10 -9.37115E-10 -9.14824E-10 -8.92304E-10 -8.69569E-10 -8.46618E-10 -8.23465E-10 -8.00108E-10
  -7.76564E-10 -7.52833E-10 -7.28923E-10 -7.04843E-10 -6.80600E-10 -6.56199E-10 -6.31651E-10 -6.06957E-10 -5.82130E-10 -5.57169E-10
  -5.32092E-10 -5.06895E-10 -4.81594E-10 -4.56192E-10 -4.30690E-10 -4.05107E-10 -3.79442E-10 -3.53705E-10 -3.27900E-10 -3.02039E-10
  -2.76124E-10 -2.50164E-10 -2.24166E-10 -1.98135E-10 -1.72083E-10 -1.46011E-10 -1.19934E-10 -9.38490E-11 -6.77689E-11 -4.17002E-11
  -1.56473E-11  1.03806E-11  3.63725E-11
 Asp      Conc. = 2.72E-09
  -5.28906E-09 -5.40280E-09 -5.87992E-09 -5.92240E-09 -6.22477E-09 -6.33522E-09 -6.43983E-09 -6.91103E-09 -7.15076E-09 -7.21013E-09
  -7.20200E-09 -7.16303E-09 -7.10762E-09 -7.03871E-09 -6.95554E-09 -6.87158E-09 -6.78568E-09 -6.69767E-09 -6.60780E-09 -6.51630E-09
  -6.42335E-09 -6.32906E-09 -6.23348E-09 -6.13658E-09 -6.03828E-09 -5.93848E-09 -5.83693E-09 -5.73335E-09 -5.62727E-09 -5.51805E-09
  -5.40477E-09 -5.28603E-09 -5.15958E-09 -5.02171E-09 -4.86528E-09 -4.67481E-09 -4.40813E-09 -4.03169E-09 -3.81477E-09 -3.60601E-09
  -3.55162E-09 -3.46795E-09 -3.23521E-09 -2.62481E-09 -2.04324E-09 -9.89941E-10 -4.01544E-10 -6.56705E-10 -9.82020E-10 -4.11190E-10
  -1.76552E-10  9.12488E-11  6.09487E-10  9.00528E-10  6.67179E-10  3.79469E-10 -6.98513E-10 -1.14042E-09 -7.84929E-10 -6.98311E-10
  -1.38105E-09 -1.48747E-09 -1.57018E-09 -1.86784E-09 -1.76995E-09 -1.51276E-09 -1.53445E-09 -1.68523E-09 -1.73380E-09 -1.73532E-09
  -1.71208E-09 -1.67405E-09 -1.62643E-09 -1.57212E-09 -1.51306E-09 -1.45051E-09 -1.38534E-09 -1.31820E-09 -1.24956E-09 -1.17981E-09
  -1.10922E-09 -1.03804E-09 -9.66444E-10 -8.94593E-10 -8.22636E-10 -7.50668E-10 -6.78789E-10 -6.07096E-10 -5.35657E-10 -4.64538E-10
  -3.93795E-10 -3.23506E-10 -2.53685E-10 -1.84430E-10 -1.15739E-10 -4.76626E-11  1.97421E-11  8.64519E-11  1.52426E-10  2.17628E-10
   2.82033E-10  3.45606E-10  4.08321E-10  4.70130E-10  5.31037E-10  5.90987E-10  6.49966E-10  7.07921E-10  7.64850E-10  8.20756E-10
   8.75541E-10  9.29242E-10  9.81814E-10  1.03323E-09  1.08346E-09  1.13248E-09  1.18027E-09  1.22680E-09  1.27207E-09  1.31600E-09
   1.35865E-09  1.39992E-09  1.43984E-09  1.47835E-09  1.51545E-09  1.55111E-09  1.58532E-09  1.61803E-09  1.64923E-09  1.67891E-09
   1.70704E-09  1.73361E-09  1.75857E-09  1.78193E-09  1.80364E-09  1.82373E-09  1.84210E-09  1.85880E-09  1.87379E-09  1.88706E-09
   1.89857E-09  1.90831E-09  1.91627E-09  1.92247E-09  1.92685E-09  1.92941E-09  1.93017E-09  1.92917E-09  1.92650E-09  1.92220E-09
   1.91635E-09  1.90904E-09  1.90037E-09  1.89046E-09  1.87944E-09  1.86750E-09  1.85488E-09  1.84188E-09  1.82896E-09  1.81675E-09
   1.80629E-09  1.79921E-09  1.79845E-09  1.80973E-09  1.84571E-09  1.94055E-09  2.21865E-09  3.37621E-09  5.09741E-09  5.34142E-09
   5.05364E-09  4.96330E-09  5.07233E-09  5.17505E-09  5.22258E-09  5.43050E-09  5.92742E-09  6.11571E-09  4.56987E-09  2.20180E-09
   1.59540E-09  1.34524E-09  1.19974E-09  1.09659E-09  1.01413E-09  9.43097E-10  8.78894E-10  8.19031E-10  7.62074E-10  7.07125E-10
   6.53604E-10  6.01150E-10  5.49507E-10  4.98509E-10  4.48028E-10  3.97996E-10  3.48369E-10  2.99100E-10  2.50180E-10  2.01613E-10
   1.53398E-10  1.05543E-10  5.80594E-11  1.09730E-11 -3.56875E-11 -8.19144E-11 -1.27669E-10 -1.72923E-10 -2.17643E-10 -2.61810E-10
  -3.05376E-10 -3.48321E-10 -3.90606E-10 -4.32196E-10 -4.73051E-10 -5.13148E-10 -5.52441E-10 -5.90897E-10 -6.28486E-10 -6.65201E-10
  -7.01044E-10 -7.36034E-10 -7.70164E-10 -8.03453E-10 -8.35894E-10 -8.67508E-10 -8.98293E-10 -9.28255E-10 -9.57403E-10 -9.85739E-10
