 LCModel (Version 6.3-1R) Copyright: S.W. Provencher.          Ref.: Magn. Reson. Med. 30:672-679 (1993).                
 onepulse 10x20_ftSpec_smooth_lcm
 26 lines in following concentration table = NCONC+1
    Conc.  %SD /Cr+PCr  Metabolite                                         
    0.000 999%   0.000 Ala                                                 
    0.000 999%   0.000 Asp                                                 
 3.05E-11 897%   1.000 Cr                                                  
 5.63E-10 101%  18.457 GABA                                                
 5.99E-10 129%  19.648 Glc                                                 
    0.000 999%   0.000 Gln                                                 
    0.000 999%   0.000 Glu                                                 
    0.000 999%   0.000 Glyc                                                
 6.32E-11 141%   2.072 GPC                                                 
    0.000 999%   0.000 GSH                                                 
 1.03E-09  47%  33.641 Ins                                                 
    0.000 999%   0.000 Lac                                                 
    0.000 999%   0.000 NAAG                                                
 3.54E-10  64%  11.605 NAA                                                 
    0.000 999%   0.000 PCh                                                 
    0.000 999%   0.000 PCr                                                 
    0.000 999%   0.000 PE                                                  
 5.93E-11 299%   1.945 Scyllo                                              
 4.15E-09  22% 135.898 Ser                                                 
    0.000 999%   0.000 Tau                                                 
 6.32E-11 141%   2.072 GPC+PCh                                             
 3.54E-10  64%  11.605 NAA+NAAG                                            
 1.03E-09  47%  33.641 Ins+Glyc                                            
 3.05E-11 897%   1.000 Cr+PCr                                              
    0.000 999%   0.000 Glu+Gln                                             
   6 lines in following misc. output table
  FWHM = 0.112 ppm    S/N =   2                                            
  Data shift = 0.347 ppm                                                   
  Ph: -11 deg     -28.0 deg/ppm                                            
  alphaB,S = 6.8E-01,   1.5E+01                                            
    8 spline knots.   Ns = 5(1)                                            
  (10) 2 infls.   ( 9) 1 extrs.                                            
  363 points on ppm-axis = NY
      4.250000     4.238821     4.227641     4.216462     4.205282     4.194103     4.182923     4.171744     4.160564     4.149385
      4.138206     4.127026     4.115847     4.104667     4.093488     4.082308     4.071129     4.059949     4.048770     4.037591
      4.026411     4.015232     4.004052     3.992873     3.981693     3.970514     3.959334     3.948155     3.936975     3.925796
      3.914617     3.903437     3.892258     3.881078     3.869899     3.858719     3.847540     3.836360     3.825181     3.814002
      3.802822     3.791643     3.780463     3.769284     3.758104     3.746925     3.735745     3.724566     3.713387     3.702207
      3.691028     3.679848     3.668669     3.657489     3.646310     3.635130     3.623951     3.612772     3.601592     3.590413
      3.579233     3.568054     3.556874     3.545695     3.534515     3.523336     3.512156     3.500977     3.489798     3.478618
      3.467439     3.456259     3.445080     3.433900     3.422721     3.411541     3.400362     3.389183     3.378003     3.366824
      3.355644     3.344465     3.333285     3.322106     3.310926     3.299747     3.288568     3.277388     3.266209     3.255029
      3.243850     3.232670     3.221491     3.210311     3.199132     3.187953     3.176773     3.165594     3.154414     3.143235
      3.132055     3.120876     3.109696     3.098517     3.087337     3.076158     3.064979     3.053799     3.042620     3.031440
      3.020261     3.009081     2.997902     2.986722     2.975543     2.964364     2.953184     2.942005     2.930825     2.919646
      2.908466     2.897287     2.886107     2.874928     2.863749     2.852569     2.841390     2.830210     2.819031     2.807851
      2.796672     2.785492     2.774313     2.763134     2.751954     2.740775     2.729595     2.718416     2.707236     2.696057
      2.684877     2.673698     2.662519     2.651339     2.640160     2.628980     2.617801     2.606621     2.595442     2.584262
      2.573083     2.561903     2.550724     2.539545     2.528365     2.517186     2.506006     2.494827     2.483647     2.472468
      2.461288     2.450109     2.438930     2.427750     2.416571     2.405391     2.394212     2.383032     2.371853     2.360673
      2.349494     2.338315     2.327135     2.315956     2.304776     2.293597     2.282417     2.271238     2.260058     2.248879
      2.237700     2.226520     2.215341     2.204161     2.192982     2.181802     2.170623     2.159443     2.148264     2.137084
      2.125905     2.114726     2.103546     2.092367     2.081187     2.070008     2.058828     2.047649     2.036469     2.025290
      2.014111     2.002931     1.991752     1.980572     1.969393     1.958213     1.947034     1.935854     1.924675     1.913496
      1.902316     1.891137     1.879957     1.868778     1.857598     1.846419     1.835239     1.824060     1.812881     1.801701
      1.790522     1.779342     1.768163     1.756983     1.745804     1.734624     1.723445     1.712265     1.701086     1.689907
      1.678727     1.667548     1.656368     1.645189     1.634009     1.622830     1.611650     1.600471     1.589292     1.578112
      1.566933     1.555753     1.544574     1.533394     1.522215     1.511035     1.499856     1.488677     1.477497     1.466318
      1.455138     1.443959     1.432779     1.421600     1.410420     1.399241     1.388062     1.376882     1.365703     1.354523
      1.343344     1.332164     1.320985     1.309805     1.298626     1.287446     1.276267     1.265088     1.253908     1.242729
      1.231549     1.220370     1.209190     1.198011     1.186831     1.175652     1.164473     1.153293     1.142114     1.130934
      1.119755     1.108575     1.097396     1.086216     1.075037     1.063858     1.052678     1.041499     1.030319     1.019140
      1.007960     0.996781     0.985601     0.974422     0.963243     0.952063     0.940884     0.929704     0.918525     0.907345
      0.896166     0.884986     0.873807     0.862628     0.851448     0.840269     0.829089     0.817910     0.806730     0.795551
      0.784371     0.773192     0.762012     0.750833     0.739654     0.728474     0.717295     0.706115     0.694936     0.683756
      0.672577     0.661397     0.650218     0.639039     0.627859     0.616680     0.605500     0.594321     0.583141     0.571962
      0.560782     0.549603     0.538424     0.527244     0.516065     0.504885     0.493706     0.482526     0.471347     0.460167
      0.448988     0.437809     0.426629     0.415450     0.404270     0.393091     0.381911     0.370732     0.359552     0.348373
      0.337193     0.326014     0.314835     0.303655     0.292476     0.281296     0.270117     0.258937     0.247758     0.236578
      0.225399     0.214220     0.203040
 NY phased data points follow
   1.05975E-08  8.17378E-09  1.12615E-08  8.90163E-09  1.15629E-08  9.43287E-09  1.16876E-08  9.48605E-09  1.12101E-08  9.31667E-09
   1.13530E-08  9.36958E-09  1.14668E-08  9.02326E-09  1.09523E-08  9.30566E-09  1.10843E-08  8.89136E-09  1.09681E-08  9.23285E-09
   1.11236E-08  9.28385E-09  1.16180E-08  9.05864E-09  1.09867E-08  8.80306E-09  1.08358E-08  8.88815E-09  1.07983E-08  8.97000E-09
   1.05257E-08  8.66933E-09  9.66536E-09  9.10557E-09  1.03895E-08  9.38334E-09  1.11708E-08  9.37739E-09  1.12502E-08  9.01437E-09
   1.07114E-08  8.88143E-09  1.06146E-08  8.91992E-09  1.04055E-08  8.51599E-09  9.80630E-09  8.66204E-09  9.51733E-09  8.22175E-09
   8.71522E-09  7.61056E-09  8.95094E-09  7.55873E-09  8.61622E-09  7.10822E-09  8.53264E-09  6.97461E-09  7.88841E-09  6.72336E-09
   7.52400E-09  6.68957E-09  7.37417E-09  5.97165E-09  8.10462E-09  6.73927E-09  8.45249E-09  7.25061E-09  8.52539E-09  7.67431E-09
   8.73794E-09  7.93819E-09  8.59424E-09  6.96859E-09  8.05098E-09  6.54813E-09  7.62491E-09  6.43257E-09  7.54149E-09  6.46431E-09
   7.83379E-09  6.96498E-09  8.97621E-09  8.31784E-09  1.01818E-08  9.28455E-09  1.08710E-08  9.67405E-09  1.10341E-08  9.57016E-09
   1.11068E-08  9.68027E-09  1.08500E-08  9.50344E-09  1.04804E-08  8.85145E-09  1.04523E-08  8.88510E-09  9.40801E-09  8.22893E-09
   9.38540E-09  7.55641E-09  9.18076E-09  7.56384E-09  8.30758E-09  7.42887E-09  8.27871E-09  6.82821E-09  7.90018E-09  6.62086E-09
   7.51213E-09  5.89577E-09  6.99422E-09  5.63833E-09  6.33484E-09  4.94694E-09  6.54746E-09  5.28818E-09  6.44962E-09  4.57736E-09
   6.46418E-09  5.08596E-09  6.00195E-09  4.63311E-09  5.90983E-09  4.30320E-09  5.50089E-09  4.05858E-09  5.57500E-09  4.23365E-09
   5.32449E-09  4.58496E-09  5.68327E-09  4.10896E-09  5.75738E-09  4.52998E-09  6.42561E-09  5.07549E-09  6.54551E-09  5.03303E-09
   6.61177E-09  5.93166E-09  7.31922E-09  6.12070E-09  7.77591E-09  6.54924E-09  8.05798E-09  7.06957E-09  8.78285E-09  7.14890E-09
   8.86380E-09  8.17485E-09  9.28627E-09  7.61890E-09  9.43071E-09  7.57056E-09  9.25212E-09  7.71798E-09  8.84691E-09  7.67550E-09
   8.69320E-09  7.62313E-09  9.14818E-09  7.74080E-09  9.47977E-09  7.74394E-09  9.22322E-09  8.11824E-09  9.87703E-09  8.80628E-09
   1.08386E-08  9.86562E-09  1.20337E-08  1.14496E-08  1.37096E-08  1.24851E-08  1.40302E-08  1.19169E-08  1.32217E-08  1.08376E-08
   1.14968E-08  9.65716E-09  1.00867E-08  7.35306E-09  7.17160E-09  4.84623E-09  4.33783E-09  1.52160E-09  1.55372E-09 -1.51530E-09
  -1.56391E-09 -4.48524E-09 -4.67307E-09 -6.74218E-09 -6.66856E-09 -8.91293E-09 -8.82433E-09 -1.03681E-08 -1.04352E-08 -1.20043E-08
  -1.14788E-08 -1.29865E-08 -1.20689E-08 -1.34241E-08 -1.25999E-08 -1.34586E-08 -1.19599E-08 -1.28796E-08 -1.10699E-08 -1.11962E-08
  -9.18100E-09 -9.31420E-09 -7.42502E-09 -6.97310E-09 -5.07502E-09 -5.39211E-09 -3.71986E-09 -4.41371E-09 -2.69576E-09 -3.31075E-09
  -2.29492E-09 -3.45277E-09 -1.86345E-09 -3.00082E-09 -1.89231E-09 -3.37311E-09 -2.31600E-09 -3.32286E-09 -2.38709E-09 -3.78009E-09
  -2.48994E-09 -3.44771E-09 -2.64496E-09 -3.59840E-09 -2.55214E-09 -3.29672E-09 -2.21084E-09 -3.10086E-09 -2.70780E-09 -3.56689E-09
  -2.56951E-09 -3.55518E-09 -2.70694E-09 -3.16359E-09 -2.30219E-09 -3.21194E-09 -2.54927E-09 -3.02574E-09 -2.40052E-09 -2.79793E-09
  -2.26305E-09 -3.02847E-09 -2.36410E-09 -3.28021E-09 -2.45177E-09 -2.78957E-09 -2.36164E-09 -3.03922E-09 -2.15823E-09 -3.05943E-09
  -2.38896E-09 -3.15847E-09 -2.60454E-09 -3.50972E-09 -2.82739E-09 -3.11821E-09 -2.64401E-09 -3.29659E-09 -2.44331E-09 -2.78592E-09
  -2.05255E-09 -2.71269E-09 -2.16417E-09 -2.88675E-09 -2.07306E-09 -2.44800E-09 -1.69458E-09 -2.26542E-09 -1.67147E-09 -2.25321E-09
  -1.74638E-09 -1.90854E-09 -1.45326E-09 -2.35319E-09 -1.90134E-09 -2.29475E-09 -2.34948E-09 -2.23565E-09 -2.57699E-09 -2.96699E-09
  -2.22440E-09 -2.91987E-09 -2.35775E-09 -2.29903E-09 -2.66458E-09 -2.39603E-09 -2.90947E-09 -2.65387E-09 -2.58749E-09 -2.88635E-09
  -2.67677E-09 -2.41681E-09 -3.50101E-09 -3.28007E-09 -2.82028E-09 -3.20912E-09 -2.47893E-09 -2.98255E-09 -2.78995E-09 -3.12374E-09
  -2.73400E-09 -2.50852E-09 -2.65177E-09 -2.79812E-09 -2.73374E-09 -3.05542E-09 -3.36496E-09 -2.06248E-09 -2.97748E-09 -2.43581E-09
  -3.09311E-09 -2.73526E-09 -2.89379E-09 -2.71043E-09 -2.94342E-09 -2.58103E-09 -3.21628E-09 -1.70576E-09 -2.97081E-09 -2.36586E-09
  -2.54650E-09 -2.26385E-09 -2.63109E-09 -1.83818E-09 -2.59445E-09 -1.92842E-09 -2.18155E-09 -1.91476E-09 -2.20599E-09 -1.84193E-09
  -2.59797E-09 -1.45414E-09 -2.05002E-09 -2.00539E-09 -1.96152E-09 -1.51022E-09 -2.04847E-09 -1.62406E-09 -2.01355E-09 -1.13633E-09
  -1.68807E-09 -1.28161E-09 -1.15117E-09 -1.20181E-09 -1.20121E-09 -1.04825E-09 -1.73199E-09 -8.49000E-10 -1.66668E-09 -1.15465E-09
  -1.22456E-09 -7.45924E-10 -9.62272E-10
 NY points of the fit to the data follow
   8.95922E-09  1.11125E-08  1.16804E-08  1.02357E-08  1.00637E-08  1.12019E-08  1.18148E-08  1.10892E-08  1.01152E-08  9.65511E-09
   9.19993E-09  8.83469E-09  8.45822E-09  8.58418E-09  9.19087E-09  9.71311E-09  9.87139E-09  1.05403E-08  1.13283E-08  1.10456E-08
   1.03635E-08  1.00198E-08  9.92101E-09  9.87637E-09  9.88534E-09  9.80922E-09  9.71306E-09  9.69140E-09  9.61598E-09  9.42900E-09
   9.52632E-09  9.65673E-09  9.89698E-09  1.02248E-08  1.02354E-08  9.91045E-09  9.71438E-09  9.62183E-09  9.58088E-09  9.55873E-09
   9.48027E-09  9.49431E-09  9.53587E-09  9.25614E-09  9.00510E-09  8.94063E-09  8.76530E-09  8.53634E-09  8.36059E-09  8.25425E-09
   8.18672E-09  8.15242E-09  8.14041E-09  8.09243E-09  7.98020E-09  7.86527E-09  7.79815E-09  7.79839E-09  7.83815E-09  7.84755E-09
   7.78796E-09  7.72968E-09  7.77053E-09  7.74741E-09  7.74663E-09  7.98209E-09  8.16772E-09  8.18441E-09  8.25169E-09  8.32209E-09
   8.43367E-09  8.53798E-09  8.52354E-09  8.36628E-09  8.35426E-09  8.15887E-09  7.74943E-09  7.98118E-09  8.41650E-09  8.58238E-09
   8.67541E-09  8.69703E-09  8.75087E-09  9.03628E-09  9.42184E-09  9.82437E-09  1.02960E-08  1.04491E-08  9.84047E-09  9.36131E-09
   9.14797E-09  9.01792E-09  9.04319E-09  9.00544E-09  8.82304E-09  8.80733E-09  8.78444E-09  8.61178E-09  8.51041E-09  8.44030E-09
   8.33793E-09  8.24775E-09  8.17059E-09  8.10273E-09  8.04150E-09  7.98494E-09  7.93177E-09  7.88118E-09  7.83247E-09  7.78512E-09
   7.73881E-09  7.69289E-09  7.64711E-09  7.60121E-09  7.55499E-09  7.50835E-09  7.46112E-09  7.41308E-09  7.36406E-09  7.31401E-09
   7.26271E-09  7.21014E-09  7.15616E-09  7.10070E-09  7.04366E-09  6.98494E-09  6.92444E-09  6.86214E-09  6.79793E-09  6.73174E-09
   6.66351E-09  6.59314E-09  6.52063E-09  6.44588E-09  6.36883E-09  6.28940E-09  6.20762E-09  6.12333E-09  6.03655E-09  5.94718E-09
   5.85522E-09  5.76061E-09  5.66333E-09  5.56327E-09  5.46048E-09  5.35488E-09  5.24651E-09  5.13545E-09  5.02183E-09  4.90578E-09
   4.78742E-09  4.66695E-09  4.54452E-09  4.42039E-09  4.29480E-09  4.16812E-09  4.04080E-09  3.91343E-09  3.78689E-09  3.66247E-09
   3.54217E-09  3.42945E-09  3.33055E-09  3.25835E-09  3.24370E-09  3.38137E-09  4.11112E-09  6.95590E-09  9.91438E-09  1.10306E-08
   1.11192E-08  1.11655E-08  1.16548E-08  1.26255E-08  1.38854E-08  1.49413E-08  1.48948E-08  1.21580E-08  6.42651E-09  2.81276E-09
   1.70875E-09  1.15978E-09  7.96245E-10  5.15500E-10  2.78707E-10  6.81628E-11 -1.25265E-10 -3.06702E-10 -4.79311E-10 -6.45007E-10
  -8.05040E-10 -9.60311E-10 -1.11137E-09 -1.25862E-09 -1.40231E-09 -1.54266E-09 -1.67979E-09 -1.81373E-09 -1.94454E-09 -2.07227E-09
  -2.19689E-09 -2.31837E-09 -2.43669E-09 -2.55180E-09 -2.66368E-09 -2.77224E-09 -2.87745E-09 -2.97926E-09 -3.07760E-09 -3.17237E-09
  -3.26358E-09 -3.35110E-09 -3.43491E-09 -3.51493E-09 -3.59112E-09 -3.66338E-09 -3.73167E-09 -3.79596E-09 -3.85614E-09 -3.91232E-09
  -3.96456E-09 -4.01296E-09 -4.05759E-09 -4.09856E-09 -4.13594E-09 -4.16984E-09 -4.20033E-09 -4.22751E-09 -4.25147E-09 -4.27228E-09
  -4.29006E-09 -4.30488E-09 -4.31683E-09 -4.32600E-09 -4.33248E-09 -4.33635E-09 -4.33772E-09 -4.33665E-09 -4.33324E-09 -4.32758E-09
  -4.31974E-09 -4.30984E-09 -4.29794E-09 -4.28412E-09 -4.26847E-09 -4.25109E-09 -4.23204E-09 -4.21142E-09 -4.18930E-09 -4.16577E-09
  -4.14091E-09 -4.11478E-09 -4.08750E-09 -4.05909E-09 -4.02966E-09 -3.99930E-09 -3.96806E-09 -3.93602E-09 -3.90325E-09 -3.86982E-09
  -3.83581E-09 -3.80128E-09 -3.76631E-09 -3.73095E-09 -3.69526E-09 -3.65931E-09 -3.62319E-09 -3.58691E-09 -3.55056E-09 -3.51420E-09
  -3.47786E-09 -3.44162E-09 -3.40553E-09 -3.36962E-09 -3.33397E-09 -3.29859E-09 -3.26356E-09 -3.22892E-09 -3.19468E-09 -3.16091E-09
  -3.12765E-09 -3.09492E-09 -3.06277E-09 -3.03121E-09 -3.00029E-09 -2.97004E-09 -2.94049E-09 -2.91162E-09 -2.88351E-09 -2.85616E-09
  -2.82957E-09 -2.80375E-09 -2.77866E-09 -2.75424E-09 -2.73046E-09 -2.70728E-09 -2.68463E-09 -2.66250E-09 -2.64084E-09 -2.61960E-09
  -2.59875E-09 -2.57824E-09 -2.55805E-09 -2.53812E-09 -2.51841E-09 -2.49890E-09 -2.47955E-09 -2.46032E-09 -2.44116E-09 -2.42206E-09
  -2.40298E-09 -2.38388E-09 -2.36473E-09 -2.34550E-09 -2.32615E-09 -2.30666E-09 -2.28701E-09 -2.26714E-09 -2.24706E-09 -2.22671E-09
  -2.20609E-09 -2.18515E-09 -2.16389E-09 -2.14228E-09 -2.12028E-09 -2.09788E-09 -2.07507E-09 -2.05182E-09 -2.02811E-09 -2.00391E-09
  -1.97923E-09 -1.95404E-09 -1.92831E-09 -1.90205E-09 -1.87524E-09 -1.84786E-09 -1.81990E-09 -1.79136E-09 -1.76222E-09 -1.73246E-09
  -1.70211E-09 -1.67112E-09 -1.63952E-09 -1.60729E-09 -1.57441E-09 -1.54091E-09 -1.50677E-09 -1.47200E-09 -1.43659E-09 -1.40054E-09
  -1.36387E-09 -1.32656E-09 -1.28864E-09 -1.25010E-09 -1.21095E-09 -1.17119E-09 -1.13085E-09 -1.08992E-09 -1.04843E-09 -1.00637E-09
  -9.63773E-10 -9.20643E-10 -8.76999E-10
 NY background values follow
     1.884E-09    1.982E-09    2.079E-09    2.175E-09    2.270E-09    2.364E-09    2.457E-09    2.548E-09    2.639E-09    2.728E-09
     2.816E-09    2.902E-09    2.988E-09    3.072E-09    3.155E-09    3.237E-09    3.318E-09    3.398E-09    3.476E-09    3.553E-09
     3.629E-09    3.704E-09    3.777E-09    3.850E-09    3.921E-09    3.991E-09    4.059E-09    4.127E-09    4.193E-09    4.259E-09
     4.323E-09    4.385E-09    4.447E-09    4.508E-09    4.567E-09    4.625E-09    4.682E-09    4.738E-09    4.793E-09    4.847E-09
     4.900E-09    4.951E-09    5.002E-09    5.052E-09    5.100E-09    5.148E-09    5.194E-09    5.240E-09    5.284E-09    5.328E-09
     5.370E-09    5.412E-09    5.453E-09    5.493E-09    5.532E-09    5.570E-09    5.607E-09    5.644E-09    5.679E-09    5.714E-09
     5.749E-09    5.782E-09    5.815E-09    5.847E-09    5.878E-09    5.909E-09    5.939E-09    5.968E-09    5.997E-09    6.026E-09
     6.053E-09    6.081E-09    6.107E-09    6.134E-09    6.160E-09    6.185E-09    6.210E-09    6.234E-09    6.258E-09    6.281E-09
     6.304E-09    6.326E-09    6.347E-09    6.368E-09    6.388E-09    6.408E-09    6.427E-09    6.445E-09    6.462E-09    6.478E-09
     6.494E-09    6.509E-09    6.522E-09    6.535E-09    6.547E-09    6.558E-09    6.568E-09    6.577E-09    6.584E-09    6.591E-09
     6.596E-09    6.600E-09    6.603E-09    6.605E-09    6.605E-09    6.604E-09    6.601E-09    6.597E-09    6.591E-09    6.584E-09
     6.575E-09    6.565E-09    6.553E-09    6.539E-09    6.523E-09    6.506E-09    6.486E-09    6.465E-09    6.442E-09    6.417E-09
     6.389E-09    6.360E-09    6.329E-09    6.295E-09    6.259E-09    6.221E-09    6.181E-09    6.138E-09    6.092E-09    6.045E-09
     5.995E-09    5.942E-09    5.886E-09    5.828E-09    5.768E-09    5.704E-09    5.638E-09    5.569E-09    5.497E-09    5.423E-09
     5.345E-09    5.264E-09    5.181E-09    5.094E-09    5.004E-09    4.911E-09    4.815E-09    4.716E-09    4.614E-09    4.509E-09
     4.401E-09    4.291E-09    4.178E-09    4.062E-09    3.944E-09    3.824E-09    3.701E-09    3.576E-09    3.450E-09    3.321E-09
     3.191E-09    3.058E-09    2.925E-09    2.790E-09    2.653E-09    2.515E-09    2.376E-09    2.236E-09    2.095E-09    1.953E-09
     1.810E-09    1.667E-09    1.523E-09    1.379E-09    1.235E-09    1.090E-09    9.455E-10    8.009E-10    6.565E-10    5.123E-10
     3.685E-10    2.252E-10    8.256E-11   -5.938E-11   -2.005E-10   -3.407E-10   -4.798E-10   -6.178E-10   -7.545E-10   -8.898E-10
    -1.024E-09   -1.156E-09   -1.286E-09   -1.415E-09   -1.542E-09   -1.667E-09   -1.790E-09   -1.910E-09   -2.028E-09   -2.144E-09
    -2.258E-09   -2.368E-09   -2.476E-09   -2.582E-09   -2.684E-09   -2.783E-09   -2.880E-09   -2.973E-09   -3.063E-09   -3.150E-09
    -3.233E-09   -3.313E-09   -3.389E-09   -3.462E-09   -3.531E-09   -3.597E-09   -3.658E-09   -3.716E-09   -3.769E-09   -3.819E-09
    -3.865E-09   -3.907E-09   -3.946E-09   -3.981E-09   -4.012E-09   -4.040E-09   -4.065E-09   -4.086E-09   -4.105E-09   -4.120E-09
    -4.133E-09   -4.142E-09   -4.149E-09   -4.153E-09   -4.154E-09   -4.153E-09   -4.149E-09   -4.143E-09   -4.135E-09   -4.125E-09
    -4.112E-09   -4.097E-09   -4.081E-09   -4.063E-09   -4.042E-09   -4.020E-09   -3.997E-09   -3.972E-09   -3.946E-09   -3.918E-09
    -3.889E-09   -3.858E-09   -3.827E-09   -3.795E-09   -3.761E-09   -3.727E-09   -3.692E-09   -3.656E-09   -3.619E-09   -3.582E-09
    -3.544E-09   -3.506E-09   -3.467E-09   -3.428E-09   -3.389E-09   -3.349E-09   -3.310E-09   -3.270E-09   -3.230E-09   -3.190E-09
    -3.151E-09   -3.111E-09   -3.072E-09   -3.033E-09   -2.994E-09   -2.955E-09   -2.917E-09   -2.879E-09   -2.842E-09   -2.805E-09
    -2.769E-09   -2.733E-09   -2.698E-09   -2.663E-09   -2.630E-09   -2.596E-09   -2.564E-09   -2.532E-09   -2.502E-09   -2.471E-09
    -2.442E-09   -2.414E-09   -2.386E-09   -2.359E-09   -2.332E-09   -2.307E-09   -2.282E-09   -2.257E-09   -2.233E-09   -2.209E-09
    -2.186E-09   -2.163E-09   -2.140E-09   -2.118E-09   -2.096E-09   -2.074E-09   -2.053E-09   -2.031E-09   -2.010E-09   -1.989E-09
    -1.967E-09   -1.946E-09   -1.925E-09   -1.904E-09   -1.882E-09   -1.861E-09   -1.839E-09   -1.817E-09   -1.795E-09   -1.773E-09
    -1.750E-09   -1.728E-09   -1.705E-09   -1.681E-09   -1.657E-09   -1.633E-09   -1.609E-09   -1.584E-09   -1.558E-09   -1.532E-09
    -1.506E-09   -1.479E-09   -1.452E-09   -1.424E-09   -1.396E-09   -1.367E-09   -1.337E-09   -1.307E-09   -1.277E-09   -1.246E-09
    -1.214E-09   -1.181E-09   -1.148E-09   -1.115E-09   -1.081E-09   -1.046E-09   -1.010E-09   -9.745E-10   -9.378E-10   -9.006E-10
    -8.627E-10   -8.242E-10   -7.852E-10   -7.455E-10   -7.052E-10   -6.644E-10   -6.230E-10   -5.810E-10   -5.385E-10   -4.955E-10
    -4.519E-10   -4.078E-10   -3.632E-10
 Cr       Conc. = 3.05E-11
   1.91480E-09  2.05029E-09  2.17757E-09  2.25967E-09  2.32820E-09  2.40672E-09  2.48931E-09  2.57350E-09  2.65817E-09  2.74271E-09
   2.82678E-09  2.91017E-09  2.99271E-09  3.07432E-09  3.15490E-09  3.23439E-09  3.31274E-09  3.38991E-09  3.46585E-09  3.54052E-09
   3.61386E-09  3.68584E-09  3.75638E-09  3.82541E-09  3.89281E-09  3.95845E-09  4.02211E-09  4.08345E-09  4.14189E-09  4.19642E-09
   4.24529E-09  4.29344E-09  4.38989E-09  4.49020E-09  4.57212E-09  4.64188E-09  4.70745E-09  4.77748E-09  4.85577E-09  4.94600E-09
   5.04641E-09  5.14687E-09  5.20659E-09  5.19163E-09  5.20627E-09  5.23450E-09  5.26835E-09  5.30477E-09  5.34239E-09  5.38051E-09
   5.41868E-09  5.45669E-09  5.49433E-09  5.53152E-09  5.56820E-09  5.60428E-09  5.63976E-09  5.67465E-09  5.70884E-09  5.74242E-09
   5.77537E-09  5.80766E-09  5.83935E-09  5.87040E-09  5.90088E-09  5.93074E-09  5.96004E-09  5.98876E-09  6.01695E-09  6.04464E-09
   6.07180E-09  6.09848E-09  6.12473E-09  6.15052E-09  6.17587E-09  6.20078E-09  6.22520E-09  6.24914E-09  6.27256E-09  6.29545E-09
   6.31777E-09  6.33952E-09  6.36066E-09  6.38116E-09  6.40102E-09  6.42019E-09  6.43864E-09  6.45636E-09  6.47332E-09  6.48947E-09
   6.50478E-09  6.51925E-09  6.53279E-09  6.54545E-09  6.55711E-09  6.56777E-09  6.57741E-09  6.58598E-09  6.59344E-09  6.59975E-09
   6.60488E-09  6.60878E-09  6.61142E-09  6.61277E-09  6.61276E-09  6.61138E-09  6.60856E-09  6.60429E-09  6.59852E-09  6.59114E-09
   6.58223E-09  6.57165E-09  6.55937E-09  6.54537E-09  6.52960E-09  6.51201E-09  6.49256E-09  6.47121E-09  6.44789E-09  6.42261E-09
   6.39523E-09  6.36580E-09  6.33421E-09  6.30046E-09  6.26448E-09  6.22621E-09  6.18561E-09  6.14268E-09  6.09732E-09  6.04951E-09
   5.99920E-09  5.94633E-09  5.89089E-09  5.83282E-09  5.77206E-09  5.70855E-09  5.64234E-09  5.57328E-09  5.50138E-09  5.42657E-09
   5.34883E-09  5.26813E-09  5.18441E-09  5.09761E-09  5.00773E-09  4.91471E-09  4.81856E-09  4.71934E-09  4.61715E-09  4.51207E-09
   4.40420E-09  4.29364E-09  4.18046E-09  4.06478E-09  3.94669E-09  3.82629E-09  3.70367E-09  3.57895E-09  3.45223E-09  3.32362E-09
   3.19321E-09  3.06116E-09  2.92758E-09  2.79266E-09  2.65668E-09  2.52038E-09  2.38709E-09  2.26547E-09  2.13548E-09  1.99604E-09
   1.85366E-09  1.71169E-09  1.57186E-09  1.43358E-09  1.29596E-09  1.15607E-09  1.00905E-09  8.46451E-10  6.72691E-10  5.20879E-10
   3.74417E-10  2.29814E-10  8.63307E-11 -5.61496E-11 -1.97656E-10 -3.38137E-10 -4.77504E-10 -6.15638E-10 -7.52508E-10 -8.87979E-10
  -1.02193E-09 -1.15430E-09 -1.28496E-09 -1.41382E-09 -1.54075E-09 -1.66568E-09 -1.78853E-09 -1.90913E-09 -2.02742E-09 -2.14333E-09
  -2.25672E-09 -2.36752E-09 -2.47563E-09 -2.58095E-09 -2.68341E-09 -2.78289E-09 -2.87932E-09 -2.97263E-09 -3.06272E-09 -3.14948E-09
  -3.23289E-09 -3.31283E-09 -3.38922E-09 -3.46200E-09 -3.53111E-09 -3.59644E-09 -3.65795E-09 -3.71559E-09 -3.76926E-09 -3.81904E-09
  -3.86499E-09 -3.90721E-09 -3.94577E-09 -3.98077E-09 -4.01227E-09 -4.04039E-09 -4.06520E-09 -4.08677E-09 -4.10520E-09 -4.12057E-09
  -4.13298E-09 -4.14251E-09 -4.14924E-09 -4.15326E-09 -4.15465E-09 -4.15351E-09 -4.14993E-09 -4.14397E-09 -4.13574E-09 -4.12531E-09
  -4.11277E-09 -4.09822E-09 -4.08172E-09 -4.06337E-09 -4.04324E-09 -4.02142E-09 -3.99800E-09 -3.97305E-09 -3.94666E-09 -3.91889E-09
  -3.88985E-09 -3.85959E-09 -3.82822E-09 -3.79577E-09 -3.76235E-09 -3.72804E-09 -3.69289E-09 -3.65699E-09 -3.62040E-09 -3.58318E-09
  -3.54543E-09 -3.50721E-09 -3.46858E-09 -3.42960E-09 -3.39033E-09 -3.35085E-09 -3.31122E-09 -3.27148E-09 -3.23170E-09 -3.19195E-09
  -3.15227E-09 -3.11271E-09 -3.07334E-09 -3.03418E-09 -2.99532E-09 -2.95677E-09 -2.91860E-09 -2.88085E-09 -2.84354E-09 -2.80673E-09
  -2.77046E-09 -2.73476E-09 -2.69967E-09 -2.66520E-09 -2.63141E-09 -2.59831E-09 -2.56594E-09 -2.53429E-09 -2.50343E-09 -2.47336E-09
  -2.44407E-09 -2.41560E-09 -2.38787E-09 -2.36085E-09 -2.33450E-09 -2.30877E-09 -2.28361E-09 -2.25900E-09 -2.23488E-09 -2.21121E-09
  -2.18796E-09 -2.16508E-09 -2.14254E-09 -2.12029E-09 -2.09830E-09 -2.07652E-09 -2.05493E-09 -2.03349E-09 -2.01216E-09 -1.99090E-09
  -1.96969E-09 -1.94849E-09 -1.92726E-09 -1.90598E-09 -1.88461E-09 -1.86312E-09 -1.84149E-09 -1.81968E-09 -1.79767E-09 -1.77542E-09
  -1.75293E-09 -1.73014E-09 -1.70706E-09 -1.68364E-09 -1.65987E-09 -1.63572E-09 -1.61118E-09 -1.58622E-09 -1.56083E-09 -1.53499E-09
  -1.50867E-09 -1.48187E-09 -1.45456E-09 -1.42674E-09 -1.39839E-09 -1.36949E-09 -1.34004E-09 -1.31003E-09 -1.27944E-09 -1.24826E-09
  -1.21650E-09 -1.18414E-09 -1.15118E-09 -1.11761E-09 -1.08343E-09 -1.04864E-09 -1.01323E-09 -9.77211E-10 -9.40574E-10 -9.03327E-10
  -8.65472E-10 -8.27009E-10 -7.87946E-10 -7.48287E-10 -7.08042E-10 -6.67216E-10 -6.25821E-10 -5.83864E-10 -5.41357E-10 -4.98314E-10
  -4.54746E-10 -4.10669E-10 -3.66098E-10
 GABA     Conc. = 5.63E-10
   1.60926E-09  1.70269E-09  1.79478E-09  1.88549E-09  1.97480E-09  2.06269E-09  2.14909E-09  2.23399E-09  2.31734E-09  2.39909E-09
   2.47921E-09  2.55761E-09  2.63428E-09  2.70911E-09  2.78203E-09  2.85300E-09  2.92179E-09  2.98831E-09  3.05247E-09  3.11400E-09
   3.17265E-09  3.22818E-09  3.28017E-09  3.32809E-09  3.37141E-09  3.40923E-09  3.44070E-09  3.46574E-09  3.49032E-09  3.58390E-09
   3.70788E-09  3.73684E-09  3.86457E-09  4.11670E-09  4.29154E-09  4.46219E-09  4.69885E-09  4.96079E-09  5.21790E-09  5.42366E-09
   5.52667E-09  5.69717E-09  5.90836E-09  5.82709E-09  5.73383E-09  5.79376E-09  5.74354E-09  5.64497E-09  5.58503E-09  5.54883E-09
   5.52727E-09  5.51507E-09  5.50869E-09  5.50622E-09  5.50629E-09  5.50755E-09  5.50914E-09  5.51042E-09  5.51086E-09  5.51155E-09
   5.51751E-09  5.55990E-09  5.71090E-09  5.78797E-09  5.83178E-09  6.06614E-09  6.26638E-09  6.37689E-09  6.53687E-09  6.72956E-09
   6.92084E-09  7.07067E-09  7.10845E-09  7.06598E-09  7.17583E-09  7.11277E-09  6.83041E-09  6.78694E-09  6.75671E-09  6.64109E-09
   6.62054E-09  6.58061E-09  6.52668E-09  6.61289E-09  6.68782E-09  6.69693E-09  6.78935E-09  6.90356E-09  6.99919E-09  7.11896E-09
   7.19200E-09  7.23808E-09  7.38818E-09  7.44662E-09  7.34245E-09  7.39283E-09  7.42729E-09  7.30546E-09  7.24986E-09  7.22150E-09
   7.15759E-09  7.10316E-09  7.05944E-09  7.02307E-09  6.99161E-09  6.96333E-09  6.93714E-09  6.91233E-09  6.88835E-09  6.86478E-09
   6.84138E-09  6.81757E-09  6.79317E-09  6.76798E-09  6.74184E-09  6.71469E-09  6.68642E-09  6.65682E-09  6.62577E-09  6.59323E-09
   6.55900E-09  6.52312E-09  6.48544E-09  6.44591E-09  6.40445E-09  6.36097E-09  6.31541E-09  6.26774E-09  6.21786E-09  6.16572E-09
   6.11126E-09  6.05441E-09  5.99515E-09  5.93341E-09  5.86912E-09  5.80221E-09  5.73273E-09  5.66051E-09  5.58556E-09  5.50780E-09
   5.42722E-09  5.34377E-09  5.25740E-09  5.16802E-09  5.07565E-09  4.98023E-09  4.88174E-09  4.78027E-09  4.67590E-09  4.56873E-09
   4.45885E-09  4.34635E-09  4.23132E-09  4.11388E-09  3.99414E-09  3.87221E-09  3.74822E-09  3.62231E-09  3.49466E-09  3.36547E-09
   3.23500E-09  3.10371E-09  2.97228E-09  2.84218E-09  2.71692E-09  2.60820E-09  2.57730E-09  2.77605E-09  2.83688E-09  2.73948E-09
   2.60132E-09  2.48182E-09  2.41027E-09  2.37420E-09  2.35462E-09  2.29519E-09  2.10414E-09  1.62530E-09  9.45470E-10  6.61626E-10
   4.68159E-10  3.00047E-10  1.42425E-10 -9.58130E-12 -1.58018E-10 -3.03832E-10 -4.47477E-10 -5.89159E-10 -7.29050E-10 -8.67148E-10
  -1.00342E-09 -1.13788E-09 -1.27044E-09 -1.40104E-09 -1.52958E-09 -1.65602E-09 -1.78028E-09 -1.90221E-09 -2.02176E-09 -2.13887E-09
  -2.25342E-09 -2.36532E-09 -2.47448E-09 -2.58082E-09 -2.68426E-09 -2.78469E-09 -2.88205E-09 -2.97625E-09 -3.06721E-09 -3.15481E-09
  -3.23905E-09 -3.31978E-09 -3.39695E-09 -3.47049E-09 -3.54035E-09 -3.60641E-09 -3.66863E-09 -3.72697E-09 -3.78132E-09 -3.83177E-09
  -3.87837E-09 -3.92124E-09 -3.96043E-09 -3.99605E-09 -4.02816E-09 -4.05688E-09 -4.08227E-09 -4.10441E-09 -4.12341E-09 -4.13934E-09
