 LCModel (Version 6.3-1R) Copyright: S.W. Provencher.          Ref.: Magn. Reson. Med. 30:672-679 (1993).                
 onepulse 11x17_ftSpec_smooth_lcm
 26 lines in following concentration table = NCONC+1
    Conc.  %SD   /Cr    Metabolite                                         
 4.74E-11 676%   0.000 Ala                                                 
 2.30E-09  27%   0.000 Asp                                                 
    0.000 999%   0.000 Cr                                                  
 2.80E-09  16%   0.000 GABA                                                
 1.51E-09  41%   0.000 Glc                                                 
    0.000 999%   0.000 Gln                                                 
    0.000 999%   0.000 Glu                                                 
    0.000 999%   0.000 Glyc                                                
 1.41E-10  63%   0.000 GPC                                                 
    0.000 999%   0.000 GSH                                                 
 4.82E-10  86%   0.000 Ins                                                 
    0.000 999%   0.000 Lac                                                 
    0.000 999%   0.000 NAAG                                                
 6.37E-10  37%   0.000 NAA                                                 
    0.000 999%   0.000 PCh                                                 
    0.000 999%   0.000 PCr                                                 
    0.000 999%   0.000 PE                                                  
 6.66E-11 251%   0.000 Scyllo                                              
    0.000 999%   0.000 Ser                                                 
    0.000 999%   0.000 Tau                                                 
 1.41E-10  63%   0.000 GPC+PCh                                             
 6.37E-10  37%   0.000 NAA+NAAG                                            
 4.82E-10  86%   0.000 Ins+Glyc                                            
    0.000 999%   0.000 Cr+PCr                                              
    0.000 999%   0.000 Glu+Gln                                             
   6 lines in following misc. output table
  FWHM = 0.101 ppm    S/N =   3                                            
  Data shift = 0.347 ppm                                                   
  Ph:  63 deg      -3.4 deg/ppm                                            
  alphaB,S = 6.2E-01,   2.8E+01                                            
    8 spline knots.   Ns = 5(1)                                            
  (10) 4 infls.   ( 9) 1 extrs.                                            
  363 points on ppm-axis = NY
      4.250000     4.238821     4.227641     4.216462     4.205282     4.194103     4.182923     4.171744     4.160564     4.149385
      4.138206     4.127026     4.115847     4.104667     4.093488     4.082308     4.071129     4.059949     4.048770     4.037591
      4.026411     4.015232     4.004052     3.992873     3.981693     3.970514     3.959334     3.948155     3.936975     3.925796
      3.914617     3.903437     3.892258     3.881078     3.869899     3.858719     3.847540     3.836360     3.825181     3.814002
      3.802822     3.791643     3.780463     3.769284     3.758104     3.746925     3.735745     3.724566     3.713387     3.702207
      3.691028     3.679848     3.668669     3.657489     3.646310     3.635130     3.623951     3.612772     3.601592     3.590413
      3.579233     3.568054     3.556874     3.545695     3.534515     3.523336     3.512156     3.500977     3.489798     3.478618
      3.467439     3.456259     3.445080     3.433900     3.422721     3.411541     3.400362     3.389183     3.378003     3.366824
      3.355644     3.344465     3.333285     3.322106     3.310926     3.299747     3.288568     3.277388     3.266209     3.255029
      3.243850     3.232670     3.221491     3.210311     3.199132     3.187953     3.176773     3.165594     3.154414     3.143235
      3.132055     3.120876     3.109696     3.098517     3.087337     3.076158     3.064979     3.053799     3.042620     3.031440
      3.020261     3.009081     2.997902     2.986722     2.975543     2.964364     2.953184     2.942005     2.930825     2.919646
      2.908466     2.897287     2.886107     2.874928     2.863749     2.852569     2.841390     2.830210     2.819031     2.807851
      2.796672     2.785492     2.774313     2.763134     2.751954     2.740775     2.729595     2.718416     2.707236     2.696057
      2.684877     2.673698     2.662519     2.651339     2.640160     2.628980     2.617801     2.606621     2.595442     2.584262
      2.573083     2.561903     2.550724     2.539545     2.528365     2.517186     2.506006     2.494827     2.483647     2.472468
      2.461288     2.450109     2.438930     2.427750     2.416571     2.405391     2.394212     2.383032     2.371853     2.360673
      2.349494     2.338315     2.327135     2.315956     2.304776     2.293597     2.282417     2.271238     2.260058     2.248879
      2.237700     2.226520     2.215341     2.204161     2.192982     2.181802     2.170623     2.159443     2.148264     2.137084
      2.125905     2.114726     2.103546     2.092367     2.081187     2.070008     2.058828     2.047649     2.036469     2.025290
      2.014111     2.002931     1.991752     1.980572     1.969393     1.958213     1.947034     1.935854     1.924675     1.913496
      1.902316     1.891137     1.879957     1.868778     1.857598     1.846419     1.835239     1.824060     1.812881     1.801701
      1.790522     1.779342     1.768163     1.756983     1.745804     1.734624     1.723445     1.712265     1.701086     1.689907
      1.678727     1.667548     1.656368     1.645189     1.634009     1.622830     1.611650     1.600471     1.589292     1.578112
      1.566933     1.555753     1.544574     1.533394     1.522215     1.511035     1.499856     1.488677     1.477497     1.466318
      1.455138     1.443959     1.432779     1.421600     1.410420     1.399241     1.388062     1.376882     1.365703     1.354523
      1.343344     1.332164     1.320985     1.309805     1.298626     1.287446     1.276267     1.265088     1.253908     1.242729
      1.231549     1.220370     1.209190     1.198011     1.186831     1.175652     1.164473     1.153293     1.142114     1.130934
      1.119755     1.108575     1.097396     1.086216     1.075037     1.063858     1.052678     1.041499     1.030319     1.019140
      1.007960     0.996781     0.985601     0.974422     0.963243     0.952063     0.940884     0.929704     0.918525     0.907345
      0.896166     0.884986     0.873807     0.862628     0.851448     0.840269     0.829089     0.817910     0.806730     0.795551
      0.784371     0.773192     0.762012     0.750833     0.739654     0.728474     0.717295     0.706115     0.694936     0.683756
      0.672577     0.661397     0.650218     0.639039     0.627859     0.616680     0.605500     0.594321     0.583141     0.571962
      0.560782     0.549603     0.538424     0.527244     0.516065     0.504885     0.493706     0.482526     0.471347     0.460167
      0.448988     0.437809     0.426629     0.415450     0.404270     0.393091     0.381911     0.370732     0.359552     0.348373
      0.337193     0.326014     0.314835     0.303655     0.292476     0.281296     0.270117     0.258937     0.247758     0.236578
      0.225399     0.214220     0.203040
 NY phased data points follow
   1.30090E-08  1.28253E-08  1.43680E-08  1.29680E-08  1.35973E-08  1.16170E-08  1.26006E-08  1.08269E-08  1.18734E-08  1.08572E-08
   1.17781E-08  1.02956E-08  1.21824E-08  1.06208E-08  1.22184E-08  1.07441E-08  1.20684E-08  1.11663E-08  1.28606E-08  1.08773E-08
   1.17560E-08  1.04381E-08  1.16531E-08  1.00547E-08  1.14723E-08  9.92753E-09  1.18376E-08  1.04848E-08  1.14428E-08  9.92005E-09
   1.15881E-08  1.04733E-08  1.19043E-08  1.16091E-08  1.24394E-08  1.17357E-08  1.26498E-08  1.12000E-08  1.17048E-08  9.99678E-09
   1.13970E-08  9.59216E-09  1.08436E-08  9.11845E-09  1.03737E-08  9.15382E-09  1.01658E-08  8.66288E-09  9.58663E-09  7.96089E-09
   9.24500E-09  8.02182E-09  8.80920E-09  8.18733E-09  9.03296E-09  7.50907E-09  8.72495E-09  7.64861E-09  8.18973E-09  7.84747E-09
   8.29544E-09  7.58848E-09  9.39910E-09  8.87338E-09  1.13067E-08  1.04687E-08  1.22617E-08  1.03105E-08  1.14246E-08  1.02066E-08
   1.06402E-08  8.80905E-09  1.00611E-08  8.04074E-09  9.19680E-09  7.92931E-09  8.47913E-09  7.49504E-09  9.02441E-09  9.05698E-09
   1.13242E-08  1.10812E-08  1.38829E-08  1.29795E-08  1.44463E-08  1.22856E-08  1.38670E-08  1.21975E-08  1.37848E-08  1.13451E-08
   1.26747E-08  1.12006E-08  1.26540E-08  1.06686E-08  1.18146E-08  9.81285E-09  1.08499E-08  9.37998E-09  9.95929E-09  9.08636E-09
   9.54105E-09  7.61682E-09  9.55032E-09  7.90447E-09  9.18941E-09  8.31312E-09  8.34514E-09  7.47545E-09  8.31040E-09  6.56577E-09
   7.49831E-09  6.47205E-09  7.01268E-09  6.15030E-09  6.98290E-09  5.87475E-09  7.33770E-09  6.27866E-09  7.24920E-09  5.99570E-09
   7.59718E-09  6.37623E-09  7.00929E-09  5.99365E-09  7.11450E-09  5.48615E-09  6.34601E-09  5.05525E-09  6.82035E-09  5.16665E-09
   6.81429E-09  5.97372E-09  6.68152E-09  5.84842E-09  7.30095E-09  6.54790E-09  7.49605E-09  6.65283E-09  7.80453E-09  6.97433E-09
   8.34012E-09  7.86973E-09  9.26327E-09  8.69723E-09  9.80047E-09  8.50122E-09  1.01675E-08  9.78608E-09  1.08526E-08  9.74121E-09
   1.14345E-08  1.07023E-08  1.10896E-08  1.01352E-08  1.09576E-08  1.04551E-08  1.13270E-08  9.83387E-09  1.12122E-08  1.01275E-08
   1.15576E-08  1.01762E-08  1.15677E-08  9.91390E-09  1.16025E-08  1.04010E-08  1.13085E-08  1.01925E-08  1.17995E-08  1.10017E-08
   1.26952E-08  1.28423E-08  1.53986E-08  1.64034E-08  1.81761E-08  1.69235E-08  1.79472E-08  1.67140E-08  1.66871E-08  1.49100E-08
   1.45400E-08  1.31643E-08  1.24644E-08  1.05642E-08  9.36394E-09  7.32917E-09  6.41481E-09  2.83801E-09  2.63794E-09 -3.64970E-10
  -1.61049E-09 -4.50090E-09 -5.81181E-09 -7.81033E-09 -9.23298E-09 -1.06605E-08 -1.13622E-08 -1.25400E-08 -1.30986E-08 -1.39582E-08
  -1.38088E-08 -1.37966E-08 -1.25010E-08 -1.25027E-08 -1.15860E-08 -1.09950E-08 -9.73758E-09 -9.07801E-09 -8.23369E-09 -7.77386E-09
  -7.07019E-09 -6.25379E-09 -5.95494E-09 -5.06551E-09 -4.96090E-09 -4.81842E-09 -4.96518E-09 -4.37076E-09 -4.21520E-09 -3.46694E-09
  -4.37062E-09 -3.99817E-09 -3.41125E-09 -3.38148E-09 -3.13795E-09 -3.05934E-09 -3.36969E-09 -2.44908E-09 -3.11705E-09 -2.85153E-09
  -3.37708E-09 -2.37421E-09 -3.44227E-09 -2.62591E-09 -2.96783E-09 -2.48570E-09 -2.43340E-09 -2.13323E-09 -2.64415E-09 -2.51331E-09
  -2.55529E-09 -2.67893E-09 -3.02194E-09 -2.38848E-09 -3.15681E-09 -2.60072E-09 -2.77162E-09 -2.65125E-09 -3.14892E-09 -2.37267E-09
  -2.68925E-09 -2.40464E-09 -2.60774E-09 -2.02426E-09 -2.77487E-09 -1.62365E-09 -2.29196E-09 -2.28498E-09 -2.23139E-09 -1.85630E-09
  -2.95419E-09 -2.72169E-09 -2.86290E-09 -2.95186E-09 -3.31567E-09 -3.02370E-09 -3.38031E-09 -2.79567E-09 -3.61059E-09 -3.04144E-09
  -3.41392E-09 -2.62557E-09 -3.34429E-09 -2.53908E-09 -3.46503E-09 -2.28501E-09 -2.78207E-09 -1.74668E-09 -2.00087E-09 -1.45666E-09
  -2.75154E-09 -1.65795E-09 -2.01609E-09 -1.63145E-09 -2.24421E-09 -1.26578E-09 -2.72418E-09 -1.61776E-09 -2.42532E-09 -2.26476E-09
  -2.44770E-09 -2.22250E-09 -2.80783E-09 -2.03187E-09 -2.66074E-09 -2.26623E-09 -2.76374E-09 -2.24758E-09 -2.66272E-09 -2.90748E-09
  -3.09045E-09 -2.53566E-09 -3.06521E-09 -3.41743E-09 -2.99679E-09 -3.20514E-09 -3.29155E-09 -3.26920E-09 -3.52773E-09 -3.46188E-09
  -3.75012E-09 -3.43053E-09 -3.18730E-09 -3.79144E-09 -3.66339E-09 -3.79724E-09 -3.93119E-09 -3.19844E-09 -3.98415E-09 -3.86038E-09
  -3.94281E-09 -4.22036E-09 -4.57072E-09 -4.15647E-09 -4.21949E-09 -4.31502E-09 -4.68944E-09 -4.49431E-09 -3.73127E-09 -4.67694E-09
  -4.36359E-09 -4.36275E-09 -4.44128E-09 -4.76791E-09 -4.17520E-09 -4.58878E-09 -4.99458E-09 -5.12376E-09 -4.63800E-09 -4.99242E-09
  -5.11651E-09 -4.94290E-09 -4.52478E-09 -4.91752E-09 -5.24380E-09 -5.30044E-09 -4.82331E-09 -5.23138E-09 -5.00614E-09 -5.68235E-09
  -4.92891E-09 -5.43788E-09 -4.56670E-09 -5.06751E-09 -5.33542E-09 -5.44081E-09 -4.93842E-09 -5.36040E-09 -5.30420E-09 -6.03550E-09
  -5.34175E-09 -5.92166E-09 -5.29851E-09
 NY points of the fit to the data follow
   1.35892E-08  1.30686E-08  1.27592E-08  1.25315E-08  1.23419E-08  1.18977E-08  1.13770E-08  1.10002E-08  1.08134E-08  1.08979E-08
   1.11087E-08  1.13625E-08  1.17172E-08  1.21173E-08  1.22834E-08  1.22382E-08  1.22330E-08  1.21504E-08  1.18008E-08  1.15652E-08
   1.15324E-08  1.14684E-08  1.12138E-08  1.10188E-08  1.05236E-08  1.00733E-08  1.01629E-08  1.04032E-08  1.07571E-08  1.13618E-08
   1.17676E-08  1.17826E-08  1.17987E-08  1.14960E-08  1.08968E-08  1.12327E-08  1.17349E-08  1.19387E-08  1.18305E-08  1.13639E-08
   1.07900E-08  1.04595E-08  9.88613E-09  8.95389E-09  8.83418E-09  9.14540E-09  8.68130E-09  8.30641E-09  8.58967E-09  9.09540E-09
   9.67109E-09  9.98947E-09  9.94867E-09  9.43697E-09  8.70132E-09  8.24746E-09  8.08763E-09  8.54427E-09  8.67532E-09  8.48946E-09
   8.57028E-09  8.95972E-09  9.62752E-09  1.01834E-08  1.08100E-08  1.16050E-08  1.18787E-08  1.19388E-08  1.21360E-08  1.23015E-08
   1.22263E-08  1.17173E-08  1.08658E-08  1.01239E-08  9.79569E-09  8.90274E-09  8.22028E-09  9.22899E-09  9.80080E-09  9.78485E-09
   1.01598E-08  1.06123E-08  1.11076E-08  1.18701E-08  1.24492E-08  1.24715E-08  1.20814E-08  1.10935E-08  1.00016E-08  1.01149E-08
   1.02289E-08  1.03159E-08  1.05099E-08  1.02352E-08  9.63282E-09  9.58654E-09  9.39007E-09  8.75027E-09  8.50511E-09  8.42728E-09
   8.24160E-09  8.13842E-09  8.11413E-09  8.14103E-09  8.18466E-09  8.23062E-09  8.27581E-09  8.31838E-09  8.35098E-09  8.36573E-09
   8.36473E-09  8.37010E-09  8.39473E-09  8.38807E-09  8.37498E-09  8.39234E-09  8.41431E-09  8.43524E-09  8.45369E-09  8.46914E-09
   8.48128E-09  8.49004E-09  8.49531E-09  8.49696E-09  8.49491E-09  8.48910E-09  8.47943E-09  8.46587E-09  8.44837E-09  8.42686E-09
   8.40128E-09  8.37157E-09  8.33770E-09  8.29961E-09  8.25725E-09  8.21055E-09  8.15951E-09  8.10400E-09  8.04400E-09  7.97948E-09
   7.91041E-09  7.83675E-09  7.75847E-09  7.67549E-09  7.58782E-09  7.49543E-09  7.39839E-09  7.29688E-09  7.19115E-09  7.08142E-09
   6.96795E-09  6.85106E-09  6.73106E-09  6.60838E-09  6.48349E-09  6.35697E-09  6.22955E-09  6.10221E-09  5.97627E-09  5.85360E-09
   5.73699E-09  5.63090E-09  5.54292E-09  5.48747E-09  5.49589E-09  5.65318E-09  6.29259E-09  8.75750E-09  1.14118E-08  1.30174E-08
   1.39862E-08  1.49805E-08  1.63052E-08  1.78123E-08  1.92221E-08  1.98248E-08  1.84530E-08  1.39208E-08  7.35060E-09  4.07147E-09
   2.99079E-09  2.41787E-09  2.02406E-09  1.71210E-09  1.44388E-09  1.20170E-09  9.76354E-10  7.62677E-10  5.57509E-10  3.58961E-10
   1.65811E-10 -2.27769E-11 -2.07302E-10 -3.88112E-10 -5.65393E-10 -7.39299E-10 -9.09898E-10 -1.07716E-09 -1.24109E-09 -1.40166E-09
  -1.55879E-09 -1.71240E-09 -1.86240E-09 -2.00870E-09 -2.15120E-09 -2.28977E-09 -2.42432E-09 -2.55472E-09 -2.68088E-09 -2.80261E-09
  -2.91988E-09 -3.03250E-09 -3.14038E-09 -3.24339E-09 -3.34144E-09 -3.43435E-09 -3.52202E-09 -3.60438E-09 -3.68125E-09 -3.75275E-09
  -3.81898E-09 -3.88011E-09 -3.93622E-09 -3.98748E-09 -4.03399E-09 -4.07592E-09 -4.11336E-09 -4.14646E-09 -4.17535E-09 -4.20016E-09
  -4.22102E-09 -4.23805E-09 -4.25139E-09 -4.26117E-09 -4.26752E-09 -4.27057E-09 -4.27044E-09 -4.26725E-09 -4.26116E-09 -4.25226E-09
  -4.24070E-09 -4.22661E-09 -4.21011E-09 -4.19132E-09 -4.17036E-09 -4.14737E-09 -4.12247E-09 -4.09579E-09 -4.06744E-09 -4.03754E-09
  -4.00625E-09 -3.97362E-09 -3.93986E-09 -3.90499E-09 -3.86919E-09 -3.83259E-09 -3.79527E-09 -3.75736E-09 -3.71898E-09 -3.68023E-09
  -3.64123E-09 -3.60212E-09 -3.56298E-09 -3.52393E-09 -3.48506E-09 -3.44650E-09 -3.40837E-09 -3.37073E-09 -3.33373E-09 -3.29746E-09
  -3.26200E-09 -3.22747E-09 -3.19399E-09 -3.16160E-09 -3.13047E-09 -3.10063E-09 -3.07221E-09 -3.04531E-09 -3.01998E-09 -2.99635E-09
  -2.97450E-09 -2.95450E-09 -2.93646E-09 -2.92043E-09 -2.90652E-09 -2.89480E-09 -2.88536E-09 -2.87823E-09 -2.87354E-09 -2.87135E-09
  -2.87170E-09 -2.87464E-09 -2.88007E-09 -2.88791E-09 -2.89808E-09 -2.91052E-09 -2.92512E-09 -2.94182E-09 -2.96053E-09 -2.98117E-09
  -3.00368E-09 -3.02797E-09 -3.05396E-09 -3.08158E-09 -3.11075E-09 -3.14139E-09 -3.17344E-09 -3.20682E-09 -3.24144E-09 -3.27724E-09
  -3.31415E-09 -3.35208E-09 -3.39099E-09 -3.43078E-09 -3.47139E-09 -3.51274E-09 -3.55479E-09 -3.59743E-09 -3.64062E-09 -3.68430E-09
  -3.72838E-09 -3.77279E-09 -3.81750E-09 -3.86242E-09 -3.90748E-09 -3.95262E-09 -3.99781E-09 -4.04295E-09 -4.08801E-09 -4.13290E-09
  -4.17759E-09 -4.22200E-09 -4.26608E-09 -4.30978E-09 -4.35304E-09 -4.39581E-09 -4.43804E-09 -4.47965E-09 -4.52064E-09 -4.56089E-09
  -4.60042E-09 -4.63913E-09 -4.67701E-09 -4.71400E-09 -4.75002E-09 -4.78509E-09 -4.81912E-09 -4.85209E-09 -4.88393E-09 -4.91464E-09
  -4.94415E-09 -4.97243E-09 -4.99945E-09 -5.02516E-09 -5.04954E-09 -5.07254E-09 -5.09416E-09 -5.11433E-09 -5.13304E-09 -5.15026E-09
  -5.16594E-09 -5.18009E-09 -5.19267E-09
 NY background values follow
     4.398E-09    4.433E-09    4.467E-09    4.501E-09    4.536E-09    4.570E-09    4.603E-09    4.637E-09    4.671E-09    4.705E-09
     4.738E-09    4.772E-09    4.805E-09    4.839E-09    4.872E-09    4.905E-09    4.938E-09    4.972E-09    5.005E-09    5.038E-09
     5.071E-09    5.104E-09    5.137E-09    5.170E-09    5.203E-09    5.236E-09    5.269E-09    5.302E-09    5.336E-09    5.369E-09
     5.402E-09    5.435E-09    5.469E-09    5.502E-09    5.535E-09    5.569E-09    5.602E-09    5.636E-09    5.670E-09    5.704E-09
     5.738E-09    5.772E-09    5.806E-09    5.841E-09    5.875E-09    5.910E-09    5.945E-09    5.980E-09    6.015E-09    6.051E-09
     6.087E-09    6.123E-09    6.159E-09    6.195E-09    6.232E-09    6.268E-09    6.306E-09    6.343E-09    6.381E-09    6.419E-09
     6.457E-09    6.495E-09    6.534E-09    6.573E-09    6.613E-09    6.653E-09    6.693E-09    6.734E-09    6.775E-09    6.816E-09
     6.858E-09    6.900E-09    6.943E-09    6.986E-09    7.029E-09    7.073E-09    7.117E-09    7.161E-09    7.206E-09    7.250E-09
     7.295E-09    7.339E-09    7.383E-09    7.428E-09    7.472E-09    7.515E-09    7.559E-09    7.601E-09    7.644E-09    7.686E-09
     7.727E-09    7.767E-09    7.807E-09    7.846E-09    7.884E-09    7.921E-09    7.956E-09    7.991E-09    8.025E-09    8.057E-09
     8.088E-09    8.117E-09    8.145E-09    8.171E-09    8.196E-09    8.219E-09    8.240E-09    8.259E-09    8.276E-09    8.291E-09
     8.304E-09    8.315E-09    8.324E-09    8.330E-09    8.334E-09    8.335E-09    8.334E-09    8.330E-09    8.323E-09    8.314E-09
     8.301E-09    8.286E-09    8.267E-09    8.246E-09    8.221E-09    8.193E-09    8.162E-09    8.127E-09    8.089E-09    8.047E-09
     8.001E-09    7.952E-09    7.899E-09    7.841E-09    7.780E-09    7.715E-09    7.646E-09    7.573E-09    7.495E-09    7.413E-09
     7.327E-09    7.236E-09    7.140E-09    7.040E-09    6.935E-09    6.826E-09    6.711E-09    6.592E-09    6.469E-09    6.341E-09
     6.208E-09    6.072E-09    5.932E-09    5.787E-09    5.639E-09    5.488E-09    5.333E-09    5.175E-09    5.013E-09    4.849E-09
     4.682E-09    4.512E-09    4.339E-09    4.164E-09    3.987E-09    3.808E-09    3.627E-09    3.444E-09    3.259E-09    3.073E-09
     2.885E-09    2.696E-09    2.506E-09    2.316E-09    2.124E-09    1.932E-09    1.739E-09    1.546E-09    1.353E-09    1.160E-09
     9.673E-10    7.747E-10    5.825E-10    3.910E-10    2.002E-10    1.029E-11   -1.786E-10   -3.662E-10   -5.525E-10   -7.372E-10
    -9.203E-10   -1.102E-09   -1.281E-09   -1.458E-09   -1.633E-09   -1.806E-09   -1.976E-09   -2.144E-09   -2.308E-09   -2.470E-09
    -2.628E-09   -2.784E-09   -2.935E-09   -3.084E-09   -3.228E-09   -3.369E-09   -3.506E-09   -3.639E-09   -3.768E-09   -3.892E-09
    -4.011E-09   -4.127E-09   -4.237E-09   -4.342E-09   -4.443E-09   -4.538E-09   -4.628E-09   -4.713E-09   -4.792E-09   -4.866E-09
    -4.935E-09   -4.998E-09   -5.056E-09   -5.110E-09   -5.158E-09   -5.202E-09   -5.241E-09   -5.276E-09   -5.307E-09   -5.334E-09
    -5.356E-09   -5.375E-09   -5.390E-09   -5.401E-09   -5.409E-09   -5.414E-09   -5.415E-09   -5.413E-09   -5.408E-09   -5.401E-09
    -5.390E-09   -5.377E-09   -5.362E-09   -5.344E-09   -5.324E-09   -5.302E-09   -5.278E-09   -5.252E-09   -5.224E-09   -5.195E-09
    -5.164E-09   -5.132E-09   -5.099E-09   -5.064E-09   -5.029E-09   -4.993E-09   -4.955E-09   -4.918E-09   -4.880E-09   -4.841E-09
    -4.802E-09   -4.763E-09   -4.724E-09   -4.684E-09   -4.645E-09   -4.607E-09   -4.568E-09   -4.530E-09   -4.493E-09   -4.456E-09
    -4.420E-09   -4.385E-09   -4.351E-09   -4.318E-09   -4.287E-09   -4.256E-09   -4.227E-09   -4.199E-09   -4.173E-09   -4.148E-09
    -4.126E-09   -4.105E-09   -4.086E-09   -4.069E-09   -4.053E-09   -4.041E-09   -4.030E-09   -4.022E-09   -4.016E-09   -4.012E-09
    -4.011E-09   -4.013E-09   -4.017E-09   -4.023E-09   -4.031E-09   -4.042E-09   -4.055E-09   -4.070E-09   -4.087E-09   -4.106E-09
    -4.127E-09   -4.149E-09   -4.173E-09   -4.199E-09   -4.226E-09   -4.255E-09   -4.285E-09   -4.316E-09   -4.349E-09   -4.382E-09
    -4.417E-09   -4.453E-09   -4.490E-09   -4.527E-09   -4.565E-09   -4.604E-09   -4.644E-09   -4.684E-09   -4.725E-09   -4.766E-09
    -4.807E-09   -4.849E-09   -4.891E-09   -4.934E-09   -4.976E-09   -5.018E-09   -5.061E-09   -5.103E-09   -5.145E-09   -5.187E-09
    -5.229E-09   -5.271E-09   -5.312E-09   -5.353E-09   -5.393E-09   -5.433E-09   -5.472E-09   -5.510E-09   -5.548E-09   -5.585E-09
    -5.621E-09   -5.657E-09   -5.692E-09   -5.725E-09   -5.758E-09   -5.790E-09   -5.820E-09   -5.850E-09   -5.878E-09   -5.905E-09
    -5.931E-09   -5.956E-09   -5.980E-09   -6.002E-09   -6.023E-09   -6.042E-09   -6.060E-09   -6.076E-09   -6.091E-09   -6.105E-09
    -6.117E-09   -6.127E-09   -6.136E-09
 Ala      Conc. = 4.74E-11
   4.44039E-09  4.47380E-09  4.50654E-09  4.53883E-09  4.57054E-09  4.60151E-09  4.62913E-09  4.65629E-09  4.68925E-09  4.71858E-09
   4.74353E-09  4.77584E-09  4.80900E-09  4.83932E-09  4.87161E-09  4.90503E-09  4.93870E-09  4.97241E-09  5.00609E-09  5.03972E-09
   5.07329E-09  5.10681E-09  5.14029E-09  5.17374E-09  5.20715E-09  5.24056E-09  5.27396E-09  5.30736E-09  5.34077E-09  5.37420E-09
   5.40766E-09  5.44116E-09  5.47470E-09  5.50830E-09  5.54195E-09  5.57570E-09  5.60950E-09  5.64340E-09  5.67740E-09  5.71150E-09
   5.74572E-09  5.78006E-09  5.81454E-09  5.84915E-09  5.88391E-09  5.91884E-09  5.95393E-09  5.98920E-09  6.02465E-09  6.06031E-09
   6.09616E-09  6.13224E-09  6.16853E-09  6.20506E-09  6.24185E-09  6.27886E-09  6.31615E-09  6.35373E-09  6.39156E-09  6.42970E-09
   6.46815E-09  6.50690E-09  6.54598E-09  6.58538E-09  6.62515E-09  6.66525E-09  6.70573E-09  6.74657E-09  6.78781E-09  6.82945E-09
   6.87149E-09  6.91394E-09  6.95685E-09  7.00017E-09  7.04392E-09  7.08802E-09  7.13242E-09  7.17706E-09  7.22188E-09  7.26682E-09
   7.31182E-09  7.35683E-09  7.40177E-09  7.44660E-09  7.49126E-09  7.53569E-09  7.57983E-09  7.62364E-09  7.66707E-09  7.71006E-09
   7.75258E-09  7.79462E-09  7.83615E-09  7.87722E-09  7.91786E-09  7.95823E-09  7.99863E-09  8.03969E-09  8.08296E-09  8.13308E-09
   8.19054E-09  8.23407E-09  8.27469E-09  8.32696E-09  8.37467E-09  8.41271E-09  8.44286E-09  8.46553E-09  8.47492E-09  8.46426E-09
   8.43657E-09  8.41525E-09  8.41326E-09  8.38012E-09  8.34070E-09  8.33179E-09  8.32757E-09  8.32285E-09  8.31617E-09  8.30704E-09
   8.29512E-09  8.28030E-09  8.26242E-09  8.24142E-09  8.21718E-09  8.18964E-09  8.15869E-09  8.12430E-09  8.08637E-09  8.04481E-09
   7.99958E-09  7.95056E-09  7.89773E-09  7.84097E-09  7.78023E-09  7.71541E-09  7.64649E-09  7.57334E-09  7.49592E-09  7.41412E-09
   7.32791E-09  7.23720E-09  7.14192E-09  7.04199E-09  6.93735E-09  6.82792E-09  6.71369E-09  6.59478E-09  6.47132E-09  6.34346E-09
   6.21133E-09  6.07507E-09  5.93482E-09  5.79072E-09  5.64291E-09  5.49154E-09  5.33676E-09  5.17871E-09  5.01755E-09  4.85343E-09
   4.68651E-09  4.51698E-09  4.34501E-09  4.17088E-09  3.99497E-09  3.81815E-09  3.64401E-09  3.48015E-09  3.31124E-09  3.13393E-09
   2.95291E-09  2.77189E-09  2.59205E-09  2.41194E-09  2.22972E-09  2.04006E-09  1.83523E-09  1.60968E-09  1.37801E-09  1.17467E-09
   9.78124E-10  7.83758E-10  5.90580E-10  3.98398E-10  2.07173E-10  1.69775E-11 -1.72078E-10 -3.59844E-10 -5.46248E-10 -7.31112E-10
  -9.14285E-10 -1.09566E-09 -1.27507E-09 -1.45238E-09 -1.62742E-09 -1.80007E-09 -1.97020E-09 -2.13762E-09 -2.30221E-09 -2.46384E-09
  -2.62235E-09 -2.77761E-09 -2.92946E-09 -3.07779E-09 -3.22244E-09 -3.36327E-09 -3.50015E-09 -3.63295E-09 -3.76154E-09 -3.88573E-09
  -4.00548E-09 -4.12058E-09 -4.23094E-09 -4.33641E-09 -4.43690E-09 -4.53223E-09 -4.62230E-09 -4.70701E-09 -4.78620E-09 -4.85998E-09
  -4.92845E-09 -4.99176E-09 -5.05002E-09 -5.10338E-09 -5.15193E-09 -5.19584E-09 -5.23523E-09 -5.27021E-09 -5.30093E-09 -5.32751E-09
  -5.35009E-09 -5.36879E-09 -5.38374E-09 -5.39507E-09 -5.40291E-09 -5.40739E-09 -5.40864E-09 -5.40678E-09 -5.40195E-09 -5.39426E-09
  -5.38384E-09 -5.37085E-09 -5.35539E-09 -5.33758E-09 -5.31754E-09 -5.29542E-09 -5.27133E-09 -5.24540E-09 -5.21775E-09 -5.18849E-09
  -5.15779E-09 -5.12569E-09 -5.09241E-09 -5.05797E-09 -5.02253E-09 -4.98625E-09 -4.94920E-09 -4.91150E-09 -4.87327E-09 -4.83462E-09
  -4.79568E-09 -4.75656E-09 -4.71737E-09 -4.67822E-09 -4.63920E-09 -4.60043E-09 -4.56205E-09 -4.52411E-09 -4.48675E-09 -4.45007E-09
  -4.41417E-09 -4.37913E-09 -4.34510E-09 -4.31211E-09 -4.28033E-09 -4.24980E-09 -4.22064E-09 -4.19295E-09 -4.16678E-09 -4.14226E-09
  -4.11949E-09 -4.09851E-09 -4.07945E-09 -4.06236E-09 -4.04733E-09 -4.03446E-09 -4.02383E-09 -4.01545E-09 -4.00948E-09 -4.00596E-09
  -4.00493E-09 -4.00646E-09 -4.01043E-09 -4.01677E-09 -4.02540E-09 -4.03625E-09 -4.04922E-09 -4.06425E-09 -4.08126E-09 -4.10015E-09
  -4.12087E-09 -4.14333E-09 -4.16745E-09 -4.19317E-09 -4.22039E-09 -4.24904E-09 -4.27906E-09 -4.31038E-09 -4.34290E-09 -4.37656E-09
  -4.41129E-09 -4.44701E-09 -4.48366E-09 -4.52116E-09 -4.55945E-09 -4.59844E-09 -4.63809E-09 -4.67830E-09 -4.71902E-09 -4.76018E-09
  -4.80173E-09 -4.84356E-09 -4.88566E-09 -4.92793E-09 -4.97032E-09 -5.01275E-09 -5.05519E-09 -5.09756E-09 -5.13981E-09 -5.18185E-09
  -5.22366E-09 -5.26517E-09 -5.30630E-09 -5.34702E-09 -5.38728E-09 -5.42701E-09 -5.46617E-09 -5.50469E-09 -5.54255E-09 -5.57964E-09
  -5.61598E-09 -5.65147E-09 -5.68610E-09 -5.71981E-09 -5.75252E-09 -5.78426E-09 -5.81492E-09 -5.84449E-09 -5.87291E-09 -5.90017E-09
  -5.92620E-09 -5.95098E-09 -5.97446E-09 -5.99661E-09 -6.01741E-09 -6.03680E-09 -6.05477E-09 -6.07128E-09 -6.08629E-09 -6.09979E-09
  -6.11174E-09 -6.12211E-09 -6.13090E-09
 Asp      Conc. = 2.30E-09
   6.12406E-09  5.66759E-09  5.34972E-09  5.07928E-09  4.85662E-09  4.54994E-09  4.36703E-09  4.23844E-09  4.32677E-09  4.43924E-09
   4.54883E-09  4.65251E-09  4.75125E-09  4.84522E-09  4.93189E-09  5.01255E-09  5.08985E-09  5.16472E-09  5.23778E-09  5.30956E-09
   5.38051E-09  5.45107E-09  5.52165E-09  5.59265E-09  5.66449E-09  5.73763E-09  5.81258E-09  5.88993E-09  5.97037E-09  6.05479E-09
   6.14430E-09  6.24041E-09  6.34522E-09  6.46188E-09  6.59546E-09  6.75504E-09  6.95608E-09  7.14171E-09  7.32954E-09  7.45704E-09
   7.56089E-09  7.70568E-09  7.93833E-09  8.30024E-09  8.62000E-09  8.96366E-09  8.98951E-09  8.84979E-09  8.96431E-09  9.24176E-09
   9.57884E-09  9.69901E-09  9.50037E-09  8.87080E-09  7.98612E-09  7.31105E-09  6.84864E-09  7.03224E-09  6.94917E-09  6.58652E-09
   6.42449E-09  6.43270E-09  6.43547E-09  6.52567E-09  6.67247E-09  6.65726E-09  6.48623E-09  6.45085E-09  6.47062E-09  6.51075E-09
   6.55997E-09  6.61370E-09  6.66981E-09  6.72714E-09  6.78510E-09  6.84326E-09  6.90139E-09  6.95931E-09  7.01691E-09  7.07410E-09
   7.13082E-09  7.18701E-09  7.24261E-09  7.29759E-09  7.35191E-09  7.40550E-09  7.45834E-09  7.51036E-09  7.56153E-09  7.61179E-09
   7.66109E-09  7.70940E-09  7.75662E-09  7.80274E-09  7.84767E-09  7.89137E-09  7.93377E-09  7.97482E-09  8.01444E-09  8.05259E-09
   8.08919E-09  8.12418E-09  8.15749E-09  8.18906E-09  8.21881E-09  8.24668E-09  8.27260E-09  8.29651E-09  8.31833E-09  8.33797E-09
   8.35541E-09  8.37053E-09  8.38327E-09  8.39356E-09  8.40133E-09  8.40651E-09  8.40902E-09  8.40879E-09  8.40574E-09  8.39982E-09
   8.39090E-09  8.37897E-09  8.36392E-09  8.34569E-09  8.32420E-09  8.29937E-09  8.27112E-09  8.23941E-09  8.20414E-09  8.16524E-09
   8.12264E-09  8.07625E-09  8.02604E-09  7.97190E-09  7.91377E-09  7.85157E-09  7.78527E-09  7.71475E-09  7.63997E-09  7.56084E-09
   7.47732E-09  7.38933E-09  7.29683E-09  7.19972E-09  7.09797E-09  6.99151E-09  6.88035E-09  6.76464E-09  6.64451E-09  6.52016E-09
   6.39175E-09  6.25947E-09  6.12350E-09  5.98409E-09  5.84144E-09  5.69585E-09  5.54764E-09  5.39717E-09  5.24494E-09  5.09160E-09
   4.93803E-09  4.78562E-09  4.63659E-09  4.49503E-09  4.36944E-09  4.28180E-09  4.31137E-09  4.85880E-09  5.49977E-09  5.84187E-09
   5.98582E-09  6.12618E-09  6.35849E-09  6.64618E-09  6.91319E-09  6.96830E-09  6.48590E-09  5.10948E-09  3.08146E-09  1.92778E-09
   1.46583E-09  1.15975E-09  9.07966E-10  6.80962E-10  4.67354E-10  2.61979E-10  6.22276E-11 -1.33289E-10 -3.25427E-10 -5.14600E-10
  -7.01045E-10 -8.84922E-10 -1.06625E-09 -1.24503E-09 -1.42118E-09 -1.59467E-09 -1.76542E-09 -1.93329E-09 -2.09818E-09 -2.26000E-09
  -2.41860E-09 -2.57387E-09 -2.72568E-09 -2.87390E-09 -3.01842E-09 -3.15907E-09 -3.29575E-09 -3.42832E-09 -3.55666E-09 -3.68060E-09
  -3.80007E-09 -3.91490E-09 -4.02497E-09 -4.13016E-09 -4.23036E-09 -4.32539E-09 -4.41517E-09 -4.49959E-09 -4.57850E-09 -4.65200E-09
  -4.72019E-09 -4.78323E-09 -4.84122E-09 -4.89431E-09 -4.94261E-09 -4.98628E-09 -5.02542E-09 -5.06017E-09 -5.09067E-09 -5.11703E-09
