 LCModel (Version 6.3-1R) Copyright: S.W. Provencher.          Ref.: Magn. Reson. Med. 30:672-679 (1993).                
 onepulse 11x13_ftSpec_smooth_lcm
 26 lines in following concentration table = NCONC+1
    Conc.  %SD /Cr+PCr  Metabolite                                         
    0.000 999%   0.000 Ala                                                 
 1.45E-09  33%  37.929 Asp                                                 
 3.81E-11 711%   1.000 Cr                                                  
 5.62E-10  75%  14.740 GABA                                                
    0.000 999%   0.000 Glc                                                 
 1.24E-09  39%  32.491 Gln                                                 
    0.000 999%   0.000 Glu                                                 
 8.68E-10  38%  22.765 Glyc                                                
    0.000 999%   0.000 GPC                                                 
 8.43E-10  39%  22.112 GSH                                                 
 1.24E-09  30%  32.534 Ins                                                 
    0.000 999%   0.000 Lac                                                 
 2.92E-10  60%   7.649 NAAG                                                
 1.55E-10 115%   4.052 NAA                                                 
    0.000 999%   0.000 PCh                                                 
    0.000 999%   0.000 PCr                                                 
 2.37E-09  17%  62.023 PE                                                  
 3.17E-10  37%   8.322 Scyllo                                              
    0.000 999%   0.000 Ser                                                 
    0.000 999%   0.000 Tau                                                 
    0.000 999%   0.000 GPC+PCh                                             
 4.46E-10  41%  11.701 NAA+NAAG                                            
 2.11E-09  12%  55.299 Ins+Glyc                                            
 3.81E-11 711%   1.000 Cr+PCr                                              
 1.24E-09  39%  32.491 Glu+Gln                                             
   6 lines in following misc. output table
  FWHM = 0.123 ppm    S/N =   3                                            
  Data shift = 0.425 ppm                                                   
  Ph:  -8 deg     -47.9 deg/ppm                                            
  alphaB,S = 4.4E-01,   4.0E-01                                            
   10 spline knots.   Ns = 5(1)                                            
   8 inflections.    11 extrema                                            
  363 points on ppm-axis = NY
      4.250000     4.238821     4.227641     4.216462     4.205282     4.194103     4.182923     4.171744     4.160564     4.149385
      4.138206     4.127026     4.115847     4.104667     4.093488     4.082308     4.071129     4.059949     4.048770     4.037591
      4.026411     4.015232     4.004052     3.992873     3.981693     3.970514     3.959334     3.948155     3.936975     3.925796
      3.914617     3.903437     3.892258     3.881078     3.869899     3.858719     3.847540     3.836360     3.825181     3.814002
      3.802822     3.791643     3.780463     3.769284     3.758104     3.746925     3.735745     3.724566     3.713387     3.702207
      3.691028     3.679848     3.668669     3.657489     3.646310     3.635130     3.623951     3.612772     3.601592     3.590413
      3.579233     3.568054     3.556874     3.545695     3.534515     3.523336     3.512156     3.500977     3.489798     3.478618
      3.467439     3.456259     3.445080     3.433900     3.422721     3.411541     3.400362     3.389183     3.378003     3.366824
      3.355644     3.344465     3.333285     3.322106     3.310926     3.299747     3.288568     3.277388     3.266209     3.255029
      3.243850     3.232670     3.221491     3.210311     3.199132     3.187953     3.176773     3.165594     3.154414     3.143235
      3.132055     3.120876     3.109696     3.098517     3.087337     3.076158     3.064979     3.053799     3.042620     3.031440
      3.020261     3.009081     2.997902     2.986722     2.975543     2.964364     2.953184     2.942005     2.930825     2.919646
      2.908466     2.897287     2.886107     2.874928     2.863749     2.852569     2.841390     2.830210     2.819031     2.807851
      2.796672     2.785492     2.774313     2.763134     2.751954     2.740775     2.729595     2.718416     2.707236     2.696057
      2.684877     2.673698     2.662519     2.651339     2.640160     2.628980     2.617801     2.606621     2.595442     2.584262
      2.573083     2.561903     2.550724     2.539545     2.528365     2.517186     2.506006     2.494827     2.483647     2.472468
      2.461288     2.450109     2.438930     2.427750     2.416571     2.405391     2.394212     2.383032     2.371853     2.360673
      2.349494     2.338315     2.327135     2.315956     2.304776     2.293597     2.282417     2.271238     2.260058     2.248879
      2.237700     2.226520     2.215341     2.204161     2.192982     2.181802     2.170623     2.159443     2.148264     2.137084
      2.125905     2.114726     2.103546     2.092367     2.081187     2.070008     2.058828     2.047649     2.036469     2.025290
      2.014111     2.002931     1.991752     1.980572     1.969393     1.958213     1.947034     1.935854     1.924675     1.913496
      1.902316     1.891137     1.879957     1.868778     1.857598     1.846419     1.835239     1.824060     1.812881     1.801701
      1.790522     1.779342     1.768163     1.756983     1.745804     1.734624     1.723445     1.712265     1.701086     1.689907
      1.678727     1.667548     1.656368     1.645189     1.634009     1.622830     1.611650     1.600471     1.589292     1.578112
      1.566933     1.555753     1.544574     1.533394     1.522215     1.511035     1.499856     1.488677     1.477497     1.466318
      1.455138     1.443959     1.432779     1.421600     1.410420     1.399241     1.388062     1.376882     1.365703     1.354523
      1.343344     1.332164     1.320985     1.309805     1.298626     1.287446     1.276267     1.265088     1.253908     1.242729
      1.231549     1.220370     1.209190     1.198011     1.186831     1.175652     1.164473     1.153293     1.142114     1.130934
      1.119755     1.108575     1.097396     1.086216     1.075037     1.063858     1.052678     1.041499     1.030319     1.019140
      1.007960     0.996781     0.985601     0.974422     0.963243     0.952063     0.940884     0.929704     0.918525     0.907345
      0.896166     0.884986     0.873807     0.862628     0.851448     0.840269     0.829089     0.817910     0.806730     0.795551
      0.784371     0.773192     0.762012     0.750833     0.739654     0.728474     0.717295     0.706115     0.694936     0.683756
      0.672577     0.661397     0.650218     0.639039     0.627859     0.616680     0.605500     0.594321     0.583141     0.571962
      0.560782     0.549603     0.538424     0.527244     0.516065     0.504885     0.493706     0.482526     0.471347     0.460167
      0.448988     0.437809     0.426629     0.415450     0.404270     0.393091     0.381911     0.370732     0.359552     0.348373
      0.337193     0.326014     0.314835     0.303655     0.292476     0.281296     0.270117     0.258937     0.247758     0.236578
      0.225399     0.214220     0.203040
 NY phased data points follow
   9.28268E-09  5.74769E-09  9.19336E-09  5.98593E-09  9.50045E-09  6.34528E-09  9.61895E-09  6.88468E-09  9.94992E-09  7.35797E-09
   1.07227E-08  6.69255E-09  9.72919E-09  6.74857E-09  9.73390E-09  6.48864E-09  9.60206E-09  6.23569E-09  9.73611E-09  6.89256E-09
   9.84346E-09  6.57498E-09  8.91698E-09  6.32306E-09  9.32969E-09  7.32808E-09  1.03412E-08  8.41707E-09  1.08804E-08  8.01594E-09
   9.83962E-09  7.11898E-09  9.05343E-09  6.46637E-09  8.88921E-09  6.60399E-09  8.38982E-09  6.52390E-09  8.52487E-09  6.24031E-09
   8.29888E-09  6.00297E-09  7.38466E-09  5.82050E-09  7.65388E-09  5.61119E-09  7.78274E-09  5.58247E-09  7.24977E-09  5.14925E-09
   6.85463E-09  5.12045E-09  6.80839E-09  4.80331E-09  6.66032E-09  5.77428E-09  7.69913E-09  7.66854E-09  9.60666E-09  8.59218E-09
   9.64176E-09  7.93386E-09  8.93792E-09  7.05913E-09  7.98447E-09  6.46087E-09  7.33099E-09  6.00622E-09  6.44862E-09  4.83331E-09
   5.58302E-09  4.41040E-09  6.21981E-09  7.09555E-09  9.96417E-09  1.03364E-08  1.10398E-08  1.02892E-08  1.01683E-08  9.88513E-09
   1.02467E-08  9.40390E-09  9.61379E-09  8.72954E-09  9.60931E-09  8.64989E-09  9.40252E-09  8.53034E-09  8.78494E-09  8.02381E-09
   8.09664E-09  7.46081E-09  7.53404E-09  6.79220E-09  6.96529E-09  6.62217E-09  7.07937E-09  6.44199E-09  6.83779E-09  6.31041E-09
   6.75070E-09  6.44716E-09  6.38454E-09  5.85546E-09  5.82683E-09  4.85880E-09  5.03651E-09  5.16894E-09  5.46184E-09  5.32295E-09
   5.60550E-09  5.69661E-09  5.69984E-09  5.74779E-09  5.68612E-09  5.83736E-09  5.74390E-09  5.56609E-09  4.99979E-09  4.93418E-09
   4.27980E-09  4.96779E-09  4.70317E-09  4.52340E-09  4.24506E-09  4.54657E-09  4.75815E-09  5.02736E-09  4.89778E-09  5.46270E-09
   4.74927E-09  5.64525E-09  4.95416E-09  5.27129E-09  5.70294E-09  6.46673E-09  6.11474E-09  7.11456E-09  6.05711E-09  7.57286E-09
   7.17317E-09  7.99710E-09  7.54859E-09  8.76632E-09  7.64036E-09  8.35867E-09  7.79245E-09  8.47635E-09  8.27626E-09  8.64732E-09
   7.74219E-09  8.66146E-09  8.15516E-09  9.00324E-09  8.36236E-09  8.98575E-09  8.42836E-09  9.24845E-09  8.62345E-09  9.05515E-09
   8.16828E-09  8.72297E-09  7.35832E-09  7.42160E-09  7.24867E-09  1.09583E-08  1.26884E-08  1.54962E-08  1.53796E-08  1.68598E-08
   1.63948E-08  1.73101E-08  1.67718E-08  1.74224E-08  1.62121E-08  1.71879E-08  1.61452E-08  1.68302E-08  1.51163E-08  1.53706E-08
   1.32529E-08  1.28981E-08  1.09970E-08  9.82000E-09  6.93390E-09  6.05138E-09  3.25784E-09  1.96008E-09 -7.02475E-10 -1.40546E-09
  -3.69619E-09 -4.16403E-09 -6.01434E-09 -5.99981E-09 -7.01915E-09 -6.33190E-09 -6.48566E-09 -5.43360E-09 -5.95058E-09 -3.93422E-09
  -3.89989E-09 -2.12714E-09 -2.15110E-09 -1.05400E-09 -1.51307E-09 -3.77193E-10 -1.70487E-09  5.42734E-11 -1.51946E-09 -8.24175E-10
  -1.76294E-09 -7.37619E-10 -1.30046E-09 -1.40959E-10 -1.13657E-09  1.60346E-10 -9.83210E-10  3.69947E-10 -9.36692E-10  2.69942E-10
  -8.73171E-10  1.39923E-10 -1.05889E-09 -2.33274E-10 -8.26034E-10  3.44761E-10 -5.56283E-10  6.16139E-10 -4.30601E-10  5.95207E-10
  -4.77030E-10  5.71669E-10 -4.54330E-10  2.51753E-10 -7.39898E-10 -1.21110E-10 -8.38706E-10  4.16595E-10 -1.15544E-09  1.84957E-10
  -5.98597E-10  5.81006E-10 -4.92492E-10  3.64508E-10 -2.38869E-10  7.12393E-10 -6.78737E-10  6.97095E-10 -3.90132E-10  4.96547E-10
  -7.09290E-10  4.29333E-10 -3.96524E-10  4.37310E-11 -6.09654E-10  1.50610E-10 -3.25137E-10  6.15622E-11 -1.13384E-09  1.50065E-10
  -9.10560E-10 -2.37100E-10 -1.33894E-09 -1.65557E-10 -1.15109E-09 -3.80111E-10 -1.38645E-09 -6.15470E-10 -1.49696E-09  3.86692E-12
  -7.38998E-10  2.64583E-10 -8.76193E-10  6.15047E-10 -3.42494E-10  7.02823E-10 -3.99571E-10  7.01771E-10  2.03045E-10  9.45222E-10
  -3.14364E-11  6.47402E-10 -2.85983E-11  9.70072E-10 -1.12612E-10  1.06141E-09  2.71789E-10  9.95288E-10 -3.32213E-10  5.92528E-10
  -9.13021E-11  7.05420E-10 -2.74163E-10  9.04136E-10  2.99659E-10  5.29712E-10 -1.14459E-10  8.58518E-10 -2.62095E-10  5.87184E-10
  -1.12683E-11  8.12441E-10 -6.74724E-11  6.19687E-10 -9.05137E-12  3.93942E-10  8.82067E-12  6.17563E-11 -1.43267E-10  6.15184E-10
  -1.66892E-11  3.75194E-10 -2.41189E-10  6.20779E-10  5.08337E-11  2.25434E-10 -3.60803E-10  6.35684E-10 -1.58113E-10  1.90386E-10
  -1.10148E-10  1.35391E-10 -3.00138E-11  2.15006E-10  7.18561E-11  1.52297E-10 -1.37175E-10  3.07885E-10  1.94133E-10  3.17440E-10
  -2.58855E-10 -2.04902E-10 -1.65356E-10 -2.11175E-10 -5.03864E-10  2.25066E-10 -3.73349E-10 -1.97081E-12 -2.02684E-10 -1.37580E-10
  -2.47865E-10  3.66828E-10 -3.49246E-10 -4.90785E-12 -6.98792E-11  1.05971E-10 -2.67113E-10 -4.63786E-10 -4.02170E-10  4.22254E-11
  -2.38868E-10 -3.45139E-10 -5.03106E-10 -9.95016E-11 -3.80323E-10 -4.17737E-10 -2.01386E-10 -8.96595E-11 -8.60504E-11 -1.48857E-10
  -2.78331E-10 -1.62660E-10 -3.35072E-10
 NY points of the fit to the data follow
   1.05183E-08  7.43326E-09  8.98192E-09  6.34109E-09  8.31082E-09  5.92537E-09  8.03379E-09  6.48614E-09  1.14646E-08  8.74250E-09
   9.37629E-09  6.76423E-09  9.38821E-09  6.96758E-09  8.85923E-09  6.40380E-09  1.04465E-08  6.64905E-09  1.11383E-08  8.43625E-09
   7.65858E-09  5.74606E-09  8.03572E-09  6.08753E-09  9.61409E-09  6.90657E-09  1.09148E-08  8.00662E-09  1.22264E-08  7.60918E-09
   9.51042E-09  7.24373E-09  1.06062E-08  8.18179E-09  8.72407E-09  7.91411E-09  8.56425E-09  6.80128E-09  7.33558E-09  5.43493E-09
   7.01574E-09  4.90849E-09  7.63132E-09  5.25279E-09  7.98647E-09  4.64927E-09  7.12238E-09  5.15848E-09  6.57125E-09  4.69090E-09
   7.26543E-09  5.06582E-09  7.54808E-09  6.99458E-09  7.81812E-09  7.02635E-09  8.53643E-09  6.82834E-09  8.64471E-09  8.06179E-09
   8.15644E-09  8.00109E-09  8.22488E-09  6.97451E-09  8.94686E-09  6.80330E-09  7.38266E-09  7.26165E-09  7.43919E-09  6.40541E-09
   7.38784E-09  7.38438E-09  7.87662E-09  7.60276E-09  8.58588E-09  9.14176E-09  1.00551E-08  9.55865E-09  1.03192E-08  1.02031E-08
   1.04991E-08  9.74802E-09  1.04954E-08  9.25789E-09  9.32685E-09  9.27476E-09  8.69543E-09  8.52421E-09  7.30519E-09  6.64027E-09
   6.61102E-09  6.44136E-09  6.13315E-09  6.52137E-09  6.22981E-09  5.90288E-09  6.29864E-09  5.99631E-09  5.91545E-09  5.96663E-09
   5.88903E-09  5.86441E-09  5.87154E-09  5.87182E-09  5.87873E-09  5.89570E-09  5.91412E-09  5.93738E-09  5.96183E-09  5.98740E-09
   6.01384E-09  6.04090E-09  6.06759E-09  6.09456E-09  6.12071E-09  6.14653E-09  6.17161E-09  6.19589E-09  6.21909E-09  6.24126E-09
   6.26212E-09  6.28170E-09  6.29986E-09  6.31654E-09  6.33163E-09  6.34504E-09  6.35676E-09  6.36665E-09  6.37466E-09  6.38074E-09
   6.38481E-09  6.38682E-09  6.38672E-09  6.38441E-09  6.37990E-09  6.37306E-09  6.36391E-09  6.35237E-09  6.33839E-09  6.32194E-09
   6.30299E-09  6.28147E-09  6.25740E-09  6.23074E-09  6.20145E-09  6.16955E-09  6.13504E-09  6.09793E-09  6.05828E-09  6.01615E-09
   5.97162E-09  5.92485E-09  5.87604E-09  5.82546E-09  5.77354E-09  5.72086E-09  5.66829E-09  5.61724E-09  5.56987E-09  5.52951E-09
   5.50166E-09  5.49612E-09  5.53230E-09  5.65428E-09  5.98508E-09  6.99921E-09  1.15638E-08  1.57752E-08  1.45879E-08  1.70686E-08
   1.65382E-08  1.71651E-08  1.78009E-08  1.73228E-08  1.61825E-08  1.71713E-08  1.56123E-08  1.76090E-08  1.51682E-08  7.31244E-09
   4.90527E-09  4.05211E-09  3.59500E-09  3.28687E-09  3.04925E-09  2.85034E-09  2.67488E-09  2.51482E-09  2.36557E-09  2.22429E-09
   2.08921E-09  1.95919E-09  1.83344E-09  1.71148E-09  1.59294E-09  1.47761E-09  1.36536E-09  1.25610E-09  1.14982E-09  1.04651E-09
   9.46217E-10  8.48973E-10  7.54864E-10  6.63941E-10  5.76321E-10  4.92069E-10  4.11334E-10  3.34164E-10  2.60672E-10  1.90762E-10
   1.24356E-10  6.13600E-11  1.70336E-12 -5.47068E-11 -1.07945E-10 -1.58094E-10 -2.05227E-10 -2.49416E-10 -2.90752E-10 -3.29301E-10
  -3.65129E-10 -3.98322E-10 -4.28951E-10 -4.57085E-10 -4.82800E-10 -5.06168E-10 -5.27243E-10 -5.46133E-10 -5.62894E-10 -5.77581E-10
  -5.90270E-10 -6.01050E-10 -6.09968E-10 -6.17117E-10 -6.22549E-10 -6.26352E-10 -6.28589E-10 -6.29317E-10 -6.28622E-10 -6.26567E-10
  -6.23222E-10 -6.18652E-10 -6.12939E-10 -6.06145E-10 -5.98340E-10 -5.89589E-10 -5.79980E-10 -5.69574E-10 -5.58421E-10 -5.46592E-10
  -5.34188E-10 -5.21258E-10 -5.07875E-10 -4.94086E-10 -4.80014E-10 -4.65666E-10 -4.51156E-10 -4.36522E-10 -4.21863E-10 -4.07236E-10
  -3.92672E-10 -3.78184E-10 -3.63788E-10 -3.49483E-10 -3.35281E-10 -3.21188E-10 -3.07212E-10 -2.93360E-10 -2.79640E-10 -2.66059E-10
  -2.52626E-10 -2.39345E-10 -2.26227E-10 -2.13276E-10 -2.00499E-10 -1.87909E-10 -1.75508E-10 -1.63306E-10 -1.51306E-10 -1.39525E-10
  -1.27957E-10 -1.16623E-10 -1.05517E-10 -9.46556E-11 -8.40450E-11 -7.36920E-11 -6.35990E-11 -5.37789E-11 -4.42386E-11 -3.49872E-11
  -2.60260E-11 -1.73632E-11 -9.00863E-12 -9.73555E-13  6.74305E-12  1.41261E-11  2.11748E-11  2.78800E-11  3.42337E-11  4.02257E-11
   4.58503E-11  5.11080E-11  5.59801E-11  6.04661E-11  6.45587E-11  6.82431E-11  7.15205E-11  7.43831E-11  7.68175E-11  7.88233E-11
   8.03885E-11  8.15026E-11  8.21819E-11  8.24324E-11  8.22653E-11  8.16887E-11  8.07178E-11  7.93596E-11  7.76273E-11  7.55320E-11
   7.30814E-11  7.02920E-11  6.71718E-11  6.37303E-11  5.99809E-11  5.59325E-11  5.15979E-11  4.69885E-11  4.21124E-11  3.69854E-11
   3.16117E-11  2.60074E-11  2.01837E-11  1.41473E-11  7.91334E-12  1.49225E-12 -5.10825E-12 -1.18744E-11 -1.87946E-11 -2.58590E-11
  -3.30573E-11 -4.03781E-11 -4.78101E-11 -5.53425E-11 -6.29636E-11 -7.06616E-11 -7.84315E-11 -8.62542E-11 -9.41240E-11 -1.02027E-10
  -1.09954E-10 -1.17893E-10 -1.25835E-10 -1.33766E-10 -1.41675E-10 -1.49557E-10 -1.57394E-10 -1.65177E-10 -1.72897E-10 -1.80542E-10
  -1.88099E-10 -1.95561E-10 -2.02911E-10
 NY background values follow
    -2.937E-09   -2.851E-09   -2.765E-09   -2.679E-09   -2.593E-09   -2.507E-09   -2.420E-09   -2.334E-09   -2.248E-09   -2.162E-09
    -2.076E-09   -1.991E-09   -1.905E-09   -1.819E-09   -1.733E-09   -1.647E-09   -1.562E-09   -1.476E-09   -1.391E-09   -1.306E-09
    -1.220E-09   -1.135E-09   -1.050E-09   -9.655E-10   -8.808E-10   -7.962E-10   -7.117E-10   -6.274E-10   -5.433E-10   -4.593E-10
    -3.755E-10   -2.919E-10   -2.085E-10   -1.252E-10   -4.217E-11    4.067E-11    1.233E-10    2.057E-10    2.879E-10    3.698E-10
     4.516E-10    5.331E-10    6.143E-10    6.952E-10    7.759E-10    8.563E-10    9.365E-10    1.016E-09    1.096E-09    1.175E-09
     1.254E-09    1.333E-09    1.411E-09    1.489E-09    1.567E-09    1.644E-09    1.721E-09    1.798E-09    1.874E-09    1.950E-09
     2.025E-09    2.100E-09    2.175E-09    2.249E-09    2.322E-09    2.396E-09    2.468E-09    2.541E-09    2.613E-09    2.684E-09
     2.755E-09    2.825E-09    2.895E-09    2.964E-09    3.033E-09    3.101E-09    3.168E-09    3.235E-09    3.302E-09    3.367E-09
     3.433E-09    3.497E-09    3.561E-09    3.624E-09    3.687E-09    3.749E-09    3.810E-09    3.871E-09    3.931E-09    3.990E-09
     4.048E-09    4.106E-09    4.163E-09    4.219E-09    4.275E-09    4.330E-09    4.384E-09    4.437E-09    4.489E-09    4.541E-09
     4.591E-09    4.641E-09    4.690E-09    4.739E-09    4.786E-09    4.832E-09    4.878E-09    4.922E-09    4.966E-09    5.008E-09
     5.049E-09    5.089E-09    5.128E-09    5.165E-09    5.201E-09    5.235E-09    5.268E-09    5.300E-09    5.330E-09    5.358E-09
     5.385E-09    5.409E-09    5.432E-09    5.453E-09    5.473E-09    5.490E-09    5.505E-09    5.518E-09    5.529E-09    5.538E-09
     5.544E-09    5.549E-09    5.550E-09    5.550E-09    5.547E-09    5.542E-09    5.534E-09    5.523E-09    5.510E-09    5.494E-09
     5.475E-09    5.453E-09    5.429E-09    5.401E-09    5.371E-09    5.337E-09    5.301E-09    5.261E-09    5.218E-09    5.172E-09
     5.123E-09    5.070E-09    5.014E-09    4.954E-09    4.891E-09    4.824E-09    4.753E-09    4.679E-09    4.602E-09    4.521E-09
     4.438E-09    4.351E-09    4.262E-09    4.169E-09    4.075E-09    3.977E-09    3.878E-09    3.776E-09    3.673E-09    3.567E-09
     3.460E-09    3.351E-09    3.241E-09    3.129E-09    3.017E-09    2.903E-09    2.788E-09    2.673E-09    2.557E-09    2.440E-09
     2.323E-09    2.206E-09    2.089E-09    1.972E-09    1.855E-09    1.738E-09    1.622E-09    1.507E-09    1.392E-09    1.278E-09
     1.165E-09    1.053E-09    9.430E-10    8.340E-10    7.266E-10    6.210E-10    5.172E-10    4.153E-10    3.156E-10    2.182E-10
     1.232E-10    3.070E-11   -5.911E-11   -1.461E-10   -2.301E-10   -3.111E-10   -3.888E-10   -4.631E-10   -5.340E-10   -6.015E-10
    -6.657E-10   -7.265E-10   -7.842E-10   -8.388E-10   -8.902E-10   -9.387E-10   -9.843E-10   -1.027E-09   -1.067E-09   -1.104E-09
    -1.139E-09   -1.171E-09   -1.200E-09   -1.227E-09   -1.252E-09   -1.274E-09   -1.294E-09   -1.312E-09   -1.328E-09   -1.342E-09
    -1.354E-09   -1.363E-09   -1.372E-09   -1.378E-09   -1.383E-09   -1.386E-09   -1.387E-09   -1.387E-09   -1.386E-09   -1.383E-09
    -1.379E-09   -1.374E-09   -1.368E-09   -1.360E-09   -1.352E-09   -1.343E-09   -1.332E-09   -1.321E-09   -1.310E-09   -1.297E-09
    -1.284E-09   -1.271E-09   -1.257E-09   -1.243E-09   -1.228E-09   -1.214E-09   -1.199E-09   -1.183E-09   -1.168E-09   -1.153E-09
    -1.138E-09   -1.123E-09   -1.108E-09   -1.094E-09   -1.079E-09   -1.065E-09   -1.050E-09   -1.036E-09   -1.022E-09   -1.008E-09
    -9.940E-10   -9.804E-10   -9.669E-10   -9.535E-10   -9.404E-10   -9.274E-10   -9.146E-10   -9.020E-10   -8.897E-10   -8.775E-10
    -8.656E-10   -8.539E-10   -8.424E-10   -8.312E-10   -8.202E-10   -8.095E-10   -7.991E-10   -7.889E-10   -7.790E-10   -7.694E-10
    -7.601E-10   -7.511E-10   -7.424E-10   -7.340E-10   -7.260E-10   -7.183E-10   -7.109E-10   -7.038E-10   -6.971E-10   -6.908E-10
    -6.848E-10   -6.792E-10   -6.740E-10   -6.692E-10   -6.648E-10   -6.608E-10   -6.572E-10   -6.540E-10   -6.512E-10   -6.489E-10
    -6.470E-10   -6.455E-10   -6.445E-10   -6.439E-10   -6.438E-10   -6.440E-10   -6.446E-10   -6.457E-10   -6.471E-10   -6.488E-10
    -6.509E-10   -6.534E-10   -6.562E-10   -6.593E-10   -6.627E-10   -6.664E-10   -6.704E-10   -6.747E-10   -6.792E-10   -6.840E-10
    -6.891E-10   -6.943E-10   -6.998E-10   -7.055E-10   -7.114E-10   -7.175E-10   -7.237E-10   -7.302E-10   -7.367E-10   -7.435E-10
    -7.503E-10   -7.573E-10   -7.644E-10   -7.715E-10   -7.788E-10   -7.862E-10   -7.936E-10   -8.010E-10   -8.086E-10   -8.161E-10
    -8.237E-10   -8.312E-10   -8.388E-10   -8.464E-10   -8.539E-10   -8.614E-10   -8.689E-10   -8.763E-10   -8.837E-10   -8.909E-10
    -8.981E-10   -9.052E-10   -9.122E-10
 Asp      Conc. = 1.45E-09
  -8.56605E-10 -1.75261E-09 -1.60598E-09 -1.51201E-09 -1.93996E-09 -1.64418E-09 -1.79771E-09 -1.96625E-09 -1.99223E-09 -1.95297E-09
  -1.90785E-09 -1.83335E-09 -1.77070E-09 -1.68961E-09 -1.60822E-09 -1.52627E-09 -1.44330E-09 -1.35936E-09 -1.27462E-09 -1.18915E-09
  -1.10303E-09 -1.01629E-09 -9.28905E-10 -8.40851E-10 -7.52070E-10 -6.62420E-10 -5.71740E-10 -4.79765E-10 -3.86143E-10 -2.90309E-10
  -1.91416E-10 -8.81441E-11  2.19527E-11  1.43590E-10  2.87884E-10  4.87478E-10  7.47892E-10  6.54428E-10  1.19771E-09  6.94504E-10
   1.45348E-09  1.04793E-09  2.07478E-09  1.50752E-09  3.32638E-09  1.79580E-09  3.39346E-09  2.33988E-09  3.89523E-09  2.27879E-09
   4.14285E-09  2.59717E-09  4.11509E-09  3.16170E-09  3.94738E-09  3.28950E-09  3.27017E-09  2.37152E-09  3.27820E-09  3.14649E-09
   2.56161E-09  2.93631E-09  2.75617E-09  2.67983E-09  2.71546E-09  2.98504E-09  2.89396E-09  2.87993E-09  2.89963E-09  2.93546E-09
   2.98024E-09  3.03050E-09  3.08433E-09  3.14057E-09  3.19844E-09  3.25744E-09  3.31719E-09  3.37742E-09  3.43794E-09  3.49856E-09
   3.55916E-09  3.61964E-09  3.67993E-09  3.73993E-09  3.79959E-09  3.85887E-09  3.91771E-09  3.97608E-09  4.03394E-09  4.09125E-09
   4.14801E-09  4.20415E-09  4.25969E-09  4.31458E-09  4.36881E-09  4.42236E-09  4.47521E-09  4.52734E-09  4.57873E-09  4.62938E-09
   4.67924E-09  4.72834E-09  4.77664E-09  4.82412E-09  4.87080E-09  4.91660E-09  4.96148E-09  5.00539E-09  5.04827E-09  5.09007E-09
   5.13072E-09  5.17018E-09  5.20839E-09  5.24529E-09  5.28084E-09  5.31497E-09  5.34763E-09  5.37876E-09  5.40832E-09  5.43624E-09
   5.46248E-09  5.48698E-09  5.50968E-09  5.53054E-09  5.54949E-09  5.56649E-09  5.58148E-09  5.59440E-09  5.60521E-09  5.61385E-09
   5.62026E-09  5.62440E-09  5.62621E-09  5.62564E-09  5.62264E-09  5.61714E-09  5.60911E-09  5.59849E-09  5.58522E-09  5.56927E-09
   5.55057E-09  5.52907E-09  5.50473E-09  5.47751E-09  5.44735E-09  5.41420E-09  5.37802E-09  5.33878E-09  5.29643E-09  5.25094E-09
   5.20228E-09  5.15043E-09  5.09539E-09  5.03714E-09  4.97573E-09  4.91120E-09  4.84369E-09  4.77350E-09  4.70115E-09  4.62735E-09
   4.55324E-09  4.48079E-09  4.41390E-09  4.36158E-09  4.34968E-09  4.48160E-09  5.40274E-09  5.95779E-09  4.69580E-09  6.49546E-09
   4.57536E-09  6.22438E-09  4.83603E-09  5.78043E-09  4.33034E-09  5.83737E-09  3.80293E-09  5.93754E-09  3.49320E-09  2.87801E-09
   2.60506E-09  2.41839E-09  2.26326E-09  2.12272E-09  1.99007E-09  1.86233E-09  1.73791E-09  1.61601E-09  1.49622E-09  1.37829E-09
   1.26209E-09  1.14763E-09  1.03488E-09  9.23933E-10  8.14818E-10  7.07644E-10  6.02502E-10  4.99517E-10  3.98771E-10  3.00409E-10
   2.04544E-10  1.11298E-10  2.08056E-11 -6.68163E-11 -1.51429E-10 -2.32910E-10 -3.11099E-10 -3.85913E-10 -4.57218E-10 -5.25098E-10
  -5.89607E-10 -6.50827E-10 -7.08819E-10 -7.63666E-10 -8.15427E-10 -8.64185E-10 -9.09998E-10 -9.52937E-10 -9.93084E-10 -1.03050E-09
  -1.06525E-09 -1.09742E-09 -1.12706E-09 -1.15425E-09 -1.17906E-09 -1.20156E-09 -1.22180E-09 -1.23988E-09 -1.25587E-09 -1.26981E-09
  -1.28177E-09 -1.29185E-09 -1.30009E-09 -1.30658E-09 -1.31137E-09 -1.31456E-09 -1.31619E-09 -1.31633E-09 -1.31506E-09 -1.31245E-09
  -1.30856E-09 -1.30346E-09 -1.29722E-09 -1.28993E-09 -1.28162E-09 -1.27239E-09 -1.26230E-09 -1.25143E-09 -1.23981E-09 -1.22754E-09
  -1.21469E-09 -1.20133E-09 -1.18751E-09 -1.17331E-09 -1.15882E-09 -1.14407E-09 -1.12915E-09 -1.11412E-09 -1.09907E-09 -1.08406E-09
  -1.06912E-09 -1.05425E-09 -1.03949E-09 -1.02481E-09 -1.01025E-09 -9.95798E-10 -9.81466E-10 -9.67264E-10 -9.53195E-10 -9.39269E-10
  -9.25494E-10 -9.11874E-10 -8.98421E-10 -8.85137E-10 -8.72030E-10 -8.59112E-10 -8.46385E-10 -8.33860E-10 -8.21539E-10 -8.09437E-10
  -7.97553E-10 -7.85904E-10 -7.74484E-10 -7.63310E-10 -7.52390E-10 -7.41728E-10 -7.31328E-10 -7.21201E-10 -7.11356E-10 -7.01800E-10
  -6.92537E-10 -6.83573E-10 -6.74917E-10 -6.66583E-10 -6.58566E-10 -6.50885E-10 -6.43539E-10 -6.36537E-10 -6.29886E-10 -6.23599E-10
  -6.17679E-10 -6.12126E-10 -6.06961E-10 -6.02180E-10 -5.97794E-10 -5.93816E-10 -5.90247E-10 -5.87090E-10 -5.84364E-10 -5.82064E-10
  -5.80207E-10 -5.78800E-10 -5.77828E-10 -5.77285E-10 -5.77159E-10 -5.77442E-10 -5.78120E-10 -5.79183E-10 -5.80622E-10 -5.82423E-10
  -5.84579E-10 -5.87073E-10 -5.89898E-10 -5.93043E-10 -5.96496E-10 -6.00247E-10 -6.04283E-10 -6.08596E-10 -6.13172E-10 -6.18000E-10
  -6.23073E-10 -6.28377E-10 -6.33898E-10 -6.39632E-10 -6.45562E-10 -6.51680E-10 -6.57975E-10 -6.64435E-10 -6.71048E-10 -6.77805E-10
  -6.84694E-10 -6.91705E-10 -6.98825E-10 -7.06046E-10 -7.13352E-10 -7.20737E-10 -7.28190E-10 -7.35696E-10 -7.43246E-10 -7.50829E-10
  -7.58435E-10 -7.66052E-10 -7.73669E-10 -7.81275E-10 -7.88857E-10 -7.96409E-10 -8.03918E-10 -8.11368E-10 -8.18756E-10 -8.26066E-10
  -8.33287E-10 -8.40410E-10 -8.47422E-10
 Cr       Conc. = 3.81E-11
  -2.73181E-09 -2.83962E-09 -2.55989E-09 -2.61460E-09 -2.56695E-09 -2.49108E-09 -2.40914E-09 -2.32520E-09 -2.24042E-09 -2.15521E-09
  -2.06979E-09 -1.98426E-09 -1.89865E-09 -1.81304E-09 -1.72742E-09 -1.64182E-09 -1.55628E-09 -1.47075E-09 -1.38530E-09 -1.29988E-09
  -1.21453E-09 -1.12923E-09 -1.04396E-09 -9.58699E-10 -8.73430E-10 -7.88050E-10 -7.02422E-10 -6.16221E-10 -5.28688E-10 -4.37488E-10
  -3.32786E-10 -1.49533E-10 -7.08751E-11 -5.45959E-12  1.48925E-10  1.60521E-10  3.19787E-10  3.56539E-10  4.60475E-10  5.09496E-10
   6.38029E-10  6.50685E-10  8.42120E-10  7.58186E-10  8.05567E-10  8.75179E-10  9.50420E-10  1.02757E-09  1.10546E-09  1.18357E-09
   1.26174E-09  1.33979E-09  1.41767E-09  1.49531E-09  1.57267E-09  1.64974E-09  1.72649E-09  1.80291E-09  1.87897E-09  1.95465E-09
   2.02995E-09  2.10486E-09  2.17935E-09  2.25342E-09  2.32704E-09  2.40023E-09  2.47296E-09  2.54522E-09  2.61699E-09  2.68827E-09
   2.75905E-09  2.82932E-09  2.89906E-09  2.96826E-09  3.03692E-09  3.10502E-09  3.17255E-09  3.23950E-09  3.30588E-09  3.37164E-09
   3.43680E-09  3.50133E-09  3.56523E-09  3.62849E-09  3.69109E-09  3.75304E-09  3.81430E-09  3.87489E-09  3.93478E-09  3.99396E-09
   4.05243E-09  4.11017E-09  4.16717E-09  4.22343E-09  4.27892E-09  4.33365E-09  4.38760E-09  4.44076E-09  4.49311E-09  4.54466E-09
   4.59537E-09  4.64527E-09  4.69432E-09  4.74251E-09  4.78985E-09  4.83628E-09  4.88176E-09  4.92623E-09  4.96964E-09  5.01194E-09
   5.05307E-09  5.09298E-09  5.13162E-09  5.16893E-09  5.20486E-09  5.23935E-09  5.27236E-09  5.30382E-09  5.33369E-09  5.36191E-09
   5.38842E-09  5.41318E-09  5.43613E-09  5.45722E-09  5.47639E-09  5.49359E-09  5.50877E-09  5.52187E-09  5.53283E-09  5.54161E-09
   5.54816E-09  5.55241E-09  5.55432E-09  5.55382E-09  5.55088E-09  5.54543E-09  5.53742E-09  5.52680E-09  5.51351E-09  5.49750E-09
   5.47872E-09  5.45710E-09  5.43261E-09  5.40519E-09  5.37478E-09  5.34133E-09  5.30479E-09  5.26509E-09  5.22220E-09  5.17605E-09
   5.12659E-09  5.07378E-09  5.01756E-09  4.95787E-09  4.89466E-09  4.82789E-09  4.75753E-09  4.68366E-09  4.60644E-09  4.52601E-09
   4.44254E-09  4.35621E-09  4.26723E-09  4.17593E-09  4.08295E-09  3.99037E-09  3.90957E-09  3.85311E-09  3.68253E-09  3.66639E-09
   3.47578E-09  3.44392E-09  3.27297E-09  3.21913E-09  3.03546E-09  3.00428E-09  2.79809E-09  2.77596E-09  2.58834E-09  2.45455E-09
   2.33282E-09  2.21368E-09  2.09541E-09  1.97764E-09  1.86026E-09  1.74336E-09  1.62702E-09  1.51131E-09  1.39641E-09  1.28243E-09
   1.16948E-09  1.05772E-09  9.47248E-10  8.38255E-10  7.30827E-10  6.25123E-10  5.21271E-10  4.19428E-10  3.19698E-10  2.22245E-10
   1.27200E-10  3.46952E-11 -5.51243E-11 -1.42132E-10 -2.26182E-10 -3.07145E-10 -3.84856E-10 -4.59228E-10 -5.30124E-10 -5.97621E-10
  -6.61775E-10 -7.22660E-10 -7.80341E-10 -8.34894E-10 -8.86379E-10 -9.34876E-10 -9.80442E-10 -1.02315E-09 -1.06307E-09 -1.10028E-09
  -1.13483E-09 -1.16680E-09 -1.19627E-09 -1.22328E-09 -1.24793E-09 -1.27027E-09 -1.29035E-09 -1.30829E-09 -1.32414E-09 -1.33793E-09
