 LCModel (Version 6.3-1R) Copyright: S.W. Provencher.          Ref.: Magn. Reson. Med. 30:672-679 (1993).                
 onepulse 11x15_ftSpec_smooth_lcm
 26 lines in following concentration table = NCONC+1
    Conc.  %SD /Cr+PCr  Metabolite                                         
    0.000 999%   0.000 Ala                                                 
 9.83E-10  81%   9.230 Asp                                                 
 1.07E-10 335%   1.000 Cr                                                  
 1.19E-09  49%  11.206 GABA                                                
 1.55E-10 999%   1.456 Glc                                                 
 8.70E-10  80%   8.168 Gln                                                 
    0.000 999%   0.000 Glu                                                 
    0.000 999%   0.000 Glyc                                                
    0.000 999%   0.000 GPC                                                 
 1.00E-09  62%   9.425 GSH                                                 
 2.08E-09  27%  19.509 Ins                                                 
    0.000 999%   0.000 Lac                                                 
    0.000 999%   0.000 NAAG                                                
 6.63E-10  39%   6.222 NAA                                                 
    0.000 999%   0.000 PCh                                                 
    0.000 999%   0.000 PCr                                                 
 2.28E-09  63%  21.434 PE                                                  
 1.74E-10 144%   1.629 Scyllo                                              
 7.38E-10 229%   6.923 Ser                                                 
 1.11E-10 999%   1.037 Tau                                                 
    0.000 999%   0.000 GPC+PCh                                             
 6.63E-10  39%   6.222 NAA+NAAG                                            
 2.08E-09  27%  19.509 Ins+Glyc                                            
 1.07E-10 335%   1.000 Cr+PCr                                              
 8.70E-10  80%   8.168 Glu+Gln                                             
   6 lines in following misc. output table
  FWHM = 0.123 ppm    S/N =   4                                            
  Data shift = 0.425 ppm                                                   
  Ph:  35 deg     -30.2 deg/ppm                                            
  alphaB,S = 3.8E-01,   1.4E+01                                            
   10 spline knots.   Ns = 5(1)                                            
  (12) 6 infls.   (11) 5 extrs.                                            
  363 points on ppm-axis = NY
      4.250000     4.238821     4.227641     4.216462     4.205282     4.194103     4.182923     4.171744     4.160564     4.149385
      4.138206     4.127026     4.115847     4.104667     4.093488     4.082308     4.071129     4.059949     4.048770     4.037591
      4.026411     4.015232     4.004052     3.992873     3.981693     3.970514     3.959334     3.948155     3.936975     3.925796
      3.914617     3.903437     3.892258     3.881078     3.869899     3.858719     3.847540     3.836360     3.825181     3.814002
      3.802822     3.791643     3.780463     3.769284     3.758104     3.746925     3.735745     3.724566     3.713387     3.702207
      3.691028     3.679848     3.668669     3.657489     3.646310     3.635130     3.623951     3.612772     3.601592     3.590413
      3.579233     3.568054     3.556874     3.545695     3.534515     3.523336     3.512156     3.500977     3.489798     3.478618
      3.467439     3.456259     3.445080     3.433900     3.422721     3.411541     3.400362     3.389183     3.378003     3.366824
      3.355644     3.344465     3.333285     3.322106     3.310926     3.299747     3.288568     3.277388     3.266209     3.255029
      3.243850     3.232670     3.221491     3.210311     3.199132     3.187953     3.176773     3.165594     3.154414     3.143235
      3.132055     3.120876     3.109696     3.098517     3.087337     3.076158     3.064979     3.053799     3.042620     3.031440
      3.020261     3.009081     2.997902     2.986722     2.975543     2.964364     2.953184     2.942005     2.930825     2.919646
      2.908466     2.897287     2.886107     2.874928     2.863749     2.852569     2.841390     2.830210     2.819031     2.807851
      2.796672     2.785492     2.774313     2.763134     2.751954     2.740775     2.729595     2.718416     2.707236     2.696057
      2.684877     2.673698     2.662519     2.651339     2.640160     2.628980     2.617801     2.606621     2.595442     2.584262
      2.573083     2.561903     2.550724     2.539545     2.528365     2.517186     2.506006     2.494827     2.483647     2.472468
      2.461288     2.450109     2.438930     2.427750     2.416571     2.405391     2.394212     2.383032     2.371853     2.360673
      2.349494     2.338315     2.327135     2.315956     2.304776     2.293597     2.282417     2.271238     2.260058     2.248879
      2.237700     2.226520     2.215341     2.204161     2.192982     2.181802     2.170623     2.159443     2.148264     2.137084
      2.125905     2.114726     2.103546     2.092367     2.081187     2.070008     2.058828     2.047649     2.036469     2.025290
      2.014111     2.002931     1.991752     1.980572     1.969393     1.958213     1.947034     1.935854     1.924675     1.913496
      1.902316     1.891137     1.879957     1.868778     1.857598     1.846419     1.835239     1.824060     1.812881     1.801701
      1.790522     1.779342     1.768163     1.756983     1.745804     1.734624     1.723445     1.712265     1.701086     1.689907
      1.678727     1.667548     1.656368     1.645189     1.634009     1.622830     1.611650     1.600471     1.589292     1.578112
      1.566933     1.555753     1.544574     1.533394     1.522215     1.511035     1.499856     1.488677     1.477497     1.466318
      1.455138     1.443959     1.432779     1.421600     1.410420     1.399241     1.388062     1.376882     1.365703     1.354523
      1.343344     1.332164     1.320985     1.309805     1.298626     1.287446     1.276267     1.265088     1.253908     1.242729
      1.231549     1.220370     1.209190     1.198011     1.186831     1.175652     1.164473     1.153293     1.142114     1.130934
      1.119755     1.108575     1.097396     1.086216     1.075037     1.063858     1.052678     1.041499     1.030319     1.019140
      1.007960     0.996781     0.985601     0.974422     0.963243     0.952063     0.940884     0.929704     0.918525     0.907345
      0.896166     0.884986     0.873807     0.862628     0.851448     0.840269     0.829089     0.817910     0.806730     0.795551
      0.784371     0.773192     0.762012     0.750833     0.739654     0.728474     0.717295     0.706115     0.694936     0.683756
      0.672577     0.661397     0.650218     0.639039     0.627859     0.616680     0.605500     0.594321     0.583141     0.571962
      0.560782     0.549603     0.538424     0.527244     0.516065     0.504885     0.493706     0.482526     0.471347     0.460167
      0.448988     0.437809     0.426629     0.415450     0.404270     0.393091     0.381911     0.370732     0.359552     0.348373
      0.337193     0.326014     0.314835     0.303655     0.292476     0.281296     0.270117     0.258937     0.247758     0.236578
      0.225399     0.214220     0.203040
 NY phased data points follow
   1.46153E-08  1.31546E-08  1.40662E-08  1.29491E-08  1.32117E-08  1.28823E-08  1.36436E-08  1.31196E-08  1.38891E-08  1.31881E-08
   1.44680E-08  1.36386E-08  1.38710E-08  1.26771E-08  1.35340E-08  1.26988E-08  1.32914E-08  1.23376E-08  1.28916E-08  1.26233E-08
   1.33355E-08  1.22765E-08  1.22782E-08  1.20703E-08  1.22628E-08  1.23974E-08  1.33136E-08  1.37237E-08  1.41940E-08  1.42579E-08
   1.37819E-08  1.35079E-08  1.27640E-08  1.26895E-08  1.23069E-08  1.24125E-08  1.17238E-08  1.17441E-08  1.17564E-08  1.16992E-08
   1.13698E-08  1.13421E-08  1.05458E-08  1.05293E-08  1.04797E-08  9.98615E-09  1.02566E-08  1.03982E-08  9.48612E-09  9.33952E-09
   9.14373E-09  8.82865E-09  8.61066E-09  8.43270E-09  7.77736E-09  8.77684E-09  8.32603E-09  1.03605E-08  1.07738E-08  1.21403E-08
   1.17470E-08  1.21170E-08  1.15254E-08  1.12751E-08  1.03930E-08  1.06326E-08  9.48030E-09  9.76725E-09  8.81831E-09  8.34445E-09
   7.03130E-09  7.23195E-09  7.09006E-09  8.94283E-09  9.66542E-09  1.27303E-08  1.23669E-08  1.38961E-08  1.24617E-08  1.35721E-08
   1.27094E-08  1.38293E-08  1.23349E-08  1.28052E-08  1.22912E-08  1.28601E-08  1.21725E-08  1.29262E-08  1.17305E-08  1.21588E-08
   1.10761E-08  1.15424E-08  1.05609E-08  1.10479E-08  9.50382E-09  1.03722E-08  9.56457E-09  1.01975E-08  9.81694E-09  9.92920E-09
   9.17566E-09  1.01831E-08  8.74071E-09  8.95066E-09  8.26923E-09  8.38835E-09  7.23718E-09  8.41639E-09  7.16835E-09  8.29020E-09
   7.31678E-09  8.30741E-09  7.16032E-09  8.45399E-09  7.31610E-09  8.16429E-09  7.36044E-09  8.29982E-09  6.63217E-09  7.43433E-09
   5.69388E-09  7.09154E-09  5.94659E-09  6.89288E-09  5.76881E-09  6.38347E-09  5.73559E-09  7.01729E-09  6.14070E-09  7.13356E-09
   6.01222E-09  7.19231E-09  6.23705E-09  7.30389E-09  6.83130E-09  8.41692E-09  7.33444E-09  9.03617E-09  7.34811E-09  9.09798E-09
   8.86869E-09  1.02807E-08  9.00632E-09  1.08644E-08  9.82650E-09  1.06267E-08  9.85642E-09  1.07504E-08  1.04692E-08  1.14757E-08
   9.94235E-09  1.13133E-08  1.01358E-08  1.16865E-08  1.06721E-08  1.19083E-08  1.04550E-08  1.19441E-08  1.12466E-08  1.15964E-08
   1.06610E-08  1.13467E-08  1.02286E-08  1.09312E-08  1.04370E-08  1.37595E-08  1.56422E-08  1.89096E-08  1.87966E-08  2.05155E-08
   2.02673E-08  2.09860E-08  2.03293E-08  2.10897E-08  1.99917E-08  2.05291E-08  1.92485E-08  1.94557E-08  1.74859E-08  1.76723E-08
   1.47963E-08  1.44060E-08  1.22206E-08  1.07564E-08  7.70081E-09  6.20738E-09  3.70211E-09  1.70001E-09 -6.19477E-10 -1.73536E-09
  -3.92245E-09 -5.02179E-09 -6.68292E-09 -7.19221E-09 -8.15973E-09 -7.38256E-09 -7.74280E-09 -6.87457E-09 -7.08428E-09 -5.56134E-09
  -5.34020E-09 -3.88063E-09 -3.41659E-09 -2.84514E-09 -2.76789E-09 -1.75077E-09 -2.30629E-09 -1.40184E-09 -1.95443E-09 -1.87319E-09
  -2.31641E-09 -1.76101E-09 -1.82071E-09 -1.25580E-09 -1.83495E-09 -8.41512E-10 -1.48347E-09 -7.97024E-10 -1.28359E-09 -7.25502E-10
  -9.88607E-10 -7.27149E-10 -1.49253E-09 -1.20332E-09 -8.06384E-10 -6.75293E-10 -1.25963E-09 -4.57079E-10 -7.84750E-10 -6.85753E-11
  -8.70243E-10 -2.02631E-10 -1.03916E-09 -5.23756E-10 -1.21320E-09 -9.02221E-10 -1.04320E-09 -6.12580E-10 -1.63144E-09 -4.20210E-10
  -9.34970E-10 -8.33304E-10 -1.14761E-09 -8.29567E-10 -9.03362E-10 -5.13122E-10 -9.68150E-10 -2.81219E-10 -7.11008E-10 -9.25656E-11
  -1.20885E-09 -3.15601E-10 -6.34409E-10 -6.93105E-10 -1.22495E-09 -7.41337E-10 -1.10744E-09 -1.10284E-09 -1.69232E-09 -1.42029E-09
  -1.39401E-09 -1.45094E-09 -2.13779E-09 -1.43489E-09 -1.70114E-09 -1.68292E-09 -1.88785E-09 -1.86058E-09 -1.76882E-09 -1.10058E-09
  -9.69554E-10 -4.72431E-10 -9.26687E-10 -3.65718E-10 -7.23662E-10 -3.54669E-10 -7.71158E-10 -1.97464E-10 -4.36644E-11 -3.48023E-10
  -4.75465E-10 -3.22301E-10 -5.76859E-10  1.94014E-10 -8.46741E-10 -5.44692E-11 -6.50951E-10 -2.94160E-10 -1.14917E-09 -4.39976E-10
  -7.03510E-10 -2.02773E-10 -1.13044E-09 -4.43382E-10 -7.10892E-10 -6.15190E-10 -1.15566E-09 -5.87788E-10 -1.27410E-09 -9.59330E-10
  -1.11473E-09 -8.40524E-10 -1.75957E-09 -1.17234E-09 -1.58692E-09 -8.84823E-10 -1.66662E-09 -1.40276E-09 -1.73558E-09 -1.21726E-09
  -1.22508E-09 -1.51161E-09 -1.89203E-09 -1.05217E-09 -1.84967E-09 -2.22080E-09 -2.00661E-09 -1.23420E-09 -2.14277E-09 -2.01334E-09
  -2.05276E-09 -1.45482E-09 -1.87309E-09 -1.63660E-09 -1.96676E-09 -1.68076E-09 -2.25226E-09 -1.60726E-09 -1.74567E-09 -2.22334E-09
  -2.79310E-09 -2.42326E-09 -2.52032E-09 -2.61734E-09 -2.41345E-09 -2.05471E-09 -2.55924E-09 -2.35013E-09 -2.73121E-09 -2.41510E-09
  -2.64298E-09 -2.17668E-09 -3.10556E-09 -2.41936E-09 -2.78034E-09 -2.27765E-09 -2.78702E-09 -3.03439E-09 -3.11634E-09 -2.46804E-09
  -2.94738E-09 -2.88983E-09 -3.53484E-09 -2.93279E-09 -3.36875E-09 -3.31751E-09 -2.87942E-09 -3.00251E-09 -2.73606E-09 -3.04797E-09
  -3.52852E-09 -2.94798E-09 -3.30983E-09
 NY points of the fit to the data follow
   1.51706E-08  1.41715E-08  1.34951E-08  1.24950E-08  1.23532E-08  1.30737E-08  1.31506E-08  1.29634E-08  1.40431E-08  1.44612E-08
   1.37746E-08  1.35974E-08  1.31576E-08  1.32115E-08  1.38182E-08  1.38371E-08  1.27234E-08  1.29712E-08  1.40549E-08  1.31443E-08
   1.12737E-08  1.10539E-08  1.18656E-08  1.25300E-08  1.24899E-08  1.31699E-08  1.37844E-08  1.40886E-08  1.38586E-08  1.35278E-08
   1.36074E-08  1.36409E-08  1.33702E-08  1.28539E-08  1.24181E-08  1.24167E-08  1.18431E-08  1.16667E-08  1.15947E-08  1.13554E-08
   1.09341E-08  1.09928E-08  1.10795E-08  1.03992E-08  1.00862E-08  9.74437E-09  9.36898E-09  8.52613E-09  8.30928E-09  8.34630E-09
   8.71842E-09  9.17959E-09  9.47434E-09  9.77362E-09  1.00957E-08  9.99803E-09  9.92129E-09  1.05550E-08  1.10537E-08  1.08786E-08
   1.08460E-08  1.07605E-08  1.08577E-08  1.07760E-08  1.05951E-08  1.06484E-08  1.05974E-08  1.03789E-08  9.98173E-09  9.84002E-09
   1.01289E-08  1.02361E-08  1.02808E-08  1.01590E-08  1.06770E-08  1.08820E-08  1.07801E-08  1.25263E-08  1.32195E-08  1.32527E-08
   1.32490E-08  1.30527E-08  1.30407E-08  1.30543E-08  1.28226E-08  1.26034E-08  1.28259E-08  1.25118E-08  1.03422E-08  9.71054E-09
   9.44347E-09  9.19253E-09  9.34163E-09  9.30985E-09  8.83304E-09  8.87153E-09  8.93139E-09  8.57420E-09  8.45657E-09  8.44214E-09
   8.33696E-09  8.27370E-09  8.24334E-09  8.23270E-09  8.23520E-09  8.24658E-09  8.26425E-09  8.28660E-09  8.31248E-09  8.34110E-09
   8.37194E-09  8.40390E-09  8.43667E-09  8.46988E-09  8.50316E-09  8.53640E-09  8.56941E-09  8.60177E-09  8.63326E-09  8.66371E-09
   8.69289E-09  8.72068E-09  8.74692E-09  8.77142E-09  8.79402E-09  8.81460E-09  8.83299E-09  8.84905E-09  8.86265E-09  8.87366E-09
   8.88193E-09  8.88735E-09  8.88980E-09  8.88914E-09  8.88527E-09  8.87806E-09  8.86740E-09  8.85316E-09  8.83525E-09  8.81356E-09
   8.78799E-09  8.75844E-09  8.72484E-09  8.68709E-09  8.64509E-09  8.59880E-09  8.54817E-09  8.49315E-09  8.43374E-09  8.36995E-09
   8.30179E-09  8.22939E-09  8.15290E-09  8.07253E-09  7.98867E-09  7.90184E-09  7.81294E-09  7.72339E-09  7.63545E-09  7.55241E-09
   7.47955E-09  7.42581E-09  7.40791E-09  7.46097E-09  7.67308E-09  8.33398E-09  1.09029E-08  1.78367E-08  2.06923E-08  2.09064E-08
   2.08979E-08  2.10701E-08  2.10180E-08  2.08987E-08  2.06842E-08  2.11086E-08  2.19597E-08  1.95697E-08  1.04467E-08  6.50732E-09
   5.23436E-09  4.58034E-09  4.14126E-09  3.79973E-09  3.51025E-09  3.25190E-09  3.01376E-09  2.78968E-09  2.57606E-09  2.37061E-09
   2.17190E-09  1.97901E-09  1.79132E-09  1.60851E-09  1.43031E-09  1.25664E-09  1.08746E-09  9.22814E-10  7.62739E-10  6.07368E-10
   4.56821E-10  3.11237E-10  1.70788E-10  3.56336E-11 -9.40314E-11 -2.18025E-10 -3.36115E-10 -4.48164E-10 -5.53987E-10 -6.53750E-10
  -7.47592E-10 -8.35679E-10 -9.18155E-10 -9.95186E-10 -1.06691E-09 -1.13349E-09 -1.19506E-09 -1.25176E-09 -1.30377E-09 -1.35121E-09
  -1.39422E-09 -1.43296E-09 -1.46757E-09 -1.49819E-09 -1.52497E-09 -1.54804E-09 -1.56753E-09 -1.58362E-09 -1.59646E-09 -1.60612E-09
  -1.61279E-09 -1.61662E-09 -1.61772E-09 -1.61627E-09 -1.61237E-09 -1.60619E-09 -1.59787E-09 -1.58753E-09 -1.57532E-09 -1.56138E-09
  -1.54585E-09 -1.52886E-09 -1.51057E-09 -1.49111E-09 -1.47062E-09 -1.44924E-09 -1.42711E-09 -1.40440E-09 -1.38118E-09 -1.35762E-09
  -1.33388E-09 -1.31011E-09 -1.28641E-09 -1.26292E-09 -1.23983E-09 -1.21722E-09 -1.19527E-09 -1.17409E-09 -1.15385E-09 -1.13468E-09
  -1.11663E-09 -1.09971E-09 -1.08391E-09 -1.06922E-09 -1.05562E-09 -1.04312E-09 -1.03170E-09 -1.02135E-09 -1.01206E-09 -1.00382E-09
  -9.96623E-10 -9.90455E-10 -9.85315E-10 -9.81181E-10 -9.78046E-10 -9.75909E-10 -9.74752E-10 -9.74568E-10 -9.75342E-10 -9.77075E-10
  -9.79743E-10 -9.83353E-10 -9.87875E-10 -9.93311E-10 -9.99656E-10 -1.00690E-09 -1.01501E-09 -1.02400E-09 -1.03386E-09 -1.04457E-09
  -1.05612E-09 -1.06851E-09 -1.08171E-09 -1.09574E-09 -1.11057E-09 -1.12619E-09 -1.14260E-09 -1.15978E-09 -1.17772E-09 -1.19642E-09
  -1.21586E-09 -1.23603E-09 -1.25694E-09 -1.27855E-09 -1.30086E-09 -1.32388E-09 -1.34758E-09 -1.37195E-09 -1.39699E-09 -1.42267E-09
  -1.44901E-09 -1.47600E-09 -1.50359E-09 -1.53178E-09 -1.56056E-09 -1.58991E-09 -1.61981E-09 -1.65024E-09 -1.68120E-09 -1.71265E-09
  -1.74459E-09 -1.77700E-09 -1.80986E-09 -1.84315E-09 -1.87686E-09 -1.91097E-09 -1.94547E-09 -1.98033E-09 -2.01553E-09 -2.05107E-09
  -2.08693E-09 -2.12309E-09 -2.15953E-09 -2.19623E-09 -2.23318E-09 -2.27037E-09 -2.30776E-09 -2.34536E-09 -2.38313E-09 -2.42107E-09
  -2.45916E-09 -2.49738E-09 -2.53570E-09 -2.57413E-09 -2.61263E-09 -2.65120E-09 -2.68981E-09 -2.72845E-09 -2.76710E-09 -2.80575E-09
  -2.84438E-09 -2.88296E-09 -2.92149E-09 -2.95995E-09 -2.99831E-09 -3.03657E-09 -3.07471E-09 -3.11270E-09 -3.15054E-09 -3.18821E-09
  -3.22568E-09 -3.26295E-09 -3.29999E-09
 NY background values follow
     8.141E-10    8.796E-10    9.452E-10    1.011E-09    1.077E-09    1.142E-09    1.208E-09    1.274E-09    1.340E-09    1.406E-09
     1.472E-09    1.538E-09    1.604E-09    1.670E-09    1.736E-09    1.802E-09    1.868E-09    1.934E-09    2.000E-09    2.065E-09
     2.131E-09    2.197E-09    2.262E-09    2.328E-09    2.393E-09    2.459E-09    2.524E-09    2.589E-09    2.654E-09    2.719E-09
     2.783E-09    2.848E-09    2.912E-09    2.976E-09    3.040E-09    3.104E-09    3.168E-09    3.231E-09    3.295E-09    3.358E-09
     3.421E-09    3.483E-09    3.546E-09    3.608E-09    3.670E-09    3.731E-09    3.793E-09    3.854E-09    3.914E-09    3.975E-09
     4.035E-09    4.095E-09    4.155E-09    4.214E-09    4.273E-09    4.332E-09    4.390E-09    4.448E-09    4.506E-09    4.563E-09
     4.621E-09    4.678E-09    4.734E-09    4.791E-09    4.847E-09    4.903E-09    4.958E-09    5.014E-09    5.069E-09    5.124E-09
     5.179E-09    5.234E-09    5.288E-09    5.342E-09    5.396E-09    5.450E-09    5.504E-09    5.557E-09    5.611E-09    5.664E-09
     5.717E-09    5.770E-09    5.822E-09    5.875E-09    5.927E-09    5.980E-09    6.032E-09    6.084E-09    6.136E-09    6.188E-09
     6.240E-09    6.292E-09    6.343E-09    6.395E-09    6.446E-09    6.498E-09    6.549E-09    6.601E-09    6.652E-09    6.703E-09
     6.755E-09    6.806E-09    6.857E-09    6.908E-09    6.959E-09    7.011E-09    7.061E-09    7.112E-09    7.162E-09    7.212E-09
     7.261E-09    7.309E-09    7.357E-09    7.403E-09    7.448E-09    7.492E-09    7.535E-09    7.576E-09    7.615E-09    7.653E-09
     7.689E-09    7.723E-09    7.755E-09    7.785E-09    7.813E-09    7.838E-09    7.860E-09    7.880E-09    7.897E-09    7.911E-09
     7.923E-09    7.931E-09    7.936E-09    7.937E-09    7.935E-09    7.930E-09    7.920E-09    7.907E-09    7.890E-09    7.869E-09
     7.844E-09    7.814E-09    7.780E-09    7.742E-09    7.698E-09    7.650E-09    7.598E-09    7.540E-09    7.477E-09    7.409E-09
     7.335E-09    7.256E-09    7.171E-09    7.081E-09    6.985E-09    6.883E-09    6.775E-09    6.661E-09    6.541E-09    6.416E-09
     6.286E-09    6.150E-09    6.011E-09    5.866E-09    5.718E-09    5.565E-09    5.409E-09    5.249E-09    5.086E-09    4.920E-09
     4.750E-09    4.579E-09    4.405E-09    4.229E-09    4.051E-09    3.871E-09    3.690E-09    3.507E-09    3.324E-09    3.140E-09
     2.956E-09    2.771E-09    2.586E-09    2.402E-09    2.218E-09    2.034E-09    1.852E-09    1.670E-09    1.491E-09    1.312E-09
     1.136E-09    9.614E-10    7.894E-10    6.199E-10    4.532E-10    2.896E-10    1.292E-10   -2.770E-11   -1.809E-10   -3.301E-10
    -4.750E-10   -6.156E-10   -7.515E-10   -8.825E-10   -1.008E-09   -1.129E-09   -1.244E-09   -1.353E-09   -1.456E-09   -1.553E-09
    -1.644E-09   -1.730E-09   -1.810E-09   -1.885E-09   -1.955E-09   -2.020E-09   -2.080E-09   -2.135E-09   -2.186E-09   -2.232E-09
    -2.273E-09   -2.311E-09   -2.344E-09   -2.373E-09   -2.399E-09   -2.421E-09   -2.439E-09   -2.454E-09   -2.466E-09   -2.475E-09
    -2.481E-09   -2.483E-09   -2.484E-09   -2.481E-09   -2.477E-09   -2.470E-09   -2.461E-09   -2.449E-09   -2.437E-09   -2.422E-09
    -2.406E-09   -2.388E-09   -2.369E-09   -2.349E-09   -2.328E-09   -2.306E-09   -2.283E-09   -2.260E-09   -2.236E-09   -2.212E-09
    -2.187E-09   -2.163E-09   -2.139E-09   -2.115E-09   -2.091E-09   -2.068E-09   -2.046E-09   -2.024E-09   -2.003E-09   -1.983E-09
    -1.965E-09   -1.948E-09   -1.931E-09   -1.916E-09   -1.902E-09   -1.889E-09   -1.877E-09   -1.866E-09   -1.857E-09   -1.848E-09
    -1.840E-09   -1.834E-09   -1.828E-09   -1.824E-09   -1.820E-09   -1.817E-09   -1.816E-09   -1.815E-09   -1.816E-09   -1.817E-09
    -1.819E-09   -1.822E-09   -1.827E-09   -1.832E-09   -1.838E-09   -1.844E-09   -1.852E-09   -1.861E-09   -1.870E-09   -1.881E-09
    -1.892E-09   -1.904E-09   -1.916E-09   -1.930E-09   -1.945E-09   -1.960E-09   -1.976E-09   -1.993E-09   -2.010E-09   -2.029E-09
    -2.048E-09   -2.067E-09   -2.088E-09   -2.109E-09   -2.131E-09   -2.154E-09   -2.177E-09   -2.201E-09   -2.226E-09   -2.251E-09
    -2.277E-09   -2.304E-09   -2.331E-09   -2.359E-09   -2.387E-09   -2.416E-09   -2.446E-09   -2.476E-09   -2.506E-09   -2.537E-09
    -2.569E-09   -2.601E-09   -2.633E-09   -2.666E-09   -2.700E-09   -2.733E-09   -2.768E-09   -2.802E-09   -2.837E-09   -2.872E-09
    -2.907E-09   -2.943E-09   -2.979E-09   -3.016E-09   -3.052E-09   -3.089E-09   -3.126E-09   -3.163E-09   -3.201E-09   -3.238E-09
    -3.276E-09   -3.314E-09   -3.352E-09   -3.390E-09   -3.428E-09   -3.466E-09   -3.504E-09   -3.542E-09   -3.581E-09   -3.619E-09
    -3.657E-09   -3.695E-09   -3.733E-09   -3.771E-09   -3.809E-09   -3.847E-09   -3.885E-09   -3.923E-09   -3.960E-09   -3.997E-09
    -4.034E-09   -4.071E-09   -4.108E-09
 Asp      Conc. = 9.83E-10
   1.90442E-09  1.78372E-09  1.77119E-09  1.67240E-09  1.69197E-09  1.64654E-09  1.58032E-09  1.50349E-09  1.50801E-09  1.54123E-09
   1.58714E-09  1.63951E-09  1.69623E-09  1.75806E-09  1.82093E-09  1.88435E-09  1.94851E-09  2.01332E-09  2.07869E-09  2.14454E-09
   2.21083E-09  2.27754E-09  2.34465E-09  2.41220E-09  2.48020E-09  2.54874E-09  2.61792E-09  2.68787E-09  2.75880E-09  2.83101E-09
   2.90498E-09  2.98138E-09  3.06142E-09  3.14724E-09  3.24334E-09  3.36130E-09  3.52800E-09  3.63536E-09  3.77723E-09  3.83766E-09
   3.89335E-09  3.98075E-09  4.16374E-09  4.42359E-09  4.74885E-09  5.10121E-09  5.13601E-09  5.06527E-09  5.29913E-09  5.36826E-09
   5.47144E-09  5.64991E-09  5.77825E-09  5.75501E-09  5.63986E-09  5.44846E-09  5.15410E-09  5.25684E-09  5.37240E-09  5.17316E-09
   5.12719E-09  5.14460E-09  5.08136E-09  5.09671E-09  5.19716E-09  5.27344E-09  5.23497E-09  5.23790E-09  5.26035E-09  5.29256E-09
   5.33041E-09  5.37184E-09  5.41570E-09  5.46127E-09  5.50808E-09  5.55581E-09  5.60425E-09  5.65322E-09  5.70260E-09  5.75229E-09
   5.80224E-09  5.85237E-09  5.90265E-09  5.95305E-09  6.00352E-09  6.05407E-09  6.10466E-09  6.15528E-09  6.20592E-09  6.25658E-09
   6.30725E-09  6.35793E-09  6.40860E-09  6.45927E-09  6.50995E-09  6.56062E-09  6.61129E-09  6.66196E-09  6.71264E-09  6.76332E-09
   6.81401E-09  6.86471E-09  6.91543E-09  6.96616E-09  7.01691E-09  7.06762E-09  7.11816E-09  7.16842E-09  7.21828E-09  7.26762E-09
   7.31632E-09  7.36427E-09  7.41134E-09  7.45742E-09  7.50238E-09  7.54611E-09  7.58850E-09  7.62942E-09  7.66876E-09  7.70639E-09
   7.74220E-09  7.77607E-09  7.80789E-09  7.83754E-09  7.86489E-09  7.88983E-09  7.91225E-09  7.93203E-09  7.94904E-09  7.96318E-09
   7.97432E-09  7.98235E-09  7.98715E-09  7.98860E-09  7.98659E-09  7.98100E-09  7.97171E-09  7.95861E-09  7.94158E-09  7.92052E-09
   7.89528E-09  7.86577E-09  7.83187E-09  7.79348E-09  7.75045E-09  7.70270E-09  7.65012E-09  7.59257E-09  7.52997E-09  7.46221E-09
   7.38918E-09  7.31079E-09  7.22695E-09  7.13755E-09  7.04255E-09  6.94187E-09  6.83557E-09  6.72385E-09  6.60719E-09  6.48609E-09
   6.36130E-09  6.23388E-09  6.10570E-09  5.98046E-09  5.86719E-09  5.79530E-09  5.91381E-09  6.52273E-09  6.57212E-09  6.41535E-09
   6.26300E-09  6.12845E-09  5.96218E-09  5.79261E-09  5.60821E-09  5.49697E-09  5.42971E-09  5.00651E-09  3.83606E-09  3.39688E-09
   3.12839E-09  2.90446E-09  2.69760E-09  2.49911E-09  2.30549E-09  2.11526E-09  1.92766E-09  1.74236E-09  1.55929E-09  1.37844E-09
   1.19988E-09  1.02378E-09  8.50255E-10  6.79536E-10  5.11756E-10  3.47153E-10  1.85922E-10  2.83056E-11 -1.25521E-10 -2.75301E-10
  -4.20818E-10 -5.61854E-10 -6.98170E-10 -8.29552E-10 -9.55762E-10 -1.07658E-09 -1.19173E-09 -1.30106E-09 -1.40436E-09 -1.50177E-09
  -1.59342E-09 -1.67945E-09 -1.75999E-09 -1.83520E-09 -1.90520E-09 -1.97016E-09 -2.03019E-09 -2.08544E-09 -2.13605E-09 -2.18218E-09
  -2.22392E-09 -2.26146E-09 -2.29491E-09 -2.32443E-09 -2.35014E-09 -2.37219E-09 -2.39070E-09 -2.40584E-09 -2.41776E-09 -2.42655E-09
  -2.43237E-09 -2.43537E-09 -2.43567E-09 -2.43344E-09 -2.42878E-09 -2.42188E-09 -2.41284E-09 -2.40180E-09 -2.38892E-09 -2.37432E-09
  -2.35815E-09 -2.34053E-09 -2.32163E-09 -2.30157E-09 -2.28049E-09 -2.25853E-09 -2.23585E-09 -2.21258E-09 -2.18881E-09 -2.16472E-09
  -2.14047E-09 -2.11618E-09 -2.09197E-09 -2.06798E-09 -2.04441E-09 -2.02131E-09 -1.99889E-09 -1.97724E-09 -1.95653E-09 -1.93691E-09
  -1.91841E-09 -1.90104E-09 -1.88480E-09 -1.86968E-09 -1.85565E-09 -1.84273E-09 -1.83088E-09 -1.82012E-09 -1.81042E-09 -1.80177E-09
  -1.79417E-09 -1.78760E-09 -1.78206E-09 -1.77753E-09 -1.77400E-09 -1.77148E-09 -1.76994E-09 -1.76937E-09 -1.76976E-09 -1.77112E-09
  -1.77341E-09 -1.77665E-09 -1.78080E-09 -1.78586E-09 -1.79184E-09 -1.79871E-09 -1.80646E-09 -1.81509E-09 -1.82459E-09 -1.83494E-09
  -1.84614E-09 -1.85816E-09 -1.87101E-09 -1.88469E-09 -1.89916E-09 -1.91443E-09 -1.93048E-09 -1.94731E-09 -1.96490E-09 -1.98325E-09
  -2.00235E-09 -2.02216E-09 -2.04272E-09 -2.06398E-09 -2.08595E-09 -2.10862E-09 -2.13198E-09 -2.15599E-09 -2.18069E-09 -2.20603E-09
  -2.23202E-09 -2.25866E-09 -2.28590E-09 -2.31375E-09 -2.34218E-09 -2.37118E-09 -2.40073E-09 -2.43082E-09 -2.46143E-09 -2.49253E-09
  -2.52413E-09 -2.55619E-09 -2.58869E-09 -2.62164E-09 -2.65500E-09 -2.68875E-09 -2.72290E-09 -2.75740E-09 -2.79226E-09 -2.82744E-09
  -2.86295E-09 -2.89875E-09 -2.93483E-09 -2.97118E-09 -3.00777E-09 -3.04459E-09 -3.08163E-09 -3.11886E-09 -3.15627E-09 -3.19385E-09
  -3.23157E-09 -3.26942E-09 -3.30738E-09 -3.34543E-09 -3.38357E-09 -3.42176E-09 -3.46000E-09 -3.49827E-09 -3.53654E-09 -3.57481E-09
  -3.61305E-09 -3.65126E-09 -3.68940E-09 -3.72748E-09 -3.76545E-09 -3.80333E-09 -3.84108E-09 -3.87868E-09 -3.91612E-09 -3.95339E-09
  -3.99047E-09 -4.02734E-09 -4.06397E-09
 Cr       Conc. = 1.07E-10
   1.16759E-09  1.26035E-09  1.28295E-09  1.12692E-09  1.13310E-09  1.18020E-09  1.23760E-09  1.29885E-09  1.36192E-09  1.42599E-09
   1.49066E-09  1.55573E-09  1.62106E-09  1.68658E-09  1.75225E-09  1.81801E-09  1.88386E-09  1.94978E-09  2.01575E-09  2.08179E-09
   2.14790E-09  2.21410E-09  2.28044E-09  2.34696E-09  2.41378E-09  2.48109E-09  2.54922E-09  2.61885E-09  2.69150E-09  2.77134E-09
   2.87400E-09  3.09112E-09  3.34028E-09  3.44334E-09  3.50940E-09  3.58137E-09  3.65327E-09  3.71897E-09  3.78147E-09  3.84905E-09
   3.94207E-09  4.01462E-09  3.90177E-09  3.72927E-09  3.73585E-09  3.77675E-09  3.82778E-09  3.88281E-09  3.93969E-09  3.99749E-09
   4.05574E-09  4.11417E-09  4.17261E-09  4.23097E-09  4.28919E-09  4.34724E-09  4.40509E-09  4.46272E-09  4.52013E-09  4.57731E-09
   4.63426E-09  4.69097E-09  4.74745E-09  4.80369E-09  4.85970E-09  4.91549E-09  4.97106E-09  5.02641E-09  5.08154E-09  5.13646E-09
   5.19118E-09  5.24569E-09  5.30002E-09  5.35415E-09  5.40810E-09  5.46188E-09  5.51548E-09  5.56891E-09  5.62219E-09  5.67531E-09
   5.72827E-09  5.78110E-09  5.83379E-09  5.88635E-09  5.93878E-09  5.99109E-09  6.04329E-09  6.09538E-09  6.14737E-09  6.19927E-09
   6.25107E-09  6.30280E-09  6.35444E-09  6.40601E-09  6.45752E-09  6.50897E-09  6.56036E-09  6.61171E-09  6.66302E-09  6.71429E-09
   6.76554E-09  6.81676E-09  6.86797E-09  6.91916E-09  6.97035E-09  7.02146E-09  7.07240E-09  7.12302E-09  7.17323E-09  7.22290E-09
   7.27191E-09  7.32015E-09  7.36749E-09  7.41383E-09  7.45904E-09  7.50301E-09  7.54562E-09  7.58675E-09  7.62628E-09  7.66410E-09
   7.70008E-09  7.73413E-09  7.76610E-09  7.79589E-09  7.82338E-09  7.84846E-09  7.87099E-09  7.89088E-09  7.90799E-09  7.92222E-09
   7.93343E-09  7.94153E-09  7.94640E-09  7.94789E-09  7.94592E-09  7.94035E-09  7.93107E-09  7.91797E-09  7.90092E-09  7.87982E-09
   7.85453E-09  7.82494E-09  7.79095E-09  7.75243E-09  7.70925E-09  7.66131E-09  7.60849E-09  7.55067E-09  7.48774E-09  7.41959E-09
   7.34607E-09  7.26710E-09  7.18257E-09  7.09233E-09  6.99629E-09  6.89433E-09  6.78640E-09  6.67264E-09  6.55331E-09  6.42868E-09
   6.29903E-09  6.16468E-09  6.02606E-09  5.88375E-09  5.73895E-09  5.59504E-09  5.46864E-09  5.39294E-09  5.25248E-09  5.08708E-09
   4.91981E-09  4.75221E-09  4.57903E-09  4.40361E-09  4.22489E-09  4.05278E-09  3.88431E-09  3.67568E-09  3.38426E-09  3.17308E-09
   2.97964E-09  2.79073E-09  2.60362E-09  2.41760E-09  2.23248E-09  2.04837E-09  1.86536E-09  1.68359E-09  1.50333E-09  1.32475E-09
   1.14807E-09  9.73532E-10  8.01324E-10  6.31735E-10  4.64931E-10  3.01180E-10  1.40696E-10 -1.62596E-11 -1.69498E-10 -3.18752E-10
  -4.63796E-10 -6.04403E-10 -7.40331E-10 -8.71358E-10 -9.97243E-10 -1.11776E-09 -1.23264E-09 -1.34172E-09 -1.44478E-09 -1.54197E-09
  -1.63341E-09 -1.71925E-09 -1.79961E-09 -1.87465E-09 -1.94450E-09 -2.00931E-09 -2.06920E-09 -2.12431E-09 -2.17480E-09 -2.22080E-09
  -2.26244E-09 -2.29986E-09 -2.33321E-09 -2.36263E-09 -2.38825E-09 -2.41021E-09 -2.42863E-09 -2.44369E-09 -2.45553E-09 -2.46423E-09
