 LCModel (Version 6.3-1R) Copyright: S.W. Provencher.          Ref.: Magn. Reson. Med. 30:672-679 (1993).                
 onepulse 11x18_ftSpec_smooth_lcm
 26 lines in following concentration table = NCONC+1
    Conc.  %SD /Cr+PCr  Metabolite                                         
 6.77E-11 469%  10.674 Ala                                                 
 2.60E-09  23% 409.640 Asp                                                 
 6.34E-12 999%   1.000 Cr                                                  
 2.92E-09  20% 459.944 GABA                                                
 1.46E-09  44% 230.645 Glc                                                 
    0.000 999%   0.000 Gln                                                 
    0.000 999%   0.000 Glu                                                 
    0.000 999%   0.000 Glyc                                                
 1.85E-10  47%  29.221 GPC                                                 
    0.000 999%   0.000 GSH                                                 
 5.63E-10  76%  88.789 Ins                                                 
    0.000 999%   0.000 Lac                                                 
    0.000 999%   0.000 NAAG                                                
 8.87E-10  26% 139.758 NAA                                                 
    0.000 999%   0.000 PCh                                                 
    0.000 999%   0.000 PCr                                                 
    0.000 999%   0.000 PE                                                  
 8.43E-11 203%  13.292 Scyllo                                              
    0.000 999%   0.000 Ser                                                 
    0.000 999%   0.000 Tau                                                 
 1.85E-10  47%  29.221 GPC+PCh                                             
 8.87E-10  26% 139.758 NAA+NAAG                                            
 5.63E-10  76%  88.789 Ins+Glyc                                            
 6.34E-12 999%   1.000 Cr+PCr                                              
    0.000 999%   0.000 Glu+Gln                                             
   6 lines in following misc. output table
  FWHM = 0.101 ppm    S/N =   3                                            
  Data shift = 0.369 ppm                                                   
  Ph:  63 deg      -5.1 deg/ppm                                            
  alphaB,S = 5.7E-01,   3.9E+01                                            
    8 spline knots.   Ns = 5(1)                                            
  (10) 4 infls.   ( 7) 1 extrs.                                            
  363 points on ppm-axis = NY
      4.250000     4.238821     4.227641     4.216462     4.205282     4.194103     4.182923     4.171744     4.160564     4.149385
      4.138206     4.127026     4.115847     4.104667     4.093488     4.082308     4.071129     4.059949     4.048770     4.037591
      4.026411     4.015232     4.004052     3.992873     3.981693     3.970514     3.959334     3.948155     3.936975     3.925796
      3.914617     3.903437     3.892258     3.881078     3.869899     3.858719     3.847540     3.836360     3.825181     3.814002
      3.802822     3.791643     3.780463     3.769284     3.758104     3.746925     3.735745     3.724566     3.713387     3.702207
      3.691028     3.679848     3.668669     3.657489     3.646310     3.635130     3.623951     3.612772     3.601592     3.590413
      3.579233     3.568054     3.556874     3.545695     3.534515     3.523336     3.512156     3.500977     3.489798     3.478618
      3.467439     3.456259     3.445080     3.433900     3.422721     3.411541     3.400362     3.389183     3.378003     3.366824
      3.355644     3.344465     3.333285     3.322106     3.310926     3.299747     3.288568     3.277388     3.266209     3.255029
      3.243850     3.232670     3.221491     3.210311     3.199132     3.187953     3.176773     3.165594     3.154414     3.143235
      3.132055     3.120876     3.109696     3.098517     3.087337     3.076158     3.064979     3.053799     3.042620     3.031440
      3.020261     3.009081     2.997902     2.986722     2.975543     2.964364     2.953184     2.942005     2.930825     2.919646
      2.908466     2.897287     2.886107     2.874928     2.863749     2.852569     2.841390     2.830210     2.819031     2.807851
      2.796672     2.785492     2.774313     2.763134     2.751954     2.740775     2.729595     2.718416     2.707236     2.696057
      2.684877     2.673698     2.662519     2.651339     2.640160     2.628980     2.617801     2.606621     2.595442     2.584262
      2.573083     2.561903     2.550724     2.539545     2.528365     2.517186     2.506006     2.494827     2.483647     2.472468
      2.461288     2.450109     2.438930     2.427750     2.416571     2.405391     2.394212     2.383032     2.371853     2.360673
      2.349494     2.338315     2.327135     2.315956     2.304776     2.293597     2.282417     2.271238     2.260058     2.248879
      2.237700     2.226520     2.215341     2.204161     2.192982     2.181802     2.170623     2.159443     2.148264     2.137084
      2.125905     2.114726     2.103546     2.092367     2.081187     2.070008     2.058828     2.047649     2.036469     2.025290
      2.014111     2.002931     1.991752     1.980572     1.969393     1.958213     1.947034     1.935854     1.924675     1.913496
      1.902316     1.891137     1.879957     1.868778     1.857598     1.846419     1.835239     1.824060     1.812881     1.801701
      1.790522     1.779342     1.768163     1.756983     1.745804     1.734624     1.723445     1.712265     1.701086     1.689907
      1.678727     1.667548     1.656368     1.645189     1.634009     1.622830     1.611650     1.600471     1.589292     1.578112
      1.566933     1.555753     1.544574     1.533394     1.522215     1.511035     1.499856     1.488677     1.477497     1.466318
      1.455138     1.443959     1.432779     1.421600     1.410420     1.399241     1.388062     1.376882     1.365703     1.354523
      1.343344     1.332164     1.320985     1.309805     1.298626     1.287446     1.276267     1.265088     1.253908     1.242729
      1.231549     1.220370     1.209190     1.198011     1.186831     1.175652     1.164473     1.153293     1.142114     1.130934
      1.119755     1.108575     1.097396     1.086216     1.075037     1.063858     1.052678     1.041499     1.030319     1.019140
      1.007960     0.996781     0.985601     0.974422     0.963243     0.952063     0.940884     0.929704     0.918525     0.907345
      0.896166     0.884986     0.873807     0.862628     0.851448     0.840269     0.829089     0.817910     0.806730     0.795551
      0.784371     0.773192     0.762012     0.750833     0.739654     0.728474     0.717295     0.706115     0.694936     0.683756
      0.672577     0.661397     0.650218     0.639039     0.627859     0.616680     0.605500     0.594321     0.583141     0.571962
      0.560782     0.549603     0.538424     0.527244     0.516065     0.504885     0.493706     0.482526     0.471347     0.460167
      0.448988     0.437809     0.426629     0.415450     0.404270     0.393091     0.381911     0.370732     0.359552     0.348373
      0.337193     0.326014     0.314835     0.303655     0.292476     0.281296     0.270117     0.258937     0.247758     0.236578
      0.225399     0.214220     0.203040
 NY phased data points follow
   1.40376E-08  1.14566E-08  1.34602E-08  1.04249E-08  1.28343E-08  9.82258E-09  1.20941E-08  1.00041E-08  1.21109E-08  9.75118E-09
   1.23931E-08  9.58857E-09  1.23140E-08  9.80200E-09  1.20687E-08  1.00694E-08  1.30815E-08  1.02313E-08  1.21856E-08  9.81699E-09
   1.19448E-08  9.06525E-09  1.16865E-08  8.97524E-09  1.20859E-08  9.60177E-09  1.20612E-08  9.17382E-09  1.18491E-08  9.54641E-09
   1.18586E-08  1.07205E-08  1.23276E-08  1.10214E-08  1.26526E-08  1.06002E-08  1.18961E-08  9.37451E-09  1.16285E-08  8.99537E-09
   1.11059E-08  8.63265E-09  1.06993E-08  8.44080E-09  1.03907E-08  8.14592E-09  9.70530E-09  7.53750E-09  9.28249E-09  7.61189E-09
   9.09792E-09  7.68218E-09  9.14951E-09  7.21503E-09  9.10788E-09  7.25816E-09  8.48543E-09  7.44619E-09  8.62037E-09  7.28035E-09
   9.40843E-09  8.28229E-09  1.11496E-08  9.59040E-09  1.20037E-08  9.65483E-09  1.12820E-08  9.76030E-09  1.09021E-08  8.57852E-09
   1.02093E-08  7.79952E-09  9.39999E-09  7.76483E-09  8.95900E-09  7.63569E-09  9.48552E-09  8.86792E-09  1.11923E-08  1.05343E-08
   1.33647E-08  1.23989E-08  1.44259E-08  1.21524E-08  1.40305E-08  1.20786E-08  1.39519E-08  1.13759E-08  1.30538E-08  1.12105E-08
   1.30640E-08  1.07799E-08  1.20355E-08  9.95354E-09  1.12185E-08  9.61324E-09  1.01677E-08  9.32918E-09  9.95029E-09  7.93774E-09
   1.00023E-08  8.12429E-09  9.36648E-09  8.47953E-09  8.71570E-09  7.55388E-09  8.61321E-09  6.80695E-09  7.89261E-09  6.58074E-09
   7.36302E-09  6.30536E-09  7.02939E-09  5.98086E-09  7.39972E-09  6.36626E-09  7.47024E-09  5.86275E-09  7.69498E-09  6.51892E-09
   7.02663E-09  5.93365E-09  7.18319E-09  5.64264E-09  6.36091E-09  5.17425E-09  6.85823E-09  5.21232E-09  6.62974E-09  6.13343E-09
   6.76507E-09  5.65646E-09  7.13401E-09  6.45780E-09  7.50988E-09  6.67349E-09  7.76509E-09  6.76164E-09  8.12369E-09  7.70460E-09
   9.00654E-09  8.57790E-09  9.64899E-09  8.57002E-09  9.99175E-09  9.49311E-09  1.06277E-08  9.71653E-09  1.11257E-08  1.09965E-08
   1.12389E-08  1.01865E-08  1.10399E-08  1.03074E-08  1.13145E-08  1.00127E-08  1.11604E-08  1.04429E-08  1.15071E-08  1.04711E-08
   1.17311E-08  1.03784E-08  1.16907E-08  1.07563E-08  1.16699E-08  1.07076E-08  1.23540E-08  1.18370E-08  1.35572E-08  1.38978E-08
   1.58231E-08  1.68296E-08  1.87297E-08  1.81559E-08  1.91437E-08  1.83737E-08  1.86822E-08  1.72333E-08  1.67175E-08  1.59920E-08
   1.53261E-08  1.40003E-08  1.27662E-08  1.13078E-08  1.02266E-08  7.26987E-09  6.76147E-09  4.26351E-09  2.88812E-09  5.33523E-10
  -1.35370E-09 -2.97609E-09 -4.74251E-09 -6.15186E-09 -7.60951E-09 -8.62648E-09 -9.82754E-09 -1.10730E-08 -1.15370E-08 -1.20055E-08
  -1.15632E-08 -1.16946E-08 -1.17590E-08 -1.12676E-08 -1.05634E-08 -9.89546E-09 -9.62276E-09 -8.92999E-09 -8.35809E-09 -7.21567E-09
  -7.31386E-09 -5.70186E-09 -5.48766E-09 -4.95966E-09 -5.22954E-09 -4.29543E-09 -4.19715E-09 -3.09113E-09 -4.13914E-09 -3.91233E-09
  -3.44407E-09 -2.95308E-09 -2.99336E-09 -2.61036E-09 -3.39554E-09 -2.16542E-09 -2.88406E-09 -2.32631E-09 -3.19910E-09 -2.12915E-09
  -3.22877E-09 -2.30823E-09 -2.98088E-09 -2.26399E-09 -2.44598E-09 -1.56297E-09 -2.39648E-09 -2.00458E-09 -2.41540E-09 -2.14743E-09
  -2.87159E-09 -1.97291E-09 -2.97287E-09 -1.97182E-09 -2.79552E-09 -2.21936E-09 -2.93884E-09 -1.89124E-09 -2.31276E-09 -1.82995E-09
  -2.38936E-09 -1.52143E-09 -2.69741E-09 -1.17530E-09 -2.09052E-09 -1.68463E-09 -1.97999E-09 -1.21806E-09 -2.55201E-09 -2.06414E-09
  -2.39654E-09 -2.22679E-09 -3.13826E-09 -2.37823E-09 -3.01788E-09 -2.34375E-09 -3.42611E-09 -2.42356E-09 -3.24213E-09 -2.09866E-09
  -3.01134E-09 -1.95364E-09 -3.28801E-09 -1.93708E-09 -2.72965E-09 -1.54367E-09 -1.94809E-09 -9.49009E-10 -2.64829E-09 -1.28236E-09
  -1.65829E-09 -9.37663E-10 -2.05032E-09 -6.86646E-10 -2.40326E-09 -1.06639E-09 -1.94463E-09 -1.81009E-09 -2.24481E-09 -1.45224E-09
  -2.72707E-09 -1.20406E-09 -2.26264E-09 -1.51188E-09 -2.31549E-09 -1.79734E-09 -2.29327E-09 -2.01238E-09 -2.67844E-09 -1.74837E-09
  -2.40595E-09 -2.86639E-09 -2.59364E-09 -2.44944E-09 -2.88213E-09 -2.44652E-09 -3.11722E-09 -2.51499E-09 -3.40440E-09 -2.60989E-09
  -2.69296E-09 -2.75076E-09 -3.20562E-09 -2.69722E-09 -3.76002E-09 -2.53916E-09 -3.22525E-09 -2.97751E-09 -3.39440E-09 -3.22412E-09
  -3.82142E-09 -3.38129E-09 -3.83576E-09 -3.32035E-09 -4.18808E-09 -3.92608E-09 -3.22960E-09 -3.95973E-09 -3.94247E-09 -3.63681E-09
  -4.10654E-09 -3.89045E-09 -3.75026E-09 -3.85871E-09 -4.22788E-09 -4.11667E-09 -3.99231E-09 -4.01804E-09 -4.54794E-09 -4.43315E-09
  -3.91164E-09 -3.97796E-09 -4.72672E-09 -4.47738E-09 -4.24375E-09 -4.47161E-09 -4.46967E-09 -4.88354E-09 -4.45025E-09 -4.79097E-09
  -4.21067E-09 -4.11264E-09 -4.69688E-09 -4.46998E-09 -4.50379E-09 -4.47898E-09 -4.49825E-09 -5.05983E-09 -4.79770E-09 -5.09903E-09
  -4.78494E-09 -4.63004E-09 -4.63956E-09
 NY points of the fit to the data follow
   1.30465E-08  1.24344E-08  1.19878E-08  1.16742E-08  1.14595E-08  1.11158E-08  1.07471E-08  1.04904E-08  1.04756E-08  1.06755E-08
   1.08977E-08  1.11097E-08  1.13732E-08  1.16406E-08  1.17319E-08  1.16885E-08  1.16544E-08  1.14983E-08  1.10914E-08  1.07923E-08
   1.06970E-08  1.06298E-08  1.04936E-08  1.05858E-08  1.05037E-08  1.03799E-08  1.04888E-08  1.05845E-08  1.07589E-08  1.12191E-08
   1.15576E-08  1.15062E-08  1.13887E-08  1.10210E-08  1.04786E-08  1.08015E-08  1.12311E-08  1.13674E-08  1.11929E-08  1.06869E-08
   1.00727E-08  9.61550E-09  9.00572E-09  8.30841E-09  8.36605E-09  8.80996E-09  8.59258E-09  8.35136E-09  8.57721E-09  9.00402E-09
   9.48722E-09  9.72685E-09  9.62471E-09  9.06483E-09  8.28609E-09  7.81353E-09  7.68153E-09  8.12651E-09  8.29773E-09  8.17883E-09
   8.25545E-09  8.66105E-09  9.39920E-09  1.00587E-08  1.07402E-08  1.15205E-08  1.18073E-08  1.18360E-08  1.19087E-08  1.19015E-08
   1.16698E-08  1.10696E-08  1.02326E-08  9.54311E-09  9.19147E-09  8.49926E-09  8.22023E-09  9.58755E-09  1.05776E-08  1.09419E-08
   1.14324E-08  1.18107E-08  1.21245E-08  1.26627E-08  1.30562E-08  1.28731E-08  1.21696E-08  1.08775E-08  9.63876E-09  9.71557E-09
   9.83177E-09  9.91043E-09  1.00135E-08  9.72261E-09  9.20903E-09  9.12414E-09  8.90369E-09  8.37047E-09  8.17538E-09  8.12219E-09
   8.00307E-09  7.95605E-09  7.97451E-09  8.03965E-09  8.11677E-09  8.19077E-09  8.25759E-09  8.31515E-09  8.35669E-09  8.37687E-09
   8.38300E-09  8.39971E-09  8.43629E-09  8.43986E-09  8.44055E-09  8.47639E-09  8.51776E-09  8.55823E-09  8.59609E-09  8.63070E-09
   8.66174E-09  8.68907E-09  8.71256E-09  8.73208E-09  8.74754E-09  8.75886E-09  8.76594E-09  8.76875E-09  8.76722E-09  8.76127E-09
   8.75083E-09  8.73583E-09  8.71623E-09  8.69196E-09  8.66295E-09  8.62913E-09  8.59048E-09  8.54687E-09  8.49827E-09  8.44461E-09
   8.38588E-09  8.32201E-09  8.25295E-09  8.17865E-09  8.09906E-09  8.01416E-09  7.92401E-09  7.82881E-09  7.72879E-09  7.62421E-09
   7.51533E-09  7.40247E-09  7.28599E-09  7.16631E-09  7.04392E-09  6.91945E-09  6.79368E-09  6.66764E-09  6.54276E-09  6.42108E-09
   6.30565E-09  6.20142E-09  6.11687E-09  6.06820E-09  6.09086E-09  6.28121E-09  7.01796E-09  9.78000E-09  1.32132E-08  1.58216E-08
   1.74715E-08  1.85116E-08  1.93252E-08  2.00498E-08  2.06362E-08  2.04782E-08  1.84910E-08  1.38523E-08  7.84904E-09  4.77753E-09
   3.71031E-09  3.12428E-09  2.71350E-09  2.38508E-09  2.10175E-09  1.84584E-09  1.60797E-09  1.38276E-09  1.16690E-09  9.58358E-10
   7.55795E-10  5.58292E-10  3.65284E-10  1.76365E-10 -8.69693E-12 -1.90083E-10 -3.67883E-10 -5.42097E-10 -7.12738E-10 -8.79790E-10
  -1.04317E-09 -1.20283E-09 -1.35867E-09 -1.51059E-09 -1.65850E-09 -1.80228E-09 -1.94181E-09 -2.07700E-09 -2.20771E-09 -2.33378E-09
  -2.45517E-09 -2.57168E-09 -2.68321E-09 -2.78964E-09 -2.89086E-09 -2.98670E-09 -3.07706E-09 -3.16184E-09 -3.24088E-09 -3.31429E-09
  -3.38219E-09 -3.44475E-09 -3.50206E-09 -3.55431E-09 -3.60159E-09 -3.64409E-09 -3.68192E-09 -3.71522E-09 -3.74413E-09 -3.76878E-09
  -3.78933E-09 -3.80590E-09 -3.81862E-09 -3.82765E-09 -3.83312E-09 -3.83515E-09 -3.83390E-09 -3.82948E-09 -3.82205E-09 -3.81172E-09
  -3.79863E-09 -3.78294E-09 -3.76475E-09 -3.74421E-09 -3.72143E-09 -3.69656E-09 -3.66973E-09 -3.64107E-09 -3.61071E-09 -3.57876E-09
  -3.54538E-09 -3.51065E-09 -3.47477E-09 -3.43776E-09 -3.39980E-09 -3.36106E-09 -3.32159E-09 -3.28153E-09 -3.24100E-09 -3.20012E-09
  -3.15902E-09 -3.11781E-09 -3.07661E-09 -3.03552E-09 -2.99465E-09 -2.95411E-09 -2.91406E-09 -2.87452E-09 -2.83566E-09 -2.79759E-09
  -2.76037E-09 -2.72413E-09 -2.68899E-09 -2.65499E-09 -2.62231E-09 -2.59098E-09 -2.56112E-09 -2.53284E-09 -2.50618E-09 -2.48128E-09
  -2.45823E-09 -2.43709E-09 -2.41796E-09 -2.40090E-09 -2.38602E-09 -2.37339E-09 -2.36310E-09 -2.35516E-09 -2.34973E-09 -2.34685E-09
  -2.34656E-09 -2.34890E-09 -2.35378E-09 -2.36110E-09 -2.37079E-09 -2.38277E-09 -2.39694E-09 -2.41322E-09 -2.43153E-09 -2.45179E-09
  -2.47392E-09 -2.49782E-09 -2.52343E-09 -2.55065E-09 -2.57941E-09 -2.60963E-09 -2.64124E-09 -2.67416E-09 -2.70829E-09 -2.74357E-09
  -2.77993E-09 -2.81727E-09 -2.85555E-09 -2.89466E-09 -2.93455E-09 -2.97513E-09 -3.01635E-09 -3.05812E-09 -3.10038E-09 -3.14305E-09
  -3.18608E-09 -3.22936E-09 -3.27287E-09 -3.31653E-09 -3.36026E-09 -3.40399E-09 -3.44770E-09 -3.49128E-09 -3.53470E-09 -3.57787E-09
  -3.62076E-09 -3.66329E-09 -3.70540E-09 -3.74705E-09 -3.78818E-09 -3.82872E-09 -3.86864E-09 -3.90786E-09 -3.94636E-09 -3.98404E-09
  -4.02091E-09 -4.05688E-09 -4.09192E-09 -4.12599E-09 -4.15900E-09 -4.19098E-09 -4.22182E-09 -4.25153E-09 -4.28003E-09 -4.30730E-09
  -4.33330E-09 -4.35799E-09 -4.38134E-09 -4.40330E-09 -4.42387E-09 -4.44297E-09 -4.46062E-09 -4.47676E-09 -4.49136E-09 -4.50442E-09
  -4.51588E-09 -4.52574E-09 -4.53398E-09
 NY background values follow
     3.404E-09    3.440E-09    3.477E-09    3.513E-09    3.549E-09    3.586E-09    3.622E-09    3.658E-09    3.694E-09    3.730E-09
     3.766E-09    3.802E-09    3.838E-09    3.873E-09    3.909E-09    3.945E-09    3.981E-09    4.016E-09    4.052E-09    4.088E-09
     4.124E-09    4.160E-09    4.196E-09    4.232E-09    4.268E-09    4.304E-09    4.340E-09    4.376E-09    4.413E-09    4.449E-09
     4.486E-09    4.523E-09    4.560E-09    4.597E-09    4.634E-09    4.672E-09    4.709E-09    4.747E-09    4.785E-09    4.824E-09
     4.862E-09    4.901E-09    4.940E-09    4.980E-09    5.020E-09    5.060E-09    5.100E-09    5.141E-09    5.182E-09    5.224E-09
     5.265E-09    5.308E-09    5.350E-09    5.394E-09    5.437E-09    5.481E-09    5.526E-09    5.571E-09    5.617E-09    5.663E-09
     5.709E-09    5.757E-09    5.805E-09    5.853E-09    5.902E-09    5.952E-09    6.002E-09    6.053E-09    6.104E-09    6.157E-09
     6.210E-09    6.264E-09    6.318E-09    6.373E-09    6.429E-09    6.486E-09    6.543E-09    6.601E-09    6.659E-09    6.717E-09
     6.776E-09    6.835E-09    6.895E-09    6.954E-09    7.013E-09    7.072E-09    7.131E-09    7.190E-09    7.249E-09    7.307E-09
     7.365E-09    7.422E-09    7.478E-09    7.534E-09    7.589E-09    7.643E-09    7.696E-09    7.748E-09    7.799E-09    7.849E-09
     7.897E-09    7.944E-09    7.990E-09    8.034E-09    8.076E-09    8.116E-09    8.155E-09    8.192E-09    8.227E-09    8.259E-09
     8.290E-09    8.318E-09    8.344E-09    8.367E-09    8.388E-09    8.406E-09    8.421E-09    8.434E-09    8.443E-09    8.450E-09
     8.454E-09    8.454E-09    8.451E-09    8.445E-09    8.435E-09    8.422E-09    8.405E-09    8.384E-09    8.360E-09    8.332E-09
     8.299E-09    8.263E-09    8.222E-09    8.177E-09    8.128E-09    8.074E-09    8.016E-09    7.953E-09    7.886E-09    7.813E-09
     7.736E-09    7.654E-09    7.567E-09    7.475E-09    7.377E-09    7.274E-09    7.166E-09    7.053E-09    6.934E-09    6.811E-09
     6.683E-09    6.550E-09    6.413E-09    6.272E-09    6.126E-09    5.977E-09    5.824E-09    5.666E-09    5.506E-09    5.342E-09
     5.175E-09    5.005E-09    4.831E-09    4.656E-09    4.477E-09    4.296E-09    4.113E-09    3.928E-09    3.741E-09    3.552E-09
     3.361E-09    3.169E-09    2.976E-09    2.782E-09    2.586E-09    2.390E-09    2.193E-09    1.996E-09    1.799E-09    1.601E-09
     1.403E-09    1.206E-09    1.009E-09    8.119E-10    6.159E-10    4.208E-10    2.267E-10    3.369E-11   -1.580E-10   -3.481E-10
    -5.367E-10   -7.234E-10   -9.082E-10   -1.091E-09   -1.271E-09   -1.449E-09   -1.625E-09   -1.797E-09   -1.967E-09   -2.133E-09
    -2.297E-09   -2.457E-09   -2.614E-09   -2.767E-09   -2.916E-09   -3.061E-09   -3.202E-09   -3.339E-09   -3.471E-09   -3.599E-09
    -3.722E-09   -3.841E-09   -3.954E-09   -4.062E-09   -4.166E-09   -4.263E-09   -4.356E-09   -4.442E-09   -4.523E-09   -4.599E-09
    -4.668E-09   -4.733E-09   -4.792E-09   -4.846E-09   -4.895E-09   -4.939E-09   -4.978E-09   -5.013E-09   -5.043E-09   -5.070E-09
    -5.091E-09   -5.109E-09   -5.123E-09   -5.134E-09   -5.140E-09   -5.143E-09   -5.143E-09   -5.140E-09   -5.133E-09   -5.124E-09
    -5.112E-09   -5.097E-09   -5.079E-09   -5.059E-09   -5.037E-09   -5.013E-09   -4.986E-09   -4.958E-09   -4.928E-09   -4.896E-09
    -4.863E-09   -4.829E-09   -4.793E-09   -4.756E-09   -4.718E-09   -4.679E-09   -4.639E-09   -4.599E-09   -4.558E-09   -4.517E-09
    -4.476E-09   -4.434E-09   -4.393E-09   -4.351E-09   -4.309E-09   -4.268E-09   -4.228E-09   -4.187E-09   -4.148E-09   -4.109E-09
    -4.071E-09   -4.033E-09   -3.997E-09   -3.962E-09   -3.928E-09   -3.896E-09   -3.865E-09   -3.835E-09   -3.807E-09   -3.781E-09
    -3.756E-09   -3.734E-09   -3.713E-09   -3.695E-09   -3.678E-09   -3.664E-09   -3.652E-09   -3.642E-09   -3.635E-09   -3.630E-09
    -3.628E-09   -3.628E-09   -3.631E-09   -3.636E-09   -3.644E-09   -3.654E-09   -3.666E-09   -3.680E-09   -3.696E-09   -3.714E-09
    -3.733E-09   -3.755E-09   -3.778E-09   -3.803E-09   -3.829E-09   -3.856E-09   -3.885E-09   -3.916E-09   -3.947E-09   -3.979E-09
    -4.013E-09   -4.047E-09   -4.083E-09   -4.119E-09   -4.156E-09   -4.193E-09   -4.232E-09   -4.270E-09   -4.309E-09   -4.349E-09
    -4.389E-09   -4.429E-09   -4.469E-09   -4.509E-09   -4.550E-09   -4.590E-09   -4.630E-09   -4.670E-09   -4.710E-09   -4.750E-09
    -4.789E-09   -4.828E-09   -4.866E-09   -4.904E-09   -4.942E-09   -4.979E-09   -5.015E-09   -5.050E-09   -5.085E-09   -5.118E-09
    -5.151E-09   -5.183E-09   -5.214E-09   -5.244E-09   -5.273E-09   -5.301E-09   -5.328E-09   -5.353E-09   -5.378E-09   -5.401E-09
    -5.423E-09   -5.443E-09   -5.462E-09   -5.480E-09   -5.496E-09   -5.510E-09   -5.524E-09   -5.535E-09   -5.545E-09   -5.554E-09
    -5.561E-09   -5.566E-09   -5.570E-09
 Ala      Conc. = 6.77E-11
   3.46369E-09  3.49844E-09  3.53206E-09  3.56494E-09  3.59697E-09  3.62775E-09  3.65512E-09  3.68272E-09  3.71640E-09  3.74599E-09
   3.77189E-09  3.80626E-09  3.84142E-09  3.87378E-09  3.90857E-09  3.94470E-09  3.98117E-09  4.01771E-09  4.05425E-09  4.09077E-09
   4.12728E-09  4.16378E-09  4.20028E-09  4.23680E-09  4.27335E-09  4.30995E-09  4.34660E-09  4.38333E-09  4.42015E-09  4.45706E-09
   4.49408E-09  4.53124E-09  4.56852E-09  4.60597E-09  4.64358E-09  4.68137E-09  4.71935E-09  4.75754E-09  4.79595E-09  4.83459E-09
   4.87348E-09  4.91263E-09  4.95206E-09  4.99177E-09  5.03180E-09  5.07214E-09  5.11282E-09  5.15384E-09  5.19522E-09  5.23699E-09
   5.27915E-09  5.32172E-09  5.36470E-09  5.40813E-09  5.45202E-09  5.49637E-09  5.54122E-09  5.58657E-09  5.63243E-09  5.67883E-09
   5.72578E-09  5.77330E-09  5.82140E-09  5.87011E-09  5.91944E-09  5.96940E-09  6.02002E-09  6.07130E-09  6.12327E-09  6.17596E-09
   6.22936E-09  6.28350E-09  6.33842E-09  6.39410E-09  6.45054E-09  6.50765E-09  6.56539E-09  6.62368E-09  6.68245E-09  6.74164E-09
   6.80118E-09  6.86101E-09  6.92105E-09  6.98124E-09  7.04152E-09  7.10183E-09  7.16211E-09  7.22230E-09  7.28235E-09  7.34222E-09
   7.40188E-09  7.46133E-09  7.52056E-09  7.57965E-09  7.63870E-09  7.69797E-09  7.75794E-09  7.81960E-09  7.88532E-09  7.96206E-09
   8.05199E-09  8.12615E-09  8.19394E-09  8.27329E-09  8.34565E-09  8.40428E-09  8.44949E-09  8.48132E-09  8.49437E-09  8.48432E-09
   8.45936E-09  8.44513E-09  8.45106E-09  8.42428E-09  8.39497E-09  8.40108E-09  8.41303E-09  8.42473E-09  8.43449E-09  8.44166E-09
   8.44589E-09  8.44701E-09  8.44485E-09  8.43931E-09  8.43028E-09  8.41766E-09  8.40136E-09  8.38131E-09  8.35740E-09  8.32954E-09
   8.29766E-09  8.26166E-09  8.22147E-09  8.17698E-09  8.12812E-09  8.07479E-09  8.01693E-09  7.95443E-09  7.88721E-09  7.81518E-09
   7.73827E-09  7.65639E-09  7.56946E-09  7.47738E-09  7.38008E-09  7.27748E-09  7.16956E-09  7.05645E-09  6.93828E-09  6.81522E-09
   6.68740E-09  6.55498E-09  6.41811E-09  6.27696E-09  6.13165E-09  5.98236E-09  5.82925E-09  5.67247E-09  5.51221E-09  5.34861E-09
   5.18187E-09  5.01219E-09  4.83980E-09  4.66500E-09  4.48833E-09  4.31100E-09  4.13812E-09  3.98150E-09  3.82227E-09  3.65275E-09
   3.47475E-09  3.29157E-09  3.10618E-09  2.91911E-09  2.72944E-09  2.53066E-09  2.31361E-09  2.07444E-09  1.83174E-09  1.62150E-09
   1.41916E-09  1.21933E-09  1.02079E-09  8.23267E-10  6.26689E-10  4.31119E-10  2.36664E-10  4.34687E-11 -1.48375E-10 -3.38692E-10
  -5.27323E-10 -7.14148E-10 -8.98989E-10 -1.08170E-09 -1.26211E-09 -1.44009E-09 -1.61548E-09 -1.78810E-09 -1.95782E-09 -2.12449E-09
  -2.28794E-09 -2.44804E-09 -2.60462E-09 -2.75755E-09 -2.90667E-09 -3.05182E-09 -3.19288E-09 -3.32969E-09 -3.46212E-09 -3.58999E-09
  -3.71321E-09 -3.83161E-09 -3.94505E-09 -4.05340E-09 -4.15655E-09 -4.25432E-09 -4.34659E-09 -4.43327E-09 -4.51419E-09 -4.58946E-09
  -4.65918E-09 -4.72353E-09 -4.78259E-09 -4.83655E-09 -4.88551E-09 -4.92963E-09 -4.96904E-09 -5.00386E-09 -5.03425E-09 -5.06033E-09
  -5.08226E-09 -5.10015E-09 -5.11414E-09 -5.12438E-09 -5.13100E-09 -5.13414E-09 -5.13393E-09 -5.13049E-09 -5.12398E-09 -5.11452E-09
  -5.10224E-09 -5.08730E-09 -5.06981E-09 -5.04990E-09 -5.02770E-09 -5.00335E-09 -4.97698E-09 -4.94872E-09 -4.91870E-09 -4.88703E-09
  -4.85387E-09 -4.81931E-09 -4.78353E-09 -4.74657E-09 -4.70861E-09 -4.66980E-09 -4.63021E-09 -4.58997E-09 -4.54921E-09 -4.50804E-09
  -4.46658E-09 -4.42497E-09 -4.38330E-09 -4.34170E-09 -4.30025E-09 -4.25909E-09 -4.21835E-09 -4.17808E-09 -4.13843E-09 -4.09951E-09
  -4.06140E-09 -4.02420E-09 -3.98806E-09 -3.95300E-09 -3.91921E-09 -3.88671E-09 -3.85564E-09 -3.82610E-09 -3.79813E-09 -3.77186E-09
  -3.74738E-09 -3.72477E-09 -3.70413E-09 -3.68550E-09 -3.66900E-09 -3.65470E-09 -3.64269E-09 -3.63299E-09 -3.62575E-09 -3.62100E-09
  -3.61880E-09 -3.61919E-09 -3.62206E-09 -3.62734E-09 -3.63493E-09 -3.64477E-09 -3.65675E-09 -3.67080E-09 -3.68683E-09 -3.70476E-09
  -3.72452E-09 -3.74601E-09 -3.76916E-09 -3.79389E-09 -3.82010E-09 -3.84774E-09 -3.87672E-09 -3.90696E-09 -3.93838E-09 -3.97090E-09
  -4.00446E-09 -4.03896E-09 -4.07436E-09 -4.11055E-09 -4.14747E-09 -4.18506E-09 -4.22323E-09 -4.26192E-09 -4.30105E-09 -4.34057E-09
  -4.38039E-09 -4.42044E-09 -4.46067E-09 -4.50102E-09 -4.54140E-09 -4.58174E-09 -4.62202E-09 -4.66214E-09 -4.70206E-09 -4.74170E-09
  -4.78101E-09 -4.81994E-09 -4.85841E-09 -4.89637E-09 -4.93379E-09 -4.97059E-09 -5.00672E-09 -5.04213E-09 -5.07678E-09 -5.11058E-09
  -5.14353E-09 -5.17555E-09 -5.20662E-09 -5.23667E-09 -5.26564E-09 -5.29354E-09 -5.32027E-09 -5.34584E-09 -5.37017E-09 -5.39324E-09
  -5.41501E-09 -5.43544E-09 -5.45450E-09 -5.47214E-09 -5.48835E-09 -5.50308E-09 -5.51632E-09 -5.52802E-09 -5.53816E-09 -5.54673E-09
  -5.55367E-09 -5.55898E-09 -5.56265E-09
 Asp      Conc. = 2.60E-09
   5.17306E-09  4.66287E-09  4.29222E-09  4.01411E-09  3.77078E-09  3.48728E-09  3.32901E-09  3.22027E-09  3.32290E-09  3.44831E-09
   3.56944E-09  3.68355E-09  3.79168E-09  3.89416E-09  3.98931E-09  4.07811E-09  4.16335E-09  4.24603E-09  4.32682E-09  4.40633E-09
   4.48506E-09  4.56349E-09  4.64209E-09  4.72133E-09  4.80169E-09  4.88370E-09  4.96796E-09  5.05514E-09  5.14609E-09  5.24181E-09
   5.34364E-09  5.45335E-09  5.57342E-09  5.70755E-09  5.86164E-09  6.04615E-09  6.27942E-09  6.51184E-09  6.74102E-09  6.89579E-09
   6.99660E-09  7.11346E-09  7.32036E-09  7.70570E-09  8.10051E-09  8.58371E-09  8.75569E-09  8.66590E-09  8.69377E-09  8.86665E-09
   9.07683E-09  9.08649E-09  8.80303E-09  8.12064E-09  7.20354E-09  6.51716E-09  6.07891E-09  6.24115E-09  6.18479E-09  5.88025E-09
   5.70980E-09  5.71087E-09  5.71340E-09  5.78646E-09  5.91304E-09  5.89541E-09  5.75053E-09  5.72802E-09  5.76093E-09  5.81441E-09
   5.87721E-09  5.94475E-09  6.01490E-09  6.08651E-09  6.15899E-09  6.23190E-09  6.30500E-09  6.37811E-09  6.45111E-09  6.52392E-09
   6.59646E-09  6.66866E-09  6.74048E-09  6.81185E-09  6.88273E-09  6.95307E-09  7.02280E-09  7.09189E-09  7.16026E-09  7.22787E-09
   7.29465E-09  7.36055E-09  7.42547E-09  7.48940E-09  7.55224E-09  7.61391E-09  7.67437E-09  7.73354E-09  7.79133E-09  7.84768E-09
   7.90252E-09  7.95576E-09  8.00732E-09  8.05714E-09  8.10513E-09  8.15121E-09  8.19529E-09  8.23732E-09  8.27719E-09  8.31480E-09
   8.35012E-09  8.38302E-09  8.41343E-09  8.44126E-09  8.46643E-09  8.48886E-09  8.50846E-09  8.52514E-09  8.53880E-09  8.54939E-09
   8.55679E-09  8.56093E-09  8.56171E-09  8.55906E-09  8.55288E-09  8.54309E-09  8.52958E-09  8.51231E-09  8.49116E-09  8.46604E-09
   8.43689E-09  8.40360E-09  8.36610E-09  8.32430E-09  8.27811E-09  8.22745E-09  8.17226E-09  8.11242E-09  8.04788E-09  7.97854E-09
   7.90433E-09  7.82517E-09  7.74100E-09  7.65172E-09  7.55728E-09  7.45760E-09  7.35268E-09  7.24267E-09  7.12775E-09  7.00808E-09
   6.88386E-09  6.75528E-09  6.62255E-09  6.48591E-09  6.34560E-09  6.20192E-09  6.05520E-09  5.90586E-09  5.75443E-09  5.60159E-09
   5.44832E-09  5.29615E-09  5.14750E-09  5.00688E-09  4.88361E-09  4.80134E-09  4.84273E-09  5.43155E-09  6.31097E-09  6.98094E-09
   7.35877E-09  7.54052E-09  7.64127E-09  7.71319E-09  7.75196E-09  7.61019E-09  6.98355E-09  5.59611E-09  3.69614E-09  2.49272E-09
   2.00497E-09  1.68154E-09  1.41615E-09  1.17770E-09  9.54021E-10  7.39518E-10  5.31314E-10  3.27839E-10  1.28134E-10 -6.83028E-11
  -2.61764E-10 -4.52445E-10 -6.40389E-10 -8.25617E-10 -1.00808E-09 -1.18773E-09 -1.36449E-09 -1.53823E-09 -1.70886E-09 -1.87628E-09
  -2.04034E-09 -2.20093E-09 -2.35790E-09 -2.51112E-09 -2.66048E-09 -2.80580E-09 -2.94698E-09 -3.08386E-09 -3.21633E-09 -3.34421E-09
  -3.46742E-09 -3.58577E-09 -3.69916E-09 -3.80744E-09 -3.91050E-09 -4.00817E-09 -4.10034E-09 -4.18691E-09 -4.26771E-09 -4.34286E-09
  -4.41247E-09 -4.47669E-09 -4.53565E-09 -4.58949E-09 -4.63833E-09 -4.68234E-09 -4.72164E-09 -4.75636E-09 -4.78665E-09 -4.81263E-09
