 LCModel (Version 6.3-1R) Copyright: S.W. Provencher.          Ref.: Magn. Reson. Med. 30:672-679 (1993).                
 onepulse 11x14_ftSpec_smooth_lcm
 26 lines in following concentration table = NCONC+1
    Conc.  %SD /Cr+PCr  Metabolite                                         
    0.000 999%   0.000 Ala                                                 
 2.30E-09  22%   6.938 Asp                                                 
    0.000 999%   0.000 Cr                                                  
 4.16E-10 122%   1.255 GABA                                                
    0.000 999%   0.000 Glc                                                 
 1.84E-09  27%   5.562 Gln                                                 
    0.000 999%   0.000 Glu                                                 
    0.000 999%   0.000 Glyc                                                
    0.000 999%   0.000 GPC                                                 
 4.58E-10  71%   1.383 GSH                                                 
 1.73E-09  16%   5.218 Ins                                                 
    0.000 999%   0.000 Lac                                                 
 3.74E-10  50%   1.130 NAAG                                                
 7.92E-11 252%   0.239 NAA                                                 
    0.000 999%   0.000 PCh                                                 
 3.31E-10  72%   1.000 PCr                                                 
 2.15E-09  20%   6.490 PE                                                  
 2.61E-10  52%   0.788 Scyllo                                              
    0.000 999%   0.000 Ser                                                 
    0.000 999%   0.000 Tau                                                 
    0.000 999%   0.000 GPC+PCh                                             
 4.54E-10  46%   1.369 NAA+NAAG                                            
 1.73E-09  16%   5.218 Ins+Glyc                                            
 3.31E-10  72%   1.000 Cr+PCr                                              
 1.84E-09  27%   5.562 Glu+Gln                                             
   6 lines in following misc. output table
  FWHM = 0.123 ppm    S/N =   3                                            
  Data shift = 0.414 ppm                                                   
  Ph: -42 deg     -59.1 deg/ppm                                            
  alphaB,S = 4.5E-01,   4.7E-01                                            
   10 spline knots.   Ns = 5(1)                                            
   8 inflections.    11 extrema                                            
  363 points on ppm-axis = NY
      4.250000     4.238821     4.227641     4.216462     4.205282     4.194103     4.182923     4.171744     4.160564     4.149385
      4.138206     4.127026     4.115847     4.104667     4.093488     4.082308     4.071129     4.059949     4.048770     4.037591
      4.026411     4.015232     4.004052     3.992873     3.981693     3.970514     3.959334     3.948155     3.936975     3.925796
      3.914617     3.903437     3.892258     3.881078     3.869899     3.858719     3.847540     3.836360     3.825181     3.814002
      3.802822     3.791643     3.780463     3.769284     3.758104     3.746925     3.735745     3.724566     3.713387     3.702207
      3.691028     3.679848     3.668669     3.657489     3.646310     3.635130     3.623951     3.612772     3.601592     3.590413
      3.579233     3.568054     3.556874     3.545695     3.534515     3.523336     3.512156     3.500977     3.489798     3.478618
      3.467439     3.456259     3.445080     3.433900     3.422721     3.411541     3.400362     3.389183     3.378003     3.366824
      3.355644     3.344465     3.333285     3.322106     3.310926     3.299747     3.288568     3.277388     3.266209     3.255029
      3.243850     3.232670     3.221491     3.210311     3.199132     3.187953     3.176773     3.165594     3.154414     3.143235
      3.132055     3.120876     3.109696     3.098517     3.087337     3.076158     3.064979     3.053799     3.042620     3.031440
      3.020261     3.009081     2.997902     2.986722     2.975543     2.964364     2.953184     2.942005     2.930825     2.919646
      2.908466     2.897287     2.886107     2.874928     2.863749     2.852569     2.841390     2.830210     2.819031     2.807851
      2.796672     2.785492     2.774313     2.763134     2.751954     2.740775     2.729595     2.718416     2.707236     2.696057
      2.684877     2.673698     2.662519     2.651339     2.640160     2.628980     2.617801     2.606621     2.595442     2.584262
      2.573083     2.561903     2.550724     2.539545     2.528365     2.517186     2.506006     2.494827     2.483647     2.472468
      2.461288     2.450109     2.438930     2.427750     2.416571     2.405391     2.394212     2.383032     2.371853     2.360673
      2.349494     2.338315     2.327135     2.315956     2.304776     2.293597     2.282417     2.271238     2.260058     2.248879
      2.237700     2.226520     2.215341     2.204161     2.192982     2.181802     2.170623     2.159443     2.148264     2.137084
      2.125905     2.114726     2.103546     2.092367     2.081187     2.070008     2.058828     2.047649     2.036469     2.025290
      2.014111     2.002931     1.991752     1.980572     1.969393     1.958213     1.947034     1.935854     1.924675     1.913496
      1.902316     1.891137     1.879957     1.868778     1.857598     1.846419     1.835239     1.824060     1.812881     1.801701
      1.790522     1.779342     1.768163     1.756983     1.745804     1.734624     1.723445     1.712265     1.701086     1.689907
      1.678727     1.667548     1.656368     1.645189     1.634009     1.622830     1.611650     1.600471     1.589292     1.578112
      1.566933     1.555753     1.544574     1.533394     1.522215     1.511035     1.499856     1.488677     1.477497     1.466318
      1.455138     1.443959     1.432779     1.421600     1.410420     1.399241     1.388062     1.376882     1.365703     1.354523
      1.343344     1.332164     1.320985     1.309805     1.298626     1.287446     1.276267     1.265088     1.253908     1.242729
      1.231549     1.220370     1.209190     1.198011     1.186831     1.175652     1.164473     1.153293     1.142114     1.130934
      1.119755     1.108575     1.097396     1.086216     1.075037     1.063858     1.052678     1.041499     1.030319     1.019140
      1.007960     0.996781     0.985601     0.974422     0.963243     0.952063     0.940884     0.929704     0.918525     0.907345
      0.896166     0.884986     0.873807     0.862628     0.851448     0.840269     0.829089     0.817910     0.806730     0.795551
      0.784371     0.773192     0.762012     0.750833     0.739654     0.728474     0.717295     0.706115     0.694936     0.683756
      0.672577     0.661397     0.650218     0.639039     0.627859     0.616680     0.605500     0.594321     0.583141     0.571962
      0.560782     0.549603     0.538424     0.527244     0.516065     0.504885     0.493706     0.482526     0.471347     0.460167
      0.448988     0.437809     0.426629     0.415450     0.404270     0.393091     0.381911     0.370732     0.359552     0.348373
      0.337193     0.326014     0.314835     0.303655     0.292476     0.281296     0.270117     0.258937     0.247758     0.236578
      0.225399     0.214220     0.203040
 NY phased data points follow
   2.69046E-09  5.65638E-09  2.64186E-09  6.08642E-09  2.96816E-09  6.42867E-09  3.73103E-09  6.91139E-09  4.32913E-09  7.21001E-09
   4.74023E-09  7.64555E-09  3.93209E-09  6.80661E-09  3.96036E-09  7.14785E-09  3.97512E-09  7.11074E-09  3.90945E-09  7.52833E-09
   4.59230E-09  7.61490E-09  4.04378E-09  7.12550E-09  4.51537E-09  7.80294E-09  5.68323E-09  8.97031E-09  6.47423E-09  8.97416E-09
   5.65949E-09  7.65283E-09  4.75512E-09  6.90155E-09  4.38058E-09  6.98529E-09  4.46833E-09  6.52874E-09  4.60024E-09  6.81444E-09
   4.46683E-09  6.65576E-09  4.19298E-09  5.99940E-09  4.29606E-09  6.34401E-09  4.14358E-09  6.78243E-09  4.23461E-09  6.07342E-09
   4.01866E-09  6.24104E-09  4.16365E-09  6.43268E-09  4.22859E-09  6.86710E-09  5.72739E-09  8.22647E-09  7.99256E-09  9.93926E-09
   8.48674E-09  9.54326E-09  7.49430E-09  8.53896E-09  6.27757E-09  7.68332E-09  5.80875E-09  7.07748E-09  5.51737E-09  6.43678E-09
   4.55989E-09  6.01039E-09  5.06128E-09  7.86677E-09  8.30721E-09  1.15182E-08  1.12804E-08  1.19322E-08  1.07337E-08  1.07423E-08
   1.01101E-08  1.05724E-08  9.55793E-09  9.56849E-09  8.77218E-09  9.67595E-09  8.57387E-09  9.42783E-09  8.29361E-09  8.64233E-09
   7.57542E-09  7.93404E-09  7.08800E-09  7.41588E-09  6.56039E-09  6.83482E-09  6.47288E-09  7.04253E-09  6.41374E-09  7.10012E-09
   6.17412E-09  6.92810E-09  6.40565E-09  6.28490E-09  5.57412E-09  5.96644E-09  4.86758E-09  5.45755E-09  5.52164E-09  5.78223E-09
   5.67261E-09  6.03253E-09  5.97798E-09  6.02959E-09  6.15322E-09  6.05247E-09  6.09566E-09  6.22917E-09  5.89777E-09  5.35993E-09
   5.27338E-09  4.76344E-09  5.47827E-09  5.23799E-09  5.26056E-09  4.99050E-09  5.25363E-09  5.58177E-09  6.00305E-09  5.87445E-09
   6.29576E-09  5.81074E-09  6.59313E-09  6.13521E-09  6.62869E-09  7.08011E-09  7.82021E-09  7.39744E-09  8.41913E-09  7.34319E-09
   8.93781E-09  8.68981E-09  9.50519E-09  8.82118E-09  1.01463E-08  8.99805E-09  9.66987E-09  9.11502E-09  9.81384E-09  9.70842E-09
   1.00448E-08  9.02896E-09  1.00309E-08  9.31225E-09  1.03867E-08  9.64694E-09  1.04272E-08  9.49704E-09  1.06422E-08  9.92206E-09
   1.01965E-08  9.40229E-09  9.87320E-09  8.77558E-09  9.27107E-09  9.26639E-09  1.30947E-08  1.48576E-08  1.76876E-08  1.73106E-08
   1.87268E-08  1.80495E-08  1.87616E-08  1.80020E-08  1.86123E-08  1.72320E-08  1.79676E-08  1.66498E-08  1.70823E-08  1.50440E-08
   1.52241E-08  1.25912E-08  1.22975E-08  1.00957E-08  8.83557E-09  5.72041E-09  4.71709E-09  1.96254E-09  4.95158E-10 -1.99554E-09
  -2.73751E-09 -4.98026E-09 -5.52911E-09 -7.31981E-09 -7.29890E-09 -8.26415E-09 -7.36615E-09 -7.59030E-09 -6.42471E-09 -6.88002E-09
  -4.82600E-09 -4.80500E-09 -2.92913E-09 -2.75925E-09 -1.77511E-09 -2.15352E-09 -8.58981E-10 -2.03618E-09 -4.34991E-10 -1.66121E-09
  -1.14953E-09 -2.06333E-09 -1.04168E-09 -1.60399E-09 -3.85429E-10 -1.40674E-09 -7.04048E-11 -1.13130E-09  7.95424E-11 -1.01637E-09
   1.17283E-10 -8.49252E-10  5.82452E-11 -1.22528E-09 -4.11425E-10 -7.01384E-10  2.71841E-10 -7.93669E-10  4.27939E-10 -4.22243E-10
   6.92790E-10 -4.69458E-10  6.46138E-10 -4.82704E-10  2.85883E-10 -7.68087E-10 -5.55679E-11 -7.53504E-10  4.21848E-10 -1.18089E-09
   3.29759E-10 -4.30136E-10  3.81645E-10 -5.27437E-10  2.09763E-10 -2.36557E-10  6.79205E-10 -5.12344E-10  8.04781E-10 -1.67345E-10
   8.13214E-10 -5.42203E-10  5.88210E-10 -2.15118E-11  3.06773E-10 -4.19828E-10  3.58557E-10 -8.44118E-11  2.58435E-10 -8.46136E-10
   3.65811E-11 -5.63733E-10 -4.76124E-11 -1.23506E-09 -1.55374E-10 -8.66683E-10 -3.78639E-10 -1.13204E-09 -6.73622E-10 -1.30854E-09
  -7.66594E-11 -4.76522E-10  4.44937E-10 -5.67461E-10  7.21908E-10  1.00147E-11  7.95348E-10 -2.06122E-11  8.39037E-10  7.94150E-10
   1.10790E-09  4.87422E-10  9.61840E-10  4.10159E-10  1.56215E-09  4.39779E-10  1.47244E-09  8.36660E-10  1.43605E-09  2.97157E-10
   1.03960E-09  6.51835E-10  1.28860E-09  4.68173E-10  1.29417E-09  1.08255E-09  1.21081E-09  6.94793E-10  1.37694E-09  7.02494E-10
   1.03218E-09  8.48327E-10  1.43399E-09  6.13976E-10  1.04756E-09  7.37893E-10  1.12834E-09  8.64996E-10  7.75575E-10  6.37173E-10
   1.16094E-09  1.10025E-09  1.10905E-09  5.91661E-10  1.38872E-09  1.21176E-09  7.22695E-10  5.02928E-10  1.38087E-09  9.63632E-10
   7.83754E-10  9.10889E-10  1.05204E-09  1.12955E-09  1.19628E-09  1.21964E-09  1.20855E-09  1.02568E-09  1.25544E-09  1.66407E-09
   1.38270E-09  1.02325E-09  8.05910E-10  1.09031E-09  8.20251E-10  8.10339E-10  1.29539E-09  1.04046E-09  1.11511E-09  1.14582E-09
   1.07626E-09  1.04675E-09  1.54105E-09  1.12172E-09  1.13985E-09  1.38121E-09  1.37289E-09  1.51472E-09  8.75283E-10  9.94359E-10
   1.29629E-09  1.46425E-09  1.15094E-09  1.07147E-09  1.05775E-09  1.35921E-09  6.48310E-10  1.41483E-09  1.08725E-09  1.64278E-09
   1.30363E-09  1.30397E-09  1.12158E-09
 NY points of the fit to the data follow
   3.48228E-09  7.25244E-09  3.61906E-09  4.91679E-09  2.71204E-09  5.77514E-09  2.48845E-09  6.40014E-09  4.44282E-09  7.82910E-09
   5.83251E-09  5.93954E-09  5.40649E-09  5.91442E-09  4.42832E-09  6.04228E-09  5.90811E-09  5.57788E-09  5.42531E-09  8.02022E-09
   4.93937E-09  6.40209E-09  4.23721E-09  7.62779E-09  5.09093E-09  8.41957E-09  5.44200E-09  8.96750E-09  6.84874E-09  7.30882E-09
   5.11928E-09  8.91362E-09  5.11468E-09  8.41648E-09  3.93369E-09  6.97345E-09  4.59009E-09  5.72698E-09  4.13108E-09  5.65799E-09
   4.16024E-09  5.38693E-09  4.97144E-09  4.97112E-09  3.81313E-09  6.34601E-09  3.84961E-09  6.31716E-09  4.07604E-09  6.68091E-09
   4.40108E-09  6.85070E-09  5.10820E-09  7.81704E-09  6.48900E-09  8.38017E-09  7.36738E-09  8.23114E-09  6.98058E-09  8.64975E-09
   8.28634E-09  8.22210E-09  7.91626E-09  8.00338E-09  7.77147E-09  8.40836E-09  7.05047E-09  7.19591E-09  7.46859E-09  6.99103E-09
   6.06643E-09  7.46294E-09  7.16021E-09  7.30997E-09  7.77761E-09  9.53343E-09  9.41072E-09  1.01049E-08  1.01579E-08  1.08897E-08
   1.03067E-08  1.08373E-08  1.04470E-08  1.03322E-08  9.14657E-09  1.02388E-08  9.32973E-09  8.42667E-09  7.38161E-09  6.98575E-09
   6.62600E-09  6.50457E-09  6.28931E-09  6.45384E-09  6.41173E-09  6.01831E-09  6.36591E-09  6.19635E-09  6.10621E-09  6.18334E-09
   6.13060E-09  6.13545E-09  6.16774E-09  6.19089E-09  6.21735E-09  6.25513E-09  6.29404E-09  6.33733E-09  6.38178E-09  6.42663E-09
   6.47217E-09  6.51777E-09  6.56288E-09  6.60760E-09  6.65135E-09  6.69419E-09  6.73589E-09  6.77634E-09  6.81527E-09  6.85268E-09
   6.88834E-09  6.92219E-09  6.95416E-09  6.98410E-09  7.01196E-09  7.03760E-09  7.06101E-09  7.08203E-09  7.10063E-09  7.11672E-09
   7.13022E-09  7.14107E-09  7.14921E-09  7.15455E-09  7.15706E-09  7.15664E-09  7.15327E-09  7.14687E-09  7.13741E-09  7.12481E-09
   7.10905E-09  7.09008E-09  7.06788E-09  7.04243E-09  7.01368E-09  6.98164E-09  6.94633E-09  6.90775E-09  6.86595E-09  6.82102E-09
   6.77305E-09  6.72220E-09  6.66869E-09  6.61283E-09  6.55508E-09  6.49607E-09  6.43673E-09  6.37860E-09  6.32400E-09  6.27644E-09
   6.24166E-09  6.22973E-09  6.26025E-09  6.37715E-09  6.70200E-09  7.71181E-09  1.19804E-08  1.63456E-08  1.70771E-08  1.75968E-08
   1.86125E-08  1.86454E-08  1.88014E-08  1.82825E-08  1.86687E-08  1.69724E-08  1.77693E-08  1.78781E-08  1.68071E-08  7.35872E-09
   5.15521E-09  4.30349E-09  3.82780E-09  3.49925E-09  3.24148E-09  3.02277E-09  2.82784E-09  2.64852E-09  2.48023E-09  2.32012E-09
   2.16643E-09  2.01804E-09  1.87419E-09  1.73445E-09  1.59846E-09  1.46606E-09  1.33715E-09  1.21170E-09  1.08970E-09  9.71197E-10
   8.56267E-10  7.44985E-10  6.37460E-10  5.33802E-10  4.34127E-10  3.38580E-10  2.47299E-10  1.60406E-10  7.80030E-11  1.45439E-14
  -7.36792E-11 -1.43160E-10 -2.08541E-10 -2.69911E-10 -3.27366E-10 -3.81004E-10 -4.30917E-10 -4.77185E-10 -5.19919E-10 -5.59201E-10
  -5.95112E-10 -6.27748E-10 -6.57207E-10 -6.83563E-10 -7.06916E-10 -7.27345E-10 -7.44927E-10 -7.59781E-10 -7.71988E-10 -7.81603E-10
  -7.88731E-10 -7.93469E-10 -7.95885E-10 -7.96087E-10 -7.94140E-10 -7.90152E-10 -7.84198E-10 -7.76357E-10 -7.66719E-10 -7.55376E-10
  -7.42406E-10 -7.27894E-10 -7.11933E-10 -6.94610E-10 -6.75998E-10 -6.56192E-10 -6.35283E-10 -6.13363E-10 -5.90479E-10 -5.66735E-10
  -5.42233E-10 -5.17058E-10 -4.91276E-10 -4.64967E-10 -4.38261E-10 -4.11188E-10 -3.83868E-10 -3.56368E-10 -3.28790E-10 -3.01220E-10
  -2.73684E-10 -2.46205E-10 -2.18793E-10 -1.91451E-10 -1.64186E-10 -1.37009E-10 -1.09923E-10 -8.29363E-11 -5.60559E-11 -2.92885E-11
  -2.64494E-12  2.38751E-11  5.02552E-11  7.64998E-11  1.02595E-10  1.28533E-10  1.54309E-10  1.79915E-10  2.05349E-10  2.30594E-10
   2.55653E-10  2.80512E-10  3.05170E-10  3.29621E-10  3.53844E-10  3.77848E-10  4.01619E-10  4.25157E-10  4.48439E-10  4.71473E-10
   4.94245E-10  5.16757E-10  5.38993E-10  5.60945E-10  5.82614E-10  6.03986E-10  6.25058E-10  6.45824E-10  6.66276E-10  6.86402E-10
   7.06197E-10  7.25667E-10  7.44786E-10  7.63561E-10  7.81979E-10  8.00029E-10  8.17710E-10  8.35022E-10  8.51938E-10  8.68474E-10
   8.84605E-10  9.00328E-10  9.15658E-10  9.30598E-10  9.45158E-10  9.59344E-10  9.73169E-10  9.86640E-10  9.99768E-10  1.01256E-09
   1.02503E-09  1.03718E-09  1.04902E-09  1.06057E-09  1.07183E-09  1.08281E-09  1.09352E-09  1.10397E-09  1.11417E-09  1.12413E-09
   1.13385E-09  1.14335E-09  1.15264E-09  1.16173E-09  1.17062E-09  1.17932E-09  1.18785E-09  1.19621E-09  1.20441E-09  1.21247E-09
   1.22038E-09  1.22817E-09  1.23583E-09  1.24338E-09  1.25083E-09  1.25819E-09  1.26546E-09  1.27267E-09  1.27980E-09  1.28688E-09
   1.29391E-09  1.30091E-09  1.30788E-09  1.31484E-09  1.32178E-09  1.32872E-09  1.33567E-09  1.34265E-09  1.34965E-09  1.35668E-09
   1.36377E-09  1.37091E-09  1.37812E-09
 NY background values follow
    -5.763E-09   -5.646E-09   -5.529E-09   -5.412E-09   -5.295E-09   -5.178E-09   -5.062E-09   -4.945E-09   -4.828E-09   -4.711E-09
    -4.594E-09   -4.478E-09   -4.361E-09   -4.244E-09   -4.128E-09   -4.011E-09   -3.895E-09   -3.778E-09   -3.662E-09   -3.546E-09
    -3.430E-09   -3.314E-09   -3.198E-09   -3.082E-09   -2.966E-09   -2.851E-09   -2.735E-09   -2.620E-09   -2.505E-09   -2.390E-09
    -2.275E-09   -2.160E-09   -2.046E-09   -1.932E-09   -1.818E-09   -1.704E-09   -1.590E-09   -1.476E-09   -1.363E-09   -1.250E-09
    -1.137E-09   -1.025E-09   -9.124E-10   -8.003E-10   -6.884E-10   -5.769E-10   -4.655E-10   -3.545E-10   -2.438E-10   -1.333E-10
    -2.314E-11    8.673E-11    1.963E-10    3.056E-10    4.144E-10    5.230E-10    6.312E-10    7.390E-10    8.464E-10    9.533E-10
     1.060E-09    1.166E-09    1.271E-09    1.377E-09    1.481E-09    1.585E-09    1.689E-09    1.792E-09    1.894E-09    1.996E-09
     2.097E-09    2.197E-09    2.297E-09    2.396E-09    2.495E-09    2.592E-09    2.689E-09    2.786E-09    2.881E-09    2.976E-09
     3.070E-09    3.163E-09    3.255E-09    3.347E-09    3.437E-09    3.527E-09    3.616E-09    3.703E-09    3.790E-09    3.876E-09
     3.961E-09    4.045E-09    4.128E-09    4.210E-09    4.291E-09    4.371E-09    4.449E-09    4.527E-09    4.604E-09    4.679E-09
     4.753E-09    4.826E-09    4.898E-09    4.969E-09    5.038E-09    5.106E-09    5.173E-09    5.238E-09    5.302E-09    5.365E-09
     5.426E-09    5.485E-09    5.542E-09    5.598E-09    5.652E-09    5.704E-09    5.754E-09    5.802E-09    5.848E-09    5.891E-09
     5.933E-09    5.972E-09    6.009E-09    6.044E-09    6.076E-09    6.105E-09    6.132E-09    6.156E-09    6.178E-09    6.196E-09
     6.212E-09    6.225E-09    6.235E-09    6.242E-09    6.246E-09    6.247E-09    6.244E-09    6.238E-09    6.229E-09    6.216E-09
     6.200E-09    6.181E-09    6.157E-09    6.130E-09    6.100E-09    6.065E-09    6.027E-09    5.985E-09    5.939E-09    5.888E-09
     5.834E-09    5.775E-09    5.712E-09    5.645E-09    5.574E-09    5.498E-09    5.418E-09    5.333E-09    5.244E-09    5.151E-09
     5.054E-09    4.954E-09    4.850E-09    4.743E-09    4.632E-09    4.519E-09    4.403E-09    4.284E-09    4.163E-09    4.039E-09
     3.913E-09    3.786E-09    3.656E-09    3.525E-09    3.392E-09    3.258E-09    3.124E-09    2.988E-09    2.851E-09    2.714E-09
     2.576E-09    2.438E-09    2.300E-09    2.162E-09    2.025E-09    1.887E-09    1.751E-09    1.615E-09    1.480E-09    1.346E-09
     1.214E-09    1.083E-09    9.533E-10    8.257E-10    7.001E-10    5.766E-10    4.554E-10    3.368E-10    2.207E-10    1.075E-10
    -2.701E-12   -1.097E-10   -2.134E-10   -3.136E-10   -4.101E-10   -5.028E-10   -5.914E-10   -6.759E-10   -7.560E-10   -8.319E-10
    -9.037E-10   -9.713E-10   -1.035E-09   -1.095E-09   -1.151E-09   -1.203E-09   -1.252E-09   -1.297E-09   -1.338E-09   -1.376E-09
    -1.411E-09   -1.443E-09   -1.471E-09   -1.497E-09   -1.519E-09   -1.539E-09   -1.555E-09   -1.569E-09   -1.581E-09   -1.590E-09
    -1.596E-09   -1.600E-09   -1.602E-09   -1.601E-09   -1.599E-09   -1.594E-09   -1.588E-09   -1.579E-09   -1.569E-09   -1.557E-09
    -1.543E-09   -1.528E-09   -1.512E-09   -1.494E-09   -1.475E-09   -1.455E-09   -1.433E-09   -1.411E-09   -1.388E-09   -1.363E-09
    -1.338E-09   -1.313E-09   -1.287E-09   -1.260E-09   -1.233E-09   -1.205E-09   -1.177E-09   -1.150E-09   -1.122E-09   -1.094E-09
    -1.066E-09   -1.038E-09   -1.010E-09   -9.823E-10   -9.547E-10   -9.271E-10   -8.997E-10   -8.723E-10   -8.451E-10   -8.179E-10
    -7.909E-10   -7.641E-10   -7.373E-10   -7.107E-10   -6.843E-10   -6.580E-10   -6.319E-10   -6.059E-10   -5.801E-10   -5.546E-10
    -5.292E-10   -5.040E-10   -4.790E-10   -4.542E-10   -4.296E-10   -4.053E-10   -3.812E-10   -3.573E-10   -3.337E-10   -3.104E-10
    -2.873E-10   -2.644E-10   -2.419E-10   -2.196E-10   -1.976E-10   -1.759E-10   -1.545E-10   -1.334E-10   -1.126E-10   -9.219E-11
    -7.208E-11   -5.228E-11   -3.284E-11   -1.375E-11    4.993E-12    2.336E-11    4.137E-11    5.900E-11    7.624E-11    9.310E-11
     1.096E-10    1.256E-10    1.413E-10    1.565E-10    1.714E-10    1.859E-10    2.001E-10    2.139E-10    2.273E-10    2.404E-10
     2.532E-10    2.657E-10    2.779E-10    2.898E-10    3.014E-10    3.127E-10    3.237E-10    3.345E-10    3.450E-10    3.553E-10
     3.654E-10    3.752E-10    3.849E-10    3.943E-10    4.035E-10    4.126E-10    4.214E-10    4.301E-10    4.387E-10    4.471E-10
     4.553E-10    4.635E-10    4.715E-10    4.794E-10    4.872E-10    4.949E-10    5.026E-10    5.101E-10    5.176E-10    5.251E-10
     5.325E-10    5.398E-10    5.472E-10    5.545E-10    5.618E-10    5.691E-10    5.764E-10    5.838E-10    5.912E-10    5.986E-10
     6.061E-10    6.136E-10    6.212E-10
 Asp      Conc. = 2.30E-09
  -4.26230E-09 -2.33848E-09 -3.72944E-09 -3.54646E-09 -3.44439E-09 -4.12655E-09 -3.68677E-09 -3.93999E-09 -4.23414E-09 -4.30713E-09
  -4.25946E-09 -4.21154E-09 -4.11121E-09 -4.03270E-09 -3.92342E-09 -3.81371E-09 -3.70317E-09 -3.59094E-09 -3.47718E-09 -3.36205E-09
  -3.24574E-09 -3.12833E-09 -3.00986E-09 -2.89033E-09 -2.76972E-09 -2.64785E-09 -2.52458E-09 -2.39962E-09 -2.27259E-09 -2.14291E-09
  -2.00974E-09 -1.87189E-09 -1.72723E-09 -1.57226E-09 -1.40008E-09 -1.19483E-09 -9.10474E-10 -5.18719E-10 -5.88992E-10  1.09456E-10
  -5.19622E-10  5.66789E-10 -2.71707E-10  1.65829E-09  3.69669E-10  3.44501E-09  1.10182E-09  3.75608E-09  1.46435E-09  4.65414E-09
   1.63785E-09  4.60425E-09  2.25654E-09  4.94971E-09  2.55952E-09  4.70852E-09  3.18245E-09  3.18660E-09  1.78170E-09  3.21160E-09
   3.01007E-09  1.94540E-09  2.69240E-09  2.25993E-09  2.19746E-09  2.18043E-09  2.64026E-09  2.47356E-09  2.43578E-09  2.45346E-09
   2.49754E-09  2.55626E-09  2.62401E-09  2.69765E-09  2.77532E-09  2.85579E-09  2.93823E-09  3.02204E-09  3.10680E-09  3.19215E-09
   3.27784E-09  3.36366E-09  3.44946E-09  3.53509E-09  3.62041E-09  3.70538E-09  3.78986E-09  3.87382E-09  3.95716E-09  4.03984E-09
   4.12181E-09  4.20302E-09  4.28343E-09  4.36300E-09  4.44168E-09  4.51946E-09  4.59630E-09  4.67216E-09  4.74700E-09  4.82082E-09
   4.89356E-09  4.96525E-09  5.03582E-09  5.10524E-09  5.17353E-09  5.24060E-09  5.30639E-09  5.37084E-09  5.43389E-09  5.49545E-09
   5.55549E-09  5.61391E-09  5.67066E-09  5.72568E-09  5.77889E-09  5.83023E-09  5.87964E-09  5.92705E-09  5.97240E-09  6.01562E-09
   6.05665E-09  6.09542E-09  6.13188E-09  6.16595E-09  6.19758E-09  6.22670E-09  6.25324E-09  6.27715E-09  6.29835E-09  6.31680E-09
   6.33241E-09  6.34514E-09  6.35492E-09  6.36168E-09  6.36537E-09  6.36592E-09  6.36328E-09  6.35737E-09  6.34814E-09  6.33554E-09
   6.31949E-09  6.29995E-09  6.27685E-09  6.25014E-09  6.21977E-09  6.18567E-09  6.14780E-09  6.10611E-09  6.06055E-09  6.01109E-09
   5.95769E-09  5.90033E-09  5.83899E-09  5.77367E-09  5.70440E-09  5.63123E-09  5.55428E-09  5.47390E-09  5.39061E-09  5.30510E-09
   5.21840E-09  5.13212E-09  5.04907E-09  4.97476E-09  4.92176E-09  4.92552E-09  5.12467E-09  6.37943E-09  7.56361E-09  6.12810E-09
   8.10841E-09  5.86123E-09  8.60673E-09  5.08761E-09  8.79777E-09  4.55902E-09  8.27480E-09  4.30325E-09  8.27770E-09  4.23436E-09
   3.27978E-09  2.88957E-09  2.63975E-09  2.44104E-09  2.26591E-09  2.10359E-09  1.94914E-09  1.80002E-09  1.65494E-09  1.51313E-09
   1.37414E-09  1.23779E-09  1.10393E-09  9.72580E-10  8.43726E-10  7.17462E-10  5.93859E-10  4.73051E-10  3.55124E-10  2.40238E-10
   1.28529E-10  2.01303E-11 -8.47930E-11 -1.86102E-10 -2.83632E-10 -3.77230E-10 -4.66712E-10 -5.51962E-10 -6.32834E-10 -7.09413E-10
  -7.81788E-10 -8.50047E-10 -9.14277E-10 -9.74573E-10 -1.03101E-09 -1.08370E-09 -1.13271E-09 -1.17812E-09 -1.22004E-09 -1.25856E-09
  -1.29373E-09 -1.32567E-09 -1.35445E-09 -1.38016E-09 -1.40290E-09 -1.42273E-09 -1.43974E-09 -1.45404E-09 -1.46572E-09 -1.47482E-09
  -1.48144E-09 -1.48570E-09 -1.48764E-09 -1.48739E-09 -1.48500E-09 -1.48058E-09 -1.47420E-09 -1.46595E-09 -1.45591E-09 -1.44417E-09
  -1.43081E-09 -1.41592E-09 -1.39959E-09 -1.38191E-09 -1.36294E-09 -1.34278E-09 -1.32153E-09 -1.29927E-09 -1.27605E-09 -1.25198E-09
  -1.22715E-09 -1.20166E-09 -1.17556E-09 -1.14894E-09 -1.12193E-09 -1.09455E-09 -1.06693E-09 -1.03913E-09 -1.01126E-09 -9.83393E-10
  -9.55568E-10 -9.27802E-10 -9.00105E-10 -8.72481E-10 -8.44936E-10 -8.17480E-10 -7.90117E-10 -7.62857E-10 -7.35704E-10 -7.08664E-10
  -6.81751E-10 -6.54963E-10 -6.28315E-10 -6.01806E-10 -5.75445E-10 -5.49244E-10 -5.23205E-10 -4.97337E-10 -4.71644E-10 -4.46137E-10
  -4.20819E-10 -3.95703E-10 -3.70786E-10 -3.46080E-10 -3.21598E-10 -2.97340E-10 -2.73310E-10 -2.49520E-10 -2.25979E-10 -2.02693E-10
  -1.79664E-10 -1.56899E-10 -1.34406E-10 -1.12200E-10 -9.02753E-11 -6.86506E-11 -4.73224E-11 -2.63017E-11 -5.59493E-12  1.47864E-11
   3.48371E-11  5.45631E-11  7.39374E-11  9.29680E-11  1.11644E-10  1.29950E-10  1.47888E-10  1.65458E-10  1.82632E-10  1.99427E-10
   2.15817E-10  2.31800E-10  2.47390E-10  2.62592E-10  2.77413E-10  2.91862E-10  3.05950E-10  3.19685E-10  3.33078E-10  3.46136E-10
   3.58868E-10  3.71287E-10  3.83400E-10  3.95216E-10  4.06745E-10  4.17995E-10  4.28978E-10  4.39701E-10  4.50174E-10  4.60408E-10
   4.70409E-10  4.80188E-10  4.89757E-10  4.99119E-10  5.08290E-10  5.17276E-10  5.26085E-10  5.34730E-10  5.43217E-10  5.51559E-10
   5.59761E-10  5.67836E-10  5.75790E-10  5.83636E-10  5.91381E-10  5.99036E-10  6.06605E-10  6.14106E-10  6.21541E-10  6.28926E-10
   6.36262E-10  6.43566E-10  6.50841E-10  6.58103E-10  6.65358E-10  6.72612E-10  6.79877E-10  6.87168E-10  6.94484E-10  7.01842E-10
   7.09248E-10  7.16713E-10  7.24245E-10
 GABA     Conc. = 4.16E-10
  -5.71885E-09 -5.60148E-09 -5.48404E-09 -5.36654E-09 -5.24898E-09 -5.13136E-09 -5.01368E-09 -4.89594E-09 -4.77813E-09 -4.66020E-09
  -4.54230E-09 -4.42416E-09 -4.30603E-09 -4.18773E-09 -4.06915E-09 -3.95064E-09 -3.83172E-09 -3.71252E-09 -3.59293E-09 -3.47304E-09
  -3.35206E-09 -3.23072E-09 -3.10747E-09 -2.98299E-09 -2.85529E-09 -2.72348E-09 -2.58382E-09 -2.42875E-09 -2.23361E-09 -1.93754E-09
  -2.04078E-09 -1.55894E-09 -1.37388E-09 -1.25507E-09 -1.13091E-09 -7.96067E-10 -7.58154E-10 -6.02032E-10 -4.99892E-10 -3.28564E-10
  -2.98029E-10 -4.88171E-10 -1.74148E-10  5.01506E-11 -5.77157E-10 -9.17036E-11 -1.30818E-10 -1.44430E-10 -8.49498E-11  3.74700E-15
   9.63983E-11  1.98405E-10  3.04870E-10  4.13640E-10  5.25350E-10  6.39164E-10  7.56422E-10  8.77287E-10  1.00534E-09  1.14415E-09
   1.31043E-09  1.54843E-09  1.72703E-09  1.72538E-09  2.24028E-09  2.20252E-09  2.43452E-09  2.44675E-09  2.77741E-09  2.68526E-09
   2.90135E-09  2.93299E-09  3.06368E-09  3.00420E-09  2.82979E-09  3.32498E-09  3.00637E-09  2.89379E-09  3.16916E-09  3.21748E-09
   3.27483E-09  3.27373E-09  3.54287E-09  3.67624E-09  3.68008E-09  3.92859E-09  4.06848E-09  4.17782E-09  4.23888E-09  4.44179E-09
   4.53531E-09  4.60248E-09  4.53261E-09  4.86944E-09  4.84375E-09  4.60935E-09  4.97102E-09  4.91623E-09  4.82735E-09  4.95385E-09
   4.97282E-09  5.00592E-09  5.05205E-09  5.10367E-09  5.15935E-09  5.21636E-09  5.27457E-09  5.33249E-09  5.39054E-09  5.44765E-09
   5.50418E-09  5.55970E-09  5.61378E-09  5.66665E-09  5.71782E-09  5.76745E-09  5.81537E-09  5.86153E-09  5.90570E-09  5.94794E-09
   5.98804E-09  6.02599E-09  6.06172E-09  6.09513E-09  6.12616E-09  6.15471E-09  6.18077E-09  6.20421E-09  6.22498E-09  6.24303E-09
   6.25827E-09  6.27064E-09  6.28008E-09  6.28651E-09  6.28989E-09  6.29012E-09  6.28717E-09  6.28096E-09  6.27142E-09  6.25848E-09
   6.24210E-09  6.22220E-09  6.19872E-09  6.17161E-09  6.14079E-09  6.10619E-09  6.06778E-09  6.02547E-09  5.97921E-09  5.92895E-09
   5.87463E-09  5.81619E-09  5.75358E-09  5.68675E-09  5.61566E-09  5.54027E-09  5.46059E-09  5.37678E-09  5.28911E-09  5.19788E-09
   5.10349E-09  5.00652E-09  4.90796E-09  4.80973E-09  4.71677E-09  4.64601E-09  4.69004E-09  5.04423E-09  4.41468E-09  4.99725E-09
   4.10460E-09  4.95269E-09  3.70843E-09  4.79386E-09  3.41065E-09  4.45486E-09  3.17014E-09  4.12779E-09  3.21537E-09  2.86774E-09
   2.67355E-09  2.51256E-09  2.36263E-09  2.21762E-09  2.07530E-09  1.93485E-09  1.79586E-09  1.65819E-09  1.52188E-09  1.38697E-09
   1.25353E-09  1.12173E-09  9.91660E-10  8.63512E-10  7.37389E-10  6.13476E-10  4.91921E-10  3.72906E-10  2.56565E-10  1.43087E-10
   3.26358E-11 -7.46302E-11 -1.78532E-10 -2.78915E-10 -3.75602E-10 -4.68430E-10 -5.57202E-10 -6.41801E-10 -7.22069E-10 -7.98094E-10
  -8.69949E-10 -9.37728E-10 -1.00151E-09 -1.06138E-09 -1.11743E-09 -1.16974E-09 -1.21840E-09 -1.26349E-09 -1.30510E-09 -1.34332E-09
  -1.37821E-09 -1.40988E-09 -1.43841E-09 -1.46389E-09 -1.48639E-09 -1.50601E-09 -1.52281E-09 -1.53691E-09 -1.54839E-09 -1.55731E-09
