 LCModel (Version 6.3-1R) Copyright: S.W. Provencher.          Ref.: Magn. Reson. Med. 30:672-679 (1993).                
 onepulse 11x19_ftSpec_smooth_lcm
 26 lines in following concentration table = NCONC+1
    Conc.  %SD /Cr+PCr  Metabolite                                         
 1.35E-10 274%  52.161 Ala                                                 
    0.000 999%   0.000 Asp                                                 
    0.000 999%   0.000 Cr                                                  
 8.57E-10  86% 329.913 GABA                                                
    0.000 999%   0.000 Glc                                                 
    0.000 999%   0.000 Gln                                                 
    0.000 999%   0.000 Glu                                                 
    0.000 999%   0.000 Glyc                                                
    0.000 999%   0.000 GPC                                                 
    0.000 999%   0.000 GSH                                                 
 1.20E-09  28% 460.449 Ins                                                 
    0.000 999%   0.000 Lac                                                 
    0.000 999%   0.000 NAAG                                                
 4.95E-10  60% 190.564 NAA                                                 
 1.45E-11 999%   5.597 PCh                                                 
 2.60E-12 999%   1.000 PCr                                                 
 5.35E-11 999%  20.579 PE                                                  
 1.50E-10 139%  57.869 Scyllo                                              
 6.17E-09  26% 2.4E+03 Ser                                                 
    0.000 999%   0.000 Tau                                                 
 1.45E-11 999%   5.597 GPC+PCh                                             
 4.95E-10  60% 190.564 NAA+NAAG                                            
 1.20E-09  28% 460.449 Ins+Glyc                                            
 2.60E-12 999%   1.000 Cr+PCr                                              
    0.000 999%   0.000 Glu+Gln                                             
   6 lines in following misc. output table
  FWHM = 0.112 ppm    S/N =   2                                            
  Data shift = 0.358 ppm                                                   
  Ph:  23 deg     -19.3 deg/ppm                                            
  alphaB,S = 1.0E+00,   2.6E+01                                            
    9 spline knots.   Ns = 5(1)                                            
  ( 3) 2 infls.   ( 1) 1 extrs.                                            
  363 points on ppm-axis = NY
      4.250000     4.238821     4.227641     4.216462     4.205282     4.194103     4.182923     4.171744     4.160564     4.149385
      4.138206     4.127026     4.115847     4.104667     4.093488     4.082308     4.071129     4.059949     4.048770     4.037591
      4.026411     4.015232     4.004052     3.992873     3.981693     3.970514     3.959334     3.948155     3.936975     3.925796
      3.914617     3.903437     3.892258     3.881078     3.869899     3.858719     3.847540     3.836360     3.825181     3.814002
      3.802822     3.791643     3.780463     3.769284     3.758104     3.746925     3.735745     3.724566     3.713387     3.702207
      3.691028     3.679848     3.668669     3.657489     3.646310     3.635130     3.623951     3.612772     3.601592     3.590413
      3.579233     3.568054     3.556874     3.545695     3.534515     3.523336     3.512156     3.500977     3.489798     3.478618
      3.467439     3.456259     3.445080     3.433900     3.422721     3.411541     3.400362     3.389183     3.378003     3.366824
      3.355644     3.344465     3.333285     3.322106     3.310926     3.299747     3.288568     3.277388     3.266209     3.255029
      3.243850     3.232670     3.221491     3.210311     3.199132     3.187953     3.176773     3.165594     3.154414     3.143235
      3.132055     3.120876     3.109696     3.098517     3.087337     3.076158     3.064979     3.053799     3.042620     3.031440
      3.020261     3.009081     2.997902     2.986722     2.975543     2.964364     2.953184     2.942005     2.930825     2.919646
      2.908466     2.897287     2.886107     2.874928     2.863749     2.852569     2.841390     2.830210     2.819031     2.807851
      2.796672     2.785492     2.774313     2.763134     2.751954     2.740775     2.729595     2.718416     2.707236     2.696057
      2.684877     2.673698     2.662519     2.651339     2.640160     2.628980     2.617801     2.606621     2.595442     2.584262
      2.573083     2.561903     2.550724     2.539545     2.528365     2.517186     2.506006     2.494827     2.483647     2.472468
      2.461288     2.450109     2.438930     2.427750     2.416571     2.405391     2.394212     2.383032     2.371853     2.360673
      2.349494     2.338315     2.327135     2.315956     2.304776     2.293597     2.282417     2.271238     2.260058     2.248879
      2.237700     2.226520     2.215341     2.204161     2.192982     2.181802     2.170623     2.159443     2.148264     2.137084
      2.125905     2.114726     2.103546     2.092367     2.081187     2.070008     2.058828     2.047649     2.036469     2.025290
      2.014111     2.002931     1.991752     1.980572     1.969393     1.958213     1.947034     1.935854     1.924675     1.913496
      1.902316     1.891137     1.879957     1.868778     1.857598     1.846419     1.835239     1.824060     1.812881     1.801701
      1.790522     1.779342     1.768163     1.756983     1.745804     1.734624     1.723445     1.712265     1.701086     1.689907
      1.678727     1.667548     1.656368     1.645189     1.634009     1.622830     1.611650     1.600471     1.589292     1.578112
      1.566933     1.555753     1.544574     1.533394     1.522215     1.511035     1.499856     1.488677     1.477497     1.466318
      1.455138     1.443959     1.432779     1.421600     1.410420     1.399241     1.388062     1.376882     1.365703     1.354523
      1.343344     1.332164     1.320985     1.309805     1.298626     1.287446     1.276267     1.265088     1.253908     1.242729
      1.231549     1.220370     1.209190     1.198011     1.186831     1.175652     1.164473     1.153293     1.142114     1.130934
      1.119755     1.108575     1.097396     1.086216     1.075037     1.063858     1.052678     1.041499     1.030319     1.019140
      1.007960     0.996781     0.985601     0.974422     0.963243     0.952063     0.940884     0.929704     0.918525     0.907345
      0.896166     0.884986     0.873807     0.862628     0.851448     0.840269     0.829089     0.817910     0.806730     0.795551
      0.784371     0.773192     0.762012     0.750833     0.739654     0.728474     0.717295     0.706115     0.694936     0.683756
      0.672577     0.661397     0.650218     0.639039     0.627859     0.616680     0.605500     0.594321     0.583141     0.571962
      0.560782     0.549603     0.538424     0.527244     0.516065     0.504885     0.493706     0.482526     0.471347     0.460167
      0.448988     0.437809     0.426629     0.415450     0.404270     0.393091     0.381911     0.370732     0.359552     0.348373
      0.337193     0.326014     0.314835     0.303655     0.292476     0.281296     0.270117     0.258937     0.247758     0.236578
      0.225399     0.214220     0.203040
 NY phased data points follow
  -1.05109E-09  1.01151E-10  3.22105E-10  1.42078E-09  1.47258E-09  2.07790E-09  2.27689E-09  2.30491E-09  1.97876E-09  2.63337E-09
   2.12175E-09  3.06131E-09  2.76300E-09  2.92054E-09  2.88626E-09  3.29030E-09  2.56059E-09  3.10347E-09  3.41116E-09  4.05943E-09
   3.74477E-09  4.92955E-09  4.37193E-09  4.59368E-09  4.00846E-09  4.12742E-09  4.23758E-09  4.44660E-09  4.93306E-09  4.50370E-09
   4.91725E-09  4.05598E-09  4.56898E-09  4.98598E-09  5.01887E-09  6.34028E-09  6.05783E-09  7.35725E-09  6.59251E-09  7.19181E-09
   6.85864E-09  7.28213E-09  7.10013E-09  7.39232E-09  7.34218E-09  7.22258E-09  7.49521E-09  7.37889E-09  7.22018E-09  6.88132E-09
   6.46752E-09  6.90628E-09  6.41193E-09  6.86000E-09  6.05833E-09  6.57358E-09  6.23897E-09  6.10974E-09  5.41734E-09  5.71894E-09
   4.73685E-09  5.37262E-09  4.00120E-09  5.40593E-09  5.14195E-09  6.31208E-09  6.44663E-09  6.89771E-09  6.88630E-09  7.75359E-09
   7.23866E-09  7.75601E-09  6.71948E-09  6.85253E-09  6.09706E-09  6.11948E-09  5.25207E-09  5.53373E-09  4.88801E-09  5.72477E-09
   5.23208E-09  7.04920E-09  7.09674E-09  9.23742E-09  8.88022E-09  1.03635E-08  9.93081E-09  1.13917E-08  1.05769E-08  1.14462E-08
   1.09793E-08  1.19671E-08  1.16090E-08  1.20766E-08  1.13104E-08  1.17386E-08  1.15481E-08  1.12677E-08  1.08200E-08  1.15483E-08
   9.97129E-09  1.11776E-08  1.04015E-08  1.05102E-08  1.03334E-08  1.06871E-08  9.51924E-09  1.04229E-08  9.26898E-09  9.75198E-09
   8.70776E-09  9.08273E-09  8.29096E-09  8.47851E-09  7.29913E-09  8.40471E-09  7.47470E-09  8.61581E-09  6.83995E-09  8.22697E-09
   7.67829E-09  7.95406E-09  6.82946E-09  7.90637E-09  6.68051E-09  7.11866E-09  5.75988E-09  7.05044E-09  5.79224E-09  6.41658E-09
   6.09296E-09  6.78812E-09  5.33263E-09  6.63993E-09  5.84280E-09  7.11341E-09  6.24376E-09  7.34713E-09  6.06169E-09  7.30297E-09
   6.91962E-09  8.19922E-09  7.53958E-09  8.97449E-09  7.87367E-09  9.33094E-09  8.62232E-09  1.00709E-08  9.04395E-09  1.04050E-08
   1.04210E-08  1.11400E-08  9.60305E-09  1.09710E-08  9.64994E-09  1.09633E-08  9.57128E-09  1.07061E-08  9.89391E-09  1.09144E-08
   9.84889E-09  1.13021E-08  9.78831E-09  1.12832E-08  9.90303E-09  1.11852E-08  9.98676E-09  1.19876E-08  1.11677E-08  1.34593E-08
   1.31918E-08  1.53405E-08  1.54317E-08  1.77755E-08  1.66133E-08  1.78902E-08  1.60161E-08  1.69217E-08  1.43361E-08  1.43156E-08
   1.26162E-08  1.23777E-08  9.89542E-09  9.04330E-09  6.67785E-09  5.57840E-09  2.11756E-09  1.88608E-09 -1.64092E-09 -2.29555E-09
  -5.66377E-09 -6.66867E-09 -9.13931E-09 -9.89561E-09 -1.22944E-08 -1.29592E-08 -1.46934E-08 -1.51177E-08 -1.69982E-08 -1.62291E-08
  -1.75603E-08 -1.60103E-08 -1.71460E-08 -1.58559E-08 -1.59378E-08 -1.36901E-08 -1.40849E-08 -1.19302E-08 -1.18722E-08 -9.28697E-09
  -9.37390E-09 -7.54361E-09 -6.85565E-09 -5.20795E-09 -5.85926E-09 -4.48550E-09 -4.94831E-09 -3.30687E-09 -4.11551E-09 -3.72375E-09
  -4.62737E-09 -2.77999E-09 -3.94105E-09 -2.67758E-09 -4.23927E-09 -3.03551E-09 -3.79228E-09 -2.89590E-09 -4.14114E-09 -2.99255E-09
  -3.90753E-09 -3.11034E-09 -3.78374E-09 -2.84645E-09 -3.41011E-09 -2.25853E-09 -3.13531E-09 -2.76878E-09 -3.68012E-09 -2.68044E-09
  -3.81566E-09 -2.64993E-09 -3.49987E-09 -2.49459E-09 -3.26203E-09 -2.64153E-09 -3.12786E-09 -2.15445E-09 -2.58280E-09 -1.90751E-09
  -2.95428E-09 -1.99233E-09 -3.06867E-09 -2.03420E-09 -2.50630E-09 -2.34594E-09 -2.87649E-09 -2.03408E-09 -3.25397E-09 -2.61648E-09
  -3.23510E-09 -2.41291E-09 -3.67344E-09 -2.53289E-09 -3.00640E-09 -2.11882E-09 -3.08537E-09 -1.80834E-09 -2.38191E-09 -1.40538E-09
  -2.24241E-09 -1.34291E-09 -2.34757E-09 -1.27758E-09 -1.68196E-09 -9.01758E-10 -1.50986E-09 -7.70615E-10 -2.11502E-09 -1.23549E-09
  -1.48378E-09 -1.03896E-09 -2.37967E-09 -1.48671E-09 -2.45546E-09 -1.92322E-09 -2.09005E-09 -2.33951E-09 -2.54961E-09 -1.53457E-09
  -2.77116E-09 -1.52750E-09 -2.02675E-09 -2.23895E-09 -2.20297E-09 -2.30962E-09 -2.30621E-09 -1.90574E-09 -2.38794E-09 -1.83129E-09
  -2.17947E-09 -2.74182E-09 -2.25093E-09 -1.64543E-09 -2.31162E-09 -1.29297E-09 -2.26506E-09 -1.37553E-09 -2.10313E-09 -1.10900E-09
  -1.38947E-09 -1.34493E-09 -1.95735E-09 -1.09413E-09 -2.05338E-09 -9.20898E-10 -9.74424E-10 -1.21845E-09 -1.23179E-09 -1.06246E-09
  -1.18193E-09 -7.39150E-10 -9.57815E-10 -4.14245E-10 -7.96587E-10 -4.07943E-10  3.39845E-10 -5.15245E-10 -1.71944E-10  2.30538E-10
  -1.57860E-10  5.00898E-10  3.55524E-10  2.62475E-10  4.23777E-10  7.24181E-10  5.81390E-10  7.35194E-10  4.91908E-10  9.36785E-10
   1.46791E-09  1.11923E-09  6.41769E-10  1.63268E-09  1.54552E-09  1.41743E-09  1.50951E-09  1.72066E-09  2.08089E-09  2.05874E-09
   2.23378E-09  2.36726E-09  1.70087E-09  2.53116E-09  2.00631E-09  2.41612E-09  2.41396E-09  2.30657E-09  2.71034E-09  2.95951E-09
   3.01549E-09  3.16346E-09  2.90481E-09
 NY points of the fit to the data follow
  -4.95513E-09 -8.34444E-10  1.09184E-09  8.39036E-10  1.58434E-09  3.33028E-09  4.52045E-09  4.16912E-09  2.97369E-09  2.23296E-09
   1.78804E-09  1.60797E-09  1.52146E-09  1.73544E-09  2.22935E-09  2.71387E-09  2.98103E-09  3.54621E-09  4.43371E-09  4.71858E-09
   4.39675E-09  4.03245E-09  3.89134E-09  3.74160E-09  3.61501E-09  3.75645E-09  4.18158E-09  4.67839E-09  4.89023E-09  4.60574E-09
   4.60652E-09  4.68953E-09  4.74985E-09  4.92424E-09  5.18735E-09  5.35941E-09  5.50859E-09  5.71922E-09  5.97833E-09  6.21759E-09
   6.38366E-09  6.57246E-09  6.79391E-09  6.75910E-09  6.64890E-09  6.71746E-09  6.68888E-09  6.54850E-09  6.43156E-09  6.38079E-09
   6.37234E-09  6.41509E-09  6.48544E-09  6.53660E-09  6.51980E-09  6.47156E-09  6.44678E-09  6.50068E-09  6.60479E-09  6.68995E-09
   6.69428E-09  6.65929E-09  6.72398E-09  6.79433E-09  6.86958E-09  7.20246E-09  7.56829E-09  7.77127E-09  7.99000E-09  8.22217E-09
   8.49077E-09  8.71942E-09  8.80230E-09  8.72381E-09  8.71019E-09  8.44705E-09  7.90893E-09  7.93657E-09  8.39048E-09  8.77185E-09
   9.12155E-09  9.35941E-09  9.53618E-09  9.93543E-09  1.05326E-08  1.11912E-08  1.18207E-08  1.20216E-08  1.14777E-08  1.09289E-08
   1.06937E-08  1.05842E-08  1.06155E-08  1.05682E-08  1.03895E-08  1.03610E-08  1.03048E-08  1.00932E-08  9.94956E-09  9.84645E-09
   9.78094E-09  9.72373E-09  9.64073E-09  9.61897E-09  9.63020E-09  9.64461E-09  9.65772E-09  9.66971E-09  9.67072E-09  9.63469E-09
   9.53790E-09  9.40324E-09  9.34621E-09  9.23643E-09  9.02838E-09  8.87810E-09  8.75808E-09  8.65148E-09  8.55164E-09  8.45540E-09
   8.36078E-09  8.26684E-09  8.17281E-09  8.07825E-09  7.98278E-09  7.88621E-09  7.78832E-09  7.68901E-09  7.58821E-09  7.48582E-09
   7.38182E-09  7.27619E-09  7.16890E-09  7.05998E-09  6.94942E-09  6.83727E-09  6.72354E-09  6.60826E-09  6.49152E-09  6.37333E-09
   6.25379E-09  6.13295E-09  6.01091E-09  5.88778E-09  5.76359E-09  5.63848E-09  5.51261E-09  5.38613E-09  5.25915E-09  5.13192E-09
   5.00467E-09  4.87759E-09  4.75106E-09  4.62551E-09  4.50135E-09  4.37924E-09  4.26007E-09  4.14492E-09  4.03535E-09  3.93374E-09
   3.84349E-09  3.77037E-09  3.72421E-09  3.72408E-09  3.81245E-09  4.10825E-09  5.10111E-09  8.73998E-09  1.26945E-08  1.50447E-08
   1.59876E-08  1.63802E-08  1.69143E-08  1.79197E-08  1.90848E-08  1.94326E-08  1.74161E-08  1.21123E-08  5.14790E-09  2.09759E-09
   1.18473E-09  7.34325E-10  4.39458E-10  2.12942E-10  2.17818E-11 -1.48866E-10 -3.06539E-10 -4.55398E-10 -5.97871E-10 -7.35450E-10
  -8.69103E-10 -9.99423E-10 -1.12685E-09 -1.25162E-09 -1.37395E-09 -1.49398E-09 -1.61174E-09 -1.72732E-09 -1.84074E-09 -1.95200E-09
  -2.06110E-09 -2.16807E-09 -2.27287E-09 -2.37547E-09 -2.47587E-09 -2.57404E-09 -2.66996E-09 -2.76358E-09 -2.85491E-09 -2.94391E-09
  -3.03055E-09 -3.11480E-09 -3.19665E-09 -3.27605E-09 -3.35302E-09 -3.42751E-09 -3.49948E-09 -3.56894E-09 -3.63588E-09 -3.70025E-09
  -3.76204E-09 -3.82124E-09 -3.87784E-09 -3.93183E-09 -3.98320E-09 -4.03191E-09 -4.07799E-09 -4.12143E-09 -4.16219E-09 -4.20029E-09
  -4.23572E-09 -4.26849E-09 -4.29858E-09 -4.32602E-09 -4.35079E-09 -4.37290E-09 -4.39237E-09 -4.40919E-09 -4.42338E-09 -4.43493E-09
  -4.44388E-09 -4.45023E-09 -4.45400E-09 -4.45522E-09 -4.45394E-09 -4.45020E-09 -4.44404E-09 -4.43551E-09 -4.42466E-09 -4.41153E-09
  -4.39616E-09 -4.37860E-09 -4.35890E-09 -4.33709E-09 -4.31323E-09 -4.28736E-09 -4.25953E-09 -4.22977E-09 -4.19813E-09 -4.16466E-09
  -4.12941E-09 -4.09240E-09 -4.05369E-09 -4.01333E-09 -3.97134E-09 -3.92778E-09 -3.88269E-09 -3.83610E-09 -3.78806E-09 -3.73861E-09
  -3.68779E-09 -3.63564E-09 -3.58219E-09 -3.52748E-09 -3.47156E-09 -3.41446E-09 -3.35621E-09 -3.29685E-09 -3.23641E-09 -3.17494E-09
  -3.11245E-09 -3.04899E-09 -2.98459E-09 -2.91928E-09 -2.85308E-09 -2.78603E-09 -2.71815E-09 -2.64948E-09 -2.58003E-09 -2.50985E-09
  -2.43894E-09 -2.36734E-09 -2.29506E-09 -2.22214E-09 -2.14858E-09 -2.07442E-09 -1.99967E-09 -1.92435E-09 -1.84847E-09 -1.77205E-09
  -1.69512E-09 -1.61768E-09 -1.53974E-09 -1.46132E-09 -1.38242E-09 -1.30307E-09 -1.22326E-09 -1.14301E-09 -1.06233E-09 -9.81233E-10
  -8.99723E-10 -8.17814E-10 -7.35518E-10 -6.52845E-10 -5.69807E-10 -4.86415E-10 -4.02681E-10 -3.18617E-10 -2.34236E-10 -1.49547E-10
  -6.45640E-11  2.07008E-11  1.06235E-10  1.92028E-10  2.78065E-10  3.64332E-10  4.50819E-10  5.37512E-10  6.24399E-10  7.11464E-10
   7.98698E-10  8.86088E-10  9.73613E-10  1.06127E-09  1.14904E-09  1.23690E-09  1.32485E-09  1.41288E-09  1.50096E-09  1.58908E-09
   1.67724E-09  1.76541E-09  1.85358E-09  1.94174E-09  2.02987E-09  2.11797E-09  2.20600E-09  2.29396E-09  2.38184E-09  2.46961E-09
   2.55728E-09  2.64481E-09  2.73220E-09  2.81943E-09  2.90648E-09  2.99334E-09  3.08001E-09  3.16645E-09  3.25266E-09  3.33863E-09
   3.42432E-09  3.50975E-09  3.59487E-09
 NY background values follow
    -5.992E-09   -5.762E-09   -5.532E-09   -5.304E-09   -5.076E-09   -4.850E-09   -4.626E-09   -4.402E-09   -4.180E-09   -3.960E-09
    -3.741E-09   -3.523E-09   -3.307E-09   -3.092E-09   -2.879E-09   -2.667E-09   -2.457E-09   -2.249E-09   -2.042E-09   -1.837E-09
    -1.634E-09   -1.433E-09   -1.233E-09   -1.035E-09   -8.393E-10   -6.453E-10   -4.531E-10   -2.629E-10   -7.463E-11    1.117E-10
     2.960E-10    4.783E-10    6.585E-10    8.367E-10    1.013E-09    1.187E-09    1.359E-09    1.529E-09    1.696E-09    1.862E-09
     2.025E-09    2.186E-09    2.345E-09    2.502E-09    2.656E-09    2.808E-09    2.958E-09    3.106E-09    3.251E-09    3.394E-09
     3.535E-09    3.674E-09    3.810E-09    3.944E-09    4.075E-09    4.205E-09    4.331E-09    4.456E-09    4.578E-09    4.698E-09
     4.816E-09    4.931E-09    5.044E-09    5.155E-09    5.263E-09    5.369E-09    5.472E-09    5.573E-09    5.672E-09    5.768E-09
     5.862E-09    5.954E-09    6.043E-09    6.129E-09    6.213E-09    6.295E-09    6.374E-09    6.450E-09    6.524E-09    6.596E-09
     6.665E-09    6.731E-09    6.795E-09    6.856E-09    6.914E-09    6.970E-09    7.024E-09    7.074E-09    7.122E-09    7.167E-09
     7.210E-09    7.249E-09    7.287E-09    7.321E-09    7.352E-09    7.381E-09    7.407E-09    7.430E-09    7.450E-09    7.468E-09
     7.482E-09    7.494E-09    7.502E-09    7.508E-09    7.511E-09    7.511E-09    7.508E-09    7.502E-09    7.493E-09    7.481E-09
     7.466E-09    7.448E-09    7.427E-09    7.403E-09    7.376E-09    7.346E-09    7.313E-09    7.276E-09    7.237E-09    7.195E-09
     7.149E-09    7.100E-09    7.048E-09    6.993E-09    6.935E-09    6.874E-09    6.811E-09    6.744E-09    6.674E-09    6.602E-09
     6.527E-09    6.449E-09    6.368E-09    6.285E-09    6.199E-09    6.111E-09    6.020E-09    5.927E-09    5.832E-09    5.734E-09
     5.635E-09    5.533E-09    5.429E-09    5.323E-09    5.215E-09    5.105E-09    4.994E-09    4.881E-09    4.766E-09    4.649E-09
     4.531E-09    4.412E-09    4.291E-09    4.169E-09    4.046E-09    3.922E-09    3.796E-09    3.670E-09    3.543E-09    3.415E-09
     3.286E-09    3.156E-09    3.026E-09    2.896E-09    2.765E-09    2.633E-09    2.502E-09    2.370E-09    2.238E-09    2.106E-09
     1.974E-09    1.842E-09    1.710E-09    1.579E-09    1.448E-09    1.317E-09    1.187E-09    1.057E-09    9.286E-10    8.004E-10
     6.730E-10    5.465E-10    4.210E-10    2.965E-10    1.730E-10    5.071E-11   -7.045E-11   -1.904E-10   -3.090E-10   -4.263E-10
    -5.422E-10   -6.567E-10   -7.696E-10   -8.810E-10   -9.909E-10   -1.099E-09   -1.206E-09   -1.310E-09   -1.413E-09   -1.514E-09
    -1.614E-09   -1.711E-09   -1.806E-09   -1.900E-09   -1.991E-09   -2.081E-09   -2.168E-09   -2.253E-09   -2.336E-09   -2.416E-09
    -2.495E-09   -2.571E-09   -2.645E-09   -2.717E-09   -2.786E-09   -2.853E-09   -2.917E-09   -2.979E-09   -3.039E-09   -3.096E-09
    -3.150E-09   -3.203E-09   -3.252E-09   -3.299E-09   -3.344E-09   -3.386E-09   -3.425E-09   -3.462E-09   -3.497E-09   -3.528E-09
    -3.558E-09   -3.584E-09   -3.608E-09   -3.630E-09   -3.649E-09   -3.665E-09   -3.679E-09   -3.690E-09   -3.698E-09   -3.704E-09
    -3.708E-09   -3.709E-09   -3.707E-09   -3.703E-09   -3.697E-09   -3.688E-09   -3.677E-09   -3.664E-09   -3.648E-09   -3.630E-09
    -3.610E-09   -3.588E-09   -3.564E-09   -3.538E-09   -3.510E-09   -3.480E-09   -3.448E-09   -3.414E-09   -3.378E-09   -3.341E-09
    -3.302E-09   -3.261E-09   -3.219E-09   -3.175E-09   -3.129E-09   -3.082E-09   -3.034E-09   -2.984E-09   -2.932E-09   -2.880E-09
    -2.826E-09   -2.771E-09   -2.714E-09   -2.657E-09   -2.598E-09   -2.538E-09   -2.477E-09   -2.415E-09   -2.352E-09   -2.288E-09
    -2.223E-09   -2.158E-09   -2.091E-09   -2.024E-09   -1.955E-09   -1.886E-09   -1.816E-09   -1.746E-09   -1.674E-09   -1.602E-09
    -1.530E-09   -1.457E-09   -1.383E-09   -1.308E-09   -1.233E-09   -1.158E-09   -1.082E-09   -1.005E-09   -9.281E-10   -8.506E-10
    -7.726E-10   -6.942E-10   -6.153E-10   -5.361E-10   -4.564E-10   -3.763E-10   -2.958E-10   -2.150E-10   -1.337E-10   -5.217E-11
     2.976E-11    1.120E-10    1.946E-10    2.775E-10    3.607E-10    4.442E-10    5.280E-10    6.121E-10    6.964E-10    7.809E-10
     8.657E-10    9.508E-10    1.036E-09    1.121E-09    1.207E-09    1.293E-09    1.379E-09    1.465E-09    1.551E-09    1.637E-09
     1.724E-09    1.811E-09    1.897E-09    1.984E-09    2.071E-09    2.158E-09    2.244E-09    2.331E-09    2.418E-09    2.505E-09
     2.592E-09    2.679E-09    2.765E-09    2.852E-09    2.939E-09    3.025E-09    3.112E-09    3.198E-09    3.284E-09    3.370E-09
     3.456E-09    3.542E-09    3.627E-09    3.712E-09    3.797E-09    3.882E-09    3.967E-09    4.051E-09    4.135E-09    4.219E-09
     4.302E-09    4.385E-09    4.468E-09
 Ala      Conc. = 1.35E-10
  -6.09602E-09 -5.85391E-09 -5.61400E-09 -5.37422E-09 -5.13416E-09 -4.89381E-09 -4.64748E-09 -4.40790E-09 -4.18573E-09 -3.94917E-09
  -3.71099E-09 -3.49928E-09 -3.28399E-09 -3.06398E-09 -2.85357E-09 -2.64626E-09 -2.44034E-09 -2.23563E-09 -2.03218E-09 -1.83009E-09
  -1.62944E-09 -1.43030E-09 -1.23276E-09 -1.03686E-09 -8.42663E-10 -6.50217E-10 -4.59560E-10 -2.70736E-10 -8.37796E-11  1.01276E-10
   2.84399E-10  4.65560E-10  6.44731E-10  8.21890E-10  9.97006E-10  1.17006E-09  1.34103E-09  1.50989E-09  1.67663E-09  1.84122E-09
   2.00365E-09  2.16390E-09  2.32196E-09  2.47781E-09  2.63143E-09  2.78282E-09  2.93195E-09  3.07882E-09  3.22342E-09  3.36574E-09
   3.50577E-09  3.64348E-09  3.77890E-09  3.91200E-09  4.04277E-09  4.17120E-09  4.29730E-09  4.42107E-09  4.54248E-09  4.66158E-09
   4.77830E-09  4.89267E-09  5.00468E-09  5.11432E-09  5.22157E-09  5.32643E-09  5.42887E-09  5.52890E-09  5.62648E-09  5.72161E-09
   5.81428E-09  5.90446E-09  5.99215E-09  6.07730E-09  6.15993E-09  6.24000E-09  6.31747E-09  6.39237E-09  6.46462E-09  6.53425E-09
   6.60119E-09  6.66542E-09  6.72692E-09  6.78566E-09  6.84160E-09  6.89468E-09  6.94489E-09  6.99214E-09  7.03639E-09  7.07757E-09
   7.11559E-09  7.15039E-09  7.18181E-09  7.20972E-09  7.23396E-09  7.25432E-09  7.27061E-09  7.28282E-09  7.29213E-09  7.30870E-09
   7.39482E-09  7.47341E-09  7.50750E-09  7.58826E-09  7.69074E-09  7.78764E-09  7.87616E-09  7.95761E-09  8.02300E-09  8.04689E-09
   8.00616E-09  7.92440E-09  7.91749E-09  7.85532E-09  7.69262E-09  7.58556E-09  7.50681E-09  7.43977E-09  7.37792E-09  7.31824E-09
   7.25883E-09  7.19885E-09  7.13760E-09  7.07470E-09  7.00988E-09  6.94296E-09  6.87379E-09  6.80232E-09  6.72851E-09  6.65229E-09
   6.57368E-09  6.49268E-09  6.40927E-09  6.32352E-09  6.23541E-09  6.14500E-09  6.05231E-09  5.95740E-09  5.86032E-09  5.76109E-09
   5.65979E-09  5.55647E-09  5.45117E-09  5.34400E-09  5.23494E-09  5.12410E-09  5.01154E-09  4.89735E-09  4.78154E-09  4.66424E-09
   4.54551E-09  4.42538E-09  4.30395E-09  4.18135E-09  4.05756E-09  3.93271E-09  3.80691E-09  3.68023E-09  3.55273E-09  3.42460E-09
   3.29587E-09  3.16681E-09  3.03758E-09  2.90866E-09  2.78087E-09  2.65681E-09  2.54866E-09  2.48643E-09  2.41184E-09  2.30936E-09
   2.18883E-09  2.06419E-09  1.94461E-09  1.83306E-09  1.72155E-09  1.59202E-09  1.41964E-09  1.19713E-09  9.67263E-10  8.14663E-10
   6.78980E-10  5.48445E-10  4.20539E-10  2.94457E-10  1.69865E-10  4.66615E-11 -7.51921E-11 -1.95705E-10 -3.14848E-10 -4.32586E-10
  -5.48899E-10 -6.63720E-10 -7.77029E-10 -8.88753E-10 -9.98867E-10 -1.10734E-09 -1.21409E-09 -1.31909E-09 -1.42230E-09 -1.52368E-09
  -1.62317E-09 -1.72075E-09 -1.81637E-09 -1.90999E-09 -2.00158E-09 -2.09109E-09 -2.17850E-09 -2.26375E-09 -2.34683E-09 -2.42770E-09
  -2.50633E-09 -2.58268E-09 -2.65674E-09 -2.72845E-09 -2.79784E-09 -2.86483E-09 -2.92942E-09 -2.99158E-09 -3.05132E-09 -3.10857E-09
  -3.16334E-09 -3.21561E-09 -3.26537E-09 -3.31261E-09 -3.35732E-09 -3.39945E-09 -3.43904E-09 -3.47606E-09 -3.51050E-09 -3.54237E-09
  -3.57165E-09 -3.59835E-09 -3.62246E-09 -3.64399E-09 -3.66294E-09 -3.67931E-09 -3.69311E-09 -3.70436E-09 -3.71305E-09 -3.71919E-09
  -3.72280E-09 -3.72390E-09 -3.72249E-09 -3.71861E-09 -3.71231E-09 -3.70363E-09 -3.69261E-09 -3.67929E-09 -3.66373E-09 -3.64597E-09
  -3.62605E-09 -3.60402E-09 -3.57991E-09 -3.55379E-09 -3.52568E-09 -3.49563E-09 -3.46370E-09 -3.42992E-09 -3.39434E-09 -3.35699E-09
  -3.31793E-09 -3.27720E-09 -3.23484E-09 -3.19090E-09 -3.14541E-09 -3.09841E-09 -3.04996E-09 -3.00009E-09 -2.94883E-09 -2.89623E-09
  -2.84234E-09 -2.78718E-09 -2.73081E-09 -2.67324E-09 -2.61453E-09 -2.55470E-09 -2.49380E-09 -2.43186E-09 -2.36892E-09 -2.30500E-09
  -2.24014E-09 -2.17438E-09 -2.10774E-09 -2.04025E-09 -1.97195E-09 -1.90286E-09 -1.83302E-09 -1.76245E-09 -1.69117E-09 -1.61922E-09
  -1.54661E-09 -1.47337E-09 -1.39952E-09 -1.32509E-09 -1.25010E-09 -1.17456E-09 -1.09850E-09 -1.02193E-09 -9.44868E-10 -8.67335E-10
  -7.89343E-10 -7.10908E-10 -6.32041E-10 -5.52754E-10 -4.73057E-10 -3.92960E-10 -3.12472E-10 -2.31604E-10 -1.50367E-10 -6.87699E-11
   1.31759E-11  9.54599E-11  1.78071E-10  2.60999E-10  3.44232E-10  4.27760E-10  5.11570E-10  5.95651E-10  6.79992E-10  7.64581E-10
   8.49406E-10  9.34456E-10  1.01972E-09  1.10518E-09  1.19083E-09  1.27665E-09  1.36264E-09  1.44878E-09  1.53505E-09  1.62145E-09
   1.70796E-09  1.79457E-09  1.88126E-09  1.96803E-09  2.05486E-09  2.14173E-09  2.22863E-09  2.31555E-09  2.40248E-09  2.48939E-09
   2.57629E-09  2.66314E-09  2.74995E-09  2.83669E-09  2.92336E-09  3.00993E-09  3.09639E-09  3.18273E-09  3.26894E-09  3.35499E-09
   3.44088E-09  3.52659E-09  3.61211E-09  3.69742E-09  3.78251E-09  3.86736E-09  3.95196E-09  4.03629E-09  4.12034E-09  4.20411E-09
   4.28755E-09  4.37067E-09  4.45345E-09
 GABA     Conc. = 8.57E-10
  -6.43416E-09 -6.21288E-09 -5.99315E-09 -5.77503E-09 -5.55859E-09 -5.34393E-09 -5.13113E-09 -4.92028E-09 -4.71149E-09 -4.50488E-09
  -4.30053E-09 -4.09864E-09 -3.89929E-09 -3.70266E-09 -3.50897E-09 -3.31835E-09 -3.13111E-09 -2.94761E-09 -2.76813E-09 -2.59311E-09
  -2.42314E-09 -2.25888E-09 -2.10124E-09 -1.95144E-09 -1.81099E-09 -1.68220E-09 -1.56829E-09 -1.47353E-09 -1.40029E-09 -1.28519E-09
  -1.07643E-09 -9.41302E-10 -7.82061E-10 -4.35261E-10 -6.81331E-11  2.84244E-10  7.17924E-10  1.21527E-09  1.72400E-09  2.17975E-09
   2.54344E-09  2.92003E-09  3.31934E-09  3.42579E-09  3.43915E-09  3.60099E-09  3.66644E-09  3.63586E-09  3.63799E-09  3.66493E-09
   3.70790E-09  3.76107E-09  3.82020E-09  3.88253E-09  3.94600E-09  4.00857E-09  4.06846E-09  4.12396E-09  4.17331E-09  4.21544E-09
   4.25217E-09  4.31208E-09  4.51579E-09  4.70257E-09  4.82619E-09  5.15288E-09  5.53336E-09  5.84091E-09  6.18083E-09  6.55839E-09
   6.92964E-09  7.22838E-09  7.39768E-09  7.47932E-09  7.64942E-09  7.60247E-09  7.32188E-09  7.28333E-09  7.25562E-09  7.11843E-09
   7.08618E-09  7.06439E-09  7.01169E-09  7.09891E-09  7.22848E-09  7.29711E-09  7.43721E-09  7.63246E-09  7.82479E-09  8.02672E-09
   8.18480E-09  8.32887E-09  8.54522E-09  8.64376E-09  8.58615E-09  8.66209E-09  8.69890E-09  8.57175E-09  8.50513E-09  8.46290E-09
   8.38093E-09  8.30782E-09  8.24708E-09  8.19503E-09  8.14879E-09  8.10615E-09  8.06565E-09  8.02638E-09  7.98768E-09  7.94899E-09
   7.90989E-09  7.86971E-09  7.82825E-09  7.78520E-09  7.74047E-09  7.69392E-09  7.64545E-09  7.59485E-09  7.54201E-09  7.48689E-09
   7.42924E-09  7.36917E-09  7.30657E-09  7.24146E-09  7.17380E-09  7.10361E-09  7.03088E-09  6.95564E-09  6.87792E-09  6.79773E-09
   6.71508E-09  6.63004E-09  6.54261E-09  6.45286E-09  6.36080E-09  6.26651E-09  6.16999E-09  6.07132E-09  5.97055E-09  5.86772E-09
   5.76291E-09  5.65616E-09  5.54753E-09  5.43712E-09  5.32492E-09  5.21103E-09  5.09553E-09  4.97851E-09  4.86000E-09  4.74012E-09
   4.61896E-09  4.49653E-09  4.37298E-09  4.24844E-09  4.12295E-09  3.99665E-09  3.86973E-09  3.74233E-09  3.61464E-09  3.48703E-09
   3.35981E-09  3.23372E-09  3.10985E-09  2.99042E-09  2.88060E-09  2.79639E-09  2.81465E-09  3.12201E-09  3.35225E-09  3.40699E-09
   3.34780E-09  3.26201E-09  3.20696E-09  3.20102E-09  3.19287E-09  3.06817E-09  2.67045E-09  1.95411E-09  1.18951E-09  9.06521E-10
   7.26162E-10  5.73959E-10  4.33315E-10  2.98767E-10  1.68042E-10  4.01001E-11 -8.55998E-11 -2.09357E-10 -3.31322E-10 -4.51573E-10
  -5.70168E-10 -6.87090E-10 -8.02359E-10 -9.15929E-10 -1.02779E-09 -1.13793E-09 -1.24629E-09 -1.35283E-09 -1.45754E-09 -1.56036E-09
  -1.66126E-09 -1.76021E-09 -1.85717E-09 -1.95209E-09 -2.04495E-09 -2.13570E-09 -2.22433E-09 -2.31077E-09 -2.39502E-09 -2.47704E-09
  -2.55679E-09 -2.63425E-09 -2.70938E-09 -2.78216E-09 -2.85258E-09 -2.92061E-09 -2.98620E-09 -3.04935E-09 -3.11005E-09 -3.16826E-09
  -3.22397E-09 -3.27716E-09 -3.32782E-09 -3.37595E-09 -3.42154E-09 -3.46452E-09 -3.50496E-09 -3.54282E-09 -3.57807E-09 -3.61073E-09
