 LCModel (Version 6.3-1R) Copyright: S.W. Provencher.          Ref.: Magn. Reson. Med. 30:672-679 (1993).                
 onepulse 11x12_ftSpec_smooth_lcm
 26 lines in following concentration table = NCONC+1
    Conc.  %SD /Cr+PCr  Metabolite                                         
 2.11E-10 111%   0.674 Ala                                                 
 3.17E-09  16%  10.132 Asp                                                 
 3.12E-10  72%   1.000 Cr                                                  
 1.52E-09  29%   4.862 GABA                                                
 1.17E-09  58%   3.733 Glc                                                 
    0.000 999%   0.000 Gln                                                 
    0.000 999%   0.000 Glu                                                 
    0.000 999%   0.000 Glyc                                                
 8.80E-11 138%   0.282 GPC                                                 
    0.000 999%   0.000 GSH                                                 
 6.31E-10  56%   2.021 Ins                                                 
    0.000 999%   0.000 Lac                                                 
    0.000 999%   0.000 NAAG                                                
 3.08E-10  55%   0.987 NAA                                                 
    0.000 999%   0.000 PCh                                                 
    0.000 999%   0.000 PCr                                                 
 2.95E-10 317%   0.945 PE                                                  
 5.48E-11 363%   0.175 Scyllo                                              
    0.000 999%   0.000 Ser                                                 
 3.52E-11 999%   0.113 Tau                                                 
 8.80E-11 138%   0.282 GPC+PCh                                             
 3.08E-10  55%   0.987 NAA+NAAG                                            
 6.31E-10  56%   2.021 Ins+Glyc                                            
 3.12E-10  72%   1.000 Cr+PCr                                              
    0.000 999%   0.000 Glu+Gln                                             
   6 lines in following misc. output table
  FWHM = 0.112 ppm    S/N =   3                                            
  Data shift = 0.414 ppm                                                   
  Ph: 176 deg      26.9 deg/ppm                                            
  alphaB,S = 4.8E-01,   1.6E+01                                            
   11 spline knots.   Ns = 5(1)                                            
  ( 9) 3 infls.   ( 9) 1 extrs.                                            
  363 points on ppm-axis = NY
      4.250000     4.238821     4.227641     4.216462     4.205282     4.194103     4.182923     4.171744     4.160564     4.149385
      4.138206     4.127026     4.115847     4.104667     4.093488     4.082308     4.071129     4.059949     4.048770     4.037591
      4.026411     4.015232     4.004052     3.992873     3.981693     3.970514     3.959334     3.948155     3.936975     3.925796
      3.914617     3.903437     3.892258     3.881078     3.869899     3.858719     3.847540     3.836360     3.825181     3.814002
      3.802822     3.791643     3.780463     3.769284     3.758104     3.746925     3.735745     3.724566     3.713387     3.702207
      3.691028     3.679848     3.668669     3.657489     3.646310     3.635130     3.623951     3.612772     3.601592     3.590413
      3.579233     3.568054     3.556874     3.545695     3.534515     3.523336     3.512156     3.500977     3.489798     3.478618
      3.467439     3.456259     3.445080     3.433900     3.422721     3.411541     3.400362     3.389183     3.378003     3.366824
      3.355644     3.344465     3.333285     3.322106     3.310926     3.299747     3.288568     3.277388     3.266209     3.255029
      3.243850     3.232670     3.221491     3.210311     3.199132     3.187953     3.176773     3.165594     3.154414     3.143235
      3.132055     3.120876     3.109696     3.098517     3.087337     3.076158     3.064979     3.053799     3.042620     3.031440
      3.020261     3.009081     2.997902     2.986722     2.975543     2.964364     2.953184     2.942005     2.930825     2.919646
      2.908466     2.897287     2.886107     2.874928     2.863749     2.852569     2.841390     2.830210     2.819031     2.807851
      2.796672     2.785492     2.774313     2.763134     2.751954     2.740775     2.729595     2.718416     2.707236     2.696057
      2.684877     2.673698     2.662519     2.651339     2.640160     2.628980     2.617801     2.606621     2.595442     2.584262
      2.573083     2.561903     2.550724     2.539545     2.528365     2.517186     2.506006     2.494827     2.483647     2.472468
      2.461288     2.450109     2.438930     2.427750     2.416571     2.405391     2.394212     2.383032     2.371853     2.360673
      2.349494     2.338315     2.327135     2.315956     2.304776     2.293597     2.282417     2.271238     2.260058     2.248879
      2.237700     2.226520     2.215341     2.204161     2.192982     2.181802     2.170623     2.159443     2.148264     2.137084
      2.125905     2.114726     2.103546     2.092367     2.081187     2.070008     2.058828     2.047649     2.036469     2.025290
      2.014111     2.002931     1.991752     1.980572     1.969393     1.958213     1.947034     1.935854     1.924675     1.913496
      1.902316     1.891137     1.879957     1.868778     1.857598     1.846419     1.835239     1.824060     1.812881     1.801701
      1.790522     1.779342     1.768163     1.756983     1.745804     1.734624     1.723445     1.712265     1.701086     1.689907
      1.678727     1.667548     1.656368     1.645189     1.634009     1.622830     1.611650     1.600471     1.589292     1.578112
      1.566933     1.555753     1.544574     1.533394     1.522215     1.511035     1.499856     1.488677     1.477497     1.466318
      1.455138     1.443959     1.432779     1.421600     1.410420     1.399241     1.388062     1.376882     1.365703     1.354523
      1.343344     1.332164     1.320985     1.309805     1.298626     1.287446     1.276267     1.265088     1.253908     1.242729
      1.231549     1.220370     1.209190     1.198011     1.186831     1.175652     1.164473     1.153293     1.142114     1.130934
      1.119755     1.108575     1.097396     1.086216     1.075037     1.063858     1.052678     1.041499     1.030319     1.019140
      1.007960     0.996781     0.985601     0.974422     0.963243     0.952063     0.940884     0.929704     0.918525     0.907345
      0.896166     0.884986     0.873807     0.862628     0.851448     0.840269     0.829089     0.817910     0.806730     0.795551
      0.784371     0.773192     0.762012     0.750833     0.739654     0.728474     0.717295     0.706115     0.694936     0.683756
      0.672577     0.661397     0.650218     0.639039     0.627859     0.616680     0.605500     0.594321     0.583141     0.571962
      0.560782     0.549603     0.538424     0.527244     0.516065     0.504885     0.493706     0.482526     0.471347     0.460167
      0.448988     0.437809     0.426629     0.415450     0.404270     0.393091     0.381911     0.370732     0.359552     0.348373
      0.337193     0.326014     0.314835     0.303655     0.292476     0.281296     0.270117     0.258937     0.247758     0.236578
      0.225399     0.214220     0.203040
 NY phased data points follow
   6.17645E-09  7.25564E-09  5.50533E-09  6.40988E-09  5.01241E-09  6.33180E-09  5.18664E-09  6.15239E-09  5.17335E-09  6.37245E-09
   5.30381E-09  7.33656E-09  6.07900E-09  6.69683E-09  5.97093E-09  6.95121E-09  5.64543E-09  6.72384E-09  5.47224E-09  6.24101E-09
   5.88597E-09  6.66077E-09  6.16103E-09  6.20484E-09  5.20133E-09  5.60461E-09  5.46321E-09  6.08060E-09  6.41053E-09  7.47022E-09
   7.18255E-09  7.59994E-09  6.93780E-09  7.11558E-09  6.38438E-09  6.63036E-09  6.46093E-09  6.48120E-09  6.17610E-09  6.69967E-09
   6.16652E-09  6.34722E-09  6.23192E-09  5.66470E-09  5.40424E-09  5.75567E-09  5.31963E-09  5.69775E-09  5.32754E-09  5.46097E-09
   5.08962E-09  4.68058E-09  4.49657E-09  4.40891E-09  3.97886E-09  3.44499E-09  3.68616E-09  3.56246E-09  4.45334E-09  5.34528E-09
   6.12911E-09  6.31077E-09  6.31427E-09  6.28496E-09  6.28137E-09  5.77063E-09  5.78005E-09  5.27999E-09  5.33469E-09  4.50548E-09
   4.07908E-09  3.23701E-09  2.62632E-09  1.81082E-09  3.03029E-09  4.38791E-09  6.31587E-09  6.66489E-09  7.45424E-09  6.75867E-09
   7.38416E-09  7.36141E-09  7.33812E-09  7.29868E-09  7.09573E-09  7.26837E-09  7.23033E-09  7.20915E-09  7.55667E-09  7.01989E-09
   7.40638E-09  6.77489E-09  6.94834E-09  6.45073E-09  6.35248E-09  5.75060E-09  6.04834E-09  5.83723E-09  5.97364E-09  5.49624E-09
   5.80081E-09  5.42094E-09  5.88080E-09  5.42172E-09  5.58778E-09  5.03408E-09  4.65364E-09  3.91261E-09  4.24426E-09  4.15438E-09
   4.44198E-09  4.17095E-09  4.71383E-09  4.44019E-09  4.78369E-09  4.38698E-09  5.03375E-09  4.44680E-09  4.79464E-09  4.00819E-09
   4.25900E-09  3.17358E-09  4.04376E-09  3.57073E-09  3.52724E-09  2.92965E-09  3.41090E-09  3.34343E-09  3.67938E-09  3.32243E-09
   4.20314E-09  3.20772E-09  4.24574E-09  3.35488E-09  3.60420E-09  3.71310E-09  4.66217E-09  4.25445E-09  5.33011E-09  4.26892E-09
   5.68173E-09  5.27379E-09  6.05455E-09  5.70301E-09  6.91617E-09  5.85913E-09  6.69174E-09  6.07623E-09  6.76309E-09  6.44186E-09
   6.85752E-09  6.08437E-09  6.93041E-09  6.62430E-09  7.32380E-09  6.72014E-09  7.23501E-09  6.89194E-09  7.52347E-09  7.02285E-09
   7.49046E-09  6.65963E-09  7.41312E-09  5.94006E-09  5.70773E-09  5.58930E-09  8.86721E-09  1.04957E-08  1.29741E-08  1.29302E-08
   1.42563E-08  1.39701E-08  1.46564E-08  1.41969E-08  1.46038E-08  1.35891E-08  1.43493E-08  1.33459E-08  1.38125E-08  1.23044E-08
   1.23105E-08  1.04993E-08  9.77655E-09  8.05987E-09  6.64544E-09  4.25408E-09  3.26993E-09  7.54887E-10 -4.46268E-10 -2.77066E-09
  -3.33044E-09 -5.22054E-09 -5.49139E-09 -6.73058E-09 -6.59901E-09 -7.13557E-09 -6.32391E-09 -6.15124E-09 -5.23176E-09 -5.25951E-09
  -3.54706E-09 -3.32256E-09 -2.00533E-09 -2.06026E-09 -1.27946E-09 -1.49013E-09 -9.08580E-10 -1.90179E-09 -6.16813E-10 -2.17304E-09
  -1.32566E-09 -1.98909E-09 -1.21791E-09 -1.42517E-09 -8.40371E-10 -1.38471E-09 -5.28392E-10 -1.32252E-09 -3.33211E-10 -1.42234E-09
  -4.75419E-10 -1.49107E-09 -6.84926E-10 -1.41072E-09 -9.11612E-10 -1.31061E-09 -4.02754E-10 -8.35724E-10 -1.95270E-10 -1.05879E-09
  -4.59297E-10 -1.17136E-09 -4.69344E-10 -1.20842E-09 -7.86770E-10 -1.41827E-09 -1.17546E-09 -1.31223E-09 -7.09931E-10 -1.63568E-09
  -7.44332E-10 -1.12051E-09 -2.70845E-10 -1.14427E-09 -5.25917E-10 -1.03011E-09 -6.01187E-10 -1.52322E-09 -5.13932E-10 -1.47389E-09
  -8.74887E-10 -1.55842E-09 -7.98194E-10 -1.60487E-09 -1.19982E-09 -1.50522E-09 -1.15853E-09 -1.45847E-09 -1.56525E-09 -1.88202E-09
  -1.07486E-09 -2.12506E-09 -1.52484E-09 -1.98621E-09 -1.33659E-09 -1.99420E-09 -1.42478E-09 -2.05843E-09 -1.36343E-09 -1.74130E-09
  -6.61544E-10 -1.36545E-09 -6.55786E-10 -1.36951E-09 -4.02734E-10 -1.19913E-09 -5.44022E-10 -1.38365E-09 -4.92936E-10 -1.14877E-09
  -5.46241E-10 -1.54671E-09 -7.84883E-10 -1.49014E-09 -9.53890E-10 -1.63668E-09 -6.96141E-10 -1.53355E-09 -1.10930E-09 -2.14708E-09
  -1.17984E-09 -1.89620E-09 -1.15377E-09 -2.04367E-09 -9.46874E-10 -2.03252E-09 -1.69626E-09 -1.91577E-09 -1.39757E-09 -2.43384E-09
  -1.27253E-09 -2.27477E-09 -1.30442E-09 -2.44961E-09 -1.52315E-09 -2.67996E-09 -1.83661E-09 -2.63633E-09 -2.15172E-09 -2.36865E-09
  -1.94696E-09 -2.72252E-09 -2.00838E-09 -2.69563E-09 -2.06365E-09 -2.78666E-09 -2.14744E-09 -2.92577E-09 -2.11562E-09 -3.24394E-09
  -2.26977E-09 -3.27387E-09 -2.37253E-09 -3.13947E-09 -2.39905E-09 -3.12090E-09 -2.60648E-09 -3.08985E-09 -2.58836E-09 -3.20104E-09
  -2.74340E-09 -3.67660E-09 -2.88174E-09 -3.44377E-09 -3.09815E-09 -3.31467E-09 -2.75102E-09 -3.67596E-09 -2.76378E-09 -3.62483E-09
  -2.90618E-09 -3.29503E-09 -2.92924E-09 -3.85866E-09 -2.80536E-09 -3.62018E-09 -3.15751E-09 -4.02316E-09 -3.11443E-09 -3.61368E-09
  -3.10518E-09 -3.94607E-09 -3.24754E-09 -3.59813E-09 -3.07249E-09 -3.81849E-09 -3.01178E-09 -3.59903E-09 -3.12906E-09 -3.87888E-09
  -3.16796E-09 -3.92054E-09 -3.27635E-09
 NY points of the fit to the data follow
   7.73199E-09  6.60097E-09  5.61224E-09  5.48185E-09  5.72014E-09  5.55064E-09  5.52240E-09  5.38681E-09  5.59295E-09  5.85922E-09
   5.98050E-09  6.22502E-09  6.73566E-09  7.15006E-09  6.94503E-09  6.44995E-09  6.50782E-09  6.43627E-09  5.75587E-09  5.44668E-09
   5.64217E-09  5.99743E-09  6.20011E-09  6.28062E-09  5.85581E-09  5.64884E-09  5.91824E-09  6.17485E-09  6.39370E-09  6.85695E-09
   7.04529E-09  7.58445E-09  7.81804E-09  7.05838E-09  6.11713E-09  6.43555E-09  6.61556E-09  6.59815E-09  6.39949E-09  6.03142E-09
   5.71693E-09  5.64516E-09  4.63449E-09  4.54070E-09  5.59292E-09  6.44056E-09  6.10796E-09  5.74080E-09  5.70418E-09  6.16174E-09
   6.35327E-09  6.48204E-09  6.57249E-09  6.19931E-09  5.41209E-09  4.86970E-09  3.91286E-09  4.36827E-09  5.03834E-09  5.02639E-09
   4.70296E-09  5.19628E-09  5.40771E-09  5.36377E-09  6.13243E-09  6.53857E-09  6.10270E-09  5.87261E-09  5.86512E-09  5.82049E-09
   5.68234E-09  5.35577E-09  4.90448E-09  4.94024E-09  4.98975E-09  4.43125E-09  4.71440E-09  5.60151E-09  5.66716E-09  5.69800E-09
   5.86498E-09  5.95831E-09  6.22570E-09  6.51487E-09  6.53514E-09  6.67188E-09  6.82777E-09  6.37945E-09  5.61686E-09  5.67559E-09
   5.62050E-09  5.69834E-09  5.85828E-09  5.49522E-09  5.23153E-09  5.46333E-09  5.26951E-09  4.99487E-09  5.10909E-09  5.21170E-09
   5.24604E-09  5.24206E-09  5.33174E-09  5.46443E-09  5.50912E-09  5.50062E-09  5.49303E-09  5.50117E-09  5.49285E-09  5.40568E-09
   5.20750E-09  5.11314E-09  5.17901E-09  5.03657E-09  4.88250E-09  4.88476E-09  4.90736E-09  4.93122E-09  4.95274E-09  4.97117E-09
   4.98644E-09  4.99873E-09  5.00819E-09  5.01494E-09  5.01916E-09  5.02096E-09  5.02044E-09  5.01772E-09  5.01288E-09  5.00598E-09
   4.99710E-09  4.98631E-09  4.97370E-09  4.95929E-09  4.94314E-09  4.92534E-09  4.90589E-09  4.88488E-09  4.86240E-09  4.83857E-09
   4.81346E-09  4.78721E-09  4.75993E-09  4.73171E-09  4.70273E-09  4.67313E-09  4.64309E-09  4.61281E-09  4.58253E-09  4.55251E-09
   4.52308E-09  4.49459E-09  4.46754E-09  4.44249E-09  4.42019E-09  4.40157E-09  4.38789E-09  4.38081E-09  4.38270E-09  4.39693E-09
   4.42867E-09  4.48607E-09  4.58324E-09  4.74691E-09  5.03583E-09  5.61243E-09  7.12964E-09  1.08233E-08  1.37836E-08  1.45855E-08
   1.46350E-08  1.47649E-08  1.48265E-08  1.45620E-08  1.43364E-08  1.46580E-08  1.51640E-08  1.32610E-08  7.10069E-09  3.13025E-09
   2.20592E-09  1.88285E-09  1.71799E-09  1.61015E-09  1.52661E-09  1.45443E-09  1.38780E-09  1.32388E-09  1.26122E-09  1.19907E-09
   1.13704E-09  1.07491E-09  1.01263E-09  9.50159E-10  8.87531E-10  8.24780E-10  7.61970E-10  6.99154E-10  6.36402E-10  5.73771E-10
   5.11333E-10  4.49152E-10  3.87285E-10  3.25800E-10  2.64751E-10  2.04187E-10  1.44170E-10  8.47535E-11  2.59868E-11 -3.20754E-11
  -8.93874E-11 -1.45901E-10 -2.01580E-10 -2.56381E-10 -3.10238E-10 -3.63128E-10 -4.15008E-10 -4.65843E-10 -5.15585E-10 -5.64189E-10
  -6.11647E-10 -6.57892E-10 -7.02899E-10 -7.46649E-10 -7.89103E-10 -8.30196E-10 -8.69948E-10 -9.08310E-10 -9.45292E-10 -9.80943E-10
  -1.01530E-09 -1.04841E-09 -1.08032E-09 -1.11106E-09 -1.14068E-09 -1.16922E-09 -1.19672E-09 -1.22323E-09 -1.24879E-09 -1.27344E-09
  -1.29723E-09 -1.32019E-09 -1.34237E-09 -1.36381E-09 -1.38456E-09 -1.40466E-09 -1.42414E-09 -1.44305E-09 -1.46144E-09 -1.47934E-09
  -1.49680E-09 -1.51384E-09 -1.53053E-09 -1.54690E-09 -1.56297E-09 -1.57880E-09 -1.59443E-09 -1.60989E-09 -1.62522E-09 -1.64045E-09
  -1.65563E-09 -1.67079E-09 -1.68597E-09 -1.70120E-09 -1.71651E-09 -1.73194E-09 -1.74752E-09 -1.76329E-09 -1.77928E-09 -1.79551E-09
  -1.81202E-09 -1.82884E-09 -1.84600E-09 -1.86350E-09 -1.88132E-09 -1.89945E-09 -1.91786E-09 -1.93654E-09 -1.95548E-09 -1.97464E-09
  -1.99402E-09 -2.01359E-09 -2.03334E-09 -2.05324E-09 -2.07329E-09 -2.09345E-09 -2.11372E-09 -2.13407E-09 -2.15449E-09 -2.17495E-09
  -2.19544E-09 -2.21594E-09 -2.23643E-09 -2.25689E-09 -2.27730E-09 -2.29765E-09 -2.31792E-09 -2.33809E-09 -2.35813E-09 -2.37804E-09
  -2.39779E-09 -2.41737E-09 -2.43675E-09 -2.45593E-09 -2.47487E-09 -2.49357E-09 -2.51200E-09 -2.53016E-09 -2.54801E-09 -2.56554E-09
  -2.58274E-09 -2.59959E-09 -2.61607E-09 -2.63216E-09 -2.64785E-09 -2.66311E-09 -2.67795E-09 -2.69232E-09 -2.70622E-09 -2.71963E-09
  -2.73253E-09 -2.74490E-09 -2.75671E-09 -2.76795E-09 -2.77861E-09 -2.78866E-09 -2.79808E-09 -2.80686E-09 -2.81498E-09 -2.82241E-09
  -2.82915E-09 -2.83518E-09 -2.84047E-09 -2.84502E-09 -2.84881E-09 -2.85182E-09 -2.85404E-09 -2.85545E-09 -2.85604E-09 -2.85579E-09
  -2.85469E-09 -2.85272E-09 -2.84988E-09 -2.84614E-09 -2.84151E-09 -2.83596E-09 -2.82948E-09 -2.82207E-09 -2.81370E-09 -2.80438E-09
  -2.79408E-09 -2.78281E-09 -2.77055E-09 -2.75729E-09 -2.74302E-09 -2.72773E-09 -2.71143E-09 -2.69409E-09 -2.67571E-09 -2.65629E-09
  -2.63582E-09 -2.61429E-09 -2.59170E-09
 NY background values follow
     2.254E-09    2.328E-09    2.402E-09    2.475E-09    2.547E-09    2.619E-09    2.690E-09    2.759E-09    2.829E-09    2.897E-09
     2.964E-09    3.031E-09    3.097E-09    3.163E-09    3.227E-09    3.291E-09    3.354E-09    3.416E-09    3.477E-09    3.537E-09
     3.597E-09    3.656E-09    3.714E-09    3.771E-09    3.828E-09    3.883E-09    3.938E-09    3.992E-09    4.046E-09    4.098E-09
     4.150E-09    4.200E-09    4.250E-09    4.300E-09    4.348E-09    4.395E-09    4.442E-09    4.488E-09    4.533E-09    4.577E-09
     4.621E-09    4.663E-09    4.705E-09    4.746E-09    4.786E-09    4.825E-09    4.864E-09    4.902E-09    4.938E-09    4.974E-09
     5.009E-09    5.044E-09    5.077E-09    5.110E-09    5.142E-09    5.173E-09    5.203E-09    5.232E-09    5.261E-09    5.288E-09
     5.315E-09    5.341E-09    5.366E-09    5.390E-09    5.413E-09    5.436E-09    5.458E-09    5.478E-09    5.498E-09    5.517E-09
     5.536E-09    5.553E-09    5.570E-09    5.585E-09    5.600E-09    5.614E-09    5.627E-09    5.639E-09    5.650E-09    5.661E-09
     5.670E-09    5.679E-09    5.687E-09    5.694E-09    5.700E-09    5.705E-09    5.709E-09    5.713E-09    5.715E-09    5.717E-09
     5.718E-09    5.718E-09    5.717E-09    5.715E-09    5.712E-09    5.708E-09    5.704E-09    5.698E-09    5.692E-09    5.684E-09
     5.676E-09    5.666E-09    5.656E-09    5.645E-09    5.632E-09    5.619E-09    5.605E-09    5.589E-09    5.573E-09    5.555E-09
     5.536E-09    5.517E-09    5.496E-09    5.474E-09    5.451E-09    5.427E-09    5.401E-09    5.375E-09    5.347E-09    5.318E-09
     5.288E-09    5.257E-09    5.225E-09    5.191E-09    5.156E-09    5.120E-09    5.082E-09    5.044E-09    5.004E-09    4.963E-09
     4.920E-09    4.876E-09    4.831E-09    4.784E-09    4.736E-09    4.687E-09    4.636E-09    4.584E-09    4.531E-09    4.476E-09
     4.420E-09    4.363E-09    4.304E-09    4.245E-09    4.184E-09    4.122E-09    4.058E-09    3.994E-09    3.928E-09    3.862E-09
     3.794E-09    3.725E-09    3.656E-09    3.585E-09    3.514E-09    3.441E-09    3.368E-09    3.294E-09    3.219E-09    3.144E-09
     3.068E-09    2.991E-09    2.913E-09    2.835E-09    2.756E-09    2.676E-09    2.596E-09    2.516E-09    2.435E-09    2.354E-09
     2.272E-09    2.190E-09    2.108E-09    2.025E-09    1.942E-09    1.859E-09    1.776E-09    1.692E-09    1.609E-09    1.525E-09
     1.442E-09    1.358E-09    1.275E-09    1.191E-09    1.108E-09    1.025E-09    9.417E-10    8.589E-10    7.765E-10    6.943E-10
     6.124E-10    5.310E-10    4.500E-10    3.694E-10    2.893E-10    2.098E-10    1.308E-10    5.245E-11   -2.526E-11   -1.023E-10
    -1.786E-10   -2.542E-10   -3.289E-10   -4.029E-10   -4.759E-10   -5.481E-10   -6.194E-10   -6.896E-10   -7.589E-10   -8.272E-10
    -8.943E-10   -9.604E-10   -1.025E-09   -1.089E-09   -1.152E-09   -1.213E-09   -1.273E-09   -1.332E-09   -1.389E-09   -1.445E-09
    -1.500E-09   -1.554E-09   -1.605E-09   -1.656E-09   -1.705E-09   -1.752E-09   -1.798E-09   -1.842E-09   -1.885E-09   -1.926E-09
    -1.966E-09   -2.004E-09   -2.041E-09   -2.077E-09   -2.111E-09   -2.144E-09   -2.176E-09   -2.207E-09   -2.237E-09   -2.266E-09
    -2.293E-09   -2.320E-09   -2.346E-09   -2.371E-09   -2.395E-09   -2.418E-09   -2.441E-09   -2.463E-09   -2.484E-09   -2.505E-09
    -2.525E-09   -2.544E-09   -2.563E-09   -2.582E-09   -2.600E-09   -2.618E-09   -2.636E-09   -2.653E-09   -2.670E-09   -2.687E-09
    -2.704E-09   -2.720E-09   -2.737E-09   -2.753E-09   -2.770E-09   -2.786E-09   -2.803E-09   -2.820E-09   -2.836E-09   -2.853E-09
    -2.870E-09   -2.888E-09   -2.905E-09   -2.923E-09   -2.941E-09   -2.959E-09   -2.978E-09   -2.996E-09   -3.015E-09   -3.034E-09
    -3.053E-09   -3.072E-09   -3.092E-09   -3.111E-09   -3.131E-09   -3.150E-09   -3.170E-09   -3.189E-09   -3.209E-09   -3.228E-09
    -3.247E-09   -3.267E-09   -3.286E-09   -3.305E-09   -3.324E-09   -3.343E-09   -3.362E-09   -3.380E-09   -3.399E-09   -3.417E-09
    -3.435E-09   -3.453E-09   -3.470E-09   -3.487E-09   -3.504E-09   -3.521E-09   -3.537E-09   -3.553E-09   -3.568E-09   -3.583E-09
    -3.598E-09   -3.612E-09   -3.626E-09   -3.640E-09   -3.653E-09   -3.665E-09   -3.677E-09   -3.689E-09   -3.700E-09   -3.710E-09
    -3.720E-09   -3.729E-09   -3.738E-09   -3.746E-09   -3.753E-09   -3.760E-09   -3.766E-09   -3.771E-09   -3.776E-09   -3.780E-09
    -3.783E-09   -3.785E-09   -3.787E-09   -3.788E-09   -3.788E-09   -3.787E-09   -3.785E-09   -3.783E-09   -3.779E-09   -3.775E-09
    -3.770E-09   -3.764E-09   -3.756E-09   -3.749E-09   -3.740E-09   -3.730E-09   -3.719E-09   -3.707E-09   -3.694E-09   -3.680E-09
    -3.666E-09   -3.650E-09   -3.633E-09   -3.615E-09   -3.596E-09   -3.576E-09   -3.555E-09   -3.533E-09   -3.509E-09   -3.485E-09
    -3.460E-09   -3.433E-09   -3.406E-09
 Ala      Conc. = 2.11E-10
   2.39934E-09  2.44904E-09  2.50963E-09  2.56644E-09  2.62251E-09  2.68750E-09  2.71978E-09  2.74870E-09  2.84900E-09  2.90386E-09
   2.91585E-09  3.00068E-09  3.07870E-09  3.12953E-09  3.19649E-09  3.26612E-09  3.33491E-09  3.40235E-09  3.46840E-09  3.53314E-09
   3.59664E-09  3.65898E-09  3.72019E-09  3.78033E-09  3.83945E-09  3.89757E-09  3.95471E-09  4.01090E-09  4.06616E-09  4.12049E-09
   4.17391E-09  4.22645E-09  4.27808E-09  4.32885E-09  4.37873E-09  4.42775E-09  4.47591E-09  4.52320E-09  4.56964E-09  4.61524E-09
   4.65997E-09  4.70388E-09  4.74694E-09  4.78915E-09  4.83053E-09  4.87108E-09  4.91084E-09  4.94973E-09  4.98779E-09  5.02502E-09
   5.06143E-09  5.09701E-09  5.13176E-09  5.16570E-09  5.19880E-09  5.23110E-09  5.26256E-09  5.29321E-09  5.32305E-09  5.35206E-09
   5.38026E-09  5.40765E-09  5.43424E-09  5.46001E-09  5.48498E-09  5.50915E-09  5.53252E-09  5.55510E-09  5.57689E-09  5.59790E-09
   5.61813E-09  5.63759E-09  5.65629E-09  5.67424E-09  5.69144E-09  5.70792E-09  5.72369E-09  5.73877E-09  5.75316E-09  5.76689E-09
   5.78000E-09  5.79252E-09  5.80448E-09  5.81593E-09  5.82691E-09  5.83752E-09  5.84782E-09  5.85795E-09  5.86800E-09  5.87819E-09
   5.88873E-09  5.89993E-09  5.91224E-09  5.92630E-09  5.94304E-09  5.96401E-09  5.99186E-09  6.03172E-09  6.09534E-09  6.21413E-09
   6.30630E-09  6.29070E-09  6.34322E-09  6.42883E-09  6.42265E-09  6.36257E-09  6.30362E-09  6.26116E-09  6.20324E-09  6.06745E-09
   5.82202E-09  5.68202E-09  5.70365E-09  5.51831E-09  5.32253E-09  5.28396E-09  5.26679E-09  5.25196E-09  5.23579E-09  5.21745E-09
   5.19683E-09  5.17399E-09  5.14904E-09  5.12208E-09  5.09325E-09  5.06258E-09  5.03017E-09  4.99606E-09  4.96031E-09  4.92290E-09
   4.88392E-09  4.84337E-09  4.80129E-09  4.75765E-09  4.71248E-09  4.66582E-09  4.61762E-09  4.56792E-09  4.51676E-09  4.46418E-09
   4.41019E-09  4.35486E-09  4.29820E-09  4.24025E-09  4.18105E-09  4.12063E-09  4.05904E-09  3.99630E-09  3.93245E-09  3.86754E-09
   3.80161E-09  3.73468E-09  3.66682E-09  3.59807E-09  3.52848E-09  3.45812E-09  3.38705E-09  3.31536E-09  3.24317E-09  3.17058E-09
   3.09785E-09  3.02523E-09  2.95327E-09  2.88295E-09  2.81657E-09  2.76094E-09  2.74706E-09  2.78813E-09  2.75574E-09  2.67927E-09
   2.60066E-09  2.52611E-09  2.44425E-09  2.35356E-09  2.27191E-09  2.20818E-09  2.13161E-09  1.94489E-09  1.66826E-09  1.54764E-09
   1.45436E-09  1.36761E-09  1.28309E-09  1.19955E-09  1.11653E-09  1.03385E-09  9.51464E-10  8.69333E-10  7.87489E-10  7.05940E-10
   6.24732E-10  5.43875E-10  4.63438E-10  3.83428E-10  3.03895E-10  2.24874E-10  1.46409E-10  6.85309E-11 -8.71729E-12 -8.53057E-11
  -1.61189E-10 -2.36332E-10 -3.10701E-10 -3.84253E-10 -4.56955E-10 -5.28780E-10 -5.99684E-10 -6.69632E-10 -7.38592E-10 -8.06524E-10
  -8.73395E-10 -9.39173E-10 -1.00383E-09 -1.06734E-09 -1.12964E-09 -1.19073E-09 -1.25056E-09 -1.30911E-09 -1.36634E-09 -1.42221E-09
  -1.47672E-09 -1.52982E-09 -1.58148E-09 -1.63168E-09 -1.68041E-09 -1.72758E-09 -1.77324E-09 -1.81733E-09 -1.85988E-09 -1.90092E-09
  -1.94051E-09 -1.97870E-09 -2.01552E-09 -2.05103E-09 -2.08527E-09 -2.11828E-09 -2.15011E-09 -2.18081E-09 -2.21042E-09 -2.23899E-09
  -2.26655E-09 -2.29317E-09 -2.31887E-09 -2.34371E-09 -2.36774E-09 -2.39098E-09 -2.41350E-09 -2.43532E-09 -2.45650E-09 -2.47708E-09
  -2.49710E-09 -2.51660E-09 -2.53564E-09 -2.55423E-09 -2.57244E-09 -2.59028E-09 -2.60783E-09 -2.62510E-09 -2.64213E-09 -2.65897E-09
  -2.67566E-09 -2.69223E-09 -2.70871E-09 -2.72515E-09 -2.74158E-09 -2.75804E-09 -2.77455E-09 -2.79116E-09 -2.80789E-09 -2.82478E-09
  -2.84186E-09 -2.85915E-09 -2.87670E-09 -2.89450E-09 -2.91254E-09 -2.93079E-09 -2.94925E-09 -2.96790E-09 -2.98671E-09 -3.00567E-09
  -3.02477E-09 -3.04398E-09 -3.06328E-09 -3.08267E-09 -3.10211E-09 -3.12160E-09 -3.14111E-09 -3.16063E-09 -3.18014E-09 -3.19963E-09
  -3.21906E-09 -3.23843E-09 -3.25772E-09 -3.27691E-09 -3.29599E-09 -3.31492E-09 -3.33370E-09 -3.35232E-09 -3.37074E-09 -3.38896E-09
  -3.40696E-09 -3.42471E-09 -3.44220E-09 -3.45942E-09 -3.47635E-09 -3.49296E-09 -3.50924E-09 -3.52519E-09 -3.54076E-09 -3.55596E-09
  -3.57076E-09 -3.58515E-09 -3.59911E-09 -3.61262E-09 -3.62567E-09 -3.63824E-09 -3.65031E-09 -3.66187E-09 -3.67290E-09 -3.68338E-09
  -3.69330E-09 -3.70263E-09 -3.71135E-09 -3.71945E-09 -3.72690E-09 -3.73369E-09 -3.73981E-09 -3.74523E-09 -3.74993E-09 -3.75390E-09
  -3.75713E-09 -3.75959E-09 -3.76128E-09 -3.76216E-09 -3.76224E-09 -3.76149E-09 -3.75990E-09 -3.75746E-09 -3.75414E-09 -3.74995E-09
  -3.74485E-09 -3.73885E-09 -3.73193E-09 -3.72407E-09 -3.71526E-09 -3.70550E-09 -3.69477E-09 -3.68306E-09 -3.67035E-09 -3.65665E-09
  -3.64194E-09 -3.62620E-09 -3.60944E-09 -3.59164E-09 -3.57280E-09 -3.55290E-09 -3.53194E-09 -3.50991E-09 -3.48681E-09 -3.46263E-09
  -3.43736E-09 -3.41100E-09 -3.38354E-09
 Asp      Conc. = 3.17E-09
   3.14874E-09  2.51785E-09  1.99011E-09  1.98005E-09  1.81608E-09  1.69394E-09  1.73748E-09  1.46495E-09  1.74436E-09  2.05116E-09
   2.31716E-09  2.54853E-09  2.75539E-09  2.94693E-09  3.12492E-09  3.28441E-09  3.43475E-09  3.57832E-09  3.71658E-09  3.85072E-09
   3.98174E-09  4.11050E-09  4.23779E-09  4.36440E-09  4.49106E-09  4.61855E-09  4.74770E-09  4.87943E-09  5.01484E-09  5.15522E-09
   5.30218E-09  5.45784E-09  5.62504E-09  5.80783E-09  6.01225E-09  6.24786E-09  6.52784E-09  6.79647E-09  6.95134E-09  7.03163E-09
   7.07056E-09  7.21412E-09  7.52132E-09  8.07136E-09  8.44180E-09  9.01782E-09  8.85654E-09  8.21176E-09  7.84401E-09  8.01495E-09
   7.93360E-09  7.83428E-09  7.73839E-09  7.22329E-09  6.26466E-09  5.52101E-09  4.31216E-09  4.53112E-09  4.98969E-09  4.77296E-09
   4.15309E-09  4.27187E-09  4.25949E-09  4.13681E-09  4.44434E-09  4.66070E-09  4.47720E-09  4.36722E-09  4.40148E-09  4.46700E-09
   4.53918E-09  4.61091E-09  4.67979E-09  4.74503E-09  4.80643E-09  4.86407E-09  4.91810E-09  4.96874E-09  5.01617E-09  5.06060E-09
   5.10222E-09  5.14119E-09  5.17766E-09  5.21177E-09  5.24362E-09  5.27335E-09  5.30105E-09  5.32680E-09  5.35068E-09  5.37278E-09
   5.39315E-09  5.41183E-09  5.42890E-09  5.44440E-09  5.45834E-09  5.47079E-09  5.48175E-09  5.49124E-09  5.49930E-09  5.50595E-09
   5.51119E-09  5.51505E-09  5.51755E-09  5.51868E-09  5.51846E-09  5.51690E-09  5.51401E-09  5.50978E-09  5.50423E-09  5.49737E-09
   5.48919E-09  5.47969E-09  5.46889E-09  5.45676E-09  5.44332E-09  5.42855E-09  5.41250E-09  5.39513E-09  5.37642E-09  5.35640E-09
   5.33505E-09  5.31238E-09  5.28838E-09  5.26304E-09  5.23639E-09  5.20839E-09  5.17906E-09  5.14840E-09  5.11640E-09  5.08303E-09
   5.04833E-09  5.01228E-09  4.97491E-09  4.93618E-09  4.89610E-09  4.85471E-09  4.81197E-09  4.76790E-09  4.72256E-09  4.67600E-09
   4.62824E-09  4.57934E-09  4.52937E-09  4.47836E-09  4.42640E-09  4.37355E-09  4.31989E-09  4.26550E-09  4.21048E-09  4.15495E-09
   4.09904E-09  4.04288E-09  3.98669E-09  3.93066E-09  3.87506E-09  3.82026E-09  3.76669E-09  3.71492E-09  3.66576E-09  3.62030E-09
   3.58022E-09  3.54798E-09  3.52768E-09  3.52656E-09  3.55894E-09  3.65802E-09  3.92345E-09  4.79556E-09  6.53790E-09  7.20796E-09
   7.20894E-09  7.17142E-09  7.19989E-09  7.12705E-09  6.92167E-09  6.84821E-09  7.04428E-09  7.07579E-09  5.50117E-09  2.50105E-09
   1.81716E-09  1.57084E-09  1.42952E-09  1.32406E-09  1.23355E-09  1.15006E-09  1.07015E-09  9.92166E-10  9.15287E-10  8.39065E-10
   7.63294E-10  6.87841E-10  6.12694E-10  5.37819E-10  4.63243E-10  3.88990E-10  3.15106E-10  2.41621E-10  1.68587E-10  9.60406E-11
   2.40343E-11 -4.73867E-11 -1.18182E-10 -1.88300E-10 -2.57702E-10 -3.26352E-10 -3.94200E-10 -4.61206E-10 -5.27330E-10 -5.92528E-10
  -6.56763E-10 -7.19996E-10 -7.82199E-10 -8.43335E-10 -9.03344E-10 -9.62212E-10 -1.01990E-09 -1.07638E-09 -1.13161E-09 -1.18554E-09
  -1.23818E-09 -1.28947E-09 -1.33937E-09 -1.38788E-09 -1.43496E-09 -1.48055E-09 -1.52467E-09 -1.56727E-09 -1.60838E-09 -1.64803E-09
