 LCModel (Version 6.3-1R) Copyright: S.W. Provencher.          Ref.: Magn. Reson. Med. 30:672-679 (1993).                
 onepulse 11x16_ftSpec_smooth_lcm
 26 lines in following concentration table = NCONC+1
    Conc.  %SD /Cr+PCr  Metabolite                                         
 6.78E-11 449%   0.711 Ala                                                 
 2.66E-09  22%  27.928 Asp                                                 
 9.54E-11 315%   1.000 Cr                                                  
 2.71E-09  21%  28.419 GABA                                                
 1.64E-09  37%  17.175 Glc                                                 
    0.000 999%   0.000 Gln                                                 
    0.000 999%   0.000 Glu                                                 
    0.000 999%   0.000 Glyc                                                
 1.84E-10  45%   1.933 GPC                                                 
    0.000 999%   0.000 GSH                                                 
 5.31E-10  76%   5.562 Ins                                                 
    0.000 999%   0.000 Lac                                                 
    0.000 999%   0.000 NAAG                                                
 7.71E-10  29%   8.082 NAA                                                 
    0.000 999%   0.000 PCh                                                 
    0.000 999%   0.000 PCr                                                 
    0.000 999%   0.000 PE                                                  
 4.47E-11 369%   0.469 Scyllo                                              
    0.000 999%   0.000 Ser                                                 
    0.000 999%   0.000 Tau                                                 
 1.84E-10  45%   1.933 GPC+PCh                                             
 7.71E-10  29%   8.082 NAA+NAAG                                            
 5.31E-10  76%   5.562 Ins+Glyc                                            
 9.54E-11 315%   1.000 Cr+PCr                                              
    0.000 999%   0.000 Glu+Gln                                             
   6 lines in following misc. output table
  FWHM = 0.101 ppm    S/N =   3                                            
  Data shift = 0.369 ppm                                                   
  Ph:  74 deg      -4.3 deg/ppm                                            
  alphaB,S = 6.5E-01,   2.8E+01                                            
    8 spline knots.   Ns = 5(1)                                            
  (10) 3 infls.   ( 9) 1 extrs.                                            
  363 points on ppm-axis = NY
      4.250000     4.238821     4.227641     4.216462     4.205282     4.194103     4.182923     4.171744     4.160564     4.149385
      4.138206     4.127026     4.115847     4.104667     4.093488     4.082308     4.071129     4.059949     4.048770     4.037591
      4.026411     4.015232     4.004052     3.992873     3.981693     3.970514     3.959334     3.948155     3.936975     3.925796
      3.914617     3.903437     3.892258     3.881078     3.869899     3.858719     3.847540     3.836360     3.825181     3.814002
      3.802822     3.791643     3.780463     3.769284     3.758104     3.746925     3.735745     3.724566     3.713387     3.702207
      3.691028     3.679848     3.668669     3.657489     3.646310     3.635130     3.623951     3.612772     3.601592     3.590413
      3.579233     3.568054     3.556874     3.545695     3.534515     3.523336     3.512156     3.500977     3.489798     3.478618
      3.467439     3.456259     3.445080     3.433900     3.422721     3.411541     3.400362     3.389183     3.378003     3.366824
      3.355644     3.344465     3.333285     3.322106     3.310926     3.299747     3.288568     3.277388     3.266209     3.255029
      3.243850     3.232670     3.221491     3.210311     3.199132     3.187953     3.176773     3.165594     3.154414     3.143235
      3.132055     3.120876     3.109696     3.098517     3.087337     3.076158     3.064979     3.053799     3.042620     3.031440
      3.020261     3.009081     2.997902     2.986722     2.975543     2.964364     2.953184     2.942005     2.930825     2.919646
      2.908466     2.897287     2.886107     2.874928     2.863749     2.852569     2.841390     2.830210     2.819031     2.807851
      2.796672     2.785492     2.774313     2.763134     2.751954     2.740775     2.729595     2.718416     2.707236     2.696057
      2.684877     2.673698     2.662519     2.651339     2.640160     2.628980     2.617801     2.606621     2.595442     2.584262
      2.573083     2.561903     2.550724     2.539545     2.528365     2.517186     2.506006     2.494827     2.483647     2.472468
      2.461288     2.450109     2.438930     2.427750     2.416571     2.405391     2.394212     2.383032     2.371853     2.360673
      2.349494     2.338315     2.327135     2.315956     2.304776     2.293597     2.282417     2.271238     2.260058     2.248879
      2.237700     2.226520     2.215341     2.204161     2.192982     2.181802     2.170623     2.159443     2.148264     2.137084
      2.125905     2.114726     2.103546     2.092367     2.081187     2.070008     2.058828     2.047649     2.036469     2.025290
      2.014111     2.002931     1.991752     1.980572     1.969393     1.958213     1.947034     1.935854     1.924675     1.913496
      1.902316     1.891137     1.879957     1.868778     1.857598     1.846419     1.835239     1.824060     1.812881     1.801701
      1.790522     1.779342     1.768163     1.756983     1.745804     1.734624     1.723445     1.712265     1.701086     1.689907
      1.678727     1.667548     1.656368     1.645189     1.634009     1.622830     1.611650     1.600471     1.589292     1.578112
      1.566933     1.555753     1.544574     1.533394     1.522215     1.511035     1.499856     1.488677     1.477497     1.466318
      1.455138     1.443959     1.432779     1.421600     1.410420     1.399241     1.388062     1.376882     1.365703     1.354523
      1.343344     1.332164     1.320985     1.309805     1.298626     1.287446     1.276267     1.265088     1.253908     1.242729
      1.231549     1.220370     1.209190     1.198011     1.186831     1.175652     1.164473     1.153293     1.142114     1.130934
      1.119755     1.108575     1.097396     1.086216     1.075037     1.063858     1.052678     1.041499     1.030319     1.019140
      1.007960     0.996781     0.985601     0.974422     0.963243     0.952063     0.940884     0.929704     0.918525     0.907345
      0.896166     0.884986     0.873807     0.862628     0.851448     0.840269     0.829089     0.817910     0.806730     0.795551
      0.784371     0.773192     0.762012     0.750833     0.739654     0.728474     0.717295     0.706115     0.694936     0.683756
      0.672577     0.661397     0.650218     0.639039     0.627859     0.616680     0.605500     0.594321     0.583141     0.571962
      0.560782     0.549603     0.538424     0.527244     0.516065     0.504885     0.493706     0.482526     0.471347     0.460167
      0.448988     0.437809     0.426629     0.415450     0.404270     0.393091     0.381911     0.370732     0.359552     0.348373
      0.337193     0.326014     0.314835     0.303655     0.292476     0.281296     0.270117     0.258937     0.247758     0.236578
      0.225399     0.214220     0.203040
 NY phased data points follow
   1.48140E-08  1.50371E-08  1.40845E-08  1.35645E-08  1.27500E-08  1.25474E-08  1.19915E-08  1.24075E-08  1.18572E-08  1.16648E-08
   1.22778E-08  1.22917E-08  1.24441E-08  1.24293E-08  1.24160E-08  1.29021E-08  1.28724E-08  1.23014E-08  1.18034E-08  1.19922E-08
   1.18415E-08  1.17835E-08  1.15972E-08  1.16099E-08  1.19806E-08  1.20459E-08  1.13740E-08  1.13509E-08  1.16642E-08  1.18039E-08
   1.22192E-08  1.29796E-08  1.30686E-08  1.31997E-08  1.31827E-08  1.25127E-08  1.22194E-08  1.13276E-08  1.17102E-08  1.09448E-08
   1.12559E-08  1.03902E-08  1.07321E-08  1.05370E-08  1.05985E-08  1.00122E-08  1.01274E-08  9.21569E-09  9.65768E-09  9.28376E-09
   9.14470E-09  9.37982E-09  9.48939E-09  8.52131E-09  8.81962E-09  8.59096E-09  8.34202E-09  8.52887E-09  8.33160E-09  8.20831E-09
   9.38318E-09  9.37578E-09  1.14301E-08  1.14501E-08  1.26414E-08  1.15561E-08  1.19538E-08  1.11836E-08  1.09212E-08  9.87284E-09
   1.03061E-08  8.98666E-09  9.43393E-09  8.61433E-09  8.35091E-09  7.64274E-09  8.48555E-09  9.04520E-09  1.10042E-08  1.15532E-08
   1.41738E-08  1.35864E-08  1.46669E-08  1.29728E-08  1.40833E-08  1.29513E-08  1.40748E-08  1.21589E-08  1.29093E-08  1.20729E-08
   1.28326E-08  1.17051E-08  1.24233E-08  1.09087E-08  1.14345E-08  1.03414E-08  1.06892E-08  9.91886E-09  1.01966E-08  8.57537E-09
   9.93402E-09  8.85756E-09  9.75065E-09  9.25346E-09  9.06765E-09  8.51241E-09  9.18925E-09  7.65917E-09  8.09080E-09  7.49841E-09
   7.61291E-09  6.93166E-09  7.77015E-09  6.69897E-09  7.93502E-09  7.03497E-09  7.82107E-09  6.87348E-09  8.15307E-09  7.07873E-09
   7.72073E-09  6.93816E-09  7.75869E-09  6.22135E-09  6.96952E-09  5.56171E-09  7.14582E-09  5.81496E-09  7.10162E-09  6.18070E-09
   6.78765E-09  6.28422E-09  7.52138E-09  6.83714E-09  7.63146E-09  6.84870E-09  7.89302E-09  7.20786E-09  8.37137E-09  8.04076E-09
   9.36902E-09  8.68719E-09  9.95868E-09  8.51345E-09  1.02403E-08  1.01189E-08  1.11775E-08  9.99621E-09  1.17459E-08  1.08026E-08
   1.13813E-08  1.05945E-08  1.13778E-08  1.11168E-08  1.18852E-08  1.04175E-08  1.17617E-08  1.06057E-08  1.21575E-08  1.09067E-08
   1.21810E-08  1.05736E-08  1.22570E-08  1.12279E-08  1.17610E-08  1.08206E-08  1.18731E-08  1.10909E-08  1.23020E-08  1.24653E-08
   1.55099E-08  1.70696E-08  1.93613E-08  1.84620E-08  1.96753E-08  1.88314E-08  1.88629E-08  1.76214E-08  1.75819E-08  1.62627E-08
   1.59095E-08  1.41742E-08  1.33736E-08  1.12228E-08  1.07217E-08  7.20770E-09  6.85379E-09  4.10603E-09  2.54650E-09 -4.56435E-10
  -1.89603E-09 -4.10449E-09 -5.89106E-09 -7.53675E-09 -8.37023E-09 -9.92356E-09 -1.06830E-08 -1.16137E-08 -1.17626E-08 -1.19000E-08
  -1.06720E-08 -1.06802E-08 -9.68013E-09 -9.24899E-09 -7.89086E-09 -7.30488E-09 -6.15175E-09 -5.67640E-09 -5.22389E-09 -4.61086E-09
  -4.06673E-09 -3.86849E-09 -3.55372E-09 -3.65082E-09 -3.78623E-09 -3.60056E-09 -3.35913E-09 -2.85115E-09 -3.17141E-09 -3.12590E-09
  -2.43042E-09 -2.70889E-09 -2.31725E-09 -2.37388E-09 -2.33783E-09 -1.88281E-09 -2.24441E-09 -2.37941E-09 -2.53686E-09 -1.65553E-09
  -2.39158E-09 -2.12694E-09 -1.91317E-09 -1.77356E-09 -1.49297E-09 -1.72364E-09 -1.68013E-09 -2.01964E-09 -1.73882E-09 -2.10021E-09
  -2.17205E-09 -1.80472E-09 -2.13915E-09 -2.30883E-09 -1.70284E-09 -1.97492E-09 -2.29074E-09 -1.96407E-09 -2.02217E-09 -1.85489E-09
  -1.84160E-09 -1.60731E-09 -1.73541E-09 -1.32318E-09 -1.32990E-09 -1.93160E-09 -1.41635E-09 -1.38939E-09 -1.95107E-09 -2.16607E-09
  -2.01693E-09 -2.26845E-09 -2.40971E-09 -2.55400E-09 -2.67606E-09 -2.21031E-09 -2.74957E-09 -2.77341E-09 -2.60649E-09 -2.33248E-09
  -2.74407E-09 -2.37165E-09 -2.81134E-09 -2.11199E-09 -2.05925E-09 -1.41242E-09 -1.31875E-09 -1.19845E-09 -1.64249E-09 -1.32281E-09
  -1.34301E-09 -1.29969E-09 -1.30065E-09 -7.54633E-10 -1.62090E-09 -1.15220E-09 -1.41301E-09 -1.47363E-09 -1.18541E-09 -1.69607E-09
  -1.48140E-09 -1.56521E-09 -1.55669E-09 -1.84634E-09 -1.61944E-09 -1.51901E-09 -1.38271E-09 -2.18024E-09 -1.82924E-09 -1.78466E-09
  -1.85460E-09 -2.39185E-09 -1.85753E-09 -2.38082E-09 -2.16111E-09 -2.31622E-09 -2.27324E-09 -2.81149E-09 -2.48966E-09 -2.70279E-09
  -2.03773E-09 -2.92073E-09 -2.54954E-09 -2.95553E-09 -2.60058E-09 -2.29594E-09 -2.83303E-09 -2.99878E-09 -2.52119E-09 -3.25031E-09
  -3.49846E-09 -3.17373E-09 -2.72540E-09 -3.43936E-09 -3.36727E-09 -3.44679E-09 -2.56258E-09 -3.35307E-09 -3.04062E-09 -3.28632E-09
  -2.99623E-09 -3.68689E-09 -2.90023E-09 -3.24352E-09 -3.72245E-09 -4.19332E-09 -3.58956E-09 -3.90988E-09 -3.89967E-09 -3.73138E-09
  -3.35402E-09 -3.83039E-09 -3.81645E-09 -4.20944E-09 -3.65910E-09 -4.03223E-09 -3.65070E-09 -4.56096E-09 -3.74449E-09 -4.23292E-09
  -3.47586E-09 -4.01409E-09 -4.23369E-09 -4.42678E-09 -3.73489E-09 -4.25432E-09 -4.17281E-09 -4.94242E-09 -4.25373E-09 -4.76348E-09
  -4.46357E-09 -4.15619E-09 -4.19081E-09
 NY points of the fit to the data follow
   1.49956E-08  1.41778E-08  1.35471E-08  1.31757E-08  1.29540E-08  1.25370E-08  1.20917E-08  1.17669E-08  1.16320E-08  1.17293E-08
   1.19575E-08  1.22188E-08  1.25494E-08  1.28983E-08  1.29944E-08  1.29236E-08  1.29456E-08  1.28284E-08  1.23480E-08  1.19837E-08
   1.18858E-08  1.18408E-08  1.16911E-08  1.16945E-08  1.13706E-08  1.10898E-08  1.13539E-08  1.16753E-08  1.19974E-08  1.24788E-08
   1.27687E-08  1.28463E-08  1.28683E-08  1.22992E-08  1.14456E-08  1.18371E-08  1.23194E-08  1.24254E-08  1.22156E-08  1.16942E-08
   1.10779E-08  1.06518E-08  9.85886E-09  9.01290E-09  9.20777E-09  9.73159E-09  9.46878E-09  9.30033E-09  9.57495E-09  9.99668E-09
   1.04743E-08  1.07579E-08  1.07465E-08  1.02411E-08  9.42806E-09  8.86686E-09  8.55060E-09  9.05424E-09  9.29685E-09  9.15924E-09
   9.20028E-09  9.58161E-09  1.01934E-08  1.07236E-08  1.14628E-08  1.22324E-08  1.23596E-08  1.23440E-08  1.24590E-08  1.24979E-08
   1.22963E-08  1.17111E-08  1.08799E-08  1.02498E-08  1.00387E-08  9.27538E-09  8.84009E-09  1.00860E-08  1.08526E-08  1.11054E-08
   1.16455E-08  1.20572E-08  1.23678E-08  1.28598E-08  1.32187E-08  1.31894E-08  1.27436E-08  1.15351E-08  1.01737E-08  1.02604E-08
   1.03609E-08  1.04419E-08  1.06159E-08  1.03005E-08  9.72036E-09  9.72778E-09  9.53035E-09  8.93521E-09  8.76771E-09  8.73111E-09
   8.59314E-09  8.53832E-09  8.55251E-09  8.61109E-09  8.67573E-09  8.73605E-09  8.79255E-09  8.84312E-09  8.87654E-09  8.88303E-09
   8.86907E-09  8.86823E-09  8.89846E-09  8.88582E-09  8.86407E-09  8.88502E-09  8.91259E-09  8.93947E-09  8.96387E-09  8.98518E-09
   9.00308E-09  9.01753E-09  9.02840E-09  9.03562E-09  9.03913E-09  9.03888E-09  9.03479E-09  9.02688E-09  9.01509E-09  8.99938E-09
   8.97970E-09  8.95600E-09  8.92829E-09  8.89649E-09  8.86059E-09  8.82051E-09  8.77629E-09  8.72781E-09  8.67506E-09  8.61800E-09
   8.55664E-09  8.49095E-09  8.42090E-09  8.34646E-09  8.26762E-09  8.18439E-09  8.09684E-09  8.00518E-09  7.90964E-09  7.81045E-09
   7.70789E-09  7.60230E-09  7.49401E-09  7.38350E-09  7.27127E-09  7.15797E-09  7.04443E-09  6.93174E-09  6.82141E-09  6.71553E-09
   6.61727E-09  6.53167E-09  6.46721E-09  6.43982E-09  6.48364E-09  6.68925E-09  7.40176E-09  9.98263E-09  1.29559E-08  1.52533E-08
   1.70308E-08  1.84089E-08  1.93828E-08  2.00324E-08  2.06629E-08  2.09832E-08  1.97509E-08  1.53889E-08  8.61266E-09  5.11847E-09
   4.00334E-09  3.42784E-09  3.03982E-09  2.73653E-09  2.47807E-09  2.24605E-09  2.03096E-09  1.82746E-09  1.63231E-09  1.44357E-09
   1.26000E-09  1.08073E-09  9.05252E-10  7.33205E-10  5.64401E-10  3.98669E-10  2.35931E-10  7.62189E-11 -8.04840E-11 -2.34165E-10
  -3.84741E-10 -5.32151E-10 -6.76306E-10 -8.17130E-10 -9.54531E-10 -1.08838E-09 -1.21860E-09 -1.34509E-09 -1.46773E-09 -1.58638E-09
  -1.70100E-09 -1.81142E-09 -1.91754E-09 -2.01926E-09 -2.11649E-09 -2.20906E-09 -2.29690E-09 -2.37993E-09 -2.45799E-09 -2.53119E-09
  -2.59961E-09 -2.66341E-09 -2.72265E-09 -2.77749E-09 -2.82800E-09 -2.87435E-09 -2.91663E-09 -2.95494E-09 -2.98942E-09 -3.02017E-09
  -3.04732E-09 -3.07097E-09 -3.09125E-09 -3.10826E-09 -3.12213E-09 -3.13296E-09 -3.14087E-09 -3.14597E-09 -3.14839E-09 -3.14822E-09
  -3.14559E-09 -3.14062E-09 -3.13340E-09 -3.12405E-09 -3.11267E-09 -3.09939E-09 -3.08432E-09 -3.06757E-09 -3.04923E-09 -3.02942E-09
  -3.00827E-09 -2.98583E-09 -2.96229E-09 -2.93766E-09 -2.91210E-09 -2.88573E-09 -2.85862E-09 -2.83087E-09 -2.80260E-09 -2.77389E-09
  -2.74485E-09 -2.71561E-09 -2.68622E-09 -2.65681E-09 -2.62744E-09 -2.59823E-09 -2.56928E-09 -2.54064E-09 -2.51245E-09 -2.48478E-09
  -2.45771E-09 -2.43132E-09 -2.40573E-09 -2.38097E-09 -2.35719E-09 -2.33441E-09 -2.31275E-09 -2.29228E-09 -2.27304E-09 -2.25515E-09
  -2.23869E-09 -2.22369E-09 -2.21027E-09 -2.19844E-09 -2.18831E-09 -2.17994E-09 -2.17340E-09 -2.16869E-09 -2.16596E-09 -2.16523E-09
  -2.16653E-09 -2.16990E-09 -2.17527E-09 -2.18255E-09 -2.19168E-09 -2.20261E-09 -2.21524E-09 -2.22952E-09 -2.24538E-09 -2.26275E-09
  -2.28156E-09 -2.30174E-09 -2.32324E-09 -2.34598E-09 -2.36990E-09 -2.39492E-09 -2.42100E-09 -2.44807E-09 -2.47605E-09 -2.50489E-09
  -2.53452E-09 -2.56488E-09 -2.59593E-09 -2.62757E-09 -2.65977E-09 -2.69246E-09 -2.72558E-09 -2.75907E-09 -2.79288E-09 -2.82695E-09
  -2.86122E-09 -2.89562E-09 -2.93013E-09 -2.96468E-09 -2.99920E-09 -3.03364E-09 -3.06798E-09 -3.10214E-09 -3.13608E-09 -3.16974E-09
  -3.20308E-09 -3.23606E-09 -3.26860E-09 -3.30069E-09 -3.33227E-09 -3.36329E-09 -3.39372E-09 -3.42350E-09 -3.45261E-09 -3.48097E-09
  -3.50859E-09 -3.53539E-09 -3.56135E-09 -3.58644E-09 -3.61059E-09 -3.63381E-09 -3.65603E-09 -3.67724E-09 -3.69738E-09 -3.71645E-09
  -3.73440E-09 -3.75121E-09 -3.76684E-09 -3.78126E-09 -3.79447E-09 -3.80641E-09 -3.81709E-09 -3.82646E-09 -3.83451E-09 -3.84121E-09
  -3.84655E-09 -3.85051E-09 -3.85307E-09
 NY background values follow
     5.010E-09    5.052E-09    5.094E-09    5.136E-09    5.178E-09    5.219E-09    5.261E-09    5.301E-09    5.342E-09    5.383E-09
     5.423E-09    5.463E-09    5.502E-09    5.542E-09    5.581E-09    5.620E-09    5.659E-09    5.697E-09    5.736E-09    5.774E-09
     5.812E-09    5.850E-09    5.887E-09    5.925E-09    5.962E-09    5.999E-09    6.036E-09    6.073E-09    6.109E-09    6.146E-09
     6.182E-09    6.218E-09    6.254E-09    6.290E-09    6.326E-09    6.362E-09    6.398E-09    6.433E-09    6.469E-09    6.505E-09
     6.540E-09    6.575E-09    6.611E-09    6.646E-09    6.682E-09    6.717E-09    6.752E-09    6.788E-09    6.823E-09    6.859E-09
     6.894E-09    6.930E-09    6.965E-09    7.001E-09    7.037E-09    7.073E-09    7.109E-09    7.145E-09    7.181E-09    7.218E-09
     7.254E-09    7.291E-09    7.328E-09    7.365E-09    7.402E-09    7.440E-09    7.478E-09    7.516E-09    7.554E-09    7.592E-09
     7.631E-09    7.670E-09    7.710E-09    7.749E-09    7.789E-09    7.829E-09    7.870E-09    7.910E-09    7.951E-09    7.991E-09
     8.032E-09    8.072E-09    8.112E-09    8.153E-09    8.192E-09    8.232E-09    8.271E-09    8.309E-09    8.348E-09    8.385E-09
     8.422E-09    8.458E-09    8.494E-09    8.528E-09    8.562E-09    8.595E-09    8.626E-09    8.657E-09    8.686E-09    8.715E-09
     8.742E-09    8.767E-09    8.791E-09    8.814E-09    8.835E-09    8.854E-09    8.872E-09    8.888E-09    8.902E-09    8.914E-09
     8.924E-09    8.932E-09    8.938E-09    8.942E-09    8.944E-09    8.943E-09    8.939E-09    8.934E-09    8.925E-09    8.914E-09
     8.901E-09    8.884E-09    8.865E-09    8.842E-09    8.817E-09    8.789E-09    8.757E-09    8.722E-09    8.684E-09    8.643E-09
     8.598E-09    8.550E-09    8.498E-09    8.442E-09    8.383E-09    8.320E-09    8.253E-09    8.182E-09    8.107E-09    8.029E-09
     7.946E-09    7.858E-09    7.767E-09    7.671E-09    7.571E-09    7.466E-09    7.357E-09    7.243E-09    7.125E-09    7.004E-09
     6.878E-09    6.748E-09    6.614E-09    6.477E-09    6.336E-09    6.192E-09    6.045E-09    5.894E-09    5.741E-09    5.585E-09
     5.426E-09    5.264E-09    5.100E-09    4.934E-09    4.766E-09    4.595E-09    4.423E-09    4.249E-09    4.073E-09    3.896E-09
     3.717E-09    3.538E-09    3.357E-09    3.175E-09    2.993E-09    2.810E-09    2.626E-09    2.442E-09    2.258E-09    2.074E-09
     1.890E-09    1.706E-09    1.522E-09    1.339E-09    1.157E-09    9.749E-10    7.942E-10    6.145E-10    4.360E-10    2.588E-10
     8.314E-11   -9.095E-11   -2.633E-10   -4.338E-10   -6.022E-10   -7.685E-10   -9.325E-10   -1.094E-09   -1.253E-09   -1.409E-09
    -1.563E-09   -1.713E-09   -1.861E-09   -2.005E-09   -2.146E-09   -2.283E-09   -2.417E-09   -2.547E-09   -2.673E-09   -2.796E-09
    -2.914E-09   -3.028E-09   -3.137E-09   -3.243E-09   -3.343E-09   -3.439E-09   -3.530E-09   -3.617E-09   -3.698E-09   -3.774E-09
    -3.845E-09   -3.912E-09   -3.974E-09   -4.032E-09   -4.085E-09   -4.134E-09   -4.179E-09   -4.220E-09   -4.257E-09   -4.290E-09
    -4.319E-09   -4.345E-09   -4.367E-09   -4.386E-09   -4.402E-09   -4.415E-09   -4.425E-09   -4.431E-09   -4.435E-09   -4.437E-09
    -4.436E-09   -4.432E-09   -4.426E-09   -4.418E-09   -4.408E-09   -4.396E-09   -4.382E-09   -4.366E-09   -4.348E-09   -4.329E-09
    -4.309E-09   -4.287E-09   -4.264E-09   -4.240E-09   -4.215E-09   -4.189E-09   -4.162E-09   -4.134E-09   -4.106E-09   -4.078E-09
    -4.049E-09   -4.019E-09   -3.990E-09   -3.960E-09   -3.931E-09   -3.901E-09   -3.872E-09   -3.843E-09   -3.814E-09   -3.786E-09
    -3.758E-09   -3.731E-09   -3.705E-09   -3.679E-09   -3.654E-09   -3.631E-09   -3.608E-09   -3.586E-09   -3.566E-09   -3.547E-09
    -3.529E-09   -3.513E-09   -3.498E-09   -3.485E-09   -3.473E-09   -3.463E-09   -3.455E-09   -3.449E-09   -3.444E-09   -3.442E-09
    -3.441E-09   -3.443E-09   -3.446E-09   -3.451E-09   -3.458E-09   -3.467E-09   -3.478E-09   -3.490E-09   -3.503E-09   -3.518E-09
    -3.535E-09   -3.553E-09   -3.572E-09   -3.592E-09   -3.613E-09   -3.636E-09   -3.659E-09   -3.684E-09   -3.709E-09   -3.735E-09
    -3.762E-09   -3.789E-09   -3.817E-09   -3.846E-09   -3.875E-09   -3.905E-09   -3.934E-09   -3.965E-09   -3.995E-09   -4.026E-09
    -4.057E-09   -4.088E-09   -4.119E-09   -4.150E-09   -4.181E-09   -4.212E-09   -4.243E-09   -4.274E-09   -4.304E-09   -4.334E-09
    -4.364E-09   -4.393E-09   -4.421E-09   -4.450E-09   -4.477E-09   -4.504E-09   -4.531E-09   -4.557E-09   -4.582E-09   -4.606E-09
    -4.630E-09   -4.652E-09   -4.674E-09   -4.695E-09   -4.715E-09   -4.734E-09   -4.752E-09   -4.768E-09   -4.784E-09   -4.799E-09
    -4.812E-09   -4.824E-09   -4.836E-09   -4.845E-09   -4.854E-09   -4.861E-09   -4.867E-09   -4.872E-09   -4.875E-09   -4.877E-09
    -4.878E-09   -4.877E-09   -4.875E-09
 Ala      Conc. = 6.78E-11
   5.06848E-09  5.10850E-09  5.14783E-09  5.18633E-09  5.22380E-09  5.26011E-09  5.29169E-09  5.32313E-09  5.36329E-09  5.39751E-09
   5.42557E-09  5.46483E-09  5.50472E-09  5.54023E-09  5.57854E-09  5.61814E-09  5.65784E-09  5.69738E-09  5.73667E-09  5.77570E-09
   5.81446E-09  5.85298E-09  5.89125E-09  5.92930E-09  5.96712E-09  6.00474E-09  6.04217E-09  6.07941E-09  6.11649E-09  6.15340E-09
   6.19016E-09  6.22678E-09  6.26325E-09  6.29962E-09  6.33586E-09  6.37202E-09  6.40807E-09  6.44403E-09  6.47994E-09  6.51576E-09
   6.55154E-09  6.58726E-09  6.62297E-09  6.65863E-09  6.69429E-09  6.72994E-09  6.76561E-09  6.80128E-09  6.83697E-09  6.87272E-09
   6.90851E-09  6.94436E-09  6.98027E-09  7.01627E-09  7.05238E-09  7.08857E-09  7.12488E-09  7.16134E-09  7.19789E-09  7.23462E-09
   7.27152E-09  7.30858E-09  7.34583E-09  7.38327E-09  7.42095E-09  7.45883E-09  7.49696E-09  7.53532E-09  7.57395E-09  7.61286E-09
   7.65205E-09  7.69155E-09  7.73138E-09  7.77151E-09  7.81197E-09  7.85269E-09  7.89361E-09  7.93470E-09  7.97590E-09  8.01717E-09
   8.05844E-09  8.09968E-09  8.14084E-09  8.18186E-09  8.22270E-09  8.26333E-09  8.30368E-09  8.34374E-09  8.38347E-09  8.42284E-09
   8.46184E-09  8.50049E-09  8.53879E-09  8.57686E-09  8.61480E-09  8.65286E-09  8.69155E-09  8.73182E-09  8.77590E-09  8.83021E-09
   8.89499E-09  8.94412E-09  8.99217E-09  9.05167E-09  9.09998E-09  9.13475E-09  9.16060E-09  9.17734E-09  9.17495E-09  9.14449E-09
   9.09314E-09  9.05555E-09  9.04968E-09  9.00158E-09  8.94502E-09  8.93165E-09  8.92540E-09  8.91931E-09  8.91156E-09  8.90154E-09
   8.88887E-09  8.87344E-09  8.85510E-09  8.83379E-09  8.80942E-09  8.78190E-09  8.75115E-09  8.71717E-09  8.67983E-09  8.63909E-09
   8.59487E-09  8.54710E-09  8.49573E-09  8.44068E-09  8.38189E-09  8.31926E-09  8.25279E-09  8.18234E-09  8.10790E-09  8.02935E-09
   7.94667E-09  7.85977E-09  7.76859E-09  7.67305E-09  7.57311E-09  7.46869E-09  7.35978E-09  7.24649E-09  7.12894E-09  7.00726E-09
   6.88157E-09  6.75200E-09  6.61867E-09  6.48172E-09  6.34128E-09  6.19749E-09  6.05048E-09  5.90038E-09  5.74736E-09  5.59154E-09
   5.43309E-09  5.27220E-09  5.10907E-09  4.94399E-09  4.77745E-09  4.61060E-09  4.44828E-09  4.30072E-09  4.14890E-09  3.98968E-09
   3.82583E-09  3.65767E-09  3.48531E-09  3.31005E-09  3.13443E-09  2.95360E-09  2.75538E-09  2.52890E-09  2.29145E-09  2.09326E-09
   1.90425E-09  1.71801E-09  1.53311E-09  1.34923E-09  1.16626E-09  9.84220E-10  8.03211E-10  6.23361E-10  4.44722E-10  2.67457E-10
   9.17123E-11 -8.24276E-11 -2.54799E-10 -4.25284E-10 -5.93714E-10 -7.59992E-10 -9.23996E-10 -1.08554E-09 -1.24451E-09 -1.40081E-09
  -1.55428E-09 -1.70478E-09 -1.85220E-09 -1.99640E-09 -2.13726E-09 -2.27464E-09 -2.40842E-09 -2.53848E-09 -2.66471E-09 -2.78693E-09
  -2.90510E-09 -3.01903E-09 -3.12863E-09 -3.23379E-09 -3.33440E-09 -3.43030E-09 -3.52141E-09 -3.60764E-09 -3.68884E-09 -3.76511E-09
  -3.83653E-09 -3.90325E-09 -3.96535E-09 -4.02296E-09 -4.07618E-09 -4.12516E-09 -4.16998E-09 -4.21077E-09 -4.24764E-09 -4.28070E-09
  -4.31009E-09 -4.33590E-09 -4.35826E-09 -4.37727E-09 -4.39306E-09 -4.40573E-09 -4.41542E-09 -4.42221E-09 -4.42624E-09 -4.42761E-09
  -4.42643E-09 -4.42284E-09 -4.41693E-09 -4.40881E-09 -4.39859E-09 -4.38639E-09 -4.37233E-09 -4.35651E-09 -4.33903E-09 -4.32001E-09
  -4.29957E-09 -4.27778E-09 -4.25481E-09 -4.23068E-09 -4.20554E-09 -4.17953E-09 -4.15271E-09 -4.12518E-09 -4.09706E-09 -4.06843E-09
  -4.03941E-09 -4.01011E-09 -3.98061E-09 -3.95101E-09 -3.92139E-09 -3.89186E-09 -3.86253E-09 -3.83344E-09 -3.80474E-09 -3.77649E-09
  -3.74878E-09 -3.72169E-09 -3.69533E-09 -3.66975E-09 -3.64508E-09 -3.62135E-09 -3.59868E-09 -3.57714E-09 -3.55678E-09 -3.53770E-09
  -3.51998E-09 -3.50368E-09 -3.48889E-09 -3.47564E-09 -3.46403E-09 -3.45412E-09 -3.44599E-09 -3.43964E-09 -3.43520E-09 -3.43270E-09
  -3.43219E-09 -3.43369E-09 -3.43713E-09 -3.44244E-09 -3.44954E-09 -3.45838E-09 -3.46887E-09 -3.48097E-09 -3.49458E-09 -3.50966E-09
  -3.52612E-09 -3.54391E-09 -3.56297E-09 -3.58322E-09 -3.60458E-09 -3.62702E-09 -3.65045E-09 -3.67483E-09 -3.70007E-09 -3.72612E-09
  -3.75292E-09 -3.78040E-09 -3.80852E-09 -3.83719E-09 -3.86637E-09 -3.89599E-09 -3.92600E-09 -3.95634E-09 -3.98694E-09 -4.01777E-09
  -4.04875E-09 -4.07983E-09 -4.11096E-09 -4.14208E-09 -4.17315E-09 -4.20409E-09 -4.23488E-09 -4.26546E-09 -4.29577E-09 -4.32576E-09
  -4.35540E-09 -4.38462E-09 -4.41338E-09 -4.44164E-09 -4.46936E-09 -4.49648E-09 -4.52296E-09 -4.54876E-09 -4.57385E-09 -4.59816E-09
  -4.62168E-09 -4.64435E-09 -4.66615E-09 -4.68704E-09 -4.70695E-09 -4.72590E-09 -4.74381E-09 -4.76068E-09 -4.77645E-09 -4.79110E-09
  -4.80461E-09 -4.81694E-09 -4.82806E-09 -4.83794E-09 -4.84657E-09 -4.85391E-09 -4.85995E-09 -4.86465E-09 -4.86799E-09 -4.86997E-09
  -4.87054E-09 -4.86971E-09 -4.86745E-09
 Asp      Conc. = 2.66E-09
   6.78334E-09  6.22203E-09  5.81722E-09  5.54995E-09  5.32255E-09  5.02615E-09  4.87174E-09  4.72234E-09  4.84974E-09  5.00161E-09
   5.14471E-09  5.27696E-09  5.40074E-09  5.51751E-09  5.62526E-09  5.72463E-09  5.81933E-09  5.91060E-09  5.99926E-09  6.08599E-09
   6.17138E-09  6.25599E-09  6.34031E-09  6.42487E-09  6.51016E-09  6.59676E-09  6.68527E-09  6.77639E-09  6.87095E-09  6.96996E-09
   7.07473E-09  7.18696E-09  7.30903E-09  7.44441E-09  7.59853E-09  7.78077E-09  8.00680E-09  8.23142E-09  8.45503E-09  8.61284E-09
   8.72841E-09  8.85878E-09  9.06152E-09  9.42087E-09  9.77115E-09  1.02292E-08  1.03708E-08  1.02770E-08  1.03093E-08  1.04545E-08
   1.06428E-08  1.06781E-08  1.04676E-08  9.82158E-09  8.84604E-09  8.06159E-09  7.43596E-09  7.65759E-09  7.66946E-09  7.33581E-09
   7.11200E-09  7.11401E-09  7.08779E-09  7.13999E-09  7.30913E-09  7.31356E-09  7.12377E-09  7.07795E-09  7.09992E-09  7.14485E-09
   7.19914E-09  7.25758E-09  7.31785E-09  7.37875E-09  7.43968E-09  7.50027E-09  7.56032E-09  7.61972E-09  7.67837E-09  7.73624E-09
   7.79328E-09  7.84950E-09  7.90485E-09  7.95931E-09  8.01289E-09  8.06554E-09  8.11724E-09  8.16797E-09  8.21770E-09  8.26639E-09
   8.31400E-09  8.36052E-09  8.40586E-09  8.45005E-09  8.49298E-09  8.53462E-09  8.57495E-09  8.61389E-09  8.65139E-09  8.68741E-09
   8.72190E-09  8.75478E-09  8.78601E-09  8.81555E-09  8.84330E-09  8.86922E-09  8.89325E-09  8.91534E-09  8.93542E-09  8.95339E-09
   8.96926E-09  8.98291E-09  8.99427E-09  9.00330E-09  9.00992E-09  9.01408E-09  9.01571E-09  9.01474E-09  9.01108E-09  9.00471E-09
   8.99550E-09  8.98344E-09  8.96843E-09  8.95042E-09  8.92933E-09  8.90510E-09  8.87762E-09  8.84691E-09  8.81283E-09  8.77533E-09
   8.73436E-09  8.68983E-09  8.64170E-09  8.58988E-09  8.53432E-09  8.47493E-09  8.41170E-09  8.34452E-09  8.27334E-09  8.19809E-09
   8.11874E-09  8.03521E-09  7.94745E-09  7.85539E-09  7.75901E-09  7.65824E-09  7.55309E-09  7.44370E-09  7.33021E-09  7.21278E-09
   7.09159E-09  6.96682E-09  6.83864E-09  6.70730E-09  6.57302E-09  6.43609E-09  6.29683E-09  6.15565E-09  6.01309E-09  5.86982E-09
   5.72682E-09  5.58561E-09  5.44859E-09  5.32013E-09  5.20911E-09  5.13754E-09  5.17979E-09  5.71114E-09  6.50513E-09  7.11610E-09
   7.55006E-09  7.86245E-09  8.05265E-09  8.13529E-09  8.19375E-09  8.19815E-09  7.83007E-09  6.60229E-09  4.50726E-09  3.01984E-09
   2.49009E-09  2.16598E-09  1.91019E-09  1.68468E-09  1.47515E-09  1.27521E-09  1.08165E-09  8.92739E-10  7.07426E-10  5.25171E-10
   3.45657E-10  1.68655E-10 -5.89315E-12 -1.78029E-10 -3.47699E-10 -5.14896E-10 -6.79563E-10 -8.41562E-10 -1.00083E-09 -1.15729E-09
  -1.31080E-09 -1.46127E-09 -1.60858E-09 -1.75261E-09 -1.89326E-09 -2.03038E-09 -2.16387E-09 -2.29362E-09 -2.41952E-09 -2.54139E-09
  -2.65920E-09 -2.77277E-09 -2.88200E-09 -2.98679E-09 -3.08702E-09 -3.18255E-09 -3.27329E-09 -3.35916E-09 -3.44000E-09 -3.51591E-09
  -3.58698E-09 -3.65336E-09 -3.71512E-09 -3.77241E-09 -3.82532E-09 -3.87399E-09 -3.91852E-09 -3.95902E-09 -3.99562E-09 -4.02842E-09
