 LCModel (Version 6.3-1R) Copyright: S.W. Provencher.          Ref.: Magn. Reson. Med. 30:672-679 (1993).                
 onepulse 11x26_ftSpec_smooth_lcm
 26 lines in following concentration table = NCONC+1
    Conc.  %SD /Cr+PCr  Metabolite                                         
 5.11E-11 736%   0.486 Ala                                                 
 2.30E-09  48%  21.875 Asp                                                 
    0.000 999%   0.000 Cr                                                  
 1.09E-09  73%  10.410 GABA                                                
 6.22E-10 154%   5.911 Glc                                                 
    0.000 999%   0.000 Gln                                                 
    0.000 999%   0.000 Glu                                                 
    0.000 999%   0.000 Glyc                                                
    0.000 999%   0.000 GPC                                                 
 6.35E-10  71%   6.035 GSH                                                 
 1.34E-09  45%  12.751 Ins                                                 
    0.000 999%   0.000 Lac                                                 
 3.11E-10 116%   2.960 NAAG                                                
 1.53E-10 302%   1.459 NAA                                                 
    0.000 999%   0.000 PCh                                                 
 1.05E-10 335%   1.000 PCr                                                 
 1.71E-09  42%  16.227 PE                                                  
 1.76E-10 143%   1.678 Scyllo                                              
 6.56E-10 300%   6.241 Ser                                                 
    0.000 999%   0.000 Tau                                                 
    0.000 999%   0.000 GPC+PCh                                             
 4.65E-10  62%   4.420 NAA+NAAG                                            
 1.34E-09  45%  12.751 Ins+Glyc                                            
 1.05E-10 335%   1.000 Cr+PCr                                              
    0.000 999%   0.000 Glu+Gln                                             
   6 lines in following misc. output table
  FWHM = 0.123 ppm    S/N =   3                                            
  Data shift = 0.481 ppm                                                   
  Ph: 108 deg      14.9 deg/ppm                                            
  alphaB,S = 1.0E+00,   1.8E+01                                            
    8 spline knots.   Ns = 5(1)                                            
  (10) 6 infls.   (11) 3 extrs.                                            
  363 points on ppm-axis = NY
      4.250000     4.238821     4.227641     4.216462     4.205282     4.194103     4.182923     4.171744     4.160564     4.149385
      4.138206     4.127026     4.115847     4.104667     4.093488     4.082308     4.071129     4.059949     4.048770     4.037591
      4.026411     4.015232     4.004052     3.992873     3.981693     3.970514     3.959334     3.948155     3.936975     3.925796
      3.914617     3.903437     3.892258     3.881078     3.869899     3.858719     3.847540     3.836360     3.825181     3.814002
      3.802822     3.791643     3.780463     3.769284     3.758104     3.746925     3.735745     3.724566     3.713387     3.702207
      3.691028     3.679848     3.668669     3.657489     3.646310     3.635130     3.623951     3.612772     3.601592     3.590413
      3.579233     3.568054     3.556874     3.545695     3.534515     3.523336     3.512156     3.500977     3.489798     3.478618
      3.467439     3.456259     3.445080     3.433900     3.422721     3.411541     3.400362     3.389183     3.378003     3.366824
      3.355644     3.344465     3.333285     3.322106     3.310926     3.299747     3.288568     3.277388     3.266209     3.255029
      3.243850     3.232670     3.221491     3.210311     3.199132     3.187953     3.176773     3.165594     3.154414     3.143235
      3.132055     3.120876     3.109696     3.098517     3.087337     3.076158     3.064979     3.053799     3.042620     3.031440
      3.020261     3.009081     2.997902     2.986722     2.975543     2.964364     2.953184     2.942005     2.930825     2.919646
      2.908466     2.897287     2.886107     2.874928     2.863749     2.852569     2.841390     2.830210     2.819031     2.807851
      2.796672     2.785492     2.774313     2.763134     2.751954     2.740775     2.729595     2.718416     2.707236     2.696057
      2.684877     2.673698     2.662519     2.651339     2.640160     2.628980     2.617801     2.606621     2.595442     2.584262
      2.573083     2.561903     2.550724     2.539545     2.528365     2.517186     2.506006     2.494827     2.483647     2.472468
      2.461288     2.450109     2.438930     2.427750     2.416571     2.405391     2.394212     2.383032     2.371853     2.360673
      2.349494     2.338315     2.327135     2.315956     2.304776     2.293597     2.282417     2.271238     2.260058     2.248879
      2.237700     2.226520     2.215341     2.204161     2.192982     2.181802     2.170623     2.159443     2.148264     2.137084
      2.125905     2.114726     2.103546     2.092367     2.081187     2.070008     2.058828     2.047649     2.036469     2.025290
      2.014111     2.002931     1.991752     1.980572     1.969393     1.958213     1.947034     1.935854     1.924675     1.913496
      1.902316     1.891137     1.879957     1.868778     1.857598     1.846419     1.835239     1.824060     1.812881     1.801701
      1.790522     1.779342     1.768163     1.756983     1.745804     1.734624     1.723445     1.712265     1.701086     1.689907
      1.678727     1.667548     1.656368     1.645189     1.634009     1.622830     1.611650     1.600471     1.589292     1.578112
      1.566933     1.555753     1.544574     1.533394     1.522215     1.511035     1.499856     1.488677     1.477497     1.466318
      1.455138     1.443959     1.432779     1.421600     1.410420     1.399241     1.388062     1.376882     1.365703     1.354523
      1.343344     1.332164     1.320985     1.309805     1.298626     1.287446     1.276267     1.265088     1.253908     1.242729
      1.231549     1.220370     1.209190     1.198011     1.186831     1.175652     1.164473     1.153293     1.142114     1.130934
      1.119755     1.108575     1.097396     1.086216     1.075037     1.063858     1.052678     1.041499     1.030319     1.019140
      1.007960     0.996781     0.985601     0.974422     0.963243     0.952063     0.940884     0.929704     0.918525     0.907345
      0.896166     0.884986     0.873807     0.862628     0.851448     0.840269     0.829089     0.817910     0.806730     0.795551
      0.784371     0.773192     0.762012     0.750833     0.739654     0.728474     0.717295     0.706115     0.694936     0.683756
      0.672577     0.661397     0.650218     0.639039     0.627859     0.616680     0.605500     0.594321     0.583141     0.571962
      0.560782     0.549603     0.538424     0.527244     0.516065     0.504885     0.493706     0.482526     0.471347     0.460167
      0.448988     0.437809     0.426629     0.415450     0.404270     0.393091     0.381911     0.370732     0.359552     0.348373
      0.337193     0.326014     0.314835     0.303655     0.292476     0.281296     0.270117     0.258937     0.247758     0.236578
      0.225399     0.214220     0.203040
 NY phased data points follow
   7.48877E-09  7.12203E-09  7.75970E-09  7.17645E-09  8.12595E-09  7.56583E-09  7.76626E-09  7.10925E-09  7.47747E-09  7.20730E-09
   7.55440E-09  6.54123E-09  7.47051E-09  6.58742E-09  7.48277E-09  6.98558E-09  7.17721E-09  6.32045E-09  6.63178E-09  6.55839E-09
   7.26571E-09  7.40621E-09  7.99051E-09  8.04014E-09  7.55545E-09  6.96891E-09  7.22513E-09  6.69370E-09  7.17010E-09  6.16417E-09
   6.89835E-09  6.04721E-09  6.16428E-09  6.20016E-09  6.38858E-09  5.55675E-09  6.06902E-09  5.41648E-09  5.57318E-09  5.31868E-09
   5.89721E-09  5.39255E-09  5.66702E-09  4.79938E-09  5.29514E-09  4.98692E-09  5.18915E-09  4.52268E-09  5.51387E-09  4.67755E-09
   5.20066E-09  5.16158E-09  5.82810E-09  5.97439E-09  6.81131E-09  6.39521E-09  6.56976E-09  5.51598E-09  5.87253E-09  5.02403E-09
   5.20164E-09  4.45086E-09  4.92834E-09  3.71667E-09  3.98403E-09  3.03993E-09  3.96995E-09  4.17307E-09  5.37500E-09  6.57514E-09
   7.58668E-09  7.14567E-09  7.85904E-09  7.52277E-09  7.51233E-09  7.14892E-09  7.13207E-09  6.62308E-09  7.33373E-09  7.45804E-09
   7.21922E-09  6.71264E-09  6.53990E-09  6.53094E-09  6.80513E-09  6.25405E-09  6.70377E-09  6.31006E-09  6.31665E-09  5.87922E-09
   6.28309E-09  5.71406E-09  6.27274E-09  5.78086E-09  6.14546E-09  5.63583E-09  5.74423E-09  5.41834E-09  5.31246E-09  4.70553E-09
   4.77514E-09  4.07772E-09  4.20979E-09  4.10567E-09  3.93024E-09  3.55882E-09  4.11233E-09  3.57682E-09  3.81765E-09  3.40633E-09
   3.80099E-09  3.61850E-09  3.76130E-09  2.76751E-09  2.76703E-09  2.50527E-09  2.36671E-09  2.67471E-09  2.47452E-09  2.35721E-09
   2.23133E-09  2.14927E-09  2.12528E-09  2.04341E-09  1.97807E-09  1.73709E-09  1.72765E-09  1.78226E-09  1.70107E-09  2.22300E-09
   2.49613E-09  2.62745E-09  2.92724E-09  3.06324E-09  3.31045E-09  4.08354E-09  3.91789E-09  4.07774E-09  4.49576E-09  5.01754E-09
   4.51021E-09  4.72132E-09  5.10026E-09  4.84008E-09  5.02203E-09  5.00415E-09  5.52237E-09  5.52226E-09  5.87729E-09  5.71159E-09
   6.09900E-09  5.74619E-09  5.70339E-09  6.18609E-09  6.16558E-09  6.50888E-09  6.74630E-09  6.83875E-09  7.19203E-09  8.30239E-09
   1.00572E-08  1.19060E-08  1.28164E-08  1.28808E-08  1.32775E-08  1.37127E-08  1.34820E-08  1.40582E-08  1.45945E-08  1.45572E-08
   1.51767E-08  1.53090E-08  1.57433E-08  1.63907E-08  1.67732E-08  1.68211E-08  1.68084E-08  1.73899E-08  1.76255E-08  1.79013E-08
   1.73353E-08  1.70426E-08  1.65192E-08  1.53002E-08  1.41878E-08  1.26333E-08  1.09205E-08  7.91963E-09  5.58436E-09  2.70099E-09
  -2.14740E-10 -2.81156E-09 -5.63525E-09 -7.97749E-09 -9.29188E-09 -1.08290E-08 -1.10767E-08 -1.06989E-08 -9.34928E-09 -8.20785E-09
  -6.17616E-09 -5.07675E-09 -3.03585E-09 -2.81874E-09 -1.80531E-09 -1.93675E-09 -1.18459E-09 -1.16409E-09 -1.10483E-09 -1.23492E-09
  -5.39059E-10 -6.65892E-10 -3.94390E-10 -7.56115E-10 -4.47032E-10 -9.64135E-10 -7.09263E-10 -8.19066E-10 -4.74886E-10  1.15907E-11
  -2.05473E-10 -2.86060E-10 -3.94834E-10 -6.89976E-10 -4.92054E-10 -7.06058E-10 -8.51798E-10 -5.58981E-10 -4.56810E-10 -1.75633E-11
  -8.05205E-11 -3.70576E-10  3.10969E-10 -2.43592E-10 -2.88232E-10 -1.04226E-09 -6.44083E-10 -9.87862E-10 -6.00659E-10 -5.03304E-10
  -1.84496E-11 -2.84559E-11 -3.14487E-12 -4.83210E-11 -2.30161E-11 -2.83224E-10  1.60961E-10  6.84491E-11 -1.44159E-10  2.86338E-11
   3.63869E-10 -3.61958E-10 -6.24472E-11 -9.48963E-10 -3.59218E-10 -9.90048E-10 -4.72878E-10 -9.76297E-10 -4.53868E-10 -7.61460E-10
  -5.89455E-10 -7.36139E-10 -3.75793E-10 -4.07782E-10 -3.42950E-10  1.53451E-10  2.15984E-10 -1.65638E-10 -1.74385E-10 -8.17613E-11
   2.23937E-10 -4.80677E-11  3.56248E-10 -1.90082E-10 -8.62927E-11  3.00394E-10  8.01630E-11  1.82378E-10 -4.50542E-11 -5.85222E-10
   7.01071E-12 -1.53584E-10 -3.01699E-10 -9.05857E-11 -5.16991E-11 -2.86658E-10 -3.05453E-10 -8.11111E-10 -3.81327E-10 -5.96538E-10
  -6.83351E-10 -7.25331E-10 -6.66408E-10 -5.67490E-10 -7.26661E-10 -9.05842E-10 -1.38152E-09 -6.63523E-10 -8.92414E-10 -5.40724E-10
  -1.14903E-09 -1.09441E-09 -1.08834E-09 -1.13080E-09 -8.08602E-10 -1.00123E-09 -1.24718E-09 -1.01801E-09 -1.31395E-09 -1.00840E-09
  -1.34163E-09 -1.06510E-09 -1.47532E-09 -1.30274E-09 -1.29034E-09 -1.05407E-09 -1.50735E-09 -1.29173E-09 -1.86306E-09 -1.39500E-09
  -1.63013E-09 -1.03140E-09 -1.30683E-09 -1.37204E-09 -1.34109E-09 -1.32819E-09 -1.86257E-09 -1.52458E-09 -1.69576E-09 -1.72364E-09
  -1.92486E-09 -1.71066E-09 -1.74336E-09 -1.41452E-09 -1.75834E-09 -1.87976E-09 -1.80551E-09 -1.70395E-09 -1.68840E-09 -1.68671E-09
  -2.16387E-09 -1.80582E-09 -1.81626E-09 -1.72151E-09 -1.85252E-09 -1.90278E-09 -2.00467E-09 -1.87483E-09 -1.83849E-09 -1.57862E-09
  -1.88737E-09 -1.86455E-09 -1.61084E-09 -1.95303E-09 -2.16368E-09 -1.80565E-09 -1.73205E-09 -1.79196E-09 -2.08690E-09 -1.64757E-09
  -1.80470E-09 -1.91842E-09 -1.64164E-09
 NY points of the fit to the data follow
   8.85688E-09  7.50193E-09  7.09426E-09  7.29090E-09  7.88622E-09  7.62585E-09  7.43390E-09  7.58677E-09  7.32187E-09  6.48695E-09
   6.56080E-09  6.76395E-09  7.35016E-09  7.77905E-09  7.56127E-09  7.15821E-09  7.48659E-09  7.55241E-09  6.47032E-09  5.84085E-09
   6.39490E-09  7.31934E-09  7.58112E-09  7.63890E-09  7.65391E-09  7.84215E-09  7.76911E-09  7.24822E-09  6.66954E-09  6.89672E-09
   6.79736E-09  6.45750E-09  6.24446E-09  6.11459E-09  5.67361E-09  5.59823E-09  5.62549E-09  5.80537E-09  5.82513E-09  5.62655E-09
   5.49959E-09  5.57244E-09  5.25837E-09  5.19115E-09  5.50925E-09  5.86727E-09  5.34747E-09  4.79420E-09  5.08793E-09  5.59468E-09
   6.10063E-09  6.36673E-09  6.42292E-09  6.17607E-09  5.59541E-09  5.17416E-09  4.80031E-09  5.24569E-09  5.38503E-09  5.05356E-09
   4.94093E-09  5.16455E-09  5.37225E-09  5.39935E-09  5.75734E-09  6.13164E-09  5.95955E-09  5.85316E-09  6.08461E-09  6.41821E-09
   6.54416E-09  6.44512E-09  6.39023E-09  6.45960E-09  6.55160E-09  6.63985E-09  6.94173E-09  7.26171E-09  7.06567E-09  6.77297E-09
   6.53877E-09  6.40395E-09  6.40764E-09  6.50478E-09  6.48278E-09  6.10220E-09  5.37318E-09  4.83822E-09  4.57055E-09  4.63515E-09
   4.63467E-09  4.72215E-09  4.82453E-09  4.62992E-09  4.46898E-09  4.58878E-09  4.46498E-09  4.27791E-09  4.31055E-09  4.31602E-09
   4.31805E-09  4.33402E-09  4.36482E-09  4.42575E-09  4.47300E-09  4.50698E-09  4.53964E-09  4.57442E-09  4.60433E-09  4.61565E-09
   4.60326E-09  4.60171E-09  4.63569E-09  4.62784E-09  4.60650E-09  4.62242E-09  4.64362E-09  4.66464E-09  4.68427E-09  4.70219E-09
   4.71824E-09  4.73253E-09  4.74500E-09  4.75569E-09  4.76464E-09  4.77187E-09  4.77739E-09  4.78128E-09  4.78354E-09  4.78419E-09
   4.78326E-09  4.78077E-09  4.77678E-09  4.77129E-09  4.76432E-09  4.75588E-09  4.74606E-09  4.73479E-09  4.72216E-09  4.70817E-09
   4.69290E-09  4.67635E-09  4.65858E-09  4.63961E-09  4.61952E-09  4.59837E-09  4.57626E-09  4.55330E-09  4.52965E-09  4.50549E-09
   4.48101E-09  4.45650E-09  4.43224E-09  4.40869E-09  4.38634E-09  4.36592E-09  4.34839E-09  4.33510E-09  4.32803E-09  4.33014E-09
   4.34618E-09  4.38419E-09  4.45887E-09  4.60042E-09  4.88158E-09  5.52844E-09  7.60231E-09  1.32412E-08  1.65089E-08  1.68046E-08
   1.62866E-08  1.60972E-08  1.63735E-08  1.69941E-08  1.80394E-08  1.93775E-08  1.95688E-08  1.56743E-08  7.93557E-09  4.96726E-09
   4.02582E-09  3.57487E-09  3.30126E-09  3.10952E-09  2.96156E-09  2.83940E-09  2.73356E-09  2.63863E-09  2.55124E-09  2.46931E-09
   2.39143E-09  2.31662E-09  2.24422E-09  2.17373E-09  2.10484E-09  2.03726E-09  1.97079E-09  1.90532E-09  1.84075E-09  1.77696E-09
   1.71392E-09  1.65159E-09  1.58995E-09  1.52897E-09  1.46862E-09  1.40894E-09  1.34991E-09  1.29152E-09  1.23378E-09  1.17675E-09
   1.12037E-09  1.06470E-09  1.00975E-09  9.55536E-10  9.02053E-10  8.49360E-10  7.97452E-10  7.46337E-10  6.96068E-10  6.46611E-10
   5.97971E-10  5.50124E-10  5.03073E-10  4.56795E-10  4.11294E-10  3.66543E-10  3.22543E-10  2.79281E-10  2.36748E-10  1.94937E-10
   1.53829E-10  1.13423E-10  7.37088E-11  3.46738E-11 -3.69249E-12 -4.13957E-11 -7.84494E-11 -1.14856E-10 -1.50632E-10 -1.85780E-10
  -2.20311E-10 -2.54244E-10 -2.87576E-10 -3.20320E-10 -3.52479E-10 -3.84070E-10 -4.15100E-10 -4.45578E-10 -4.75512E-10 -5.04904E-10
  -5.33777E-10 -5.62121E-10 -5.89970E-10 -6.17297E-10 -6.44131E-10 -6.70489E-10 -6.96363E-10 -7.21765E-10 -7.46700E-10 -7.71177E-10
  -7.95206E-10 -8.18798E-10 -8.41955E-10 -8.64685E-10 -8.86989E-10 -9.08878E-10 -9.30369E-10 -9.51444E-10 -9.72131E-10 -9.92431E-10
  -1.01234E-09 -1.03187E-09 -1.05104E-09 -1.06982E-09 -1.08826E-09 -1.10633E-09 -1.12405E-09 -1.14142E-09 -1.15844E-09 -1.17512E-09
  -1.19147E-09 -1.20749E-09 -1.22318E-09 -1.23853E-09 -1.25356E-09 -1.26827E-09 -1.28267E-09 -1.29674E-09 -1.31050E-09 -1.32395E-09
  -1.33707E-09 -1.34989E-09 -1.36238E-09 -1.37453E-09 -1.38633E-09 -1.39778E-09 -1.40886E-09 -1.41955E-09 -1.42986E-09 -1.43977E-09
  -1.44927E-09 -1.45835E-09 -1.46700E-09 -1.47522E-09 -1.48298E-09 -1.49029E-09 -1.49713E-09 -1.50350E-09 -1.50938E-09 -1.51477E-09
  -1.51965E-09 -1.52402E-09 -1.52787E-09 -1.53120E-09 -1.53398E-09 -1.53622E-09 -1.53791E-09 -1.53904E-09 -1.53960E-09 -1.53958E-09
  -1.53898E-09 -1.53778E-09 -1.53599E-09 -1.53359E-09 -1.53057E-09 -1.52694E-09 -1.52268E-09 -1.51779E-09 -1.51226E-09 -1.50608E-09
  -1.49925E-09 -1.49177E-09 -1.48362E-09 -1.47480E-09 -1.46531E-09 -1.45514E-09 -1.44428E-09 -1.43274E-09 -1.42050E-09 -1.40756E-09
  -1.39392E-09 -1.37957E-09 -1.36451E-09 -1.34873E-09 -1.33223E-09 -1.31502E-09 -1.29707E-09 -1.27840E-09 -1.25899E-09 -1.23885E-09
  -1.21797E-09 -1.19635E-09 -1.17399E-09 -1.15088E-09 -1.12702E-09 -1.10242E-09 -1.07707E-09 -1.05096E-09 -1.02411E-09 -9.96493E-10
  -9.68127E-10 -9.39005E-10 -9.09127E-10
 NY background values follow
     2.902E-09    2.950E-09    2.998E-09    3.045E-09    3.091E-09    3.137E-09    3.182E-09    3.226E-09    3.270E-09    3.314E-09
     3.357E-09    3.399E-09    3.440E-09    3.481E-09    3.522E-09    3.562E-09    3.601E-09    3.639E-09    3.677E-09    3.715E-09
     3.752E-09    3.788E-09    3.823E-09    3.858E-09    3.893E-09    3.927E-09    3.960E-09    3.993E-09    4.025E-09    4.056E-09
     4.087E-09    4.117E-09    4.147E-09    4.176E-09    4.205E-09    4.233E-09    4.260E-09    4.287E-09    4.313E-09    4.339E-09
     4.364E-09    4.389E-09    4.413E-09    4.436E-09    4.459E-09    4.481E-09    4.503E-09    4.524E-09    4.545E-09    4.565E-09
     4.585E-09    4.604E-09    4.623E-09    4.641E-09    4.658E-09    4.675E-09    4.692E-09    4.708E-09    4.724E-09    4.739E-09
     4.753E-09    4.767E-09    4.781E-09    4.794E-09    4.807E-09    4.819E-09    4.831E-09    4.842E-09    4.853E-09    4.863E-09
     4.873E-09    4.883E-09    4.892E-09    4.900E-09    4.909E-09    4.916E-09    4.924E-09    4.931E-09    4.937E-09    4.943E-09
     4.949E-09    4.954E-09    4.958E-09    4.963E-09    4.966E-09    4.969E-09    4.972E-09    4.974E-09    4.975E-09    4.977E-09
     4.977E-09    4.977E-09    4.976E-09    4.975E-09    4.973E-09    4.971E-09    4.968E-09    4.964E-09    4.960E-09    4.955E-09
     4.949E-09    4.943E-09    4.936E-09    4.929E-09    4.921E-09    4.912E-09    4.902E-09    4.892E-09    4.881E-09    4.869E-09
     4.856E-09    4.843E-09    4.829E-09    4.814E-09    4.798E-09    4.781E-09    4.764E-09    4.746E-09    4.727E-09    4.707E-09
     4.686E-09    4.664E-09    4.642E-09    4.619E-09    4.594E-09    4.569E-09    4.543E-09    4.516E-09    4.488E-09    4.458E-09
     4.428E-09    4.397E-09    4.365E-09    4.332E-09    4.298E-09    4.263E-09    4.227E-09    4.190E-09    4.152E-09    4.113E-09
     4.072E-09    4.031E-09    3.988E-09    3.945E-09    3.900E-09    3.854E-09    3.807E-09    3.759E-09    3.710E-09    3.659E-09
     3.608E-09    3.556E-09    3.503E-09    3.448E-09    3.393E-09    3.337E-09    3.280E-09    3.223E-09    3.164E-09    3.105E-09
     3.045E-09    2.984E-09    2.922E-09    2.860E-09    2.797E-09    2.734E-09    2.670E-09    2.605E-09    2.540E-09    2.475E-09
     2.409E-09    2.342E-09    2.275E-09    2.208E-09    2.140E-09    2.072E-09    2.004E-09    1.935E-09    1.867E-09    1.798E-09
     1.729E-09    1.659E-09    1.590E-09    1.521E-09    1.451E-09    1.382E-09    1.312E-09    1.243E-09    1.174E-09    1.105E-09
     1.036E-09    9.668E-10    8.981E-10    8.297E-10    7.615E-10    6.937E-10    6.261E-10    5.589E-10    4.921E-10    4.257E-10
     3.598E-10    2.943E-10    2.293E-10    1.648E-10    1.009E-10    3.759E-11   -2.513E-11   -8.722E-11   -1.487E-10   -2.094E-10
    -2.694E-10   -3.287E-10   -3.872E-10   -4.449E-10   -5.018E-10   -5.579E-10   -6.131E-10   -6.674E-10   -7.207E-10   -7.732E-10
    -8.248E-10   -8.755E-10   -9.252E-10   -9.741E-10   -1.022E-09   -1.069E-09   -1.116E-09   -1.161E-09   -1.206E-09   -1.250E-09
    -1.293E-09   -1.335E-09   -1.376E-09   -1.417E-09   -1.457E-09   -1.496E-09   -1.534E-09   -1.572E-09   -1.608E-09   -1.645E-09
    -1.680E-09   -1.715E-09   -1.749E-09   -1.782E-09   -1.814E-09   -1.846E-09   -1.878E-09   -1.908E-09   -1.938E-09   -1.967E-09
    -1.996E-09   -2.024E-09   -2.052E-09   -2.079E-09   -2.105E-09   -2.130E-09   -2.156E-09   -2.180E-09   -2.204E-09   -2.227E-09
    -2.250E-09   -2.273E-09   -2.294E-09   -2.316E-09   -2.337E-09   -2.357E-09   -2.377E-09   -2.396E-09   -2.415E-09   -2.433E-09
    -2.451E-09   -2.468E-09   -2.485E-09   -2.501E-09   -2.517E-09   -2.533E-09   -2.548E-09   -2.563E-09   -2.577E-09   -2.591E-09
    -2.604E-09   -2.617E-09   -2.630E-09   -2.642E-09   -2.654E-09   -2.665E-09   -2.676E-09   -2.687E-09   -2.697E-09   -2.707E-09
    -2.716E-09   -2.725E-09   -2.734E-09   -2.742E-09   -2.750E-09   -2.757E-09   -2.764E-09   -2.771E-09   -2.777E-09   -2.782E-09
    -2.787E-09   -2.792E-09   -2.796E-09   -2.800E-09   -2.803E-09   -2.805E-09   -2.807E-09   -2.809E-09   -2.810E-09   -2.810E-09
    -2.810E-09   -2.809E-09   -2.807E-09   -2.806E-09   -2.803E-09   -2.800E-09   -2.796E-09   -2.792E-09   -2.787E-09   -2.781E-09
    -2.775E-09   -2.768E-09   -2.760E-09   -2.752E-09   -2.743E-09   -2.733E-09   -2.723E-09   -2.712E-09   -2.700E-09   -2.688E-09
    -2.675E-09   -2.661E-09   -2.647E-09   -2.631E-09   -2.615E-09   -2.599E-09   -2.581E-09   -2.563E-09   -2.544E-09   -2.525E-09
    -2.504E-09   -2.483E-09   -2.461E-09   -2.439E-09   -2.415E-09   -2.391E-09   -2.366E-09   -2.341E-09   -2.314E-09   -2.287E-09
    -2.259E-09   -2.230E-09   -2.201E-09   -2.170E-09   -2.139E-09   -2.107E-09   -2.074E-09   -2.041E-09   -2.007E-09   -1.972E-09
    -1.936E-09   -1.899E-09   -1.862E-09
 Ala      Conc. = 5.11E-11
   2.94141E-09  2.98372E-09  3.02835E-09  3.07204E-09  3.11487E-09  3.15782E-09  3.19478E-09  3.23140E-09  3.27915E-09  3.31881E-09
   3.35070E-09  3.39500E-09  3.43832E-09  3.47615E-09  3.51657E-09  3.55741E-09  3.59775E-09  3.63743E-09  3.67642E-09  3.71472E-09
   3.75233E-09  3.78927E-09  3.82556E-09  3.86119E-09  3.89618E-09  3.93054E-09  3.96427E-09  3.99738E-09  4.02988E-09  4.06176E-09
   4.09304E-09  4.12371E-09  4.15378E-09  4.18326E-09  4.21215E-09  4.24046E-09  4.26817E-09  4.29530E-09  4.32187E-09  4.34784E-09
   4.37326E-09  4.39810E-09  4.42239E-09  4.44611E-09  4.46928E-09  4.49190E-09  4.51397E-09  4.53549E-09  4.55648E-09  4.57693E-09
   4.59685E-09  4.61625E-09  4.63511E-09  4.65346E-09  4.67132E-09  4.68864E-09  4.70546E-09  4.72181E-09  4.73762E-09  4.75297E-09
   4.76784E-09  4.78221E-09  4.79612E-09  4.80956E-09  4.82256E-09  4.83508E-09  4.84716E-09  4.85879E-09  4.86999E-09  4.88076E-09
   4.89110E-09  4.90103E-09  4.91056E-09  4.91967E-09  4.92840E-09  4.93672E-09  4.94463E-09  4.95215E-09  4.95924E-09  4.96593E-09
   4.97219E-09  4.97804E-09  4.98348E-09  4.98850E-09  4.99312E-09  4.99733E-09  5.00115E-09  5.00459E-09  5.00768E-09  5.01044E-09
   5.01290E-09  5.01516E-09  5.01726E-09  5.01938E-09  5.02170E-09  5.02456E-09  5.02860E-09  5.03503E-09  5.04674E-09  5.07215E-09
   5.10092E-09  5.09358E-09  5.09338E-09  5.11503E-09  5.11638E-09  5.10191E-09  5.08548E-09  5.07129E-09  5.05307E-09  5.01701E-09
   4.95833E-09  4.91182E-09  4.90208E-09  4.85169E-09  4.78892E-09  4.76435E-09  4.74610E-09  4.72873E-09  4.71097E-09  4.69248E-09
   4.67304E-09  4.65267E-09  4.63130E-09  4.60894E-09  4.58558E-09  4.56122E-09  4.53584E-09  4.50947E-09  4.48209E-09  4.45368E-09
   4.42426E-09  4.39379E-09  4.36231E-09  4.32979E-09  4.29622E-09  4.26156E-09  4.22589E-09  4.18912E-09  4.15129E-09  4.11235E-09
   4.07233E-09  4.03120E-09  3.98898E-09  3.94561E-09  3.90114E-09  3.85553E-09  3.80879E-09  3.76094E-09  3.71200E-09  3.66202E-09
   3.61100E-09  3.55898E-09  3.50598E-09  3.45204E-09  3.39718E-09  3.34144E-09  3.28484E-09  3.22743E-09  3.16924E-09  3.11032E-09
   3.05070E-09  2.99050E-09  2.92980E-09  2.86883E-09  2.80806E-09  2.74894E-09  2.69855E-09  2.66886E-09  2.62001E-09  2.55438E-09
   2.48546E-09  2.41865E-09  2.35408E-09  2.29100E-09  2.23011E-09  2.17041E-09  2.10250E-09  2.00866E-09  1.89407E-09  1.81349E-09
   1.74047E-09  1.66942E-09  1.59908E-09  1.52908E-09  1.45925E-09  1.38954E-09  1.31993E-09  1.25046E-09  1.18108E-09  1.11185E-09
   1.04279E-09  9.73907E-10  9.05240E-10  8.36807E-10  7.68663E-10  7.00808E-10  6.33262E-10  5.66096E-10  4.99316E-10  4.32933E-10
   3.66994E-10  3.01524E-10  2.36558E-10  1.72115E-10  1.08214E-10  4.49109E-11 -1.77880E-11 -7.98562E-11 -1.41272E-10 -2.01970E-10
  -2.61983E-10 -3.21239E-10 -3.79724E-10 -4.37421E-10 -4.94316E-10 -5.50347E-10 -6.05515E-10 -6.59807E-10 -7.13167E-10 -7.65623E-10
  -8.17170E-10 -8.67830E-10 -9.17596E-10 -9.66490E-10 -1.01451E-09 -1.06167E-09 -1.10798E-09 -1.15345E-09 -1.19808E-09 -1.24189E-09
  -1.28489E-09 -1.32709E-09 -1.36848E-09 -1.40910E-09 -1.44893E-09 -1.48800E-09 -1.52631E-09 -1.56387E-09 -1.60070E-09 -1.63679E-09
  -1.67216E-09 -1.70683E-09 -1.74079E-09 -1.77406E-09 -1.80664E-09 -1.83856E-09 -1.86981E-09 -1.90040E-09 -1.93035E-09 -1.95966E-09
  -1.98835E-09 -2.01641E-09 -2.04388E-09 -2.07072E-09 -2.09698E-09 -2.12266E-09 -2.14776E-09 -2.17229E-09 -2.19626E-09 -2.21968E-09
  -2.24256E-09 -2.26490E-09 -2.28672E-09 -2.30801E-09 -2.32879E-09 -2.34906E-09 -2.36885E-09 -2.38813E-09 -2.40693E-09 -2.42525E-09
  -2.44310E-09 -2.46048E-09 -2.47741E-09 -2.49387E-09 -2.50989E-09 -2.52547E-09 -2.54061E-09 -2.55532E-09 -2.56959E-09 -2.58345E-09
  -2.59689E-09 -2.60991E-09 -2.62253E-09 -2.63473E-09 -2.64653E-09 -2.65793E-09 -2.66894E-09 -2.67954E-09 -2.68976E-09 -2.69959E-09
  -2.70902E-09 -2.71807E-09 -2.72671E-09 -2.73495E-09 -2.74276E-09 -2.75014E-09 -2.75708E-09 -2.76358E-09 -2.76961E-09 -2.77517E-09
  -2.78025E-09 -2.78485E-09 -2.78895E-09 -2.79254E-09 -2.79562E-09 -2.79817E-09 -2.80020E-09 -2.80168E-09 -2.80261E-09 -2.80298E-09
  -2.80279E-09 -2.80202E-09 -2.80067E-09 -2.79874E-09 -2.79620E-09 -2.79306E-09 -2.78930E-09 -2.78493E-09 -2.77993E-09 -2.77429E-09
  -2.76802E-09 -2.76109E-09 -2.75351E-09 -2.74527E-09 -2.73636E-09 -2.72678E-09 -2.71652E-09 -2.70557E-09 -2.69393E-09 -2.68159E-09
  -2.66856E-09 -2.65481E-09 -2.64035E-09 -2.62517E-09 -2.60928E-09 -2.59265E-09 -2.57529E-09 -2.55720E-09 -2.53836E-09 -2.51879E-09
  -2.49846E-09 -2.47738E-09 -2.45555E-09 -2.43296E-09 -2.40961E-09 -2.38549E-09 -2.36061E-09 -2.33495E-09 -2.30853E-09 -2.28133E-09
  -2.25335E-09 -2.22460E-09 -2.19506E-09 -2.16475E-09 -2.13365E-09 -2.10177E-09 -2.06910E-09 -2.03565E-09 -2.00141E-09 -1.96638E-09
  -1.93057E-09 -1.89397E-09 -1.85658E-09
 Asp      Conc. = 2.30E-09
   3.68621E-09  3.26925E-09  3.04327E-09  2.90394E-09  2.84436E-09  2.65162E-09  2.59479E-09  2.50672E-09  2.68298E-09  2.86126E-09
   3.01985E-09  3.16160E-09  3.29155E-09  3.41290E-09  3.52354E-09  3.62497E-09  3.72110E-09  3.81319E-09  3.90212E-09  3.98860E-09
   4.07326E-09  4.15667E-09  4.23935E-09  4.32182E-09  4.40459E-09  4.48824E-09  4.57338E-09  4.66072E-09  4.75110E-09  4.84555E-09
   4.94543E-09  5.05252E-09  5.16931E-09  5.29954E-09  5.44909E-09  5.62796E-09  5.84919E-09  5.99914E-09  6.13092E-09  6.13943E-09
   6.15428E-09  6.29292E-09  6.60358E-09  7.11755E-09  7.44503E-09  7.83279E-09  7.51102E-09  6.95773E-09  6.87791E-09  6.98557E-09
   7.09781E-09  7.11786E-09  6.97225E-09  6.41956E-09  5.58472E-09  5.03219E-09  4.43888E-09  4.74243E-09  4.79742E-09  4.43652E-09
   4.22114E-09  4.24954E-09  4.21347E-09  4.25226E-09  4.45071E-09  4.49708E-09  4.29886E-09  4.25249E-09  4.26714E-09  4.29886E-09
   4.33574E-09  4.37367E-09  4.41099E-09  4.44695E-09  4.48130E-09  4.51391E-09  4.54479E-09  4.57396E-09  4.60150E-09  4.62746E-09
   4.65192E-09  4.67494E-09  4.69658E-09  4.71691E-09  4.73597E-09  4.75382E-09  4.77048E-09  4.78601E-09  4.80044E-09  4.81378E-09
   4.82608E-09  4.83736E-09  4.84762E-09  4.85692E-09  4.86523E-09  4.87258E-09  4.87899E-09  4.88446E-09  4.88899E-09  4.89261E-09
   4.89531E-09  4.89709E-09  4.89796E-09  4.89794E-09  4.89699E-09  4.89514E-09  4.89238E-09  4.88872E-09  4.88415E-09  4.87864E-09
   4.87225E-09  4.86492E-09  4.85666E-09  4.84747E-09  4.83734E-09  4.82628E-09  4.81428E-09  4.80133E-09  4.78741E-09  4.77255E-09
   4.75670E-09  4.73989E-09  4.72209E-09  4.70330E-09  4.68353E-09  4.66275E-09  4.64094E-09  4.61815E-09  4.59432E-09  4.56947E-09
   4.54358E-09  4.51665E-09  4.48868E-09  4.45966E-09  4.42959E-09  4.39843E-09  4.36625E-09  4.33298E-09  4.29865E-09  4.26322E-09
   4.22674E-09  4.18919E-09  4.15057E-09  4.11086E-09  4.07011E-09  4.02830E-09  3.98547E-09  3.94165E-09  3.89689E-09  3.85127E-09
   3.80485E-09  3.75771E-09  3.70994E-09  3.66168E-09  3.61305E-09  3.56425E-09  3.51551E-09  3.46716E-09  3.41968E-09  3.37371E-09
   3.33028E-09  3.29106E-09  3.25892E-09  3.23939E-09  3.24454E-09  3.30636E-09  3.54120E-09  4.56831E-09  5.67328E-09  5.96444E-09
   5.82098E-09  5.67211E-09  5.63797E-09  5.69763E-09  5.84753E-09  6.10134E-09  6.27770E-09  5.77245E-09  4.09138E-09  2.70071E-09
   2.29350E-09  2.09170E-09  1.95559E-09  1.84754E-09  1.75370E-09  1.66793E-09  1.58715E-09  1.50967E-09  1.43443E-09  1.36085E-09
   1.28854E-09  1.21721E-09  1.14671E-09  1.07691E-09  1.00776E-09  9.39181E-10  8.71136E-10  8.03649E-10  7.36693E-10  6.70248E-10
   6.04340E-10  5.38975E-10  4.74175E-10  4.09947E-10  3.46297E-10  2.83276E-10  2.20882E-10  1.59136E-10  9.80567E-11  3.77033E-11
  -2.19603E-11 -8.08640E-11 -1.38997E-10 -1.96343E-10 -2.52892E-10 -3.08583E-10 -3.63417E-10 -4.17383E-10 -4.70426E-10 -5.22576E-10
  -5.73827E-10 -6.24203E-10 -6.73697E-10 -7.22330E-10 -7.70099E-10 -8.17030E-10 -8.63120E-10 -9.08381E-10 -9.52824E-10 -9.96455E-10
