 LCModel (Version 6.3-1R) Copyright: S.W. Provencher.          Ref.: Magn. Reson. Med. 30:672-679 (1993).                
 onepulse 11x21_ftSpec_smooth_lcm
 26 lines in following concentration table = NCONC+1
    Conc.  %SD   /Cr    Metabolite                                         
 3.68E-11 999%   0.000 Ala                                                 
    0.000 999%   0.000 Asp                                                 
    0.000 999%   0.000 Cr                                                  
 1.65E-10 361%   0.000 GABA                                                
    0.000 999%   0.000 Glc                                                 
    0.000 999%   0.000 Gln                                                 
    0.000 999%   0.000 Glu                                                 
 1.36E-09  30%   0.000 Glyc                                                
    0.000 999%   0.000 GPC                                                 
    0.000 999%   0.000 GSH                                                 
    0.000 999%   0.000 Ins                                                 
    0.000 999%   0.000 Lac                                                 
 4.85E-10  82%   0.000 NAAG                                                
 1.63E-10 352%   0.000 NAA                                                 
    0.000 999%   0.000 PCh                                                 
    0.000 999%   0.000 PCr                                                 
 1.03E-09  68%   0.000 PE                                                  
 1.06E-10 173%   0.000 Scyllo                                              
 7.29E-09  16%   0.000 Ser                                                 
    0.000 999%   0.000 Tau                                                 
    0.000 999%   0.000 GPC+PCh                                             
 6.48E-10  47%   0.000 NAA+NAAG                                            
 1.36E-09  30%   0.000 Ins+Glyc                                            
    0.000 999%   0.000 Cr+PCr                                              
    0.000 999%   0.000 Glu+Gln                                             
   6 lines in following misc. output table
  FWHM = 0.112 ppm    S/N =   2                                            
  Data shift = 0.447 ppm                                                   
  Ph:  21 deg     -24.0 deg/ppm                                            
  alphaB,S = 1.2E+00,   3.5E+01                                            
    9 spline knots.   Ns = 5(1)                                            
  (10) 4 infls.   ( 9) 3 extrs.                                            
  363 points on ppm-axis = NY
      4.250000     4.238821     4.227641     4.216462     4.205282     4.194103     4.182923     4.171744     4.160564     4.149385
      4.138206     4.127026     4.115847     4.104667     4.093488     4.082308     4.071129     4.059949     4.048770     4.037591
      4.026411     4.015232     4.004052     3.992873     3.981693     3.970514     3.959334     3.948155     3.936975     3.925796
      3.914617     3.903437     3.892258     3.881078     3.869899     3.858719     3.847540     3.836360     3.825181     3.814002
      3.802822     3.791643     3.780463     3.769284     3.758104     3.746925     3.735745     3.724566     3.713387     3.702207
      3.691028     3.679848     3.668669     3.657489     3.646310     3.635130     3.623951     3.612772     3.601592     3.590413
      3.579233     3.568054     3.556874     3.545695     3.534515     3.523336     3.512156     3.500977     3.489798     3.478618
      3.467439     3.456259     3.445080     3.433900     3.422721     3.411541     3.400362     3.389183     3.378003     3.366824
      3.355644     3.344465     3.333285     3.322106     3.310926     3.299747     3.288568     3.277388     3.266209     3.255029
      3.243850     3.232670     3.221491     3.210311     3.199132     3.187953     3.176773     3.165594     3.154414     3.143235
      3.132055     3.120876     3.109696     3.098517     3.087337     3.076158     3.064979     3.053799     3.042620     3.031440
      3.020261     3.009081     2.997902     2.986722     2.975543     2.964364     2.953184     2.942005     2.930825     2.919646
      2.908466     2.897287     2.886107     2.874928     2.863749     2.852569     2.841390     2.830210     2.819031     2.807851
      2.796672     2.785492     2.774313     2.763134     2.751954     2.740775     2.729595     2.718416     2.707236     2.696057
      2.684877     2.673698     2.662519     2.651339     2.640160     2.628980     2.617801     2.606621     2.595442     2.584262
      2.573083     2.561903     2.550724     2.539545     2.528365     2.517186     2.506006     2.494827     2.483647     2.472468
      2.461288     2.450109     2.438930     2.427750     2.416571     2.405391     2.394212     2.383032     2.371853     2.360673
      2.349494     2.338315     2.327135     2.315956     2.304776     2.293597     2.282417     2.271238     2.260058     2.248879
      2.237700     2.226520     2.215341     2.204161     2.192982     2.181802     2.170623     2.159443     2.148264     2.137084
      2.125905     2.114726     2.103546     2.092367     2.081187     2.070008     2.058828     2.047649     2.036469     2.025290
      2.014111     2.002931     1.991752     1.980572     1.969393     1.958213     1.947034     1.935854     1.924675     1.913496
      1.902316     1.891137     1.879957     1.868778     1.857598     1.846419     1.835239     1.824060     1.812881     1.801701
      1.790522     1.779342     1.768163     1.756983     1.745804     1.734624     1.723445     1.712265     1.701086     1.689907
      1.678727     1.667548     1.656368     1.645189     1.634009     1.622830     1.611650     1.600471     1.589292     1.578112
      1.566933     1.555753     1.544574     1.533394     1.522215     1.511035     1.499856     1.488677     1.477497     1.466318
      1.455138     1.443959     1.432779     1.421600     1.410420     1.399241     1.388062     1.376882     1.365703     1.354523
      1.343344     1.332164     1.320985     1.309805     1.298626     1.287446     1.276267     1.265088     1.253908     1.242729
      1.231549     1.220370     1.209190     1.198011     1.186831     1.175652     1.164473     1.153293     1.142114     1.130934
      1.119755     1.108575     1.097396     1.086216     1.075037     1.063858     1.052678     1.041499     1.030319     1.019140
      1.007960     0.996781     0.985601     0.974422     0.963243     0.952063     0.940884     0.929704     0.918525     0.907345
      0.896166     0.884986     0.873807     0.862628     0.851448     0.840269     0.829089     0.817910     0.806730     0.795551
      0.784371     0.773192     0.762012     0.750833     0.739654     0.728474     0.717295     0.706115     0.694936     0.683756
      0.672577     0.661397     0.650218     0.639039     0.627859     0.616680     0.605500     0.594321     0.583141     0.571962
      0.560782     0.549603     0.538424     0.527244     0.516065     0.504885     0.493706     0.482526     0.471347     0.460167
      0.448988     0.437809     0.426629     0.415450     0.404270     0.393091     0.381911     0.370732     0.359552     0.348373
      0.337193     0.326014     0.314835     0.303655     0.292476     0.281296     0.270117     0.258937     0.247758     0.236578
      0.225399     0.214220     0.203040
 NY phased data points follow
  -5.61799E-09 -5.84095E-09 -5.45299E-09 -5.45643E-09 -4.94206E-09 -5.45979E-09 -4.81341E-09 -5.23281E-09 -4.57900E-09 -4.84732E-09
  -4.59261E-09 -4.64739E-09 -4.33376E-09 -3.91888E-09 -3.19559E-09 -3.67001E-09 -3.27323E-09 -3.73425E-09 -2.78589E-09 -3.53502E-09
  -2.35102E-09 -3.00578E-09 -2.33871E-09 -3.55138E-09 -2.91128E-09 -2.84459E-09 -2.34666E-09 -1.50093E-09 -9.70978E-10 -9.75296E-10
   2.83674E-11 -4.02560E-10 -6.13587E-11 -2.05081E-10  7.58233E-10  2.99061E-10  1.36536E-09  2.74559E-10  1.26041E-09  7.66188E-10
   1.59183E-09  8.76794E-10  7.27063E-10  7.97625E-10  1.21576E-09  8.81471E-10  9.39959E-10  6.17119E-10  1.09421E-09  6.71502E-10
   7.85656E-10 -1.67166E-11  1.77866E-10  1.92074E-10 -8.26433E-10 -8.44113E-10 -2.74750E-10 -5.15104E-10  3.80998E-10  1.25845E-10
   1.21843E-09  9.54249E-10  1.63800E-09  1.79918E-09  1.55514E-09  1.36507E-09  1.35462E-09  3.26971E-10  5.67860E-10 -2.58711E-10
  -5.69376E-10 -8.58195E-10 -9.80460E-10 -3.78658E-10  4.36178E-10  1.11958E-09  1.65647E-09  2.41497E-09  3.26999E-09  4.06235E-09
   4.32409E-09  4.46604E-09  5.33687E-09  5.33708E-09  5.79111E-09  6.13020E-09  5.94012E-09  6.03175E-09  6.86731E-09  6.65194E-09
   6.61183E-09  6.79377E-09  6.48957E-09  6.80782E-09  7.04564E-09  6.64825E-09  6.82840E-09  7.19036E-09  7.00979E-09  6.80404E-09
   7.03316E-09  7.17543E-09  6.63775E-09  6.47317E-09  6.51787E-09  6.49394E-09  5.40547E-09  5.81880E-09  5.68466E-09  6.02016E-09
   5.18456E-09  5.39515E-09  5.47457E-09  5.59888E-09  5.27852E-09  5.45725E-09  5.15144E-09  4.95802E-09  4.65278E-09  4.39879E-09
   4.61421E-09  4.11498E-09  4.18523E-09  4.26549E-09  3.48360E-09  3.75746E-09  3.26607E-09  3.59535E-09  3.83477E-09  3.68866E-09
   3.36599E-09  3.05039E-09  3.44859E-09  3.96593E-09  3.44496E-09  3.96143E-09  4.17216E-09  4.39066E-09  4.56387E-09  5.37105E-09
   5.28510E-09  5.46252E-09  6.27011E-09  6.82699E-09  6.21958E-09  7.16269E-09  7.08777E-09  7.32885E-09  7.54788E-09  7.15849E-09
   7.52149E-09  7.32396E-09  7.42038E-09  7.84528E-09  7.74122E-09  8.27729E-09  8.30421E-09  8.10046E-09  8.17737E-09  8.56196E-09
   8.90131E-09  9.98971E-09  1.03053E-08  1.18910E-08  1.32990E-08  1.53418E-08  1.65585E-08  1.81108E-08  1.82763E-08  1.94544E-08
   1.98991E-08  2.00971E-08  2.05962E-08  2.12478E-08  2.11777E-08  2.06126E-08  2.07767E-08  2.03046E-08  1.94018E-08  1.93133E-08
   1.80766E-08  1.72107E-08  1.61845E-08  1.45959E-08  1.34931E-08  1.21105E-08  1.02687E-08  8.04205E-09  6.31912E-09  3.81539E-09
   1.20364E-09 -8.39057E-10 -3.58647E-09 -6.00855E-09 -8.00009E-09 -1.04401E-08 -1.21725E-08 -1.30010E-08 -1.45016E-08 -1.44764E-08
  -1.44208E-08 -1.34917E-08 -1.23382E-08 -1.13849E-08 -9.94202E-09 -8.32567E-09 -6.99754E-09 -5.52299E-09 -5.51482E-09 -4.20982E-09
  -3.77178E-09 -2.92328E-09 -3.57528E-09 -2.73667E-09 -2.63574E-09 -2.37197E-09 -2.69943E-09 -2.44703E-09 -2.73463E-09 -2.31347E-09
  -3.07516E-09 -2.68457E-09 -2.76602E-09 -2.98380E-09 -3.02176E-09 -2.94637E-09 -2.45693E-09 -2.30058E-09 -2.09389E-09 -2.46660E-09
  -2.80943E-09 -2.42409E-09 -2.60518E-09 -2.61597E-09 -2.55778E-09 -2.14320E-09 -2.52087E-09 -2.60758E-09 -2.22793E-09 -2.46723E-09
  -2.15843E-09 -2.17040E-09 -2.21919E-09 -2.09460E-09 -2.29463E-09 -2.08052E-09 -1.86921E-09 -2.00777E-09 -2.16110E-09 -1.96890E-09
  -2.18735E-09 -1.85957E-09 -2.32688E-09 -2.49737E-09 -2.67657E-09 -3.04886E-09 -2.69872E-09 -2.82010E-09 -2.78632E-09 -2.43873E-09
  -2.30379E-09 -2.02097E-09 -2.21435E-09 -2.00185E-09 -2.26129E-09 -1.81029E-09 -1.85197E-09 -1.44245E-09 -1.54088E-09 -1.34279E-09
  -1.21308E-09 -1.33512E-09 -1.16721E-09 -1.08105E-09 -1.34724E-09 -1.59300E-09 -1.54774E-09 -1.94712E-09 -1.49625E-09 -2.09873E-09
  -2.20242E-09 -1.90375E-09 -2.26253E-09 -2.27662E-09 -1.67401E-09 -2.40457E-09 -1.86184E-09 -2.33009E-09 -2.26341E-09 -2.32410E-09
  -2.33171E-09 -2.56736E-09 -1.90599E-09 -2.96261E-09 -3.02686E-09 -2.72297E-09 -2.92002E-09 -2.08603E-09 -2.58331E-09 -2.57749E-09
  -2.90110E-09 -2.53399E-09 -2.08519E-09 -2.14273E-09 -2.41498E-09 -2.45310E-09 -2.58312E-09 -2.78981E-09 -1.77165E-09 -2.37932E-09
  -1.73119E-09 -2.47616E-09 -2.02228E-09 -2.40358E-09 -2.24721E-09 -2.31600E-09 -1.85075E-09 -2.43705E-09 -1.30854E-09 -2.22828E-09
  -1.63749E-09 -1.72364E-09 -1.67589E-09 -1.63664E-09 -1.36148E-09 -1.92818E-09 -1.28496E-09 -1.07718E-09 -1.15429E-09 -1.15786E-09
  -8.75735E-10 -1.61723E-09 -7.48496E-10 -7.97570E-10 -1.15960E-09 -7.90600E-10 -5.44012E-10 -7.56396E-10 -6.15990E-10 -8.15847E-10
  -3.86113E-10 -4.81372E-10 -2.05956E-10 -3.77612E-11 -3.58029E-11  1.66972E-10 -4.54781E-11 -4.75472E-10  2.60841E-10 -1.11043E-10
   1.55080E-10  3.99714E-10  4.78394E-10  3.53074E-10  5.24467E-10  8.37558E-10  2.59270E-10  6.28816E-10  9.32582E-10  9.63801E-10
   9.41454E-10  9.94640E-10  1.32869E-09
 NY points of the fit to the data follow
  -1.17463E-08 -7.98730E-09 -6.98425E-09 -5.58313E-09 -3.47169E-09 -1.76551E-09 -1.46560E-09 -2.50518E-09 -4.48913E-09 -5.73853E-09
  -5.81208E-09 -5.36726E-09 -4.92043E-09 -4.67287E-09 -4.61810E-09 -4.57219E-09 -4.25726E-09 -3.54707E-09 -2.34374E-09 -1.51939E-09
  -2.05342E-09 -2.63973E-09 -2.99785E-09 -3.21936E-09 -3.18793E-09 -3.00830E-09 -2.53563E-09 -1.87671E-09 -1.29519E-09 -9.93107E-10
  -6.21497E-10 -1.93335E-10  1.55773E-10  4.08485E-10  6.34924E-10  7.12071E-10  7.49114E-10  6.43969E-10  5.66743E-10  5.09711E-10
   4.62071E-10  4.70125E-10  5.11671E-10  5.67112E-10  6.01022E-10  6.45944E-10  6.57878E-10  6.66532E-10  6.76344E-10  7.49685E-10
   8.44957E-10  9.74711E-10  1.08348E-09  1.14464E-09  1.13391E-09  1.15824E-09  1.21478E-09  1.33568E-09  1.47164E-09  1.56589E-09
   1.54670E-09  1.49250E-09  1.46033E-09  1.49621E-09  1.53864E-09  1.62271E-09  1.71419E-09  1.75662E-09  1.76331E-09  1.82259E-09
   1.91637E-09  2.06180E-09  2.24488E-09  2.34623E-09  2.27506E-09  1.95631E-09  2.25936E-09  3.12839E-09  4.20900E-09  5.12229E-09
   5.77733E-09  6.17701E-09  6.43218E-09  6.86403E-09  7.59591E-09  8.32570E-09  8.55954E-09  8.05961E-09  7.62063E-09  7.28924E-09
   7.08918E-09  6.95042E-09  6.87014E-09  6.80099E-09  6.72145E-09  6.66638E-09  6.62643E-09  6.57263E-09  6.52156E-09  6.46904E-09
   6.43841E-09  6.42884E-09  6.41003E-09  6.39945E-09  6.40173E-09  6.40673E-09  6.41008E-09  6.41263E-09  6.41328E-09  6.40679E-09
   6.38680E-09  6.35802E-09  6.34525E-09  6.32387E-09  6.27945E-09  6.24238E-09  6.21098E-09  6.18196E-09  6.15379E-09  6.12569E-09
   6.09705E-09  6.06762E-09  6.03711E-09  6.00534E-09  5.97217E-09  5.93747E-09  5.90114E-09  5.86309E-09  5.82326E-09  5.78156E-09
   5.73793E-09  5.69234E-09  5.64469E-09  5.59497E-09  5.54311E-09  5.48908E-09  5.43279E-09  5.37423E-09  5.31334E-09  5.25005E-09
   5.18432E-09  5.11607E-09  5.04524E-09  4.97177E-09  4.89552E-09  4.81642E-09  4.73437E-09  4.64924E-09  4.56085E-09  4.46907E-09
   4.37369E-09  4.27443E-09  4.17106E-09  4.06327E-09  3.95063E-09  3.83272E-09  3.70908E-09  3.57913E-09  3.44232E-09  3.29828E-09
   3.14702E-09  2.99011E-09  2.83326E-09  2.69561E-09  2.64719E-09  3.02623E-09  6.20404E-09  1.27230E-08  1.80681E-08  2.06621E-08
   2.11931E-08  2.09094E-08  2.08088E-08  2.13827E-08  2.22701E-08  2.20745E-08  1.90151E-08  1.30221E-08  8.03826E-09  6.19119E-09
   5.25200E-09  4.64402E-09  4.19689E-09  3.84157E-09  3.54424E-09  3.28618E-09  3.05610E-09  2.84674E-09  2.65321E-09  2.47210E-09
   2.30093E-09  2.13789E-09  1.98159E-09  1.83100E-09  1.68528E-09  1.54378E-09  1.40601E-09  1.27154E-09  1.14004E-09  1.01125E-09
   8.84962E-10  7.60970E-10  6.39150E-10  5.19388E-10  4.01578E-10  2.85650E-10  1.71539E-10  5.92246E-11 -5.13633E-11 -1.60242E-10
  -2.67428E-10 -3.72924E-10 -4.76747E-10 -5.78890E-10 -6.79375E-10 -7.78175E-10 -8.75275E-10 -9.70678E-10 -1.06438E-09 -1.15634E-09
  -1.24656E-09 -1.33500E-09 -1.42167E-09 -1.50655E-09 -1.58961E-09 -1.67081E-09 -1.75017E-09 -1.82765E-09 -1.90321E-09 -1.97686E-09
  -2.04856E-09 -2.11831E-09 -2.18607E-09 -2.25184E-09 -2.31559E-09 -2.37730E-09 -2.43697E-09 -2.49457E-09 -2.55010E-09 -2.60352E-09
  -2.65484E-09 -2.70404E-09 -2.75111E-09 -2.79606E-09 -2.83889E-09 -2.87964E-09 -2.91832E-09 -2.95493E-09 -2.98951E-09 -3.02206E-09
  -3.05261E-09 -3.08117E-09 -3.10775E-09 -3.13239E-09 -3.15510E-09 -3.17588E-09 -3.19478E-09 -3.21179E-09 -3.22695E-09 -3.24027E-09
  -3.25176E-09 -3.26146E-09 -3.26937E-09 -3.27552E-09 -3.27992E-09 -3.28261E-09 -3.28358E-09 -3.28287E-09 -3.28049E-09 -3.27646E-09
  -3.27080E-09 -3.26354E-09 -3.25468E-09 -3.24425E-09 -3.23227E-09 -3.21875E-09 -3.20372E-09 -3.18718E-09 -3.16917E-09 -3.14969E-09
  -3.12877E-09 -3.10642E-09 -3.08267E-09 -3.05751E-09 -3.03098E-09 -3.00309E-09 -2.97385E-09 -2.94329E-09 -2.91141E-09 -2.87823E-09
  -2.84377E-09 -2.80804E-09 -2.77105E-09 -2.73282E-09 -2.69337E-09 -2.65270E-09 -2.61082E-09 -2.56775E-09 -2.52351E-09 -2.47809E-09
  -2.43152E-09 -2.38380E-09 -2.33495E-09 -2.28496E-09 -2.23385E-09 -2.18162E-09 -2.12828E-09 -2.07384E-09 -2.01829E-09 -1.96165E-09
  -1.90393E-09 -1.84513E-09 -1.78525E-09 -1.72431E-09 -1.66232E-09 -1.59928E-09 -1.53520E-09 -1.47009E-09 -1.40396E-09 -1.33683E-09
  -1.26869E-09 -1.19956E-09 -1.12945E-09 -1.05838E-09 -9.86349E-10 -9.13371E-10 -8.39458E-10 -7.64624E-10 -6.88880E-10 -6.12238E-10
  -5.34710E-10 -4.56311E-10 -3.77054E-10 -2.96952E-10 -2.16017E-10 -1.34265E-10 -5.17118E-11  3.16304E-11  1.15745E-10  2.00617E-10
   2.86233E-10  3.72574E-10  4.59628E-10  5.47376E-10  6.35804E-10  7.24893E-10  8.14626E-10  9.04989E-10  9.95963E-10  1.08753E-09
   1.17967E-09  1.27237E-09  1.36561E-09  1.45937E-09  1.55363E-09  1.64837E-09  1.74359E-09  1.83924E-09  1.93532E-09  2.03181E-09
   2.12869E-09  2.22593E-09  2.32352E-09
 NY background values follow
    -9.829E-09   -9.653E-09   -9.477E-09   -9.301E-09   -9.124E-09   -8.948E-09   -8.771E-09   -8.594E-09   -8.417E-09   -8.240E-09
    -8.063E-09   -7.886E-09   -7.709E-09   -7.533E-09   -7.356E-09   -7.180E-09   -7.004E-09   -6.828E-09   -6.652E-09   -6.477E-09
    -6.302E-09   -6.128E-09   -5.954E-09   -5.780E-09   -5.607E-09   -5.435E-09   -5.263E-09   -5.092E-09   -4.921E-09   -4.751E-09
    -4.581E-09   -4.413E-09   -4.245E-09   -4.078E-09   -3.911E-09   -3.746E-09   -3.581E-09   -3.417E-09   -3.254E-09   -3.093E-09
    -2.932E-09   -2.772E-09   -2.613E-09   -2.455E-09   -2.298E-09   -2.143E-09   -1.988E-09   -1.835E-09   -1.683E-09   -1.532E-09
    -1.382E-09   -1.234E-09   -1.087E-09   -9.409E-10   -7.964E-10   -6.531E-10   -5.113E-10   -3.708E-10   -2.318E-10   -9.413E-11
     4.207E-11    1.768E-10    3.101E-10    4.419E-10    5.721E-10    7.009E-10    8.280E-10    9.537E-10    1.078E-09    1.200E-09
     1.321E-09    1.440E-09    1.558E-09    1.673E-09    1.788E-09    1.900E-09    2.011E-09    2.120E-09    2.227E-09    2.332E-09
     2.436E-09    2.538E-09    2.638E-09    2.736E-09    2.832E-09    2.926E-09    3.019E-09    3.109E-09    3.198E-09    3.284E-09
     3.369E-09    3.452E-09    3.532E-09    3.611E-09    3.688E-09    3.762E-09    3.835E-09    3.905E-09    3.973E-09    4.040E-09
     4.104E-09    4.166E-09    4.225E-09    4.283E-09    4.338E-09    4.392E-09    4.443E-09    4.491E-09    4.538E-09    4.582E-09
     4.624E-09    4.664E-09    4.701E-09    4.736E-09    4.769E-09    4.800E-09    4.828E-09    4.854E-09    4.877E-09    4.899E-09
     4.917E-09    4.934E-09    4.948E-09    4.959E-09    4.969E-09    4.976E-09    4.980E-09    4.982E-09    4.982E-09    4.980E-09
     4.975E-09    4.968E-09    4.959E-09    4.947E-09    4.933E-09    4.917E-09    4.899E-09    4.879E-09    4.856E-09    4.831E-09
     4.804E-09    4.775E-09    4.744E-09    4.711E-09    4.675E-09    4.638E-09    4.599E-09    4.557E-09    4.514E-09    4.469E-09
     4.422E-09    4.373E-09    4.322E-09    4.270E-09    4.216E-09    4.160E-09    4.102E-09    4.043E-09    3.982E-09    3.919E-09
     3.855E-09    3.790E-09    3.723E-09    3.654E-09    3.584E-09    3.513E-09    3.441E-09    3.367E-09    3.292E-09    3.216E-09
     3.138E-09    3.060E-09    2.981E-09    2.900E-09    2.818E-09    2.736E-09    2.653E-09    2.569E-09    2.484E-09    2.398E-09
     2.312E-09    2.224E-09    2.137E-09    2.048E-09    1.960E-09    1.870E-09    1.781E-09    1.691E-09    1.601E-09    1.510E-09
     1.419E-09    1.329E-09    1.238E-09    1.147E-09    1.056E-09    9.650E-10    8.743E-10    7.838E-10    6.936E-10    6.036E-10
     5.140E-10    4.248E-10    3.361E-10    2.479E-10    1.602E-10    7.312E-11   -1.329E-11   -9.898E-11   -1.839E-10   -2.681E-10
    -3.513E-10   -4.337E-10   -5.152E-10   -5.956E-10   -6.750E-10   -7.533E-10   -8.305E-10   -9.065E-10   -9.813E-10   -1.055E-09
    -1.127E-09   -1.198E-09   -1.267E-09   -1.336E-09   -1.402E-09   -1.467E-09   -1.531E-09   -1.593E-09   -1.654E-09   -1.712E-09
    -1.770E-09   -1.825E-09   -1.879E-09   -1.931E-09   -1.982E-09   -2.030E-09   -2.077E-09   -2.122E-09   -2.165E-09   -2.206E-09
    -2.245E-09   -2.282E-09   -2.318E-09   -2.351E-09   -2.383E-09   -2.413E-09   -2.440E-09   -2.466E-09   -2.490E-09   -2.513E-09
    -2.533E-09   -2.551E-09   -2.568E-09   -2.583E-09   -2.596E-09   -2.608E-09   -2.617E-09   -2.625E-09   -2.631E-09   -2.636E-09
    -2.639E-09   -2.640E-09   -2.639E-09   -2.637E-09   -2.634E-09   -2.628E-09   -2.622E-09   -2.613E-09   -2.603E-09   -2.592E-09
    -2.579E-09   -2.564E-09   -2.548E-09   -2.531E-09   -2.512E-09   -2.492E-09   -2.470E-09   -2.447E-09   -2.423E-09   -2.397E-09
    -2.370E-09   -2.342E-09   -2.312E-09   -2.281E-09   -2.249E-09   -2.216E-09   -2.181E-09   -2.145E-09   -2.108E-09   -2.070E-09
    -2.030E-09   -1.989E-09   -1.948E-09   -1.905E-09   -1.861E-09   -1.815E-09   -1.769E-09   -1.722E-09   -1.673E-09   -1.624E-09
    -1.573E-09   -1.522E-09   -1.469E-09   -1.415E-09   -1.361E-09   -1.305E-09   -1.248E-09   -1.190E-09   -1.132E-09   -1.072E-09
    -1.011E-09   -9.493E-10   -8.866E-10   -8.229E-10   -7.582E-10   -6.926E-10   -6.260E-10   -5.585E-10   -4.901E-10   -4.207E-10
    -3.504E-10   -2.793E-10   -2.072E-10   -1.343E-10   -6.047E-11    1.420E-11    8.972E-11    1.661E-10    2.433E-10    3.213E-10
     4.000E-10    4.796E-10    5.600E-10    6.411E-10    7.230E-10    8.056E-10    8.889E-10    9.729E-10    1.058E-09    1.143E-09
     1.229E-09    1.316E-09    1.403E-09    1.491E-09    1.580E-09    1.669E-09    1.759E-09    1.849E-09    1.940E-09    2.031E-09
     2.123E-09    2.215E-09    2.308E-09    2.401E-09    2.495E-09    2.589E-09    2.683E-09    2.778E-09    2.873E-09    2.969E-09
     3.064E-09    3.161E-09    3.257E-09
 Ala      Conc. = 3.68E-11
  -9.86158E-09 -9.68363E-09 -9.50516E-09 -9.32641E-09 -9.14700E-09 -8.96682E-09 -8.78493E-09 -8.60351E-09 -8.42540E-09 -8.24499E-09
  -8.06316E-09 -7.88603E-09 -7.70903E-09 -7.53076E-09 -7.35407E-09 -7.17817E-09 -7.00261E-09 -6.82732E-09 -6.65232E-09 -6.47761E-09
  -6.30323E-09 -6.12921E-09 -5.95560E-09 -5.78243E-09 -5.60975E-09 -5.43758E-09 -5.26594E-09 -5.09489E-09 -4.92446E-09 -4.75466E-09
  -4.58556E-09 -4.41715E-09 -4.24949E-09 -4.08261E-09 -3.91652E-09 -3.75127E-09 -3.58688E-09 -3.42339E-09 -3.26081E-09 -3.09919E-09
  -2.93854E-09 -2.77889E-09 -2.62028E-09 -2.46272E-09 -2.30625E-09 -2.15089E-09 -1.99667E-09 -1.84360E-09 -1.69172E-09 -1.54106E-09
  -1.39162E-09 -1.24344E-09 -1.09654E-09 -9.50942E-10 -8.06666E-10 -6.63736E-10 -5.22173E-10 -3.82000E-10 -2.43233E-10 -1.05896E-10
   2.99951E-11  1.64419E-10  2.97357E-10  4.28791E-10  5.58701E-10  6.87068E-10  8.13873E-10  9.39097E-10  1.06272E-09  1.18472E-09
   1.30509E-09  1.42379E-09  1.54082E-09  1.65614E-09  1.76974E-09  1.88161E-09  1.99171E-09  2.10003E-09  2.20654E-09  2.31123E-09
   2.41407E-09  2.51504E-09  2.61410E-09  2.71124E-09  2.80643E-09  2.89964E-09  2.99084E-09  3.07999E-09  3.16705E-09  3.25198E-09
   3.33473E-09  3.41525E-09  3.49345E-09  3.56923E-09  3.64248E-09  3.71303E-09  3.78067E-09  3.84508E-09  3.90606E-09  3.96549E-09
   4.04767E-09  4.13301E-09  4.20007E-09  4.27746E-09  4.36289E-09  4.44548E-09  4.52146E-09  4.59235E-09  4.65793E-09  4.71331E-09
   4.75246E-09  4.78039E-09  4.82217E-09  4.85339E-09  4.85983E-09  4.87204E-09  4.88848E-09  4.90600E-09  4.92320E-09  4.93940E-09
   4.95411E-09  4.96714E-09  4.97829E-09  4.98749E-09  4.99462E-09  4.99966E-09  5.00255E-09  5.00327E-09  5.00180E-09  4.99814E-09
   4.99227E-09  4.98421E-09  4.97393E-09  4.96145E-09  4.94678E-09  4.92994E-09  4.91091E-09  4.88972E-09  4.86640E-09  4.84095E-09
   4.81339E-09  4.78373E-09  4.75201E-09  4.71826E-09  4.68245E-09  4.64464E-09  4.60485E-09  4.56312E-09  4.51944E-09  4.47387E-09
   4.42645E-09  4.37715E-09  4.32604E-09  4.27317E-09  4.21853E-09  4.16214E-09  4.10409E-09  4.04437E-09  3.98301E-09  3.92007E-09
   3.85554E-09  3.78951E-09  3.72198E-09  3.65306E-09  3.58287E-09  3.51199E-09  3.44398E-09  3.39351E-09  3.34139E-09  3.27797E-09
   3.20433E-09  3.12520E-09  3.04471E-09  2.96550E-09  2.88778E-09  2.80781E-09  2.71869E-09  2.61584E-09  2.50736E-09  2.41353E-09
   2.32350E-09  2.23426E-09  2.14509E-09  2.05576E-09  1.96613E-09  1.87621E-09  1.78601E-09  1.69553E-09  1.60482E-09  1.51393E-09
   1.42288E-09  1.33174E-09  1.24054E-09  1.14935E-09  1.05821E-09  9.67160E-10  8.76272E-10  7.85590E-10  6.95157E-10  6.05040E-10
   5.15286E-10  4.25930E-10  3.37038E-10  2.48666E-10  1.60851E-10  7.36502E-11 -1.28934E-11 -9.87025E-11 -1.83763E-10 -2.68019E-10
  -3.51416E-10 -4.33898E-10 -5.15430E-10 -5.95955E-10 -6.75456E-10 -7.53863E-10 -8.31126E-10 -9.07218E-10 -9.82105E-10 -1.05572E-09
  -1.12804E-09 -1.19901E-09 -1.26860E-09 -1.33679E-09 -1.40353E-09 -1.46876E-09 -1.53248E-09 -1.59465E-09 -1.65521E-09 -1.71415E-09
  -1.77144E-09 -1.82704E-09 -1.88093E-09 -1.93309E-09 -1.98347E-09 -2.03207E-09 -2.07885E-09 -2.12380E-09 -2.16689E-09 -2.20809E-09
  -2.24740E-09 -2.28480E-09 -2.32027E-09 -2.35381E-09 -2.38543E-09 -2.41515E-09 -2.44298E-09 -2.46893E-09 -2.49301E-09 -2.51524E-09
  -2.53563E-09 -2.55420E-09 -2.57096E-09 -2.58593E-09 -2.59913E-09 -2.61056E-09 -2.62025E-09 -2.62820E-09 -2.63445E-09 -2.63900E-09
  -2.64187E-09 -2.64309E-09 -2.64266E-09 -2.64060E-09 -2.63693E-09 -2.63168E-09 -2.62484E-09 -2.61646E-09 -2.60653E-09 -2.59508E-09
  -2.58213E-09 -2.56770E-09 -2.55180E-09 -2.53444E-09 -2.51566E-09 -2.49546E-09 -2.47386E-09 -2.45088E-09 -2.42654E-09 -2.40084E-09
  -2.37382E-09 -2.34549E-09 -2.31585E-09 -2.28493E-09 -2.25275E-09 -2.21932E-09 -2.18464E-09 -2.14875E-09 -2.11165E-09 -2.07336E-09
  -2.03389E-09 -1.99326E-09 -1.95147E-09 -1.90855E-09 -1.86450E-09 -1.81934E-09 -1.77308E-09 -1.72572E-09 -1.67729E-09 -1.62778E-09
  -1.57722E-09 -1.52562E-09 -1.47296E-09 -1.41928E-09 -1.36458E-09 -1.30884E-09 -1.25210E-09 -1.19434E-09 -1.13557E-09 -1.07581E-09
  -1.01505E-09 -9.53309E-10 -8.90587E-10 -8.26893E-10 -7.62235E-10 -6.96621E-10 -6.30060E-10 -5.62559E-10 -4.94128E-10 -4.24775E-10
  -3.54511E-10 -2.83345E-10 -2.11288E-10 -1.38348E-10 -6.45383E-11  1.01319E-11  8.56508E-11  1.62007E-10  2.39189E-10  3.17184E-10
   3.95980E-10  4.75566E-10  5.55926E-10  6.37049E-10  7.18922E-10  8.01530E-10  8.84859E-10  9.68895E-10  1.05362E-09  1.13903E-09
   1.22510E-09  1.31182E-09  1.39917E-09  1.48714E-09  1.57571E-09  1.66486E-09  1.75458E-09  1.84486E-09  1.93566E-09  2.02699E-09
   2.11881E-09  2.21112E-09  2.30389E-09  2.39711E-09  2.49076E-09  2.58482E-09  2.67927E-09  2.77409E-09  2.86927E-09  2.96478E-09
   3.06061E-09  3.15673E-09  3.25313E-09
 GABA     Conc. = 1.65E-10
  -9.90438E-09 -9.73063E-09 -9.55669E-09 -9.38261E-09 -9.20841E-09 -9.03417E-09 -8.85993E-09 -8.68572E-09 -8.51161E-09 -8.33766E-09
  -8.16390E-09 -7.99041E-09 -7.81725E-09 -7.64447E-09 -7.47215E-09 -7.30037E-09 -7.12921E-09 -6.95878E-09 -6.78921E-09 -6.62061E-09
  -6.45316E-09 -6.28706E-09 -6.12259E-09 -5.96010E-09 -5.80006E-09 -5.64321E-09 -5.49063E-09 -5.34413E-09 -5.20644E-09 -5.06858E-09
  -4.89951E-09 -4.74175E-09 -4.59869E-09 -4.40855E-09 -4.20031E-09 -4.00532E-09 -3.79830E-09 -3.57607E-09 -3.34867E-09 -3.12960E-09
  -2.92786E-09 -2.73047E-09 -2.52118E-09 -2.35216E-09 -2.21376E-09 -2.05264E-09 -1.89960E-09 -1.76933E-09 -1.63854E-09 -1.50632E-09
  -1.37336E-09 -1.24026E-09 -1.10764E-09 -9.75936E-10 -8.45509E-10 -7.16781E-10 -5.90213E-10 -4.66338E-10 -3.45842E-10 -2.29590E-10
  -1.18464E-10 -9.00401E-12  1.34573E-10  2.83525E-10  4.07145E-10  5.73798E-10  7.64115E-10  9.33993E-10  1.10111E-09  1.27355E-09
   1.44580E-09  1.60640E-09  1.74492E-09  1.86691E-09  2.00136E-09  2.10504E-09  2.16290E-09  2.25005E-09  2.33968E-09  2.40656E-09
   2.49030E-09  2.57709E-09  2.64733E-09  2.74325E-09  2.85667E-09  2.95236E-09  3.05674E-09  3.17572E-09  3.29316E-09  3.40971E-09
   3.51832E-09  3.62223E-09  3.73557E-09  3.83245E-09  3.90088E-09  3.98394E-09  4.06423E-09  4.11671E-09  4.17194E-09  4.23024E-09
   4.28056E-09  4.32911E-09  4.37733E-09  4.42496E-09  4.47170E-09  4.51724E-09  4.56136E-09  4.60393E-09  4.64484E-09  4.68400E-09
   4.72134E-09  4.75674E-09  4.79017E-09  4.82154E-09  4.85086E-09  4.87807E-09  4.90316E-09  4.92609E-09  4.94681E-09  4.96537E-09
   4.98161E-09  4.99562E-09  5.00736E-09  5.01683E-09  5.02402E-09  5.02894E-09  5.03157E-09  5.03192E-09  5.03001E-09  5.02584E-09
   5.01940E-09  5.01072E-09  4.99980E-09  4.98665E-09  4.97128E-09  4.95372E-09  4.93396E-09  4.91203E-09  4.88796E-09  4.86174E-09
   4.83340E-09  4.80296E-09  4.77045E-09  4.73590E-09  4.69928E-09  4.66065E-09  4.62003E-09  4.57746E-09  4.53292E-09  4.48648E-09
   4.43817E-09  4.38795E-09  4.33591E-09  4.28207E-09  4.22642E-09  4.16899E-09  4.10984E-09  4.04896E-09  3.98638E-09  3.92215E-09
   3.85623E-09  3.78873E-09  3.71967E-09  3.64926E-09  3.57805E-09  3.50842E-09  3.45578E-09  3.48607E-09  3.51383E-09  3.49525E-09
   3.43479E-09  3.35342E-09  3.26949E-09  3.19493E-09  3.13034E-09  3.05911E-09  2.95029E-09  2.78284E-09  2.59230E-09  2.47003E-09
   2.36738E-09  2.27072E-09  2.17651E-09  2.08345E-09  1.99091E-09  1.89862E-09  1.80643E-09  1.71425E-09  1.62205E-09  1.52984E-09
   1.43761E-09  1.34540E-09  1.25322E-09  1.16112E-09  1.06914E-09  9.77309E-10  8.85685E-10  7.94309E-10  7.03220E-10  6.12479E-10
   5.22131E-10  4.32207E-10  3.42771E-10  2.53877E-10  1.65560E-10  7.78749E-11 -9.13618E-12 -9.53974E-11 -1.80896E-10 -2.65575E-10
  -3.49385E-10 -4.32267E-10 -5.14188E-10 -5.95092E-10 -6.74962E-10 -7.53729E-10 -8.31344E-10 -9.07778E-10 -9.83001E-10 -1.05695E-09
  -1.12958E-09 -1.20086E-09 -1.27076E-09 -1.33925E-09 -1.40629E-09 -1.47180E-09 -1.53581E-09 -1.59825E-09 -1.65909E-09 -1.71829E-09
