 LCModel (Version 6.3-1R) Copyright: S.W. Provencher.          Ref.: Magn. Reson. Med. 30:672-679 (1993).                
 onepulse 11x25_ftSpec_smooth_lcm
 26 lines in following concentration table = NCONC+1
    Conc.  %SD   /Cr    Metabolite                                         
    0.000 999%   0.000 Ala                                                 
    0.000 999%   0.000 Asp                                                 
    0.000 999%   0.000 Cr                                                  
    0.000 999%   0.000 GABA                                                
    0.000 999%   0.000 Glc                                                 
    0.000 999%   0.000 Gln                                                 
    0.000 999%   0.000 Glu                                                 
    0.000 999%   0.000 Glyc                                                
    0.000 999%   0.000 GPC                                                 
    0.000 999%   0.000 GSH                                                 
    0.000 999%   0.000 Ins                                                 
 1.61E-10 254%   0.000 Lac                                                 
    0.000 999%   0.000 NAAG                                                
    0.000 999%   0.000 NAA                                                 
    0.000 999%   0.000 PCh                                                 
    0.000 999%   0.000 PCr                                                 
    0.000 999%   0.000 PE                                                  
    0.000 999%   0.000 Scyllo                                              
    0.000 999%   0.000 Ser                                                 
    0.000 999%   0.000 Tau                                                 
    0.000 999%   0.000 GPC+PCh                                             
    0.000 999%   0.000 NAA+NAAG                                            
    0.000 999%   0.000 Ins+Glyc                                            
    0.000 999%   0.000 Cr+PCr                                              
    0.000 999%   0.000 Glu+Gln                                             
   6 lines in following misc. output table
  FWHM = 0.089 ppm    S/N =   0                                            
  Data shift = 0.201 ppm                                                   
  Ph:-179 deg      29.5 deg/ppm                                            
  alphaB,S = 1.2E+00,   1.6E+00                                            
    9 spline knots.   Ns = 5(1)                                            
  ( 4) 2 infls.   ( 3) 1 extrs.                                            
  363 points on ppm-axis = NY
      4.250000     4.238821     4.227641     4.216462     4.205282     4.194103     4.182923     4.171744     4.160564     4.149385
      4.138206     4.127026     4.115847     4.104667     4.093488     4.082308     4.071129     4.059949     4.048770     4.037591
      4.026411     4.015232     4.004052     3.992873     3.981693     3.970514     3.959334     3.948155     3.936975     3.925796
      3.914617     3.903437     3.892258     3.881078     3.869899     3.858719     3.847540     3.836360     3.825181     3.814002
      3.802822     3.791643     3.780463     3.769284     3.758104     3.746925     3.735745     3.724566     3.713387     3.702207
      3.691028     3.679848     3.668669     3.657489     3.646310     3.635130     3.623951     3.612772     3.601592     3.590413
      3.579233     3.568054     3.556874     3.545695     3.534515     3.523336     3.512156     3.500977     3.489798     3.478618
      3.467439     3.456259     3.445080     3.433900     3.422721     3.411541     3.400362     3.389183     3.378003     3.366824
      3.355644     3.344465     3.333285     3.322106     3.310926     3.299747     3.288568     3.277388     3.266209     3.255029
      3.243850     3.232670     3.221491     3.210311     3.199132     3.187953     3.176773     3.165594     3.154414     3.143235
      3.132055     3.120876     3.109696     3.098517     3.087337     3.076158     3.064979     3.053799     3.042620     3.031440
      3.020261     3.009081     2.997902     2.986722     2.975543     2.964364     2.953184     2.942005     2.930825     2.919646
      2.908466     2.897287     2.886107     2.874928     2.863749     2.852569     2.841390     2.830210     2.819031     2.807851
      2.796672     2.785492     2.774313     2.763134     2.751954     2.740775     2.729595     2.718416     2.707236     2.696057
      2.684877     2.673698     2.662519     2.651339     2.640160     2.628980     2.617801     2.606621     2.595442     2.584262
      2.573083     2.561903     2.550724     2.539545     2.528365     2.517186     2.506006     2.494827     2.483647     2.472468
      2.461288     2.450109     2.438930     2.427750     2.416571     2.405391     2.394212     2.383032     2.371853     2.360673
      2.349494     2.338315     2.327135     2.315956     2.304776     2.293597     2.282417     2.271238     2.260058     2.248879
      2.237700     2.226520     2.215341     2.204161     2.192982     2.181802     2.170623     2.159443     2.148264     2.137084
      2.125905     2.114726     2.103546     2.092367     2.081187     2.070008     2.058828     2.047649     2.036469     2.025290
      2.014111     2.002931     1.991752     1.980572     1.969393     1.958213     1.947034     1.935854     1.924675     1.913496
      1.902316     1.891137     1.879957     1.868778     1.857598     1.846419     1.835239     1.824060     1.812881     1.801701
      1.790522     1.779342     1.768163     1.756983     1.745804     1.734624     1.723445     1.712265     1.701086     1.689907
      1.678727     1.667548     1.656368     1.645189     1.634009     1.622830     1.611650     1.600471     1.589292     1.578112
      1.566933     1.555753     1.544574     1.533394     1.522215     1.511035     1.499856     1.488677     1.477497     1.466318
      1.455138     1.443959     1.432779     1.421600     1.410420     1.399241     1.388062     1.376882     1.365703     1.354523
      1.343344     1.332164     1.320985     1.309805     1.298626     1.287446     1.276267     1.265088     1.253908     1.242729
      1.231549     1.220370     1.209190     1.198011     1.186831     1.175652     1.164473     1.153293     1.142114     1.130934
      1.119755     1.108575     1.097396     1.086216     1.075037     1.063858     1.052678     1.041499     1.030319     1.019140
      1.007960     0.996781     0.985601     0.974422     0.963243     0.952063     0.940884     0.929704     0.918525     0.907345
      0.896166     0.884986     0.873807     0.862628     0.851448     0.840269     0.829089     0.817910     0.806730     0.795551
      0.784371     0.773192     0.762012     0.750833     0.739654     0.728474     0.717295     0.706115     0.694936     0.683756
      0.672577     0.661397     0.650218     0.639039     0.627859     0.616680     0.605500     0.594321     0.583141     0.571962
      0.560782     0.549603     0.538424     0.527244     0.516065     0.504885     0.493706     0.482526     0.471347     0.460167
      0.448988     0.437809     0.426629     0.415450     0.404270     0.393091     0.381911     0.370732     0.359552     0.348373
      0.337193     0.326014     0.314835     0.303655     0.292476     0.281296     0.270117     0.258937     0.247758     0.236578
      0.225399     0.214220     0.203040
 NY phased data points follow
  -7.77196E-09 -7.75538E-09 -7.34647E-09 -6.60625E-09 -7.37413E-09 -6.95363E-09 -7.11839E-09 -6.09478E-09 -7.13354E-09 -6.89633E-09
  -7.92755E-09 -7.68800E-09 -9.56887E-09 -9.70745E-09 -1.02676E-08 -8.74688E-09 -9.48676E-09 -7.92575E-09 -7.87330E-09 -6.72268E-09
  -7.05086E-09 -6.29871E-09 -7.07499E-09 -6.18097E-09 -6.77592E-09 -6.20914E-09 -6.91585E-09 -6.21301E-09 -6.90203E-09 -6.41160E-09
  -6.46474E-09 -5.53785E-09 -5.98670E-09 -5.46732E-09 -5.98878E-09 -4.91853E-09 -5.38232E-09 -5.20475E-09 -5.24781E-09 -5.20405E-09
  -5.00902E-09 -4.40092E-09 -4.39105E-09 -4.60058E-09 -5.22124E-09 -5.02284E-09 -5.54222E-09 -4.86349E-09 -4.91947E-09 -3.17749E-09
  -3.66017E-09 -2.88209E-09 -3.30675E-09 -2.39451E-09 -2.67162E-09 -2.39213E-09 -2.09998E-09 -2.02523E-09 -2.42561E-09 -1.54531E-09
  -1.96114E-09 -1.53337E-09 -1.63762E-09 -1.40418E-09 -2.18628E-09 -1.70902E-09 -1.92608E-09 -1.23953E-09 -1.70802E-09 -1.59146E-09
  -2.09260E-09 -1.41099E-09 -2.25630E-09 -2.12739E-09 -2.25315E-09 -2.42882E-09 -3.27989E-09 -2.85798E-09 -3.47959E-09 -2.49595E-09
  -2.25361E-09 -9.45691E-10 -1.13556E-09 -5.24690E-10 -7.14039E-10 -3.44359E-10 -8.00990E-10 -4.62891E-10 -8.46598E-10 -1.28984E-09
  -2.29699E-09 -3.27553E-09 -3.92978E-09 -4.72539E-09 -4.78983E-09 -3.55412E-09 -3.04538E-09 -2.33274E-09 -1.54596E-09 -8.40384E-10
  -6.82385E-10 -6.18375E-11 -3.31385E-10 -8.07103E-11  6.23082E-10  1.25690E-09  1.27504E-09  1.48235E-09  1.02972E-09  1.81053E-09
   1.46512E-09  2.09003E-09  2.10760E-09  2.59853E-09  2.06029E-09  2.64903E-09  2.30460E-09  2.47953E-09  2.56497E-09  3.01723E-09
   3.37656E-09  3.34051E-09  3.49595E-09  3.96369E-09  3.46111E-09  3.74633E-09  3.33393E-09  3.16324E-09  2.99840E-09  3.14066E-09
   2.49511E-09  2.77268E-09  2.48846E-09  2.47957E-09  2.26022E-09  2.32674E-09  2.33926E-09  2.81834E-09  2.47329E-09  1.92610E-09
   1.86696E-09  1.14039E-09  1.23562E-09  1.23191E-09  8.97217E-10  8.66118E-10  5.87221E-10  3.85380E-10  1.82796E-10  1.74061E-10
  -5.33027E-11 -3.90648E-10 -7.78275E-10 -1.04088E-09 -1.40892E-09 -1.13240E-09 -1.33614E-09 -1.16077E-09 -1.09431E-09 -1.31643E-09
  -9.51943E-10 -4.09988E-10 -8.43280E-10 -3.95227E-10  2.54814E-10  4.45226E-10 -1.24005E-10  9.01263E-10  5.77431E-10  9.00567E-10
   6.38893E-10  1.21547E-09  1.02124E-09  1.53415E-09  1.35879E-09  1.91631E-09  1.70787E-09  1.49144E-09  1.82795E-09  1.86071E-09
   1.71353E-09  2.04074E-09  1.76420E-09  1.97251E-09  2.08196E-09  3.69761E-09  5.68306E-09  7.80926E-09  8.73891E-09  9.93014E-09
   1.08591E-08  1.14018E-08  1.20490E-08  1.32558E-08  1.34196E-08  1.47280E-08  1.52335E-08  1.60644E-08  1.70253E-08  1.82915E-08
   1.88418E-08  1.96109E-08  2.05331E-08  2.15574E-08  2.27079E-08  2.32855E-08  2.37610E-08  2.44124E-08  2.37580E-08  2.37493E-08
   2.26267E-08  2.19011E-08  1.91564E-08  1.71992E-08  1.40891E-08  1.06213E-08  7.22523E-09  3.65753E-09 -4.71944E-10 -2.86795E-09
  -6.39508E-09 -8.03057E-09 -9.49661E-09 -9.47052E-09 -9.63490E-09 -8.26258E-09 -7.66734E-09 -5.56947E-09 -5.23708E-09 -3.61985E-09
  -3.41220E-09 -2.25699E-09 -1.77939E-09 -1.34440E-09 -1.68374E-09 -9.05442E-10 -1.03579E-09 -7.91868E-10 -1.34287E-09 -6.76682E-10
  -1.38954E-09 -8.65104E-10 -9.53137E-10 -6.09458E-10 -1.32142E-10 -4.54024E-10 -6.22814E-10 -7.63014E-10 -1.06543E-09 -7.91658E-10
  -1.05670E-09 -1.06786E-09 -1.01879E-09 -7.85036E-10 -3.95689E-10 -4.64191E-10 -7.80267E-10  9.22158E-11 -5.48041E-10 -6.16558E-10
  -1.49787E-09 -1.16578E-09 -1.58836E-09 -1.08851E-09 -1.16642E-09 -4.83525E-10 -5.42138E-10 -3.25617E-10 -5.48318E-10 -4.68995E-10
  -7.03080E-10 -1.30815E-10 -1.75143E-10 -4.85772E-10 -2.99537E-10 -1.66300E-11 -1.02151E-09 -7.66325E-10 -1.70305E-09 -1.17156E-09
  -1.88884E-09 -1.07809E-09 -1.67635E-09 -1.07918E-09 -1.62235E-09 -9.39739E-10 -1.33169E-09 -5.10253E-10 -9.73010E-10 -3.71250E-10
  -2.57671E-10 -1.97977E-10 -5.22057E-10 -3.48307E-10 -4.00119E-10  4.76577E-11 -3.80929E-10  1.19464E-10 -8.34457E-10 -2.36679E-10
  -2.27490E-10 -4.67582E-10 -4.85185E-10 -8.34692E-10 -1.33622E-09 -4.93949E-10 -1.10151E-09 -8.55010E-10 -9.21871E-10 -8.29545E-10
  -1.06609E-09 -1.17322E-09 -1.65387E-09 -1.01887E-09 -1.74976E-09 -1.21970E-09 -1.75836E-09 -1.21254E-09 -1.73376E-09 -1.43455E-09
  -2.19301E-09 -1.87708E-09 -1.51436E-09 -1.48849E-09 -1.56264E-09 -1.94449E-09 -1.82276E-09 -1.80915E-09 -1.91478E-09 -1.19199E-09
  -2.02816E-09 -1.61407E-09 -1.74210E-09 -1.71686E-09 -1.83540E-09 -1.56142E-09 -1.84765E-09 -1.83244E-09 -1.70706E-09 -1.43758E-09
  -1.79369E-09 -1.83765E-09 -1.97794E-09 -1.82068E-09 -1.50228E-09 -1.39028E-09 -1.23902E-09 -1.56439E-09 -1.65666E-09 -1.38116E-09
  -1.79540E-09 -1.79556E-09 -1.42618E-09 -1.54020E-09 -1.65691E-09 -1.36674E-09 -1.30712E-09 -1.12049E-09 -1.18942E-09 -1.41098E-09
  -1.33798E-09 -1.03579E-09 -1.15233E-09
 NY points of the fit to the data follow
  -7.80829E-09 -7.73155E-09 -7.65304E-09 -7.57348E-09 -7.49322E-09 -7.41250E-09 -7.33143E-09 -7.25009E-09 -7.16857E-09 -7.08689E-09
  -7.00508E-09 -6.92317E-09 -6.84120E-09 -6.75916E-09 -6.67708E-09 -6.59495E-09 -6.51280E-09 -6.43063E-09 -6.34846E-09 -6.26630E-09
  -6.18413E-09 -6.10197E-09 -6.01983E-09 -5.93771E-09 -5.85564E-09 -5.77361E-09 -5.69160E-09 -5.60964E-09 -5.52776E-09 -5.44590E-09
  -5.36414E-09 -5.28241E-09 -5.20076E-09 -5.11922E-09 -5.03773E-09 -4.95633E-09 -4.87503E-09 -4.79383E-09 -4.71272E-09 -4.63173E-09
  -4.55083E-09 -4.47005E-09 -4.38940E-09 -4.30888E-09 -4.22846E-09 -4.14821E-09 -4.06807E-09 -3.98807E-09 -3.90824E-09 -3.82856E-09
  -3.74903E-09 -3.66964E-09 -3.59044E-09 -3.51141E-09 -3.43254E-09 -3.35383E-09 -3.27532E-09 -3.19701E-09 -3.11887E-09 -3.04097E-09
  -2.96324E-09 -2.88572E-09 -2.80840E-09 -2.73130E-09 -2.65441E-09 -2.57774E-09 -2.50128E-09 -2.42505E-09 -2.34904E-09 -2.27326E-09
  -2.19771E-09 -2.12239E-09 -2.04731E-09 -1.97246E-09 -1.89785E-09 -1.82349E-09 -1.74935E-09 -1.67549E-09 -1.60185E-09 -1.52848E-09
  -1.45535E-09 -1.38247E-09 -1.30984E-09 -1.23748E-09 -1.16538E-09 -1.09351E-09 -1.02192E-09 -9.50571E-10 -8.79477E-10 -8.08636E-10
  -7.38032E-10 -6.67685E-10 -5.97566E-10 -5.27659E-10 -4.57962E-10 -3.88445E-10 -3.19085E-10 -2.49835E-10 -1.80641E-10 -1.11430E-10
  -4.20543E-11  2.76681E-11  9.80528E-11  1.69669E-10  2.43579E-10  3.22228E-10  4.12939E-10  5.31556E-10  6.83568E-10  8.44485E-10
   9.99677E-10  1.18023E-09  1.36397E-09  1.51495E-09  1.62994E-09  1.71947E-09  1.73854E-09  1.67425E-09  1.59608E-09  1.60532E-09
   1.51811E-09  1.42739E-09  1.43242E-09  1.46465E-09  1.50746E-09  1.55532E-09  1.60585E-09  1.65784E-09  1.71064E-09  1.76383E-09
   1.81716E-09  1.87043E-09  1.92353E-09  1.97635E-09  2.02883E-09  2.08090E-09  2.13251E-09  2.18363E-09  2.23422E-09  2.28426E-09
   2.33370E-09  2.38253E-09  2.43073E-09  2.47826E-09  2.52512E-09  2.57128E-09  2.61673E-09  2.66145E-09  2.70542E-09  2.74861E-09
   2.79103E-09  2.83265E-09  2.87346E-09  2.91344E-09  2.95259E-09  2.99090E-09  3.02835E-09  3.06495E-09  3.10070E-09  3.13559E-09
   3.16966E-09  3.20296E-09  3.23557E-09  3.26767E-09  3.29966E-09  3.33257E-09  3.37026E-09  3.42537E-09  3.50976E-09  3.60796E-09
   3.68589E-09  3.74980E-09  3.80606E-09  3.85309E-09  3.88136E-09  3.89788E-09  3.87462E-09  3.78786E-09  3.66046E-09  3.63583E-09
   3.63385E-09  3.63729E-09  3.64214E-09  3.64703E-09  3.65141E-09  3.65500E-09  3.65765E-09  3.65930E-09  3.65988E-09  3.65939E-09
   3.65781E-09  3.65514E-09  3.65138E-09  3.64654E-09  3.64062E-09  3.63363E-09  3.62560E-09  3.61652E-09  3.60641E-09  3.59529E-09
   3.58317E-09  3.57006E-09  3.55598E-09  3.54094E-09  3.52496E-09  3.50805E-09  3.49023E-09  3.47151E-09  3.45191E-09  3.43145E-09
   3.41013E-09  3.38797E-09  3.36500E-09  3.34123E-09  3.31666E-09  3.29132E-09  3.26522E-09  3.23839E-09  3.21082E-09  3.18254E-09
   3.15357E-09  3.12392E-09  3.09361E-09  3.06265E-09  3.03105E-09  2.99884E-09  2.96603E-09  2.93263E-09  2.89866E-09  2.86414E-09
   2.82908E-09  2.79350E-09  2.75741E-09  2.72083E-09  2.68378E-09  2.64626E-09  2.60831E-09  2.56992E-09  2.53113E-09  2.49193E-09
   2.45236E-09  2.41242E-09  2.37213E-09  2.33151E-09  2.29056E-09  2.24928E-09  2.20770E-09  2.16582E-09  2.12366E-09  2.08121E-09
   2.03849E-09  1.99551E-09  1.95228E-09  1.90881E-09  1.86511E-09  1.82119E-09  1.77705E-09  1.73271E-09  1.68818E-09  1.64347E-09
   1.59858E-09  1.55352E-09  1.50832E-09  1.46297E-09  1.41748E-09  1.37186E-09  1.32613E-09  1.28030E-09  1.23437E-09  1.18835E-09
   1.14225E-09  1.09609E-09  1.04986E-09  1.00359E-09  9.57275E-10  9.10936E-10  8.64576E-10  8.18206E-10  7.71833E-10  7.25474E-10
   6.79137E-10  6.32812E-10  5.86536E-10  5.40309E-10  4.94140E-10  4.48030E-10  4.02010E-10  3.56071E-10  3.10216E-10  2.64479E-10
   2.18851E-10  1.73359E-10  1.27989E-10  8.27721E-11  3.77015E-11 -7.21174E-12 -5.19452E-11 -9.64911E-11 -1.40843E-10 -1.84995E-10
  -2.28946E-10 -2.72683E-10 -3.16166E-10 -3.59425E-10 -4.02452E-10 -4.45254E-10 -4.87836E-10 -5.30201E-10 -5.72357E-10 -6.14304E-10
  -6.56049E-10 -6.97599E-10 -7.38958E-10 -7.80126E-10 -8.21114E-10 -8.61925E-10 -9.02565E-10 -9.43035E-10 -9.83345E-10 -1.02349E-09
  -1.06349E-09 -1.10334E-09 -1.14304E-09 -1.18261E-09 -1.22204E-09 -1.26135E-09 -1.30053E-09 -1.33959E-09 -1.37853E-09 -1.41737E-09
  -1.45610E-09 -1.49473E-09 -1.53327E-09 -1.57172E-09 -1.61007E-09 -1.64835E-09 -1.68656E-09 -1.72469E-09 -1.76276E-09 -1.80077E-09
  -1.83871E-09 -1.87662E-09 -1.91447E-09 -1.95228E-09 -1.99004E-09 -2.02778E-09 -2.06550E-09 -2.10319E-09 -2.14086E-09 -2.17852E-09
  -2.21617E-09 -2.25382E-09 -2.29147E-09 -2.32913E-09 -2.36680E-09 -2.40448E-09 -2.44219E-09 -2.47992E-09 -2.51768E-09 -2.55547E-09
  -2.59331E-09 -2.63119E-09 -2.66912E-09
 NY background values follow
    -7.840E-09   -7.758E-09   -7.676E-09   -7.594E-09   -7.512E-09   -7.430E-09   -7.348E-09   -7.265E-09   -7.183E-09   -7.101E-09
    -7.019E-09   -6.936E-09   -6.854E-09   -6.771E-09   -6.689E-09   -6.607E-09   -6.524E-09   -6.442E-09   -6.360E-09   -6.277E-09
    -6.195E-09   -6.113E-09   -6.030E-09   -5.948E-09   -5.866E-09   -5.784E-09   -5.702E-09   -5.620E-09   -5.538E-09   -5.456E-09
    -5.374E-09   -5.292E-09   -5.211E-09   -5.129E-09   -5.047E-09   -4.966E-09   -4.885E-09   -4.803E-09   -4.722E-09   -4.641E-09
    -4.560E-09   -4.480E-09   -4.399E-09   -4.318E-09   -4.238E-09   -4.158E-09   -4.077E-09   -3.997E-09   -3.918E-09   -3.838E-09
    -3.758E-09   -3.679E-09   -3.600E-09   -3.521E-09   -3.442E-09   -3.363E-09   -3.285E-09   -3.206E-09   -3.128E-09   -3.050E-09
    -2.972E-09   -2.895E-09   -2.818E-09   -2.741E-09   -2.664E-09   -2.587E-09   -2.511E-09   -2.434E-09   -2.358E-09   -2.283E-09
    -2.207E-09   -2.132E-09   -2.057E-09   -1.982E-09   -1.907E-09   -1.833E-09   -1.759E-09   -1.685E-09   -1.612E-09   -1.538E-09
    -1.465E-09   -1.393E-09   -1.320E-09   -1.248E-09   -1.176E-09   -1.104E-09   -1.033E-09   -9.616E-10   -8.907E-10   -8.202E-10
    -7.499E-10   -6.799E-10   -6.103E-10   -5.409E-10   -4.718E-10   -4.030E-10   -3.345E-10   -2.664E-10   -1.985E-10   -1.310E-10
    -6.379E-11    3.107E-12    6.967E-11    1.359E-10    2.018E-10    2.674E-10    3.327E-10    3.976E-10    4.621E-10    5.264E-10
     5.902E-10    6.538E-10    7.169E-10    7.798E-10    8.422E-10    9.043E-10    9.661E-10    1.027E-09    1.088E-09    1.149E-09
     1.209E-09    1.269E-09    1.329E-09    1.388E-09    1.446E-09    1.505E-09    1.563E-09    1.620E-09    1.677E-09    1.733E-09
     1.789E-09    1.844E-09    1.899E-09    1.953E-09    2.007E-09    2.060E-09    2.113E-09    2.165E-09    2.216E-09    2.267E-09
     2.316E-09    2.366E-09    2.414E-09    2.462E-09    2.509E-09    2.556E-09    2.602E-09    2.647E-09    2.691E-09    2.734E-09
     2.777E-09    2.818E-09    2.859E-09    2.899E-09    2.938E-09    2.977E-09    3.014E-09    3.051E-09    3.086E-09    3.121E-09
     3.154E-09    3.187E-09    3.219E-09    3.249E-09    3.279E-09    3.307E-09    3.335E-09    3.361E-09    3.387E-09    3.411E-09
     3.434E-09    3.456E-09    3.477E-09    3.497E-09    3.516E-09    3.533E-09    3.549E-09    3.564E-09    3.578E-09    3.590E-09
     3.601E-09    3.611E-09    3.620E-09    3.627E-09    3.633E-09    3.638E-09    3.642E-09    3.644E-09    3.645E-09    3.645E-09
     3.644E-09    3.642E-09    3.638E-09    3.634E-09    3.628E-09    3.621E-09    3.613E-09    3.604E-09    3.594E-09    3.583E-09
     3.571E-09    3.558E-09    3.544E-09    3.529E-09    3.514E-09    3.497E-09    3.479E-09    3.460E-09    3.441E-09    3.420E-09
     3.399E-09    3.377E-09    3.354E-09    3.330E-09    3.306E-09    3.281E-09    3.255E-09    3.228E-09    3.200E-09    3.172E-09
     3.143E-09    3.113E-09    3.083E-09    3.052E-09    3.021E-09    2.988E-09    2.956E-09    2.922E-09    2.888E-09    2.854E-09
     2.819E-09    2.783E-09    2.747E-09    2.711E-09    2.674E-09    2.636E-09    2.598E-09    2.560E-09    2.521E-09    2.482E-09
     2.442E-09    2.402E-09    2.362E-09    2.321E-09    2.281E-09    2.239E-09    2.198E-09    2.156E-09    2.114E-09    2.071E-09
     2.029E-09    1.986E-09    1.942E-09    1.899E-09    1.855E-09    1.811E-09    1.767E-09    1.723E-09    1.678E-09    1.634E-09
     1.589E-09    1.544E-09    1.499E-09    1.453E-09    1.408E-09    1.362E-09    1.316E-09    1.271E-09    1.225E-09    1.179E-09
     1.133E-09    1.086E-09    1.040E-09    9.939E-10    9.476E-10    9.013E-10    8.549E-10    8.086E-10    7.622E-10    7.158E-10
     6.695E-10    6.232E-10    5.769E-10    5.307E-10    4.846E-10    4.385E-10    3.924E-10    3.465E-10    3.007E-10    2.549E-10
     2.093E-10    1.638E-10    1.185E-10    7.326E-11    2.820E-11   -1.671E-11   -6.143E-11   -1.060E-10   -1.503E-10   -1.945E-10
    -2.384E-10   -2.821E-10   -3.256E-10   -3.689E-10   -4.119E-10   -4.547E-10   -4.973E-10   -5.396E-10   -5.818E-10   -6.237E-10
    -6.654E-10   -7.070E-10   -7.483E-10   -7.895E-10   -8.305E-10   -8.713E-10   -9.119E-10   -9.524E-10   -9.927E-10   -1.033E-09
    -1.073E-09   -1.113E-09   -1.152E-09   -1.192E-09   -1.231E-09   -1.271E-09   -1.310E-09   -1.349E-09   -1.388E-09   -1.427E-09
    -1.465E-09   -1.504E-09   -1.543E-09   -1.581E-09   -1.619E-09   -1.658E-09   -1.696E-09   -1.734E-09   -1.772E-09   -1.810E-09
    -1.848E-09   -1.886E-09   -1.924E-09   -1.961E-09   -1.999E-09   -2.037E-09   -2.075E-09   -2.112E-09   -2.150E-09   -2.188E-09
    -2.225E-09   -2.263E-09   -2.301E-09   -2.338E-09   -2.376E-09   -2.414E-09   -2.451E-09   -2.489E-09   -2.527E-09   -2.565E-09
    -2.602E-09   -2.640E-09   -2.678E-09
 Lac      Conc. = 1.61E-10
  -7.80829E-09 -7.73155E-09 -7.65304E-09 -7.57348E-09 -7.49322E-09 -7.41250E-09 -7.33143E-09 -7.25009E-09 -7.16857E-09 -7.08689E-09
  -7.00508E-09 -6.92317E-09 -6.84120E-09 -6.75916E-09 -6.67708E-09 -6.59495E-09 -6.51280E-09 -6.43063E-09 -6.34846E-09 -6.26630E-09
  -6.18413E-09 -6.10197E-09 -6.01983E-09 -5.93771E-09 -5.85564E-09 -5.77361E-09 -5.69160E-09 -5.60964E-09 -5.52776E-09 -5.44590E-09
  -5.36414E-09 -5.28241E-09 -5.20076E-09 -5.11922E-09 -5.03773E-09 -4.95633E-09 -4.87503E-09 -4.79383E-09 -4.71272E-09 -4.63173E-09
  -4.55083E-09 -4.47005E-09 -4.38940E-09 -4.30888E-09 -4.22846E-09 -4.14821E-09 -4.06807E-09 -3.98807E-09 -3.90824E-09 -3.82856E-09
  -3.74903E-09 -3.66964E-09 -3.59044E-09 -3.51141E-09 -3.43254E-09 -3.35383E-09 -3.27532E-09 -3.19701E-09 -3.11887E-09 -3.04097E-09
  -2.96324E-09 -2.88572E-09 -2.80840E-09 -2.73130E-09 -2.65441E-09 -2.57774E-09 -2.50128E-09 -2.42505E-09 -2.34904E-09 -2.27326E-09
  -2.19771E-09 -2.12239E-09 -2.04731E-09 -1.97246E-09 -1.89785E-09 -1.82349E-09 -1.74935E-09 -1.67549E-09 -1.60185E-09 -1.52848E-09
  -1.45535E-09 -1.38247E-09 -1.30984E-09 -1.23748E-09 -1.16538E-09 -1.09351E-09 -1.02192E-09 -9.50571E-10 -8.79477E-10 -8.08636E-10
  -7.38032E-10 -6.67685E-10 -5.97566E-10 -5.27659E-10 -4.57962E-10 -3.88445E-10 -3.19085E-10 -2.49835E-10 -1.80641E-10 -1.11430E-10
  -4.20543E-11  2.76681E-11  9.80528E-11  1.69669E-10  2.43579E-10  3.22228E-10  4.12939E-10  5.31556E-10  6.83568E-10  8.44485E-10
   9.99677E-10  1.18023E-09  1.36397E-09  1.51495E-09  1.62994E-09  1.71947E-09  1.73854E-09  1.67425E-09  1.59608E-09  1.60532E-09
   1.51811E-09  1.42739E-09  1.43242E-09  1.46465E-09  1.50746E-09  1.55532E-09  1.60585E-09  1.65784E-09  1.71064E-09  1.76383E-09
   1.81716E-09  1.87043E-09  1.92353E-09  1.97635E-09  2.02883E-09  2.08090E-09  2.13251E-09  2.18363E-09  2.23422E-09  2.28426E-09
   2.33370E-09  2.38253E-09  2.43073E-09  2.47826E-09  2.52512E-09  2.57128E-09  2.61673E-09  2.66145E-09  2.70542E-09  2.74861E-09
   2.79103E-09  2.83265E-09  2.87346E-09  2.91344E-09  2.95259E-09  2.99090E-09  3.02835E-09  3.06495E-09  3.10070E-09  3.13559E-09
   3.16966E-09  3.20296E-09  3.23557E-09  3.26767E-09  3.29966E-09  3.33257E-09  3.37026E-09  3.42537E-09  3.50976E-09  3.60796E-09
   3.68589E-09  3.74980E-09  3.80606E-09  3.85309E-09  3.88136E-09  3.89788E-09  3.87462E-09  3.78786E-09  3.66046E-09  3.63583E-09
   3.63385E-09  3.63729E-09  3.64214E-09  3.64703E-09  3.65141E-09  3.65500E-09  3.65765E-09  3.65930E-09  3.65988E-09  3.65939E-09
   3.65781E-09  3.65514E-09  3.65138E-09  3.64654E-09  3.64062E-09  3.63363E-09  3.62560E-09  3.61652E-09  3.60641E-09  3.59529E-09
   3.58317E-09  3.57006E-09  3.55598E-09  3.54094E-09  3.52496E-09  3.50805E-09  3.49023E-09  3.47151E-09  3.45191E-09  3.43145E-09
   3.41013E-09  3.38797E-09  3.36500E-09  3.34123E-09  3.31666E-09  3.29132E-09  3.26522E-09  3.23839E-09  3.21082E-09  3.18254E-09
   3.15357E-09  3.12392E-09  3.09361E-09  3.06265E-09  3.03105E-09  2.99884E-09  2.96603E-09  2.93263E-09  2.89866E-09  2.86414E-09
   2.82908E-09  2.79350E-09  2.75741E-09  2.72083E-09  2.68378E-09  2.64626E-09  2.60831E-09  2.56992E-09  2.53113E-09  2.49193E-09
   2.45236E-09  2.41242E-09  2.37213E-09  2.33151E-09  2.29056E-09  2.24928E-09  2.20770E-09  2.16582E-09  2.12366E-09  2.08121E-09
   2.03849E-09  1.99551E-09  1.95228E-09  1.90881E-09  1.86511E-09  1.82119E-09  1.77705E-09  1.73271E-09  1.68818E-09  1.64347E-09
   1.59858E-09  1.55352E-09  1.50832E-09  1.46297E-09  1.41748E-09  1.37186E-09  1.32613E-09  1.28030E-09  1.23437E-09  1.18835E-09
   1.14225E-09  1.09609E-09  1.04986E-09  1.00359E-09  9.57275E-10  9.10936E-10  8.64576E-10  8.18206E-10  7.71833E-10  7.25474E-10
   6.79137E-10  6.32812E-10  5.86536E-10  5.40309E-10  4.94140E-10  4.48030E-10  4.02010E-10  3.56071E-10  3.10216E-10  2.64479E-10
   2.18851E-10  1.73359E-10  1.27989E-10  8.27721E-11  3.77015E-11 -7.21174E-12 -5.19452E-11 -9.64911E-11 -1.40843E-10 -1.84995E-10
  -2.28946E-10 -2.72683E-10 -3.16166E-10 -3.59425E-10 -4.02452E-10 -4.45254E-10 -4.87836E-10 -5.30201E-10 -5.72357E-10 -6.14304E-10
  -6.56049E-10 -6.97599E-10 -7.38958E-10 -7.80126E-10 -8.21114E-10 -8.61925E-10 -9.02565E-10 -9.43035E-10 -9.83345E-10 -1.02349E-09
  -1.06349E-09 -1.10334E-09 -1.14304E-09 -1.18261E-09 -1.22204E-09 -1.26135E-09 -1.30053E-09 -1.33959E-09 -1.37853E-09 -1.41737E-09
  -1.45610E-09 -1.49473E-09 -1.53327E-09 -1.57172E-09 -1.61007E-09 -1.64835E-09 -1.68656E-09 -1.72469E-09 -1.76276E-09 -1.80077E-09
  -1.83871E-09 -1.87662E-09 -1.91447E-09 -1.95228E-09 -1.99004E-09 -2.02778E-09 -2.06550E-09 -2.10319E-09 -2.14086E-09 -2.17852E-09
  -2.21617E-09 -2.25382E-09 -2.29147E-09 -2.32913E-09 -2.36680E-09 -2.40448E-09 -2.44219E-09 -2.47992E-09 -2.51768E-09 -2.55547E-09
  -2.59331E-09 -2.63119E-09 -2.66912E-09
   7 lines in following diagnostic table:
   1 ERROR     MYBASI 10                                                  
   4 ERRORS    AREABA  3                                                  
   1 warning   STARTV  5                                                  
   1 info      STARTV 13                                                  
   1 warning   STARTV 25                                                  
   1 info      STARTV 20                                                  
   1 info      RFALSI 11                                                  
  79 lines in following table of input changes:
ATTH2O=1.0                                                                
FILH2O='/mnt/c/Users/divya/Downloads/Lexar/DataFo                         
   rDivya/meas_MID01415_FID95676_lb_RosetteSpinEc                         
   ho_ek_v1a_lcm/11x25_ftSpec_smooth_lcm_w'                               
DOWS=T                                                                    
DOECC=T                                                                   
CHRATO(8)='MM9/MM1 = 1.40 +- 0.7'                                         
CHRATO(7)='MM8/MM1 = 0.33 +- 0.17'                                        
CHRATO(6)='MM7/MM1 = 0.54 +- 0.27'                                        
CHRATO(5)='MM6/MM1 = 0.63 +- 0.16'                                        
CHRATO(4)='MM5/MM1 = 3.16 +- 0.79'                                        
CHRATO(3)='MM4/MM1 = 1.29 +- 1.03'                                        
CHRATO(2)='MM3/MM1 = 1.05 +- 0.63'                                        
CHRATO(1)='MM2/MM1 = 0.51 +- 0.17'                                        
NRATIO=8                                                                  
NORATO(7)='-CrCH2/totCr'                                                  
NORATO(6)='MM17/MM09*'                                                    
NORATO(5)='MM14/MM09*'                                                    
NORATO(4)='MM12/MM09*'                                                    
NORATO(3)='MM20/MM09*'                                                    
NORATO(2)='Lip20/Lip13*'                                                  
NORATO(1)='Lip09/Lip13*'                                                  
NNORAT=7                                                                  
CHOMIT(14)='-CrCH2'                                                       
CHOMIT(13)='MM17'                                                         
CHOMIT(12)='MM14'                                                         
CHOMIT(11)='MM12'                                                         
CHOMIT(10)='MM20'                                                         
CHOMIT(9)='Lip20'                                                         
CHOMIT(8)='MM09'                                                          
CHOMIT(7)='Lip09'                                                         
CHOMIT(6)='Lip13d'                                                        
CHOMIT(5)='Lip13c'                                                        
CHOMIT(4)='Lip13b'                                                        
