 LCModel (Version 6.3-1R) Copyright: S.W. Provencher.          Ref.: Magn. Reson. Med. 30:672-679 (1993).                
 onepulse 11x24_ftSpec_smooth_lcm
 26 lines in following concentration table = NCONC+1
    Conc.  %SD   /Cr    Metabolite                                         
    0.000 999%   0.000 Ala                                                 
    0.000 999%   0.000 Asp                                                 
    0.000 999%   0.000 Cr                                                  
    0.000 999%   0.000 GABA                                                
    0.000 999%   0.000 Glc                                                 
    0.000 999%   0.000 Gln                                                 
    0.000 999%   0.000 Glu                                                 
    0.000 999%   0.000 Glyc                                                
 2.08E-11 658%   0.000 GPC                                                 
    0.000 999%   0.000 GSH                                                 
    0.000 999%   0.000 Ins                                                 
    0.000 999%   0.000 Lac                                                 
    0.000 999%   0.000 NAAG                                                
    0.000 999%   0.000 NAA                                                 
    0.000 999%   0.000 PCh                                                 
    0.000 999%   0.000 PCr                                                 
    0.000 999%   0.000 PE                                                  
    0.000 999%   0.000 Scyllo                                              
    0.000 999%   0.000 Ser                                                 
    0.000 999%   0.000 Tau                                                 
 2.08E-11 658%   0.000 GPC+PCh                                             
    0.000 999%   0.000 NAA+NAAG                                            
    0.000 999%   0.000 Ins+Glyc                                            
    0.000 999%   0.000 Cr+PCr                                              
    0.000 999%   0.000 Glu+Gln                                             
   6 lines in following misc. output table
  FWHM = 0.089 ppm    S/N =   0                                            
  Data shift = 0.313 ppm                                                   
  Ph: -41 deg      40.3 deg/ppm                                            
  alphaB,S = 1.1E+00,   1.6E+00                                            
    8 spline knots.   Ns = 5(1)                                            
  ( 3) 1 infls.   ( 3) 1 extrs.                                            
  363 points on ppm-axis = NY
      4.250000     4.238821     4.227641     4.216462     4.205282     4.194103     4.182923     4.171744     4.160564     4.149385
      4.138206     4.127026     4.115847     4.104667     4.093488     4.082308     4.071129     4.059949     4.048770     4.037591
      4.026411     4.015232     4.004052     3.992873     3.981693     3.970514     3.959334     3.948155     3.936975     3.925796
      3.914617     3.903437     3.892258     3.881078     3.869899     3.858719     3.847540     3.836360     3.825181     3.814002
      3.802822     3.791643     3.780463     3.769284     3.758104     3.746925     3.735745     3.724566     3.713387     3.702207
      3.691028     3.679848     3.668669     3.657489     3.646310     3.635130     3.623951     3.612772     3.601592     3.590413
      3.579233     3.568054     3.556874     3.545695     3.534515     3.523336     3.512156     3.500977     3.489798     3.478618
      3.467439     3.456259     3.445080     3.433900     3.422721     3.411541     3.400362     3.389183     3.378003     3.366824
      3.355644     3.344465     3.333285     3.322106     3.310926     3.299747     3.288568     3.277388     3.266209     3.255029
      3.243850     3.232670     3.221491     3.210311     3.199132     3.187953     3.176773     3.165594     3.154414     3.143235
      3.132055     3.120876     3.109696     3.098517     3.087337     3.076158     3.064979     3.053799     3.042620     3.031440
      3.020261     3.009081     2.997902     2.986722     2.975543     2.964364     2.953184     2.942005     2.930825     2.919646
      2.908466     2.897287     2.886107     2.874928     2.863749     2.852569     2.841390     2.830210     2.819031     2.807851
      2.796672     2.785492     2.774313     2.763134     2.751954     2.740775     2.729595     2.718416     2.707236     2.696057
      2.684877     2.673698     2.662519     2.651339     2.640160     2.628980     2.617801     2.606621     2.595442     2.584262
      2.573083     2.561903     2.550724     2.539545     2.528365     2.517186     2.506006     2.494827     2.483647     2.472468
      2.461288     2.450109     2.438930     2.427750     2.416571     2.405391     2.394212     2.383032     2.371853     2.360673
      2.349494     2.338315     2.327135     2.315956     2.304776     2.293597     2.282417     2.271238     2.260058     2.248879
      2.237700     2.226520     2.215341     2.204161     2.192982     2.181802     2.170623     2.159443     2.148264     2.137084
      2.125905     2.114726     2.103546     2.092367     2.081187     2.070008     2.058828     2.047649     2.036469     2.025290
      2.014111     2.002931     1.991752     1.980572     1.969393     1.958213     1.947034     1.935854     1.924675     1.913496
      1.902316     1.891137     1.879957     1.868778     1.857598     1.846419     1.835239     1.824060     1.812881     1.801701
      1.790522     1.779342     1.768163     1.756983     1.745804     1.734624     1.723445     1.712265     1.701086     1.689907
      1.678727     1.667548     1.656368     1.645189     1.634009     1.622830     1.611650     1.600471     1.589292     1.578112
      1.566933     1.555753     1.544574     1.533394     1.522215     1.511035     1.499856     1.488677     1.477497     1.466318
      1.455138     1.443959     1.432779     1.421600     1.410420     1.399241     1.388062     1.376882     1.365703     1.354523
      1.343344     1.332164     1.320985     1.309805     1.298626     1.287446     1.276267     1.265088     1.253908     1.242729
      1.231549     1.220370     1.209190     1.198011     1.186831     1.175652     1.164473     1.153293     1.142114     1.130934
      1.119755     1.108575     1.097396     1.086216     1.075037     1.063858     1.052678     1.041499     1.030319     1.019140
      1.007960     0.996781     0.985601     0.974422     0.963243     0.952063     0.940884     0.929704     0.918525     0.907345
      0.896166     0.884986     0.873807     0.862628     0.851448     0.840269     0.829089     0.817910     0.806730     0.795551
      0.784371     0.773192     0.762012     0.750833     0.739654     0.728474     0.717295     0.706115     0.694936     0.683756
      0.672577     0.661397     0.650218     0.639039     0.627859     0.616680     0.605500     0.594321     0.583141     0.571962
      0.560782     0.549603     0.538424     0.527244     0.516065     0.504885     0.493706     0.482526     0.471347     0.460167
      0.448988     0.437809     0.426629     0.415450     0.404270     0.393091     0.381911     0.370732     0.359552     0.348373
      0.337193     0.326014     0.314835     0.303655     0.292476     0.281296     0.270117     0.258937     0.247758     0.236578
      0.225399     0.214220     0.203040
 NY phased data points follow
   2.75046E-09  3.41084E-09  4.12676E-09  3.89975E-09  3.11818E-09  2.04744E-09  1.93041E-09  4.99783E-10  1.63841E-10 -4.73213E-10
  -2.80233E-10 -6.08503E-10 -2.14528E-10 -8.97897E-10 -4.30038E-10 -8.33509E-10 -4.91603E-10 -1.00448E-09 -5.52318E-10 -1.23944E-09
  -1.47815E-09 -1.99442E-09 -1.50244E-09 -2.00295E-09 -1.89933E-09 -2.69063E-09 -2.06818E-09 -2.46792E-09 -2.43548E-09 -2.71715E-09
  -3.10611E-09 -3.36218E-09 -3.18464E-09 -2.54257E-09 -2.82430E-09 -2.78824E-09 -3.17701E-09 -3.74942E-09 -4.39907E-09 -5.49467E-09
  -4.99078E-09 -5.32606E-09 -5.31319E-09 -5.63872E-09 -5.25712E-09 -5.54575E-09 -5.75575E-09 -5.31132E-09 -5.55066E-09 -5.47391E-09
  -5.28692E-09 -5.41993E-09 -5.40840E-09 -4.82208E-09 -4.64146E-09 -4.73715E-09 -4.92895E-09 -4.85531E-09 -4.54041E-09 -4.22761E-09
  -4.27957E-09 -4.37877E-09 -3.82664E-09 -3.79050E-09 -3.96890E-09 -3.40941E-09 -3.38899E-09 -3.96555E-09 -4.19012E-09 -5.26493E-09
  -5.70980E-09 -6.27609E-09 -6.02429E-09 -6.16940E-09 -5.74114E-09 -5.76562E-09 -5.16772E-09 -5.08532E-09 -4.31150E-09 -3.61562E-09
  -3.15989E-09 -2.79573E-09 -2.95152E-09 -3.18215E-09 -4.56469E-09 -5.78045E-09 -6.72620E-09 -7.32521E-09 -8.18128E-09 -8.29666E-09
  -8.62301E-09 -8.77448E-09 -8.67454E-09 -8.99705E-09 -9.52220E-09 -9.10621E-09 -9.29248E-09 -8.71670E-09 -8.77603E-09 -8.88172E-09
  -8.92648E-09 -9.01827E-09 -8.99331E-09 -8.65404E-09 -8.36527E-09 -8.52956E-09 -8.05505E-09 -8.09716E-09 -8.37809E-09 -8.57206E-09
  -8.51436E-09 -7.71888E-09 -8.26023E-09 -7.58786E-09 -7.13200E-09 -6.90229E-09 -6.54353E-09 -6.15325E-09 -6.05002E-09 -5.76886E-09
  -5.58306E-09 -5.45522E-09 -5.20643E-09 -5.15796E-09 -5.16725E-09 -5.13212E-09 -5.23525E-09 -5.08430E-09 -4.43312E-09 -4.17834E-09
  -4.04086E-09 -3.56002E-09 -4.19535E-09 -3.67840E-09 -3.93816E-09 -3.70515E-09 -3.71141E-09 -3.49963E-09 -3.85598E-09 -3.71102E-09
  -3.97671E-09 -3.34360E-09 -3.68116E-09 -3.46381E-09 -4.05327E-09 -4.27897E-09 -4.61887E-09 -4.89963E-09 -5.40175E-09 -5.13048E-09
  -6.36531E-09 -6.22058E-09 -6.47493E-09 -7.00249E-09 -7.76808E-09 -7.01235E-09 -7.64961E-09 -8.06684E-09 -8.00548E-09 -8.07188E-09
  -8.31573E-09 -8.25300E-09 -8.52323E-09 -8.57862E-09 -8.96457E-09 -9.13783E-09 -9.04015E-09 -9.28872E-09 -1.00137E-08 -9.51795E-09
  -1.03588E-08 -1.04430E-08 -1.14471E-08 -1.19370E-08 -1.34271E-08 -1.52237E-08 -1.68250E-08 -1.71721E-08 -1.74122E-08 -1.72014E-08
  -1.70139E-08 -1.64256E-08 -1.67548E-08 -1.59134E-08 -1.59429E-08 -1.56787E-08 -1.51168E-08 -1.45259E-08 -1.45331E-08 -1.36382E-08
  -1.29349E-08 -1.21172E-08 -1.12645E-08 -1.01746E-08 -9.31279E-09 -6.96313E-09 -5.89712E-09 -2.81424E-09 -6.94985E-10  2.24169E-09
   4.74617E-09  8.29847E-09  1.13283E-08  1.42100E-08  1.73334E-08  2.01535E-08  2.12948E-08  2.36533E-08  2.34657E-08  2.35879E-08
   2.26330E-08  2.06066E-08  1.81491E-08  1.57302E-08  1.25979E-08  1.02202E-08  7.46621E-09  5.88279E-09  4.17525E-09  3.09978E-09
   2.65088E-09  2.00369E-09  1.72940E-09  2.21951E-09  2.24058E-09  2.03021E-09  2.10011E-09  2.54249E-09  2.10866E-09  2.13078E-09
   2.27492E-09  1.73020E-09  2.10149E-09  1.67742E-09  1.95100E-09  2.46533E-09  2.13445E-09  2.36866E-09  1.72442E-09  2.01785E-09
   1.76736E-09  1.99543E-09  1.47628E-09  1.43438E-09  1.08207E-09  1.81539E-09  9.94193E-10  1.41544E-09  1.77378E-09  2.14664E-09
   1.82889E-09  1.79272E-09  1.24501E-09  1.16302E-09  6.55785E-10  5.45522E-10  5.28792E-10  8.49485E-10  7.69095E-10  9.29605E-10
   5.17385E-10  6.04258E-10  7.49338E-10  1.27420E-09  6.82287E-10  1.82894E-09  1.61164E-09  1.85658E-09  1.39758E-09  1.48593E-09
   7.55195E-10  6.78223E-10  5.37982E-10  5.47654E-10 -1.20383E-11 -7.73605E-11 -2.89786E-10 -4.02170E-10 -2.24161E-10 -6.21986E-10
  -1.21206E-10 -1.51128E-10 -1.59585E-10  7.69123E-11 -2.56249E-10  1.42966E-10  8.39111E-11  4.89009E-10  6.64459E-10  1.78759E-10
   6.32754E-10  7.83186E-10  6.52788E-10  1.17677E-09  3.54001E-10  5.23018E-10  5.69136E-10  4.37419E-10  4.09683E-10  4.88666E-10
   5.59719E-10  9.99057E-10  3.89751E-10  7.51365E-10  2.44234E-10  4.47199E-10  3.24083E-10  2.29301E-10  3.14125E-10  1.87463E-10
   3.21707E-10 -4.52696E-10 -3.41681E-10 -3.60641E-10 -2.46136E-10 -2.96409E-10 -5.45002E-10 -3.45545E-10 -1.13218E-09 -7.40438E-10
  -5.67927E-10 -1.06338E-09 -8.10553E-10 -7.53735E-10 -1.19211E-09 -9.87689E-10 -9.79644E-10 -1.32532E-09 -1.45500E-09 -1.18500E-09
  -1.17385E-09 -1.30487E-09 -1.64676E-09 -1.91215E-09 -1.93235E-09 -1.74678E-09 -1.67041E-09 -1.50256E-09 -2.04202E-09 -1.89591E-09
  -1.77141E-09 -2.24244E-09 -2.33061E-09 -1.95492E-09 -2.47769E-09 -2.37180E-09 -2.41201E-09 -2.35813E-09 -2.36842E-09 -2.39434E-09
  -2.69893E-09 -2.46598E-09 -2.61582E-09 -2.43244E-09 -2.57242E-09 -2.82709E-09 -2.99047E-09 -2.47061E-09 -2.58376E-09 -2.65898E-09
  -3.12686E-09 -2.92078E-09 -3.29854E-09
 NY points of the fit to the data follow
  -5.95473E-10 -6.82579E-10 -7.67877E-10 -8.43804E-10 -9.09433E-10 -9.66629E-10 -1.02440E-09 -1.08856E-09 -1.15976E-09 -1.23751E-09
  -1.32068E-09 -1.40858E-09 -1.50094E-09 -1.59601E-09 -1.69206E-09 -1.78477E-09 -1.87168E-09 -1.95200E-09 -2.02805E-09 -2.10168E-09
  -2.17257E-09 -2.23836E-09 -2.28946E-09 -2.27613E-09 -2.25084E-09 -2.24913E-09 -2.27086E-09 -2.32103E-09 -2.39537E-09 -2.48321E-09
  -2.58620E-09 -2.70755E-09 -2.84360E-09 -2.99239E-09 -3.13991E-09 -3.24380E-09 -3.32368E-09 -3.39731E-09 -3.46827E-09 -3.53773E-09
  -3.60613E-09 -3.67370E-09 -3.74055E-09 -3.80676E-09 -3.87234E-09 -3.93734E-09 -4.00175E-09 -4.06559E-09 -4.12885E-09 -4.19153E-09
  -4.25363E-09 -4.31513E-09 -4.37604E-09 -4.43635E-09 -4.49603E-09 -4.55511E-09 -4.61355E-09 -4.67133E-09 -4.72850E-09 -4.78498E-09
  -4.84079E-09 -4.89593E-09 -4.95037E-09 -5.00412E-09 -5.05713E-09 -5.10944E-09 -5.16101E-09 -5.21185E-09 -5.26192E-09 -5.31123E-09
  -5.35977E-09 -5.40752E-09 -5.45447E-09 -5.50062E-09 -5.54595E-09 -5.59044E-09 -5.63408E-09 -5.67686E-09 -5.71877E-09 -5.75978E-09
  -5.79989E-09 -5.83909E-09 -5.87735E-09 -5.91466E-09 -5.95102E-09 -5.98640E-09 -6.02079E-09 -6.05418E-09 -6.08656E-09 -6.11790E-09
  -6.14820E-09 -6.17744E-09 -6.20561E-09 -6.23270E-09 -6.25868E-09 -6.28355E-09 -6.30729E-09 -6.32988E-09 -6.35132E-09 -6.37159E-09
  -6.39068E-09 -6.40857E-09 -6.42524E-09 -6.44069E-09 -6.45489E-09 -6.46784E-09 -6.47952E-09 -6.48992E-09 -6.49903E-09 -6.50682E-09
  -6.51328E-09 -6.51841E-09 -6.52218E-09 -6.52459E-09 -6.52561E-09 -6.52524E-09 -6.52346E-09 -6.52026E-09 -6.51562E-09 -6.50953E-09
  -6.50197E-09 -6.49294E-09 -6.48240E-09 -6.47037E-09 -6.45681E-09 -6.44171E-09 -6.42506E-09 -6.40686E-09 -6.38707E-09 -6.36569E-09
  -6.34270E-09 -6.31810E-09 -6.29186E-09 -6.26398E-09 -6.23442E-09 -6.20320E-09 -6.17028E-09 -6.13566E-09 -6.09933E-09 -6.06125E-09
  -6.02144E-09 -5.97986E-09 -5.93650E-09 -5.89137E-09 -5.84443E-09 -5.79567E-09 -5.74509E-09 -5.69274E-09 -5.63866E-09 -5.58291E-09
  -5.52551E-09 -5.46653E-09 -5.40600E-09 -5.34398E-09 -5.28049E-09 -5.21560E-09 -5.14934E-09 -5.08176E-09 -5.01290E-09 -4.94280E-09
  -4.87149E-09 -4.79901E-09 -4.72536E-09 -4.65053E-09 -4.57442E-09 -4.49660E-09 -4.41503E-09 -4.32500E-09 -4.23573E-09 -4.14879E-09
  -4.06386E-09 -3.98164E-09 -3.90117E-09 -3.82146E-09 -3.74318E-09 -3.66650E-09 -3.59090E-09 -3.51608E-09 -3.43953E-09 -3.35700E-09
  -3.27292E-09 -3.18824E-09 -3.10322E-09 -3.01802E-09 -2.93270E-09 -2.84733E-09 -2.76197E-09 -2.67669E-09 -2.59149E-09 -2.50646E-09
  -2.42165E-09 -2.33708E-09 -2.25282E-09 -2.16889E-09 -2.08538E-09 -2.00230E-09 -1.91970E-09 -1.83765E-09 -1.75619E-09 -1.67534E-09
  -1.59516E-09 -1.51571E-09 -1.43702E-09 -1.35915E-09 -1.28212E-09 -1.20602E-09 -1.13086E-09 -1.05669E-09 -9.83560E-10 -9.11544E-10
  -8.40633E-10 -7.70917E-10 -7.02432E-10 -6.35216E-10 -5.69303E-10 -5.04775E-10 -4.41659E-10 -3.79981E-10 -3.19824E-10 -2.61161E-10
  -2.04001E-10 -1.48311E-10 -9.41078E-11 -4.13594E-11  9.92015E-12  5.97702E-11  1.08181E-10  1.55166E-10  2.00737E-10  2.44899E-10
   2.87677E-10  3.29066E-10  3.69080E-10  4.07730E-10  4.45030E-10  4.80983E-10  5.15608E-10  5.48902E-10  5.80888E-10  6.11565E-10
   6.40946E-10  6.69057E-10  6.95889E-10  7.21458E-10  7.45765E-10  7.68834E-10  7.90671E-10  8.11287E-10  8.30692E-10  8.48884E-10
   8.65899E-10  8.81713E-10  8.96385E-10  9.09859E-10  9.22184E-10  9.33388E-10  9.43449E-10  9.52387E-10  9.60210E-10  9.66925E-10
   9.72551E-10  9.77104E-10  9.80583E-10  9.83006E-10  9.84363E-10  9.84681E-10  9.83985E-10  9.82241E-10  9.79498E-10  9.75758E-10
   9.71020E-10  9.65293E-10  9.58611E-10  9.50946E-10  9.42353E-10  9.32803E-10  9.22330E-10  9.10937E-10  8.98620E-10  8.85406E-10
   8.71313E-10  8.56331E-10  8.40487E-10  8.23769E-10  8.06206E-10  7.87804E-10  7.68582E-10  7.48511E-10  7.27645E-10  7.05983E-10
   6.83516E-10  6.60280E-10  6.36278E-10  6.11524E-10  5.86030E-10  5.59813E-10  5.32882E-10  5.05252E-10  4.76937E-10  4.47950E-10
   4.18305E-10  3.88014E-10  3.57091E-10  3.25551E-10  2.93405E-10  2.60666E-10  2.27351E-10  1.93471E-10  1.59039E-10  1.24067E-10
   8.85726E-11  5.25654E-11  1.60617E-11 -2.09282E-11 -5.83885E-11 -9.63070E-11 -1.34669E-10 -1.73464E-10 -2.12676E-10 -2.52292E-10
  -2.92299E-10 -3.32685E-10 -3.73434E-10 -4.14534E-10 -4.55972E-10 -4.97735E-10 -5.39807E-10 -5.82178E-10 -6.24831E-10 -6.67757E-10
  -7.10939E-10 -7.54366E-10 -7.98023E-10 -8.41898E-10 -8.85977E-10 -9.30246E-10 -9.74692E-10 -1.01930E-09 -1.06406E-09 -1.10896E-09
  -1.15398E-09 -1.19912E-09 -1.24435E-09 -1.28966E-09 -1.33505E-09 -1.38049E-09 -1.42597E-09 -1.47149E-09 -1.51702E-09 -1.56256E-09
  -1.60808E-09 -1.65359E-09 -1.69905E-09 -1.74447E-09 -1.78983E-09 -1.83511E-09 -1.88030E-09 -1.92538E-09 -1.97035E-09 -2.01520E-09
  -2.05989E-09 -2.10444E-09 -2.14881E-09
 NY background values follow
    -6.931E-10   -7.696E-10   -8.461E-10   -9.225E-10   -9.989E-10   -1.075E-09   -1.151E-09   -1.228E-09   -1.304E-09   -1.379E-09
    -1.455E-09   -1.531E-09   -1.606E-09   -1.682E-09   -1.757E-09   -1.832E-09   -1.907E-09   -1.981E-09   -2.056E-09   -2.130E-09
    -2.204E-09   -2.278E-09   -2.351E-09   -2.424E-09   -2.497E-09   -2.570E-09   -2.642E-09   -2.714E-09   -2.786E-09   -2.857E-09
    -2.928E-09   -2.999E-09   -3.069E-09   -3.139E-09   -3.209E-09   -3.278E-09   -3.346E-09   -3.415E-09   -3.483E-09   -3.550E-09
    -3.617E-09   -3.684E-09   -3.750E-09   -3.815E-09   -3.881E-09   -3.945E-09   -4.009E-09   -4.073E-09   -4.136E-09   -4.198E-09
    -4.260E-09   -4.322E-09   -4.382E-09   -4.443E-09   -4.502E-09   -4.561E-09   -4.619E-09   -4.677E-09   -4.734E-09   -4.791E-09
    -4.846E-09   -4.902E-09   -4.956E-09   -5.010E-09   -5.063E-09   -5.115E-09   -5.166E-09   -5.217E-09   -5.267E-09   -5.317E-09
    -5.365E-09   -5.413E-09   -5.460E-09   -5.506E-09   -5.551E-09   -5.596E-09   -5.639E-09   -5.682E-09   -5.724E-09   -5.765E-09
    -5.805E-09   -5.844E-09   -5.882E-09   -5.920E-09   -5.956E-09   -5.991E-09   -6.026E-09   -6.059E-09   -6.092E-09   -6.123E-09
    -6.153E-09   -6.182E-09   -6.211E-09   -6.238E-09   -6.264E-09   -6.289E-09   -6.312E-09   -6.335E-09   -6.356E-09   -6.377E-09
    -6.396E-09   -6.414E-09   -6.430E-09   -6.446E-09   -6.460E-09   -6.473E-09   -6.484E-09   -6.495E-09   -6.504E-09   -6.512E-09
    -6.518E-09   -6.523E-09   -6.527E-09   -6.529E-09   -6.531E-09   -6.530E-09   -6.528E-09   -6.525E-09   -6.521E-09   -6.514E-09
    -6.507E-09   -6.498E-09   -6.487E-09   -6.475E-09   -6.462E-09   -6.447E-09   -6.430E-09   -6.412E-09   -6.392E-09   -6.371E-09
    -6.348E-09   -6.323E-09   -6.297E-09   -6.269E-09   -6.239E-09   -6.208E-09   -6.175E-09   -6.141E-09   -6.104E-09   -6.066E-09
    -6.026E-09   -5.985E-09   -5.941E-09   -5.896E-09   -5.849E-09   -5.801E-09   -5.750E-09   -5.698E-09   -5.644E-09   -5.588E-09
    -5.531E-09   -5.472E-09   -5.411E-09   -5.349E-09   -5.286E-09   -5.221E-09   -5.155E-09   -5.087E-09   -5.018E-09   -4.948E-09
    -4.877E-09   -4.805E-09   -4.731E-09   -4.657E-09   -4.582E-09   -4.505E-09   -4.428E-09   -4.350E-09   -4.271E-09   -4.192E-09
    -4.111E-09   -4.030E-09   -3.949E-09   -3.866E-09   -3.784E-09   -3.700E-09   -3.617E-09   -3.533E-09   -3.448E-09   -3.364E-09
    -3.279E-09   -3.194E-09   -3.109E-09   -3.023E-09   -2.938E-09   -2.852E-09   -2.767E-09   -2.682E-09   -2.596E-09   -2.511E-09
    -2.426E-09   -2.342E-09   -2.258E-09   -2.174E-09   -2.090E-09   -2.007E-09   -1.924E-09   -1.842E-09   -1.761E-09   -1.680E-09
    -1.600E-09   -1.520E-09   -1.442E-09   -1.364E-09   -1.287E-09   -1.211E-09   -1.136E-09   -1.061E-09   -9.882E-10   -9.162E-10
    -8.453E-10   -7.755E-10   -7.071E-10   -6.398E-10   -5.739E-10   -5.094E-10   -4.463E-10   -3.846E-10   -3.244E-10   -2.658E-10
    -2.086E-10   -1.529E-10   -9.873E-11   -4.598E-11    5.305E-12    5.516E-11    1.036E-10    1.506E-10    1.961E-10    2.403E-10
     2.831E-10    3.245E-10    3.645E-10    4.031E-10    4.404E-10    4.764E-10    5.110E-10    5.443E-10    5.763E-10    6.070E-10
     6.363E-10    6.645E-10    6.913E-10    7.169E-10    7.412E-10    7.642E-10    7.861E-10    8.067E-10    8.261E-10    8.443E-10
     8.613E-10    8.771E-10    8.918E-10    9.053E-10    9.176E-10    9.288E-10    9.389E-10    9.478E-10    9.556E-10    9.623E-10
     9.680E-10    9.725E-10    9.760E-10    9.784E-10    9.798E-10    9.801E-10    9.794E-10    9.777E-10    9.749E-10    9.712E-10
     9.664E-10    9.607E-10    9.540E-10    9.464E-10    9.378E-10    9.282E-10    9.178E-10    9.064E-10    8.940E-10    8.808E-10
     8.667E-10    8.518E-10    8.359E-10    8.192E-10    8.016E-10    7.832E-10    7.640E-10    7.439E-10    7.231E-10    7.014E-10
     6.790E-10    6.557E-10    6.317E-10    6.070E-10    5.815E-10    5.553E-10    5.283E-10    5.007E-10    4.724E-10    4.434E-10
     4.138E-10    3.835E-10    3.525E-10    3.210E-10    2.889E-10    2.561E-10    2.228E-10    1.889E-10    1.545E-10    1.195E-10
     8.403E-11    4.802E-11    1.152E-11   -2.547E-11   -6.293E-11   -1.008E-10   -1.392E-10   -1.780E-10   -2.172E-10   -2.568E-10
    -2.968E-10   -3.372E-10   -3.780E-10   -4.191E-10   -4.605E-10   -5.023E-10   -5.443E-10   -5.867E-10   -6.294E-10   -6.723E-10
    -7.155E-10   -7.589E-10   -8.025E-10   -8.464E-10   -8.905E-10   -9.348E-10   -9.792E-10   -1.024E-09   -1.069E-09   -1.113E-09
    -1.158E-09   -1.204E-09   -1.249E-09   -1.294E-09   -1.340E-09   -1.385E-09   -1.430E-09   -1.476E-09   -1.522E-09   -1.567E-09
    -1.613E-09   -1.658E-09   -1.704E-09   -1.749E-09   -1.794E-09   -1.840E-09   -1.885E-09   -1.930E-09   -1.975E-09   -2.020E-09
    -2.064E-09   -2.109E-09   -2.153E-09
 GPC      Conc. = 2.08E-11
  -5.95473E-10 -6.82579E-10 -7.67877E-10 -8.43804E-10 -9.09433E-10 -9.66629E-10 -1.02440E-09 -1.08856E-09 -1.15976E-09 -1.23751E-09
  -1.32068E-09 -1.40858E-09 -1.50094E-09 -1.59601E-09 -1.69206E-09 -1.78477E-09 -1.87168E-09 -1.95200E-09 -2.02805E-09 -2.10168E-09
  -2.17257E-09 -2.23836E-09 -2.28946E-09 -2.27613E-09 -2.25084E-09 -2.24913E-09 -2.27086E-09 -2.32103E-09 -2.39537E-09 -2.48321E-09
  -2.58620E-09 -2.70755E-09 -2.84360E-09 -2.99239E-09 -3.13991E-09 -3.24380E-09 -3.32368E-09 -3.39731E-09 -3.46827E-09 -3.53773E-09
  -3.60613E-09 -3.67370E-09 -3.74055E-09 -3.80676E-09 -3.87234E-09 -3.93734E-09 -4.00175E-09 -4.06559E-09 -4.12885E-09 -4.19153E-09
  -4.25363E-09 -4.31513E-09 -4.37604E-09 -4.43635E-09 -4.49603E-09 -4.55511E-09 -4.61355E-09 -4.67133E-09 -4.72850E-09 -4.78498E-09
  -4.84079E-09 -4.89593E-09 -4.95037E-09 -5.00412E-09 -5.05713E-09 -5.10944E-09 -5.16101E-09 -5.21185E-09 -5.26192E-09 -5.31123E-09
  -5.35977E-09 -5.40752E-09 -5.45447E-09 -5.50062E-09 -5.54595E-09 -5.59044E-09 -5.63408E-09 -5.67686E-09 -5.71877E-09 -5.75978E-09
  -5.79989E-09 -5.83909E-09 -5.87735E-09 -5.91466E-09 -5.95102E-09 -5.98640E-09 -6.02079E-09 -6.05418E-09 -6.08656E-09 -6.11790E-09
  -6.14820E-09 -6.17744E-09 -6.20561E-09 -6.23270E-09 -6.25868E-09 -6.28355E-09 -6.30729E-09 -6.32988E-09 -6.35132E-09 -6.37159E-09
  -6.39068E-09 -6.40857E-09 -6.42524E-09 -6.44069E-09 -6.45489E-09 -6.46784E-09 -6.47952E-09 -6.48992E-09 -6.49903E-09 -6.50682E-09
  -6.51328E-09 -6.51841E-09 -6.52218E-09 -6.52459E-09 -6.52561E-09 -6.52524E-09 -6.52346E-09 -6.52026E-09 -6.51562E-09 -6.50953E-09
  -6.50197E-09 -6.49294E-09 -6.48240E-09 -6.47037E-09 -6.45681E-09 -6.44171E-09 -6.42506E-09 -6.40686E-09 -6.38707E-09 -6.36569E-09
  -6.34270E-09 -6.31810E-09 -6.29186E-09 -6.26398E-09 -6.23442E-09 -6.20320E-09 -6.17028E-09 -6.13566E-09 -6.09933E-09 -6.06125E-09
  -6.02144E-09 -5.97986E-09 -5.93650E-09 -5.89137E-09 -5.84443E-09 -5.79567E-09 -5.74509E-09 -5.69274E-09 -5.63866E-09 -5.58291E-09
  -5.52551E-09 -5.46653E-09 -5.40600E-09 -5.34398E-09 -5.28049E-09 -5.21560E-09 -5.14934E-09 -5.08176E-09 -5.01290E-09 -4.94280E-09
  -4.87149E-09 -4.79901E-09 -4.72536E-09 -4.65053E-09 -4.57442E-09 -4.49660E-09 -4.41503E-09 -4.32500E-09 -4.23573E-09 -4.14879E-09
  -4.06386E-09 -3.98164E-09 -3.90117E-09 -3.82146E-09 -3.74318E-09 -3.66650E-09 -3.59090E-09 -3.51608E-09 -3.43953E-09 -3.35700E-09
  -3.27292E-09 -3.18824E-09 -3.10322E-09 -3.01802E-09 -2.93270E-09 -2.84733E-09 -2.76197E-09 -2.67669E-09 -2.59149E-09 -2.50646E-09
  -2.42165E-09 -2.33708E-09 -2.25282E-09 -2.16889E-09 -2.08538E-09 -2.00230E-09 -1.91970E-09 -1.83765E-09 -1.75619E-09 -1.67534E-09
  -1.59516E-09 -1.51571E-09 -1.43702E-09 -1.35915E-09 -1.28212E-09 -1.20602E-09 -1.13086E-09 -1.05669E-09 -9.83560E-10 -9.11544E-10
  -8.40633E-10 -7.70917E-10 -7.02432E-10 -6.35216E-10 -5.69303E-10 -5.04775E-10 -4.41659E-10 -3.79981E-10 -3.19824E-10 -2.61161E-10
  -2.04001E-10 -1.48311E-10 -9.41078E-11 -4.13594E-11  9.92015E-12  5.97702E-11  1.08181E-10  1.55166E-10  2.00737E-10  2.44899E-10
   2.87677E-10  3.29066E-10  3.69080E-10  4.07730E-10  4.45030E-10  4.80983E-10  5.15608E-10  5.48902E-10  5.80888E-10  6.11565E-10
   6.40946E-10  6.69057E-10  6.95889E-10  7.21458E-10  7.45765E-10  7.68834E-10  7.90671E-10  8.11287E-10  8.30692E-10  8.48884E-10
   8.65899E-10  8.81713E-10  8.96385E-10  9.09859E-10  9.22184E-10  9.33388E-10  9.43449E-10  9.52387E-10  9.60210E-10  9.66925E-10
   9.72551E-10  9.77104E-10  9.80583E-10  9.83006E-10  9.84363E-10  9.84681E-10  9.83985E-10  9.82241E-10  9.79498E-10  9.75758E-10
   9.71020E-10  9.65293E-10  9.58611E-10  9.50946E-10  9.42353E-10  9.32803E-10  9.22330E-10  9.10937E-10  8.98620E-10  8.85406E-10
   8.71313E-10  8.56331E-10  8.40487E-10  8.23769E-10  8.06206E-10  7.87804E-10  7.68582E-10  7.48511E-10  7.27645E-10  7.05983E-10
   6.83516E-10  6.60280E-10  6.36278E-10  6.11524E-10  5.86030E-10  5.59813E-10  5.32882E-10  5.05252E-10  4.76937E-10  4.47950E-10
   4.18305E-10  3.88014E-10  3.57091E-10  3.25551E-10  2.93405E-10  2.60666E-10  2.27351E-10  1.93471E-10  1.59039E-10  1.24067E-10
   8.85726E-11  5.25654E-11  1.60617E-11 -2.09282E-11 -5.83885E-11 -9.63070E-11 -1.34669E-10 -1.73464E-10 -2.12676E-10 -2.52292E-10
  -2.92299E-10 -3.32685E-10 -3.73434E-10 -4.14534E-10 -4.55972E-10 -4.97735E-10 -5.39807E-10 -5.82178E-10 -6.24831E-10 -6.67757E-10
  -7.10939E-10 -7.54366E-10 -7.98023E-10 -8.41898E-10 -8.85977E-10 -9.30246E-10 -9.74692E-10 -1.01930E-09 -1.06406E-09 -1.10896E-09
  -1.15398E-09 -1.19912E-09 -1.24435E-09 -1.28966E-09 -1.33505E-09 -1.38049E-09 -1.42597E-09 -1.47149E-09 -1.51702E-09 -1.56256E-09
  -1.60808E-09 -1.65359E-09 -1.69905E-09 -1.74447E-09 -1.78983E-09 -1.83511E-09 -1.88030E-09 -1.92538E-09 -1.97035E-09 -2.01520E-09
  -2.05989E-09 -2.10444E-09 -2.14881E-09
   8 lines in following diagnostic table:
   1 ERROR     MYBASI 10                                                  
   4 ERRORS    AREABA  3                                                  
   1 warning   STARTV  5                                                  
   1 info      PNNLS   1                                                  
   1 info      STARTV 13                                                  
   1 warning   STARTV 25                                                  
   1 info      STARTV 20                                                  
   1 info      RFALSI 11                                                  
  79 lines in following table of input changes:
ATTH2O=1.0                                                                
FILH2O='/mnt/c/Users/divya/Downloads/Lexar/DataFo                         
   rDivya/meas_MID01415_FID95676_lb_RosetteSpinEc                         
   ho_ek_v1a_lcm/11x24_ftSpec_smooth_lcm_w'                               
DOWS=T                                                                    
DOECC=T                                                                   
CHRATO(8)='MM9/MM1 = 1.40 +- 0.7'                                         
CHRATO(7)='MM8/MM1 = 0.33 +- 0.17'                                        
CHRATO(6)='MM7/MM1 = 0.54 +- 0.27'                                        
CHRATO(5)='MM6/MM1 = 0.63 +- 0.16'                                        
CHRATO(4)='MM5/MM1 = 3.16 +- 0.79'                                        
CHRATO(3)='MM4/MM1 = 1.29 +- 1.03'                                        
CHRATO(2)='MM3/MM1 = 1.05 +- 0.63'                                        
CHRATO(1)='MM2/MM1 = 0.51 +- 0.17'                                        
NRATIO=8                                                                  
NORATO(7)='-CrCH2/totCr'                                                  
NORATO(6)='MM17/MM09*'                                                    
NORATO(5)='MM14/MM09*'                                                    
NORATO(4)='MM12/MM09*'                                                    
NORATO(3)='MM20/MM09*'                                                    
NORATO(2)='Lip20/Lip13*'                                                  
NORATO(1)='Lip09/Lip13*'                                                  
NNORAT=7                                                                  
CHOMIT(14)='-CrCH2'                                                       
CHOMIT(13)='MM17'                                                         
CHOMIT(12)='MM14'                                                         
CHOMIT(11)='MM12'                                                         
CHOMIT(10)='MM20'                                                         
CHOMIT(9)='Lip20'                                                         
CHOMIT(8)='MM09'                                                          
CHOMIT(7)='Lip09'                                                         
CHOMIT(6)='Lip13d'                                                        
CHOMIT(5)='Lip13c'                                                        
