 LCModel (Version 6.3-1R) Copyright: S.W. Provencher.          Ref.: Magn. Reson. Med. 30:672-679 (1993).                
 onepulse 11x23_ftSpec_smooth_lcm
 26 lines in following concentration table = NCONC+1
    Conc.  %SD /Cr+PCr  Metabolite                                         
 2.88E-10 152%   2.854 Ala                                                 
 1.32E-09 109%  13.078 Asp                                                 
    0.000 999%   0.000 Cr                                                  
 1.44E-09  68%  14.276 GABA                                                
 1.65E-10 999%   1.637 Glc                                                 
 4.70E-10 251%   4.654 Gln                                                 
    0.000 999%   0.000 Glu                                                 
 1.94E-09 241%  19.231 Glyc                                                
    0.000 999%   0.000 GPC                                                 
 4.93E-10 217%   4.877 GSH                                                 
    0.000 999%   0.000 Ins                                                 
    0.000 999%   0.000 Lac                                                 
 3.71E-11 999%   0.367 NAAG                                                
 6.79E-10 107%   6.719 NAA                                                 
    0.000 999%   0.000 PCh                                                 
 1.01E-10 611%   1.000 PCr                                                 
 2.16E-09 208%  21.351 PE                                                  
 2.43E-10 205%   2.401 Scyllo                                              
 9.71E-10 503%   9.611 Ser                                                 
 3.92E-11 999%   0.388 Tau                                                 
    0.000 999%   0.000 GPC+PCh                                             
 7.16E-10  60%   7.086 NAA+NAAG                                            
 1.94E-09  52%  19.231 Ins+Glyc                                            
 1.01E-10 611%   1.000 Cr+PCr                                              
 4.70E-10 251%   4.654 Glu+Gln                                             
   6 lines in following misc. output table
  FWHM = 0.123 ppm    S/N =   2                                            
  Data shift = 0.447 ppm                                                   
  Ph:  91 deg      11.3 deg/ppm                                            
  alphaB,S = 9.0E-01,   2.6E+01                                            
    8 spline knots.   Ns = 5(1)                                            
  (10) 4 infls.   ( 9) 3 extrs.                                            
  363 points on ppm-axis = NY
      4.250000     4.238821     4.227641     4.216462     4.205282     4.194103     4.182923     4.171744     4.160564     4.149385
      4.138206     4.127026     4.115847     4.104667     4.093488     4.082308     4.071129     4.059949     4.048770     4.037591
      4.026411     4.015232     4.004052     3.992873     3.981693     3.970514     3.959334     3.948155     3.936975     3.925796
      3.914617     3.903437     3.892258     3.881078     3.869899     3.858719     3.847540     3.836360     3.825181     3.814002
      3.802822     3.791643     3.780463     3.769284     3.758104     3.746925     3.735745     3.724566     3.713387     3.702207
      3.691028     3.679848     3.668669     3.657489     3.646310     3.635130     3.623951     3.612772     3.601592     3.590413
      3.579233     3.568054     3.556874     3.545695     3.534515     3.523336     3.512156     3.500977     3.489798     3.478618
      3.467439     3.456259     3.445080     3.433900     3.422721     3.411541     3.400362     3.389183     3.378003     3.366824
      3.355644     3.344465     3.333285     3.322106     3.310926     3.299747     3.288568     3.277388     3.266209     3.255029
      3.243850     3.232670     3.221491     3.210311     3.199132     3.187953     3.176773     3.165594     3.154414     3.143235
      3.132055     3.120876     3.109696     3.098517     3.087337     3.076158     3.064979     3.053799     3.042620     3.031440
      3.020261     3.009081     2.997902     2.986722     2.975543     2.964364     2.953184     2.942005     2.930825     2.919646
      2.908466     2.897287     2.886107     2.874928     2.863749     2.852569     2.841390     2.830210     2.819031     2.807851
      2.796672     2.785492     2.774313     2.763134     2.751954     2.740775     2.729595     2.718416     2.707236     2.696057
      2.684877     2.673698     2.662519     2.651339     2.640160     2.628980     2.617801     2.606621     2.595442     2.584262
      2.573083     2.561903     2.550724     2.539545     2.528365     2.517186     2.506006     2.494827     2.483647     2.472468
      2.461288     2.450109     2.438930     2.427750     2.416571     2.405391     2.394212     2.383032     2.371853     2.360673
      2.349494     2.338315     2.327135     2.315956     2.304776     2.293597     2.282417     2.271238     2.260058     2.248879
      2.237700     2.226520     2.215341     2.204161     2.192982     2.181802     2.170623     2.159443     2.148264     2.137084
      2.125905     2.114726     2.103546     2.092367     2.081187     2.070008     2.058828     2.047649     2.036469     2.025290
      2.014111     2.002931     1.991752     1.980572     1.969393     1.958213     1.947034     1.935854     1.924675     1.913496
      1.902316     1.891137     1.879957     1.868778     1.857598     1.846419     1.835239     1.824060     1.812881     1.801701
      1.790522     1.779342     1.768163     1.756983     1.745804     1.734624     1.723445     1.712265     1.701086     1.689907
      1.678727     1.667548     1.656368     1.645189     1.634009     1.622830     1.611650     1.600471     1.589292     1.578112
      1.566933     1.555753     1.544574     1.533394     1.522215     1.511035     1.499856     1.488677     1.477497     1.466318
      1.455138     1.443959     1.432779     1.421600     1.410420     1.399241     1.388062     1.376882     1.365703     1.354523
      1.343344     1.332164     1.320985     1.309805     1.298626     1.287446     1.276267     1.265088     1.253908     1.242729
      1.231549     1.220370     1.209190     1.198011     1.186831     1.175652     1.164473     1.153293     1.142114     1.130934
      1.119755     1.108575     1.097396     1.086216     1.075037     1.063858     1.052678     1.041499     1.030319     1.019140
      1.007960     0.996781     0.985601     0.974422     0.963243     0.952063     0.940884     0.929704     0.918525     0.907345
      0.896166     0.884986     0.873807     0.862628     0.851448     0.840269     0.829089     0.817910     0.806730     0.795551
      0.784371     0.773192     0.762012     0.750833     0.739654     0.728474     0.717295     0.706115     0.694936     0.683756
      0.672577     0.661397     0.650218     0.639039     0.627859     0.616680     0.605500     0.594321     0.583141     0.571962
      0.560782     0.549603     0.538424     0.527244     0.516065     0.504885     0.493706     0.482526     0.471347     0.460167
      0.448988     0.437809     0.426629     0.415450     0.404270     0.393091     0.381911     0.370732     0.359552     0.348373
      0.337193     0.326014     0.314835     0.303655     0.292476     0.281296     0.270117     0.258937     0.247758     0.236578
      0.225399     0.214220     0.203040
 NY phased data points follow
   7.38065E-09  6.92993E-09  7.13855E-09  6.76560E-09  7.01670E-09  6.75961E-09  6.97426E-09  6.98381E-09  7.69566E-09  7.18905E-09
   7.27442E-09  7.31825E-09  7.63368E-09  7.74844E-09  7.52598E-09  7.49670E-09  7.69858E-09  7.71965E-09  8.15267E-09  7.88913E-09
   7.80816E-09  7.07818E-09  7.69637E-09  7.22576E-09  8.20511E-09  8.26381E-09  9.16368E-09  9.55403E-09  9.13029E-09  9.04380E-09
   9.31884E-09  8.80922E-09  8.76682E-09  8.80403E-09  8.99889E-09  8.33718E-09  8.63841E-09  7.84402E-09  8.16186E-09  7.86614E-09
   8.02599E-09  6.94223E-09  7.20212E-09  6.88565E-09  7.31084E-09  6.69022E-09  6.70411E-09  6.07519E-09  6.48242E-09  6.14940E-09
   5.97974E-09  5.51683E-09  6.08721E-09  5.28038E-09  5.46893E-09  5.99953E-09  6.44939E-09  7.10298E-09  7.52343E-09  7.64483E-09
   7.89181E-09  7.47282E-09  7.43309E-09  7.14904E-09  6.69163E-09  6.35681E-09  5.80438E-09  4.99209E-09  5.19962E-09  4.48533E-09
   4.93921E-09  5.15995E-09  6.42327E-09  7.35944E-09  8.47537E-09  8.76865E-09  9.59730E-09  9.69840E-09  1.02322E-08  1.03229E-08
   1.02417E-08  1.03501E-08  1.07571E-08  1.01438E-08  1.04945E-08  9.87293E-09  9.78276E-09  9.85944E-09  1.01006E-08  9.83419E-09
   9.85942E-09  9.40404E-09  9.22004E-09  9.21349E-09  8.87457E-09  8.68768E-09  9.07974E-09  9.13118E-09  9.03660E-09  8.14640E-09
   8.79853E-09  8.13935E-09  7.62578E-09  7.38156E-09  7.26620E-09  6.79453E-09  6.44184E-09  6.42923E-09  6.29111E-09  6.05466E-09
   5.71620E-09  5.80944E-09  5.71726E-09  5.85804E-09  5.72764E-09  5.67658E-09  5.10134E-09  4.94384E-09  4.72589E-09  4.34659E-09
   4.79522E-09  4.30773E-09  4.56321E-09  4.35257E-09  4.14835E-09  4.11533E-09  4.17573E-09  4.27191E-09  4.52917E-09  3.89820E-09
   3.96040E-09  3.77338E-09  4.18452E-09  4.50908E-09  4.42602E-09  4.84306E-09  5.31223E-09  5.07093E-09  5.89955E-09  6.24629E-09
   6.12507E-09  6.66875E-09  7.37219E-09  7.04525E-09  7.13275E-09  7.98794E-09  7.80234E-09  8.10910E-09  8.09574E-09  7.91742E-09
   8.11185E-09  8.07961E-09  8.43582E-09  8.72874E-09  8.66083E-09  8.93706E-09  9.58075E-09  9.06019E-09  9.59675E-09  9.75987E-09
   1.05831E-08  1.12177E-08  1.19497E-08  1.39494E-08  1.57008E-08  1.70082E-08  1.78433E-08  1.85134E-08  1.85471E-08  1.88400E-08
   1.92847E-08  1.92085E-08  1.93206E-08  1.98046E-08  1.94579E-08  1.91604E-08  1.93942E-08  1.92274E-08  1.87771E-08  1.88256E-08
   1.79918E-08  1.75911E-08  1.73497E-08  1.59575E-08  1.53425E-08  1.36523E-08  1.16682E-08  9.67548E-09  7.52322E-09  4.76591E-09
   1.74509E-09 -8.47809E-10 -4.29951E-09 -7.96845E-09 -1.01939E-08 -1.35609E-08 -1.57597E-08 -1.72323E-08 -1.89594E-08 -1.87309E-08
  -1.83706E-08 -1.72938E-08 -1.55149E-08 -1.37244E-08 -1.15456E-08 -9.66423E-09 -7.75077E-09 -5.76544E-09 -5.25084E-09 -4.01061E-09
  -3.27476E-09 -2.74275E-09 -3.22037E-09 -2.56998E-09 -2.40765E-09 -2.57453E-09 -2.48963E-09 -2.10215E-09 -2.55516E-09 -1.90412E-09
  -2.48650E-09 -2.15390E-09 -2.06981E-09 -2.60415E-09 -2.47876E-09 -2.62638E-09 -1.98614E-09 -2.04374E-09 -1.96422E-09 -2.22700E-09
  -2.27767E-09 -1.91135E-09 -1.71978E-09 -1.94991E-09 -1.77898E-09 -1.28378E-09 -1.91242E-09 -2.10171E-09 -2.09523E-09 -2.28509E-09
  -2.15116E-09 -2.02765E-09 -1.92410E-09 -1.43225E-09 -1.39551E-09 -1.33644E-09 -1.40973E-09 -1.42393E-09 -1.33243E-09 -1.09676E-09
  -1.04425E-09 -1.26287E-09 -1.14841E-09 -1.56324E-09 -2.09102E-09 -2.28564E-09 -2.30189E-09 -2.49319E-09 -2.42799E-09 -1.91799E-09
  -2.06803E-09 -1.98886E-09 -1.92112E-09 -1.39918E-09 -1.59410E-09 -9.24842E-10 -1.27443E-09 -6.38802E-10 -8.80247E-10 -8.82175E-10
  -5.09920E-10 -8.20747E-10 -6.04305E-10 -5.65795E-10 -6.64028E-10 -6.49558E-10 -1.12344E-09 -1.03265E-09 -9.28666E-10 -1.37177E-09
  -1.24838E-09 -1.70105E-09 -1.63952E-09 -1.44282E-09 -1.58799E-09 -1.54931E-09 -1.51165E-09 -1.44779E-09 -1.42767E-09 -1.94297E-09
  -1.89935E-09 -2.20083E-09 -1.96591E-09 -1.87658E-09 -2.43574E-09 -2.03870E-09 -2.44139E-09 -2.02870E-09 -2.50472E-09 -2.28665E-09
  -2.29691E-09 -2.21637E-09 -2.10130E-09 -2.11670E-09 -2.08936E-09 -2.43403E-09 -2.20745E-09 -1.89909E-09 -2.14752E-09 -2.07286E-09
  -1.68248E-09 -2.29286E-09 -1.96588E-09 -1.97333E-09 -2.28382E-09 -2.14923E-09 -1.79816E-09 -1.98925E-09 -2.00764E-09 -2.23237E-09
  -2.16323E-09 -1.85036E-09 -1.70559E-09 -1.69087E-09 -1.77017E-09 -2.10335E-09 -2.00695E-09 -1.48803E-09 -1.81590E-09 -1.81794E-09
  -1.28957E-09 -1.75976E-09 -1.66420E-09 -1.31821E-09 -1.55433E-09 -1.46206E-09 -1.44076E-09 -1.43700E-09 -1.21325E-09 -1.32778E-09
  -1.25790E-09 -1.29335E-09 -1.32979E-09 -1.28759E-09 -8.98488E-10 -8.82229E-10 -1.12450E-09 -1.50504E-09 -1.18693E-09 -1.06224E-09
  -1.03356E-09 -6.13669E-10 -7.84488E-10 -9.89258E-10 -7.53432E-10 -5.90205E-10 -9.57456E-10 -8.27290E-10 -5.74014E-10 -3.10859E-10
  -6.80017E-10 -7.18691E-10 -1.74595E-10
 NY points of the fit to the data follow
   1.05572E-08  8.95127E-09  7.67601E-09  6.90527E-09  6.40521E-09  5.90783E-09  5.45757E-09  5.31722E-09  6.62664E-09  7.75007E-09
   8.04427E-09  7.93878E-09  7.66153E-09  7.59679E-09  7.84630E-09  8.30107E-09  8.80414E-09  9.17328E-09  8.67902E-09  6.82189E-09
   6.02343E-09  6.52599E-09  7.18100E-09  8.01159E-09  8.73311E-09  9.49953E-09  1.00296E-08  1.00006E-08  9.48241E-09  9.24031E-09
   9.19272E-09  8.88832E-09  8.84503E-09  8.89496E-09  8.50381E-09  8.24255E-09  8.09501E-09  8.14730E-09  8.15937E-09  7.94641E-09
   7.65858E-09  7.55307E-09  7.19206E-09  6.67852E-09  6.72289E-09  6.78257E-09  6.35466E-09  5.80432E-09  5.77765E-09  6.00196E-09
   6.42341E-09  6.84725E-09  7.06435E-09  7.02573E-09  6.87524E-09  6.69669E-09  6.76469E-09  7.19563E-09  7.45326E-09  7.31519E-09
   7.23055E-09  7.26973E-09  7.52959E-09  7.61177E-09  7.75593E-09  8.13816E-09  8.20981E-09  8.00095E-09  7.85460E-09  7.89668E-09
   8.02082E-09  7.94819E-09  7.78204E-09  7.68601E-09  7.75887E-09  7.57438E-09  7.69167E-09  9.14978E-09  1.01464E-08  1.04151E-08
   1.04318E-08  1.02551E-08  1.01833E-08  1.04553E-08  1.06812E-08  1.06834E-08  1.04952E-08  9.58785E-09  8.15388E-09  7.71723E-09
   7.54698E-09  7.49261E-09  7.53582E-09  7.33207E-09  7.05729E-09  7.06797E-09  6.92706E-09  6.65502E-09  6.60325E-09  6.64061E-09
   6.78453E-09  6.82537E-09  6.81997E-09  6.98492E-09  7.13293E-09  7.20347E-09  7.22905E-09  7.23989E-09  7.22532E-09  7.13715E-09
   6.94875E-09  6.76876E-09  6.75826E-09  6.60483E-09  6.35034E-09  6.26148E-09  6.22201E-09  6.20050E-09  6.18701E-09  6.17737E-09
   6.16955E-09  6.16238E-09  6.15514E-09  6.14734E-09  6.13864E-09  6.12881E-09  6.11763E-09  6.10497E-09  6.09071E-09  6.07475E-09
   6.05698E-09  6.03735E-09  6.01579E-09  5.99224E-09  5.96665E-09  5.93898E-09  5.90917E-09  5.87718E-09  5.84299E-09  5.80657E-09
   5.76791E-09  5.72698E-09  5.68378E-09  5.63829E-09  5.59051E-09  5.54046E-09  5.48820E-09  5.43388E-09  5.37765E-09  5.31971E-09
   5.26028E-09  5.19964E-09  5.13810E-09  5.07612E-09  5.01420E-09  4.95307E-09  4.89370E-09  4.83745E-09  4.78633E-09  4.74336E-09
   4.71343E-09  4.70491E-09  4.73334E-09  4.83110E-09  5.07746E-09  5.72380E-09  7.98612E-09  1.48050E-08  1.94659E-08  2.07943E-08
   2.04551E-08  1.99097E-08  1.97906E-08  2.02234E-08  2.09888E-08  2.12917E-08  1.94272E-08  1.37760E-08  6.47021E-09  4.40061E-09
   3.59814E-09  3.14950E-09  2.84297E-09  2.60668E-09  2.40989E-09  2.23740E-09  2.08089E-09  1.93546E-09  1.79803E-09  1.66661E-09
   1.53987E-09  1.41688E-09  1.29699E-09  1.17974E-09  1.06482E-09  9.51967E-10  8.41011E-10  7.31855E-10  6.24407E-10  5.18603E-10
   4.14429E-10  3.11866E-10  2.10920E-10  1.11601E-10  1.39306E-11 -8.20526E-11 -1.76320E-10 -2.68835E-10 -3.59552E-10 -4.48403E-10
  -5.35371E-10 -6.20376E-10 -7.03370E-10 -7.84299E-10 -8.63112E-10 -9.39728E-10 -1.01410E-09 -1.08617E-09 -1.15586E-09 -1.22321E-09
  -1.28823E-09 -1.35099E-09 -1.41149E-09 -1.46980E-09 -1.52592E-09 -1.57992E-09 -1.63182E-09 -1.68165E-09 -1.72945E-09 -1.77525E-09
  -1.81910E-09 -1.86101E-09 -1.90103E-09 -1.93920E-09 -1.97553E-09 -2.01008E-09 -2.04287E-09 -2.07392E-09 -2.10329E-09 -2.13100E-09
  -2.15707E-09 -2.18157E-09 -2.20449E-09 -2.22590E-09 -2.24579E-09 -2.26423E-09 -2.28124E-09 -2.29686E-09 -2.31112E-09 -2.32403E-09
  -2.33566E-09 -2.34600E-09 -2.35514E-09 -2.36305E-09 -2.36978E-09 -2.37541E-09 -2.37992E-09 -2.38335E-09 -2.38575E-09 -2.38713E-09
  -2.38754E-09 -2.38701E-09 -2.38558E-09 -2.38327E-09 -2.38010E-09 -2.37612E-09 -2.37138E-09 -2.36587E-09 -2.35964E-09 -2.35274E-09
  -2.34518E-09 -2.33700E-09 -2.32824E-09 -2.31890E-09 -2.30907E-09 -2.29872E-09 -2.28793E-09 -2.27671E-09 -2.26508E-09 -2.25310E-09
  -2.24079E-09 -2.22818E-09 -2.21531E-09 -2.20220E-09 -2.18888E-09 -2.17540E-09 -2.16180E-09 -2.14806E-09 -2.13426E-09 -2.12042E-09
  -2.10656E-09 -2.09272E-09 -2.07888E-09 -2.06505E-09 -2.05122E-09 -2.03739E-09 -2.02356E-09 -2.00972E-09 -1.99587E-09 -1.98201E-09
  -1.96814E-09 -1.95425E-09 -1.94034E-09 -1.92642E-09 -1.91246E-09 -1.89849E-09 -1.88448E-09 -1.87045E-09 -1.85638E-09 -1.84228E-09
  -1.82814E-09 -1.81396E-09 -1.79974E-09 -1.78547E-09 -1.77115E-09 -1.75678E-09 -1.74236E-09 -1.72789E-09 -1.71335E-09 -1.69876E-09
  -1.68411E-09 -1.66938E-09 -1.65459E-09 -1.63973E-09 -1.62480E-09 -1.60978E-09 -1.59470E-09 -1.57953E-09 -1.56429E-09 -1.54895E-09
  -1.53353E-09 -1.51802E-09 -1.50241E-09 -1.48670E-09 -1.47091E-09 -1.45501E-09 -1.43901E-09 -1.42290E-09 -1.40669E-09 -1.39036E-09
  -1.37392E-09 -1.35736E-09 -1.34070E-09 -1.32391E-09 -1.30698E-09 -1.28995E-09 -1.27278E-09 -1.25548E-09 -1.23805E-09 -1.22048E-09
  -1.20278E-09 -1.18494E-09 -1.16695E-09 -1.14881E-09 -1.13053E-09 -1.11210E-09 -1.09352E-09 -1.07478E-09 -1.05588E-09 -1.03682E-09
  -1.01760E-09 -9.98206E-10 -9.78658E-10
 NY background values follow
    -1.574E-09   -1.501E-09   -1.428E-09   -1.355E-09   -1.282E-09   -1.210E-09   -1.137E-09   -1.064E-09   -9.914E-10   -9.186E-10
    -8.460E-10   -7.733E-10   -7.007E-10   -6.281E-10   -5.556E-10   -4.832E-10   -4.108E-10   -3.385E-10   -2.662E-10   -1.940E-10
    -1.220E-10   -4.995E-11    2.196E-11    9.377E-11    1.655E-10    2.371E-10    3.086E-10    3.800E-10    4.512E-10    5.223E-10
     5.933E-10    6.642E-10    7.349E-10    8.054E-10    8.758E-10    9.461E-10    1.016E-09    1.086E-09    1.156E-09    1.225E-09
     1.295E-09    1.364E-09    1.433E-09    1.502E-09    1.570E-09    1.639E-09    1.707E-09    1.775E-09    1.843E-09    1.910E-09
     1.977E-09    2.044E-09    2.111E-09    2.178E-09    2.244E-09    2.310E-09    2.376E-09    2.441E-09    2.507E-09    2.572E-09
     2.636E-09    2.701E-09    2.765E-09    2.828E-09    2.892E-09    2.955E-09    3.018E-09    3.080E-09    3.143E-09    3.205E-09
     3.266E-09    3.327E-09    3.388E-09    3.449E-09    3.509E-09    3.569E-09    3.628E-09    3.687E-09    3.745E-09    3.803E-09
     3.860E-09    3.917E-09    3.972E-09    4.028E-09    4.082E-09    4.136E-09    4.189E-09    4.242E-09    4.293E-09    4.344E-09
     4.393E-09    4.442E-09    4.490E-09    4.536E-09    4.582E-09    4.627E-09    4.670E-09    4.713E-09    4.754E-09    4.794E-09
     4.833E-09    4.870E-09    4.906E-09    4.941E-09    4.975E-09    5.007E-09    5.037E-09    5.067E-09    5.094E-09    5.120E-09
     5.145E-09    5.168E-09    5.189E-09    5.209E-09    5.227E-09    5.243E-09    5.257E-09    5.270E-09    5.281E-09    5.290E-09
     5.297E-09    5.302E-09    5.305E-09    5.306E-09    5.305E-09    5.302E-09    5.297E-09    5.290E-09    5.280E-09    5.268E-09
     5.255E-09    5.238E-09    5.220E-09    5.199E-09    5.176E-09    5.150E-09    5.122E-09    5.092E-09    5.059E-09    5.023E-09
     4.985E-09    4.945E-09    4.901E-09    4.855E-09    4.807E-09    4.755E-09    4.701E-09    4.644E-09    4.585E-09    4.523E-09
     4.458E-09    4.391E-09    4.322E-09    4.250E-09    4.177E-09    4.101E-09    4.023E-09    3.943E-09    3.862E-09    3.778E-09
     3.693E-09    3.606E-09    3.517E-09    3.427E-09    3.335E-09    3.242E-09    3.147E-09    3.051E-09    2.954E-09    2.856E-09
     2.757E-09    2.657E-09    2.556E-09    2.454E-09    2.351E-09    2.247E-09    2.143E-09    2.039E-09    1.933E-09    1.828E-09
     1.722E-09    1.615E-09    1.509E-09    1.402E-09    1.295E-09    1.188E-09    1.081E-09    9.748E-10    8.683E-10    7.621E-10
     6.562E-10    5.507E-10    4.457E-10    3.412E-10    2.374E-10    1.342E-10    3.174E-11   -6.987E-11   -1.706E-10   -2.703E-10
    -3.691E-10   -4.667E-10   -5.631E-10   -6.584E-10   -7.523E-10   -8.448E-10   -9.358E-10   -1.025E-09   -1.113E-09   -1.200E-09
    -1.284E-09   -1.367E-09   -1.448E-09   -1.527E-09   -1.604E-09   -1.679E-09   -1.751E-09   -1.822E-09   -1.890E-09   -1.956E-09
    -2.019E-09   -2.081E-09   -2.140E-09   -2.197E-09   -2.252E-09   -2.305E-09   -2.356E-09   -2.405E-09   -2.452E-09   -2.496E-09
    -2.539E-09   -2.580E-09   -2.620E-09   -2.657E-09   -2.692E-09   -2.726E-09   -2.758E-09   -2.789E-09   -2.817E-09   -2.844E-09
    -2.870E-09   -2.894E-09   -2.916E-09   -2.937E-09   -2.956E-09   -2.974E-09   -2.990E-09   -3.005E-09   -3.019E-09   -3.031E-09
    -3.042E-09   -3.052E-09   -3.061E-09   -3.068E-09   -3.074E-09   -3.080E-09   -3.084E-09   -3.087E-09   -3.088E-09   -3.089E-09
    -3.089E-09   -3.088E-09   -3.087E-09   -3.084E-09   -3.080E-09   -3.076E-09   -3.071E-09   -3.065E-09   -3.058E-09   -3.051E-09
    -3.043E-09   -3.034E-09   -3.025E-09   -3.015E-09   -3.005E-09   -2.994E-09   -2.983E-09   -2.972E-09   -2.960E-09   -2.947E-09
    -2.935E-09   -2.922E-09   -2.908E-09   -2.895E-09   -2.881E-09   -2.867E-09   -2.853E-09   -2.839E-09   -2.825E-09   -2.811E-09
    -2.797E-09   -2.783E-09   -2.769E-09   -2.754E-09   -2.740E-09   -2.726E-09   -2.712E-09   -2.698E-09   -2.684E-09   -2.669E-09
    -2.655E-09   -2.641E-09   -2.627E-09   -2.612E-09   -2.598E-09   -2.584E-09   -2.570E-09   -2.555E-09   -2.541E-09   -2.526E-09
    -2.512E-09   -2.497E-09   -2.483E-09   -2.468E-09   -2.454E-09   -2.439E-09   -2.424E-09   -2.409E-09   -2.395E-09   -2.380E-09
    -2.365E-09   -2.350E-09   -2.334E-09   -2.319E-09   -2.304E-09   -2.289E-09   -2.273E-09   -2.258E-09   -2.242E-09   -2.227E-09
    -2.211E-09   -2.195E-09   -2.179E-09   -2.163E-09   -2.147E-09   -2.131E-09   -2.114E-09   -2.098E-09   -2.081E-09   -2.065E-09
    -2.048E-09   -2.031E-09   -2.014E-09   -1.997E-09   -1.980E-09   -1.962E-09   -1.945E-09   -1.927E-09   -1.909E-09   -1.891E-09
    -1.873E-09   -1.855E-09   -1.837E-09   -1.818E-09   -1.800E-09   -1.781E-09   -1.762E-09   -1.743E-09   -1.724E-09   -1.704E-09
    -1.685E-09   -1.665E-09   -1.645E-09
 Ala      Conc. = 2.88E-10
  -1.36380E-09 -1.27270E-09 -1.19432E-09 -1.11680E-09 -1.04306E-09 -9.70381E-10 -9.06027E-10 -8.66478E-10 -8.13818E-10 -7.41170E-10
  -7.03966E-10 -6.65733E-10 -6.00350E-10 -5.44014E-10 -4.90061E-10 -4.28532E-10 -3.63264E-10 -2.95962E-10 -2.27433E-10 -1.58115E-10
  -8.82782E-11 -1.80948E-11  5.23254E-11  1.22897E-10  1.93570E-10  2.64282E-10  3.35012E-10  4.05719E-10  4.76391E-10  5.47011E-10
   6.17553E-10  6.88011E-10  7.58378E-10  8.28625E-10  8.98761E-10  9.68748E-10  1.03862E-09  1.10834E-09  1.17790E-09  1.24731E-09
   1.31655E-09  1.38563E-09  1.45450E-09  1.52322E-09  1.59172E-09  1.66004E-09  1.72814E-09  1.79605E-09  1.86374E-09  1.93120E-09
   1.99845E-09  2.06546E-09  2.13224E-09  2.19878E-09  2.26506E-09  2.33110E-09  2.39689E-09  2.46239E-09  2.52768E-09  2.59266E-09
   2.65737E-09  2.72182E-09  2.78597E-09  2.84984E-09  2.91340E-09  2.97668E-09  3.03965E-09  3.10233E-09  3.16470E-09  3.22675E-09
   3.28849E-09  3.34992E-09  3.41102E-09  3.47181E-09  3.53225E-09  3.59232E-09  3.65200E-09  3.71125E-09  3.77005E-09  3.82837E-09
   3.88620E-09  3.94350E-09  4.00027E-09  4.05649E-09  4.11215E-09  4.16724E-09  4.22179E-09  4.27579E-09  4.32930E-09  4.38237E-09
   4.43510E-09  4.48766E-09  4.54030E-09  4.59340E-09  4.64766E-09  4.70427E-09  4.76554E-09  4.83651E-09  4.93058E-09  5.09665E-09
   5.40048E-09  5.55288E-09  5.62849E-09  5.85544E-09  6.05240E-09  6.16297E-09  6.22195E-09  6.26100E-09  6.27046E-09  6.20291E-09
   6.03243E-09  5.86841E-09  5.87218E-09  5.73157E-09  5.48857E-09  5.40995E-09  5.37968E-09  5.36653E-09  5.36069E-09  5.35806E-09
   5.35666E-09  5.35536E-09  5.35351E-09  5.35066E-09  5.34651E-09  5.34086E-09  5.33354E-09  5.32442E-09  5.31340E-09  5.30040E-09
   5.28535E-09  5.26817E-09  5.24882E-09  5.22723E-09  5.20336E-09  5.17718E-09  5.14861E-09  5.11763E-09  5.08421E-09  5.04829E-09
   5.00985E-09  4.96884E-09  4.92522E-09  4.87898E-09  4.83005E-09  4.77842E-09  4.72408E-09  4.66709E-09  4.60752E-09  4.54544E-09
   4.48093E-09  4.41406E-09  4.34490E-09  4.27355E-09  4.20007E-09  4.12456E-09  4.04710E-09  3.96781E-09  3.88681E-09  3.80424E-09
   3.72032E-09  3.63534E-09  3.54980E-09  3.46469E-09  3.38232E-09  3.31003E-09  3.28384E-09  3.38136E-09  3.41480E-09  3.35468E-09
   3.24825E-09  3.13585E-09  3.03470E-09  2.94810E-09  2.86975E-09  2.77695E-09  2.62171E-09  2.36016E-09  2.05619E-09  1.89805E-09
   1.77306E-09  1.65730E-09  1.54516E-09  1.43480E-09  1.32543E-09  1.21672E-09  1.10850E-09  1.00072E-09  8.93341E-10  7.86384E-10
   6.79887E-10  5.73877E-10  4.68416E-10  3.63552E-10  2.59358E-10  1.55879E-10  5.31773E-11 -4.86625E-11 -1.49586E-10 -2.49536E-10
  -3.48433E-10 -4.46215E-10 -5.42811E-10 -6.38154E-10 -7.32178E-10 -8.24806E-10 -9.15974E-10 -1.00562E-09 -1.09366E-09 -1.18003E-09
  -1.26467E-09 -1.34750E-09 -1.42846E-09 -1.50746E-09 -1.58447E-09 -1.65937E-09 -1.73212E-09 -1.80266E-09 -1.87089E-09 -1.93685E-09
  -2.00056E-09 -2.06205E-09 -2.12135E-09 -2.17850E-09 -2.23352E-09 -2.28646E-09 -2.33734E-09 -2.38619E-09 -2.43304E-09 -2.47793E-09
  -2.52090E-09 -2.56197E-09 -2.60117E-09 -2.63853E-09 -2.67410E-09 -2.70790E-09 -2.73997E-09 -2.77032E-09 -2.79900E-09 -2.82604E-09
  -2.85147E-09 -2.87533E-09 -2.89764E-09 -2.91844E-09 -2.93775E-09 -2.95562E-09 -2.97207E-09 -2.98713E-09 -3.00085E-09 -3.01323E-09
  -3.02435E-09 -3.03418E-09 -3.04283E-09 -3.05025E-09 -3.05650E-09 -3.06166E-09 -3.06570E-09 -3.06868E-09 -3.07063E-09 -3.07156E-09
  -3.07154E-09 -3.07058E-09 -3.06873E-09 -3.06600E-09 -3.06242E-09 -3.05803E-09 -3.05289E-09 -3.04697E-09 -3.04036E-09 -3.03307E-09
  -3.02513E-09 -3.01656E-09 -3.00743E-09 -2.99772E-09 -2.98751E-09 -2.97680E-09 -2.96565E-09 -2.95407E-09 -2.94208E-09 -2.92974E-09
  -2.91709E-09 -2.90413E-09 -2.89091E-09 -2.87745E-09 -2.86380E-09 -2.84998E-09 -2.83604E-09 -2.82196E-09 -2.80783E-09 -2.79366E-09
  -2.77947E-09 -2.76530E-09 -2.75114E-09 -2.73698E-09 -2.72282E-09 -2.70867E-09 -2.69452E-09 -2.68035E-09 -2.66619E-09 -2.65201E-09
  -2.63782E-09 -2.62361E-09 -2.60939E-09 -2.59515E-09 -2.58088E-09 -2.56659E-09 -2.55228E-09 -2.53793E-09 -2.52355E-09 -2.50914E-09
  -2.49468E-09 -2.48019E-09 -2.46566E-09 -2.45108E-09 -2.43645E-09 -2.42177E-09 -2.40704E-09 -2.39225E-09 -2.37741E-09 -2.36250E-09
  -2.34754E-09 -2.33250E-09 -2.31740E-09 -2.30223E-09 -2.28698E-09 -2.27166E-09 -2.25626E-09 -2.24078E-09 -2.22522E-09 -2.20957E-09
  -2.19384E-09 -2.17801E-09 -2.16208E-09 -2.14606E-09 -2.12995E-09 -2.11373E-09 -2.09742E-09 -2.08099E-09 -2.06446E-09 -2.04780E-09
  -2.03105E-09 -2.01417E-09 -1.99718E-09 -1.98006E-09 -1.96281E-09 -1.94545E-09 -1.92795E-09 -1.91033E-09 -1.89256E-09 -1.87467E-09
  -1.85663E-09 -1.83845E-09 -1.82013E-09 -1.80166E-09 -1.78304E-09 -1.76426E-09 -1.74535E-09 -1.72626E-09 -1.70702E-09 -1.68762E-09
  -1.66804E-09 -1.64831E-09 -1.62841E-09
 Asp      Conc. = 1.32E-09
  -1.61048E-10 -2.97150E-10 -3.60512E-10 -4.56978E-10 -5.00518E-10 -6.05361E-10 -7.18684E-10 -7.90247E-10 -7.83850E-10 -7.48466E-10
  -6.99417E-10 -6.42382E-10 -5.79432E-10 -5.11994E-10 -4.43494E-10 -3.74135E-10 -3.03840E-10 -2.32743E-10 -1.60952E-10 -8.85441E-11
  -1.55734E-11  5.79369E-11  1.31997E-10  2.06636E-10  2.81923E-10  3.57937E-10  4.34830E-10  5.12788E-10  5.92101E-10  6.73175E-10
   7.56598E-10  8.43299E-10  9.34800E-10  1.03379E-09  1.14581E-09  1.28459E-09  1.48207E-09  1.64597E-09  1.81669E-09  1.91314E-09
   1.96894E-09  2.04894E-09  2.24537E-09  2.57175E-09  3.00420E-09  3.45537E-09  3.58376E-09  3.49897E-09  3.64253E-09  3.83659E-09
   4.06947E-09  4.29137E-09  4.37932E-09  4.22329E-09  3.90485E-09  3.60598E-09  3.47048E-09  3.58052E-09  3.55859E-09  3.35551E-09
   3.29282E-09  3.26397E-09  3.23109E-09  3.29192E-09  3.38131E-09  3.40388E-09  3.36323E-09  3.36592E-09  3.38926E-09  3.42338E-09
   3.46394E-09  3.50865E-09  3.55617E-09  3.60569E-09  3.65661E-09  3.70850E-09  3.76105E-09  3.81402E-09  3.86721E-09  3.92047E-09
   3.97368E-09  4.02671E-09  4.07947E-09  4.13187E-09  4.18385E-09  4.23532E-09  4.28624E-09  4.33654E-09  4.38616E-09  4.43505E-09
   4.48317E-09  4.53047E-09  4.57690E-09  4.62242E-09  4.66699E-09  4.71056E-09  4.75310E-09  4.79457E-09  4.83492E-09  4.87411E-09
   4.91212E-09  4.94891E-09  4.98443E-09  5.01865E-09  5.05153E-09  5.08305E-09  5.11315E-09  5.14181E-09  5.16900E-09  5.19468E-09
   5.21880E-09  5.24134E-09  5.26227E-09  5.28155E-09  5.29914E-09  5.31500E-09  5.32912E-09  5.34144E-09  5.35195E-09  5.36059E-09
   5.36735E-09  5.37218E-09  5.37505E-09  5.37593E-09  5.37479E-09  5.37159E-09  5.36630E-09  5.35888E-09  5.34930E-09  5.33754E-09
   5.32354E-09  5.30730E-09  5.28876E-09  5.26789E-09  5.24467E-09  5.21907E-09  5.19104E-09  5.16057E-09  5.12760E-09  5.09213E-09
   5.05412E-09  5.01352E-09  4.97032E-09  4.92449E-09  4.87600E-09  4.82482E-09  4.77095E-09  4.71447E-09  4.65547E-09  4.59402E-09
   4.53021E-09  4.46415E-09  4.39593E-09  4.32568E-09  4.25351E-09  4.17958E-09  4.10408E-09  4.02724E-09  3.94939E-09  3.87096E-09
   3.79264E-09  3.71559E-09  3.64187E-09  3.57576E-09  3.52774E-09  3.53130E-09  3.75101E-09  4.53603E-09  5.03477E-09  5.11150E-09
   4.98041E-09  4.82511E-09  4.72413E-09  4.69240E-09  4.70062E-09  4.64479E-09  4.30606E-09  3.48552E-09  2.47529E-09  2.12803E-09
   1.93474E-09  1.78506E-09  1.65300E-09  1.52967E-09  1.41128E-09  1.29597E-09  1.18275E-09  1.07107E-09  9.60568E-10  8.51070E-10
   7.42472E-10  6.34699E-10  5.27741E-10  4.21594E-10  3.16289E-10  2.11841E-10  1.08286E-10  5.69081E-12 -9.59049E-11 -1.96457E-10
  -2.95896E-10 -3.94168E-10 -4.91208E-10 -5.86958E-10 -6.81353E-10 -7.74322E-10 -8.65805E-10 -9.55738E-10 -1.04406E-09 -1.13067E-09
  -1.21555E-09 -1.29860E-09 -1.37975E-09 -1.45895E-09 -1.53613E-09 -1.61121E-09 -1.68412E-09 -1.75481E-09 -1.82318E-09 -1.88928E-09
  -1.95311E-09 -2.01473E-09 -2.07414E-09 -2.13141E-09 -2.18653E-09 -2.23957E-09 -2.29055E-09 -2.33949E-09 -2.38644E-09 -2.43142E-09
