 LCModel (Version 6.3-1R) Copyright: S.W. Provencher.          Ref.: Magn. Reson. Med. 30:672-679 (1993).                
 onepulse 11x20_ftSpec_smooth_lcm
 26 lines in following concentration table = NCONC+1
    Conc.  %SD /Cr+PCr  Metabolite                                         
 6.88E-11 539%   3.301 Ala                                                 
    0.000 999%   0.000 Asp                                                 
    0.000 999%   0.000 Cr                                                  
 6.86E-10 105%  32.895 GABA                                                
    0.000 999%   0.000 Glc                                                 
    0.000 999%   0.000 Gln                                                 
    0.000 999%   0.000 Glu                                                 
    0.000 999%   0.000 Glyc                                                
 5.17E-11 206%   2.479 GPC                                                 
    0.000 999%   0.000 GSH                                                 
 1.20E-09  28%  57.504 Ins                                                 
    0.000 999%   0.000 Lac                                                 
    0.000 999%   0.000 NAAG                                                
 5.80E-10  51%  27.840 NAA                                                 
    0.000 999%   0.000 PCh                                                 
 2.08E-11 999%   1.000 PCr                                                 
    0.000 999%   0.000 PE                                                  
 1.56E-10  98%   7.471 Scyllo                                              
 6.13E-09  17% 294.080 Ser                                                 
    0.000 999%   0.000 Tau                                                 
 5.17E-11 206%   2.479 GPC+PCh                                             
 5.80E-10  51%  27.840 NAA+NAAG                                            
 1.20E-09  28%  57.504 Ins+Glyc                                            
 2.08E-11 999%   1.000 Cr+PCr                                              
    0.000 999%   0.000 Glu+Gln                                             
   6 lines in following misc. output table
  FWHM = 0.101 ppm    S/N =   2                                            
  Data shift = 0.369 ppm                                                   
  Ph:  15 deg     -21.0 deg/ppm                                            
  alphaB,S = 1.1E+00,   4.3E+01                                            
    9 spline knots.   Ns = 5(1)                                            
  (10) 2 infls.   ( 7) 1 extrs.                                            
  363 points on ppm-axis = NY
      4.250000     4.238821     4.227641     4.216462     4.205282     4.194103     4.182923     4.171744     4.160564     4.149385
      4.138206     4.127026     4.115847     4.104667     4.093488     4.082308     4.071129     4.059949     4.048770     4.037591
      4.026411     4.015232     4.004052     3.992873     3.981693     3.970514     3.959334     3.948155     3.936975     3.925796
      3.914617     3.903437     3.892258     3.881078     3.869899     3.858719     3.847540     3.836360     3.825181     3.814002
      3.802822     3.791643     3.780463     3.769284     3.758104     3.746925     3.735745     3.724566     3.713387     3.702207
      3.691028     3.679848     3.668669     3.657489     3.646310     3.635130     3.623951     3.612772     3.601592     3.590413
      3.579233     3.568054     3.556874     3.545695     3.534515     3.523336     3.512156     3.500977     3.489798     3.478618
      3.467439     3.456259     3.445080     3.433900     3.422721     3.411541     3.400362     3.389183     3.378003     3.366824
      3.355644     3.344465     3.333285     3.322106     3.310926     3.299747     3.288568     3.277388     3.266209     3.255029
      3.243850     3.232670     3.221491     3.210311     3.199132     3.187953     3.176773     3.165594     3.154414     3.143235
      3.132055     3.120876     3.109696     3.098517     3.087337     3.076158     3.064979     3.053799     3.042620     3.031440
      3.020261     3.009081     2.997902     2.986722     2.975543     2.964364     2.953184     2.942005     2.930825     2.919646
      2.908466     2.897287     2.886107     2.874928     2.863749     2.852569     2.841390     2.830210     2.819031     2.807851
      2.796672     2.785492     2.774313     2.763134     2.751954     2.740775     2.729595     2.718416     2.707236     2.696057
      2.684877     2.673698     2.662519     2.651339     2.640160     2.628980     2.617801     2.606621     2.595442     2.584262
      2.573083     2.561903     2.550724     2.539545     2.528365     2.517186     2.506006     2.494827     2.483647     2.472468
      2.461288     2.450109     2.438930     2.427750     2.416571     2.405391     2.394212     2.383032     2.371853     2.360673
      2.349494     2.338315     2.327135     2.315956     2.304776     2.293597     2.282417     2.271238     2.260058     2.248879
      2.237700     2.226520     2.215341     2.204161     2.192982     2.181802     2.170623     2.159443     2.148264     2.137084
      2.125905     2.114726     2.103546     2.092367     2.081187     2.070008     2.058828     2.047649     2.036469     2.025290
      2.014111     2.002931     1.991752     1.980572     1.969393     1.958213     1.947034     1.935854     1.924675     1.913496
      1.902316     1.891137     1.879957     1.868778     1.857598     1.846419     1.835239     1.824060     1.812881     1.801701
      1.790522     1.779342     1.768163     1.756983     1.745804     1.734624     1.723445     1.712265     1.701086     1.689907
      1.678727     1.667548     1.656368     1.645189     1.634009     1.622830     1.611650     1.600471     1.589292     1.578112
      1.566933     1.555753     1.544574     1.533394     1.522215     1.511035     1.499856     1.488677     1.477497     1.466318
      1.455138     1.443959     1.432779     1.421600     1.410420     1.399241     1.388062     1.376882     1.365703     1.354523
      1.343344     1.332164     1.320985     1.309805     1.298626     1.287446     1.276267     1.265088     1.253908     1.242729
      1.231549     1.220370     1.209190     1.198011     1.186831     1.175652     1.164473     1.153293     1.142114     1.130934
      1.119755     1.108575     1.097396     1.086216     1.075037     1.063858     1.052678     1.041499     1.030319     1.019140
      1.007960     0.996781     0.985601     0.974422     0.963243     0.952063     0.940884     0.929704     0.918525     0.907345
      0.896166     0.884986     0.873807     0.862628     0.851448     0.840269     0.829089     0.817910     0.806730     0.795551
      0.784371     0.773192     0.762012     0.750833     0.739654     0.728474     0.717295     0.706115     0.694936     0.683756
      0.672577     0.661397     0.650218     0.639039     0.627859     0.616680     0.605500     0.594321     0.583141     0.571962
      0.560782     0.549603     0.538424     0.527244     0.516065     0.504885     0.493706     0.482526     0.471347     0.460167
      0.448988     0.437809     0.426629     0.415450     0.404270     0.393091     0.381911     0.370732     0.359552     0.348373
      0.337193     0.326014     0.314835     0.303655     0.292476     0.281296     0.270117     0.258937     0.247758     0.236578
      0.225399     0.214220     0.203040
 NY phased data points follow
   8.31891E-10  9.97949E-10  1.82315E-09  2.02536E-09  2.68498E-09  2.72146E-09  2.80063E-09  2.57640E-09  3.12953E-09  2.69960E-09
   3.70582E-09  3.18588E-09  3.50239E-09  3.34803E-09  3.82324E-09  3.27866E-09  3.80970E-09  3.65849E-09  4.43494E-09  4.01728E-09
   5.44947E-09  4.72167E-09  5.09882E-09  4.31428E-09  4.87548E-09  4.67084E-09  4.94872E-09  5.33149E-09  5.19496E-09  5.17944E-09
   4.54921E-09  5.07641E-09  5.59605E-09  5.67286E-09  7.06614E-09  6.47537E-09  7.66419E-09  7.03757E-09  7.44305E-09  6.92477E-09
   7.58362E-09  7.29104E-09  7.68170E-09  7.51774E-09  7.22601E-09  7.53561E-09  7.35399E-09  7.29008E-09  6.81881E-09  6.31566E-09
   7.04644E-09  6.48870E-09  6.78441E-09  6.01314E-09  6.62286E-09  6.20270E-09  6.16011E-09  5.47373E-09  5.50718E-09  5.06457E-09
   5.55313E-09  4.08158E-09  5.52032E-09  5.22810E-09  6.12417E-09  6.24703E-09  6.75205E-09  6.84221E-09  7.30469E-09  7.20486E-09
   7.52752E-09  6.40129E-09  6.78391E-09  5.83832E-09  5.85474E-09  5.32734E-09  5.46789E-09  5.02334E-09  5.67695E-09  5.41069E-09
   7.14454E-09  7.26177E-09  8.95350E-09  8.73091E-09  1.02146E-08  9.93779E-09  1.11782E-08  1.02804E-08  1.12105E-08  1.08506E-08
   1.14950E-08  1.10979E-08  1.16494E-08  1.06410E-08  1.13607E-08  1.10974E-08  1.08982E-08  1.02994E-08  1.09092E-08  9.63808E-09
   1.08077E-08  9.92149E-09  1.00461E-08  9.65547E-09  1.02079E-08  8.99652E-09  9.76440E-09  8.88751E-09  9.33542E-09  8.11458E-09
   8.60294E-09  7.88570E-09  8.00609E-09  6.70374E-09  7.95076E-09  6.99815E-09  8.03346E-09  6.25287E-09  7.67382E-09  6.97132E-09
   7.42278E-09  6.30761E-09  7.32675E-09  6.06896E-09  6.64252E-09  5.36164E-09  6.41054E-09  5.44773E-09  5.89207E-09  5.48557E-09
   6.10289E-09  4.71355E-09  6.02599E-09  5.00069E-09  6.46637E-09  5.62488E-09  6.58307E-09  5.33410E-09  6.44904E-09  6.26597E-09
   7.37865E-09  6.46620E-09  8.01725E-09  7.08664E-09  8.41163E-09  7.77047E-09  9.26415E-09  8.18050E-09  9.44831E-09  9.45856E-09
   1.02369E-08  8.71577E-09  1.03246E-08  8.89765E-09  1.01423E-08  8.96379E-09  9.78535E-09  9.15465E-09  9.84558E-09  9.13696E-09
   1.03707E-08  9.22739E-09  1.06172E-08  9.31942E-09  1.04047E-08  9.60986E-09  1.12897E-08  1.08253E-08  1.29618E-08  1.26547E-08
   1.48604E-08  1.49730E-08  1.73314E-08  1.65062E-08  1.78083E-08  1.59927E-08  1.72093E-08  1.49671E-08  1.52077E-08  1.37517E-08
   1.38945E-08  1.14952E-08  1.09024E-08  8.91083E-09  7.90965E-09  5.08193E-09  4.80900E-09  1.59528E-09  9.81479E-10 -2.12165E-09
  -3.16316E-09 -5.56965E-09 -6.45630E-09 -9.19889E-09 -1.02936E-08 -1.23900E-08 -1.34791E-08 -1.57379E-08 -1.56989E-08 -1.77141E-08
  -1.70194E-08 -1.84633E-08 -1.78442E-08 -1.80811E-08 -1.61973E-08 -1.66290E-08 -1.41959E-08 -1.38338E-08 -1.09725E-08 -1.06146E-08
  -8.48538E-09 -7.57748E-09 -5.44867E-09 -5.59856E-09 -4.09270E-09 -4.77317E-09 -2.87981E-09 -3.69709E-09 -2.82419E-09 -4.16565E-09
  -2.30278E-09 -3.52286E-09 -2.33875E-09 -3.90015E-09 -2.65177E-09 -3.71298E-09 -2.56806E-09 -4.09063E-09 -2.58753E-09 -3.82394E-09
  -2.79219E-09 -3.72973E-09 -2.49514E-09 -3.17740E-09 -1.99330E-09 -2.93030E-09 -2.49719E-09 -3.50740E-09 -2.29325E-09 -3.46853E-09
  -2.31868E-09 -3.15555E-09 -1.96938E-09 -3.10996E-09 -2.17114E-09 -2.74904E-09 -1.82833E-09 -2.35594E-09 -1.61981E-09 -2.64436E-09
  -1.74015E-09 -2.79676E-09 -1.61209E-09 -2.31477E-09 -1.86918E-09 -2.62953E-09 -1.68025E-09 -2.87080E-09 -1.83002E-09 -3.04671E-09
  -2.01842E-09 -3.27537E-09 -2.24532E-09 -2.68631E-09 -1.81219E-09 -2.64516E-09 -1.34668E-09 -1.98552E-09 -9.86449E-10 -2.04614E-09
  -1.01166E-09 -2.11282E-09 -7.89545E-10 -1.54091E-09 -4.28063E-10 -1.39255E-09 -3.33610E-10 -1.60814E-09 -5.92809E-10 -1.31607E-09
  -4.81160E-10 -2.02167E-09 -1.03486E-09 -2.06678E-09 -1.33351E-09 -1.81068E-09 -1.75997E-09 -2.28433E-09 -1.03796E-09 -2.56102E-09
  -1.06712E-09 -1.74646E-09 -1.70320E-09 -1.84989E-09 -1.75596E-09 -2.07570E-09 -1.29925E-09 -2.12893E-09 -1.32036E-09 -1.87195E-09
  -2.29870E-09 -2.19934E-09 -1.34109E-09 -2.02760E-09 -6.49507E-10 -2.05410E-09 -1.00093E-09 -1.99285E-09 -5.76791E-10 -1.18785E-09
  -7.06497E-10 -1.73388E-09 -6.60985E-10 -1.90406E-09 -5.83800E-10 -6.36379E-10 -6.32835E-10 -8.69303E-10 -6.48797E-10 -9.33835E-10
  -3.95740E-10 -8.77021E-10 -6.00047E-11 -6.18651E-10 -3.26004E-11  3.93168E-10 -1.68465E-10  6.39325E-11  4.38044E-10 -3.88225E-11
   8.08468E-10  3.64320E-10  5.05859E-10  6.59247E-10  1.10406E-09  5.77509E-10  1.10007E-09  5.88930E-10  9.52142E-10  1.43594E-09
   1.35057E-09  6.80190E-10  1.84654E-09  1.38718E-09  1.59473E-09  1.31775E-09  1.81832E-09  1.84452E-09  2.14448E-09  2.03074E-09
   2.51551E-09  1.74825E-09  2.66739E-09  1.71730E-09  2.35086E-09  2.29834E-09  2.31120E-09  2.39034E-09  2.95733E-09  2.62922E-09
   2.97527E-09  2.65882E-09  3.33707E-09
 NY points of the fit to the data follow
  -3.19104E-09  3.69186E-10  2.05521E-09  2.31949E-09  3.24370E-09  4.53895E-09  5.13035E-09  4.48077E-09  3.24885E-09  2.39770E-09
   1.94483E-09  1.89343E-09  2.06620E-09  2.51848E-09  3.14780E-09  3.70884E-09  4.10084E-09  4.56094E-09  5.01073E-09  4.96897E-09
   4.60444E-09  4.28527E-09  4.10636E-09  3.94297E-09  3.93615E-09  4.22836E-09  4.72131E-09  5.18237E-09  5.34799E-09  5.19075E-09
   5.28288E-09  5.47035E-09  5.64998E-09  5.86229E-09  6.02871E-09  6.05014E-09  6.10612E-09  6.24202E-09  6.42501E-09  6.60351E-09
   6.74022E-09  6.86267E-09  6.93449E-09  6.84226E-09  6.74657E-09  6.75515E-09  6.70712E-09  6.60512E-09  6.51867E-09  6.48066E-09
   6.47862E-09  6.51600E-09  6.57711E-09  6.62623E-09  6.63063E-09  6.61017E-09  6.61160E-09  6.67549E-09  6.77329E-09  6.84726E-09
   6.84870E-09  6.80008E-09  6.80695E-09  6.86324E-09  6.96158E-09  7.21912E-09  7.50339E-09  7.68932E-09  7.87398E-09  8.05494E-09
   8.24561E-09  8.38296E-09  8.39737E-09  8.28378E-09  8.15291E-09  7.84069E-09  7.38400E-09  7.35495E-09  7.76245E-09  8.28593E-09
   8.84613E-09  9.33688E-09  9.77388E-09  1.03333E-08  1.10075E-08  1.16321E-08  1.20248E-08  1.19058E-08  1.12155E-08  1.06333E-08
   1.03662E-08  1.02274E-08  1.01738E-08  1.00743E-08  9.92210E-09  9.84909E-09  9.74434E-09  9.56441E-09  9.42985E-09  9.31472E-09
   9.21421E-09  9.13269E-09  9.05200E-09  8.99824E-09  8.96468E-09  8.93902E-09  8.91375E-09  8.88313E-09  8.83936E-09  8.77372E-09
   8.68361E-09  8.58274E-09  8.50288E-09  8.39783E-09  8.26448E-09  8.15637E-09  8.06086E-09  7.97085E-09  7.88341E-09  7.79716E-09
   7.71107E-09  7.62479E-09  7.53790E-09  7.45019E-09  7.36147E-09  7.27166E-09  7.18063E-09  7.08836E-09  6.99480E-09  6.89993E-09
   6.80373E-09  6.70621E-09  6.60737E-09  6.50725E-09  6.40585E-09  6.30322E-09  6.19938E-09  6.09438E-09  5.98829E-09  5.88115E-09
   5.77304E-09  5.66402E-09  5.55417E-09  5.44363E-09  5.33241E-09  5.22067E-09  5.10855E-09  4.99621E-09  4.88377E-09  4.77148E-09
   4.65956E-09  4.54823E-09  4.43789E-09  4.32896E-09  4.22189E-09  4.11737E-09  4.01631E-09  3.91983E-09  3.82956E-09  3.74789E-09
   3.67827E-09  3.62639E-09  3.60177E-09  3.62238E-09  3.72683E-09  4.01858E-09  4.90051E-09  7.92492E-09  1.18155E-08  1.48944E-08
   1.67872E-08  1.78520E-08  1.85901E-08  1.92065E-08  1.93800E-08  1.82689E-08  1.50160E-08  9.65515E-09  4.09876E-09  1.75208E-09
   1.02985E-09  6.64693E-10  4.21356E-10  2.31968E-10  7.05409E-11 -7.47005E-11 -2.09755E-10 -3.37936E-10 -4.61167E-10 -5.80624E-10
  -6.97062E-10 -8.10936E-10 -9.22577E-10 -1.03217E-09 -1.13985E-09 -1.24573E-09 -1.34982E-09 -1.45216E-09 -1.55278E-09 -1.65165E-09
  -1.74878E-09 -1.84416E-09 -1.93776E-09 -2.02955E-09 -2.11953E-09 -2.20765E-09 -2.29390E-09 -2.37822E-09 -2.46063E-09 -2.54108E-09
  -2.61954E-09 -2.69599E-09 -2.77040E-09 -2.84275E-09 -2.91303E-09 -2.98120E-09 -3.04723E-09 -3.11111E-09 -3.17285E-09 -3.23238E-09
  -3.28971E-09 -3.34481E-09 -3.39769E-09 -3.44831E-09 -3.49669E-09 -3.54278E-09 -3.58659E-09 -3.62812E-09 -3.66733E-09 -3.70423E-09
  -3.73883E-09 -3.77111E-09 -3.80107E-09 -3.82871E-09 -3.85403E-09 -3.87702E-09 -3.89770E-09 -3.91606E-09 -3.93212E-09 -3.94586E-09
  -3.95731E-09 -3.96648E-09 -3.97336E-09 -3.97799E-09 -3.98040E-09 -3.98061E-09 -3.97867E-09 -3.97460E-09 -3.96844E-09 -3.96022E-09
  -3.94997E-09 -3.93772E-09 -3.92351E-09 -3.90738E-09 -3.88935E-09 -3.86945E-09 -3.84773E-09 -3.82421E-09 -3.79893E-09 -3.77191E-09
  -3.74320E-09 -3.71282E-09 -3.68081E-09 -3.64719E-09 -3.61201E-09 -3.57529E-09 -3.53707E-09 -3.49737E-09 -3.45623E-09 -3.41368E-09
  -3.36974E-09 -3.32446E-09 -3.27785E-09 -3.22994E-09 -3.18078E-09 -3.13038E-09 -3.07877E-09 -3.02598E-09 -2.97204E-09 -2.91697E-09
  -2.86081E-09 -2.80357E-09 -2.74529E-09 -2.68598E-09 -2.62567E-09 -2.56439E-09 -2.50215E-09 -2.43899E-09 -2.37492E-09 -2.30996E-09
  -2.24414E-09 -2.17746E-09 -2.10997E-09 -2.04167E-09 -1.97257E-09 -1.90271E-09 -1.83209E-09 -1.76074E-09 -1.68866E-09 -1.61587E-09
  -1.54239E-09 -1.46823E-09 -1.39340E-09 -1.31792E-09 -1.24179E-09 -1.16503E-09 -1.08765E-09 -1.00966E-09 -9.31060E-10 -8.51877E-10
  -7.72118E-10 -6.91793E-10 -6.10916E-10 -5.29497E-10 -4.47550E-10 -3.65085E-10 -2.82118E-10 -1.98658E-10 -1.14721E-10 -3.03164E-11
   5.45404E-11  1.39837E-10  2.25561E-10  3.11698E-10  3.98236E-10  4.85159E-10  5.72454E-10  6.60109E-10  7.48111E-10  8.36442E-10
   9.25092E-10  1.01405E-09  1.10329E-09  1.19280E-09  1.28259E-09  1.37261E-09  1.46286E-09  1.55334E-09  1.64401E-09  1.73488E-09
   1.82591E-09  1.91710E-09  2.00844E-09  2.09990E-09  2.19148E-09  2.28316E-09  2.37491E-09  2.46674E-09  2.55861E-09  2.65052E-09
   2.74245E-09  2.83439E-09  2.92632E-09  3.01822E-09  3.11008E-09  3.20188E-09  3.29362E-09  3.38526E-09  3.47680E-09  3.56822E-09
   3.65951E-09  3.75064E-09  3.84160E-09
 NY background values follow
    -5.371E-09   -5.150E-09   -4.930E-09   -4.712E-09   -4.495E-09   -4.279E-09   -4.065E-09   -3.852E-09   -3.641E-09   -3.431E-09
    -3.222E-09   -3.015E-09   -2.810E-09   -2.606E-09   -2.404E-09   -2.203E-09   -2.004E-09   -1.807E-09   -1.612E-09   -1.418E-09
    -1.226E-09   -1.036E-09   -8.477E-10   -6.614E-10   -4.769E-10   -2.943E-10   -1.137E-10    6.501E-11    2.417E-10    4.164E-10
     5.891E-10    7.597E-10    9.283E-10    1.095E-09    1.259E-09    1.421E-09    1.582E-09    1.740E-09    1.895E-09    2.049E-09
     2.200E-09    2.350E-09    2.497E-09    2.642E-09    2.784E-09    2.924E-09    3.062E-09    3.198E-09    3.332E-09    3.463E-09
     3.592E-09    3.718E-09    3.843E-09    3.964E-09    4.084E-09    4.201E-09    4.316E-09    4.429E-09    4.539E-09    4.647E-09
     4.753E-09    4.856E-09    4.957E-09    5.056E-09    5.152E-09    5.246E-09    5.337E-09    5.426E-09    5.513E-09    5.597E-09
     5.679E-09    5.758E-09    5.836E-09    5.910E-09    5.982E-09    6.052E-09    6.119E-09    6.184E-09    6.247E-09    6.307E-09
     6.364E-09    6.419E-09    6.472E-09    6.522E-09    6.569E-09    6.614E-09    6.657E-09    6.697E-09    6.734E-09    6.769E-09
     6.801E-09    6.831E-09    6.859E-09    6.883E-09    6.905E-09    6.925E-09    6.942E-09    6.956E-09    6.968E-09    6.978E-09
     6.984E-09    6.988E-09    6.990E-09    6.989E-09    6.985E-09    6.979E-09    6.970E-09    6.958E-09    6.944E-09    6.927E-09
     6.908E-09    6.885E-09    6.861E-09    6.833E-09    6.803E-09    6.771E-09    6.736E-09    6.698E-09    6.658E-09    6.615E-09
     6.569E-09    6.521E-09    6.470E-09    6.417E-09    6.361E-09    6.302E-09    6.242E-09    6.178E-09    6.113E-09    6.045E-09
     5.975E-09    5.902E-09    5.828E-09    5.751E-09    5.672E-09    5.591E-09    5.509E-09    5.424E-09    5.337E-09    5.249E-09
     5.158E-09    5.066E-09    4.973E-09    4.878E-09    4.781E-09    4.682E-09    4.582E-09    4.481E-09    4.379E-09    4.275E-09
     4.170E-09    4.064E-09    3.956E-09    3.848E-09    3.739E-09    3.629E-09    3.518E-09    3.406E-09    3.294E-09    3.180E-09
     3.067E-09    2.952E-09    2.838E-09    2.723E-09    2.607E-09    2.491E-09    2.375E-09    2.259E-09    2.143E-09    2.027E-09
     1.911E-09    1.795E-09    1.679E-09    1.563E-09    1.448E-09    1.333E-09    1.218E-09    1.104E-09    9.908E-10    8.778E-10
     7.656E-10    6.540E-10    5.433E-10    4.334E-10    3.243E-10    2.162E-10    1.091E-10    2.947E-12   -1.021E-10   -2.060E-10
    -3.088E-10   -4.103E-10   -5.106E-10   -6.096E-10   -7.073E-10   -8.035E-10   -8.984E-10   -9.918E-10   -1.084E-09   -1.174E-09
    -1.263E-09   -1.350E-09   -1.435E-09   -1.519E-09   -1.601E-09   -1.682E-09   -1.760E-09   -1.837E-09   -1.912E-09   -1.985E-09
    -2.056E-09   -2.125E-09   -2.192E-09   -2.258E-09   -2.321E-09   -2.382E-09   -2.441E-09   -2.498E-09   -2.553E-09   -2.606E-09
    -2.657E-09   -2.705E-09   -2.752E-09   -2.796E-09   -2.838E-09   -2.878E-09   -2.916E-09   -2.951E-09   -2.984E-09   -3.015E-09
    -3.044E-09   -3.070E-09   -3.095E-09   -3.117E-09   -3.136E-09   -3.154E-09   -3.169E-09   -3.182E-09   -3.193E-09   -3.202E-09
    -3.208E-09   -3.212E-09   -3.214E-09   -3.214E-09   -3.211E-09   -3.207E-09   -3.200E-09   -3.192E-09   -3.181E-09   -3.168E-09
    -3.154E-09   -3.137E-09   -3.119E-09   -3.099E-09   -3.077E-09   -3.053E-09   -3.027E-09   -3.000E-09   -2.971E-09   -2.940E-09
    -2.908E-09   -2.874E-09   -2.838E-09   -2.801E-09   -2.763E-09   -2.723E-09   -2.681E-09   -2.638E-09   -2.594E-09   -2.549E-09
    -2.502E-09   -2.454E-09   -2.404E-09   -2.354E-09   -2.302E-09   -2.249E-09   -2.195E-09   -2.140E-09   -2.083E-09   -2.026E-09
    -1.968E-09   -1.908E-09   -1.848E-09   -1.786E-09   -1.724E-09   -1.661E-09   -1.597E-09   -1.532E-09   -1.466E-09   -1.400E-09
    -1.332E-09   -1.264E-09   -1.195E-09   -1.126E-09   -1.055E-09   -9.841E-10   -9.123E-10   -8.399E-10   -7.667E-10   -6.930E-10
    -6.186E-10   -5.436E-10   -4.680E-10   -3.917E-10   -3.150E-10   -2.376E-10   -1.597E-10   -8.119E-11   -2.180E-12    7.736E-11
     1.574E-10    2.380E-10    3.190E-10    4.006E-10    4.826E-10    5.650E-10    6.479E-10    7.313E-10    8.150E-10    8.992E-10
     9.838E-10    1.069E-09    1.154E-09    1.240E-09    1.326E-09    1.412E-09    1.499E-09    1.586E-09    1.673E-09    1.760E-09
     1.848E-09    1.936E-09    2.025E-09    2.113E-09    2.202E-09    2.291E-09    2.380E-09    2.469E-09    2.558E-09    2.648E-09
     2.738E-09    2.827E-09    2.917E-09    3.007E-09    3.097E-09    3.187E-09    3.277E-09    3.367E-09    3.457E-09    3.547E-09
     3.637E-09    3.727E-09    3.817E-09    3.907E-09    3.997E-09    4.087E-09    4.176E-09    4.265E-09    4.355E-09    4.444E-09
     4.533E-09    4.621E-09    4.710E-09
 Ala      Conc. = 6.88E-11
  -5.42277E-09 -5.19671E-09 -4.97133E-09 -4.74652E-09 -4.52214E-09 -4.29820E-09 -4.07375E-09 -3.85351E-09 -3.63951E-09 -3.42190E-09
  -3.20688E-09 -3.00210E-09 -2.79676E-09 -2.59158E-09 -2.39111E-09 -2.19275E-09 -1.99590E-09 -1.80053E-09 -1.60668E-09 -1.41441E-09
  -1.22377E-09 -1.03483E-09 -8.47624E-10 -6.62195E-10 -4.78582E-10 -2.96817E-10 -1.16933E-10  6.10394E-11  2.37073E-10  4.11139E-10
   5.83216E-10  7.53277E-10  9.21299E-10  1.08727E-09  1.25115E-09  1.41293E-09  1.57260E-09  1.73013E-09  1.88551E-09  2.03872E-09
   2.18975E-09  2.33857E-09  2.48518E-09  2.62957E-09  2.77171E-09  2.91161E-09  3.04924E-09  3.18459E-09  3.31768E-09  3.44847E-09
   3.57695E-09  3.70312E-09  3.82699E-09  3.94854E-09  4.06774E-09  4.18461E-09  4.29915E-09  4.41136E-09  4.52120E-09  4.62873E-09
   4.73389E-09  4.83669E-09  4.93713E-09  5.03522E-09  5.13093E-09  5.22426E-09  5.31519E-09  5.40374E-09  5.48988E-09  5.57359E-09
   5.65489E-09  5.73376E-09  5.81019E-09  5.88415E-09  5.95566E-09  6.02471E-09  6.09125E-09  6.15533E-09  6.21687E-09  6.27592E-09
   6.33243E-09  6.38639E-09  6.43778E-09  6.48661E-09  6.53286E-09  6.57646E-09  6.61746E-09  6.65579E-09  6.69143E-09  6.72436E-09
   6.75452E-09  6.78191E-09  6.80643E-09  6.82802E-09  6.84662E-09  6.86213E-09  6.87446E-09  6.88361E-09  6.89009E-09  6.89813E-09
   6.93308E-09  6.97184E-09  6.99605E-09  7.03521E-09  7.08516E-09  7.13556E-09  7.18022E-09  7.21437E-09  7.23088E-09  7.22164E-09
   7.18456E-09  7.13385E-09  7.10163E-09  7.04191E-09  6.95180E-09  6.88498E-09  6.82900E-09  6.77692E-09  6.72594E-09  6.67481E-09
   6.62257E-09  6.56894E-09  6.51359E-09  6.45637E-09  6.39715E-09  6.33588E-09  6.27250E-09  6.20701E-09  6.13941E-09  6.06969E-09
   5.99786E-09  5.92397E-09  5.84801E-09  5.77004E-09  5.69007E-09  5.60816E-09  5.52432E-09  5.43862E-09  5.35111E-09  5.26181E-09
   5.17079E-09  5.07808E-09  4.98374E-09  4.88786E-09  4.79041E-09  4.69149E-09  4.59117E-09  4.48950E-09  4.38651E-09  4.28230E-09
   4.17692E-09  4.07039E-09  3.96280E-09  3.85426E-09  3.74474E-09  3.63435E-09  3.52319E-09  3.41130E-09  3.29873E-09  3.18562E-09
   3.07199E-09  2.95801E-09  2.84379E-09  2.72959E-09  2.61581E-09  2.50365E-09  2.39828E-09  2.31264E-09  2.22788E-09  2.13404E-09
   2.03110E-09  1.92306E-09  1.81375E-09  1.70373E-09  1.58911E-09  1.46228E-09  1.31731E-09  1.15797E-09  1.00494E-09  8.82370E-10
   7.66752E-10  6.53542E-10  5.41800E-10  4.31232E-10  3.21713E-10  2.13237E-10  1.05811E-10 -5.48035E-13 -1.05800E-10 -2.09905E-10
  -3.12840E-10 -4.14540E-10 -5.14985E-10 -6.14111E-10 -7.11894E-10 -8.08301E-10 -9.03270E-10 -9.96769E-10 -1.08877E-09 -1.17921E-09
  -1.26808E-09 -1.35533E-09 -1.44093E-09 -1.52483E-09 -1.60701E-09 -1.68744E-09 -1.76609E-09 -1.84289E-09 -1.91786E-09 -1.99096E-09
  -2.06214E-09 -2.13139E-09 -2.19867E-09 -2.26396E-09 -2.32726E-09 -2.38852E-09 -2.44772E-09 -2.50485E-09 -2.55989E-09 -2.61281E-09
  -2.66360E-09 -2.71223E-09 -2.75871E-09 -2.80302E-09 -2.84515E-09 -2.88506E-09 -2.92277E-09 -2.95827E-09 -2.99153E-09 -3.02256E-09
  -3.05136E-09 -3.07790E-09 -3.10221E-09 -3.12427E-09 -3.14408E-09 -3.16163E-09 -3.17695E-09 -3.19004E-09 -3.20088E-09 -3.20949E-09
  -3.21588E-09 -3.22005E-09 -3.22202E-09 -3.22181E-09 -3.21945E-09 -3.21498E-09 -3.20841E-09 -3.19980E-09 -3.18917E-09 -3.17654E-09
  -3.16197E-09 -3.14547E-09 -3.12708E-09 -3.10684E-09 -3.08477E-09 -3.06092E-09 -3.03530E-09 -3.00796E-09 -2.97893E-09 -2.94824E-09
  -2.91592E-09 -2.88201E-09 -2.84654E-09 -2.80954E-09 -2.77103E-09 -2.73107E-09 -2.68966E-09 -2.64686E-09 -2.60268E-09 -2.55715E-09
  -2.51032E-09 -2.46220E-09 -2.41283E-09 -2.36223E-09 -2.31044E-09 -2.25749E-09 -2.20339E-09 -2.14818E-09 -2.09189E-09 -2.03454E-09
  -1.97616E-09 -1.91677E-09 -1.85641E-09 -1.79508E-09 -1.73282E-09 -1.66966E-09 -1.60560E-09 -1.54068E-09 -1.47492E-09 -1.40834E-09
  -1.34096E-09 -1.27280E-09 -1.20387E-09 -1.13421E-09 -1.06382E-09 -9.92717E-10 -9.20926E-10 -8.48461E-10 -7.75335E-10 -7.01565E-10
  -6.27164E-10 -5.52145E-10 -4.76521E-10 -4.00304E-10 -3.23503E-10 -2.46130E-10 -1.68196E-10 -8.97110E-11 -1.06867E-11  6.88657E-11
   1.48935E-10  2.29509E-10  3.10577E-10  3.92126E-10  4.74146E-10  5.56623E-10  6.39545E-10  7.22901E-10  8.06676E-10  8.90862E-10
   9.75441E-10  1.06040E-09  1.14574E-09  1.23143E-09  1.31746E-09  1.40382E-09  1.49050E-09  1.57749E-09  1.66476E-09  1.75231E-09
   1.84013E-09  1.92819E-09  2.01649E-09  2.10501E-09  2.19373E-09  2.28265E-09  2.37175E-09  2.46101E-09  2.55042E-09  2.63997E-09
   2.72964E-09  2.81941E-09  2.90927E-09  2.99921E-09  3.08922E-09  3.17927E-09  3.26935E-09  3.35945E-09  3.44955E-09  3.53963E-09
   3.62969E-09  3.71971E-09  3.80966E-09  3.89955E-09  3.98934E-09  4.07903E-09  4.16860E-09  4.25803E-09  4.34732E-09  4.43644E-09
   4.52537E-09  4.61411E-09  4.70264E-09
 GABA     Conc. = 6.86E-10
  -5.72555E-09 -5.51230E-09 -5.30061E-09 -5.09053E-09 -4.88213E-09 -4.67548E-09 -4.47066E-09 -4.26775E-09 -4.06683E-09 -3.86801E-09
  -3.67136E-09 -3.47702E-09 -3.28509E-09 -3.09571E-09 -2.90903E-09 -2.72520E-09 -2.54444E-09 -2.36703E-09 -2.19321E-09 -2.02334E-09
  -1.85788E-09 -1.69735E-09 -1.54248E-09 -1.39419E-09 -1.25369E-09 -1.12271E-09 -1.00366E-09 -8.99819E-10 -8.13314E-10 -7.04531E-10
  -5.33909E-10 -3.89597E-10 -2.26869E-10  5.77874E-11  3.90111E-10  7.37978E-10  1.13810E-09  1.57511E-09  2.00891E-09  2.39829E-09
   2.72483E-09  3.03469E-09  3.30352E-09  3.39167E-09  3.44132E-09  3.55525E-09  3.60046E-09  3.60013E-09  3.62459E-09  3.66683E-09
   3.72032E-09  3.78079E-09  3.84518E-09  3.91139E-09  3.97779E-09  4.04286E-09  4.10528E-09  4.16376E-09  4.21702E-09  4.26420E-09
   4.30633E-09  4.36209E-09  4.51014E-09  4.67321E-09  4.81114E-09  5.07186E-09  5.39629E-09  5.70062E-09  6.01680E-09  6.33811E-09
   6.62983E-09  6.85110E-09  6.97930E-09  7.04485E-09  7.11695E-09  7.04281E-09  6.86996E-09  6.83687E-09  6.79655E-09  6.70031E-09
   6.67327E-09  6.66528E-09  6.64289E-09  6.70088E-09  6.80121E-09  6.87997E-09  7.00101E-09  7.16252E-09  7.32785E-09  7.49169E-09
   7.62818E-09  7.75456E-09  7.89614E-09  7.95056E-09  7.92558E-09  7.96137E-09  7.95214E-09  7.85779E-09  7.80063E-09  7.75212E-09
   7.68328E-09  7.62252E-09  7.57070E-09  7.52497E-09  7.48322E-09  7.44383E-09  7.40573E-09  7.36826E-09  7.33090E-09  7.29322E-09
   7.25487E-09  7.21541E-09  7.17469E-09  7.13249E-09  7.08877E-09  7.04339E-09  6.99628E-09  6.94729E-09  6.89635E-09  6.84347E-09
   6.78841E-09  6.73130E-09  6.67205E-09  6.61069E-09  6.54719E-09  6.48157E-09  6.41383E-09  6.34400E-09  6.27210E-09  6.19815E-09
   6.12217E-09  6.04421E-09  5.96427E-09  5.88243E-09  5.79868E-09  5.71310E-09  5.62569E-09  5.53652E-09  5.44563E-09  5.35306E-09
   5.25888E-09  5.16311E-09  5.06582E-09  4.96708E-09  4.86689E-09  4.76533E-09  4.66248E-09  4.55841E-09  4.45313E-09  4.34676E-09
   4.23936E-09  4.13096E-09  4.02167E-09  3.91161E-09  3.80080E-09  3.68937E-09  3.57749E-09  3.46525E-09  3.35284E-09  3.24055E-09
   3.12864E-09  3.01772E-09  2.90864E-09  2.80312E-09  2.70499E-09  2.62557E-09  2.61645E-09  2.80353E-09  2.99966E-09  3.10547E-09
   3.12075E-09  3.08434E-09  3.03381E-09  2.97403E-09  2.86512E-09  2.63098E-09  2.21299E-09  1.64900E-09  1.14443E-09  9.35776E-10
   7.89850E-10  6.61697E-10  5.41086E-10  4.24583E-10  3.10742E-10  1.98907E-10  8.87388E-11 -1.99490E-11 -1.27240E-10 -2.33173E-10
  -3.37779E-10 -4.41029E-10 -5.42930E-10 -6.43434E-10 -7.42532E-10 -8.40201E-10 -9.36386E-10 -1.03106E-09 -1.12420E-09 -1.21576E-09
  -1.30570E-09 -1.39402E-09 -1.48065E-09 -1.56556E-09 -1.64873E-09 -1.73013E-09 -1.80973E-09 -1.88746E-09 -1.96335E-09 -2.03734E-09
  -2.10941E-09 -2.17952E-09 -2.24766E-09 -2.31379E-09 -2.37791E-09 -2.43998E-09 -2.49997E-09 -2.55788E-09 -2.61369E-09 -2.66736E-09
  -2.71889E-09 -2.76826E-09 -2.81545E-09 -2.86046E-09 -2.90329E-09 -2.94387E-09 -2.98226E-09 -3.01841E-09 -3.05232E-09 -3.08398E-09
