 LCModel (Version 6.3-1R) Copyright: S.W. Provencher.          Ref.: Magn. Reson. Med. 30:672-679 (1993).                
 onepulse 11x22_ftSpec_smooth_lcm
 26 lines in following concentration table = NCONC+1
    Conc.  %SD   /Cr    Metabolite                                         
    0.000 999%   0.000 Ala                                                 
    0.000 999%   0.000 Asp                                                 
    0.000 999%   0.000 Cr                                                  
 3.45E-10 254%   0.000 GABA                                                
 5.28E-10 201%   0.000 Glc                                                 
    0.000 999%   0.000 Gln                                                 
    0.000 999%   0.000 Glu                                                 
    0.000 999%   0.000 Glyc                                                
 1.48E-10  93%   0.000 GPC                                                 
 4.18E-10 144%   0.000 GSH                                                 
 2.29E-10 312%   0.000 Ins                                                 
    0.000 999%   0.000 Lac                                                 
 2.82E-10 207%   0.000 NAAG                                                
 1.71E-10 432%   0.000 NAA                                                 
    0.000 999%   0.000 PCh                                                 
    0.000 999%   0.000 PCr                                                 
    0.000 999%   0.000 PE                                                  
 6.18E-11 478%   0.000 Scyllo                                              
    0.000 999%   0.000 Ser                                                 
    0.000 999%   0.000 Tau                                                 
 1.48E-10  93%   0.000 GPC+PCh                                             
 4.52E-10  86%   0.000 NAA+NAAG                                            
 2.29E-10 312%   0.000 Ins+Glyc                                            
    0.000 999%   0.000 Cr+PCr                                              
    0.000 999%   0.000 Glu+Gln                                             
   6 lines in following misc. output table
  FWHM = 0.089 ppm    S/N =   0                                            
  Data shift = 0.324 ppm                                                   
  Ph:   0 deg      25.0 deg/ppm                                            
  alphaB,S = 2.0E+00,   6.4E+00                                            
    8 spline knots.   Ns = 5(1)                                            
   1 inflections.     1 extrema                                            
  363 points on ppm-axis = NY
      4.250000     4.238821     4.227641     4.216462     4.205282     4.194103     4.182923     4.171744     4.160564     4.149385
      4.138206     4.127026     4.115847     4.104667     4.093488     4.082308     4.071129     4.059949     4.048770     4.037591
      4.026411     4.015232     4.004052     3.992873     3.981693     3.970514     3.959334     3.948155     3.936975     3.925796
      3.914617     3.903437     3.892258     3.881078     3.869899     3.858719     3.847540     3.836360     3.825181     3.814002
      3.802822     3.791643     3.780463     3.769284     3.758104     3.746925     3.735745     3.724566     3.713387     3.702207
      3.691028     3.679848     3.668669     3.657489     3.646310     3.635130     3.623951     3.612772     3.601592     3.590413
      3.579233     3.568054     3.556874     3.545695     3.534515     3.523336     3.512156     3.500977     3.489798     3.478618
      3.467439     3.456259     3.445080     3.433900     3.422721     3.411541     3.400362     3.389183     3.378003     3.366824
      3.355644     3.344465     3.333285     3.322106     3.310926     3.299747     3.288568     3.277388     3.266209     3.255029
      3.243850     3.232670     3.221491     3.210311     3.199132     3.187953     3.176773     3.165594     3.154414     3.143235
      3.132055     3.120876     3.109696     3.098517     3.087337     3.076158     3.064979     3.053799     3.042620     3.031440
      3.020261     3.009081     2.997902     2.986722     2.975543     2.964364     2.953184     2.942005     2.930825     2.919646
      2.908466     2.897287     2.886107     2.874928     2.863749     2.852569     2.841390     2.830210     2.819031     2.807851
      2.796672     2.785492     2.774313     2.763134     2.751954     2.740775     2.729595     2.718416     2.707236     2.696057
      2.684877     2.673698     2.662519     2.651339     2.640160     2.628980     2.617801     2.606621     2.595442     2.584262
      2.573083     2.561903     2.550724     2.539545     2.528365     2.517186     2.506006     2.494827     2.483647     2.472468
      2.461288     2.450109     2.438930     2.427750     2.416571     2.405391     2.394212     2.383032     2.371853     2.360673
      2.349494     2.338315     2.327135     2.315956     2.304776     2.293597     2.282417     2.271238     2.260058     2.248879
      2.237700     2.226520     2.215341     2.204161     2.192982     2.181802     2.170623     2.159443     2.148264     2.137084
      2.125905     2.114726     2.103546     2.092367     2.081187     2.070008     2.058828     2.047649     2.036469     2.025290
      2.014111     2.002931     1.991752     1.980572     1.969393     1.958213     1.947034     1.935854     1.924675     1.913496
      1.902316     1.891137     1.879957     1.868778     1.857598     1.846419     1.835239     1.824060     1.812881     1.801701
      1.790522     1.779342     1.768163     1.756983     1.745804     1.734624     1.723445     1.712265     1.701086     1.689907
      1.678727     1.667548     1.656368     1.645189     1.634009     1.622830     1.611650     1.600471     1.589292     1.578112
      1.566933     1.555753     1.544574     1.533394     1.522215     1.511035     1.499856     1.488677     1.477497     1.466318
      1.455138     1.443959     1.432779     1.421600     1.410420     1.399241     1.388062     1.376882     1.365703     1.354523
      1.343344     1.332164     1.320985     1.309805     1.298626     1.287446     1.276267     1.265088     1.253908     1.242729
      1.231549     1.220370     1.209190     1.198011     1.186831     1.175652     1.164473     1.153293     1.142114     1.130934
      1.119755     1.108575     1.097396     1.086216     1.075037     1.063858     1.052678     1.041499     1.030319     1.019140
      1.007960     0.996781     0.985601     0.974422     0.963243     0.952063     0.940884     0.929704     0.918525     0.907345
      0.896166     0.884986     0.873807     0.862628     0.851448     0.840269     0.829089     0.817910     0.806730     0.795551
      0.784371     0.773192     0.762012     0.750833     0.739654     0.728474     0.717295     0.706115     0.694936     0.683756
      0.672577     0.661397     0.650218     0.639039     0.627859     0.616680     0.605500     0.594321     0.583141     0.571962
      0.560782     0.549603     0.538424     0.527244     0.516065     0.504885     0.493706     0.482526     0.471347     0.460167
      0.448988     0.437809     0.426629     0.415450     0.404270     0.393091     0.381911     0.370732     0.359552     0.348373
      0.337193     0.326014     0.314835     0.303655     0.292476     0.281296     0.270117     0.258937     0.247758     0.236578
      0.225399     0.214220     0.203040
 NY phased data points follow
   8.33731E-09  9.10359E-09  9.54858E-09  1.00918E-08  9.65425E-09  9.64295E-09  9.36895E-09  8.88545E-09  8.14047E-09  8.03361E-09
   7.64687E-09  7.73197E-09  7.11376E-09  7.47238E-09  6.92561E-09  7.22560E-09  6.96687E-09  7.14926E-09  7.03808E-09  6.89939E-09
   6.34933E-09  6.90821E-09  6.44090E-09  6.70269E-09  5.95698E-09  5.85792E-09  5.79343E-09  5.84763E-09  5.75172E-09  5.36227E-09
   5.27673E-09  4.89572E-09  5.11359E-09  5.11416E-09  5.56216E-09  5.69605E-09  5.14998E-09  5.18125E-09  3.91073E-09  3.59883E-09
   3.49941E-09  2.82524E-09  2.66181E-09  2.81262E-09  2.59427E-09  1.95358E-09  1.97186E-09  1.41430E-09  1.81681E-09  1.62974E-09
   1.49538E-09  1.04476E-09  1.20415E-09  1.70325E-09  1.49508E-09  1.39081E-09  1.23950E-09  1.48678E-09  1.58309E-09  1.71138E-09
   1.50766E-09  1.73322E-09  2.14382E-09  2.35632E-09  2.02751E-09  3.33355E-09  3.20345E-09  3.18749E-09  2.98598E-09  2.53231E-09
   2.41088E-09  1.67785E-09  1.44005E-09  1.33067E-09  7.68843E-10  1.06234E-09  1.02734E-09  1.10825E-09  2.00451E-09  2.14386E-09
   2.72670E-09  3.68430E-09  3.93178E-09  4.47616E-09  3.95459E-09  3.43116E-09  2.67572E-09  2.42361E-09  1.60462E-09  1.09449E-09
   9.63563E-12 -1.85894E-10 -5.04182E-10 -1.22668E-09 -1.54713E-09 -1.71742E-09 -2.39552E-09 -1.98087E-09 -2.27195E-09 -2.79304E-09
  -3.18216E-09 -3.09153E-09 -3.50221E-09 -3.16058E-09 -3.57089E-09 -3.60765E-09 -3.51040E-09 -3.52654E-09 -4.13784E-09 -4.29574E-09
  -4.07485E-09 -4.13606E-09 -4.84026E-09 -4.16521E-09 -4.24106E-09 -4.04672E-09 -4.46660E-09 -3.41288E-09 -3.66928E-09 -3.48123E-09
  -3.81861E-09 -3.08640E-09 -3.24532E-09 -3.00873E-09 -3.33938E-09 -3.17087E-09 -3.35299E-09 -3.11716E-09 -2.86753E-09 -2.75961E-09
  -2.26421E-09 -2.46391E-09 -2.17904E-09 -1.98410E-09 -2.22655E-09 -1.53029E-09 -1.59313E-09 -1.16952E-09 -1.12068E-09 -1.46742E-09
  -1.21786E-09 -8.01483E-10 -4.09035E-10 -1.74648E-10 -7.52024E-10 -1.75333E-10 -1.89758E-10 -4.90421E-10 -4.62875E-10 -3.80988E-10
  -1.15448E-09 -1.02980E-09 -1.06256E-09 -1.65425E-09 -2.21389E-09 -1.65133E-09 -2.42599E-09 -2.70034E-09 -2.84243E-09 -3.34199E-09
  -2.91408E-09 -3.14850E-09 -2.96848E-09 -2.96080E-09 -3.27717E-09 -3.22457E-09 -3.33716E-09 -3.85879E-09 -3.51560E-09 -3.34914E-09
  -3.42433E-09 -3.36362E-09 -4.12513E-09 -3.86269E-09 -4.94641E-09 -6.42771E-09 -8.29121E-09 -9.82726E-09 -1.16736E-08 -1.25723E-08
  -1.37093E-08 -1.50808E-08 -1.59409E-08 -1.68745E-08 -1.82258E-08 -1.93240E-08 -1.95559E-08 -2.05505E-08 -2.14046E-08 -2.16741E-08
  -2.26863E-08 -2.30578E-08 -2.31106E-08 -2.39747E-08 -2.37227E-08 -2.40094E-08 -2.40513E-08 -2.35619E-08 -2.25193E-08 -2.18345E-08
  -2.03697E-08 -1.84030E-08 -1.65944E-08 -1.43476E-08 -1.09194E-08 -8.48598E-09 -5.18991E-09 -1.68928E-09  7.82447E-10  4.15922E-09
   6.41978E-09  8.02860E-09  9.31380E-09  9.40896E-09  9.53241E-09  8.99823E-09  8.15211E-09  7.17692E-09  5.33424E-09  5.00504E-09
   4.08019E-09  3.27341E-09  2.22392E-09  2.34744E-09  2.11925E-09  1.40178E-09  1.42194E-09  1.29813E-09  1.05670E-09  1.18393E-09
   8.83535E-10  1.09012E-09  1.44945E-09  8.60494E-10  1.59123E-09  1.42923E-09  1.98414E-09  1.27704E-09  1.27554E-09  9.01878E-10
   1.17584E-09  1.50843E-09  1.42571E-09  1.17339E-09  1.46552E-09  1.40335E-09  1.03102E-09  1.03376E-09  1.68890E-09  1.14104E-09
   1.66502E-09  1.46324E-09  1.62505E-09  1.56439E-09  1.47502E-09  1.30210E-09  1.43891E-09  1.08670E-09  1.29325E-09  1.16664E-09
   1.23509E-09  9.78972E-10  1.01392E-09  7.62797E-10  1.31472E-09  1.32028E-09  2.07889E-09  1.83553E-09  2.27772E-09  2.36702E-09
   2.24171E-09  2.09439E-09  2.18152E-09  2.10585E-09  2.02926E-09  2.05409E-09  1.89564E-09  1.70436E-09  1.69302E-09  1.23951E-09
   1.74526E-09  8.67780E-10  1.34555E-09  8.74523E-10  1.02401E-09  6.66569E-10  1.06211E-09  7.86236E-10  1.43781E-09  8.32692E-10
   1.40576E-09  1.28983E-09  1.66474E-09  1.48652E-09  1.92978E-09  1.38379E-09  1.91093E-09  1.49125E-09  1.74889E-09  1.47110E-09
   2.00053E-09  1.76556E-09  2.45609E-09  1.84005E-09  2.04296E-09  2.63648E-09  2.57058E-09  2.81655E-09  2.55950E-09  2.44523E-09
   2.84561E-09  2.78652E-09  3.25582E-09  2.58908E-09  2.81626E-09  2.46246E-09  3.19129E-09  2.76925E-09  3.41348E-09  2.63690E-09
   3.29478E-09  2.34253E-09  3.18293E-09  2.75118E-09  3.09243E-09  3.08339E-09  3.51061E-09  2.79055E-09  3.46872E-09  2.88054E-09
   3.39685E-09  3.27191E-09  3.20753E-09  3.00371E-09  3.20694E-09  2.90466E-09  3.55004E-09  3.42476E-09  3.07663E-09  2.92178E-09
   3.34423E-09  2.53620E-09  3.30013E-09  3.13054E-09  2.85687E-09  2.98693E-09  3.20795E-09  2.79719E-09  3.09703E-09  2.65436E-09
   3.12569E-09  2.78827E-09  3.06595E-09  2.81613E-09  2.98256E-09  2.51485E-09  2.58608E-09  2.28729E-09  3.19548E-09  2.71385E-09
   2.83222E-09  2.72197E-09  2.61402E-09
 NY points of the fit to the data follow
   8.30379E-09  8.50525E-09  8.53850E-09  8.47946E-09  8.40059E-09  8.22394E-09  7.80675E-09  7.26720E-09  6.86888E-09  6.68260E-09
   6.54968E-09  6.40656E-09  6.25994E-09  6.14831E-09  6.14379E-09  6.12278E-09  6.02259E-09  5.92334E-09  5.87345E-09  5.78470E-09
   5.62921E-09  5.42739E-09  5.28165E-09  5.68121E-09  6.19073E-09  6.42941E-09  6.42193E-09  6.29320E-09  6.12660E-09  5.92453E-09
   5.49554E-09  4.84820E-09  4.22893E-09  3.77398E-09  3.65725E-09  3.67956E-09  3.78285E-09  3.86737E-09  3.85269E-09  3.74360E-09
   3.55876E-09  3.27518E-09  2.95153E-09  2.61829E-09  2.28472E-09  1.97978E-09  1.74062E-09  1.58391E-09  1.51469E-09  1.49203E-09
   1.54573E-09  1.61371E-09  1.62875E-09  1.68043E-09  1.76245E-09  1.75482E-09  1.72352E-09  1.65106E-09  1.51654E-09  1.33410E-09
   1.17463E-09  1.08078E-09  1.02861E-09  9.32468E-10  9.01916E-10  9.69147E-10  1.00564E-09  1.01630E-09  1.03414E-09  1.08533E-09
   1.14503E-09  1.17673E-09  1.22228E-09  1.22561E-09  1.18690E-09  1.38840E-09  1.89817E-09  2.46020E-09  2.75314E-09  2.79824E-09
   2.70311E-09  2.48175E-09  2.15166E-09  1.72117E-09  1.08536E-09  3.56710E-10 -2.19618E-10 -5.89298E-10 -7.96308E-10 -9.30098E-10
  -1.05252E-09 -1.18413E-09 -1.32704E-09 -1.46740E-09 -1.59987E-09 -1.73834E-09 -1.87240E-09 -1.98991E-09 -2.09801E-09 -2.19623E-09
  -2.28430E-09 -2.36608E-09 -2.44251E-09 -2.51378E-09 -2.58103E-09 -2.64525E-09 -2.70707E-09 -2.76688E-09 -2.82494E-09 -2.88145E-09
  -2.93656E-09 -2.99039E-09 -3.04302E-09 -3.09450E-09 -3.14490E-09 -3.19427E-09 -3.24264E-09 -3.29005E-09 -3.33652E-09 -3.38205E-09
  -3.42666E-09 -3.47036E-09 -3.51315E-09 -3.55504E-09 -3.59603E-09 -3.63612E-09 -3.67531E-09 -3.71358E-09 -3.75094E-09 -3.78739E-09
  -3.82290E-09 -3.85750E-09 -3.89114E-09 -3.92384E-09 -3.95557E-09 -3.98634E-09 -4.01611E-09 -4.04491E-09 -4.07269E-09 -4.09945E-09
  -4.12518E-09 -4.14986E-09 -4.17346E-09 -4.19600E-09 -4.21742E-09 -4.23771E-09 -4.25685E-09 -4.27482E-09 -4.29162E-09 -4.30721E-09
  -4.32156E-09 -4.33464E-09 -4.34638E-09 -4.35671E-09 -4.36553E-09 -4.37270E-09 -4.37801E-09 -4.38117E-09 -4.38174E-09 -4.37904E-09
  -4.37198E-09 -4.35866E-09 -4.33559E-09 -4.29554E-09 -4.22099E-09 -4.05728E-09 -3.54297E-09 -2.04153E-09 -7.68064E-10 -6.02318E-11
   2.63707E-10  3.82269E-10  3.15837E-10 -1.68061E-11 -7.25862E-10 -1.76592E-09 -2.88533E-09 -3.70332E-09 -4.03102E-09 -4.14217E-09
  -4.19043E-09 -4.21338E-09 -4.22312E-09 -4.22487E-09 -4.22128E-09 -4.21383E-09 -4.20343E-09 -4.19066E-09 -4.17591E-09 -4.15944E-09
  -4.14146E-09 -4.12211E-09 -4.10149E-09 -4.07970E-09 -4.05679E-09 -4.03283E-09 -4.00784E-09 -3.98188E-09 -3.95496E-09 -3.92710E-09
  -3.89835E-09 -3.86870E-09 -3.83818E-09 -3.80679E-09 -3.77457E-09 -3.74150E-09 -3.70761E-09 -3.67291E-09 -3.63740E-09 -3.60109E-09
  -3.56399E-09 -3.52611E-09 -3.48745E-09 -3.44802E-09 -3.40783E-09 -3.36688E-09 -3.32518E-09 -3.28273E-09 -3.23955E-09 -3.19564E-09
  -3.15102E-09 -3.10570E-09 -3.05971E-09 -3.01305E-09 -2.96575E-09 -2.91781E-09 -2.86925E-09 -2.82009E-09 -2.77034E-09 -2.72003E-09
  -2.66914E-09 -2.61772E-09 -2.56578E-09 -2.51332E-09 -2.46036E-09 -2.40692E-09 -2.35301E-09 -2.29865E-09 -2.24385E-09 -2.18863E-09
  -2.13300E-09 -2.07697E-09 -2.02056E-09 -1.96379E-09 -1.90668E-09 -1.84922E-09 -1.79145E-09 -1.73337E-09 -1.67500E-09 -1.61636E-09
  -1.55745E-09 -1.49830E-09 -1.43890E-09 -1.37931E-09 -1.31951E-09 -1.25951E-09 -1.19934E-09 -1.13902E-09 -1.07855E-09 -1.01796E-09
  -9.57255E-10 -8.96443E-10 -8.35546E-10 -7.74571E-10 -7.13553E-10 -6.52492E-10 -5.91391E-10 -5.30299E-10 -4.69197E-10 -4.08111E-10
  -3.47059E-10 -2.86063E-10 -2.25115E-10 -1.64256E-10 -1.03473E-10 -4.28051E-11  1.77522E-11  7.81682E-11  1.38432E-10  1.98535E-10
   2.58468E-10  3.18202E-10  3.77732E-10  4.37036E-10  4.96104E-10  5.54923E-10  6.13483E-10  6.71748E-10  7.29722E-10  7.87393E-10
   8.44731E-10  9.01742E-10  9.58430E-10  1.01480E-09  1.07086E-09  1.12660E-09  1.18205E-09  1.23720E-09  1.29207E-09  1.34664E-09
   1.40094E-09  1.45497E-09  1.50873E-09  1.56223E-09  1.61548E-09  1.66848E-09  1.72123E-09  1.77375E-09  1.82603E-09  1.87809E-09
   1.92993E-09  1.98156E-09  2.03297E-09  2.08419E-09  2.13521E-09  2.18604E-09  2.23668E-09  2.28715E-09  2.33744E-09  2.38757E-09
   2.43753E-09  2.48734E-09  2.53700E-09  2.58651E-09  2.63589E-09  2.68514E-09  2.73426E-09  2.78326E-09  2.83213E-09  2.88091E-09
   2.92958E-09  2.97815E-09  3.02664E-09  3.07504E-09  3.12336E-09  3.17160E-09  3.21978E-09  3.26789E-09  3.31595E-09  3.36396E-09
   3.41192E-09  3.45985E-09  3.50774E-09  3.55560E-09  3.60346E-09  3.65128E-09  3.69911E-09  3.74692E-09  3.79474E-09  3.84257E-09
   3.89040E-09  3.93827E-09  3.98615E-09  4.03407E-09  4.08202E-09  4.13003E-09  4.17807E-09  4.22617E-09  4.27434E-09  4.32257E-09
   4.37087E-09  4.41925E-09  4.46771E-09
 NY background values follow
     3.654E-09    3.586E-09    3.518E-09    3.450E-09    3.382E-09    3.313E-09    3.245E-09    3.177E-09    3.109E-09    3.041E-09
     2.973E-09    2.905E-09    2.837E-09    2.769E-09    2.701E-09    2.633E-09    2.565E-09    2.497E-09    2.429E-09    2.361E-09
     2.293E-09    2.225E-09    2.158E-09    2.090E-09    2.023E-09    1.955E-09    1.888E-09    1.820E-09    1.753E-09    1.685E-09
     1.618E-09    1.551E-09    1.484E-09    1.417E-09    1.350E-09    1.283E-09    1.216E-09    1.149E-09    1.083E-09    1.016E-09
     9.494E-10    8.829E-10    8.166E-10    7.503E-10    6.841E-10    6.180E-10    5.520E-10    4.861E-10    4.203E-10    3.546E-10
     2.890E-10    2.235E-10    1.581E-10    9.282E-11    2.767E-11   -3.740E-11   -1.023E-10   -1.671E-10   -2.319E-10   -2.965E-10
    -3.609E-10   -4.253E-10   -4.895E-10   -5.536E-10   -6.175E-10   -6.813E-10   -7.450E-10   -8.086E-10   -8.720E-10   -9.353E-10
    -9.984E-10   -1.061E-09   -1.124E-09   -1.187E-09   -1.249E-09   -1.312E-09   -1.374E-09   -1.436E-09   -1.498E-09   -1.559E-09
    -1.621E-09   -1.682E-09   -1.743E-09   -1.803E-09   -1.863E-09   -1.923E-09   -1.983E-09   -2.042E-09   -2.102E-09   -2.160E-09
    -2.219E-09   -2.277E-09   -2.334E-09   -2.391E-09   -2.448E-09   -2.505E-09   -2.561E-09   -2.616E-09   -2.671E-09   -2.726E-09
    -2.780E-09   -2.834E-09   -2.887E-09   -2.940E-09   -2.992E-09   -3.044E-09   -3.095E-09   -3.145E-09   -3.195E-09   -3.245E-09
    -3.293E-09   -3.342E-09   -3.389E-09   -3.436E-09   -3.482E-09   -3.528E-09   -3.573E-09   -3.617E-09   -3.661E-09   -3.704E-09
    -3.746E-09   -3.787E-09   -3.828E-09   -3.868E-09   -3.907E-09   -3.946E-09   -3.983E-09   -4.020E-09   -4.056E-09   -4.091E-09
    -4.126E-09   -4.159E-09   -4.192E-09   -4.224E-09   -4.254E-09   -4.284E-09   -4.313E-09   -4.342E-09   -4.369E-09   -4.395E-09
    -4.420E-09   -4.445E-09   -4.468E-09   -4.491E-09   -4.512E-09   -4.532E-09   -4.552E-09   -4.570E-09   -4.587E-09   -4.603E-09
    -4.619E-09   -4.633E-09   -4.646E-09   -4.658E-09   -4.670E-09   -4.680E-09   -4.689E-09   -4.698E-09   -4.705E-09   -4.711E-09
    -4.717E-09   -4.721E-09   -4.724E-09   -4.727E-09   -4.729E-09   -4.729E-09   -4.729E-09   -4.727E-09   -4.725E-09   -4.722E-09
    -4.718E-09   -4.713E-09   -4.707E-09   -4.700E-09   -4.693E-09   -4.684E-09   -4.674E-09   -4.664E-09   -4.653E-09   -4.640E-09
    -4.627E-09   -4.613E-09   -4.598E-09   -4.583E-09   -4.566E-09   -4.549E-09   -4.530E-09   -4.511E-09   -4.491E-09   -4.470E-09
    -4.449E-09   -4.426E-09   -4.403E-09   -4.378E-09   -4.353E-09   -4.328E-09   -4.301E-09   -4.273E-09   -4.245E-09   -4.216E-09
    -4.186E-09   -4.156E-09   -4.124E-09   -4.092E-09   -4.059E-09   -4.025E-09   -3.990E-09   -3.955E-09   -3.919E-09   -3.882E-09
    -3.844E-09   -3.806E-09   -3.767E-09   -3.727E-09   -3.686E-09   -3.645E-09   -3.603E-09   -3.560E-09   -3.516E-09   -3.472E-09
    -3.427E-09   -3.381E-09   -3.335E-09   -3.288E-09   -3.241E-09   -3.192E-09   -3.143E-09   -3.094E-09   -3.044E-09   -2.993E-09
    -2.942E-09   -2.891E-09   -2.838E-09   -2.786E-09   -2.733E-09   -2.679E-09   -2.625E-09   -2.570E-09   -2.515E-09   -2.460E-09
    -2.404E-09   -2.348E-09   -2.291E-09   -2.234E-09   -2.177E-09   -2.119E-09   -2.061E-09   -2.003E-09   -1.945E-09   -1.886E-09
    -1.827E-09   -1.767E-09   -1.708E-09   -1.648E-09   -1.588E-09   -1.528E-09   -1.468E-09   -1.407E-09   -1.347E-09   -1.286E-09
    -1.225E-09   -1.164E-09   -1.103E-09   -1.042E-09   -9.808E-10   -9.196E-10   -8.584E-10   -7.972E-10   -7.359E-10   -6.747E-10
    -6.135E-10   -5.524E-10   -4.913E-10   -4.304E-10   -3.694E-10   -3.086E-10   -2.480E-10   -1.874E-10   -1.270E-10   -6.682E-11
    -6.762E-12    5.309E-11    1.127E-10    1.722E-10    2.314E-10    2.903E-10    3.490E-10    4.074E-10    4.654E-10    5.232E-10
     5.807E-10    6.378E-10    6.946E-10    7.511E-10    8.073E-10    8.631E-10    9.187E-10    9.740E-10    1.029E-09    1.084E-09
     1.138E-09    1.192E-09    1.246E-09    1.300E-09    1.353E-09    1.406E-09    1.459E-09    1.512E-09    1.564E-09    1.616E-09
     1.668E-09    1.720E-09    1.771E-09    1.823E-09    1.874E-09    1.925E-09    1.976E-09    2.026E-09    2.077E-09    2.127E-09
     2.177E-09    2.227E-09    2.277E-09    2.326E-09    2.376E-09    2.425E-09    2.474E-09    2.523E-09    2.572E-09    2.621E-09
     2.670E-09    2.719E-09    2.767E-09    2.816E-09    2.864E-09    2.913E-09    2.961E-09    3.009E-09    3.057E-09    3.106E-09
     3.154E-09    3.202E-09    3.250E-09    3.298E-09    3.346E-09    3.394E-09    3.442E-09    3.490E-09    3.537E-09    3.585E-09
     3.633E-09    3.681E-09    3.729E-09    3.777E-09    3.826E-09    3.874E-09    3.922E-09    3.970E-09    4.018E-09    4.067E-09
     4.115E-09    4.164E-09    4.212E-09
 GABA     Conc. = 3.45E-10
   3.69089E-09  3.62316E-09  3.55547E-09  3.48782E-09  3.42023E-09  3.35271E-09  3.28525E-09  3.21786E-09  3.15057E-09  3.08338E-09
   3.01631E-09  2.94940E-09  2.88265E-09  2.81607E-09  2.74974E-09  2.68367E-09  2.61785E-09  2.55243E-09  2.48748E-09  2.42305E-09
   2.35934E-09  2.29656E-09  2.23502E-09  2.17521E-09  2.11784E-09  2.06420E-09  2.01660E-09  1.98012E-09  1.96830E-09  2.01510E-09
   2.02287E-09  2.00941E-09  2.10210E-09  2.17201E-09  2.15358E-09  2.13949E-09  2.10127E-09  2.01511E-09  1.88903E-09  1.73767E-09
   1.56897E-09  1.38050E-09  1.20135E-09  1.05647E-09  9.19143E-10  7.87215E-10  6.81537E-10  5.94905E-10  5.17401E-10  4.44893E-10
   3.75707E-10  3.08867E-10  2.43909E-10  1.80783E-10  1.19536E-10  6.04040E-11  3.99964E-12 -4.86466E-11 -9.58031E-11 -1.33732E-10
  -1.53740E-10 -1.30462E-10 -7.91178E-11 -7.63192E-11 -4.16070E-11  3.70642E-11  4.29327E-11 -7.44599E-12 -7.67112E-11 -1.80845E-10
  -3.20397E-10 -4.81233E-10 -6.49027E-10 -8.19147E-10 -9.83782E-10 -1.11391E-09 -1.21246E-09 -1.30748E-09 -1.39661E-09 -1.45165E-09
  -1.47641E-09 -1.52596E-09 -1.56028E-09 -1.53345E-09 -1.53718E-09 -1.56049E-09 -1.54938E-09 -1.55416E-09 -1.58928E-09 -1.63645E-09
  -1.69665E-09 -1.77697E-09 -1.87928E-09 -1.98553E-09 -2.08862E-09 -2.20079E-09 -2.30985E-09 -2.40388E-09 -2.49186E-09 -2.57512E-09
  -2.65047E-09 -2.71955E-09 -2.78444E-09 -2.84633E-09 -2.90599E-09 -2.96381E-09 -3.02009E-09 -3.07500E-09 -3.12872E-09 -3.18137E-09
  -3.23303E-09 -3.28376E-09 -3.33358E-09 -3.38252E-09 -3.43059E-09 -3.47784E-09 -3.52426E-09 -3.56987E-09 -3.61468E-09 -3.65867E-09
  -3.70186E-09 -3.74424E-09 -3.78581E-09 -3.82655E-09 -3.86648E-09 -3.90558E-09 -3.94385E-09 -3.98126E-09 -4.01783E-09 -4.05353E-09
  -4.08836E-09 -4.12232E-09 -4.15538E-09 -4.18754E-09 -4.21878E-09 -4.24911E-09 -4.27850E-09 -4.30695E-09 -4.33444E-09 -4.36097E-09
  -4.38651E-09 -4.41107E-09 -4.43461E-09 -4.45716E-09 -4.47867E-09 -4.49913E-09 -4.51854E-09 -4.53690E-09 -4.55421E-09 -4.57048E-09
  -4.58569E-09 -4.59985E-09 -4.61295E-09 -4.62498E-09 -4.63594E-09 -4.64580E-09 -4.65453E-09 -4.66209E-09 -4.66842E-09 -4.67341E-09
  -4.67689E-09 -4.67857E-09 -4.67789E-09 -4.67369E-09 -4.66317E-09 -4.63749E-09 -4.55398E-09 -4.31552E-09 -4.11358E-09 -4.00002E-09
  -3.94585E-09 -3.92320E-09 -3.92911E-09 -3.97656E-09 -4.08276E-09 -4.24013E-09 -4.40854E-09 -4.52801E-09 -4.56967E-09 -4.57682E-09
  -4.57342E-09 -4.56532E-09 -4.55438E-09 -4.54146E-09 -4.52696E-09 -4.51113E-09 -4.49410E-09 -4.47598E-09 -4.45682E-09 -4.43668E-09
  -4.41559E-09 -4.39358E-09 -4.37066E-09 -4.34686E-09 -4.32219E-09 -4.29666E-09 -4.27028E-09 -4.24306E-09 -4.21501E-09 -4.18613E-09
  -4.15644E-09 -4.12593E-09 -4.09462E-09 -4.06252E-09 -4.02962E-09 -3.99593E-09 -3.96146E-09 -3.92621E-09 -3.89018E-09 -3.85340E-09
  -3.81585E-09 -3.77754E-09 -3.73847E-09 -3.69866E-09 -3.65810E-09 -3.61681E-09 -3.57478E-09 -3.53201E-09 -3.48853E-09 -3.44433E-09
  -3.39943E-09 -3.35385E-09 -3.30760E-09 -3.26069E-09 -3.21315E-09 -3.16497E-09 -3.11619E-09 -3.06681E-09 -3.01685E-09 -2.96633E-09
  -2.91525E-09 -2.86364E-09 -2.81150E-09 -2.75886E-09 -2.70572E-09 -2.65211E-09 -2.59803E-09 -2.54350E-09 -2.48853E-09 -2.43315E-09
  -2.37737E-09 -2.32118E-09 -2.26463E-09 -2.20771E-09 -2.15045E-09 -2.09285E-09 -2.03494E-09 -1.97672E-09 -1.91821E-09 -1.85944E-09
  -1.80039E-09 -1.74112E-09 -1.68159E-09 -1.62187E-09 -1.56195E-09 -1.50182E-09 -1.44154E-09 -1.38109E-09 -1.32051E-09 -1.25980E-09
  -1.19897E-09 -1.13804E-09 -1.07703E-09 -1.01594E-09 -9.54812E-10 -8.93638E-10 -8.32427E-10 -7.71225E-10 -7.10013E-10 -6.48819E-10
  -5.87659E-10 -5.26556E-10 -4.65501E-10 -4.04536E-10 -3.43649E-10 -2.82876E-10 -2.22215E-10 -1.61695E-10 -1.01329E-10 -4.11235E-11
   1.89119E-11  7.87471E-11  1.38379E-10  1.97783E-10  2.56953E-10  3.15872E-10  3.74531E-10  4.32896E-10  4.90969E-10  5.48739E-10
   6.06177E-10  6.63287E-10  7.20074E-10  7.76541E-10  8.32698E-10  8.88540E-10  9.44089E-10  9.99337E-10  1.05430E-09  1.10897E-09
   1.16337E-09  1.21750E-09  1.27136E-09  1.32495E-09  1.37830E-09  1.43140E-09  1.48425E-09  1.53686E-09  1.58924E-09  1.64140E-09
   1.69334E-09  1.74507E-09  1.79658E-09  1.84789E-09  1.89901E-09  1.94994E-09  2.00068E-09  2.05125E-09  2.10164E-09  2.15186E-09
   2.20192E-09  2.25184E-09  2.30160E-09  2.35121E-09  2.40069E-09  2.45004E-09  2.49926E-09  2.54836E-09  2.59734E-09  2.64622E-09
   2.69499E-09  2.74367E-09  2.79226E-09  2.84076E-09  2.88918E-09  2.93753E-09  2.98581E-09  3.03403E-09  3.08219E-09  3.13031E-09
   3.17838E-09  3.22641E-09  3.27441E-09  3.32238E-09  3.37034E-09  3.41827E-09  3.46621E-09  3.51413E-09  3.56206E-09  3.61000E-09
   3.65794E-09  3.70592E-09  3.75392E-09  3.80195E-09  3.85002E-09  3.89813E-09  3.94629E-09  3.99451E-09  4.04279E-09  4.09113E-09
   4.13956E-09  4.18806E-09  4.23663E-09
 Glc      Conc. = 5.28E-10
   5.29222E-09  5.30034E-09  5.23232E-09  5.09380E-09  4.91693E-09  4.71657E-09  4.49124E-09  4.27757E-09  4.10970E-09  4.00196E-09
   3.94376E-09  3.94361E-09  3.98750E-09  4.10268E-09  4.33765E-09  4.53963E-09  4.63398E-09  4.61798E-09  4.51127E-09  4.35250E-09
   4.13918E-09  3.83945E-09  3.48530E-09  3.16324E-09  2.90139E-09  2.71235E-09  2.58670E-09  2.48306E-09  2.37193E-09  2.24855E-09
   2.12157E-09  1.99233E-09  1.86016E-09  1.73368E-09  1.61913E-09  1.50876E-09  1.40304E-09  1.30895E-09  1.22444E-09  1.14519E-09
   1.06901E-09  9.94898E-10  9.22311E-10  8.50843E-10  7.80297E-10  7.10463E-10  6.41244E-10  5.72509E-10  5.04211E-10  4.36308E-10
   3.68728E-10  3.01471E-10  2.34473E-10  1.67743E-10  1.01272E-10  3.49990E-11 -3.10505E-11 -9.68624E-11 -1.62537E-10 -2.27987E-10
  -2.93243E-10 -3.58340E-10 -4.23241E-10 -4.87982E-10 -5.52521E-10 -6.16910E-10 -6.81122E-10 -7.45177E-10 -8.09059E-10 -8.72761E-10
  -9.36311E-10 -9.99695E-10 -1.06289E-09 -1.12594E-09 -1.18880E-09 -1.25147E-09 -1.31395E-09 -1.37621E-09 -1.43826E-09 -1.50008E-09
  -1.56165E-09 -1.62297E-09 -1.68403E-09 -1.74481E-09 -1.80530E-09 -1.86550E-09 -1.92538E-09 -1.98494E-09 -2.04416E-09 -2.10304E-09
  -2.16156E-09 -2.21971E-09 -2.27748E-09 -2.33485E-09 -2.39182E-09 -2.44837E-09 -2.50450E-09 -2.56018E-09 -2.61541E-09 -2.67017E-09
  -2.72446E-09 -2.77826E-09 -2.83156E-09 -2.88434E-09 -2.93660E-09 -2.98832E-09 -3.03950E-09 -3.09010E-09 -3.14014E-09 -3.18961E-09
  -3.23846E-09 -3.28671E-09 -3.33434E-09 -3.38133E-09 -3.42769E-09 -3.47338E-09 -3.51840E-09 -3.56274E-09 -3.60639E-09 -3.64933E-09
  -3.69156E-09 -3.73304E-09 -3.77380E-09 -3.81379E-09 -3.85302E-09 -3.89147E-09 -3.92913E-09 -3.96598E-09 -4.00202E-09 -4.03723E-09
  -4.07160E-09 -4.10512E-09 -4.13777E-09 -4.16954E-09 -4.20042E-09 -4.23041E-09 -4.25946E-09 -4.28759E-09 -4.31478E-09 -4.34102E-09
  -4.36629E-09 -4.39057E-09 -4.41386E-09 -4.43615E-09 -4.45740E-09 -4.47762E-09 -4.49678E-09 -4.51489E-09 -4.53195E-09 -4.54795E-09
  -4.56289E-09 -4.57676E-09 -4.58956E-09 -4.60126E-09 -4.61184E-09 -4.62128E-09 -4.62952E-09 -4.63650E-09 -4.64212E-09 -4.64621E-09
  -4.64851E-09 -4.64858E-09 -4.64556E-09 -4.63771E-09 -4.62082E-09 -4.58169E-09 -4.45737E-09 -4.09318E-09 -3.78316E-09 -3.60932E-09
  -3.52773E-09 -3.49517E-09 -3.50664E-09 -3.58177E-09 -3.74727E-09 -3.99222E-09 -4.25585E-09 -4.44599E-09 -4.51677E-09 -4.53439E-09
  -4.53611E-09 -4.53103E-09 -4.52209E-09 -4.51056E-09 -4.49708E-09 -4.48201E-09 -4.46558E-09 -4.44794E-09 -4.42916E-09 -4.40933E-09
  -4.38850E-09 -4.36670E-09 -4.34397E-09 -4.32032E-09 -4.29578E-09 -4.27036E-09 -4.24407E-09 -4.21694E-09 -4.18896E-09 -4.16015E-09
  -4.13051E-09 -4.10006E-09 -4.06879E-09 -4.03672E-09 -4.00385E-09 -3.97019E-09 -3.93575E-09 -3.90053E-09 -3.86453E-09 -3.82776E-09
  -3.79022E-09 -3.75193E-09 -3.71288E-09 -3.67308E-09 -3.63253E-09 -3.59125E-09 -3.54923E-09 -3.50647E-09 -3.46299E-09 -3.41880E-09
  -3.37391E-09 -3.32833E-09 -3.28208E-09 -3.23518E-09 -3.18764E-09 -3.13947E-09 -3.09069E-09 -3.04131E-09 -2.99136E-09 -2.94084E-09
