 LCModel (Version 6.3-1R) Copyright: S.W. Provencher.          Ref.: Magn. Reson. Med. 30:672-679 (1993).                
 onepulse 12x18_ftSpec_smooth_lcm
 26 lines in following concentration table = NCONC+1
    Conc.  %SD /Cr+PCr  Metabolite                                         
 1.04E-10 359%   1.032 Ala                                                 
 1.55E-09  59%  15.354 Asp                                                 
 1.01E-10 369%   1.000 Cr                                                  
 2.45E-09  29%  24.321 GABA                                                
 1.88E-09  60%  18.694 Glc                                                 
    0.000 999%   0.000 Gln                                                 
    0.000 999%   0.000 Glu                                                 
    0.000 999%   0.000 Glyc                                                
 1.79E-10  65%   1.774 GPC                                                 
    0.000 999%   0.000 GSH                                                 
 6.41E-10  95%   6.362 Ins                                                 
    0.000 999%   0.000 Lac                                                 
    0.000 999%   0.000 NAAG                                                
 8.01E-10  35%   7.956 NAA                                                 
    0.000 999%   0.000 PCh                                                 
    0.000 999%   0.000 PCr                                                 
    0.000 999%   0.000 PE                                                  
 4.65E-13 999% 4.6E-03 Scyllo                                              
 5.97E-10 223%   5.926 Ser                                                 
    0.000 999%   0.000 Tau                                                 
 1.79E-10  65%   1.774 GPC+PCh                                             
 8.01E-10  35%   7.956 NAA+NAAG                                            
 6.41E-10  95%   6.362 Ins+Glyc                                            
 1.01E-10 369%   1.000 Cr+PCr                                              
    0.000 999%   0.000 Glu+Gln                                             
   6 lines in following misc. output table
  FWHM = 0.101 ppm    S/N =   2                                            
  Data shift = 0.358 ppm                                                   
  Ph:  56 deg      -0.5 deg/ppm                                            
  alphaB,S = 6.5E-01,   2.2E+01                                            
    8 spline knots.   Ns = 5(1)                                            
  (12) 1 infls.   ( 7) 1 extrs.                                            
  363 points on ppm-axis = NY
      4.250000     4.238821     4.227641     4.216462     4.205282     4.194103     4.182923     4.171744     4.160564     4.149385
      4.138206     4.127026     4.115847     4.104667     4.093488     4.082308     4.071129     4.059949     4.048770     4.037591
      4.026411     4.015232     4.004052     3.992873     3.981693     3.970514     3.959334     3.948155     3.936975     3.925796
      3.914617     3.903437     3.892258     3.881078     3.869899     3.858719     3.847540     3.836360     3.825181     3.814002
      3.802822     3.791643     3.780463     3.769284     3.758104     3.746925     3.735745     3.724566     3.713387     3.702207
      3.691028     3.679848     3.668669     3.657489     3.646310     3.635130     3.623951     3.612772     3.601592     3.590413
      3.579233     3.568054     3.556874     3.545695     3.534515     3.523336     3.512156     3.500977     3.489798     3.478618
      3.467439     3.456259     3.445080     3.433900     3.422721     3.411541     3.400362     3.389183     3.378003     3.366824
      3.355644     3.344465     3.333285     3.322106     3.310926     3.299747     3.288568     3.277388     3.266209     3.255029
      3.243850     3.232670     3.221491     3.210311     3.199132     3.187953     3.176773     3.165594     3.154414     3.143235
      3.132055     3.120876     3.109696     3.098517     3.087337     3.076158     3.064979     3.053799     3.042620     3.031440
      3.020261     3.009081     2.997902     2.986722     2.975543     2.964364     2.953184     2.942005     2.930825     2.919646
      2.908466     2.897287     2.886107     2.874928     2.863749     2.852569     2.841390     2.830210     2.819031     2.807851
      2.796672     2.785492     2.774313     2.763134     2.751954     2.740775     2.729595     2.718416     2.707236     2.696057
      2.684877     2.673698     2.662519     2.651339     2.640160     2.628980     2.617801     2.606621     2.595442     2.584262
      2.573083     2.561903     2.550724     2.539545     2.528365     2.517186     2.506006     2.494827     2.483647     2.472468
      2.461288     2.450109     2.438930     2.427750     2.416571     2.405391     2.394212     2.383032     2.371853     2.360673
      2.349494     2.338315     2.327135     2.315956     2.304776     2.293597     2.282417     2.271238     2.260058     2.248879
      2.237700     2.226520     2.215341     2.204161     2.192982     2.181802     2.170623     2.159443     2.148264     2.137084
      2.125905     2.114726     2.103546     2.092367     2.081187     2.070008     2.058828     2.047649     2.036469     2.025290
      2.014111     2.002931     1.991752     1.980572     1.969393     1.958213     1.947034     1.935854     1.924675     1.913496
      1.902316     1.891137     1.879957     1.868778     1.857598     1.846419     1.835239     1.824060     1.812881     1.801701
      1.790522     1.779342     1.768163     1.756983     1.745804     1.734624     1.723445     1.712265     1.701086     1.689907
      1.678727     1.667548     1.656368     1.645189     1.634009     1.622830     1.611650     1.600471     1.589292     1.578112
      1.566933     1.555753     1.544574     1.533394     1.522215     1.511035     1.499856     1.488677     1.477497     1.466318
      1.455138     1.443959     1.432779     1.421600     1.410420     1.399241     1.388062     1.376882     1.365703     1.354523
      1.343344     1.332164     1.320985     1.309805     1.298626     1.287446     1.276267     1.265088     1.253908     1.242729
      1.231549     1.220370     1.209190     1.198011     1.186831     1.175652     1.164473     1.153293     1.142114     1.130934
      1.119755     1.108575     1.097396     1.086216     1.075037     1.063858     1.052678     1.041499     1.030319     1.019140
      1.007960     0.996781     0.985601     0.974422     0.963243     0.952063     0.940884     0.929704     0.918525     0.907345
      0.896166     0.884986     0.873807     0.862628     0.851448     0.840269     0.829089     0.817910     0.806730     0.795551
      0.784371     0.773192     0.762012     0.750833     0.739654     0.728474     0.717295     0.706115     0.694936     0.683756
      0.672577     0.661397     0.650218     0.639039     0.627859     0.616680     0.605500     0.594321     0.583141     0.571962
      0.560782     0.549603     0.538424     0.527244     0.516065     0.504885     0.493706     0.482526     0.471347     0.460167
      0.448988     0.437809     0.426629     0.415450     0.404270     0.393091     0.381911     0.370732     0.359552     0.348373
      0.337193     0.326014     0.314835     0.303655     0.292476     0.281296     0.270117     0.258937     0.247758     0.236578
      0.225399     0.214220     0.203040
 NY phased data points follow
   1.28840E-08  1.63883E-08  1.46979E-08  1.68051E-08  1.40254E-08  1.62413E-08  1.36515E-08  1.51329E-08  1.30848E-08  1.50619E-08
   1.25899E-08  1.52183E-08  1.27650E-08  1.49740E-08  1.28367E-08  1.45977E-08  1.27724E-08  1.52313E-08  1.37424E-08  1.49150E-08
   1.30047E-08  1.47555E-08  1.23185E-08  1.40969E-08  1.19267E-08  1.43423E-08  1.23496E-08  1.43588E-08  1.23192E-08  1.34932E-08
   1.25302E-08  1.38378E-08  1.35951E-08  1.46289E-08  1.41573E-08  1.53032E-08  1.39501E-08  1.51723E-08  1.25329E-08  1.43213E-08
   1.22358E-08  1.37839E-08  1.16351E-08  1.30315E-08  1.16209E-08  1.25908E-08  1.10390E-08  1.17415E-08  1.02194E-08  1.10591E-08
   9.95382E-09  1.07576E-08  9.62832E-09  1.05057E-08  9.13397E-09  1.01515E-08  9.03831E-09  9.32972E-09  8.30390E-09  9.12291E-09
   7.64277E-09  9.75181E-09  8.57186E-09  1.16286E-08  1.06696E-08  1.29327E-08  1.15183E-08  1.24402E-08  1.13846E-08  1.22952E-08
   1.01189E-08  1.12789E-08  9.33983E-09  1.01130E-08  8.59732E-09  9.08716E-09  8.10911E-09  9.15035E-09  9.13262E-09  1.11227E-08
   1.12832E-08  1.38772E-08  1.36104E-08  1.53406E-08  1.35235E-08  1.50157E-08  1.37070E-08  1.52008E-08  1.29656E-08  1.42899E-08
   1.29783E-08  1.42700E-08  1.26417E-08  1.34423E-08  1.17108E-08  1.21507E-08  1.15267E-08  1.13390E-08  1.09590E-08  1.08602E-08
   9.46600E-09  1.09950E-08  9.34368E-09  1.02459E-08  9.71638E-09  9.57758E-09  8.54124E-09  9.44391E-09  7.72200E-09  8.38335E-09
   7.41174E-09  7.68119E-09  6.98638E-09  7.32533E-09  6.55197E-09  7.54623E-09  6.84332E-09  7.81652E-09  6.19837E-09  8.00706E-09
   7.00158E-09  7.55073E-09  6.38009E-09  7.37349E-09  6.01179E-09  6.23792E-09  5.07669E-09  6.50113E-09  5.03614E-09  6.25206E-09
   5.66031E-09  6.07983E-09  5.21477E-09  6.24753E-09  5.86481E-09  6.66395E-09  5.94233E-09  6.65901E-09  5.77401E-09  7.11493E-09
   6.90148E-09  8.19672E-09  7.43526E-09  8.71079E-09  7.56797E-09  9.23852E-09  8.60177E-09  9.59271E-09  8.82703E-09  9.95921E-09
   9.90942E-09  9.89927E-09  8.84127E-09  9.78834E-09  8.98019E-09  9.70907E-09  8.43074E-09  9.70605E-09  8.88460E-09  9.81628E-09
   8.92696E-09  9.92249E-09  8.55576E-09  9.67184E-09  8.83275E-09  9.48263E-09  8.53549E-09  1.02644E-08  9.96279E-09  1.22812E-08
   1.29861E-08  1.52715E-08  1.62237E-08  1.75650E-08  1.62460E-08  1.67083E-08  1.54987E-08  1.56004E-08  1.34068E-08  1.30391E-08
   1.18086E-08  1.10497E-08  9.42213E-09  8.26019E-09  6.47401E-09  5.12471E-09  2.18243E-09  1.72198E-09 -1.37463E-09 -2.71675E-09
  -5.59848E-09 -7.16622E-09 -9.63618E-09 -1.13393E-08 -1.32602E-08 -1.44762E-08 -1.62167E-08 -1.69548E-08 -1.84745E-08 -1.82038E-08
  -1.87713E-08 -1.71101E-08 -1.76814E-08 -1.62705E-08 -1.52783E-08 -1.31905E-08 -1.25396E-08 -1.06662E-08 -1.01912E-08 -8.17264E-09
  -7.46139E-09 -6.51730E-09 -5.40210E-09 -4.79939E-09 -5.21763E-09 -4.85013E-09 -4.77328E-09 -3.86136E-09 -4.08153E-09 -4.55785E-09
  -4.52222E-09 -3.27389E-09 -3.94069E-09 -3.12291E-09 -3.77452E-09 -3.50013E-09 -3.21305E-09 -3.26297E-09 -3.54269E-09 -3.50893E-09
  -3.47520E-09 -3.85170E-09 -3.19927E-09 -3.29187E-09 -2.89063E-09 -2.65204E-09 -2.54171E-09 -2.78578E-09 -2.99142E-09 -2.96097E-09
  -3.48248E-09 -3.15668E-09 -3.36017E-09 -3.34529E-09 -2.73166E-09 -3.06929E-09 -2.93891E-09 -2.69058E-09 -2.22133E-09 -2.28102E-09
  -2.45557E-09 -2.13037E-09 -2.31962E-09 -2.43728E-09 -1.72880E-09 -2.68346E-09 -2.35602E-09 -2.35609E-09 -2.61209E-09 -3.27678E-09
  -3.12874E-09 -3.10903E-09 -3.33573E-09 -3.57077E-09 -3.22736E-09 -3.04811E-09 -3.21205E-09 -3.27506E-09 -2.51403E-09 -2.59217E-09
  -2.20926E-09 -2.48672E-09 -2.01735E-09 -2.63306E-09 -1.60158E-09 -1.90360E-09 -1.21317E-09 -1.40537E-09 -1.44375E-09 -2.42627E-09
  -1.33802E-09 -1.77444E-09 -1.68951E-09 -2.45245E-09 -2.00837E-09 -2.89177E-09 -1.82183E-09 -2.93372E-09 -2.61089E-09 -2.63567E-09
  -2.73015E-09 -3.25558E-09 -2.03789E-09 -3.32178E-09 -2.54966E-09 -3.23025E-09 -3.06032E-09 -3.54839E-09 -2.99100E-09 -3.61685E-09
  -3.11342E-09 -4.08772E-09 -3.60551E-09 -3.42034E-09 -3.53533E-09 -3.48104E-09 -3.59014E-09 -3.93604E-09 -3.47809E-09 -4.07614E-09
  -3.08445E-09 -3.63363E-09 -3.87895E-09 -3.90690E-09 -4.05727E-09 -3.98056E-09 -3.26871E-09 -4.29947E-09 -3.62466E-09 -4.20405E-09
  -3.86804E-09 -4.30297E-09 -3.66631E-09 -4.12576E-09 -3.65154E-09 -4.21202E-09 -3.22298E-09 -3.88269E-09 -4.04649E-09 -3.77310E-09
  -3.84211E-09 -3.87132E-09 -3.34325E-09 -3.80152E-09 -3.72808E-09 -4.02067E-09 -3.56530E-09 -3.74089E-09 -3.74268E-09 -4.00115E-09
  -3.41868E-09 -3.32410E-09 -3.80038E-09 -4.10146E-09 -3.16361E-09 -3.65094E-09 -3.34801E-09 -3.57716E-09 -3.51432E-09 -3.28376E-09
  -3.09789E-09 -2.90875E-09 -3.44501E-09 -3.27843E-09 -3.01742E-09 -3.12530E-09 -3.17035E-09 -3.31024E-09 -3.28809E-09 -2.74819E-09
  -2.98217E-09 -2.55761E-09 -2.87481E-09
 NY points of the fit to the data follow
   1.59372E-08  1.55614E-08  1.50209E-08  1.47970E-08  1.47762E-08  1.46037E-08  1.40977E-08  1.36380E-08  1.33470E-08  1.30865E-08
   1.30923E-08  1.31886E-08  1.34067E-08  1.39631E-08  1.45115E-08  1.47323E-08  1.49081E-08  1.51738E-08  1.49632E-08  1.43790E-08
   1.40841E-08  1.39836E-08  1.37795E-08  1.37853E-08  1.34331E-08  1.27185E-08  1.24216E-08  1.25420E-08  1.29042E-08  1.34984E-08
   1.38864E-08  1.40994E-08  1.45849E-08  1.45746E-08  1.36420E-08  1.34475E-08  1.38168E-08  1.40888E-08  1.41257E-08  1.38363E-08
   1.33714E-08  1.31581E-08  1.24823E-08  1.12461E-08  1.09245E-08  1.10692E-08  1.05835E-08  1.01728E-08  1.01688E-08  1.03076E-08
   1.05896E-08  1.08577E-08  1.10113E-08  1.08432E-08  1.03744E-08  9.93838E-09  9.63075E-09  9.81560E-09  9.91048E-09  9.71410E-09
   9.65383E-09  9.78441E-09  1.01756E-08  1.04988E-08  1.11057E-08  1.20064E-08  1.24427E-08  1.26200E-08  1.29029E-08  1.31332E-08
   1.32443E-08  1.29915E-08  1.23305E-08  1.16750E-08  1.14304E-08  1.05570E-08  9.71806E-09  1.05968E-08  1.13008E-08  1.15769E-08
   1.20892E-08  1.25562E-08  1.29751E-08  1.36231E-08  1.41148E-08  1.44086E-08  1.44716E-08  1.36417E-08  1.20020E-08  1.16094E-08
   1.14830E-08  1.14587E-08  1.16495E-08  1.13742E-08  1.07801E-08  1.07567E-08  1.05311E-08  9.90016E-09  9.63713E-09  9.48065E-09
   9.26194E-09  9.10266E-09  8.99836E-09  8.96507E-09  8.94870E-09  8.92849E-09  8.90584E-09  8.88335E-09  8.85035E-09  8.78171E-09
   8.66533E-09  8.54643E-09  8.50379E-09  8.40643E-09  8.26201E-09  8.18684E-09  8.13201E-09  8.08391E-09  8.03821E-09  7.99308E-09
   7.94750E-09  7.90099E-09  7.85310E-09  7.80354E-09  7.75208E-09  7.69854E-09  7.64276E-09  7.58462E-09  7.52402E-09  7.46084E-09
   7.39500E-09  7.32639E-09  7.25496E-09  7.18063E-09  7.10333E-09  7.02298E-09  6.93955E-09  6.85294E-09  6.76312E-09  6.67002E-09
   6.57363E-09  6.47389E-09  6.37077E-09  6.26421E-09  6.15420E-09  6.04072E-09  5.92382E-09  5.80369E-09  5.68051E-09  5.55450E-09
   5.42590E-09  5.29499E-09  5.16208E-09  5.02757E-09  4.89189E-09  4.75561E-09  4.61948E-09  4.48445E-09  4.35190E-09  4.22375E-09
   4.10300E-09  3.99450E-09  3.90674E-09  3.85633E-09  3.88096E-09  4.08904E-09  4.94631E-09  8.14683E-09  1.09911E-08  1.29911E-08
   1.45230E-08  1.58974E-08  1.68914E-08  1.75096E-08  1.78506E-08  1.78847E-08  1.63481E-08  1.16311E-08  4.63664E-09  2.24089E-09
   1.35797E-09  8.56934E-10  5.00154E-10  2.12171E-10 -3.78773E-11 -2.64739E-10 -4.76250E-10 -6.76890E-10 -8.69437E-10 -1.05558E-09
  -1.23643E-09 -1.41274E-09 -1.58500E-09 -1.75352E-09 -1.91850E-09 -2.08008E-09 -2.23835E-09 -2.39329E-09 -2.54492E-09 -2.69321E-09
  -2.83812E-09 -2.97956E-09 -3.11747E-09 -3.25177E-09 -3.38238E-09 -3.50916E-09 -3.63205E-09 -3.75093E-09 -3.86571E-09 -3.97622E-09
  -4.08242E-09 -4.18415E-09 -4.28131E-09 -4.37377E-09 -4.46144E-09 -4.54415E-09 -4.62181E-09 -4.69432E-09 -4.76152E-09 -4.82351E-09
  -4.88037E-09 -4.93224E-09 -4.97921E-09 -5.02141E-09 -5.05892E-09 -5.09190E-09 -5.12043E-09 -5.14462E-09 -5.16460E-09 -5.18046E-09
  -5.19234E-09 -5.20033E-09 -5.20454E-09 -5.20508E-09 -5.20208E-09 -5.19563E-09 -5.18586E-09 -5.17285E-09 -5.15675E-09 -5.13763E-09
  -5.11562E-09 -5.09085E-09 -5.06340E-09 -5.03340E-09 -5.00093E-09 -4.96613E-09 -4.92910E-09 -4.88996E-09 -4.84881E-09 -4.80575E-09
  -4.76093E-09 -4.71440E-09 -4.66634E-09 -4.61679E-09 -4.56588E-09 -4.51377E-09 -4.46052E-09 -4.40624E-09 -4.35106E-09 -4.29507E-09
  -4.23839E-09 -4.18115E-09 -4.12345E-09 -4.06538E-09 -4.00705E-09 -3.94859E-09 -3.89012E-09 -3.83170E-09 -3.77348E-09 -3.71558E-09
  -3.65807E-09 -3.60108E-09 -3.54474E-09 -3.48911E-09 -3.43436E-09 -3.38055E-09 -3.32782E-09 -3.27628E-09 -3.22600E-09 -3.17713E-09
  -3.12979E-09 -3.08405E-09 -3.04006E-09 -2.99788E-09 -2.95767E-09 -2.91951E-09 -2.88354E-09 -2.84980E-09 -2.81848E-09 -2.78965E-09
  -2.76341E-09 -2.73983E-09 -2.71883E-09 -2.70035E-09 -2.68431E-09 -2.67068E-09 -2.65936E-09 -2.65030E-09 -2.64343E-09 -2.63869E-09
  -2.63602E-09 -2.63534E-09 -2.63660E-09 -2.63973E-09 -2.64466E-09 -2.65132E-09 -2.65967E-09 -2.66964E-09 -2.68114E-09 -2.69412E-09
  -2.70852E-09 -2.72426E-09 -2.74131E-09 -2.75955E-09 -2.77897E-09 -2.79947E-09 -2.82101E-09 -2.84349E-09 -2.86688E-09 -2.89110E-09
  -2.91610E-09 -2.94177E-09 -2.96810E-09 -2.99501E-09 -3.02241E-09 -3.05024E-09 -3.07848E-09 -3.10702E-09 -3.13582E-09 -3.16479E-09
  -3.19389E-09 -3.22304E-09 -3.25217E-09 -3.28122E-09 -3.31014E-09 -3.33886E-09 -3.36731E-09 -3.39541E-09 -3.42314E-09 -3.45036E-09
  -3.47709E-09 -3.50319E-09 -3.52866E-09 -3.55340E-09 -3.57732E-09 -3.60043E-09 -3.62259E-09 -3.64379E-09 -3.66392E-09 -3.68295E-09
  -3.70081E-09 -3.71741E-09 -3.73271E-09 -3.74663E-09 -3.75912E-09 -3.77009E-09 -3.77953E-09 -3.78730E-09 -3.79339E-09 -3.79772E-09
  -3.80021E-09 -3.80081E-09 -3.79948E-09
 NY background values follow
     4.601E-09    4.629E-09    4.657E-09    4.685E-09    4.713E-09    4.741E-09    4.770E-09    4.798E-09    4.826E-09    4.855E-09
     4.883E-09    4.912E-09    4.941E-09    4.969E-09    4.998E-09    5.027E-09    5.056E-09    5.085E-09    5.114E-09    5.143E-09
     5.172E-09    5.201E-09    5.230E-09    5.259E-09    5.289E-09    5.318E-09    5.347E-09    5.377E-09    5.406E-09    5.436E-09
     5.465E-09    5.494E-09    5.524E-09    5.554E-09    5.583E-09    5.613E-09    5.642E-09    5.672E-09    5.702E-09    5.731E-09
     5.761E-09    5.791E-09    5.820E-09    5.850E-09    5.880E-09    5.909E-09    5.939E-09    5.969E-09    5.998E-09    6.028E-09
     6.058E-09    6.087E-09    6.117E-09    6.147E-09    6.176E-09    6.206E-09    6.235E-09    6.265E-09    6.294E-09    6.324E-09
     6.353E-09    6.383E-09    6.412E-09    6.442E-09    6.471E-09    6.500E-09    6.530E-09    6.559E-09    6.588E-09    6.617E-09
     6.646E-09    6.676E-09    6.705E-09    6.734E-09    6.762E-09    6.791E-09    6.820E-09    6.848E-09    6.876E-09    6.904E-09
     6.931E-09    6.958E-09    6.984E-09    7.010E-09    7.035E-09    7.060E-09    7.083E-09    7.106E-09    7.128E-09    7.149E-09
     7.170E-09    7.189E-09    7.207E-09    7.224E-09    7.240E-09    7.255E-09    7.268E-09    7.281E-09    7.291E-09    7.301E-09
     7.309E-09    7.315E-09    7.320E-09    7.323E-09    7.324E-09    7.324E-09    7.322E-09    7.318E-09    7.312E-09    7.304E-09
     7.294E-09    7.282E-09    7.268E-09    7.251E-09    7.233E-09    7.212E-09    7.189E-09    7.163E-09    7.135E-09    7.105E-09
     7.072E-09    7.036E-09    6.998E-09    6.957E-09    6.913E-09    6.866E-09    6.817E-09    6.764E-09    6.709E-09    6.650E-09
     6.588E-09    6.524E-09    6.456E-09    6.384E-09    6.310E-09    6.232E-09    6.151E-09    6.066E-09    5.977E-09    5.886E-09
     5.790E-09    5.691E-09    5.588E-09    5.481E-09    5.370E-09    5.256E-09    5.137E-09    5.015E-09    4.889E-09    4.760E-09
     4.627E-09    4.491E-09    4.351E-09    4.209E-09    4.064E-09    3.916E-09    3.765E-09    3.612E-09    3.456E-09    3.299E-09
     3.139E-09    2.977E-09    2.813E-09    2.647E-09    2.480E-09    2.311E-09    2.141E-09    1.970E-09    1.797E-09    1.624E-09
     1.449E-09    1.274E-09    1.098E-09    9.222E-10    7.456E-10    5.688E-10    3.919E-10    2.151E-10    3.836E-11   -1.381E-10
    -3.141E-10   -4.896E-10   -6.644E-10   -8.385E-10   -1.012E-09   -1.184E-09   -1.355E-09   -1.524E-09   -1.692E-09   -1.859E-09
    -2.024E-09   -2.187E-09   -2.348E-09   -2.507E-09   -2.664E-09   -2.819E-09   -2.971E-09   -3.121E-09   -3.268E-09   -3.412E-09
    -3.553E-09   -3.691E-09   -3.826E-09   -3.957E-09   -4.085E-09   -4.210E-09   -4.331E-09   -4.447E-09   -4.560E-09   -4.669E-09
    -4.774E-09   -4.874E-09   -4.970E-09   -5.061E-09   -5.147E-09   -5.229E-09   -5.305E-09   -5.377E-09   -5.443E-09   -5.504E-09
    -5.560E-09   -5.611E-09   -5.657E-09   -5.699E-09   -5.735E-09   -5.768E-09   -5.795E-09   -5.819E-09   -5.838E-09   -5.853E-09
    -5.865E-09   -5.872E-09   -5.876E-09   -5.876E-09   -5.872E-09   -5.865E-09   -5.855E-09   -5.841E-09   -5.825E-09   -5.805E-09
    -5.783E-09   -5.757E-09   -5.730E-09   -5.699E-09   -5.666E-09   -5.631E-09   -5.594E-09   -5.554E-09   -5.512E-09   -5.469E-09
    -5.424E-09   -5.377E-09   -5.328E-09   -5.278E-09   -5.227E-09   -5.175E-09   -5.121E-09   -5.066E-09   -5.011E-09   -4.955E-09
    -4.898E-09   -4.840E-09   -4.782E-09   -4.724E-09   -4.665E-09   -4.606E-09   -4.547E-09   -4.489E-09   -4.430E-09   -4.372E-09
    -4.314E-09   -4.257E-09   -4.200E-09   -4.144E-09   -4.089E-09   -4.035E-09   -3.982E-09   -3.930E-09   -3.879E-09   -3.830E-09
    -3.783E-09   -3.737E-09   -3.692E-09   -3.650E-09   -3.609E-09   -3.571E-09   -3.535E-09   -3.501E-09   -3.469E-09   -3.440E-09
    -3.413E-09   -3.390E-09   -3.368E-09   -3.350E-09   -3.333E-09   -3.319E-09   -3.308E-09   -3.298E-09   -3.291E-09   -3.286E-09
    -3.283E-09   -3.282E-09   -3.283E-09   -3.286E-09   -3.291E-09   -3.297E-09   -3.305E-09   -3.315E-09   -3.326E-09   -3.339E-09
    -3.353E-09   -3.368E-09   -3.385E-09   -3.403E-09   -3.422E-09   -3.443E-09   -3.464E-09   -3.486E-09   -3.509E-09   -3.533E-09
    -3.558E-09   -3.583E-09   -3.609E-09   -3.636E-09   -3.663E-09   -3.690E-09   -3.718E-09   -3.747E-09   -3.775E-09   -3.804E-09
    -3.833E-09   -3.862E-09   -3.890E-09   -3.919E-09   -3.948E-09   -3.976E-09   -4.004E-09   -4.032E-09   -4.060E-09   -4.087E-09
    -4.113E-09   -4.139E-09   -4.164E-09   -4.188E-09   -4.212E-09   -4.235E-09   -4.257E-09   -4.278E-09   -4.297E-09   -4.316E-09
    -4.334E-09   -4.350E-09   -4.365E-09   -4.379E-09   -4.391E-09   -4.401E-09   -4.411E-09   -4.418E-09   -4.424E-09   -4.428E-09
    -4.430E-09   -4.430E-09   -4.429E-09
 Ala      Conc. = 1.04E-10
   4.67165E-09  4.70753E-09  4.74030E-09  4.77174E-09  4.80168E-09  4.83172E-09  4.85879E-09  4.87488E-09  4.89537E-09  4.92517E-09
   4.93999E-09  4.95392E-09  4.97978E-09  5.00219E-09  5.02338E-09  5.04778E-09  5.07380E-09  5.10073E-09  5.12825E-09  5.15617E-09
   5.18437E-09  5.21280E-09  5.24140E-09  5.27014E-09  5.29899E-09  5.32795E-09  5.35699E-09  5.38611E-09  5.41529E-09  5.44453E-09
   5.47383E-09  5.50317E-09  5.53255E-09  5.56197E-09  5.59143E-09  5.62092E-09  5.65044E-09  5.67998E-09  5.70954E-09  5.73912E-09
   5.76873E-09  5.79834E-09  5.82797E-09  5.85760E-09  5.88725E-09  5.91690E-09  5.94656E-09  5.97621E-09  6.00587E-09  6.03552E-09
   6.06517E-09  6.09482E-09  6.12445E-09  6.15408E-09  6.18370E-09  6.21329E-09  6.24288E-09  6.27246E-09  6.30200E-09  6.33152E-09
   6.36103E-09  6.39051E-09  6.41997E-09  6.44940E-09  6.47880E-09  6.50817E-09  6.53751E-09  6.56681E-09  6.59608E-09  6.62532E-09
   6.65451E-09  6.68367E-09  6.71279E-09  6.74187E-09  6.77087E-09  6.79975E-09  6.82846E-09  6.85693E-09  6.88513E-09  6.91300E-09
   6.94048E-09  6.96753E-09  6.99410E-09  7.02014E-09  7.04561E-09  7.07046E-09  7.09465E-09  7.11814E-09  7.14090E-09  7.16291E-09
   7.18414E-09  7.20460E-09  7.22431E-09  7.24336E-09  7.26186E-09  7.28007E-09  7.29857E-09  7.31850E-09  7.34297E-09  7.38281E-09
   7.45475E-09  7.50174E-09  7.54144E-09  7.61474E-09  7.68067E-09  7.72638E-09  7.75784E-09  7.78040E-09  7.78528E-09  7.74871E-09
   7.65976E-09  7.56509E-09  7.54392E-09  7.46568E-09  7.33831E-09  7.27820E-09  7.23674E-09  7.20072E-09  7.16601E-09  7.13088E-09
   7.09445E-09  7.05625E-09  7.01594E-09  6.97332E-09  6.92823E-09  6.88052E-09  6.83010E-09  6.77689E-09  6.72080E-09  6.66174E-09
   6.59967E-09  6.53449E-09  6.46617E-09  6.39463E-09  6.31981E-09  6.24165E-09  6.16011E-09  6.07511E-09  5.98660E-09  5.89453E-09
   5.79884E-09  5.69948E-09  5.59639E-09  5.48951E-09  5.37880E-09  5.26419E-09  5.14569E-09  5.02341E-09  4.89746E-09  4.76799E-09
   4.63512E-09  4.49899E-09  4.35970E-09  4.21741E-09  4.07223E-09  3.92430E-09  3.77376E-09  3.62074E-09  3.46539E-09  3.30785E-09
   3.14828E-09  2.98689E-09  2.82389E-09  2.65964E-09  2.49481E-09  2.33115E-09  2.17656E-09  2.04934E-09  1.91337E-09  1.76614E-09
   1.61294E-09  1.45714E-09  1.29578E-09  1.12940E-09  9.59424E-10  7.84328E-10  5.86624E-10  3.47679E-10  8.77836E-11 -1.10578E-10
  -2.94392E-10 -4.73706E-10 -6.50785E-10 -8.26270E-10 -1.00040E-09 -1.17322E-09 -1.34468E-09 -1.51470E-09 -1.68324E-09 -1.85015E-09
  -2.01532E-09 -2.17866E-09 -2.34004E-09 -2.49933E-09 -2.65640E-09 -2.81114E-09 -2.96345E-09 -3.11314E-09 -3.26013E-09 -3.40430E-09
  -3.54550E-09 -3.68361E-09 -3.81851E-09 -3.95007E-09 -4.07817E-09 -4.20266E-09 -4.32343E-09 -4.44036E-09 -4.55333E-09 -4.66216E-09
  -4.76679E-09 -4.86706E-09 -4.96284E-09 -5.05401E-09 -5.14046E-09 -5.22202E-09 -5.29859E-09 -5.37006E-09 -5.43628E-09 -5.49733E-09
  -5.55330E-09 -5.60431E-09 -5.65046E-09 -5.69187E-09 -5.72863E-09 -5.76089E-09 -5.78872E-09 -5.81224E-09 -5.83157E-09 -5.84680E-09
  -5.85807E-09 -5.86547E-09 -5.86910E-09 -5.86909E-09 -5.86555E-09 -5.85857E-09 -5.84829E-09 -5.83478E-09 -5.81819E-09 -5.79860E-09
  -5.77612E-09 -5.75089E-09 -5.72300E-09 -5.69256E-09 -5.65966E-09 -5.62444E-09 -5.58700E-09 -5.54746E-09 -5.50591E-09 -5.46246E-09
  -5.41725E-09 -5.37034E-09 -5.32191E-09 -5.27199E-09 -5.22072E-09 -5.16825E-09 -5.11464E-09 -5.06001E-09 -5.00449E-09 -4.94816E-09
  -4.89114E-09 -4.83357E-09 -4.77553E-09 -4.71714E-09 -4.65849E-09 -4.59971E-09 -4.54092E-09 -4.48219E-09 -4.42366E-09 -4.36544E-09
  -4.30763E-09 -4.25033E-09 -4.19369E-09 -4.13776E-09 -4.08271E-09 -4.02860E-09 -3.97557E-09 -3.92374E-09 -3.87317E-09 -3.82401E-09
  -3.77638E-09 -3.73035E-09 -3.68607E-09 -3.64361E-09 -3.60311E-09 -3.56467E-09 -3.52841E-09 -3.49439E-09 -3.46279E-09 -3.43369E-09
  -3.40716E-09 -3.38331E-09 -3.36203E-09 -3.34327E-09 -3.32696E-09 -3.31305E-09 -3.30145E-09 -3.29212E-09 -3.28497E-09 -3.27996E-09
  -3.27701E-09 -3.27606E-09 -3.27705E-09 -3.27991E-09 -3.28456E-09 -3.29095E-09 -3.29903E-09 -3.30872E-09 -3.31995E-09 -3.33265E-09
  -3.34678E-09 -3.36225E-09 -3.37902E-09 -3.39699E-09 -3.41613E-09 -3.43636E-09 -3.45762E-09 -3.47983E-09 -3.50294E-09 -3.52689E-09
  -3.55161E-09 -3.57700E-09 -3.60305E-09 -3.62968E-09 -3.65681E-09 -3.68436E-09 -3.71232E-09 -3.74057E-09 -3.76909E-09 -3.79778E-09
  -3.82659E-09 -3.85546E-09 -3.88430E-09 -3.91307E-09 -3.94170E-09 -3.97013E-09 -3.99829E-09 -4.02611E-09 -4.05354E-09 -4.08047E-09
  -4.10690E-09 -4.13272E-09 -4.15789E-09 -4.18234E-09 -4.20595E-09 -4.22877E-09 -4.25063E-09 -4.27153E-09 -4.29136E-09 -4.31009E-09
  -4.32764E-09 -4.34393E-09 -4.35892E-09 -4.37253E-09 -4.38471E-09 -4.39537E-09 -4.40449E-09 -4.41196E-09 -4.41772E-09 -4.42174E-09
  -4.42391E-09 -4.42419E-09 -4.42253E-09
 Asp      Conc. = 1.55E-09
   6.46775E-09  6.26651E-09  6.09038E-09  5.91198E-09  5.78611E-09  5.56897E-09  5.38732E-09  5.18264E-09  5.10801E-09  5.08066E-09
   5.07465E-09  5.08045E-09  5.09446E-09  5.11492E-09  5.13795E-09  5.16206E-09  5.18752E-09  5.21418E-09  5.24189E-09  5.27052E-09
   5.29998E-09  5.33025E-09  5.36129E-09  5.39313E-09  5.42581E-09  5.45943E-09  5.49410E-09  5.53000E-09  5.56738E-09  5.60660E-09
   5.64816E-09  5.69285E-09  5.74187E-09  5.79727E-09  5.86298E-09  5.94792E-09  6.07547E-09  6.20187E-09  6.35323E-09  6.46514E-09
   6.54919E-09  6.62891E-09  6.75182E-09  6.97837E-09  7.24730E-09  7.62589E-09  7.83619E-09  7.90388E-09  8.08719E-09  8.29726E-09
   8.57162E-09  8.81469E-09  8.93835E-09  8.81094E-09  8.40486E-09  7.97637E-09  7.56089E-09  7.60431E-09  7.56996E-09  7.31046E-09
   7.16880E-09  7.10767E-09  7.02497E-09  7.02397E-09  7.09822E-09  7.10653E-09  6.98710E-09  6.92907E-09  6.90345E-09  6.89438E-09
   6.89505E-09  6.90204E-09  6.91342E-09  6.92795E-09  6.94482E-09  6.96342E-09  6.98331E-09  7.00414E-09  7.02564E-09  7.04759E-09
   7.06979E-09  7.09211E-09  7.11439E-09  7.13651E-09  7.15837E-09  7.17987E-09  7.20090E-09  7.22139E-09  7.24126E-09  7.26042E-09
   7.27879E-09  7.29633E-09  7.31293E-09  7.32857E-09  7.34314E-09  7.35660E-09  7.36888E-09  7.37993E-09  7.38967E-09  7.39805E-09
   7.40501E-09  7.41050E-09  7.41444E-09  7.41680E-09  7.41749E-09  7.41649E-09  7.41371E-09  7.40912E-09  7.40265E-09  7.39423E-09
   7.38385E-09  7.37140E-09  7.35686E-09  7.34016E-09  7.32125E-09  7.30007E-09  7.27658E-09  7.25071E-09  7.22240E-09  7.19163E-09
   7.15830E-09  7.12239E-09  7.08382E-09  7.04256E-09  6.99854E-09  6.95171E-09  6.90201E-09  6.84941E-09  6.79383E-09  6.73522E-09
   6.67355E-09  6.60873E-09  6.54074E-09  6.46952E-09  6.39500E-09  6.31714E-09  6.23590E-09  6.15120E-09  6.06302E-09  5.97128E-09
   5.87595E-09  5.77697E-09  5.67429E-09  5.56787E-09  5.45767E-09  5.34362E-09  5.22575E-09  5.10417E-09  4.97902E-09  4.85046E-09
   4.71863E-09  4.58370E-09  4.44580E-09  4.30515E-09  4.16190E-09  4.01628E-09  3.86852E-09  3.71892E-09  3.56783E-09  3.41571E-09
   3.26322E-09  3.11139E-09  2.96187E-09  2.81786E-09  2.68643E-09  2.58758E-09  2.60588E-09  3.07266E-09  3.46521E-09  3.69739E-09
   3.84132E-09  3.95640E-09  3.99911E-09  3.97097E-09  3.89084E-09  3.75580E-09  3.32712E-09  2.29805E-09  8.28794E-10  2.46510E-10
  -5.94056E-11 -2.94772E-10 -5.03049E-10 -6.97988E-10 -8.85191E-10 -1.06727E-09 -1.24557E-09 -1.42079E-09 -1.59338E-09 -1.76353E-09
  -1.93131E-09 -2.09681E-09 -2.25998E-09 -2.42078E-09 -2.57914E-09 -2.73499E-09 -2.88825E-09 -3.03878E-09 -3.18650E-09 -3.33131E-09
  -3.47309E-09 -3.61172E-09 -3.74707E-09 -3.87904E-09 -4.00752E-09 -4.13235E-09 -4.25344E-09 -4.37065E-09 -4.48388E-09 -4.59295E-09
  -4.69781E-09 -4.79828E-09 -4.89425E-09 -4.98560E-09 -5.07222E-09 -5.15394E-09 -5.23065E-09 -5.30227E-09 -5.36862E-09 -5.42979E-09
  -5.48587E-09 -5.53700E-09 -5.58325E-09 -5.62476E-09 -5.66162E-09 -5.69396E-09 -5.72188E-09 -5.74548E-09 -5.76489E-09 -5.78020E-09
