 LCModel (Version 6.3-1R) Copyright: S.W. Provencher.          Ref.: Magn. Reson. Med. 30:672-679 (1993).                
 onepulse 12x19_ftSpec_smooth_lcm
 26 lines in following concentration table = NCONC+1
    Conc.  %SD   /Cr    Metabolite                                         
    0.000 999%   0.000 Ala                                                 
    0.000 999%   0.000 Asp                                                 
    0.000 999%   0.000 Cr                                                  
 7.10E-10  84%   0.000 GABA                                                
 3.83E-10 248%   0.000 Glc                                                 
    0.000 999%   0.000 Gln                                                 
    0.000 999%   0.000 Glu                                                 
    0.000 999%   0.000 Glyc                                                
 9.60E-11 116%   0.000 GPC                                                 
    0.000 999%   0.000 GSH                                                 
 1.21E-09  50%   0.000 Ins                                                 
    0.000 999%   0.000 Lac                                                 
    0.000 999%   0.000 NAAG                                                
 6.73E-10  44%   0.000 NAA                                                 
    0.000 999%   0.000 PCh                                                 
    0.000 999%   0.000 PCr                                                 
    0.000 999%   0.000 PE                                                  
 9.08E-11 253%   0.000 Scyllo                                              
 6.06E-09  18%   0.000 Ser                                                 
    0.000 999%   0.000 Tau                                                 
 9.60E-11 116%   0.000 GPC+PCh                                             
 6.73E-10  44%   0.000 NAA+NAAG                                            
 1.21E-09  50%   0.000 Ins+Glyc                                            
    0.000 999%   0.000 Cr+PCr                                              
    0.000 999%   0.000 Glu+Gln                                             
   6 lines in following misc. output table
  FWHM = 0.089 ppm    S/N =   2                                            
  Data shift = 0.358 ppm                                                   
  Ph:  -7 deg     -29.0 deg/ppm                                            
  alphaB,S = 9.7E-01,   3.7E+01                                            
    9 spline knots.   Ns = 5(1)                                            
  (12) 4 infls.   ( 7) 1 extrs.                                            
  363 points on ppm-axis = NY
      4.250000     4.238821     4.227641     4.216462     4.205282     4.194103     4.182923     4.171744     4.160564     4.149385
      4.138206     4.127026     4.115847     4.104667     4.093488     4.082308     4.071129     4.059949     4.048770     4.037591
      4.026411     4.015232     4.004052     3.992873     3.981693     3.970514     3.959334     3.948155     3.936975     3.925796
      3.914617     3.903437     3.892258     3.881078     3.869899     3.858719     3.847540     3.836360     3.825181     3.814002
      3.802822     3.791643     3.780463     3.769284     3.758104     3.746925     3.735745     3.724566     3.713387     3.702207
      3.691028     3.679848     3.668669     3.657489     3.646310     3.635130     3.623951     3.612772     3.601592     3.590413
      3.579233     3.568054     3.556874     3.545695     3.534515     3.523336     3.512156     3.500977     3.489798     3.478618
      3.467439     3.456259     3.445080     3.433900     3.422721     3.411541     3.400362     3.389183     3.378003     3.366824
      3.355644     3.344465     3.333285     3.322106     3.310926     3.299747     3.288568     3.277388     3.266209     3.255029
      3.243850     3.232670     3.221491     3.210311     3.199132     3.187953     3.176773     3.165594     3.154414     3.143235
      3.132055     3.120876     3.109696     3.098517     3.087337     3.076158     3.064979     3.053799     3.042620     3.031440
      3.020261     3.009081     2.997902     2.986722     2.975543     2.964364     2.953184     2.942005     2.930825     2.919646
      2.908466     2.897287     2.886107     2.874928     2.863749     2.852569     2.841390     2.830210     2.819031     2.807851
      2.796672     2.785492     2.774313     2.763134     2.751954     2.740775     2.729595     2.718416     2.707236     2.696057
      2.684877     2.673698     2.662519     2.651339     2.640160     2.628980     2.617801     2.606621     2.595442     2.584262
      2.573083     2.561903     2.550724     2.539545     2.528365     2.517186     2.506006     2.494827     2.483647     2.472468
      2.461288     2.450109     2.438930     2.427750     2.416571     2.405391     2.394212     2.383032     2.371853     2.360673
      2.349494     2.338315     2.327135     2.315956     2.304776     2.293597     2.282417     2.271238     2.260058     2.248879
      2.237700     2.226520     2.215341     2.204161     2.192982     2.181802     2.170623     2.159443     2.148264     2.137084
      2.125905     2.114726     2.103546     2.092367     2.081187     2.070008     2.058828     2.047649     2.036469     2.025290
      2.014111     2.002931     1.991752     1.980572     1.969393     1.958213     1.947034     1.935854     1.924675     1.913496
      1.902316     1.891137     1.879957     1.868778     1.857598     1.846419     1.835239     1.824060     1.812881     1.801701
      1.790522     1.779342     1.768163     1.756983     1.745804     1.734624     1.723445     1.712265     1.701086     1.689907
      1.678727     1.667548     1.656368     1.645189     1.634009     1.622830     1.611650     1.600471     1.589292     1.578112
      1.566933     1.555753     1.544574     1.533394     1.522215     1.511035     1.499856     1.488677     1.477497     1.466318
      1.455138     1.443959     1.432779     1.421600     1.410420     1.399241     1.388062     1.376882     1.365703     1.354523
      1.343344     1.332164     1.320985     1.309805     1.298626     1.287446     1.276267     1.265088     1.253908     1.242729
      1.231549     1.220370     1.209190     1.198011     1.186831     1.175652     1.164473     1.153293     1.142114     1.130934
      1.119755     1.108575     1.097396     1.086216     1.075037     1.063858     1.052678     1.041499     1.030319     1.019140
      1.007960     0.996781     0.985601     0.974422     0.963243     0.952063     0.940884     0.929704     0.918525     0.907345
      0.896166     0.884986     0.873807     0.862628     0.851448     0.840269     0.829089     0.817910     0.806730     0.795551
      0.784371     0.773192     0.762012     0.750833     0.739654     0.728474     0.717295     0.706115     0.694936     0.683756
      0.672577     0.661397     0.650218     0.639039     0.627859     0.616680     0.605500     0.594321     0.583141     0.571962
      0.560782     0.549603     0.538424     0.527244     0.516065     0.504885     0.493706     0.482526     0.471347     0.460167
      0.448988     0.437809     0.426629     0.415450     0.404270     0.393091     0.381911     0.370732     0.359552     0.348373
      0.337193     0.326014     0.314835     0.303655     0.292476     0.281296     0.270117     0.258937     0.247758     0.236578
      0.225399     0.214220     0.203040
 NY phased data points follow
   4.47399E-09  7.40218E-09  6.62193E-09  9.06071E-09  7.39330E-09  9.42608E-09  7.84078E-09  9.00941E-09  7.43481E-09  9.08920E-09
   7.29087E-09  9.51570E-09  7.69520E-09  9.26995E-09  7.86178E-09  9.13336E-09  7.62265E-09  9.35784E-09  8.64236E-09  1.01310E-08
   8.66785E-09  1.06102E-08  8.56444E-09  9.90997E-09  7.88583E-09  9.73820E-09  8.38944E-09  9.91691E-09  9.18573E-09  9.44475E-09
   8.79029E-09  9.33679E-09  9.45320E-09  1.04403E-08  1.03118E-08  1.19654E-08  1.06697E-08  1.25970E-08  1.04834E-08  1.18245E-08
   1.03296E-08  1.17060E-08  1.01637E-08  1.11468E-08  1.03281E-08  1.07618E-08  1.00182E-08  1.02653E-08  9.24038E-09  9.53429E-09
   8.68973E-09  9.58757E-09  8.42574E-09  9.18577E-09  7.87829E-09  9.01051E-09  7.91012E-09  8.32145E-09  6.77672E-09  7.68730E-09
   6.04254E-09  7.62206E-09  6.00891E-09  8.59725E-09  7.91674E-09  9.84129E-09  9.41777E-09  1.03768E-08  9.59019E-09  1.07002E-08
   9.24031E-09  9.99224E-09  8.43488E-09  8.95947E-09  7.55584E-09  7.79674E-09  6.93791E-09  7.41241E-09  7.13743E-09  8.49594E-09
   8.58525E-09  1.10142E-08  1.09916E-08  1.31699E-08  1.20213E-08  1.36593E-08  1.27182E-08  1.42921E-08  1.25508E-08  1.36664E-08
   1.28596E-08  1.38437E-08  1.28986E-08  1.34587E-08  1.22554E-08  1.24864E-08  1.21470E-08  1.18653E-08  1.14848E-08  1.16293E-08
   1.02637E-08  1.17028E-08  1.02359E-08  1.08233E-08  1.02811E-08  1.05498E-08  9.22886E-09  1.02805E-08  8.75040E-09  9.22539E-09
   8.18171E-09  8.48287E-09  7.77643E-09  7.87247E-09  6.98041E-09  7.98344E-09  7.05561E-09  8.35252E-09  6.41603E-09  8.13117E-09
   7.29319E-09  7.87629E-09  6.65627E-09  7.72184E-09  6.51025E-09  6.70821E-09  5.34629E-09  6.64430E-09  5.32908E-09  6.16108E-09
   5.63715E-09  6.03295E-09  4.94824E-09  6.15253E-09  5.46452E-09  6.48802E-09  5.77685E-09  6.48998E-09  5.34189E-09  6.65893E-09
   6.45175E-09  7.64141E-09  6.82465E-09  8.28373E-09  7.11809E-09  8.81764E-09  8.04393E-09  9.18882E-09  8.46713E-09  9.49578E-09
   9.63498E-09  9.79267E-09  8.46858E-09  9.64795E-09  8.49071E-09  9.46432E-09  8.15707E-09  9.31379E-09  8.69358E-09  9.42756E-09
   8.75158E-09  9.75625E-09  8.43023E-09  9.42680E-09  8.55720E-09  9.39200E-09  8.45546E-09  1.02908E-08  1.00488E-08  1.24995E-08
   1.28809E-08  1.49237E-08  1.55359E-08  1.71651E-08  1.58997E-08  1.63916E-08  1.48245E-08  1.53680E-08  1.28068E-08  1.26652E-08
   1.12645E-08  1.07621E-08  8.78299E-09  7.90036E-09  5.97777E-09  4.61056E-09  1.82625E-09  1.33254E-09 -1.76111E-09 -2.84795E-09
  -5.85284E-09 -7.38216E-09 -9.91694E-09 -1.13536E-08 -1.37125E-08 -1.51565E-08 -1.69983E-08 -1.79387E-08 -1.98642E-08 -1.94075E-08
  -2.05636E-08 -1.89621E-08 -1.98971E-08 -1.83979E-08 -1.74610E-08 -1.49733E-08 -1.45656E-08 -1.20581E-08 -1.14933E-08 -8.61639E-09
  -8.17987E-09 -6.53059E-09 -5.43194E-09 -4.16551E-09 -4.76490E-09 -3.94512E-09 -4.26758E-09 -2.84426E-09 -3.74148E-09 -3.60673E-09
  -4.26060E-09 -2.57176E-09 -3.68373E-09 -2.48514E-09 -3.71029E-09 -2.77918E-09 -3.27862E-09 -2.59027E-09 -3.52156E-09 -2.74686E-09
  -3.62455E-09 -3.00771E-09 -3.21347E-09 -2.57684E-09 -2.69697E-09 -1.95150E-09 -2.32233E-09 -2.25768E-09 -2.93857E-09 -2.35774E-09
  -3.25709E-09 -2.36256E-09 -3.14295E-09 -2.19521E-09 -2.49235E-09 -2.29047E-09 -2.39803E-09 -1.65656E-09 -1.76369E-09 -1.37386E-09
  -2.13716E-09 -1.33790E-09 -2.15656E-09 -1.40848E-09 -1.69173E-09 -1.98308E-09 -2.05503E-09 -1.75935E-09 -2.58070E-09 -2.24311E-09
  -2.74096E-09 -2.02670E-09 -2.90618E-09 -2.45606E-09 -2.37421E-09 -1.76258E-09 -2.40364E-09 -1.41956E-09 -1.44645E-09 -1.04056E-09
  -1.43489E-09 -9.21892E-10 -1.43042E-09 -9.19856E-10 -8.24957E-10 -4.57607E-10 -6.54701E-10 -2.85473E-10 -1.25663E-09 -1.00988E-09
  -8.62685E-10 -7.18627E-10 -1.60095E-09 -1.47720E-09 -1.75445E-09 -1.51204E-09 -1.39157E-09 -2.00040E-09 -1.88952E-09 -1.30360E-09
  -2.41362E-09 -1.47724E-09 -1.37676E-09 -2.24669E-09 -1.68129E-09 -2.04829E-09 -2.19257E-09 -1.71791E-09 -1.82618E-09 -1.91045E-09
  -1.93382E-09 -2.52666E-09 -1.96878E-09 -1.59147E-09 -2.02825E-09 -1.26970E-09 -2.06001E-09 -1.55719E-09 -1.81257E-09 -1.38135E-09
  -1.10446E-09 -1.44231E-09 -1.87175E-09 -1.31565E-09 -1.90239E-09 -1.06551E-09 -1.00587E-09 -1.31640E-09 -1.12341E-09 -1.14129E-09
  -1.09425E-09 -1.06002E-09 -9.57817E-10 -7.24458E-10 -7.03472E-10 -6.82095E-10 -2.27403E-11 -8.00757E-10 -4.55968E-10 -1.63490E-10
  -5.33538E-10  2.56742E-10 -3.97012E-11 -2.10144E-10  7.60695E-11  1.71056E-10  2.11173E-10  1.99905E-10  8.82034E-11  2.45506E-10
   8.64472E-10  8.11833E-10 -6.57774E-11  8.68086E-10  1.06040E-09  7.25643E-10  9.23167E-10  8.96341E-10  1.09172E-09  1.46839E-09
   1.57801E-09  1.50894E-09  1.12305E-09  1.74245E-09  1.42911E-09  1.58911E-09  1.69784E-09  1.58884E-09  1.90037E-09  2.16615E-09
   2.00650E-09  2.19887E-09  2.10226E-09
 NY points of the fit to the data follow
   3.30850E-09  6.78508E-09  8.17793E-09  7.92938E-09  8.61917E-09  9.95340E-09  1.05491E-08  9.74398E-09  8.38167E-09  7.42906E-09
   6.80147E-09  6.59748E-09  6.63482E-09  7.04786E-09  7.70385E-09  8.28215E-09  8.73000E-09  9.41702E-09  9.94280E-09  9.70230E-09
   9.15981E-09  8.78610E-09  8.56213E-09  8.32317E-09  8.21722E-09  8.31605E-09  8.57708E-09  8.87422E-09  9.02972E-09  9.06371E-09
   9.37664E-09  9.77787E-09  1.01552E-08  1.04574E-08  1.04735E-08  1.02072E-08  1.00742E-08  1.00625E-08  1.01053E-08  1.01429E-08
   1.01432E-08  1.01766E-08  1.01746E-08  9.99704E-09  9.84749E-09  9.81193E-09  9.68982E-09  9.52590E-09  9.39410E-09  9.32244E-09
   9.29581E-09  9.31113E-09  9.34717E-09  9.35588E-09  9.30754E-09  9.24528E-09  9.21965E-09  9.27585E-09  9.36853E-09  9.42203E-09
   9.38781E-09  9.30545E-09  9.27269E-09  9.28464E-09  9.37687E-09  9.63436E-09  9.88793E-09  1.00177E-08  1.01532E-08  1.02829E-08
   1.04403E-08  1.05420E-08  1.04986E-08  1.03209E-08  1.01534E-08  9.78014E-09  9.28747E-09  9.34597E-09  9.82373E-09  1.03665E-08
   1.09270E-08  1.14219E-08  1.18957E-08  1.25214E-08  1.32705E-08  1.39731E-08  1.43816E-08  1.40944E-08  1.30477E-08  1.22611E-08
   1.18891E-08  1.16836E-08  1.15881E-08  1.14291E-08  1.12153E-08  1.11120E-08  1.09632E-08  1.07286E-08  1.05586E-08  1.04046E-08
   1.02334E-08  1.00791E-08  9.94012E-09  9.81203E-09  9.69179E-09  9.57713E-09  9.46653E-09  9.35898E-09  9.25369E-09  9.14999E-09
   9.04736E-09  8.94516E-09  8.84314E-09  8.74097E-09  8.63851E-09  8.53558E-09  8.43200E-09  8.32757E-09  8.22217E-09  8.11577E-09
   8.00807E-09  7.89919E-09  7.78901E-09  7.67755E-09  7.56476E-09  7.45069E-09  7.33531E-09  7.21866E-09  7.10078E-09  6.98168E-09
   6.86142E-09  6.74005E-09  6.61760E-09  6.49415E-09  6.36975E-09  6.24448E-09  6.11839E-09  5.99159E-09  5.86417E-09  5.73620E-09
   5.60783E-09  5.47914E-09  5.35026E-09  5.22137E-09  5.09254E-09  4.96398E-09  4.83590E-09  4.70853E-09  4.58206E-09  4.45682E-09
   4.33315E-09  4.21138E-09  4.09203E-09  3.97571E-09  3.86305E-09  3.75498E-09  3.65272E-09  3.55776E-09  3.47221E-09  3.39909E-09
   3.34268E-09  3.30985E-09  3.31172E-09  3.36861E-09  3.52244E-09  3.88067E-09  4.84037E-09  7.64829E-09  1.12762E-08  1.41556E-08
   1.59847E-08  1.71222E-08  1.79974E-08  1.87761E-08  1.91445E-08  1.82652E-08  1.50853E-08  9.34211E-09  3.04705E-09  1.97601E-10
  -5.06123E-10 -8.05965E-10 -9.88339E-10 -1.12592E-09 -1.24355E-09 -1.35131E-09 -1.45373E-09 -1.55301E-09 -1.65023E-09 -1.74590E-09
  -1.84031E-09 -1.93351E-09 -2.02554E-09 -2.11634E-09 -2.20589E-09 -2.29411E-09 -2.38091E-09 -2.46624E-09 -2.55003E-09 -2.63220E-09
  -2.71270E-09 -2.79148E-09 -2.86847E-09 -2.94361E-09 -3.01688E-09 -3.08823E-09 -3.15761E-09 -3.22498E-09 -3.29032E-09 -3.35360E-09
  -3.41478E-09 -3.47383E-09 -3.53075E-09 -3.58549E-09 -3.63806E-09 -3.68843E-09 -3.73657E-09 -3.78249E-09 -3.82618E-09 -3.86761E-09
  -3.90678E-09 -3.94369E-09 -3.97832E-09 -4.01070E-09 -4.04081E-09 -4.06862E-09 -4.09418E-09 -4.11747E-09 -4.13849E-09 -4.15725E-09
  -4.17376E-09 -4.18802E-09 -4.20005E-09 -4.20986E-09 -4.21746E-09 -4.22286E-09 -4.22608E-09 -4.22713E-09 -4.22604E-09 -4.22281E-09
  -4.21747E-09 -4.21004E-09 -4.20055E-09 -4.18902E-09 -4.17550E-09 -4.16004E-09 -4.14268E-09 -4.12346E-09 -4.10243E-09 -4.07963E-09
  -4.05511E-09 -4.02890E-09 -4.00105E-09 -3.97161E-09 -3.94061E-09 -3.90811E-09 -3.87413E-09 -3.83873E-09 -3.80195E-09 -3.76383E-09
  -3.72440E-09 -3.68372E-09 -3.64182E-09 -3.59873E-09 -3.55451E-09 -3.50919E-09 -3.46280E-09 -3.41539E-09 -3.36700E-09 -3.31765E-09
  -3.26739E-09 -3.21625E-09 -3.16427E-09 -3.11148E-09 -3.05792E-09 -3.00361E-09 -2.94860E-09 -2.89291E-09 -2.83657E-09 -2.77962E-09
  -2.72208E-09 -2.66398E-09 -2.60535E-09 -2.54622E-09 -2.48661E-09 -2.42655E-09 -2.36606E-09 -2.30517E-09 -2.24389E-09 -2.18226E-09
  -2.12029E-09 -2.05801E-09 -1.99542E-09 -1.93255E-09 -1.86942E-09 -1.80604E-09 -1.74244E-09 -1.67861E-09 -1.61458E-09 -1.55037E-09
  -1.48597E-09 -1.42140E-09 -1.35668E-09 -1.29180E-09 -1.22678E-09 -1.16163E-09 -1.09634E-09 -1.03094E-09 -9.65415E-10 -8.99787E-10
  -8.34059E-10 -7.68238E-10 -7.02333E-10 -6.36351E-10 -5.70299E-10 -5.04186E-10 -4.38019E-10 -3.71805E-10 -3.05555E-10 -2.39274E-10
  -1.72972E-10 -1.06656E-10 -4.03346E-11  2.59844E-11  9.22924E-11  1.58580E-10  2.24839E-10  2.91061E-10  3.57241E-10  4.23364E-10
   4.89427E-10  5.55422E-10  6.21331E-10  6.87155E-10  7.52886E-10  8.18507E-10  8.84012E-10  9.49398E-10  1.01465E-09  1.07976E-09
   1.14472E-09  1.20952E-09  1.27415E-09  1.33861E-09  1.40288E-09  1.46695E-09  1.53082E-09  1.59447E-09  1.65791E-09  1.72110E-09
   1.78406E-09  1.84677E-09  1.90922E-09  1.97140E-09  2.03330E-09  2.09491E-09  2.15623E-09  2.21724E-09  2.27794E-09  2.33831E-09
   2.39835E-09  2.45805E-09  2.51739E-09
 NY background values follow
    -2.068E-09   -1.853E-09   -1.639E-09   -1.427E-09   -1.217E-09   -1.009E-09   -8.033E-10   -5.994E-10   -3.976E-10   -1.978E-10
    -2.164E-13    1.953E-10    3.886E-10    5.798E-10    7.687E-10    9.554E-10    1.140E-09    1.322E-09    1.502E-09    1.680E-09
     1.855E-09    2.028E-09    2.199E-09    2.367E-09    2.533E-09    2.697E-09    2.858E-09    3.016E-09    3.173E-09    3.327E-09
     3.478E-09    3.627E-09    3.773E-09    3.917E-09    4.059E-09    4.198E-09    4.334E-09    4.468E-09    4.600E-09    4.729E-09
     4.855E-09    4.979E-09    5.101E-09    5.220E-09    5.336E-09    5.450E-09    5.561E-09    5.670E-09    5.776E-09    5.880E-09
     5.981E-09    6.080E-09    6.176E-09    6.270E-09    6.361E-09    6.450E-09    6.536E-09    6.620E-09    6.701E-09    6.780E-09
     6.857E-09    6.931E-09    7.002E-09    7.071E-09    7.138E-09    7.202E-09    7.264E-09    7.324E-09    7.381E-09    7.435E-09
     7.487E-09    7.537E-09    7.584E-09    7.628E-09    7.671E-09    7.710E-09    7.748E-09    7.782E-09    7.815E-09    7.845E-09
     7.872E-09    7.897E-09    7.919E-09    7.939E-09    7.957E-09    7.971E-09    7.984E-09    7.994E-09    8.001E-09    8.006E-09
     8.008E-09    8.008E-09    8.005E-09    8.000E-09    7.992E-09    7.982E-09    7.969E-09    7.953E-09    7.935E-09    7.914E-09
     7.891E-09    7.866E-09    7.837E-09    7.806E-09    7.773E-09    7.737E-09    7.698E-09    7.657E-09    7.614E-09    7.567E-09
     7.518E-09    7.467E-09    7.413E-09    7.356E-09    7.297E-09    7.235E-09    7.171E-09    7.104E-09    7.035E-09    6.963E-09
     6.888E-09    6.811E-09    6.732E-09    6.649E-09    6.565E-09    6.478E-09    6.389E-09    6.297E-09    6.204E-09    6.108E-09
     6.010E-09    5.910E-09    5.808E-09    5.704E-09    5.599E-09    5.491E-09    5.382E-09    5.271E-09    5.159E-09    5.045E-09
     4.929E-09    4.813E-09    4.694E-09    4.575E-09    4.455E-09    4.333E-09    4.210E-09    4.087E-09    3.962E-09    3.837E-09
     3.711E-09    3.584E-09    3.457E-09    3.329E-09    3.201E-09    3.072E-09    2.943E-09    2.814E-09    2.685E-09    2.556E-09
     2.426E-09    2.297E-09    2.167E-09    2.038E-09    1.910E-09    1.781E-09    1.653E-09    1.526E-09    1.399E-09    1.273E-09
     1.147E-09    1.023E-09    8.986E-10    7.756E-10    6.536E-10    5.326E-10    4.128E-10    2.941E-10    1.767E-10    6.055E-11
    -5.418E-11   -1.675E-10   -2.793E-10   -3.896E-10   -4.984E-10   -6.055E-10   -7.110E-10   -8.148E-10   -9.169E-10   -1.017E-09
    -1.116E-09   -1.213E-09   -1.307E-09   -1.401E-09   -1.492E-09   -1.581E-09   -1.668E-09   -1.754E-09   -1.837E-09   -1.918E-09
    -1.997E-09   -2.075E-09   -2.150E-09   -2.223E-09   -2.293E-09   -2.362E-09   -2.429E-09   -2.493E-09   -2.555E-09   -2.615E-09
    -2.673E-09   -2.728E-09   -2.782E-09   -2.833E-09   -2.881E-09   -2.928E-09   -2.972E-09   -3.014E-09   -3.054E-09   -3.091E-09
    -3.126E-09   -3.159E-09   -3.190E-09   -3.218E-09   -3.244E-09   -3.268E-09   -3.289E-09   -3.308E-09   -3.325E-09   -3.340E-09
    -3.352E-09   -3.363E-09   -3.371E-09   -3.376E-09   -3.380E-09   -3.382E-09   -3.381E-09   -3.378E-09   -3.373E-09   -3.366E-09
    -3.357E-09   -3.346E-09   -3.333E-09   -3.318E-09   -3.301E-09   -3.282E-09   -3.261E-09   -3.238E-09   -3.214E-09   -3.188E-09
    -3.160E-09   -3.130E-09   -3.099E-09   -3.067E-09   -3.033E-09   -2.997E-09   -2.960E-09   -2.922E-09   -2.882E-09   -2.841E-09
    -2.799E-09   -2.756E-09   -2.711E-09   -2.666E-09   -2.619E-09   -2.571E-09   -2.522E-09   -2.472E-09   -2.422E-09   -2.370E-09
    -2.318E-09   -2.264E-09   -2.210E-09   -2.155E-09   -2.100E-09   -2.044E-09   -1.987E-09   -1.929E-09   -1.871E-09   -1.812E-09
    -1.753E-09   -1.693E-09   -1.633E-09   -1.573E-09   -1.512E-09   -1.450E-09   -1.388E-09   -1.326E-09   -1.264E-09   -1.201E-09
    -1.138E-09   -1.074E-09   -1.011E-09   -9.471E-10   -8.831E-10   -8.188E-10   -7.545E-10   -6.899E-10   -6.252E-10   -5.604E-10
    -4.954E-10   -4.303E-10   -3.651E-10   -2.999E-10   -2.345E-10   -1.690E-10   -1.035E-10   -3.790E-11    2.777E-11    9.348E-11
     1.592E-10    2.251E-10    2.909E-10    3.568E-10    4.226E-10    4.885E-10    5.544E-10    6.203E-10    6.862E-10    7.520E-10
     8.179E-10    8.837E-10    9.494E-10    1.015E-09    1.081E-09    1.146E-09    1.212E-09    1.277E-09    1.342E-09    1.408E-09
     1.473E-09    1.538E-09    1.603E-09    1.667E-09    1.732E-09    1.796E-09    1.861E-09    1.925E-09    1.989E-09    2.052E-09
     2.116E-09    2.179E-09    2.242E-09    2.305E-09    2.368E-09    2.430E-09    2.492E-09    2.554E-09    2.616E-09    2.677E-09
     2.738E-09    2.799E-09    2.859E-09    2.920E-09    2.979E-09    3.039E-09    3.098E-09    3.157E-09    3.215E-09    3.273E-09
     3.331E-09    3.388E-09    3.445E-09
 GABA     Conc. = 7.10E-10
  -2.43440E-09 -2.22577E-09 -2.01934E-09 -1.81518E-09 -1.61334E-09 -1.41388E-09 -1.21686E-09 -1.02235E-09 -8.30440E-10 -6.41190E-10
  -4.54689E-10 -2.71051E-10 -9.03509E-11  8.72787E-11  2.61709E-10  4.32823E-10  6.00410E-10  7.64238E-10  9.24108E-10  1.07970E-09
   1.23061E-09  1.37642E-09  1.51651E-09  1.65009E-09  1.77623E-09  1.89355E-09  2.00029E-09  2.09453E-09  2.17723E-09  2.29484E-09
   2.46160E-09  2.59638E-09  2.77375E-09  3.06492E-09  3.38495E-09  3.72603E-09  4.11992E-09  4.54592E-09  4.95924E-09  5.31193E-09
   5.59272E-09  5.88240E-09  6.11129E-09  6.11537E-09  6.11773E-09  6.19785E-09  6.18284E-09  6.13395E-09  6.11999E-09  6.12859E-09
   6.15111E-09  6.18223E-09  6.21844E-09  6.25741E-09  6.29742E-09  6.33696E-09  6.37481E-09  6.40998E-09  6.44162E-09  6.46982E-09
   6.49728E-09  6.54646E-09  6.68361E-09  6.82439E-09  6.95260E-09  7.20121E-09  7.49617E-09  7.76967E-09  8.05854E-09  8.35339E-09
   8.61543E-09  8.79482E-09  8.86513E-09  8.87995E-09  8.92030E-09  8.77888E-09  8.53834E-09  8.47759E-09  8.40352E-09  8.27112E-09
   8.21635E-09  8.17896E-09  8.13703E-09  8.17896E-09  8.25260E-09  8.30687E-09  8.40670E-09  8.54233E-09  8.68185E-09  8.81700E-09
   8.91493E-09  9.00813E-09  9.12745E-09  9.13466E-09  9.05591E-09  9.06617E-09  9.01529E-09  8.86682E-09  8.77374E-09  8.68936E-09
   8.58175E-09  8.48604E-09  8.40140E-09  8.32408E-09  8.25148E-09  8.18174E-09  8.11362E-09  8.04642E-09  7.97954E-09  7.91249E-09
   7.84492E-09  7.77631E-09  7.70655E-09  7.63538E-09  7.56277E-09  7.48859E-09  7.41274E-09  7.33508E-09  7.25553E-09  7.17410E-09
   7.09054E-09  7.00500E-09  6.91739E-09  6.82775E-09  6.73606E-09  6.64237E-09  6.54668E-09  6.44904E-09  6.34949E-09  6.24807E-09
   6.14481E-09  6.03977E-09  5.93298E-09  5.82451E-09  5.71440E-09  5.60273E-09  5.48951E-09  5.37483E-09  5.25877E-09  5.14134E-09
   5.02266E-09  4.90276E-09  4.78172E-09  4.65964E-09  4.53652E-09  4.41247E-09  4.28758E-09  4.16193E-09  4.03557E-09  3.90864E-09
   3.78120E-09  3.65331E-09  3.52511E-09  3.39675E-09  3.26826E-09  3.13982E-09  3.01162E-09  2.88383E-09  2.75666E-09  2.63050E-09
   2.50570E-09  2.38302E-09  2.26349E-09  2.14919E-09  2.04447E-09  1.96178E-09  1.95469E-09  2.12190E-09  2.28118E-09  2.35505E-09
   2.35335E-09  2.31424E-09  2.26700E-09  2.21215E-09  2.10719E-09  1.87138E-09  1.42673E-09  8.02873E-10  2.51058E-10  4.66366E-11
  -9.34853E-11 -2.16781E-10 -3.33210E-10 -4.45847E-10 -5.55884E-10 -6.63801E-10 -7.69820E-10 -8.74045E-10 -9.76506E-10 -1.07720E-09
  -1.17614E-09 -1.27327E-09 -1.36860E-09 -1.46207E-09 -1.55367E-09 -1.64337E-09 -1.73113E-09 -1.81693E-09 -1.90075E-09 -1.98255E-09
  -2.06231E-09 -2.14003E-09 -2.21566E-09 -2.28917E-09 -2.36057E-09 -2.42983E-09 -2.49693E-09 -2.56183E-09 -2.62456E-09 -2.68508E-09
  -2.74339E-09 -2.79945E-09 -2.85327E-09 -2.90484E-09 -2.95416E-09 -3.00121E-09 -3.04597E-09 -3.08846E-09 -3.12867E-09 -3.16660E-09
  -3.20223E-09 -3.23557E-09 -3.26662E-09 -3.29540E-09 -3.32191E-09 -3.34611E-09 -3.36806E-09 -3.38774E-09 -3.40516E-09 -3.42033E-09
  -3.43326E-09 -3.44396E-09 -3.45244E-09 -3.45872E-09 -3.46281E-09 -3.46472E-09 -3.46448E-09 -3.46211E-09 -3.45761E-09 -3.45101E-09
  -3.44233E-09 -3.43159E-09 -3.41882E-09 -3.40406E-09 -3.38734E-09 -3.36872E-09 -3.34823E-09 -3.32593E-09 -3.30185E-09 -3.27605E-09
  -3.24856E-09 -3.21943E-09 -3.18870E-09 -3.15642E-09 -3.12263E-09 -3.08738E-09 -3.05070E-09 -3.01265E-09 -2.97325E-09 -2.93256E-09
  -2.89062E-09 -2.84746E-09 -2.80313E-09 -2.75767E-09 -2.71112E-09 -2.66351E-09 -2.61489E-09 -2.56529E-09 -2.51476E-09 -2.46332E-09
  -2.41102E-09 -2.35789E-09 -2.30396E-09 -2.24928E-09 -2.19387E-09 -2.13776E-09 -2.08100E-09 -2.02361E-09 -1.96562E-09 -1.90707E-09
  -1.84797E-09 -1.78837E-09 -1.72829E-09 -1.66775E-09 -1.60679E-09 -1.54542E-09 -1.48368E-09 -1.42158E-09 -1.35914E-09 -1.29640E-09
  -1.23337E-09 -1.17007E-09 -1.10652E-09 -1.04274E-09 -9.78745E-10 -9.14552E-10 -8.50175E-10 -7.85631E-10 -7.20932E-10 -6.56090E-10
  -5.91117E-10 -5.26024E-10 -4.60820E-10 -3.95513E-10 -3.30111E-10 -2.64620E-10 -1.99047E-10 -1.33400E-10 -6.76857E-11 -1.91103E-12
   6.39164E-11  1.29789E-10  1.95700E-10  2.61642E-10  3.27606E-10  3.93585E-10  4.59572E-10  5.25559E-10  5.91537E-10  6.57501E-10
   7.23440E-10  7.89346E-10  8.55214E-10  9.21034E-10  9.86798E-10  1.05250E-09  1.11812E-09  1.18367E-09  1.24912E-09  1.31448E-09
   1.37973E-09  1.44488E-09  1.50989E-09  1.57477E-09  1.63952E-09  1.70411E-09  1.76855E-09  1.83282E-09  1.89692E-09  1.96083E-09
   2.02455E-09  2.08807E-09  2.15138E-09  2.21447E-09  2.27733E-09  2.33996E-09  2.40234E-09  2.46446E-09  2.52633E-09  2.58791E-09
   2.64922E-09  2.71024E-09  2.77096E-09  2.83137E-09  2.89145E-09  2.95122E-09  3.01065E-09  3.06973E-09  3.12846E-09  3.18684E-09
   3.24483E-09  3.30245E-09  3.35967E-09
 Glc      Conc. = 3.83E-10
  -2.84628E-09 -2.53744E-09 -2.23312E-09 -1.89764E-09 -1.54632E-09 -1.18360E-09 -8.51101E-10 -5.49208E-10 -3.07450E-10 -1.63596E-10
  -4.08026E-11  7.67597E-11  1.86942E-10  3.19050E-10  5.13630E-10  7.67390E-10  1.06154E-09  1.39129E-09  1.72458E-09  2.05182E-09
   2.40812E-09  2.78487E-09  3.15190E-09  3.48331E-09  3.70918E-09  3.79843E-09  3.84677E-09  3.92362E-09  4.03742E-09  4.17733E-09
   4.31187E-09  4.43572E-09  4.56883E-09  4.69505E-09  4.79734E-09  4.89959E-09  5.00819E-09  5.10575E-09  5.19421E-09  5.28604E-09
   5.38092E-09  5.47722E-09  5.57418E-09  5.67116E-09  5.76769E-09  5.86348E-09  5.95825E-09  6.05179E-09  6.14396E-09  6.23461E-09
   6.32362E-09  6.41088E-09  6.49636E-09  6.57997E-09  6.66164E-09  6.74133E-09  6.81901E-09  6.89467E-09  6.96824E-09  7.03976E-09
   7.10914E-09  7.17639E-09  7.24150E-09  7.30444E-09  7.36520E-09  7.42375E-09  7.48008E-09  7.53418E-09  7.58602E-09  7.63559E-09
   7.68289E-09  7.72789E-09  7.77059E-09  7.81097E-09  7.84903E-09  7.88476E-09  7.91812E-09  7.94916E-09  7.97779E-09  8.00409E-09
   8.02798E-09  8.04947E-09  8.06856E-09  8.08525E-09  8.09954E-09  8.11137E-09  8.12080E-09  8.12777E-09  8.13230E-09  8.13437E-09
   8.13397E-09  8.13114E-09  8.12582E-09  8.11802E-09  8.10773E-09  8.09495E-09  8.07968E-09  8.06189E-09  8.04161E-09  8.01883E-09
   7.99352E-09  7.96570E-09  7.93535E-09  7.90247E-09  7.86707E-09  7.82914E-09  7.78865E-09  7.74565E-09  7.70013E-09  7.65204E-09
   7.60143E-09  7.54824E-09  7.49255E-09  7.43427E-09  7.37349E-09  7.31016E-09  7.24430E-09  7.17591E-09  7.10498E-09  7.03160E-09
   6.95557E-09  6.87706E-09  6.79605E-09  6.71261E-09  6.62676E-09  6.53857E-09  6.44807E-09  6.35535E-09  6.26045E-09  6.16342E-09
   6.06434E-09  5.96326E-09  5.86022E-09  5.75533E-09  5.64861E-09  5.54015E-09  5.42999E-09  5.31821E-09  5.20491E-09  5.09010E-09
   4.97390E-09  4.85635E-09  4.73753E-09  4.61755E-09  4.49641E-09  4.37421E-09  4.25105E-09  4.12702E-09  4.00214E-09  3.87655E-09
   3.75033E-09  3.62351E-09  3.49622E-09  3.36859E-09  3.24065E-09  3.11253E-09  2.98440E-09  2.85635E-09  2.72853E-09  2.60121E-09
   2.47458E-09  2.34910E-09  2.22535E-09  2.10444E-09  1.98867E-09  1.88442E-09  1.81855E-09  1.85041E-09  1.88042E-09  1.86447E-09
   1.80707E-09  1.72901E-09  1.64673E-09  1.56138E-09  1.45084E-09  1.27172E-09  9.80181E-10  5.88077E-10  2.27024E-10  6.08983E-11
  -6.77298E-11 -1.86349E-10 -3.00532E-10 -4.11963E-10 -5.21288E-10 -6.28745E-10 -7.34434E-10 -8.38399E-10 -9.40635E-10 -1.04112E-09
  -1.13986E-09 -1.23680E-09 -1.33192E-09 -1.42519E-09 -1.51658E-09 -1.60607E-09 -1.69362E-09 -1.77921E-09 -1.86281E-09 -1.94439E-09
  -2.02393E-09 -2.10142E-09 -2.17683E-09 -2.25013E-09 -2.32132E-09 -2.39036E-09 -2.45725E-09 -2.52194E-09 -2.58446E-09 -2.64478E-09
  -2.70288E-09 -2.75875E-09 -2.81238E-09 -2.86375E-09 -2.91289E-09 -2.95975E-09 -3.00434E-09 -3.04665E-09 -3.08670E-09 -3.12446E-09
  -3.15993E-09 -3.19311E-09 -3.22402E-09 -3.25265E-09 -3.27901E-09 -3.30308E-09 -3.32489E-09 -3.34445E-09 -3.36174E-09 -3.37678E-09
