 LCModel (Version 6.3-1R) Copyright: S.W. Provencher.          Ref.: Magn. Reson. Med. 30:672-679 (1993).                
 onepulse 12x17_ftSpec_smooth_lcm
 26 lines in following concentration table = NCONC+1
    Conc.  %SD /Cr+PCr  Metabolite                                         
 1.42E-10 262%   1.261 Ala                                                 
 1.71E-09  53%  15.210 Asp                                                 
 1.12E-10 327%   1.000 Cr                                                  
 2.54E-09  28%  22.650 GABA                                                
 1.93E-09  36%  17.225 Glc                                                 
    0.000 999%   0.000 Gln                                                 
    0.000 999%   0.000 Glu                                                 
    0.000 999%   0.000 Glyc                                                
 1.75E-10  59%   1.555 GPC                                                 
    0.000 999%   0.000 GSH                                                 
 6.00E-10  85%   5.347 Ins                                                 
    0.000 999%   0.000 Lac                                                 
    0.000 999%   0.000 NAAG                                                
 7.72E-10  35%   6.874 NAA                                                 
    0.000 999%   0.000 PCh                                                 
    0.000 999%   0.000 PCr                                                 
    0.000 999%   0.000 PE                                                  
    0.000 999%   0.000 Scyllo                                              
 4.12E-10 293%   3.673 Ser                                                 
    0.000 999%   0.000 Tau                                                 
 1.75E-10  59%   1.555 GPC+PCh                                             
 7.72E-10  35%   6.874 NAA+NAAG                                            
 6.00E-10  85%   5.347 Ins+Glyc                                            
 1.12E-10 327%   1.000 Cr+PCr                                              
    0.000 999%   0.000 Glu+Gln                                             
   6 lines in following misc. output table
  FWHM = 0.101 ppm    S/N =   2                                            
  Data shift = 0.358 ppm                                                   
  Ph:  65 deg       1.5 deg/ppm                                            
  alphaB,S = 6.4E-01,   2.2E+01                                            
    8 spline knots.   Ns = 5(1)                                            
  (12) 5 infls.   ( 7) 1 extrs.                                            
  363 points on ppm-axis = NY
      4.250000     4.238821     4.227641     4.216462     4.205282     4.194103     4.182923     4.171744     4.160564     4.149385
      4.138206     4.127026     4.115847     4.104667     4.093488     4.082308     4.071129     4.059949     4.048770     4.037591
      4.026411     4.015232     4.004052     3.992873     3.981693     3.970514     3.959334     3.948155     3.936975     3.925796
      3.914617     3.903437     3.892258     3.881078     3.869899     3.858719     3.847540     3.836360     3.825181     3.814002
      3.802822     3.791643     3.780463     3.769284     3.758104     3.746925     3.735745     3.724566     3.713387     3.702207
      3.691028     3.679848     3.668669     3.657489     3.646310     3.635130     3.623951     3.612772     3.601592     3.590413
      3.579233     3.568054     3.556874     3.545695     3.534515     3.523336     3.512156     3.500977     3.489798     3.478618
      3.467439     3.456259     3.445080     3.433900     3.422721     3.411541     3.400362     3.389183     3.378003     3.366824
      3.355644     3.344465     3.333285     3.322106     3.310926     3.299747     3.288568     3.277388     3.266209     3.255029
      3.243850     3.232670     3.221491     3.210311     3.199132     3.187953     3.176773     3.165594     3.154414     3.143235
      3.132055     3.120876     3.109696     3.098517     3.087337     3.076158     3.064979     3.053799     3.042620     3.031440
      3.020261     3.009081     2.997902     2.986722     2.975543     2.964364     2.953184     2.942005     2.930825     2.919646
      2.908466     2.897287     2.886107     2.874928     2.863749     2.852569     2.841390     2.830210     2.819031     2.807851
      2.796672     2.785492     2.774313     2.763134     2.751954     2.740775     2.729595     2.718416     2.707236     2.696057
      2.684877     2.673698     2.662519     2.651339     2.640160     2.628980     2.617801     2.606621     2.595442     2.584262
      2.573083     2.561903     2.550724     2.539545     2.528365     2.517186     2.506006     2.494827     2.483647     2.472468
      2.461288     2.450109     2.438930     2.427750     2.416571     2.405391     2.394212     2.383032     2.371853     2.360673
      2.349494     2.338315     2.327135     2.315956     2.304776     2.293597     2.282417     2.271238     2.260058     2.248879
      2.237700     2.226520     2.215341     2.204161     2.192982     2.181802     2.170623     2.159443     2.148264     2.137084
      2.125905     2.114726     2.103546     2.092367     2.081187     2.070008     2.058828     2.047649     2.036469     2.025290
      2.014111     2.002931     1.991752     1.980572     1.969393     1.958213     1.947034     1.935854     1.924675     1.913496
      1.902316     1.891137     1.879957     1.868778     1.857598     1.846419     1.835239     1.824060     1.812881     1.801701
      1.790522     1.779342     1.768163     1.756983     1.745804     1.734624     1.723445     1.712265     1.701086     1.689907
      1.678727     1.667548     1.656368     1.645189     1.634009     1.622830     1.611650     1.600471     1.589292     1.578112
      1.566933     1.555753     1.544574     1.533394     1.522215     1.511035     1.499856     1.488677     1.477497     1.466318
      1.455138     1.443959     1.432779     1.421600     1.410420     1.399241     1.388062     1.376882     1.365703     1.354523
      1.343344     1.332164     1.320985     1.309805     1.298626     1.287446     1.276267     1.265088     1.253908     1.242729
      1.231549     1.220370     1.209190     1.198011     1.186831     1.175652     1.164473     1.153293     1.142114     1.130934
      1.119755     1.108575     1.097396     1.086216     1.075037     1.063858     1.052678     1.041499     1.030319     1.019140
      1.007960     0.996781     0.985601     0.974422     0.963243     0.952063     0.940884     0.929704     0.918525     0.907345
      0.896166     0.884986     0.873807     0.862628     0.851448     0.840269     0.829089     0.817910     0.806730     0.795551
      0.784371     0.773192     0.762012     0.750833     0.739654     0.728474     0.717295     0.706115     0.694936     0.683756
      0.672577     0.661397     0.650218     0.639039     0.627859     0.616680     0.605500     0.594321     0.583141     0.571962
      0.560782     0.549603     0.538424     0.527244     0.516065     0.504885     0.493706     0.482526     0.471347     0.460167
      0.448988     0.437809     0.426629     0.415450     0.404270     0.393091     0.381911     0.370732     0.359552     0.348373
      0.337193     0.326014     0.314835     0.303655     0.292476     0.281296     0.270117     0.258937     0.247758     0.236578
      0.225399     0.214220     0.203040
 NY phased data points follow
   1.27077E-08  1.62417E-08  1.52014E-08  1.69901E-08  1.46518E-08  1.62872E-08  1.41701E-08  1.52678E-08  1.33769E-08  1.51736E-08
   1.25896E-08  1.49397E-08  1.30882E-08  1.50160E-08  1.32999E-08  1.47859E-08  1.33480E-08  1.53977E-08  1.41129E-08  1.49441E-08
   1.32862E-08  1.47114E-08  1.28319E-08  1.42261E-08  1.25716E-08  1.45767E-08  1.29458E-08  1.42720E-08  1.25578E-08  1.35710E-08
   1.27790E-08  1.41656E-08  1.39791E-08  1.52257E-08  1.45970E-08  1.59560E-08  1.45584E-08  1.57492E-08  1.32370E-08  1.48923E-08
   1.29377E-08  1.43264E-08  1.23974E-08  1.34573E-08  1.23733E-08  1.33131E-08  1.17208E-08  1.25704E-08  1.08565E-08  1.17408E-08
   1.06086E-08  1.12390E-08  1.02261E-08  1.11859E-08  9.68128E-09  1.03989E-08  9.48325E-09  9.57575E-09  8.62144E-09  9.27285E-09
   7.65395E-09  9.82910E-09  8.63463E-09  1.18020E-08  1.12750E-08  1.35319E-08  1.22323E-08  1.30820E-08  1.21738E-08  1.28615E-08
   1.06909E-08  1.17809E-08  1.00100E-08  1.05651E-08  9.11974E-09  9.17402E-09  7.90134E-09  8.82928E-09  8.76586E-09  1.11419E-08
   1.12662E-08  1.44169E-08  1.41377E-08  1.58063E-08  1.40069E-08  1.54353E-08  1.42628E-08  1.57728E-08  1.37005E-08  1.47671E-08
   1.36035E-08  1.48465E-08  1.33799E-08  1.42456E-08  1.24673E-08  1.29209E-08  1.22525E-08  1.22139E-08  1.16293E-08  1.16470E-08
   1.00533E-08  1.15106E-08  1.00151E-08  1.09142E-08  1.05460E-08  1.02804E-08  9.36225E-09  1.01929E-08  8.46547E-09  8.96888E-09
   8.15029E-09  8.28703E-09  7.52182E-09  8.13460E-09  7.10169E-09  8.31828E-09  7.54044E-09  8.29569E-09  6.97383E-09  8.69063E-09
   7.69232E-09  8.26501E-09  7.18272E-09  8.04541E-09  6.52134E-09  6.86035E-09  5.60379E-09  6.99143E-09  5.57248E-09  6.79366E-09
   6.11239E-09  6.50917E-09  5.84530E-09  6.73549E-09  6.40825E-09  7.10069E-09  6.31308E-09  7.07543E-09  6.35036E-09  7.67624E-09
   7.43515E-09  8.80807E-09  7.99356E-09  9.27287E-09  8.03428E-09  9.68806E-09  9.43114E-09  1.03054E-08  9.37414E-09  1.07235E-08
   1.02797E-08  1.04641E-08  9.60008E-09  1.04394E-08  9.93609E-09  1.04070E-08  9.15827E-09  1.04623E-08  9.35314E-09  1.05889E-08
   9.47106E-09  1.04893E-08  9.00720E-09  1.03761E-08  9.35897E-09  9.77572E-09  8.84172E-09  1.02899E-08  9.88433E-09  1.19838E-08
   1.29372E-08  1.59038E-08  1.71386E-08  1.85038E-08  1.70063E-08  1.75677E-08  1.63537E-08  1.61625E-08  1.41495E-08  1.37682E-08
   1.23610E-08  1.15434E-08  9.80814E-09  8.51571E-09  6.45795E-09  5.25733E-09  1.86923E-09  1.47207E-09 -1.99475E-09 -3.54200E-09
  -6.71036E-09 -8.09537E-09 -1.08010E-08 -1.25986E-08 -1.43759E-08 -1.52096E-08 -1.71424E-08 -1.74783E-08 -1.86141E-08 -1.82376E-08
  -1.81767E-08 -1.62206E-08 -1.64382E-08 -1.45729E-08 -1.35927E-08 -1.14415E-08 -1.07928E-08 -8.78558E-09 -8.54693E-09 -6.93016E-09
  -6.35309E-09 -5.43511E-09 -5.05794E-09 -4.66344E-09 -5.16345E-09 -4.88603E-09 -4.94988E-09 -4.11298E-09 -4.30221E-09 -4.64790E-09
  -4.41316E-09 -3.30542E-09 -4.06527E-09 -3.21241E-09 -3.88602E-09 -3.46087E-09 -3.29335E-09 -3.46411E-09 -3.76542E-09 -3.60908E-09
  -3.38278E-09 -3.97268E-09 -3.18653E-09 -3.22874E-09 -2.93072E-09 -2.71695E-09 -2.93361E-09 -2.90794E-09 -3.18784E-09 -3.07239E-09
  -3.66175E-09 -3.22715E-09 -3.44595E-09 -3.58350E-09 -3.06101E-09 -2.90861E-09 -3.17878E-09 -2.80481E-09 -2.51109E-09 -2.56492E-09
  -2.60668E-09 -2.26830E-09 -2.49153E-09 -2.46590E-09 -1.98278E-09 -2.70652E-09 -2.72162E-09 -2.41099E-09 -2.88061E-09 -3.43702E-09
  -3.47813E-09 -3.39311E-09 -3.69225E-09 -3.57073E-09 -3.62526E-09 -3.18234E-09 -3.38606E-09 -3.46763E-09 -2.96487E-09 -2.66001E-09
  -2.53973E-09 -2.67614E-09 -2.22340E-09 -2.65715E-09 -1.72904E-09 -1.83788E-09 -1.25901E-09 -1.45613E-09 -1.63630E-09 -2.40214E-09
  -1.64132E-09 -1.96970E-09 -1.91248E-09 -2.37835E-09 -2.15646E-09 -2.97471E-09 -2.10345E-09 -2.95614E-09 -2.68091E-09 -2.88565E-09
  -2.92025E-09 -3.32837E-09 -2.62658E-09 -3.22675E-09 -2.84487E-09 -3.19069E-09 -3.21777E-09 -3.69677E-09 -3.48626E-09 -3.70323E-09
  -3.53737E-09 -4.06310E-09 -3.82824E-09 -3.63629E-09 -3.82155E-09 -3.65970E-09 -4.00120E-09 -4.13323E-09 -3.89564E-09 -4.17610E-09
  -3.56434E-09 -3.81869E-09 -4.31050E-09 -4.06238E-09 -4.49488E-09 -3.83368E-09 -3.86014E-09 -4.55693E-09 -3.96652E-09 -4.31827E-09
  -4.45691E-09 -4.42699E-09 -3.78951E-09 -4.21090E-09 -4.12969E-09 -4.14993E-09 -3.63091E-09 -3.90618E-09 -4.38199E-09 -3.98516E-09
  -4.13907E-09 -4.06688E-09 -3.91337E-09 -3.72096E-09 -4.37175E-09 -4.37569E-09 -4.05421E-09 -3.86582E-09 -4.10682E-09 -3.90139E-09
  -3.75640E-09 -3.74501E-09 -4.09029E-09 -4.21605E-09 -3.64923E-09 -3.69764E-09 -3.62876E-09 -3.71032E-09 -3.83281E-09 -3.30113E-09
  -3.51240E-09 -3.09301E-09 -3.95070E-09 -3.42633E-09 -3.35947E-09 -3.15424E-09 -3.69746E-09 -3.46682E-09 -3.69735E-09 -2.69934E-09
  -3.43048E-09 -2.52073E-09 -3.18855E-09
 NY points of the fit to the data follow
   1.58001E-08  1.55713E-08  1.51465E-08  1.49659E-08  1.49661E-08  1.48121E-08  1.43445E-08  1.38840E-08  1.35674E-08  1.32526E-08
   1.32183E-08  1.32985E-08  1.35220E-08  1.40758E-08  1.46108E-08  1.48360E-08  1.50491E-08  1.53915E-08  1.52890E-08  1.48024E-08
   1.45605E-08  1.44616E-08  1.42364E-08  1.41725E-08  1.37364E-08  1.29519E-08  1.26285E-08  1.27831E-08  1.31866E-08  1.37888E-08
   1.41796E-08  1.44115E-08  1.49218E-08  1.49473E-08  1.40652E-08  1.39255E-08  1.43801E-08  1.47231E-08  1.47918E-08  1.45206E-08
   1.40692E-08  1.38571E-08  1.31340E-08  1.18017E-08  1.14177E-08  1.15596E-08  1.10699E-08  1.06654E-08  1.06806E-08  1.08451E-08
   1.11452E-08  1.14289E-08  1.16005E-08  1.14422E-08  1.09475E-08  1.04726E-08  1.00853E-08  1.02562E-08  1.03428E-08  1.01294E-08
   1.00548E-08  1.01832E-08  1.05574E-08  1.08831E-08  1.15195E-08  1.24519E-08  1.29166E-08  1.31350E-08  1.34726E-08  1.37624E-08
   1.39019E-08  1.36401E-08  1.29521E-08  1.22736E-08  1.20214E-08  1.10871E-08  1.01438E-08  1.09071E-08  1.15186E-08  1.17458E-08
   1.22944E-08  1.28456E-08  1.33271E-08  1.39857E-08  1.44782E-08  1.47836E-08  1.48731E-08  1.40940E-08  1.25210E-08  1.21664E-08
   1.20664E-08  1.20673E-08  1.22876E-08  1.20136E-08  1.13975E-08  1.13823E-08  1.11569E-08  1.04967E-08  1.02240E-08  1.00712E-08
   9.85797E-09  9.70397E-09  9.61109E-09  9.60357E-09  9.61270E-09  9.61171E-09  9.60626E-09  9.60141E-09  9.57933E-09  9.50296E-09
   9.35739E-09  9.20877E-09  9.16588E-09  9.04639E-09  8.86191E-09  8.77372E-09  8.71402E-09  8.66403E-09  8.61782E-09  8.57289E-09
   8.52789E-09  8.48217E-09  8.43516E-09  8.38650E-09  8.33591E-09  8.28320E-09  8.22814E-09  8.17062E-09  8.11050E-09  8.04767E-09
   7.98202E-09  7.91344E-09  7.84187E-09  7.76722E-09  7.68941E-09  7.60835E-09  7.52402E-09  7.43629E-09  7.34514E-09  7.25049E-09
   7.15231E-09  7.05056E-09  6.94519E-09  6.83614E-09  6.72339E-09  6.60692E-09  6.48678E-09  6.36314E-09  6.23622E-09  6.10623E-09
   5.97342E-09  5.83807E-09  5.70050E-09  5.56110E-09  5.42031E-09  5.27872E-09  5.13704E-09  4.99622E-09  4.85761E-09  4.72309E-09
   4.59553E-09  4.47961E-09  4.38339E-09  4.32248E-09  4.33191E-09  4.51107E-09  5.27957E-09  8.20817E-09  1.08868E-08  1.29270E-08
   1.47339E-08  1.64835E-08  1.77319E-08  1.84164E-08  1.87411E-08  1.87711E-08  1.72207E-08  1.23962E-08  5.19444E-09  2.64459E-09
   1.71719E-09  1.19388E-09  8.21858E-10  5.21538E-10  2.60559E-10  2.35217E-11 -1.97729E-10 -4.07841E-10 -6.09688E-10 -8.05014E-10
  -9.94953E-10 -1.18030E-09 -1.36152E-09 -1.53896E-09 -1.71281E-09 -1.88322E-09 -2.05026E-09 -2.21391E-09 -2.37419E-09 -2.53108E-09
  -2.68451E-09 -2.83440E-09 -2.98069E-09 -3.12327E-09 -3.26207E-09 -3.39696E-09 -3.52784E-09 -3.65461E-09 -3.77716E-09 -3.89533E-09
  -4.00906E-09 -4.11819E-09 -4.22259E-09 -4.32217E-09 -4.41680E-09 -4.50632E-09 -4.59062E-09 -4.66960E-09 -4.74310E-09 -4.81121E-09
  -4.87401E-09 -4.93167E-09 -4.98425E-09 -5.03191E-09 -5.07472E-09 -5.11284E-09 -5.14636E-09 -5.17539E-09 -5.20006E-09 -5.22048E-09
  -5.23677E-09 -5.24903E-09 -5.25738E-09 -5.26194E-09 -5.26282E-09 -5.26013E-09 -5.25400E-09 -5.24452E-09 -5.23182E-09 -5.21600E-09
  -5.19718E-09 -5.17549E-09 -5.15103E-09 -5.12390E-09 -5.09422E-09 -5.06212E-09 -5.02770E-09 -4.99108E-09 -4.95237E-09 -4.91167E-09
  -4.86913E-09 -4.82480E-09 -4.77889E-09 -4.73140E-09 -4.68250E-09 -4.63234E-09 -4.58098E-09 -4.52853E-09 -4.47514E-09 -4.42088E-09
  -4.36590E-09 -4.31031E-09 -4.25421E-09 -4.19772E-09 -4.14094E-09 -4.08399E-09 -4.02701E-09 -3.97006E-09 -3.91329E-09 -3.85681E-09
  -3.80072E-09 -3.74514E-09 -3.69020E-09 -3.63597E-09 -3.58262E-09 -3.53020E-09 -3.47888E-09 -3.42875E-09 -3.37990E-09 -3.33247E-09
  -3.28659E-09 -3.24233E-09 -3.19985E-09 -3.15921E-09 -3.12056E-09 -3.08400E-09 -3.04967E-09 -3.01760E-09 -2.98801E-09 -2.96095E-09
  -2.93653E-09 -2.91482E-09 -2.89574E-09 -2.87922E-09 -2.86520E-09 -2.85362E-09 -2.84438E-09 -2.83744E-09 -2.83273E-09 -2.83017E-09
  -2.82971E-09 -2.83127E-09 -2.83479E-09 -2.84020E-09 -2.84743E-09 -2.85640E-09 -2.86708E-09 -2.87937E-09 -2.89321E-09 -2.90853E-09
  -2.92528E-09 -2.94336E-09 -2.96274E-09 -2.98332E-09 -3.00506E-09 -3.02787E-09 -3.05170E-09 -3.07647E-09 -3.10212E-09 -3.12858E-09
  -3.15578E-09 -3.18364E-09 -3.21213E-09 -3.24115E-09 -3.27064E-09 -3.30052E-09 -3.33077E-09 -3.36127E-09 -3.39199E-09 -3.42282E-09
  -3.45374E-09 -3.48466E-09 -3.51549E-09 -3.54619E-09 -3.57671E-09 -3.60694E-09 -3.63685E-09 -3.66634E-09 -3.69538E-09 -3.72384E-09
  -3.75173E-09 -3.77892E-09 -3.80539E-09 -3.83104E-09 -3.85578E-09 -3.87963E-09 -3.90243E-09 -3.92418E-09 -3.94476E-09 -3.96414E-09
  -3.98224E-09 -3.99898E-09 -4.01431E-09 -4.02814E-09 -4.04044E-09 -4.05109E-09 -4.06010E-09 -4.06732E-09 -4.07272E-09 -4.07625E-09
  -4.07780E-09 -4.07733E-09 -4.07480E-09
 NY background values follow
     4.824E-09    4.852E-09    4.880E-09    4.909E-09    4.938E-09    4.966E-09    4.995E-09    5.024E-09    5.053E-09    5.083E-09
     5.112E-09    5.141E-09    5.171E-09    5.200E-09    5.230E-09    5.260E-09    5.290E-09    5.320E-09    5.350E-09    5.380E-09
     5.410E-09    5.440E-09    5.471E-09    5.501E-09    5.532E-09    5.563E-09    5.593E-09    5.624E-09    5.655E-09    5.686E-09
     5.717E-09    5.748E-09    5.779E-09    5.810E-09    5.842E-09    5.873E-09    5.905E-09    5.936E-09    5.968E-09    5.999E-09
     6.031E-09    6.063E-09    6.095E-09    6.127E-09    6.158E-09    6.190E-09    6.223E-09    6.255E-09    6.287E-09    6.319E-09
     6.351E-09    6.384E-09    6.416E-09    6.448E-09    6.481E-09    6.513E-09    6.546E-09    6.578E-09    6.611E-09    6.644E-09
     6.676E-09    6.709E-09    6.742E-09    6.775E-09    6.808E-09    6.840E-09    6.873E-09    6.906E-09    6.939E-09    6.972E-09
     7.005E-09    7.038E-09    7.071E-09    7.104E-09    7.137E-09    7.170E-09    7.203E-09    7.236E-09    7.268E-09    7.300E-09
     7.332E-09    7.364E-09    7.394E-09    7.425E-09    7.454E-09    7.483E-09    7.512E-09    7.539E-09    7.566E-09    7.592E-09
     7.617E-09    7.641E-09    7.663E-09    7.685E-09    7.706E-09    7.725E-09    7.743E-09    7.759E-09    7.775E-09    7.788E-09
     7.800E-09    7.811E-09    7.820E-09    7.827E-09    7.833E-09    7.836E-09    7.838E-09    7.838E-09    7.836E-09    7.831E-09
     7.825E-09    7.816E-09    7.805E-09    7.792E-09    7.777E-09    7.759E-09    7.739E-09    7.716E-09    7.690E-09    7.662E-09
     7.631E-09    7.598E-09    7.561E-09    7.522E-09    7.480E-09    7.434E-09    7.386E-09    7.335E-09    7.280E-09    7.222E-09
     7.161E-09    7.097E-09    7.029E-09    6.957E-09    6.883E-09    6.804E-09    6.722E-09    6.636E-09    6.547E-09    6.453E-09
     6.356E-09    6.255E-09    6.150E-09    6.040E-09    5.927E-09    5.810E-09    5.688E-09    5.562E-09    5.432E-09    5.299E-09
     5.162E-09    5.021E-09    4.877E-09    4.730E-09    4.580E-09    4.426E-09    4.270E-09    4.111E-09    3.949E-09    3.785E-09
     3.619E-09    3.451E-09    3.280E-09    3.108E-09    2.933E-09    2.757E-09    2.580E-09    2.401E-09    2.221E-09    2.040E-09
     1.858E-09    1.675E-09    1.491E-09    1.307E-09    1.122E-09    9.367E-10    7.514E-10    5.660E-10    3.808E-10    1.957E-10
     1.103E-11   -1.732E-10   -3.568E-10   -5.396E-10   -7.216E-10   -9.025E-10   -1.082E-09   -1.261E-09   -1.438E-09   -1.613E-09
    -1.787E-09   -1.959E-09   -2.129E-09   -2.297E-09   -2.463E-09   -2.627E-09   -2.788E-09   -2.946E-09   -3.102E-09   -3.254E-09
    -3.404E-09   -3.550E-09   -3.694E-09   -3.834E-09   -3.970E-09   -4.102E-09   -4.231E-09   -4.356E-09   -4.477E-09   -4.593E-09
    -4.705E-09   -4.813E-09   -4.916E-09   -5.014E-09   -5.108E-09   -5.196E-09   -5.279E-09   -5.357E-09   -5.430E-09   -5.497E-09
    -5.559E-09   -5.616E-09   -5.667E-09   -5.714E-09   -5.756E-09   -5.794E-09   -5.826E-09   -5.855E-09   -5.879E-09   -5.899E-09
    -5.914E-09   -5.926E-09   -5.934E-09   -5.938E-09   -5.938E-09   -5.935E-09   -5.928E-09   -5.918E-09   -5.905E-09   -5.889E-09
    -5.869E-09   -5.847E-09   -5.822E-09   -5.795E-09   -5.765E-09   -5.732E-09   -5.697E-09   -5.660E-09   -5.621E-09   -5.580E-09
    -5.537E-09   -5.492E-09   -5.446E-09   -5.398E-09   -5.349E-09   -5.299E-09   -5.247E-09   -5.194E-09   -5.140E-09   -5.086E-09
    -5.030E-09   -4.974E-09   -4.918E-09   -4.861E-09   -4.804E-09   -4.747E-09   -4.689E-09   -4.632E-09   -4.575E-09   -4.518E-09
    -4.462E-09   -4.406E-09   -4.351E-09   -4.296E-09   -4.243E-09   -4.190E-09   -4.138E-09   -4.088E-09   -4.039E-09   -3.991E-09
    -3.945E-09   -3.900E-09   -3.857E-09   -3.817E-09   -3.778E-09   -3.741E-09   -3.706E-09   -3.674E-09   -3.644E-09   -3.617E-09
    -3.592E-09   -3.570E-09   -3.550E-09   -3.534E-09   -3.519E-09   -3.508E-09   -3.498E-09   -3.491E-09   -3.486E-09   -3.483E-09
    -3.482E-09   -3.484E-09   -3.487E-09   -3.492E-09   -3.499E-09   -3.508E-09   -3.518E-09   -3.530E-09   -3.544E-09   -3.559E-09
    -3.575E-09   -3.593E-09   -3.612E-09   -3.632E-09   -3.654E-09   -3.676E-09   -3.700E-09   -3.724E-09   -3.750E-09   -3.776E-09
    -3.803E-09   -3.830E-09   -3.858E-09   -3.887E-09   -3.916E-09   -3.946E-09   -3.976E-09   -4.006E-09   -4.037E-09   -4.067E-09
    -4.098E-09   -4.128E-09   -4.159E-09   -4.189E-09   -4.220E-09   -4.250E-09   -4.279E-09   -4.308E-09   -4.337E-09   -4.365E-09
    -4.393E-09   -4.420E-09   -4.446E-09   -4.471E-09   -4.496E-09   -4.519E-09   -4.542E-09   -4.563E-09   -4.583E-09   -4.603E-09
    -4.620E-09   -4.637E-09   -4.652E-09   -4.665E-09   -4.677E-09   -4.688E-09   -4.696E-09   -4.703E-09   -4.708E-09   -4.712E-09
    -4.713E-09   -4.712E-09   -4.709E-09
 Ala      Conc. = 1.42E-10
   4.91863E-09  4.95822E-09  4.99350E-09  5.02706E-09  5.05885E-09  5.09064E-09  5.11806E-09  5.13029E-09  5.14880E-09  5.18000E-09
   5.19025E-09  5.19933E-09  5.22497E-09  5.24581E-09  5.26496E-09  5.28860E-09  5.31449E-09  5.34168E-09  5.36969E-09  5.39827E-09
   5.42728E-09  5.45661E-09  5.48620E-09  5.51602E-09  5.54602E-09  5.57619E-09  5.60650E-09  5.63695E-09  5.66753E-09  5.69821E-09
   5.72901E-09  5.75991E-09  5.79089E-09  5.82198E-09  5.85314E-09  5.88440E-09  5.91574E-09  5.94714E-09  5.97864E-09  6.01019E-09
   6.04183E-09  6.07353E-09  6.10530E-09  6.13713E-09  6.16902E-09  6.20098E-09  6.23300E-09  6.26508E-09  6.29721E-09  6.32941E-09
   6.36165E-09  6.39395E-09  6.42630E-09  6.45870E-09  6.49115E-09  6.52365E-09  6.55619E-09  6.58879E-09  6.62142E-09  6.65410E-09
   6.68683E-09  6.71958E-09  6.75239E-09  6.78523E-09  6.81812E-09  6.85104E-09  6.88399E-09  6.91698E-09  6.95001E-09  6.98308E-09
   7.01618E-09  7.04931E-09  7.08248E-09  7.11568E-09  7.14888E-09  7.18202E-09  7.21505E-09  7.24792E-09  7.28056E-09  7.31293E-09
   7.34495E-09  7.37660E-09  7.40780E-09  7.43852E-09  7.46870E-09  7.49830E-09  7.52727E-09  7.55558E-09  7.58319E-09  7.61009E-09
   7.63627E-09  7.66174E-09  7.68654E-09  7.71079E-09  7.73466E-09  7.75850E-09  7.78303E-09  7.80976E-09  7.84260E-09  7.89516E-09
   7.98853E-09  8.05273E-09  8.11191E-09  8.21678E-09  8.31255E-09  8.38084E-09  8.43218E-09  8.47458E-09  8.49221E-09  8.44944E-09
   8.33258E-09  8.20930E-09  8.18886E-09  8.08935E-09  7.92267E-09  7.85022E-09  7.80446E-09  7.76708E-09  7.73232E-09  7.69781E-09
   7.66235E-09  7.62528E-09  7.58616E-09  7.54472E-09  7.50076E-09  7.45410E-09  7.40462E-09  7.35222E-09  7.29679E-09  7.23824E-09
   7.17650E-09  7.11149E-09  7.04315E-09  6.97139E-09  6.89616E-09  6.81737E-09  6.73500E-09  6.64894E-09  6.55916E-09  6.46557E-09
   6.36814E-09  6.26679E-09  6.16147E-09  6.05211E-09  5.93866E-09  5.82105E-09  5.69929E-09  5.57348E-09  5.44376E-09  5.31028E-09
   5.17315E-09  5.03253E-09  4.88853E-09  4.74131E-09  4.59098E-09  4.43771E-09  4.28163E-09  4.12288E-09  3.96163E-09  3.79803E-09
   3.63225E-09  3.46453E-09  3.29511E-09  3.12444E-09  2.95330E-09  2.78390E-09  2.62607E-09  2.50267E-09  2.36936E-09  2.22478E-09
   2.07633E-09  1.92578E-09  1.76533E-09  1.59512E-09  1.41901E-09  1.23617E-09  1.02197E-09  7.50043E-10  4.49209E-10  2.33684E-10
   3.81629E-11 -1.51363E-10 -3.38079E-10 -5.22932E-10 -7.06292E-10 -8.88261E-10 -1.06883E-09 -1.24792E-09 -1.42550E-09 -1.60144E-09
  -1.77561E-09 -1.94794E-09 -2.11826E-09 -2.28648E-09 -2.45243E-09 -2.61602E-09 -2.77712E-09 -2.93557E-09 -3.09125E-09 -3.24404E-09
  -3.39381E-09 -3.54041E-09 -3.68372E-09 -3.82360E-09 -3.95993E-09 -4.09256E-09 -4.22137E-09 -4.34622E-09 -4.46699E-09 -4.58351E-09
  -4.69570E-09 -4.80339E-09 -4.90645E-09 -5.00476E-09 -5.09820E-09 -5.18659E-09 -5.26983E-09 -5.34779E-09 -5.42033E-09 -5.48753E-09
  -5.54946E-09 -5.60628E-09 -5.65806E-09 -5.70495E-09 -5.74702E-09 -5.78443E-09 -5.81727E-09 -5.84565E-09 -5.86968E-09 -5.88948E-09
  -5.90518E-09 -5.91686E-09 -5.92465E-09 -5.92867E-09 -5.92902E-09 -5.92582E-09 -5.91918E-09 -5.90921E-09 -5.89603E-09 -5.87975E-09
  -5.86047E-09 -5.83833E-09 -5.81343E-09 -5.78588E-09 -5.75578E-09 -5.72327E-09 -5.68844E-09 -5.65142E-09 -5.61232E-09 -5.57124E-09
  -5.52832E-09 -5.48362E-09 -5.43734E-09 -5.38949E-09 -5.34023E-09 -5.28972E-09 -5.23800E-09 -5.18522E-09 -5.13148E-09 -5.07689E-09
  -5.02157E-09 -4.96566E-09 -4.90923E-09 -4.85242E-09 -4.79532E-09 -4.73805E-09 -4.68076E-09 -4.62349E-09 -4.56642E-09 -4.50964E-09
  -4.45324E-09 -4.39736E-09 -4.34212E-09 -4.28759E-09 -4.23394E-09 -4.18124E-09 -4.12961E-09 -4.07920E-09 -4.03006E-09 -3.98234E-09
  -3.93617E-09 -3.89163E-09 -3.84886E-09 -3.80794E-09 -3.76900E-09 -3.73217E-09 -3.69755E-09 -3.66521E-09 -3.63533E-09 -3.60800E-09
  -3.58330E-09 -3.56132E-09 -3.54196E-09 -3.52517E-09 -3.51087E-09 -3.49901E-09 -3.48950E-09 -3.48229E-09 -3.47730E-09 -3.47447E-09
  -3.47374E-09 -3.47503E-09 -3.47828E-09 -3.48342E-09 -3.49037E-09 -3.49907E-09 -3.50947E-09 -3.52150E-09 -3.53506E-09 -3.55011E-09
  -3.56658E-09 -3.58439E-09 -3.60350E-09 -3.62381E-09 -3.64527E-09 -3.66781E-09 -3.69137E-09 -3.71586E-09 -3.74123E-09 -3.76741E-09
  -3.79435E-09 -3.82192E-09 -3.85013E-09 -3.87888E-09 -3.90809E-09 -3.93769E-09 -3.96766E-09 -3.99788E-09 -4.02832E-09 -4.05887E-09
  -4.08951E-09 -4.12014E-09 -4.15069E-09 -4.18110E-09 -4.21133E-09 -4.24128E-09 -4.27090E-09 -4.30010E-09 -4.32885E-09 -4.35701E-09
  -4.38461E-09 -4.41150E-09 -4.43768E-09 -4.46304E-09 -4.48748E-09 -4.51103E-09 -4.53353E-09 -4.55498E-09 -4.57526E-09 -4.59433E-09
  -4.61213E-09 -4.62856E-09 -4.64358E-09 -4.65711E-09 -4.66909E-09 -4.67944E-09 -4.68813E-09 -4.69503E-09 -4.70012E-09 -4.70333E-09
  -4.70456E-09 -4.70377E-09 -4.70091E-09
 Asp      Conc. = 1.71E-09
   6.92420E-09  6.70576E-09  6.49867E-09  6.30176E-09  6.15400E-09  5.90691E-09  5.70495E-09  5.46307E-09  5.37280E-09  5.33775E-09
   5.32742E-09  5.33068E-09  5.34330E-09  5.36327E-09  5.38641E-09  5.41075E-09  5.43663E-09  5.46391E-09  5.49239E-09  5.52193E-09
   5.55245E-09  5.58388E-09  5.61621E-09  5.64945E-09  5.68365E-09  5.71890E-09  5.75533E-09  5.79314E-09  5.83257E-09  5.87400E-09
   5.91799E-09  5.96531E-09  6.01723E-09  6.07585E-09  6.14514E-09  6.23399E-09  6.36569E-09  6.50079E-09  6.66391E-09  6.79271E-09
   6.89606E-09  6.99342E-09  7.12635E-09  7.35965E-09  7.62608E-09  8.01865E-09  8.25577E-09  8.35915E-09  8.57826E-09  8.82866E-09
   9.13769E-09  9.40787E-09  9.55625E-09  9.43449E-09  8.99163E-09  8.51531E-09  8.02217E-09  8.05961E-09  8.02704E-09  7.75144E-09
   7.58952E-09  7.52500E-09  7.43471E-09  7.42747E-09  7.51205E-09  7.52518E-09  7.38960E-09  7.32255E-09  7.29303E-09  7.28259E-09
   7.28338E-09  7.29145E-09  7.30459E-09  7.32138E-09  7.34090E-09  7.36246E-09  7.38556E-09  7.40981E-09  7.43491E-09  7.46060E-09
   7.48667E-09  7.51296E-09  7.53930E-09  7.56557E-09  7.59163E-09  7.61739E-09  7.64273E-09  7.66757E-09  7.69180E-09  7.71536E-09
   7.73814E-09  7.76009E-09  7.78111E-09  7.80115E-09  7.82012E-09  7.83795E-09  7.85459E-09  7.86996E-09  7.88399E-09  7.89662E-09
   7.90778E-09  7.91742E-09  7.92546E-09  7.93185E-09  7.93651E-09  7.93939E-09  7.94043E-09  7.93958E-09  7.93675E-09  7.93190E-09
   7.92497E-09  7.91589E-09  7.90459E-09  7.89103E-09  7.87515E-09  7.85687E-09  7.83616E-09  7.81294E-09  7.78714E-09  7.75874E-09
   7.72763E-09  7.69380E-09  7.65715E-09  7.61765E-09  7.57524E-09  7.52984E-09  7.48140E-09  7.42987E-09  7.37520E-09  7.31730E-09
   7.25614E-09  7.19165E-09  7.12378E-09  7.05248E-09  6.97767E-09  6.89929E-09  6.81733E-09  6.73168E-09  6.64232E-09  6.54917E-09
   6.45220E-09  6.35133E-09  6.24653E-09  6.13773E-09  6.02489E-09  5.90795E-09  5.78693E-09  5.66196E-09  5.53318E-09  5.40075E-09
   5.26482E-09  5.12557E-09  4.98316E-09  4.83778E-09  4.68963E-09  4.53893E-09  4.38595E-09  4.23097E-09  4.07439E-09  3.91670E-09
   3.75857E-09  3.60108E-09  3.44596E-09  3.29646E-09  3.15969E-09  3.05539E-09  3.06469E-09  3.52550E-09  3.93066E-09  4.20250E-09
   4.42561E-09  4.63800E-09  4.74669E-09  4.73892E-09  4.65709E-09  4.51914E-09  4.06210E-09  2.93215E-09  1.29297E-09  6.28617E-10
   2.93838E-10  4.13864E-11 -1.79966E-10 -3.86229E-10 -5.83867E-10 -7.75888E-10 -9.63824E-10 -1.14849E-09 -1.33039E-09 -1.50975E-09
  -1.68668E-09 -1.86126E-09 -2.03346E-09 -2.20325E-09 -2.37053E-09 -2.53526E-09 -2.69734E-09 -2.85663E-09 -3.01305E-09 -3.16651E-09
  -3.31685E-09 -3.46396E-09 -3.60773E-09 -3.74802E-09 -3.88473E-09 -4.01769E-09 -4.14680E-09 -4.27193E-09 -4.39296E-09 -4.50971E-09
  -4.62212E-09 -4.73001E-09 -4.83325E-09 -4.93173E-09 -5.02533E-09 -5.11387E-09 -5.19724E-09 -5.27534E-09 -5.34800E-09 -5.41531E-09
  -5.47735E-09 -5.53427E-09 -5.58615E-09 -5.63313E-09 -5.67530E-09 -5.71279E-09 -5.74571E-09 -5.77416E-09 -5.79827E-09 -5.81814E-09
