 LCModel (Version 6.3-1R) Copyright: S.W. Provencher.          Ref.: Magn. Reson. Med. 30:672-679 (1993).                
 onepulse 12x13_ftSpec_smooth_lcm
 26 lines in following concentration table = NCONC+1
    Conc.  %SD /Cr+PCr  Metabolite                                         
    0.000 999%   0.000 Ala                                                 
 2.26E-09  30%   7.598 Asp                                                 
    0.000 999%   0.000 Cr                                                  
 3.47E-10 174%   1.169 GABA                                                
    0.000 999%   0.000 Glc                                                 
 2.36E-09  27%   7.960 Gln                                                 
    0.000 999%   0.000 Glu                                                 
 1.88E-09  40%   6.335 Glyc                                                
    0.000 999%   0.000 GPC                                                 
 4.23E-10  95%   1.424 GSH                                                 
 3.55E-10 191%   1.196 Ins                                                 
    0.000 999%   0.000 Lac                                                 
 4.13E-10  59%   1.390 NAAG                                                
 9.95E-11 259%   0.335 NAA                                                 
    0.000 999%   0.000 PCh                                                 
 2.97E-10  96%   1.000 PCr                                                 
 2.68E-09  20%   9.005 PE                                                  
 2.10E-10  80%   0.707 Scyllo                                              
    0.000 999%   0.000 Ser                                                 
    0.000 999%   0.000 Tau                                                 
    0.000 999%   0.000 GPC+PCh                                             
 5.12E-10  51%   1.725 NAA+NAAG                                            
 2.24E-09  17%   7.531 Ins+Glyc                                            
 2.97E-10  96%   1.000 Cr+PCr                                              
 2.36E-09  27%   7.960 Glu+Gln                                             
   6 lines in following misc. output table
  FWHM = 0.123 ppm    S/N =   3                                            
  Data shift = 0.414 ppm                                                   
  Ph: -48 deg     -62.9 deg/ppm                                            
  alphaB,S = 5.4E-01,   4.0E-01                                            
   11 spline knots.   Ns = 5(1)                                            
   8 inflections.    11 extrema                                            
  363 points on ppm-axis = NY
      4.250000     4.238821     4.227641     4.216462     4.205282     4.194103     4.182923     4.171744     4.160564     4.149385
      4.138206     4.127026     4.115847     4.104667     4.093488     4.082308     4.071129     4.059949     4.048770     4.037591
      4.026411     4.015232     4.004052     3.992873     3.981693     3.970514     3.959334     3.948155     3.936975     3.925796
      3.914617     3.903437     3.892258     3.881078     3.869899     3.858719     3.847540     3.836360     3.825181     3.814002
      3.802822     3.791643     3.780463     3.769284     3.758104     3.746925     3.735745     3.724566     3.713387     3.702207
      3.691028     3.679848     3.668669     3.657489     3.646310     3.635130     3.623951     3.612772     3.601592     3.590413
      3.579233     3.568054     3.556874     3.545695     3.534515     3.523336     3.512156     3.500977     3.489798     3.478618
      3.467439     3.456259     3.445080     3.433900     3.422721     3.411541     3.400362     3.389183     3.378003     3.366824
      3.355644     3.344465     3.333285     3.322106     3.310926     3.299747     3.288568     3.277388     3.266209     3.255029
      3.243850     3.232670     3.221491     3.210311     3.199132     3.187953     3.176773     3.165594     3.154414     3.143235
      3.132055     3.120876     3.109696     3.098517     3.087337     3.076158     3.064979     3.053799     3.042620     3.031440
      3.020261     3.009081     2.997902     2.986722     2.975543     2.964364     2.953184     2.942005     2.930825     2.919646
      2.908466     2.897287     2.886107     2.874928     2.863749     2.852569     2.841390     2.830210     2.819031     2.807851
      2.796672     2.785492     2.774313     2.763134     2.751954     2.740775     2.729595     2.718416     2.707236     2.696057
      2.684877     2.673698     2.662519     2.651339     2.640160     2.628980     2.617801     2.606621     2.595442     2.584262
      2.573083     2.561903     2.550724     2.539545     2.528365     2.517186     2.506006     2.494827     2.483647     2.472468
      2.461288     2.450109     2.438930     2.427750     2.416571     2.405391     2.394212     2.383032     2.371853     2.360673
      2.349494     2.338315     2.327135     2.315956     2.304776     2.293597     2.282417     2.271238     2.260058     2.248879
      2.237700     2.226520     2.215341     2.204161     2.192982     2.181802     2.170623     2.159443     2.148264     2.137084
      2.125905     2.114726     2.103546     2.092367     2.081187     2.070008     2.058828     2.047649     2.036469     2.025290
      2.014111     2.002931     1.991752     1.980572     1.969393     1.958213     1.947034     1.935854     1.924675     1.913496
      1.902316     1.891137     1.879957     1.868778     1.857598     1.846419     1.835239     1.824060     1.812881     1.801701
      1.790522     1.779342     1.768163     1.756983     1.745804     1.734624     1.723445     1.712265     1.701086     1.689907
      1.678727     1.667548     1.656368     1.645189     1.634009     1.622830     1.611650     1.600471     1.589292     1.578112
      1.566933     1.555753     1.544574     1.533394     1.522215     1.511035     1.499856     1.488677     1.477497     1.466318
      1.455138     1.443959     1.432779     1.421600     1.410420     1.399241     1.388062     1.376882     1.365703     1.354523
      1.343344     1.332164     1.320985     1.309805     1.298626     1.287446     1.276267     1.265088     1.253908     1.242729
      1.231549     1.220370     1.209190     1.198011     1.186831     1.175652     1.164473     1.153293     1.142114     1.130934
      1.119755     1.108575     1.097396     1.086216     1.075037     1.063858     1.052678     1.041499     1.030319     1.019140
      1.007960     0.996781     0.985601     0.974422     0.963243     0.952063     0.940884     0.929704     0.918525     0.907345
      0.896166     0.884986     0.873807     0.862628     0.851448     0.840269     0.829089     0.817910     0.806730     0.795551
      0.784371     0.773192     0.762012     0.750833     0.739654     0.728474     0.717295     0.706115     0.694936     0.683756
      0.672577     0.661397     0.650218     0.639039     0.627859     0.616680     0.605500     0.594321     0.583141     0.571962
      0.560782     0.549603     0.538424     0.527244     0.516065     0.504885     0.493706     0.482526     0.471347     0.460167
      0.448988     0.437809     0.426629     0.415450     0.404270     0.393091     0.381911     0.370732     0.359552     0.348373
      0.337193     0.326014     0.314835     0.303655     0.292476     0.281296     0.270117     0.258937     0.247758     0.236578
      0.225399     0.214220     0.203040
 NY phased data points follow
   2.68875E-09  5.78715E-09  2.61896E-09  6.39812E-09  3.46244E-09  7.22018E-09  4.05555E-09  7.57762E-09  4.83397E-09  8.01032E-09
   5.30371E-09  8.21034E-09  3.88173E-09  7.53226E-09  4.30580E-09  7.40014E-09  4.11744E-09  7.74004E-09  4.32529E-09  8.49719E-09
   4.86411E-09  8.23340E-09  4.38627E-09  7.50918E-09  4.79817E-09  8.98659E-09  6.46191E-09  9.94680E-09  7.09878E-09  9.65956E-09
   5.51084E-09  7.85525E-09  4.49454E-09  7.12725E-09  4.04882E-09  7.32166E-09  4.42624E-09  6.83074E-09  4.54914E-09  7.08935E-09
   4.12806E-09  6.96672E-09  3.81732E-09  6.13043E-09  4.38885E-09  6.70867E-09  4.26420E-09  7.09864E-09  4.14485E-09  6.32549E-09
   3.85360E-09  6.42541E-09  4.13551E-09  6.89870E-09  4.58304E-09  7.59383E-09  6.41419E-09  9.83326E-09  9.57463E-09  1.15667E-08
   9.49731E-09  1.04625E-08  7.90919E-09  9.30086E-09  6.53066E-09  8.06091E-09  6.00323E-09  7.45735E-09  5.42839E-09  6.50861E-09
   4.54515E-09  6.17975E-09  5.12931E-09  8.77841E-09  1.02859E-08  1.39357E-08  1.33597E-08  1.36653E-08  1.17853E-08  1.20101E-08
   1.11369E-08  1.15679E-08  1.01808E-08  1.07644E-08  9.44147E-09  1.06016E-08  9.21542E-09  1.02123E-08  8.71834E-09  9.34965E-09
   8.07992E-09  8.47976E-09  7.45937E-09  7.89522E-09  6.68920E-09  7.27050E-09  6.72163E-09  7.52366E-09  6.44106E-09  7.40048E-09
   6.48198E-09  7.43388E-09  6.64865E-09  6.52646E-09  5.74898E-09  5.93978E-09  4.61448E-09  5.37842E-09  5.49859E-09  6.28094E-09
   5.88142E-09  6.47675E-09  6.32003E-09  6.62217E-09  6.42882E-09  6.82422E-09  6.78737E-09  6.66003E-09  6.09436E-09  5.82248E-09
   5.36136E-09  4.85347E-09  5.37533E-09  5.53226E-09  5.00701E-09  5.18067E-09  5.34528E-09  5.96272E-09  6.01310E-09  6.07362E-09
   6.53582E-09  5.81160E-09  6.54172E-09  5.93897E-09  6.38777E-09  7.27554E-09  7.99505E-09  7.77825E-09  8.66156E-09  7.54804E-09
   9.19620E-09  8.95431E-09  9.69720E-09  9.45532E-09  1.05133E-08  9.34555E-09  9.95247E-09  9.40481E-09  1.01011E-08  9.87640E-09
   9.96683E-09  9.13191E-09  1.01759E-08  9.62223E-09  1.04031E-08  9.76780E-09  1.02990E-08  9.68119E-09  1.05108E-08  9.82715E-09
   9.92573E-09  8.94939E-09  9.47802E-09  7.76357E-09  7.76717E-09  8.39087E-09  1.38072E-08  1.64081E-08  1.96438E-08  1.91998E-08
   2.08732E-08  2.01942E-08  2.11476E-08  2.03786E-08  2.09837E-08  1.97406E-08  2.05522E-08  1.94253E-08  2.03182E-08  1.80097E-08
   1.83397E-08  1.58329E-08  1.53838E-08  1.28910E-08  1.15119E-08  8.14066E-09  6.94035E-09  3.68526E-09  2.10396E-09 -9.76829E-10
  -2.07739E-09 -4.89228E-09 -5.54051E-09 -7.85533E-09 -7.98667E-09 -9.16331E-09 -8.27095E-09 -8.63997E-09 -7.20022E-09 -7.81412E-09
  -5.26396E-09 -5.40809E-09 -3.23241E-09 -3.04316E-09 -1.67692E-09 -2.20849E-09 -4.57414E-10 -2.29203E-09 -2.91600E-10 -1.81498E-09
  -1.07003E-09 -2.34439E-09 -1.05991E-09 -1.81835E-09 -4.43202E-10 -1.70977E-09 -4.50487E-11 -1.26832E-09  3.31516E-10 -1.16534E-09
   1.22796E-10 -1.23767E-09  1.28272E-11 -1.49642E-09 -5.28219E-10 -1.26997E-09  1.22370E-10 -8.62867E-10  4.03820E-10 -7.70023E-10
   4.94144E-10 -7.68284E-10  5.14789E-10 -6.74384E-10  1.60232E-10 -9.49208E-10 -3.92142E-10 -1.24197E-09  2.47801E-10 -1.63239E-09
  -1.59417E-10 -1.08960E-09  3.77885E-10 -5.98459E-10  2.30875E-10 -5.26019E-10  9.26821E-10 -8.37043E-10  7.54227E-10 -2.99895E-10
   6.46217E-10 -5.44785E-10  4.97222E-10 -2.23254E-10  2.40232E-10 -4.37468E-10  2.60567E-10 -1.92012E-10  2.07061E-10 -1.24838E-09
   1.06704E-10 -9.95620E-10 -3.69094E-10 -1.54591E-09 -4.69390E-10 -1.30990E-09 -5.72968E-10 -1.48395E-09 -8.32526E-10 -1.65215E-09
  -2.41085E-10 -8.01159E-10  4.22306E-10 -7.55353E-10  6.76807E-10 -1.04884E-10  7.14723E-10 -3.04471E-11  6.99895E-10  6.07304E-10
   1.04600E-09  6.75245E-10  8.99585E-10  6.18408E-10  1.39069E-09  6.28023E-10  1.42943E-09  8.62964E-10  1.54131E-09  5.71749E-10
   1.27431E-09  8.34803E-10  1.18729E-09  5.90882E-10  1.36976E-09  1.41132E-09  1.10983E-09  8.92983E-10  1.39987E-09  8.95862E-10
   1.20809E-09  1.09198E-09  1.41348E-09  1.25159E-09  1.26574E-09  1.48256E-09  9.87995E-10  1.44564E-09  8.90053E-10  1.07244E-09
   1.18154E-09  1.31843E-09  1.15609E-09  1.08494E-09  1.28901E-09  1.68812E-09  1.22904E-09  1.02605E-09  1.53334E-09  1.41814E-09
   9.69349E-10  1.33049E-09  1.12469E-09  1.64902E-09  1.05574E-09  1.69712E-09  1.31704E-09  1.31532E-09  1.23548E-09  1.95887E-09
   1.53661E-09  1.60198E-09  1.15416E-09  1.59327E-09  1.12619E-09  1.14036E-09  1.42973E-09  1.58648E-09  1.18529E-09  1.58126E-09
   1.11564E-09  1.52989E-09  1.84435E-09  1.56111E-09  1.22579E-09  1.93199E-09  1.62481E-09  1.91435E-09  1.01977E-09  1.66893E-09
   1.58045E-09  1.95549E-09  1.36928E-09  1.51682E-09  1.40855E-09  1.99641E-09  1.17808E-09  1.92721E-09  1.56276E-09  1.98718E-09
   1.59746E-09  2.00659E-09  1.57054E-09
 NY points of the fit to the data follow
   5.13813E-09  8.14943E-09  4.37709E-09  5.95091E-09  3.06163E-09  4.93943E-09  2.69370E-09  5.59030E-09  3.50806E-09  8.93499E-09
   6.11070E-09  7.23906E-09  4.50766E-09  8.25241E-09  3.71421E-09  8.36036E-09  3.72421E-09  9.28921E-09  4.40637E-09  1.03217E-08
   7.61348E-09  6.21451E-09  4.80024E-09  7.14789E-09  5.46732E-09  8.86912E-09  5.67489E-09  9.79885E-09  6.60360E-09  8.64220E-09
   5.22931E-09  1.00857E-08  4.98420E-09  8.74889E-09  4.40520E-09  6.95402E-09  4.75523E-09  5.50172E-09  4.39233E-09  5.63481E-09
   4.33411E-09  5.50060E-09  5.26068E-09  5.12088E-09  4.38963E-09  6.61764E-09  4.29930E-09  6.90563E-09  4.42393E-09  7.27401E-09
   4.89689E-09  7.63813E-09  5.44801E-09  8.77127E-09  7.24098E-09  9.27791E-09  8.46317E-09  9.33712E-09  8.14076E-09  1.02388E-08
   9.30438E-09  9.68269E-09  9.06709E-09  9.51368E-09  8.63923E-09  9.97310E-09  7.59897E-09  8.23861E-09  8.46485E-09  7.34154E-09
   6.76146E-09  8.19998E-09  7.78888E-09  8.09891E-09  8.76535E-09  1.04432E-08  1.07538E-08  1.14037E-08  1.15053E-08  1.22642E-08
   1.16175E-08  1.22925E-08  1.18747E-08  1.12293E-08  1.03094E-08  1.14777E-08  9.84298E-09  9.27003E-09  7.87516E-09  7.30279E-09
   6.92360E-09  6.73373E-09  6.49434E-09  6.63260E-09  6.54343E-09  6.19005E-09  6.48263E-09  6.29669E-09  6.22799E-09  6.27821E-09
   6.20961E-09  6.20979E-09  6.23032E-09  6.23941E-09  6.25185E-09  6.27544E-09  6.29952E-09  6.32801E-09  6.35716E-09  6.38650E-09
   6.41627E-09  6.44584E-09  6.47476E-09  6.50308E-09  6.53028E-09  6.55640E-09  6.58124E-09  6.60470E-09  6.62654E-09  6.64677E-09
   6.66518E-09  6.68174E-09  6.69637E-09  6.70897E-09  6.71948E-09  6.72780E-09  6.73392E-09  6.73773E-09  6.73918E-09  6.73823E-09
   6.73482E-09  6.72888E-09  6.72040E-09  6.70930E-09  6.69557E-09  6.67913E-09  6.65998E-09  6.63810E-09  6.61356E-09  6.58645E-09
   6.55684E-09  6.52483E-09  6.49050E-09  6.45397E-09  6.41534E-09  6.37474E-09  6.33231E-09  6.28822E-09  6.24263E-09  6.19576E-09
   6.14788E-09  6.09928E-09  6.05036E-09  6.00158E-09  5.95360E-09  5.90725E-09  5.86371E-09  5.82461E-09  5.79243E-09  5.77096E-09
   5.76652E-09  5.79014E-09  5.86348E-09  6.03488E-09  6.43719E-09  7.58237E-09  1.22690E-08  1.72861E-08  1.89428E-08  1.93398E-08
   2.01835E-08  2.03683E-08  2.13385E-08  2.00710E-08  2.08547E-08  1.88431E-08  1.97027E-08  2.01794E-08  1.89278E-08  8.36392E-09
   5.68443E-09  4.73724E-09  4.24732E-09  3.93155E-09  3.69816E-09  3.50953E-09  3.34769E-09  3.20300E-09  3.07000E-09  2.94525E-09
   2.82665E-09  2.71271E-09  2.60249E-09  2.49529E-09  2.39063E-09  2.28816E-09  2.18763E-09  2.08889E-09  1.99178E-09  1.89625E-09
   1.80220E-09  1.70965E-09  1.61853E-09  1.52889E-09  1.44069E-09  1.35399E-09  1.26877E-09  1.18511E-09  1.10300E-09  1.02252E-09
   9.43685E-10  8.66565E-10  7.91167E-10  7.17568E-10  6.45831E-10  5.75996E-10  5.08107E-10  4.42229E-10  3.78415E-10  3.16744E-10
   2.57224E-10  1.99968E-10  1.45005E-10  9.23883E-11  4.21758E-11 -5.52142E-12 -5.07189E-11 -9.33290E-11 -1.33360E-10 -1.70870E-10
  -2.05921E-10 -2.38551E-10 -2.68824E-10 -2.96789E-10 -3.22495E-10 -3.45997E-10 -3.67346E-10 -3.86596E-10 -4.03793E-10 -4.18988E-10
  -4.32239E-10 -4.43597E-10 -4.53107E-10 -4.60826E-10 -4.66803E-10 -4.71087E-10 -4.73733E-10 -4.74791E-10 -4.74307E-10 -4.72339E-10
  -4.68934E-10 -4.64143E-10 -4.58022E-10 -4.50614E-10 -4.41978E-10 -4.32152E-10 -4.21204E-10 -4.09175E-10 -3.96113E-10 -3.82077E-10
  -3.67112E-10 -3.51268E-10 -3.34598E-10 -3.17161E-10 -2.98990E-10 -2.80150E-10 -2.60684E-10 -2.40651E-10 -2.20087E-10 -1.99059E-10
  -1.77606E-10 -1.55785E-10 -1.33644E-10 -1.11211E-10 -8.85030E-11 -6.55255E-11 -4.22949E-11 -1.88183E-11  4.89569E-12  2.88343E-11
   5.29812E-11  7.73387E-11  1.01880E-10  1.26609E-10  1.51502E-10  1.76564E-10  2.01766E-10  2.27115E-10  2.52585E-10  2.78177E-10
   3.03871E-10  3.29668E-10  3.55543E-10  3.81495E-10  4.07510E-10  4.33582E-10  4.59692E-10  4.85835E-10  5.11999E-10  5.38173E-10
   5.64347E-10  5.90512E-10  6.16654E-10  6.42766E-10  6.68832E-10  6.94845E-10  7.20797E-10  7.46671E-10  7.72462E-10  7.98153E-10
   8.23738E-10  8.49211E-10  8.74554E-10  8.99751E-10  9.24805E-10  9.49700E-10  9.74419E-10  9.98967E-10  1.02332E-09  1.04749E-09
   1.07148E-09  1.09530E-09  1.11895E-09  1.14244E-09  1.16577E-09  1.18894E-09  1.21197E-09  1.23485E-09  1.25760E-09  1.28021E-09
   1.30269E-09  1.32504E-09  1.34728E-09  1.36940E-09  1.39141E-09  1.41332E-09  1.43513E-09  1.45685E-09  1.47847E-09  1.50001E-09
   1.52147E-09  1.54286E-09  1.56417E-09  1.58542E-09  1.60661E-09  1.62774E-09  1.64883E-09  1.66987E-09  1.69086E-09  1.71182E-09
   1.73276E-09  1.75366E-09  1.77455E-09  1.79541E-09  1.81627E-09  1.83712E-09  1.85797E-09  1.87883E-09  1.89969E-09  1.92057E-09
   1.94146E-09  1.96238E-09  1.98333E-09
 NY background values follow
    -4.809E-09   -4.701E-09   -4.594E-09   -4.487E-09   -4.380E-09   -4.272E-09   -4.165E-09   -4.058E-09   -3.951E-09   -3.844E-09
    -3.737E-09   -3.630E-09   -3.523E-09   -3.416E-09   -3.309E-09   -3.202E-09   -3.095E-09   -2.988E-09   -2.882E-09   -2.775E-09
    -2.668E-09   -2.562E-09   -2.456E-09   -2.349E-09   -2.243E-09   -2.137E-09   -2.031E-09   -1.925E-09   -1.820E-09   -1.714E-09
    -1.608E-09   -1.503E-09   -1.398E-09   -1.293E-09   -1.188E-09   -1.083E-09   -9.782E-10   -8.737E-10   -7.693E-10   -6.651E-10
    -5.610E-10   -4.571E-10   -3.534E-10   -2.499E-10   -1.465E-10   -4.332E-11    5.960E-11    1.624E-10    2.649E-10    3.672E-10
     4.693E-10    5.710E-10    6.725E-10    7.736E-10    8.743E-10    9.748E-10    1.075E-09    1.174E-09    1.274E-09    1.372E-09
     1.471E-09    1.568E-09    1.666E-09    1.763E-09    1.859E-09    1.954E-09    2.050E-09    2.144E-09    2.238E-09    2.331E-09
     2.424E-09    2.516E-09    2.607E-09    2.697E-09    2.787E-09    2.876E-09    2.964E-09    3.052E-09    3.138E-09    3.224E-09
     3.309E-09    3.393E-09    3.476E-09    3.558E-09    3.640E-09    3.720E-09    3.799E-09    3.878E-09    3.955E-09    4.031E-09
     4.106E-09    4.181E-09    4.254E-09    4.325E-09    4.396E-09    4.466E-09    4.534E-09    4.601E-09    4.666E-09    4.730E-09
     4.793E-09    4.854E-09    4.914E-09    4.972E-09    5.028E-09    5.083E-09    5.136E-09    5.187E-09    5.237E-09    5.284E-09
     5.330E-09    5.374E-09    5.416E-09    5.456E-09    5.493E-09    5.529E-09    5.562E-09    5.594E-09    5.623E-09    5.650E-09
     5.674E-09    5.696E-09    5.716E-09    5.733E-09    5.748E-09    5.760E-09    5.770E-09    5.777E-09    5.782E-09    5.783E-09
     5.782E-09    5.778E-09    5.772E-09    5.762E-09    5.750E-09    5.734E-09    5.716E-09    5.694E-09    5.670E-09    5.642E-09
     5.612E-09    5.579E-09    5.544E-09    5.505E-09    5.464E-09    5.421E-09    5.375E-09    5.326E-09    5.275E-09    5.222E-09
     5.167E-09    5.110E-09    5.050E-09    4.988E-09    4.925E-09    4.859E-09    4.792E-09    4.723E-09    4.652E-09    4.579E-09
     4.505E-09    4.429E-09    4.352E-09    4.273E-09    4.193E-09    4.111E-09    4.028E-09    3.945E-09    3.859E-09    3.773E-09
     3.686E-09    3.598E-09    3.509E-09    3.419E-09    3.329E-09    3.238E-09    3.146E-09    3.053E-09    2.960E-09    2.867E-09
     2.773E-09    2.679E-09    2.584E-09    2.489E-09    2.394E-09    2.299E-09    2.204E-09    2.110E-09    2.015E-09    1.920E-09
     1.826E-09    1.731E-09    1.638E-09    1.544E-09    1.451E-09    1.359E-09    1.267E-09    1.176E-09    1.086E-09    9.961E-10
     9.074E-10    8.196E-10    7.328E-10    6.470E-10    5.624E-10    4.789E-10    3.967E-10    3.157E-10    2.361E-10    1.580E-10
     8.129E-11    6.179E-12   -6.733E-11   -1.392E-10   -2.093E-10   -2.775E-10   -3.439E-10   -4.084E-10   -4.709E-10   -5.314E-10
    -5.897E-10   -6.458E-10   -6.997E-10   -7.513E-10   -8.005E-10   -8.473E-10   -8.916E-10   -9.333E-10   -9.725E-10   -1.009E-09
    -1.043E-09   -1.075E-09   -1.105E-09   -1.132E-09   -1.157E-09   -1.180E-09   -1.201E-09   -1.219E-09   -1.236E-09   -1.251E-09
    -1.263E-09   -1.274E-09   -1.283E-09   -1.290E-09   -1.296E-09   -1.299E-09   -1.301E-09   -1.302E-09   -1.301E-09   -1.299E-09
    -1.295E-09   -1.289E-09   -1.283E-09   -1.275E-09   -1.266E-09   -1.256E-09   -1.244E-09   -1.232E-09   -1.218E-09   -1.204E-09
    -1.189E-09   -1.172E-09   -1.155E-09   -1.137E-09   -1.119E-09   -1.100E-09   -1.080E-09   -1.059E-09   -1.038E-09   -1.017E-09
    -9.952E-10   -9.730E-10   -9.505E-10   -9.277E-10   -9.046E-10   -8.813E-10   -8.577E-10   -8.339E-10   -8.098E-10   -7.855E-10
    -7.610E-10   -7.363E-10   -7.114E-10   -6.864E-10   -6.611E-10   -6.357E-10   -6.102E-10   -5.845E-10   -5.587E-10   -5.328E-10
    -5.067E-10   -4.806E-10   -4.544E-10   -4.281E-10   -4.018E-10   -3.754E-10   -3.489E-10   -3.224E-10   -2.960E-10   -2.694E-10
    -2.429E-10   -2.164E-10   -1.900E-10   -1.635E-10   -1.371E-10   -1.108E-10   -8.451E-11   -5.831E-11   -3.218E-11   -6.160E-12
     1.976E-11    4.556E-11    7.124E-11    9.677E-11    1.222E-10    1.474E-10    1.724E-10    1.973E-10    2.220E-10    2.465E-10
     2.708E-10    2.950E-10    3.190E-10    3.428E-10    3.665E-10    3.900E-10    4.134E-10    4.366E-10    4.597E-10    4.826E-10
     5.055E-10    5.282E-10    5.508E-10    5.732E-10    5.956E-10    6.179E-10    6.400E-10    6.621E-10    6.841E-10    7.060E-10
     7.278E-10    7.495E-10    7.712E-10    7.928E-10    8.144E-10    8.359E-10    8.573E-10    8.787E-10    9.001E-10    9.214E-10
     9.427E-10    9.640E-10    9.853E-10    1.007E-09    1.028E-09    1.049E-09    1.070E-09    1.092E-09    1.113E-09    1.134E-09
     1.155E-09    1.177E-09    1.198E-09
 Asp      Conc. = 2.26E-09
  -3.01576E-09 -1.67217E-09 -2.62842E-09 -2.86957E-09 -2.38329E-09 -3.38904E-09 -2.73337E-09 -3.10766E-09 -3.38077E-09 -3.44997E-09
  -3.41056E-09 -3.36795E-09 -3.27738E-09 -3.20764E-09 -3.10708E-09 -3.00703E-09 -2.90603E-09 -2.80336E-09 -2.69915E-09 -2.59361E-09
  -2.48690E-09 -2.37909E-09 -2.27022E-09 -2.16030E-09 -2.04926E-09 -1.93697E-09 -1.82325E-09 -1.70783E-09 -1.59035E-09 -1.47020E-09
  -1.34657E-09 -1.21823E-09 -1.08311E-09 -9.37694E-10 -7.75076E-10 -5.79262E-10 -3.03576E-10  5.36564E-11  4.86728E-11  6.02680E-10
   1.28649E-10  1.01274E-09  4.11745E-10  2.04079E-09  1.04820E-09  3.85367E-09  1.58025E-09  4.36448E-09  1.74673E-09  5.18388E-09
   1.97461E-09  5.26978E-09  2.32876E-09  5.64946E-09  2.76757E-09  5.16801E-09  3.52608E-09  3.51051E-09  2.15285E-09  3.68178E-09
   3.26516E-09  2.41534E-09  2.99549E-09  2.71384E-09  2.46163E-09  2.63005E-09  2.96436E-09  2.80450E-09  2.76573E-09  2.77855E-09
   2.81621E-09  2.86773E-09  2.92784E-09  2.99355E-09  3.06308E-09  3.13524E-09  3.20924E-09  3.28449E-09  3.36058E-09  3.43718E-09
   3.51403E-09  3.59093E-09  3.66771E-09  3.74424E-09  3.82041E-09  3.89612E-09  3.97127E-09  4.04581E-09  4.11966E-09  4.19277E-09
   4.26507E-09  4.33654E-09  4.40710E-09  4.47671E-09  4.54528E-09  4.61277E-09  4.67912E-09  4.74427E-09  4.80816E-09  4.87075E-09
   4.93197E-09  4.99180E-09  5.05015E-09  5.10701E-09  5.16230E-09  5.21599E-09  5.26803E-09  5.31837E-09  5.36695E-09  5.41374E-09
   5.45869E-09  5.50176E-09  5.54290E-09  5.58205E-09  5.61919E-09  5.65425E-09  5.68720E-09  5.71799E-09  5.74658E-09  5.77292E-09
   5.79698E-09  5.81869E-09  5.83803E-09  5.85494E-09  5.86938E-09  5.88131E-09  5.89069E-09  5.89747E-09  5.90161E-09  5.90307E-09
   5.90179E-09  5.89775E-09  5.89089E-09  5.88118E-09  5.86858E-09  5.85303E-09  5.83451E-09  5.81299E-09  5.78855E-09  5.76124E-09
   5.73113E-09  5.69828E-09  5.66277E-09  5.62465E-09  5.58401E-09  5.54090E-09  5.49541E-09  5.44761E-09  5.39758E-09  5.34541E-09
   5.29118E-09  5.23500E-09  5.17698E-09  5.11724E-09  5.05593E-09  4.99324E-09  4.92939E-09  4.86468E-09  4.79953E-09  4.73451E-09
   4.67059E-09  4.60927E-09  4.55329E-09  4.50816E-09  4.48662E-09  4.52507E-09  4.76851E-09  6.12693E-09  6.92663E-09  6.28899E-09
   7.37382E-09  5.98723E-09  7.87191E-09  5.67185E-09  7.80755E-09  5.28346E-09  7.43021E-09  4.92077E-09  7.93684E-09  4.26412E-09
   3.43480E-09  3.10745E-09  2.90825E-09  2.75623E-09  2.62594E-09  2.50719E-09  2.39531E-09  2.28780E-09  2.18331E-09  2.08102E-09
   1.98044E-09  1.88123E-09  1.78324E-09  1.68630E-09  1.59035E-09  1.49536E-09  1.40132E-09  1.30823E-09  1.21610E-09  1.12495E-09
   1.03483E-09  9.45768E-10  8.57812E-10  7.71014E-10  6.85417E-10  6.01065E-10  5.18019E-10  4.36336E-10  3.56065E-10  2.77278E-10
   2.00021E-10  1.24360E-10  5.03365E-11 -2.19836E-11 -9.25161E-11 -1.61223E-10 -2.28040E-10 -2.92913E-10 -3.55769E-10 -4.16537E-10
  -4.75192E-10 -5.31631E-10 -5.85807E-10 -6.37678E-10 -6.87171E-10 -7.34183E-10 -7.78718E-10 -8.20693E-10 -8.60110E-10 -8.97031E-10
  -9.31508E-10 -9.63589E-10 -9.93325E-10 -1.02077E-09 -1.04597E-09 -1.06899E-09 -1.08986E-09 -1.10865E-09 -1.12539E-09 -1.14015E-09
  -1.15297E-09 -1.16390E-09 -1.17300E-09 -1.18032E-09 -1.18590E-09 -1.18980E-09 -1.19206E-09 -1.19275E-09 -1.19190E-09 -1.18957E-09
  -1.18581E-09 -1.18067E-09 -1.17420E-09 -1.16645E-09 -1.15748E-09 -1.14733E-09 -1.13605E-09 -1.12370E-09 -1.11032E-09 -1.09597E-09
  -1.08069E-09 -1.06454E-09 -1.04756E-09 -1.02982E-09 -1.01135E-09 -9.92207E-10 -9.72444E-10 -9.52119E-10 -9.31262E-10 -9.09945E-10
  -8.88204E-10 -8.66097E-10 -8.43672E-10 -8.20957E-10 -7.97968E-10 -7.74711E-10 -7.51202E-10 -7.27447E-10 -7.03458E-10 -6.79243E-10
  -6.54822E-10 -6.30192E-10 -6.05377E-10 -5.80378E-10 -5.55212E-10 -5.29882E-10 -5.04407E-10 -4.78792E-10 -4.53049E-10 -4.27192E-10
  -4.01227E-10 -3.75165E-10 -3.49019E-10 -3.22801E-10 -2.96517E-10 -2.70179E-10 -2.43801E-10 -2.17391E-10 -1.90959E-10 -1.64517E-10
  -1.38075E-10 -1.11643E-10 -8.52318E-11 -5.88531E-11 -3.25165E-11 -6.23605E-12  1.99858E-11  4.61285E-11  7.21910E-11  9.81525E-11
   1.24009E-10  1.49752E-10  1.75368E-10  2.00838E-10  2.26165E-10  2.51335E-10  2.76329E-10  3.01153E-10  3.25784E-10  3.50232E-10
   3.74502E-10  3.98600E-10  4.22531E-10  4.46299E-10  4.69909E-10  4.93367E-10  5.16677E-10  5.39844E-10  5.62873E-10  5.85769E-10
   6.08538E-10  6.31184E-10  6.53710E-10  6.76125E-10  6.98430E-10  7.20634E-10  7.42737E-10  7.64748E-10  7.86670E-10  8.08509E-10
   8.30270E-10  8.51958E-10  8.73575E-10  8.95133E-10  9.16629E-10  9.38070E-10  9.59463E-10  9.80815E-10  1.00212E-09  1.02340E-09
   1.04465E-09  1.06587E-09  1.08708E-09  1.10827E-09  1.12945E-09  1.15063E-09  1.17181E-09  1.19299E-09  1.21418E-09  1.23539E-09
   1.25662E-09  1.27788E-09  1.29917E-09
 GABA     Conc. = 3.47E-10
  -4.77210E-09 -4.66437E-09 -4.55662E-09 -4.44885E-09 -4.34101E-09 -4.23317E-09 -4.12526E-09 -4.01734E-09 -3.90936E-09 -3.80131E-09
  -3.69325E-09 -3.58503E-09 -3.47684E-09 -3.36849E-09 -3.25993E-09 -3.15143E-09 -3.04257E-09 -2.93352E-09 -2.82412E-09 -2.71441E-09
  -2.60393E-09 -2.49305E-09 -2.38058E-09 -2.26717E-09 -2.15101E-09 -2.03145E-09 -1.90550E-09 -1.76679E-09 -1.59539E-09 -1.34148E-09
  -1.39957E-09 -1.00699E-09 -8.57648E-10 -7.09769E-10 -5.86059E-10 -3.73604E-10 -2.68884E-10 -1.06236E-10 -9.23898E-11  1.32263E-10
   1.43668E-10 -3.75048E-11  2.98831E-10  4.43412E-10 -5.53896E-11  3.67056E-10  3.38034E-10  3.37287E-10  3.97244E-10  4.78369E-10
   5.68858E-10  6.64124E-10  7.62965E-10  8.63601E-10  9.66771E-10  1.07157E-09  1.17901E-09  1.28958E-09  1.40580E-09  1.53084E-09
   1.67835E-09  1.88426E-09  2.04489E-09  2.06781E-09  2.47456E-09  2.46487E-09  2.69638E-09  2.69664E-09  2.93577E-09  2.94572E-09
   3.09356E-09  3.10822E-09  3.27875E-09  3.17849E-09  3.07576E-09  3.49721E-09  3.21528E-09  3.14710E-09  3.37889E-09  3.42129E-09
   3.47894E-09  3.49421E-09  3.70799E-09  3.82068E-09  3.86359E-09  4.05582E-09  4.14951E-09  4.29517E-09  4.34170E-09  4.47164E-09
   4.61225E-09  4.64161E-09  4.57812E-09  4.89771E-09  4.84466E-09  4.66505E-09  4.97687E-09  4.92069E-09  4.85416E-09  4.96020E-09
   4.97628E-09  5.00415E-09  5.04230E-09  5.08448E-09  5.12939E-09  5.17488E-09  5.22068E-09  5.26574E-09  5.31026E-09  5.35345E-09
   5.39560E-09  5.43634E-09  5.47534E-09  5.51280E-09  5.54832E-09  5.58203E-09  5.61381E-09  5.64363E-09  5.67130E-09  5.69688E-09
   5.72021E-09  5.74129E-09  5.76006E-09  5.77646E-09  5.79045E-09  5.80194E-09  5.81094E-09  5.81736E-09  5.82115E-09  5.82229E-09
   5.82071E-09  5.81637E-09  5.80924E-09  5.79925E-09  5.78638E-09  5.77055E-09  5.75175E-09  5.72994E-09  5.70520E-09  5.67757E-09
   5.64713E-09  5.61392E-09  5.57801E-09  5.53947E-09  5.49835E-09  5.45471E-09  5.40862E-09  5.36015E-09  5.30935E-09  5.25629E-09
   5.20104E-09  5.14366E-09  5.08423E-09  5.02282E-09  4.95950E-09  4.89436E-09  4.82750E-09  4.75902E-09  4.68905E-09  4.61776E-09
   4.54544E-09  4.47243E-09  4.39947E-09  4.32806E-09  4.26212E-09  4.21524E-09  4.26225E-09  4.55964E-09  4.10581E-09  4.56417E-09
   3.84224E-09  4.54620E-09  3.62652E-09  4.40056E-09  3.41544E-09  4.18534E-09  3.20378E-09  4.01020E-09  3.26136E-09  2.99466E-09
   2.85406E-09  2.74070E-09  2.63628E-09  2.53565E-09  2.43690E-09  2.33923E-09  2.24226E-09  2.14579E-09  2.04976E-09  1.95412E-09
   1.85889E-09  1.76406E-09  1.66971E-09  1.57584E-09  1.48251E-09  1.38978E-09  1.29770E-09  1.20632E-09  1.11570E-09  1.02589E-09
   9.36971E-10  8.48989E-10  7.62003E-10  6.76085E-10  5.91289E-10  5.07668E-10  4.25294E-10  3.44227E-10  2.64528E-10  1.86266E-10
   1.09499E-10  3.42928E-11 -3.93036E-11 -1.11228E-10 -1.81387E-10 -2.49745E-10 -3.16232E-10 -3.80795E-10 -4.43357E-10 -5.03847E-10
  -5.62239E-10 -6.18429E-10 -6.72367E-10 -7.24012E-10 -7.73289E-10 -8.20095E-10 -8.64433E-10 -9.06219E-10 -9.45456E-10 -9.82204E-10
