 LCModel (Version 6.3-1R) Copyright: S.W. Provencher.          Ref.: Magn. Reson. Med. 30:672-679 (1993).                
 onepulse 12x11_ftSpec_smooth_lcm
 26 lines in following concentration table = NCONC+1
    Conc.  %SD /Cr+PCr  Metabolite                                         
    0.000 999%   0.000 Ala                                                 
 1.60E-09  33%  10.782 Asp                                                 
    0.000 999%   0.000 Cr                                                  
 4.85E-10 108%   3.276 GABA                                                
    0.000 999%   0.000 Glc                                                 
 1.51E-09  36%  10.216 Gln                                                 
    0.000 999%   0.000 Glu                                                 
    0.000 999%   0.000 Glyc                                                
    0.000 999%   0.000 GPC                                                 
 7.14E-10  62%   4.827 GSH                                                 
 1.75E-09  15%  11.838 Ins                                                 
    0.000 999%   0.000 Lac                                                 
 3.57E-10  70%   2.410 NAAG                                                
 3.65E-11 994%   0.247 NAA                                                 
    0.000 999%   0.000 PCh                                                 
 1.48E-10 194%   1.000 PCr                                                 
 1.92E-09  24%  12.996 PE                                                  
 2.66E-10  48%   1.801 Scyllo                                              
    0.000 999%   0.000 Ser                                                 
    0.000 999%   0.000 Tau                                                 
    0.000 999%   0.000 GPC+PCh                                             
 3.93E-10  61%   2.657 NAA+NAAG                                            
 1.75E-09  15%  11.838 Ins+Glyc                                            
 1.48E-10 194%   1.000 Cr+PCr                                              
 1.51E-09  36%  10.216 Glu+Gln                                             
   6 lines in following misc. output table
  FWHM = 0.123 ppm    S/N =   4                                            
  Data shift = 0.414 ppm                                                   
  Ph: -28 deg     -53.5 deg/ppm                                            
  alphaB,S = 4.0E-01,   5.2E+00                                            
   10 spline knots.   Ns = 5(1)                                            
  (10) 8 infls.   (11) 5 extrs.                                            
  363 points on ppm-axis = NY
      4.250000     4.238821     4.227641     4.216462     4.205282     4.194103     4.182923     4.171744     4.160564     4.149385
      4.138206     4.127026     4.115847     4.104667     4.093488     4.082308     4.071129     4.059949     4.048770     4.037591
      4.026411     4.015232     4.004052     3.992873     3.981693     3.970514     3.959334     3.948155     3.936975     3.925796
      3.914617     3.903437     3.892258     3.881078     3.869899     3.858719     3.847540     3.836360     3.825181     3.814002
      3.802822     3.791643     3.780463     3.769284     3.758104     3.746925     3.735745     3.724566     3.713387     3.702207
      3.691028     3.679848     3.668669     3.657489     3.646310     3.635130     3.623951     3.612772     3.601592     3.590413
      3.579233     3.568054     3.556874     3.545695     3.534515     3.523336     3.512156     3.500977     3.489798     3.478618
      3.467439     3.456259     3.445080     3.433900     3.422721     3.411541     3.400362     3.389183     3.378003     3.366824
      3.355644     3.344465     3.333285     3.322106     3.310926     3.299747     3.288568     3.277388     3.266209     3.255029
      3.243850     3.232670     3.221491     3.210311     3.199132     3.187953     3.176773     3.165594     3.154414     3.143235
      3.132055     3.120876     3.109696     3.098517     3.087337     3.076158     3.064979     3.053799     3.042620     3.031440
      3.020261     3.009081     2.997902     2.986722     2.975543     2.964364     2.953184     2.942005     2.930825     2.919646
      2.908466     2.897287     2.886107     2.874928     2.863749     2.852569     2.841390     2.830210     2.819031     2.807851
      2.796672     2.785492     2.774313     2.763134     2.751954     2.740775     2.729595     2.718416     2.707236     2.696057
      2.684877     2.673698     2.662519     2.651339     2.640160     2.628980     2.617801     2.606621     2.595442     2.584262
      2.573083     2.561903     2.550724     2.539545     2.528365     2.517186     2.506006     2.494827     2.483647     2.472468
      2.461288     2.450109     2.438930     2.427750     2.416571     2.405391     2.394212     2.383032     2.371853     2.360673
      2.349494     2.338315     2.327135     2.315956     2.304776     2.293597     2.282417     2.271238     2.260058     2.248879
      2.237700     2.226520     2.215341     2.204161     2.192982     2.181802     2.170623     2.159443     2.148264     2.137084
      2.125905     2.114726     2.103546     2.092367     2.081187     2.070008     2.058828     2.047649     2.036469     2.025290
      2.014111     2.002931     1.991752     1.980572     1.969393     1.958213     1.947034     1.935854     1.924675     1.913496
      1.902316     1.891137     1.879957     1.868778     1.857598     1.846419     1.835239     1.824060     1.812881     1.801701
      1.790522     1.779342     1.768163     1.756983     1.745804     1.734624     1.723445     1.712265     1.701086     1.689907
      1.678727     1.667548     1.656368     1.645189     1.634009     1.622830     1.611650     1.600471     1.589292     1.578112
      1.566933     1.555753     1.544574     1.533394     1.522215     1.511035     1.499856     1.488677     1.477497     1.466318
      1.455138     1.443959     1.432779     1.421600     1.410420     1.399241     1.388062     1.376882     1.365703     1.354523
      1.343344     1.332164     1.320985     1.309805     1.298626     1.287446     1.276267     1.265088     1.253908     1.242729
      1.231549     1.220370     1.209190     1.198011     1.186831     1.175652     1.164473     1.153293     1.142114     1.130934
      1.119755     1.108575     1.097396     1.086216     1.075037     1.063858     1.052678     1.041499     1.030319     1.019140
      1.007960     0.996781     0.985601     0.974422     0.963243     0.952063     0.940884     0.929704     0.918525     0.907345
      0.896166     0.884986     0.873807     0.862628     0.851448     0.840269     0.829089     0.817910     0.806730     0.795551
      0.784371     0.773192     0.762012     0.750833     0.739654     0.728474     0.717295     0.706115     0.694936     0.683756
      0.672577     0.661397     0.650218     0.639039     0.627859     0.616680     0.605500     0.594321     0.583141     0.571962
      0.560782     0.549603     0.538424     0.527244     0.516065     0.504885     0.493706     0.482526     0.471347     0.460167
      0.448988     0.437809     0.426629     0.415450     0.404270     0.393091     0.381911     0.370732     0.359552     0.348373
      0.337193     0.326014     0.314835     0.303655     0.292476     0.281296     0.270117     0.258937     0.247758     0.236578
      0.225399     0.214220     0.203040
 NY phased data points follow
   4.98284E-09  5.96744E-09  4.53969E-09  6.22567E-09  5.44607E-09  7.16410E-09  5.89106E-09  7.28940E-09  6.52397E-09  7.84617E-09
   6.75211E-09  8.11799E-09  5.99583E-09  7.48898E-09  6.26659E-09  7.04398E-09  5.65373E-09  7.49237E-09  5.72629E-09  8.11565E-09
   6.52758E-09  7.82762E-09  5.89527E-09  7.11164E-09  5.82386E-09  8.38324E-09  7.30327E-09  9.19821E-09  8.30406E-09  8.89218E-09
   6.91401E-09  7.63065E-09  5.63792E-09  6.88281E-09  5.40557E-09  6.96543E-09  5.67236E-09  6.71669E-09  5.53599E-09  6.99268E-09
   4.99051E-09  6.47392E-09  4.83648E-09  5.73932E-09  5.11038E-09  6.35225E-09  5.11708E-09  6.52929E-09  4.89428E-09  6.04881E-09
   4.29503E-09  5.42842E-09  4.56912E-09  6.10672E-09  4.88575E-09  6.35095E-09  5.97602E-09  8.15121E-09  8.54808E-09  1.01483E-08
   8.65828E-09  8.90964E-09  7.47601E-09  8.18894E-09  6.52353E-09  7.04753E-09  5.91286E-09  6.36248E-09  5.13078E-09  5.47494E-09
   4.66400E-09  5.17077E-09  4.55382E-09  6.80375E-09  9.02330E-09  1.15800E-08  1.15215E-08  1.13922E-08  1.02392E-08  1.01210E-08
   9.75557E-09  9.60488E-09  8.74480E-09  9.36979E-09  8.39376E-09  9.08717E-09  7.90019E-09  8.96316E-09  7.79769E-09  8.13874E-09
   7.38503E-09  7.54650E-09  6.80133E-09  7.02844E-09  5.88503E-09  6.35954E-09  6.05656E-09  6.61780E-09  5.87858E-09  6.36567E-09
   5.88037E-09  6.30968E-09  6.04913E-09  5.83284E-09  5.09506E-09  5.29630E-09  4.10831E-09  4.46732E-09  4.50508E-09  5.65732E-09
   4.88633E-09  5.60607E-09  5.35300E-09  6.00093E-09  5.12302E-09  6.00895E-09  5.63154E-09  5.57398E-09  5.01077E-09  5.38155E-09
   4.45285E-09  4.20863E-09  4.46393E-09  4.72660E-09  3.99426E-09  4.46865E-09  4.50877E-09  5.30807E-09  4.72376E-09  5.46433E-09
   5.34617E-09  5.06178E-09  5.31684E-09  4.86312E-09  4.97073E-09  6.16522E-09  6.36548E-09  6.69692E-09  6.78664E-09  6.67496E-09
   7.42461E-09  7.74681E-09  7.60240E-09  7.97013E-09  8.32883E-09  7.76614E-09  8.20799E-09  7.72717E-09  8.05454E-09  7.93530E-09
   7.73622E-09  7.61367E-09  8.03031E-09  8.38812E-09  8.21123E-09  8.04031E-09  7.93176E-09  8.11323E-09  8.21212E-09  8.24155E-09
   7.84349E-09  7.60331E-09  8.12732E-09  6.39853E-09  5.63651E-09  6.97132E-09  1.10100E-08  1.37879E-08  1.59202E-08  1.56969E-08
   1.67947E-08  1.67155E-08  1.66027E-08  1.62284E-08  1.62386E-08  1.56276E-08  1.57857E-08  1.47015E-08  1.50396E-08  1.34094E-08
   1.31925E-08  1.15603E-08  1.00028E-08  8.41227E-09  6.54931E-09  4.49170E-09  3.02830E-09  6.67200E-10 -8.14400E-10 -2.97313E-09
  -3.94249E-09 -5.83194E-09 -6.25919E-09 -7.09713E-09 -7.27615E-09 -7.52395E-09 -6.57537E-09 -6.42671E-09 -5.46192E-09 -5.15659E-09
  -3.76059E-09 -3.45825E-09 -2.21990E-09 -1.89758E-09 -1.34911E-09 -1.24669E-09 -4.13797E-10 -1.71271E-09 -5.28247E-10 -1.80084E-09
  -1.08307E-09 -1.53242E-09 -1.34502E-09 -1.02046E-09 -8.29949E-10 -1.14199E-09 -3.74285E-10 -8.11989E-10  3.10846E-12 -8.15455E-10
  -2.12785E-10 -9.99357E-10 -6.93904E-10 -7.47696E-10 -7.85149E-10 -1.07855E-09 -3.80183E-10 -2.59827E-10  5.93493E-11 -3.88938E-10
  -2.83787E-10 -5.48685E-10 -1.16464E-10 -4.59692E-10 -3.32627E-10 -6.36576E-10 -1.02709E-09 -1.10392E-09 -6.15532E-10 -1.06771E-09
  -7.05547E-10 -8.39925E-10 -3.37119E-11 -4.41843E-10 -7.42237E-11 -5.72119E-10  6.12642E-11 -6.74426E-10  2.89118E-11 -5.75264E-10
  -4.09097E-10 -3.65553E-10 -2.24469E-10 -4.78882E-10 -5.48109E-10 -3.89288E-10 -5.08175E-10 -5.30736E-10 -9.18454E-10 -1.30004E-09
  -3.77383E-10 -1.45584E-09 -1.16108E-09 -1.36447E-09 -1.16402E-09 -1.54319E-09 -1.20286E-09 -1.79823E-09 -1.26978E-09 -1.46390E-09
  -7.57490E-10 -9.92186E-10 -2.46713E-10 -7.07312E-10 -1.57583E-10 -3.23199E-10 -1.88355E-10 -3.88013E-10  7.90112E-12 -2.01581E-10
   3.23023E-10  2.66756E-11  2.71843E-10  1.37319E-10  1.48185E-10 -2.80972E-10  3.54244E-10  6.96004E-11  5.76842E-10 -2.25121E-10
   3.06567E-10 -1.57046E-10  5.22053E-10 -6.77678E-11  2.85704E-10  3.45529E-10 -1.75987E-10 -1.04757E-10  6.55605E-10 -3.47151E-10
   4.14158E-10 -1.82824E-10  6.20001E-10  3.55783E-11  4.30641E-10  9.49453E-11  5.02919E-11  7.94799E-11 -4.43918E-11 -1.93961E-10
  -2.62400E-11 -3.35563E-10  1.57268E-10 -4.57311E-11 -5.61607E-11 -3.47583E-10  3.32613E-10  9.39804E-13  1.09302E-10 -4.20637E-10
  -1.22352E-10 -2.51633E-10  7.08654E-11 -1.50660E-10 -2.09536E-10 -7.12055E-11 -1.12115E-10 -2.07803E-10  8.87889E-11 -3.10161E-10
   1.95359E-10 -2.48314E-10  2.44338E-12 -3.76288E-10 -3.26149E-10 -5.56441E-10  6.03475E-11 -5.84411E-10 -3.31964E-10 -5.06881E-10
  -4.47247E-10 -3.55197E-10 -1.44467E-11 -7.37383E-10 -4.52202E-10 -1.36667E-10 -8.41025E-11 -5.84152E-10 -4.56950E-10 -3.24005E-10
  -2.97337E-10 -4.59658E-10 -4.99027E-10 -6.13233E-10 -2.61651E-10 -4.75217E-10 -3.45409E-10 -2.67571E-10  5.07883E-12 -7.90040E-10
  -2.63269E-10 -5.39343E-10 -2.62954E-10
 NY points of the fit to the data follow
   6.46842E-09  6.34193E-09  6.01596E-09  5.37654E-09  5.23194E-09  5.94727E-09  6.30040E-09  5.99170E-09  7.23623E-09  8.49095E-09
   7.35257E-09  7.03934E-09  7.10043E-09  6.69754E-09  6.75528E-09  7.22622E-09  6.22379E-09  6.50265E-09  7.94360E-09  7.66885E-09
   6.21310E-09  5.89378E-09  6.49310E-09  7.10454E-09  7.00392E-09  7.86593E-09  8.14277E-09  8.74847E-09  8.30639E-09  7.27352E-09
   6.99819E-09  7.50368E-09  7.17710E-09  6.67445E-09  6.02467E-09  6.40295E-09  5.84639E-09  5.67221E-09  5.58819E-09  5.63873E-09
   5.39043E-09  5.52819E-09  5.58048E-09  5.24909E-09  5.31736E-09  5.41389E-09  5.54581E-09  5.18471E-09  4.88566E-09  5.26409E-09
   5.39313E-09  5.66583E-09  6.05082E-09  6.65122E-09  6.91843E-09  7.60024E-09  7.01904E-09  7.34445E-09  7.96547E-09  8.17709E-09
   7.93557E-09  7.98010E-09  7.86625E-09  7.74502E-09  7.83960E-09  7.52029E-09  6.93759E-09  7.14401E-09  6.79573E-09  6.34394E-09
   6.58165E-09  7.08594E-09  7.29519E-09  7.26515E-09  8.04846E-09  9.05656E-09  9.50326E-09  9.89755E-09  1.01867E-08  1.03745E-08
   1.03294E-08  1.01380E-08  9.85575E-09  9.36024E-09  9.23810E-09  9.14736E-09  8.40507E-09  7.35011E-09  6.71567E-09  6.45276E-09
   6.25157E-09  6.03866E-09  6.05367E-09  6.09624E-09  5.81022E-09  5.80368E-09  5.86835E-09  5.68928E-09  5.66413E-09  5.65175E-09
   5.60110E-09  5.59701E-09  5.60205E-09  5.60616E-09  5.61877E-09  5.63797E-09  5.66053E-09  5.68625E-09  5.71312E-09  5.74098E-09
   5.76956E-09  5.79825E-09  5.82684E-09  5.85511E-09  5.88274E-09  5.90973E-09  5.93589E-09  5.96102E-09  5.98500E-09  6.00772E-09
   6.02905E-09  6.04893E-09  6.06726E-09  6.08395E-09  6.09891E-09  6.11208E-09  6.12339E-09  6.13274E-09  6.14008E-09  6.14535E-09
   6.14848E-09  6.14941E-09  6.14809E-09  6.14445E-09  6.13846E-09  6.13004E-09  6.11916E-09  6.10577E-09  6.08981E-09  6.07127E-09
   6.05008E-09  6.02623E-09  5.99969E-09  5.97044E-09  5.93844E-09  5.90371E-09  5.86624E-09  5.82606E-09  5.78320E-09  5.73772E-09
   5.68971E-09  5.63930E-09  5.58667E-09  5.53208E-09  5.47590E-09  5.41864E-09  5.36108E-09  5.30444E-09  5.25058E-09  5.20228E-09
   5.16396E-09  5.14318E-09  5.15407E-09  5.22638E-09  5.43485E-09  6.02728E-09  8.26241E-09  1.40483E-08  1.58934E-08  1.62729E-08
   1.68096E-08  1.72067E-08  1.68958E-08  1.65087E-08  1.60978E-08  1.58167E-08  1.60556E-08  1.71558E-08  1.01170E-08  5.28180E-09
   3.96026E-09  3.36499E-09  2.99998E-09  2.73336E-09  2.51705E-09  2.32983E-09  2.16092E-09  2.00441E-09  1.85685E-09  1.71606E-09
   1.58068E-09  1.44982E-09  1.32287E-09  1.19948E-09  1.07935E-09  9.62365E-10  8.48423E-10  7.37510E-10  6.29599E-10  5.24751E-10
   4.23011E-10  3.24446E-10  2.29147E-10  1.37199E-10  4.87110E-11 -3.62144E-11 -1.17439E-10 -1.94889E-10 -2.68448E-10 -3.38215E-10
  -4.04269E-10 -4.66704E-10 -5.25601E-10 -5.81055E-10 -6.33139E-10 -6.81948E-10 -7.27556E-10 -7.70038E-10 -8.09490E-10 -8.45988E-10
  -8.79597E-10 -9.10410E-10 -9.38505E-10 -9.63953E-10 -9.86839E-10 -1.00724E-09 -1.02521E-09 -1.04087E-09 -1.05427E-09 -1.06548E-09
  -1.07459E-09 -1.08167E-09 -1.08679E-09 -1.09005E-09 -1.09150E-09 -1.09124E-09 -1.08933E-09 -1.08584E-09 -1.08085E-09 -1.07445E-09
  -1.06670E-09 -1.05767E-09 -1.04746E-09 -1.03612E-09 -1.02374E-09 -1.01039E-09 -9.96152E-10 -9.81106E-10 -9.65297E-10 -9.48815E-10
  -9.31749E-10 -9.14173E-10 -8.96148E-10 -8.77742E-10 -8.59069E-10 -8.40157E-10 -8.21111E-10 -8.01990E-10 -7.82883E-10 -7.63866E-10
  -7.44963E-10 -7.26196E-10 -7.07574E-10 -6.89099E-10 -6.70781E-10 -6.52628E-10 -6.34646E-10 -6.16844E-10 -5.99226E-10 -5.81802E-10
  -5.64580E-10 -5.47564E-10 -5.30766E-10 -5.14187E-10 -4.97835E-10 -4.81724E-10 -4.65855E-10 -4.50237E-10 -4.34875E-10 -4.19782E-10
  -4.04957E-10 -3.90416E-10 -3.76156E-10 -3.62190E-10 -3.48530E-10 -3.35178E-10 -3.22137E-10 -3.09419E-10 -2.97034E-10 -2.84987E-10
  -2.73283E-10 -2.61926E-10 -2.50927E-10 -2.40300E-10 -2.30040E-10 -2.20165E-10 -2.10673E-10 -2.01574E-10 -1.92875E-10 -1.84589E-10
  -1.76720E-10 -1.69263E-10 -1.62245E-10 -1.55659E-10 -1.49516E-10 -1.43829E-10 -1.38599E-10 -1.33828E-10 -1.29539E-10 -1.25720E-10
  -1.22394E-10 -1.19567E-10 -1.17220E-10 -1.15346E-10 -1.13936E-10 -1.12977E-10 -1.12457E-10 -1.12364E-10 -1.12686E-10 -1.13411E-10
  -1.14529E-10 -1.16022E-10 -1.17884E-10 -1.20101E-10 -1.22661E-10 -1.25552E-10 -1.28761E-10 -1.32277E-10 -1.36088E-10 -1.40180E-10
  -1.44546E-10 -1.49170E-10 -1.54038E-10 -1.59144E-10 -1.64471E-10 -1.70008E-10 -1.75746E-10 -1.81669E-10 -1.87767E-10 -1.94027E-10
  -2.00438E-10 -2.06988E-10 -2.13664E-10 -2.20455E-10 -2.27347E-10 -2.34329E-10 -2.41393E-10 -2.48521E-10 -2.55704E-10 -2.62927E-10
  -2.70183E-10 -2.77456E-10 -2.84737E-10 -2.92010E-10 -2.99263E-10 -3.06491E-10 -3.13678E-10 -3.20805E-10 -3.27871E-10 -3.34857E-10
  -3.41754E-10 -3.48550E-10 -3.55230E-10
 NY background values follow
    -4.108E-09   -4.010E-09   -3.912E-09   -3.814E-09   -3.716E-09   -3.619E-09   -3.521E-09   -3.423E-09   -3.326E-09   -3.228E-09
    -3.131E-09   -3.033E-09   -2.936E-09   -2.839E-09   -2.742E-09   -2.645E-09   -2.548E-09   -2.451E-09   -2.355E-09   -2.258E-09
    -2.162E-09   -2.066E-09   -1.970E-09   -1.874E-09   -1.779E-09   -1.683E-09   -1.588E-09   -1.493E-09   -1.398E-09   -1.304E-09
    -1.209E-09   -1.115E-09   -1.021E-09   -9.275E-10   -8.341E-10   -7.410E-10   -6.481E-10   -5.554E-10   -4.631E-10   -3.710E-10
    -2.793E-10   -1.878E-10   -9.664E-11   -5.811E-12    8.471E-11    1.749E-10    2.647E-10    3.542E-10    4.434E-10    5.321E-10
     6.206E-10    7.086E-10    7.963E-10    8.836E-10    9.704E-10    1.057E-09    1.143E-09    1.229E-09    1.314E-09    1.398E-09
     1.482E-09    1.566E-09    1.649E-09    1.732E-09    1.814E-09    1.896E-09    1.977E-09    2.057E-09    2.137E-09    2.216E-09
     2.295E-09    2.373E-09    2.451E-09    2.527E-09    2.604E-09    2.679E-09    2.754E-09    2.828E-09    2.901E-09    2.974E-09
     3.046E-09    3.117E-09    3.187E-09    3.257E-09    3.326E-09    3.394E-09    3.461E-09    3.528E-09    3.593E-09    3.658E-09
     3.722E-09    3.785E-09    3.847E-09    3.908E-09    3.969E-09    4.028E-09    4.087E-09    4.144E-09    4.201E-09    4.256E-09
     4.311E-09    4.364E-09    4.417E-09    4.468E-09    4.519E-09    4.568E-09    4.617E-09    4.664E-09    4.710E-09    4.754E-09
     4.798E-09    4.840E-09    4.880E-09    4.919E-09    4.956E-09    4.992E-09    5.026E-09    5.059E-09    5.090E-09    5.118E-09
     5.145E-09    5.171E-09    5.194E-09    5.215E-09    5.234E-09    5.251E-09    5.266E-09    5.278E-09    5.289E-09    5.297E-09
     5.302E-09    5.305E-09    5.306E-09    5.304E-09    5.300E-09    5.293E-09    5.283E-09    5.270E-09    5.255E-09    5.237E-09
     5.216E-09    5.192E-09    5.165E-09    5.134E-09    5.101E-09    5.065E-09    5.025E-09    4.982E-09    4.936E-09    4.886E-09
     4.833E-09    4.777E-09    4.717E-09    4.653E-09    4.586E-09    4.515E-09    4.440E-09    4.362E-09    4.280E-09    4.195E-09
     4.107E-09    4.016E-09    3.921E-09    3.824E-09    3.725E-09    3.623E-09    3.518E-09    3.412E-09    3.303E-09    3.193E-09
     3.080E-09    2.966E-09    2.851E-09    2.735E-09    2.617E-09    2.498E-09    2.378E-09    2.258E-09    2.137E-09    2.016E-09
     1.894E-09    1.772E-09    1.650E-09    1.528E-09    1.407E-09    1.286E-09    1.165E-09    1.046E-09    9.266E-10    8.087E-10
     6.920E-10    5.765E-10    4.625E-10    3.501E-10    2.394E-10    1.306E-10    2.376E-11   -8.087E-11   -1.832E-10   -2.831E-10
    -3.804E-10   -4.749E-10   -5.666E-10   -6.552E-10   -7.407E-10   -8.228E-10   -9.015E-10   -9.766E-10   -1.048E-09   -1.116E-09
    -1.180E-09   -1.240E-09   -1.298E-09   -1.352E-09   -1.402E-09   -1.450E-09   -1.494E-09   -1.535E-09   -1.573E-09   -1.609E-09
    -1.641E-09   -1.671E-09   -1.698E-09   -1.723E-09   -1.745E-09   -1.764E-09   -1.781E-09   -1.796E-09   -1.809E-09   -1.819E-09
    -1.827E-09   -1.834E-09   -1.838E-09   -1.841E-09   -1.842E-09   -1.841E-09   -1.838E-09   -1.834E-09   -1.829E-09   -1.822E-09
    -1.813E-09   -1.804E-09   -1.793E-09   -1.781E-09   -1.768E-09   -1.754E-09   -1.740E-09   -1.724E-09   -1.708E-09   -1.691E-09
    -1.673E-09   -1.655E-09   -1.637E-09   -1.618E-09   -1.599E-09   -1.580E-09   -1.560E-09   -1.541E-09   -1.521E-09   -1.502E-09
    -1.482E-09   -1.463E-09   -1.444E-09   -1.425E-09   -1.407E-09   -1.388E-09   -1.370E-09   -1.352E-09   -1.334E-09   -1.316E-09
    -1.298E-09   -1.281E-09   -1.264E-09   -1.247E-09   -1.230E-09   -1.214E-09   -1.198E-09   -1.182E-09   -1.166E-09   -1.150E-09
    -1.135E-09   -1.120E-09   -1.106E-09   -1.092E-09   -1.078E-09   -1.064E-09   -1.050E-09   -1.037E-09   -1.025E-09   -1.012E-09
    -1.000E-09   -9.887E-10   -9.773E-10   -9.664E-10   -9.558E-10   -9.456E-10   -9.358E-10   -9.264E-10   -9.174E-10   -9.088E-10
    -9.006E-10   -8.928E-10   -8.855E-10   -8.786E-10   -8.722E-10   -8.662E-10   -8.606E-10   -8.555E-10   -8.509E-10   -8.468E-10
    -8.432E-10   -8.400E-10   -8.374E-10   -8.352E-10   -8.334E-10   -8.322E-10   -8.313E-10   -8.309E-10   -8.309E-10   -8.314E-10
    -8.322E-10   -8.333E-10   -8.349E-10   -8.368E-10   -8.390E-10   -8.416E-10   -8.445E-10   -8.477E-10   -8.512E-10   -8.549E-10
    -8.590E-10   -8.633E-10   -8.678E-10   -8.726E-10   -8.776E-10   -8.828E-10   -8.882E-10   -8.938E-10   -8.996E-10   -9.055E-10
    -9.116E-10   -9.178E-10   -9.242E-10   -9.306E-10   -9.372E-10   -9.438E-10   -9.505E-10   -9.573E-10   -9.642E-10   -9.710E-10
    -9.779E-10   -9.849E-10   -9.918E-10   -9.987E-10   -1.006E-09   -1.012E-09   -1.019E-09   -1.026E-09   -1.033E-09   -1.039E-09
    -1.046E-09   -1.052E-09   -1.059E-09
 Asp      Conc. = 1.60E-09
  -2.28831E-09 -2.20383E-09 -2.57738E-09 -2.54667E-09 -2.60652E-09 -2.80502E-09 -2.63151E-09 -2.90071E-09 -2.98317E-09 -2.96841E-09
  -2.91708E-09 -2.84858E-09 -2.77103E-09 -2.68889E-09 -2.59674E-09 -2.50474E-09 -2.41176E-09 -2.31767E-09 -2.22265E-09 -2.12679E-09
  -2.03024E-09 -1.93303E-09 -1.83518E-09 -1.73668E-09 -1.63751E-09 -1.53755E-09 -1.43669E-09 -1.33473E-09 -1.23140E-09 -1.12628E-09
  -1.01877E-09 -9.08031E-10 -7.92574E-10 -6.69946E-10 -5.35347E-10 -3.77861E-10 -1.66402E-10  7.90212E-11  2.49726E-10  4.07036E-10
   4.80111E-10  5.99461E-10  7.78836E-10  1.22266E-09  1.46848E-09  2.26376E-09  2.42759E-09  2.45480E-09  2.48870E-09  2.88419E-09
   2.80861E-09  2.97406E-09  3.24679E-09  3.46611E-09  3.06830E-09  3.45749E-09  2.68589E-09  2.36401E-09  2.53512E-09  2.82083E-09
   2.41755E-09  2.36620E-09  2.45910E-09  2.28252E-09  2.28991E-09  2.53295E-09  2.52808E-09  2.47891E-09  2.48581E-09  2.51780E-09
   2.56282E-09  2.61548E-09  2.67298E-09  2.73368E-09  2.79655E-09  2.86090E-09  2.92623E-09  2.99218E-09  3.05852E-09  3.12501E-09
   3.19150E-09  3.25785E-09  3.32397E-09  3.38976E-09  3.45515E-09  3.52007E-09  3.58447E-09  3.64831E-09  3.71154E-09  3.77411E-09
   3.83600E-09  3.89717E-09  3.95761E-09  4.01726E-09  4.07612E-09  4.13416E-09  4.19137E-09  4.24770E-09  4.30315E-09  4.35770E-09
   4.41131E-09  4.46400E-09  4.51573E-09  4.56648E-09  4.61625E-09  4.66498E-09  4.71263E-09  4.75914E-09  4.80445E-09  4.84851E-09
   4.89128E-09  4.93268E-09  4.97268E-09  5.01121E-09  5.04822E-09  5.08365E-09  5.11747E-09  5.14960E-09  5.18000E-09  5.20862E-09
   5.23540E-09  5.26028E-09  5.28323E-09  5.30418E-09  5.32308E-09  5.33988E-09  5.35453E-09  5.36697E-09  5.37716E-09  5.38504E-09
   5.39055E-09  5.39365E-09  5.39430E-09  5.39242E-09  5.38798E-09  5.38092E-09  5.37120E-09  5.35875E-09  5.34355E-09  5.32552E-09
   5.30463E-09  5.28083E-09  5.25406E-09  5.22430E-09  5.19148E-09  5.15556E-09  5.11652E-09  5.07429E-09  5.02885E-09  4.98017E-09
   4.92821E-09  4.87297E-09  4.81443E-09  4.75258E-09  4.68744E-09  4.61907E-09  4.54757E-09  4.47320E-09  4.39639E-09  4.31771E-09
   4.23796E-09  4.15837E-09  4.08109E-09  4.01021E-09  3.95492E-09  3.94078E-09  4.06767E-09  4.92654E-09  5.50510E-09  5.43327E-09
   5.44595E-09  5.44260E-09  5.33265E-09  5.15524E-09  4.98774E-09  4.82798E-09  4.68437E-09  4.93569E-09  4.03764E-09  2.65514E-09
   2.24367E-09  2.01552E-09  1.84164E-09  1.68996E-09  1.54939E-09  1.41530E-09  1.28544E-09  1.15864E-09  1.03434E-09  9.12185E-10
   7.91998E-10  6.73740E-10  5.57380E-10  4.43000E-10  3.30623E-10  2.20361E-10  1.12303E-10  6.57853E-12 -9.67255E-11 -1.97458E-10
  -2.95500E-10 -3.90726E-10 -4.82993E-10 -5.72177E-10 -6.58135E-10 -7.40734E-10 -8.19812E-10 -8.95275E-10 -9.66988E-10 -1.03504E-09
  -1.09948E-09 -1.16041E-09 -1.21790E-09 -1.27202E-09 -1.32285E-09 -1.37047E-09 -1.41495E-09 -1.45636E-09 -1.49480E-09 -1.53032E-09
  -1.56301E-09 -1.59293E-09 -1.62018E-09 -1.64481E-09 -1.66692E-09 -1.68656E-09 -1.70381E-09 -1.71877E-09 -1.73150E-09 -1.74206E-09
  -1.75053E-09 -1.75700E-09 -1.76153E-09 -1.76421E-09 -1.76510E-09 -1.76429E-09 -1.76185E-09 -1.75784E-09 -1.75236E-09 -1.74546E-09
  -1.73722E-09 -1.72773E-09 -1.71705E-09 -1.70527E-09 -1.69244E-09 -1.67866E-09 -1.66399E-09 -1.64853E-09 -1.63231E-09 -1.61543E-09
  -1.59796E-09 -1.58000E-09 -1.56159E-09 -1.54280E-09 -1.52376E-09 -1.50448E-09 -1.48507E-09 -1.46559E-09 -1.44613E-09 -1.42676E-09
  -1.40751E-09 -1.38840E-09 -1.36944E-09 -1.35063E-09 -1.33198E-09 -1.31350E-09 -1.29520E-09 -1.27707E-09 -1.25914E-09 -1.24140E-09
  -1.22386E-09 -1.20653E-09 -1.18942E-09 -1.17254E-09 -1.15588E-09 -1.13947E-09 -1.12330E-09 -1.10738E-09 -1.09172E-09 -1.07633E-09
  -1.06121E-09 -1.04638E-09 -1.03183E-09 -1.01757E-09 -1.00362E-09 -9.89985E-10 -9.76657E-10 -9.63653E-10 -9.50983E-10 -9.38653E-10
  -9.26666E-10 -9.15027E-10 -9.03747E-10 -8.92839E-10 -8.82297E-10 -8.72143E-10 -8.62371E-10 -8.52993E-10 -8.44016E-10 -8.35451E-10
  -8.27305E-10 -8.19570E-10 -8.12275E-10 -8.05411E-10 -7.98990E-10 -7.93027E-10 -7.87521E-10 -7.82472E-10 -7.77907E-10 -7.73811E-10
  -7.70208E-10 -7.67103E-10 -7.64478E-10 -7.62327E-10 -7.60638E-10 -7.59401E-10 -7.58602E-10 -7.58229E-10 -7.58272E-10 -7.58717E-10
  -7.59554E-10 -7.60767E-10 -7.62347E-10 -7.64282E-10 -7.66559E-10 -7.69166E-10 -7.72092E-10 -7.75324E-10 -7.78849E-10 -7.82655E-10
  -7.86734E-10 -7.91071E-10 -7.95650E-10 -8.00467E-10 -8.05503E-10 -8.10749E-10 -8.16195E-10 -8.21825E-10 -8.27628E-10 -8.33593E-10
  -8.39708E-10 -8.45960E-10 -8.52338E-10 -8.58829E-10 -8.65420E-10 -8.72100E-10 -8.78860E-10 -8.85683E-10 -8.92559E-10 -8.99475E-10
  -9.06422E-10 -9.13384E-10 -9.20354E-10 -9.27313E-10 -9.34252E-10 -9.41163E-10 -9.48032E-10 -9.54840E-10 -9.61585E-10 -9.68249E-10
  -9.74821E-10 -9.81290E-10 -9.87643E-10
 GABA     Conc. = 4.85E-10
  -4.05665E-09 -3.95814E-09 -3.85960E-09 -3.76104E-09 -3.66244E-09 -3.56382E-09 -3.46518E-09 -3.36651E-09 -3.26780E-09 -3.16902E-09
  -3.07023E-09 -2.97135E-09 -2.87235E-09 -2.77332E-09 -2.67403E-09 -2.57462E-09 -2.47511E-09 -2.37509E-09 -2.27474E-09 -2.17394E-09
  -2.07235E-09 -1.96974E-09 -1.86571E-09 -1.75973E-09 -1.65058E-09 -1.53682E-09 -1.41488E-09 -1.27657E-09 -1.09996E-09 -8.27410E-10
  -7.60128E-10 -5.96823E-10 -1.72298E-10 -5.92539E-11  6.54526E-12  2.77980E-10  4.20156E-10  5.10794E-10  6.00583E-10  7.27582E-10
   5.34498E-10  6.12918E-10  8.76756E-10  5.47657E-10  4.57785E-10  6.77711E-10  5.86483E-10  5.72834E-10  6.15967E-10  6.80598E-10
   7.55817E-10  8.36522E-10  9.21093E-10  1.00872E-09  1.09906E-09  1.19199E-09  1.28825E-09  1.38918E-09  1.49682E-09  1.61733E-09
   1.76445E-09  1.98036E-09  2.19347E-09  2.24996E-09  2.52302E-09  2.79811E-09  2.82110E-09  2.93014E-09  3.08750E-09  3.16253E-09
   3.21709E-09  3.29478E-09  3.27951E-09  3.09700E-09  3.27832E-09  3.27812E-09  3.00013E-09  3.08378E-09  3.17033E-09  3.19352E-09
   3.28550E-09  3.29249E-09  3.42747E-09  3.66162E-09  3.68808E-09  3.79756E-09  4.01746E-09  4.09613E-09  4.16965E-09  4.32950E-09
   4.41252E-09  4.35370E-09  4.50453E-09  4.63389E-09  4.43332E-09  4.50510E-09  4.63118E-09  4.50564E-09  4.50441E-09  4.55191E-09
   4.54853E-09  4.56282E-09  4.58857E-09  4.62049E-09  4.65610E-09  4.69367E-09  4.73231E-09  4.77142E-09  4.81056E-09  4.84943E-09
   4.88793E-09  4.92558E-09  4.96229E-09  4.99795E-09  5.03234E-09  5.06552E-09  5.09737E-09  5.12773E-09  5.15653E-09  5.18371E-09
   5.20915E-09  5.23283E-09  5.25467E-09  5.27460E-09  5.29256E-09  5.30849E-09  5.32233E-09  5.33400E-09  5.34347E-09  5.35067E-09
   5.35553E-09  5.35801E-09  5.35806E-09  5.35560E-09  5.35061E-09  5.34300E-09  5.33274E-09  5.31976E-09  5.30402E-09  5.28545E-09
   5.26402E-09  5.23965E-09  5.21232E-09  5.18195E-09  5.14850E-09  5.11192E-09  5.07215E-09  5.02915E-09  4.98288E-09  4.93328E-09
   4.88030E-09  4.82391E-09  4.76407E-09  4.70073E-09  4.63387E-09  4.56347E-09  4.48954E-09  4.41223E-09  4.33179E-09  4.24851E-09
   4.16279E-09  4.07520E-09  3.98670E-09  3.89922E-09  3.81748E-09  3.75699E-09  3.79793E-09  4.11243E-09  4.00303E-09  3.93619E-09
   3.85735E-09  3.77481E-09  3.63346E-09  3.50704E-09  3.36989E-09  3.24659E-09  3.14682E-09  3.15603E-09  2.43957E-09  2.16608E-09
   1.99749E-09  1.85458E-09  1.72112E-09  1.59216E-09  1.46581E-09  1.34128E-09  1.21821E-09  1.09641E-09  9.75916E-10  8.56724E-10
   7.38896E-10  6.22549E-10  5.07756E-10  3.94678E-10  2.83396E-10  1.74062E-10  6.67976E-11 -3.82417E-11 -1.40951E-10 -2.41165E-10
  -3.38751E-10 -4.33574E-10 -5.25484E-10 -6.14350E-10 -7.00023E-10 -7.82368E-10 -8.61215E-10 -9.36469E-10 -1.00799E-09 -1.07587E-09
  -1.14016E-09 -1.20095E-09 -1.25830E-09 -1.31230E-09 -1.36301E-09 -1.41053E-09 -1.45492E-09 -1.49624E-09 -1.53459E-09 -1.57004E-09
  -1.60265E-09 -1.63251E-09 -1.65970E-09 -1.68427E-09 -1.70632E-09 -1.72592E-09 -1.74311E-09 -1.75802E-09 -1.77071E-09 -1.78122E-09
