 LCModel (Version 6.3-1R) Copyright: S.W. Provencher.          Ref.: Magn. Reson. Med. 30:672-679 (1993).                
 onepulse 12x12_ftSpec_smooth_lcm
 26 lines in following concentration table = NCONC+1
    Conc.  %SD   /Cr    Metabolite                                         
    0.000 999%   0.000 Ala                                                 
    0.000 999%   0.000 Asp                                                 
    0.000 999%   0.000 Cr                                                  
 1.36E-10 386%   0.000 GABA                                                
    0.000 999%   0.000 Glc                                                 
 1.29E-09  46%   0.000 Gln                                                 
    0.000 999%   0.000 Glu                                                 
 1.40E-09 107%   0.000 Glyc                                                
    0.000 999%   0.000 GPC                                                 
 9.74E-10  41%   0.000 GSH                                                 
 7.64E-10 165%   0.000 Ins                                                 
    0.000 999%   0.000 Lac                                                 
 1.64E-10 184%   0.000 NAAG                                                
 2.24E-10 196%   0.000 NAA                                                 
    0.000 999%   0.000 PCh                                                 
    0.000 999%   0.000 PCr                                                 
 1.60E-09  54%   0.000 PE                                                  
 1.53E-10 162%   0.000 Scyllo                                              
 3.09E-09  28%   0.000 Ser                                                 
 6.31E-10 135%   0.000 Tau                                                 
    0.000 999%   0.000 GPC+PCh                                             
 3.88E-10  70%   0.000 NAA+NAAG                                            
 2.16E-09  22%   0.000 Ins+Glyc                                            
    0.000 999%   0.000 Cr+PCr                                              
 1.29E-09  46%   0.000 Glu+Gln                                             
   6 lines in following misc. output table
  FWHM = 0.123 ppm    S/N =   3                                            
  Data shift = 0.425 ppm                                                   
  Ph: -15 deg     -51.5 deg/ppm                                            
  alphaB,S = 5.5E-01,   7.2E+00                                            
   11 spline knots.   Ns = 5(1)                                            
  ( 9)12 infls.   (11) 9 extrs.                                            
  363 points on ppm-axis = NY
      4.250000     4.238821     4.227641     4.216462     4.205282     4.194103     4.182923     4.171744     4.160564     4.149385
      4.138206     4.127026     4.115847     4.104667     4.093488     4.082308     4.071129     4.059949     4.048770     4.037591
      4.026411     4.015232     4.004052     3.992873     3.981693     3.970514     3.959334     3.948155     3.936975     3.925796
      3.914617     3.903437     3.892258     3.881078     3.869899     3.858719     3.847540     3.836360     3.825181     3.814002
      3.802822     3.791643     3.780463     3.769284     3.758104     3.746925     3.735745     3.724566     3.713387     3.702207
      3.691028     3.679848     3.668669     3.657489     3.646310     3.635130     3.623951     3.612772     3.601592     3.590413
      3.579233     3.568054     3.556874     3.545695     3.534515     3.523336     3.512156     3.500977     3.489798     3.478618
      3.467439     3.456259     3.445080     3.433900     3.422721     3.411541     3.400362     3.389183     3.378003     3.366824
      3.355644     3.344465     3.333285     3.322106     3.310926     3.299747     3.288568     3.277388     3.266209     3.255029
      3.243850     3.232670     3.221491     3.210311     3.199132     3.187953     3.176773     3.165594     3.154414     3.143235
      3.132055     3.120876     3.109696     3.098517     3.087337     3.076158     3.064979     3.053799     3.042620     3.031440
      3.020261     3.009081     2.997902     2.986722     2.975543     2.964364     2.953184     2.942005     2.930825     2.919646
      2.908466     2.897287     2.886107     2.874928     2.863749     2.852569     2.841390     2.830210     2.819031     2.807851
      2.796672     2.785492     2.774313     2.763134     2.751954     2.740775     2.729595     2.718416     2.707236     2.696057
      2.684877     2.673698     2.662519     2.651339     2.640160     2.628980     2.617801     2.606621     2.595442     2.584262
      2.573083     2.561903     2.550724     2.539545     2.528365     2.517186     2.506006     2.494827     2.483647     2.472468
      2.461288     2.450109     2.438930     2.427750     2.416571     2.405391     2.394212     2.383032     2.371853     2.360673
      2.349494     2.338315     2.327135     2.315956     2.304776     2.293597     2.282417     2.271238     2.260058     2.248879
      2.237700     2.226520     2.215341     2.204161     2.192982     2.181802     2.170623     2.159443     2.148264     2.137084
      2.125905     2.114726     2.103546     2.092367     2.081187     2.070008     2.058828     2.047649     2.036469     2.025290
      2.014111     2.002931     1.991752     1.980572     1.969393     1.958213     1.947034     1.935854     1.924675     1.913496
      1.902316     1.891137     1.879957     1.868778     1.857598     1.846419     1.835239     1.824060     1.812881     1.801701
      1.790522     1.779342     1.768163     1.756983     1.745804     1.734624     1.723445     1.712265     1.701086     1.689907
      1.678727     1.667548     1.656368     1.645189     1.634009     1.622830     1.611650     1.600471     1.589292     1.578112
      1.566933     1.555753     1.544574     1.533394     1.522215     1.511035     1.499856     1.488677     1.477497     1.466318
      1.455138     1.443959     1.432779     1.421600     1.410420     1.399241     1.388062     1.376882     1.365703     1.354523
      1.343344     1.332164     1.320985     1.309805     1.298626     1.287446     1.276267     1.265088     1.253908     1.242729
      1.231549     1.220370     1.209190     1.198011     1.186831     1.175652     1.164473     1.153293     1.142114     1.130934
      1.119755     1.108575     1.097396     1.086216     1.075037     1.063858     1.052678     1.041499     1.030319     1.019140
      1.007960     0.996781     0.985601     0.974422     0.963243     0.952063     0.940884     0.929704     0.918525     0.907345
      0.896166     0.884986     0.873807     0.862628     0.851448     0.840269     0.829089     0.817910     0.806730     0.795551
      0.784371     0.773192     0.762012     0.750833     0.739654     0.728474     0.717295     0.706115     0.694936     0.683756
      0.672577     0.661397     0.650218     0.639039     0.627859     0.616680     0.605500     0.594321     0.583141     0.571962
      0.560782     0.549603     0.538424     0.527244     0.516065     0.504885     0.493706     0.482526     0.471347     0.460167
      0.448988     0.437809     0.426629     0.415450     0.404270     0.393091     0.381911     0.370732     0.359552     0.348373
      0.337193     0.326014     0.314835     0.303655     0.292476     0.281296     0.270117     0.258937     0.247758     0.236578
      0.225399     0.214220     0.203040
 NY phased data points follow
   1.16605E-08  8.83650E-09  1.04317E-08  8.33793E-09  1.04431E-08  8.75356E-09  1.03528E-08  8.82063E-09  1.08563E-08  9.27131E-09
   1.19833E-08  9.83542E-09  1.09441E-08  9.71919E-09  1.10920E-08  8.93484E-09  1.06483E-08  8.77778E-09  1.03608E-08  9.59019E-09
   1.07929E-08  9.61970E-09  9.93048E-09  8.28220E-09  9.44854E-09  9.26263E-09  1.05662E-08  1.08020E-08  1.23627E-08  1.14368E-08
   1.19052E-08  1.06026E-08  1.09026E-08  9.70060E-09  1.01809E-08  9.78535E-09  9.95439E-09  9.22656E-09  1.01089E-08  9.10195E-09
   9.48806E-09  8.98214E-09  8.35255E-09  8.00477E-09  8.59413E-09  7.82258E-09  8.55721E-09  7.91117E-09  7.92584E-09  7.08382E-09
   6.78675E-09  6.19506E-09  6.36248E-09  5.78948E-09  5.39932E-09  5.46330E-09  5.86888E-09  7.53744E-09  9.02733E-09  9.86146E-09
   9.94353E-09  9.64953E-09  9.66849E-09  9.25922E-09  8.59406E-09  8.42816E-09  7.80346E-09  7.49004E-09  6.47877E-09  5.80805E-09
   4.68009E-09  3.72008E-09  3.13726E-09  5.37044E-09  7.80313E-09  1.04357E-08  1.08600E-08  1.13178E-08  1.05702E-08  1.11792E-08
   1.10250E-08  1.07796E-08  1.08359E-08  1.05595E-08  1.07088E-08  1.05675E-08  1.05827E-08  1.07829E-08  1.01856E-08  1.04266E-08
   9.68505E-09  9.79131E-09  9.26508E-09  8.95988E-09  8.16311E-09  8.45757E-09  8.29601E-09  8.24656E-09  7.88834E-09  8.11464E-09
   7.78574E-09  8.41552E-09  7.58399E-09  7.59929E-09  6.93480E-09  6.24326E-09  5.35524E-09  5.82962E-09  5.96806E-09  6.22912E-09
   5.88444E-09  6.55008E-09  6.29344E-09  6.53428E-09  6.24922E-09  7.14245E-09  6.33075E-09  6.55137E-09  5.83302E-09  5.98853E-09
   4.49691E-09  5.28298E-09  4.95604E-09  4.79077E-09  4.14289E-09  4.71767E-09  4.69946E-09  5.13868E-09  4.62128E-09  5.77614E-09
   4.42715E-09  5.50128E-09  4.35191E-09  4.67559E-09  5.02876E-09  6.22578E-09  5.74153E-09  7.00876E-09  5.69194E-09  7.29770E-09
   7.02647E-09  7.90095E-09  7.59043E-09  9.00064E-09  7.81446E-09  8.70572E-09  7.93243E-09  8.75640E-09  8.34867E-09  8.72063E-09
   7.84121E-09  8.86007E-09  8.57870E-09  9.23169E-09  8.61552E-09  9.10603E-09  8.61868E-09  9.40918E-09  8.79404E-09  9.12078E-09
   8.01743E-09  8.92757E-09  6.80506E-09  6.12650E-09  6.13008E-09  1.10135E-08  1.38339E-08  1.73182E-08  1.71400E-08  1.90481E-08
   1.88341E-08  1.96874E-08  1.91486E-08  1.97920E-08  1.87591E-08  1.95527E-08  1.84228E-08  1.93028E-08  1.72517E-08  1.74582E-08
   1.53029E-08  1.43127E-08  1.20858E-08  1.04229E-08  7.37095E-09  5.97899E-09  2.82547E-09  1.19770E-09 -1.77863E-09 -2.92871E-09
  -5.52501E-09 -6.12186E-09 -7.88673E-09 -7.99175E-09 -8.80881E-09 -7.84873E-09 -7.94207E-09 -6.63693E-09 -6.77754E-09 -4.67735E-09
  -4.57634E-09 -2.82479E-09 -2.64483E-09 -1.72586E-09 -1.90909E-09 -7.88945E-10 -2.42151E-09 -7.36790E-10 -2.40757E-09 -1.55232E-09
  -2.42112E-09 -1.57697E-09 -1.80255E-09 -1.11019E-09 -1.83086E-09 -6.20338E-10 -1.54919E-09 -2.92493E-10 -1.62784E-09 -6.42213E-10
  -1.80063E-09 -8.93744E-10 -1.78257E-09 -1.21388E-09 -1.76463E-09 -6.06963E-10 -1.08964E-09 -3.15763E-10 -1.30106E-09 -6.04915E-10
  -1.40386E-09 -5.28619E-10 -1.45500E-09 -8.71959E-10 -1.67958E-09 -1.59564E-09 -1.82607E-09 -9.28960E-10 -2.08183E-09 -1.07783E-09
  -1.60635E-09 -3.45760E-10 -1.25108E-09 -6.05461E-10 -1.23672E-09 -3.55972E-10 -1.72995E-09 -3.87855E-10 -1.57996E-09 -7.98761E-10
  -1.61445E-09 -7.95814E-10 -1.62312E-09 -1.22168E-09 -1.62984E-09 -1.23801E-09 -1.59275E-09 -1.78148E-09 -2.41843E-09 -1.24133E-09
  -2.58610E-09 -1.86104E-09 -2.53451E-09 -1.72680E-09 -2.47108E-09 -1.72846E-09 -2.59056E-09 -1.67135E-09 -2.14441E-09 -8.85306E-10
  -1.52368E-09 -5.49592E-10 -1.55314E-09 -3.02844E-10 -1.31560E-09 -4.63542E-10 -1.37423E-09 -4.12350E-10 -1.09304E-09 -3.25467E-10
  -1.18568E-09 -6.34859E-10 -1.16149E-09 -7.46467E-10 -1.42690E-09 -5.86517E-10 -1.33671E-09 -7.34490E-10 -1.91011E-09 -9.24431E-10
  -1.85667E-09 -9.85183E-10 -2.04492E-09 -8.09113E-10 -1.77813E-09 -1.72953E-09 -1.88470E-09 -1.22518E-09 -2.38486E-09 -1.23480E-09
  -2.26412E-09 -1.16396E-09 -2.34228E-09 -1.45364E-09 -2.54725E-09 -2.03759E-09 -2.52151E-09 -2.37789E-09 -2.55446E-09 -2.15208E-09
  -2.75414E-09 -2.16350E-09 -2.74999E-09 -2.28034E-09 -2.74048E-09 -2.34234E-09 -3.03332E-09 -2.37420E-09 -3.42133E-09 -2.65111E-09
  -3.25204E-09 -2.56975E-09 -3.29001E-09 -2.89403E-09 -3.09153E-09 -3.07950E-09 -3.36310E-09 -2.92386E-09 -3.37039E-09 -3.07895E-09
  -3.79301E-09 -3.34580E-09 -3.83287E-09 -3.66927E-09 -3.83970E-09 -3.13196E-09 -4.10996E-09 -3.48356E-09 -4.00361E-09 -3.59246E-09
  -3.63839E-09 -3.48902E-09 -4.45903E-09 -3.43328E-09 -3.90209E-09 -3.70636E-09 -4.53270E-09 -3.86815E-09 -4.06235E-09 -3.83385E-09
  -4.43015E-09 -4.19508E-09 -4.32005E-09 -3.79685E-09 -4.43585E-09 -3.94731E-09 -4.17359E-09 -4.02400E-09 -4.65382E-09 -3.95504E-09
  -4.67021E-09 -4.06630E-09 -4.96655E-09
 NY points of the fit to the data follow
   1.05639E-08  1.14503E-08  1.21185E-08  1.03924E-08  9.32582E-09  9.68418E-09  9.50111E-09  8.47359E-09  9.51753E-09  1.18873E-08
   1.04143E-08  9.74549E-09  9.49802E-09  9.28931E-09  9.55663E-09  9.78104E-09  9.52895E-09  9.83054E-09  1.23323E-08  1.19068E-08
   9.66853E-09  8.96276E-09  9.15302E-09  9.36449E-09  9.80519E-09  1.00706E-08  1.07745E-08  1.10828E-08  1.16599E-08  1.11328E-08
   1.11895E-08  1.12986E-08  1.11525E-08  1.05556E-08  1.06694E-08  1.00693E-08  9.78927E-09  9.40516E-09  9.07362E-09  8.86590E-09
   8.66680E-09  8.54730E-09  8.54521E-09  8.59301E-09  8.75162E-09  7.90394E-09  7.82994E-09  7.40687E-09  6.73342E-09  6.38096E-09
   6.30530E-09  6.33344E-09  6.17036E-09  6.36747E-09  6.91339E-09  7.18044E-09  7.25884E-09  7.86249E-09  8.53554E-09  8.79944E-09
   9.02197E-09  9.18427E-09  9.10663E-09  9.33517E-09  9.32502E-09  8.77149E-09  8.37685E-09  8.44878E-09  7.98104E-09  7.41185E-09
   7.31914E-09  7.38074E-09  7.64117E-09  7.63933E-09  7.93165E-09  8.55951E-09  9.19275E-09  1.01693E-08  1.07827E-08  1.13076E-08
   1.15984E-08  1.17137E-08  1.19196E-08  1.16304E-08  1.15885E-08  1.15330E-08  1.12359E-08  1.08556E-08  9.88874E-09  9.16220E-09
   8.73811E-09  8.41515E-09  8.21138E-09  8.07212E-09  7.87022E-09  7.73440E-09  7.65027E-09  7.51869E-09  7.42215E-09  7.34102E-09
   7.25346E-09  7.18352E-09  7.12494E-09  7.06748E-09  7.01592E-09  6.96994E-09  6.92811E-09  6.89000E-09  6.85458E-09  6.82146E-09
   6.79031E-09  6.76073E-09  6.73243E-09  6.70514E-09  6.67862E-09  6.65268E-09  6.62714E-09  6.60181E-09  6.57651E-09  6.55111E-09
   6.52546E-09  6.49945E-09  6.47295E-09  6.44585E-09  6.41804E-09  6.38942E-09  6.35989E-09  6.32937E-09  6.29776E-09  6.26497E-09
   6.23093E-09  6.19557E-09  6.15880E-09  6.12056E-09  6.08076E-09  6.03937E-09  5.99630E-09  5.95151E-09  5.90503E-09  5.85688E-09
   5.80707E-09  5.75566E-09  5.70266E-09  5.64812E-09  5.59208E-09  5.53461E-09  5.47576E-09  5.41561E-09  5.35425E-09  5.29179E-09
   5.22836E-09  5.16414E-09  5.09933E-09  5.03422E-09  4.96918E-09  4.90473E-09  4.84161E-09  4.78086E-09  4.72411E-09  4.67388E-09
   4.63444E-09  4.61329E-09  4.62514E-09  4.70207E-09  4.92745E-09  5.58473E-09  8.16375E-09  1.64939E-08  1.86237E-08  1.87425E-08
   1.90486E-08  1.94727E-08  1.95444E-08  1.93130E-08  1.91220E-08  1.90992E-08  1.96593E-08  2.00448E-08  1.05875E-08  5.88498E-09
   4.51457E-09  3.88301E-09  3.49966E-09  3.22678E-09  3.01212E-09  2.83174E-09  2.67324E-09  2.52954E-09  2.39636E-09  2.27093E-09
   2.15145E-09  2.03662E-09  1.92558E-09  1.81766E-09  1.71240E-09  1.60945E-09  1.50856E-09  1.40951E-09  1.31218E-09  1.21643E-09
   1.12220E-09  1.02942E-09  9.38053E-10  8.48077E-10  7.59470E-10  6.72218E-10  5.86329E-10  5.01809E-10  4.18670E-10  3.36928E-10
   2.56604E-10  1.77720E-10  1.00288E-10  2.43338E-11 -5.00893E-11 -1.22974E-10 -1.94288E-10 -2.64006E-10 -3.32088E-10 -3.98494E-10
  -4.63222E-10 -5.26208E-10 -5.87431E-10 -6.46874E-10 -7.04498E-10 -7.60238E-10 -8.14117E-10 -8.66085E-10 -9.16162E-10 -9.64414E-10
  -1.01090E-09 -1.05567E-09 -1.09880E-09 -1.14032E-09 -1.18030E-09 -1.21880E-09 -1.25587E-09 -1.29157E-09 -1.32595E-09 -1.35906E-09
  -1.39096E-09 -1.42170E-09 -1.45135E-09 -1.47994E-09 -1.50753E-09 -1.53418E-09 -1.55993E-09 -1.58484E-09 -1.60896E-09 -1.63233E-09
  -1.65502E-09 -1.67706E-09 -1.69851E-09 -1.71941E-09 -1.73982E-09 -1.75977E-09 -1.77933E-09 -1.79852E-09 -1.81740E-09 -1.83602E-09
  -1.85441E-09 -1.87262E-09 -1.89070E-09 -1.90868E-09 -1.92660E-09 -1.94452E-09 -1.96245E-09 -1.98046E-09 -1.99857E-09 -2.01682E-09
  -2.03525E-09 -2.05389E-09 -2.07278E-09 -2.09193E-09 -2.11134E-09 -2.13097E-09 -2.15083E-09 -2.17090E-09 -2.19117E-09 -2.21162E-09
  -2.23225E-09 -2.25304E-09 -2.27397E-09 -2.29504E-09 -2.31623E-09 -2.33753E-09 -2.35892E-09 -2.38039E-09 -2.40194E-09 -2.42354E-09
  -2.44518E-09 -2.46685E-09 -2.48854E-09 -2.51023E-09 -2.53192E-09 -2.55357E-09 -2.57520E-09 -2.59677E-09 -2.61828E-09 -2.63971E-09
  -2.66106E-09 -2.68230E-09 -2.70342E-09 -2.72442E-09 -2.74527E-09 -2.76597E-09 -2.78649E-09 -2.80684E-09 -2.82699E-09 -2.84693E-09
  -2.86665E-09 -2.88614E-09 -2.90538E-09 -2.92436E-09 -2.94306E-09 -2.96148E-09 -2.97960E-09 -2.99740E-09 -3.01488E-09 -3.03201E-09
  -3.04878E-09 -3.06517E-09 -3.08116E-09 -3.09673E-09 -3.11187E-09 -3.12656E-09 -3.14078E-09 -3.15452E-09 -3.16776E-09 -3.18048E-09
  -3.19268E-09 -3.20432E-09 -3.21540E-09 -3.22591E-09 -3.23582E-09 -3.24513E-09 -3.25382E-09 -3.26187E-09 -3.26928E-09 -3.27603E-09
  -3.28210E-09 -3.28749E-09 -3.29218E-09 -3.29616E-09 -3.29942E-09 -3.30195E-09 -3.30374E-09 -3.30477E-09 -3.30504E-09 -3.30453E-09
  -3.30324E-09 -3.30115E-09 -3.29827E-09 -3.29457E-09 -3.29005E-09 -3.28471E-09 -3.27853E-09 -3.27152E-09 -3.26365E-09 -3.25493E-09
  -3.24535E-09 -3.23490E-09 -3.22357E-09
 NY background values follow
     1.047E-09    1.075E-09    1.104E-09    1.133E-09    1.162E-09    1.191E-09    1.221E-09    1.251E-09    1.281E-09    1.312E-09
     1.343E-09    1.374E-09    1.406E-09    1.438E-09    1.470E-09    1.502E-09    1.535E-09    1.568E-09    1.601E-09    1.635E-09
     1.669E-09    1.703E-09    1.737E-09    1.771E-09    1.806E-09    1.841E-09    1.876E-09    1.912E-09    1.948E-09    1.983E-09
     2.020E-09    2.056E-09    2.092E-09    2.129E-09    2.166E-09    2.203E-09    2.240E-09    2.278E-09    2.316E-09    2.353E-09
     2.391E-09    2.429E-09    2.468E-09    2.506E-09    2.544E-09    2.583E-09    2.622E-09    2.661E-09    2.700E-09    2.739E-09
     2.778E-09    2.817E-09    2.856E-09    2.896E-09    2.935E-09    2.975E-09    3.014E-09    3.054E-09    3.094E-09    3.133E-09
     3.173E-09    3.212E-09    3.252E-09    3.292E-09    3.331E-09    3.371E-09    3.410E-09    3.450E-09    3.489E-09    3.529E-09
     3.568E-09    3.607E-09    3.646E-09    3.685E-09    3.724E-09    3.763E-09    3.801E-09    3.840E-09    3.878E-09    3.916E-09
     3.954E-09    3.992E-09    4.030E-09    4.067E-09    4.105E-09    4.142E-09    4.179E-09    4.215E-09    4.252E-09    4.288E-09
     4.324E-09    4.359E-09    4.394E-09    4.429E-09    4.464E-09    4.498E-09    4.532E-09    4.565E-09    4.598E-09    4.630E-09
     4.661E-09    4.692E-09    4.722E-09    4.752E-09    4.780E-09    4.808E-09    4.835E-09    4.861E-09    4.886E-09    4.910E-09
     4.933E-09    4.955E-09    4.975E-09    4.995E-09    5.013E-09    5.030E-09    5.046E-09    5.060E-09    5.073E-09    5.084E-09
     5.094E-09    5.103E-09    5.109E-09    5.115E-09    5.118E-09    5.120E-09    5.120E-09    5.118E-09    5.114E-09    5.108E-09
     5.100E-09    5.091E-09    5.079E-09    5.065E-09    5.049E-09    5.031E-09    5.011E-09    4.988E-09    4.963E-09    4.936E-09
     4.907E-09    4.875E-09    4.842E-09    4.806E-09    4.769E-09    4.729E-09    4.688E-09    4.644E-09    4.599E-09    4.552E-09
     4.503E-09    4.453E-09    4.401E-09    4.347E-09    4.291E-09    4.234E-09    4.175E-09    4.115E-09    4.054E-09    3.991E-09
     3.927E-09    3.861E-09    3.794E-09    3.726E-09    3.657E-09    3.586E-09    3.515E-09    3.442E-09    3.369E-09    3.295E-09
     3.219E-09    3.143E-09    3.066E-09    2.989E-09    2.911E-09    2.832E-09    2.752E-09    2.672E-09    2.592E-09    2.511E-09
     2.429E-09    2.347E-09    2.265E-09    2.183E-09    2.101E-09    2.018E-09    1.936E-09    1.853E-09    1.770E-09    1.688E-09
     1.605E-09    1.523E-09    1.441E-09    1.359E-09    1.278E-09    1.196E-09    1.116E-09    1.036E-09    9.559E-10    8.768E-10
     7.984E-10    7.206E-10    6.435E-10    5.672E-10    4.917E-10    4.171E-10    3.434E-10    2.706E-10    1.989E-10    1.282E-10
     5.861E-11   -9.834E-12   -7.709E-11   -1.431E-10   -2.079E-10   -2.713E-10   -3.333E-10   -3.940E-10   -4.532E-10   -5.109E-10
    -5.671E-10   -6.217E-10   -6.747E-10   -7.260E-10   -7.757E-10   -8.236E-10   -8.698E-10   -9.142E-10   -9.568E-10   -9.977E-10
    -1.037E-09   -1.075E-09   -1.111E-09   -1.145E-09   -1.178E-09   -1.210E-09   -1.241E-09   -1.270E-09   -1.297E-09   -1.324E-09
    -1.350E-09   -1.374E-09   -1.398E-09   -1.420E-09   -1.442E-09   -1.462E-09   -1.482E-09   -1.501E-09   -1.520E-09   -1.537E-09
    -1.554E-09   -1.571E-09   -1.587E-09   -1.602E-09   -1.617E-09   -1.632E-09   -1.646E-09   -1.660E-09   -1.673E-09   -1.687E-09
    -1.700E-09   -1.713E-09   -1.726E-09   -1.739E-09   -1.752E-09   -1.765E-09   -1.778E-09   -1.792E-09   -1.805E-09   -1.819E-09
    -1.832E-09   -1.846E-09   -1.861E-09   -1.875E-09   -1.890E-09   -1.906E-09   -1.921E-09   -1.937E-09   -1.953E-09   -1.969E-09
    -1.985E-09   -2.002E-09   -2.019E-09   -2.035E-09   -2.053E-09   -2.070E-09   -2.087E-09   -2.105E-09   -2.122E-09   -2.140E-09
    -2.158E-09   -2.175E-09   -2.193E-09   -2.211E-09   -2.229E-09   -2.247E-09   -2.265E-09   -2.283E-09   -2.301E-09   -2.318E-09
    -2.336E-09   -2.354E-09   -2.372E-09   -2.389E-09   -2.406E-09   -2.424E-09   -2.441E-09   -2.458E-09   -2.475E-09   -2.491E-09
    -2.508E-09   -2.524E-09   -2.540E-09   -2.556E-09   -2.571E-09   -2.586E-09   -2.601E-09   -2.616E-09   -2.630E-09   -2.644E-09
    -2.658E-09   -2.671E-09   -2.684E-09   -2.697E-09   -2.709E-09   -2.721E-09   -2.732E-09   -2.743E-09   -2.754E-09   -2.763E-09
    -2.773E-09   -2.782E-09   -2.790E-09   -2.798E-09   -2.805E-09   -2.812E-09   -2.818E-09   -2.823E-09   -2.828E-09   -2.832E-09
    -2.835E-09   -2.838E-09   -2.840E-09   -2.842E-09   -2.843E-09   -2.843E-09   -2.842E-09   -2.841E-09   -2.838E-09   -2.836E-09
    -2.832E-09   -2.827E-09   -2.822E-09   -2.816E-09   -2.809E-09   -2.802E-09   -2.793E-09   -2.784E-09   -2.774E-09   -2.763E-09
    -2.751E-09   -2.739E-09   -2.725E-09
 GABA     Conc. = 1.36E-10
   9.91363E-10  1.01856E-09  1.04604E-09  1.07380E-09  1.10183E-09  1.13012E-09  1.15868E-09  1.18747E-09  1.21650E-09  1.24576E-09
   1.27523E-09  1.30489E-09  1.33476E-09  1.36478E-09  1.39496E-09  1.42528E-09  1.45567E-09  1.48615E-09  1.51670E-09  1.54722E-09
   1.57770E-09  1.60809E-09  1.63833E-09  1.66833E-09  1.69806E-09  1.72743E-09  1.75652E-09  1.78611E-09  1.82036E-09  1.88901E-09
   1.93762E-09  1.95566E-09  2.05999E-09  2.15523E-09  2.19341E-09  2.27012E-09  2.35409E-09  2.42457E-09  2.49057E-09  2.56422E-09
   2.58443E-09  2.61128E-09  2.71072E-09  2.70862E-09  2.68158E-09  2.73328E-09  2.75054E-09  2.75362E-09  2.76856E-09  2.79008E-09
   2.81564E-09  2.84370E-09  2.87342E-09  2.90438E-09  2.93626E-09  2.96879E-09  3.00183E-09  3.03539E-09  3.06952E-09  3.10497E-09
   3.14455E-09  3.20179E-09  3.29203E-09  3.31997E-09  3.37924E-09  3.51051E-09  3.56071E-09  3.60384E-09  3.68038E-09  3.74318E-09
   3.79908E-09  3.85527E-09  3.90137E-09  3.87981E-09  3.93605E-09  3.99322E-09  3.93368E-09  3.94788E-09  3.98620E-09  3.99858E-09
   4.03897E-09  4.04916E-09  4.07567E-09  4.16195E-09  4.19587E-09  4.22514E-09  4.30523E-09  4.35862E-09  4.39870E-09  4.46395E-09
   4.51949E-09  4.53437E-09  4.59197E-09  4.66247E-09  4.64292E-09  4.67157E-09  4.73185E-09  4.72623E-09  4.73763E-09  4.76657E-09
   4.78208E-09  4.79950E-09  4.81922E-09  4.84025E-09  4.86197E-09  4.88391E-09  4.90577E-09  4.92735E-09  4.94847E-09  4.96900E-09
   4.98887E-09  5.00792E-09  5.02606E-09  5.04323E-09  5.05932E-09  5.07431E-09  5.08813E-09  5.10071E-09  5.11198E-09  5.12189E-09
   5.13038E-09  5.13740E-09  5.14289E-09  5.14680E-09  5.14909E-09  5.14970E-09  5.14857E-09  5.14567E-09  5.14094E-09  5.13432E-09
   5.12578E-09  5.11527E-09  5.10274E-09  5.08813E-09  5.07141E-09  5.05254E-09  5.03145E-09  5.00813E-09  4.98260E-09  4.95491E-09
   4.92508E-09  4.89315E-09  4.85915E-09  4.82311E-09  4.78507E-09  4.74507E-09  4.70316E-09  4.65935E-09  4.61371E-09  4.56625E-09
   4.51704E-09  4.46610E-09  4.41348E-09  4.35923E-09  4.30339E-09  4.24601E-09  4.18715E-09  4.12685E-09  4.06520E-09  4.00224E-09
   3.93812E-09  3.87295E-09  3.80699E-09  3.74076E-09  3.67553E-09  3.61568E-09  3.58544E-09  3.64064E-09  3.57202E-09  3.50033E-09
   3.43044E-09  3.36113E-09  3.28498E-09  3.20470E-09  3.12523E-09  3.04760E-09  2.97878E-09  2.90297E-09  2.66888E-09  2.54897E-09
   2.45487E-09  2.36712E-09  2.28159E-09  2.19703E-09  2.11294E-09  2.02911E-09  1.94546E-09  1.86195E-09  1.77860E-09  1.69541E-09
   1.61242E-09  1.52964E-09  1.44716E-09  1.36497E-09  1.28314E-09  1.20170E-09  1.12072E-09  1.04023E-09  9.60290E-10  8.80928E-10
   8.02206E-10  7.24169E-10  6.46862E-10  5.70340E-10  4.94644E-10  4.19815E-10  3.45907E-10  2.72967E-10  2.01037E-10  1.30171E-10
   6.04105E-11 -8.19832E-12 -7.56207E-11 -1.41813E-10 -2.06707E-10 -2.70280E-10 -3.32485E-10 -3.93286E-10 -4.52632E-10 -5.10474E-10
  -5.66801E-10 -6.21540E-10 -6.74662E-10 -7.26146E-10 -7.75945E-10 -8.23987E-10 -8.70290E-10 -9.14801E-10 -9.57535E-10 -9.98553E-10
  -1.03791E-09 -1.07566E-09 -1.11185E-09 -1.14654E-09 -1.17978E-09 -1.21162E-09 -1.24212E-09 -1.27134E-09 -1.29931E-09 -1.32609E-09
  -1.35175E-09 -1.37632E-09 -1.39986E-09 -1.42242E-09 -1.44405E-09 -1.46481E-09 -1.48473E-09 -1.50388E-09 -1.52230E-09 -1.54004E-09
  -1.55715E-09 -1.57367E-09 -1.58966E-09 -1.60516E-09 -1.62022E-09 -1.63488E-09 -1.64919E-09 -1.66320E-09 -1.67695E-09 -1.69048E-09
  -1.70384E-09 -1.71706E-09 -1.73019E-09 -1.74329E-09 -1.75637E-09 -1.76948E-09 -1.78266E-09 -1.79596E-09 -1.80940E-09 -1.82303E-09
  -1.83688E-09 -1.85098E-09 -1.86538E-09 -1.88007E-09 -1.89505E-09 -1.91031E-09 -1.92583E-09 -1.94160E-09 -1.95761E-09 -1.97383E-09
  -1.99027E-09 -2.00691E-09 -2.02372E-09 -2.04071E-09 -2.05786E-09 -2.07514E-09 -2.09256E-09 -2.11009E-09 -2.12772E-09 -2.14544E-09
  -2.16324E-09 -2.18110E-09 -2.19901E-09 -2.21695E-09 -2.23491E-09 -2.25288E-09 -2.27085E-09 -2.28880E-09 -2.30671E-09 -2.32457E-09
  -2.34238E-09 -2.36011E-09 -2.37776E-09 -2.39530E-09 -2.41273E-09 -2.43003E-09 -2.44719E-09 -2.46420E-09 -2.48103E-09 -2.49769E-09
  -2.51415E-09 -2.53040E-09 -2.54643E-09 -2.56223E-09 -2.57778E-09 -2.59306E-09 -2.60808E-09 -2.62280E-09 -2.63722E-09 -2.65132E-09
  -2.66509E-09 -2.67850E-09 -2.69153E-09 -2.70416E-09 -2.71640E-09 -2.72820E-09 -2.73956E-09 -2.75046E-09 -2.76088E-09 -2.77081E-09
  -2.78022E-09 -2.78912E-09 -2.79747E-09 -2.80527E-09 -2.81251E-09 -2.81915E-09 -2.82520E-09 -2.83064E-09 -2.83545E-09 -2.83962E-09
  -2.84314E-09 -2.84600E-09 -2.84818E-09 -2.84966E-09 -2.85045E-09 -2.85053E-09 -2.84989E-09 -2.84851E-09 -2.84639E-09 -2.84351E-09
  -2.83987E-09 -2.83545E-09 -2.83026E-09 -2.82427E-09 -2.81749E-09 -2.80989E-09 -2.80148E-09 -2.79225E-09 -2.78219E-09 -2.77130E-09
  -2.75956E-09 -2.74697E-09 -2.73353E-09
 Gln      Conc. = 1.29E-09
   6.73228E-10  7.36613E-10  1.08016E-09  1.32804E-09  1.54399E-09  1.73942E-09  1.95645E-09  2.22611E-09  2.13089E-09  2.39760E-09
   2.48838E-09  2.23267E-09  2.36408E-09  2.17856E-09  2.03862E-09  1.95184E-09  1.89577E-09  1.85864E-09  1.83455E-09  1.81979E-09
   1.81195E-09  1.80937E-09  1.81094E-09  1.81561E-09  1.82267E-09  1.83270E-09  1.84428E-09  1.85730E-09  1.87191E-09  1.88755E-09
   1.90403E-09  1.92119E-09  1.93887E-09  1.95695E-09  1.97531E-09  1.99383E-09  2.01239E-09  2.03085E-09  2.04902E-09  2.06699E-09
   2.08448E-09  2.10146E-09  2.11797E-09  2.13365E-09  2.14813E-09  2.16182E-09  2.17397E-09  2.18347E-09  2.19339E-09  2.20293E-09
   2.20886E-09  2.21909E-09  2.24156E-09  2.30848E-09  2.61113E-09  3.00995E-09  3.01275E-09  3.48539E-09  4.09076E-09  4.35674E-09
   4.54687E-09  4.90274E-09  5.14056E-09  5.32963E-09  5.54586E-09  5.48290E-09  5.10385E-09  5.34469E-09  5.17992E-09  4.64487E-09
   4.37650E-09  4.58432E-09  4.57968E-09  4.45648E-09  4.80173E-09  5.15587E-09  5.28803E-09  5.61189E-09  5.89966E-09  6.08417E-09
   6.23672E-09  6.56022E-09  6.51243E-09  6.35310E-09  6.59776E-09  6.38348E-09  6.04017E-09  6.03027E-09  5.82898E-09  5.64582E-09
   5.52510E-09  5.44074E-09  5.38165E-09  5.34136E-09  5.31115E-09  5.28926E-09  5.27500E-09  5.26570E-09  5.26043E-09  5.25890E-09
   5.26026E-09  5.26357E-09  5.26849E-09  5.27455E-09  5.28173E-09  5.28976E-09  5.29831E-09  5.30717E-09  5.31617E-09  5.32515E-09
   5.33398E-09  5.34253E-09  5.35067E-09  5.35830E-09  5.36530E-09  5.37160E-09  5.37710E-09  5.38170E-09  5.38533E-09  5.38791E-09
   5.38937E-09  5.38963E-09  5.38862E-09  5.38627E-09  5.38253E-09  5.37732E-09  5.37059E-09  5.36227E-09  5.35230E-09  5.34062E-09
   5.32719E-09  5.31194E-09  5.29481E-09  5.27576E-09  5.25473E-09  5.23167E-09  5.20652E-09  5.17927E-09  5.14992E-09  5.11852E-09
   5.08509E-09  5.04967E-09  5.01228E-09  4.97295E-09  4.93174E-09  4.88866E-09  4.84377E-09  4.79711E-09  4.74871E-09  4.69863E-09
   4.64693E-09  4.59364E-09  4.53884E-09  4.48260E-09  4.42500E-09  4.36615E-09  4.30619E-09  4.24529E-09  4.18369E-09  4.12176E-09
   4.06012E-09  3.99975E-09  3.94260E-09  3.89287E-09  3.86135E-09  3.88421E-09  4.14809E-09  5.30706E-09  5.32798E-09  5.27482E-09
   5.24676E-09  5.23522E-09  5.16743E-09  5.06303E-09  4.97026E-09  4.89772E-09  4.90294E-09  4.94782E-09  3.40786E-09  2.90174E-09
   2.68996E-09  2.54878E-09  2.43305E-09  2.32900E-09  2.23117E-09  2.13704E-09  2.04530E-09  1.95518E-09  1.86629E-09  1.77834E-09
   1.69118E-09  1.60469E-09  1.51886E-09  1.43362E-09  1.34898E-09  1.26494E-09  1.18151E-09  1.09873E-09  1.01661E-09  9.35183E-10
   8.54491E-10  7.74568E-10  6.95449E-10  6.17181E-10  5.39800E-10  4.63341E-10  3.87852E-10  3.13376E-10  2.39953E-10  1.67632E-10
   9.64526E-11  2.64585E-11 -4.23182E-11 -1.09835E-10 -1.76026E-10 -2.40870E-10 -3.04322E-10 -3.66346E-10 -4.26893E-10 -4.85915E-10
  -5.43401E-10 -5.99280E-10 -6.53525E-10 -7.06113E-10 -7.56999E-10 -8.06111E-10 -8.53471E-10 -8.99021E-10 -9.42780E-10 -9.84810E-10
