 LCModel (Version 6.3-1R) Copyright: S.W. Provencher.          Ref.: Magn. Reson. Med. 30:672-679 (1993).                
 onepulse 12x14_ftSpec_smooth_lcm
 26 lines in following concentration table = NCONC+1
    Conc.  %SD /Cr+PCr  Metabolite                                         
    0.000 999%   0.000 Ala                                                 
 1.07E-09  76%   2.717 Asp                                                 
 3.95E-10 103%   1.000 Cr                                                  
 7.65E-10 114%   1.937 GABA                                                
    0.000 999%   0.000 Glc                                                 
 2.23E-09  38%   5.655 Gln                                                 
    0.000 999%   0.000 Glu                                                 
    0.000 999%   0.000 Glyc                                                
    0.000 999%   0.000 GPC                                                 
 4.44E-10 142%   1.124 GSH                                                 
 1.57E-09  30%   3.969 Ins                                                 
    0.000 999%   0.000 Lac                                                 
 1.07E-10 366%   0.270 NAAG                                                
 5.42E-10 105%   1.372 NAA                                                 
    0.000 999%   0.000 PCh                                                 
    0.000 999%   0.000 PCr                                                 
 1.40E-09  64%   3.540 PE                                                  
 2.37E-11 999% 6.0E-02 Scyllo                                              
 8.33E-10 111%   2.109 Ser                                                 
 1.12E-09  94%   2.831 Tau                                                 
    0.000 999%   0.000 GPC+PCh                                             
 6.49E-10  52%   1.642 NAA+NAAG                                            
 1.57E-09  30%   3.969 Ins+Glyc                                            
 3.95E-10 103%   1.000 Cr+PCr                                              
 2.23E-09  38%   5.655 Glu+Gln                                             
   6 lines in following misc. output table
  FWHM = 0.123 ppm    S/N =   3                                            
  Data shift = 0.402 ppm                                                   
  Ph:   1 deg     -34.2 deg/ppm                                            
  alphaB,S = 2.8E-01,   1.1E+01                                            
   10 spline knots.   Ns = 5(1)                                            
  (10) 8 infls.   (11) 5 extrs.                                            
  363 points on ppm-axis = NY
      4.250000     4.238821     4.227641     4.216462     4.205282     4.194103     4.182923     4.171744     4.160564     4.149385
      4.138206     4.127026     4.115847     4.104667     4.093488     4.082308     4.071129     4.059949     4.048770     4.037591
      4.026411     4.015232     4.004052     3.992873     3.981693     3.970514     3.959334     3.948155     3.936975     3.925796
      3.914617     3.903437     3.892258     3.881078     3.869899     3.858719     3.847540     3.836360     3.825181     3.814002
      3.802822     3.791643     3.780463     3.769284     3.758104     3.746925     3.735745     3.724566     3.713387     3.702207
      3.691028     3.679848     3.668669     3.657489     3.646310     3.635130     3.623951     3.612772     3.601592     3.590413
      3.579233     3.568054     3.556874     3.545695     3.534515     3.523336     3.512156     3.500977     3.489798     3.478618
      3.467439     3.456259     3.445080     3.433900     3.422721     3.411541     3.400362     3.389183     3.378003     3.366824
      3.355644     3.344465     3.333285     3.322106     3.310926     3.299747     3.288568     3.277388     3.266209     3.255029
      3.243850     3.232670     3.221491     3.210311     3.199132     3.187953     3.176773     3.165594     3.154414     3.143235
      3.132055     3.120876     3.109696     3.098517     3.087337     3.076158     3.064979     3.053799     3.042620     3.031440
      3.020261     3.009081     2.997902     2.986722     2.975543     2.964364     2.953184     2.942005     2.930825     2.919646
      2.908466     2.897287     2.886107     2.874928     2.863749     2.852569     2.841390     2.830210     2.819031     2.807851
      2.796672     2.785492     2.774313     2.763134     2.751954     2.740775     2.729595     2.718416     2.707236     2.696057
      2.684877     2.673698     2.662519     2.651339     2.640160     2.628980     2.617801     2.606621     2.595442     2.584262
      2.573083     2.561903     2.550724     2.539545     2.528365     2.517186     2.506006     2.494827     2.483647     2.472468
      2.461288     2.450109     2.438930     2.427750     2.416571     2.405391     2.394212     2.383032     2.371853     2.360673
      2.349494     2.338315     2.327135     2.315956     2.304776     2.293597     2.282417     2.271238     2.260058     2.248879
      2.237700     2.226520     2.215341     2.204161     2.192982     2.181802     2.170623     2.159443     2.148264     2.137084
      2.125905     2.114726     2.103546     2.092367     2.081187     2.070008     2.058828     2.047649     2.036469     2.025290
      2.014111     2.002931     1.991752     1.980572     1.969393     1.958213     1.947034     1.935854     1.924675     1.913496
      1.902316     1.891137     1.879957     1.868778     1.857598     1.846419     1.835239     1.824060     1.812881     1.801701
      1.790522     1.779342     1.768163     1.756983     1.745804     1.734624     1.723445     1.712265     1.701086     1.689907
      1.678727     1.667548     1.656368     1.645189     1.634009     1.622830     1.611650     1.600471     1.589292     1.578112
      1.566933     1.555753     1.544574     1.533394     1.522215     1.511035     1.499856     1.488677     1.477497     1.466318
      1.455138     1.443959     1.432779     1.421600     1.410420     1.399241     1.388062     1.376882     1.365703     1.354523
      1.343344     1.332164     1.320985     1.309805     1.298626     1.287446     1.276267     1.265088     1.253908     1.242729
      1.231549     1.220370     1.209190     1.198011     1.186831     1.175652     1.164473     1.153293     1.142114     1.130934
      1.119755     1.108575     1.097396     1.086216     1.075037     1.063858     1.052678     1.041499     1.030319     1.019140
      1.007960     0.996781     0.985601     0.974422     0.963243     0.952063     0.940884     0.929704     0.918525     0.907345
      0.896166     0.884986     0.873807     0.862628     0.851448     0.840269     0.829089     0.817910     0.806730     0.795551
      0.784371     0.773192     0.762012     0.750833     0.739654     0.728474     0.717295     0.706115     0.694936     0.683756
      0.672577     0.661397     0.650218     0.639039     0.627859     0.616680     0.605500     0.594321     0.583141     0.571962
      0.560782     0.549603     0.538424     0.527244     0.516065     0.504885     0.493706     0.482526     0.471347     0.460167
      0.448988     0.437809     0.426629     0.415450     0.404270     0.393091     0.381911     0.370732     0.359552     0.348373
      0.337193     0.326014     0.314835     0.303655     0.292476     0.281296     0.270117     0.258937     0.247758     0.236578
      0.225399     0.214220     0.203040
 NY phased data points follow
   1.54559E-08  1.07985E-08  1.42095E-08  9.87853E-09  1.38020E-08  1.00357E-08  1.37218E-08  1.05293E-08  1.40516E-08  1.11573E-08
   1.44736E-08  1.15684E-08  1.50589E-08  1.08915E-08  1.38528E-08  1.05541E-08  1.37056E-08  1.02797E-08  1.34973E-08  1.01536E-08
   1.38019E-08  1.08259E-08  1.36214E-08  1.03287E-08  1.26038E-08  1.00670E-08  1.31738E-08  1.15055E-08  1.45805E-08  1.26676E-08
   1.51901E-08  1.20880E-08  1.34193E-08  1.07802E-08  1.22091E-08  9.81174E-09  1.17088E-08  9.87679E-09  1.10409E-08  9.46535E-09
   1.12131E-08  9.03296E-09  1.07719E-08  8.62278E-09  9.58196E-09  8.35214E-09  9.92811E-09  7.93263E-09  9.99768E-09  8.09708E-09
   8.93223E-09  7.25092E-09  8.76062E-09  6.89928E-09  8.51641E-09  6.99218E-09  8.63173E-09  8.33780E-09  1.03118E-08  1.15710E-08
   1.31406E-08  1.25208E-08  1.30654E-08  1.13615E-08  1.19420E-08  9.87061E-09  1.03534E-08  9.05573E-09  9.58171E-09  8.30401E-09
   8.37865E-09  6.69342E-09  7.14798E-09  6.47467E-09  8.81774E-09  1.06698E-08  1.38385E-08  1.51396E-08  1.51047E-08  1.44599E-08
   1.39344E-08  1.37130E-08  1.36953E-08  1.31042E-08  1.26568E-08  1.20570E-08  1.24836E-08  1.18980E-08  1.21418E-08  1.13653E-08
   1.11959E-08  1.05749E-08  1.03399E-08  9.79054E-09  9.63370E-09  8.96173E-09  8.78914E-09  8.63554E-09  8.84618E-09  8.34140E-09
   8.80182E-09  8.20608E-09  8.56184E-09  8.38893E-09  7.55297E-09  7.11163E-09  7.08160E-09  6.14093E-09  6.22626E-09  6.76962E-09
   6.78244E-09  7.09214E-09  7.03467E-09  7.21764E-09  6.97500E-09  7.54058E-09  7.25070E-09  7.59932E-09  7.30629E-09  7.08833E-09
   6.17763E-09  6.12437E-09  5.28017E-09  5.99242E-09  5.82440E-09  5.78397E-09  5.49098E-09  5.79703E-09  6.08147E-09  6.64718E-09
   6.29853E-09  6.94139E-09  6.13609E-09  6.93269E-09  6.40010E-09  7.16709E-09  7.64621E-09  8.72692E-09  8.08165E-09  9.30391E-09
   7.95582E-09  9.78608E-09  9.59372E-09  1.04615E-08  9.81997E-09  1.11158E-08  9.86979E-09  1.05245E-08  9.94533E-09  1.07090E-08
   1.05260E-08  1.05672E-08  9.59605E-09  1.07590E-08  9.83559E-09  1.09840E-08  1.01439E-08  1.08677E-08  9.82124E-09  1.09870E-08
   1.01461E-08  1.00451E-08  9.21424E-09  9.65463E-09  8.50942E-09  9.27789E-09  1.04055E-08  1.57685E-08  1.80104E-08  2.07506E-08
   1.99219E-08  2.10785E-08  1.99774E-08  2.05375E-08  1.93475E-08  1.95769E-08  1.80738E-08  1.83235E-08  1.68759E-08  1.69522E-08
   1.42567E-08  1.40519E-08  1.08909E-08  1.03299E-08  7.18528E-09  5.43335E-09  1.81932E-09  4.23627E-10 -2.82505E-09 -4.61836E-09
  -7.28769E-09 -8.30161E-09 -1.08012E-08 -1.13077E-08 -1.31114E-08 -1.29040E-08 -1.33142E-08 -1.19671E-08 -1.18023E-08 -1.01741E-08
  -1.00826E-08 -7.31525E-09 -7.24887E-09 -4.86108E-09 -4.53806E-09 -3.47516E-09 -3.71785E-09 -2.22910E-09 -3.69383E-09 -2.08432E-09
  -3.32891E-09 -2.87490E-09 -3.89160E-09 -2.51819E-09 -3.20826E-09 -1.93269E-09 -3.06435E-09 -1.48196E-09 -2.55916E-09 -1.32138E-09
  -2.57342E-09 -1.40454E-09 -2.60182E-09 -1.56984E-09 -3.13390E-09 -1.84779E-09 -2.21779E-09 -1.32520E-09 -2.34776E-09 -1.13782E-09
  -2.04881E-09 -8.35099E-10 -2.27584E-09 -9.60335E-10 -2.36160E-09 -1.49562E-09 -2.68545E-09 -1.77145E-09 -2.39761E-09 -1.45943E-09
  -3.14692E-09 -1.09836E-09 -2.28199E-09 -1.01713E-09 -2.12347E-09 -1.24631E-09 -1.75982E-09 -6.93690E-10 -2.26446E-09 -4.91028E-10
  -1.86551E-09 -7.42903E-10 -2.38875E-09 -8.20038E-10 -2.08450E-09 -1.31643E-09 -2.38308E-09 -1.38408E-09 -2.34335E-09 -1.93130E-09
  -3.18090E-09 -1.86889E-09 -2.96336E-09 -2.28419E-09 -3.52572E-09 -1.91540E-09 -2.98896E-09 -2.06056E-09 -2.89503E-09 -2.07256E-09
  -2.57869E-09 -9.86237E-10 -1.67295E-09 -4.93125E-10 -1.88903E-09 -1.53217E-10 -1.63751E-09 -4.23596E-10 -1.65156E-09 -1.98056E-10
  -1.05039E-09 -5.41443E-10 -1.36768E-09 -7.90598E-10 -1.23803E-09 -3.49530E-10 -1.73906E-09 -5.36823E-10 -1.86043E-09 -8.24385E-10
  -2.24899E-09 -7.14546E-10 -2.04131E-09 -1.08933E-09 -2.24676E-09 -7.23395E-10 -2.05568E-09 -1.41625E-09 -2.33546E-09 -1.38868E-09
  -2.52970E-09 -1.56230E-09 -2.36651E-09 -1.61630E-09 -2.88173E-09 -1.77617E-09 -2.73001E-09 -1.93505E-09 -2.70780E-09 -2.33693E-09
  -2.92038E-09 -2.08034E-09 -2.70228E-09 -2.50982E-09 -3.13156E-09 -1.86325E-09 -2.98327E-09 -3.08439E-09 -3.19756E-09 -2.09874E-09
  -3.57836E-09 -2.79509E-09 -3.29642E-09 -2.47703E-09 -3.20398E-09 -2.76382E-09 -3.27346E-09 -2.95505E-09 -3.69159E-09 -2.56592E-09
  -3.13329E-09 -3.36233E-09 -3.94532E-09 -3.43889E-09 -3.81002E-09 -3.56708E-09 -3.69633E-09 -3.12540E-09 -3.96585E-09 -3.36094E-09
  -4.01158E-09 -3.49328E-09 -3.76172E-09 -3.11679E-09 -4.44293E-09 -3.28527E-09 -4.02700E-09 -3.37806E-09 -4.41840E-09 -4.04260E-09
  -4.16612E-09 -3.46176E-09 -4.37494E-09 -3.84514E-09 -4.75380E-09 -3.52419E-09 -4.52966E-09 -4.03399E-09 -4.20618E-09 -3.89401E-09
  -4.24320E-09 -3.90778E-09 -4.69657E-09
 NY points of the fit to the data follow
   1.42214E-08  1.35823E-08  1.27997E-08  1.17204E-08  1.16627E-08  1.19070E-08  1.17040E-08  1.15764E-08  1.24127E-08  1.29787E-08
   1.27601E-08  1.23440E-08  1.23469E-08  1.25759E-08  1.31043E-08  1.28240E-08  1.24475E-08  1.28323E-08  1.27900E-08  1.12149E-08
   1.04546E-08  1.09852E-08  1.17320E-08  1.21890E-08  1.24652E-08  1.26060E-08  1.29706E-08  1.27141E-08  1.26819E-08  1.28541E-08
   1.30155E-08  1.29500E-08  1.29022E-08  1.22984E-08  1.18748E-08  1.13440E-08  1.07640E-08  1.04084E-08  1.03188E-08  1.00982E-08
   9.82576E-09  9.86649E-09  9.50725E-09  8.32205E-09  8.15841E-09  8.18899E-09  7.98925E-09  7.54848E-09  7.56732E-09  7.67854E-09
   7.98502E-09  8.34115E-09  8.67628E-09  8.91849E-09  9.24931E-09  9.66528E-09  9.72453E-09  1.03731E-08  1.13648E-08  1.15969E-08
   1.15906E-08  1.17176E-08  1.18365E-08  1.18083E-08  1.17461E-08  1.14976E-08  1.08360E-08  1.06956E-08  1.02459E-08  9.38186E-09
   9.20216E-09  9.54677E-09  9.58969E-09  9.55505E-09  1.01049E-08  1.07784E-08  1.12419E-08  1.28063E-08  1.37722E-08  1.41447E-08
   1.41851E-08  1.43003E-08  1.39667E-08  1.35681E-08  1.34757E-08  1.31131E-08  1.24291E-08  1.19136E-08  1.00161E-08  9.17996E-09
   8.79298E-09  8.52691E-09  8.52830E-09  8.42687E-09  8.10385E-09  8.10431E-09  8.08853E-09  7.85721E-09  7.78878E-09  7.76043E-09
   7.69249E-09  7.65971E-09  7.64665E-09  7.64538E-09  7.65453E-09  7.67145E-09  7.69374E-09  7.72021E-09  7.74970E-09  7.78159E-09
   7.81534E-09  7.85016E-09  7.88570E-09  7.92158E-09  7.95744E-09  7.99311E-09  8.02829E-09  8.06266E-09  8.09596E-09  8.12798E-09
   8.15848E-09  8.18729E-09  8.21421E-09  8.23903E-09  8.26156E-09  8.28164E-09  8.29907E-09  8.31367E-09  8.32528E-09  8.33374E-09
   8.33886E-09  8.34049E-09  8.33847E-09  8.33263E-09  8.32282E-09  8.30889E-09  8.29067E-09  8.26802E-09  8.24077E-09  8.20880E-09
   8.17194E-09  8.13006E-09  8.08303E-09  8.03070E-09  7.97293E-09  7.90960E-09  7.84061E-09  7.76584E-09  7.68520E-09  7.59862E-09
   7.50604E-09  7.40744E-09  7.30285E-09  7.19234E-09  7.07610E-09  6.95441E-09  6.82787E-09  6.69758E-09  6.56534E-09  6.43373E-09
   6.30689E-09  6.19182E-09  6.10157E-09  6.06349E-09  6.14513E-09  6.56184E-09  8.35733E-09  1.50854E-08  1.90198E-08  2.05234E-08
   2.05862E-08  2.09401E-08  2.07255E-08  2.05559E-08  1.99471E-08  2.00204E-08  2.04674E-08  1.88524E-08  9.21887E-09  5.33870E-09
   3.98579E-09  3.24506E-09  2.72941E-09  2.32031E-09  1.97023E-09  1.65669E-09  1.36770E-09  1.09639E-09  8.38655E-10  5.91854E-10
   3.54291E-10  1.24901E-10 -9.70687E-11 -3.12011E-10 -5.20247E-10 -7.21880E-10 -9.16965E-10 -1.10544E-09 -1.28726E-09 -1.46227E-09
  -1.63031E-09 -1.79120E-09 -1.94473E-09 -2.09070E-09 -2.22886E-09 -2.35897E-09 -2.48075E-09 -2.59400E-09 -2.69851E-09 -2.79454E-09
  -2.88229E-09 -2.96204E-09 -3.03400E-09 -3.09844E-09 -3.15557E-09 -3.20565E-09 -3.24889E-09 -3.28551E-09 -3.31578E-09 -3.33991E-09
  -3.35810E-09 -3.37062E-09 -3.37767E-09 -3.37948E-09 -3.37627E-09 -3.36828E-09 -3.35570E-09 -3.33879E-09 -3.31778E-09 -3.29284E-09
  -3.26422E-09 -3.23215E-09 -3.19684E-09 -3.15852E-09 -3.11739E-09 -3.07370E-09 -3.02767E-09 -2.97948E-09 -2.92938E-09 -2.87759E-09
  -2.82433E-09 -2.76980E-09 -2.71423E-09 -2.65786E-09 -2.60087E-09 -2.54351E-09 -2.48600E-09 -2.42856E-09 -2.37137E-09 -2.31466E-09
  -2.25868E-09 -2.20365E-09 -2.14976E-09 -2.09722E-09 -2.04630E-09 -1.99715E-09 -1.95005E-09 -1.90517E-09 -1.86276E-09 -1.82305E-09
  -1.78608E-09 -1.75185E-09 -1.72030E-09 -1.69138E-09 -1.66503E-09 -1.64121E-09 -1.61987E-09 -1.60096E-09 -1.58443E-09 -1.57021E-09
  -1.55829E-09 -1.54857E-09 -1.54105E-09 -1.53563E-09 -1.53228E-09 -1.53097E-09 -1.53162E-09 -1.53420E-09 -1.53864E-09 -1.54491E-09
  -1.55293E-09 -1.56269E-09 -1.57409E-09 -1.58711E-09 -1.60172E-09 -1.61783E-09 -1.63540E-09 -1.65438E-09 -1.67473E-09 -1.69640E-09
  -1.71932E-09 -1.74345E-09 -1.76873E-09 -1.79514E-09 -1.82259E-09 -1.85106E-09 -1.88048E-09 -1.91080E-09 -1.94197E-09 -1.97396E-09
  -2.00670E-09 -2.04012E-09 -2.07422E-09 -2.10890E-09 -2.14413E-09 -2.17987E-09 -2.21606E-09 -2.25263E-09 -2.28957E-09 -2.32678E-09
  -2.36425E-09 -2.40194E-09 -2.43978E-09 -2.47778E-09 -2.51595E-09 -2.55428E-09 -2.59275E-09 -2.63137E-09 -2.67013E-09 -2.70902E-09
  -2.74804E-09 -2.78717E-09 -2.82642E-09 -2.86577E-09 -2.90523E-09 -2.94478E-09 -2.98442E-09 -3.02414E-09 -3.06393E-09 -3.10380E-09
  -3.14373E-09 -3.18372E-09 -3.22376E-09 -3.26385E-09 -3.30397E-09 -3.34412E-09 -3.38431E-09 -3.42452E-09 -3.46473E-09 -3.50496E-09
  -3.54519E-09 -3.58541E-09 -3.62563E-09 -3.66583E-09 -3.70600E-09 -3.74615E-09 -3.78626E-09 -3.82633E-09 -3.86635E-09 -3.90632E-09
  -3.94623E-09 -3.98607E-09 -4.02584E-09 -4.06553E-09 -4.10514E-09 -4.14466E-09 -4.18408E-09 -4.22339E-09 -4.26260E-09 -4.30169E-09
  -4.34066E-09 -4.37951E-09 -4.41822E-09
 NY background values follow
     1.203E-09    1.249E-09    1.295E-09    1.341E-09    1.387E-09    1.432E-09    1.478E-09    1.523E-09    1.569E-09    1.614E-09
     1.660E-09    1.705E-09    1.751E-09    1.796E-09    1.841E-09    1.887E-09    1.932E-09    1.977E-09    2.023E-09    2.068E-09
     2.113E-09    2.159E-09    2.204E-09    2.249E-09    2.295E-09    2.340E-09    2.386E-09    2.431E-09    2.476E-09    2.522E-09
     2.567E-09    2.613E-09    2.659E-09    2.704E-09    2.750E-09    2.796E-09    2.842E-09    2.888E-09    2.934E-09    2.980E-09
     3.026E-09    3.072E-09    3.119E-09    3.165E-09    3.212E-09    3.258E-09    3.305E-09    3.352E-09    3.399E-09    3.446E-09
     3.493E-09    3.540E-09    3.587E-09    3.635E-09    3.683E-09    3.730E-09    3.778E-09    3.826E-09    3.875E-09    3.923E-09
     3.971E-09    4.020E-09    4.069E-09    4.118E-09    4.167E-09    4.216E-09    4.265E-09    4.314E-09    4.364E-09    4.414E-09
     4.464E-09    4.514E-09    4.564E-09    4.614E-09    4.665E-09    4.715E-09    4.766E-09    4.817E-09    4.868E-09    4.920E-09
     4.971E-09    5.023E-09    5.075E-09    5.126E-09    5.179E-09    5.231E-09    5.283E-09    5.336E-09    5.389E-09    5.442E-09
     5.495E-09    5.548E-09    5.602E-09    5.655E-09    5.709E-09    5.763E-09    5.818E-09    5.872E-09    5.927E-09    5.981E-09
     6.036E-09    6.092E-09    6.147E-09    6.203E-09    6.258E-09    6.314E-09    6.370E-09    6.426E-09    6.481E-09    6.536E-09
     6.590E-09    6.643E-09    6.696E-09    6.747E-09    6.798E-09    6.846E-09    6.894E-09    6.939E-09    6.983E-09    7.025E-09
     7.065E-09    7.103E-09    7.138E-09    7.171E-09    7.201E-09    7.228E-09    7.252E-09    7.273E-09    7.291E-09    7.305E-09
     7.316E-09    7.323E-09    7.326E-09    7.325E-09    7.320E-09    7.311E-09    7.297E-09    7.279E-09    7.256E-09    7.228E-09
     7.195E-09    7.156E-09    7.113E-09    7.064E-09    7.009E-09    6.949E-09    6.882E-09    6.810E-09    6.731E-09    6.646E-09
     6.554E-09    6.456E-09    6.351E-09    6.239E-09    6.120E-09    5.994E-09    5.860E-09    5.719E-09    5.572E-09    5.417E-09
     5.257E-09    5.091E-09    4.919E-09    4.741E-09    4.559E-09    4.372E-09    4.181E-09    3.985E-09    3.786E-09    3.583E-09
     3.377E-09    3.168E-09    2.957E-09    2.744E-09    2.528E-09    2.311E-09    2.093E-09    1.873E-09    1.653E-09    1.432E-09
     1.212E-09    9.911E-10    7.712E-10    5.520E-10    3.340E-10    1.174E-10   -9.741E-11   -3.102E-10   -5.207E-10   -7.284E-10
    -9.333E-10   -1.135E-09   -1.333E-09   -1.527E-09   -1.717E-09   -1.902E-09   -2.083E-09   -2.258E-09   -2.428E-09   -2.593E-09
    -2.751E-09   -2.903E-09   -3.048E-09   -3.186E-09   -3.318E-09   -3.441E-09   -3.557E-09   -3.664E-09   -3.763E-09   -3.854E-09
    -3.937E-09   -4.013E-09   -4.080E-09   -4.141E-09   -4.194E-09   -4.241E-09   -4.280E-09   -4.314E-09   -4.341E-09   -4.362E-09
    -4.377E-09   -4.387E-09   -4.391E-09   -4.390E-09   -4.385E-09   -4.374E-09   -4.359E-09   -4.340E-09   -4.317E-09   -4.290E-09
    -4.259E-09   -4.225E-09   -4.188E-09   -4.148E-09   -4.105E-09   -4.059E-09   -4.012E-09   -3.962E-09   -3.910E-09   -3.857E-09
    -3.802E-09   -3.746E-09   -3.689E-09   -3.631E-09   -3.572E-09   -3.514E-09   -3.455E-09   -3.396E-09   -3.337E-09   -3.279E-09
    -3.222E-09   -3.166E-09   -3.111E-09   -3.057E-09   -3.005E-09   -2.955E-09   -2.906E-09   -2.860E-09   -2.817E-09   -2.776E-09
    -2.738E-09   -2.703E-09   -2.670E-09   -2.640E-09   -2.613E-09   -2.588E-09   -2.566E-09   -2.546E-09   -2.528E-09   -2.513E-09
    -2.500E-09   -2.489E-09   -2.481E-09   -2.475E-09   -2.470E-09   -2.468E-09   -2.468E-09   -2.470E-09   -2.473E-09   -2.479E-09
    -2.486E-09   -2.495E-09   -2.505E-09   -2.517E-09   -2.531E-09   -2.546E-09   -2.563E-09   -2.581E-09   -2.601E-09   -2.622E-09
    -2.644E-09   -2.667E-09   -2.692E-09   -2.717E-09   -2.744E-09   -2.772E-09   -2.800E-09   -2.830E-09   -2.860E-09   -2.892E-09
    -2.924E-09   -2.956E-09   -2.990E-09   -3.024E-09   -3.058E-09   -3.093E-09   -3.129E-09   -3.164E-09   -3.201E-09   -3.237E-09
    -3.274E-09   -3.311E-09   -3.348E-09   -3.385E-09   -3.423E-09   -3.460E-09   -3.498E-09   -3.536E-09   -3.574E-09   -3.612E-09
    -3.651E-09   -3.689E-09   -3.728E-09   -3.766E-09   -3.805E-09   -3.844E-09   -3.883E-09   -3.922E-09   -3.961E-09   -4.000E-09
    -4.039E-09   -4.079E-09   -4.118E-09   -4.157E-09   -4.197E-09   -4.236E-09   -4.276E-09   -4.315E-09   -4.355E-09   -4.394E-09
    -4.434E-09   -4.473E-09   -4.513E-09   -4.552E-09   -4.592E-09   -4.631E-09   -4.671E-09   -4.710E-09   -4.750E-09   -4.789E-09
    -4.828E-09   -4.867E-09   -4.906E-09   -4.945E-09   -4.984E-09   -5.023E-09   -5.062E-09   -5.100E-09   -5.139E-09   -5.177E-09
    -5.216E-09   -5.254E-09   -5.292E-09
 Asp      Conc. = 1.07E-09
   2.40377E-09  2.24474E-09  2.20036E-09  2.06238E-09  2.05330E-09  1.97033E-09  1.88412E-09  1.77637E-09  1.75513E-09  1.76466E-09
   1.78781E-09  1.81808E-09  1.85288E-09  1.89304E-09  1.93448E-09  1.97657E-09  2.01950E-09  2.06318E-09  2.10752E-09  2.15244E-09
   2.19790E-09  2.24389E-09  2.29040E-09  2.33746E-09  2.38512E-09  2.43346E-09  2.48259E-09  2.53267E-09  2.58391E-09  2.63664E-09
   2.69134E-09  2.74872E-09  2.81000E-09  2.87732E-09  2.95512E-09  3.05463E-09  3.20361E-09  3.31139E-09  3.44751E-09  3.50512E-09
   3.55230E-09  3.60610E-09  3.75699E-09  3.99594E-09  4.31532E-09  4.68940E-09  4.79414E-09  4.73693E-09  4.91688E-09  4.99333E-09
   5.10928E-09  5.25669E-09  5.36825E-09  5.33464E-09  5.17278E-09  4.96531E-09  4.63267E-09  4.71201E-09  4.82076E-09  4.61183E-09
   4.54183E-09  4.55046E-09  4.47723E-09  4.47609E-09  4.56008E-09  4.63408E-09  4.58293E-09  4.57510E-09  4.58847E-09  4.61273E-09
   4.64351E-09  4.67859E-09  4.71671E-09  4.75710E-09  4.79924E-09  4.84278E-09  4.88746E-09  4.93310E-09  4.97955E-09  5.02670E-09
   5.07447E-09  5.12279E-09  5.17160E-09  5.22087E-09  5.27055E-09  5.32061E-09  5.37103E-09  5.42179E-09  5.47287E-09  5.52425E-09
   5.57592E-09  5.62788E-09  5.68011E-09  5.73260E-09  5.78535E-09  5.83835E-09  5.89159E-09  5.94508E-09  5.99881E-09  6.05277E-09
   6.10697E-09  6.16139E-09  6.21604E-09  6.27092E-09  6.32602E-09  6.38126E-09  6.43649E-09  6.49155E-09  6.54631E-09  6.60062E-09
   6.65431E-09  6.70726E-09  6.75930E-09  6.81028E-09  6.86007E-09  6.90850E-09  6.95545E-09  7.00074E-09  7.04424E-09  7.08580E-09
   7.12527E-09  7.16251E-09  7.19736E-09  7.22968E-09  7.25931E-09  7.28612E-09  7.30995E-09  7.33066E-09  7.34810E-09  7.36212E-09
   7.37257E-09  7.37931E-09  7.38220E-09  7.38106E-09  7.37578E-09  7.36619E-09  7.35215E-09  7.33352E-09  7.31014E-09  7.28188E-09
   7.24857E-09  7.21008E-09  7.16626E-09  7.11697E-09  7.06206E-09  7.00137E-09  6.93479E-09  6.86214E-09  6.78330E-09  6.69813E-09
   6.60648E-09  6.50823E-09  6.40325E-09  6.29139E-09  6.17256E-09  6.04664E-09  5.91363E-09  5.77379E-09  5.62758E-09  5.47555E-09
   5.31842E-09  5.15721E-09  4.99361E-09  4.83093E-09  4.67720E-09  4.55838E-09  4.60651E-09  5.16745E-09  5.34578E-09  5.29362E-09
   5.10515E-09  4.95873E-09  4.74148E-09  4.53358E-09  4.27630E-09  4.10141E-09  3.95165E-09  3.53262E-09  2.27845E-09  1.76963E-09
   1.44952E-09  1.18053E-09  9.32071E-10  6.94248E-10  4.63038E-10  2.36695E-10  1.43227E-11 -2.04472E-10 -4.19770E-10 -6.31573E-10
  -8.39784E-10 -1.04421E-09 -1.24468E-09 -1.44091E-09 -1.63271E-09 -1.81979E-09 -2.00189E-09 -2.17870E-09 -2.34999E-09 -2.51543E-09
  -2.67474E-09 -2.82763E-09 -2.97379E-09 -3.11295E-09 -3.24480E-09 -3.36903E-09 -3.48533E-09 -3.59344E-09 -3.69315E-09 -3.78464E-09
  -3.86813E-09 -3.94384E-09 -4.01198E-09 -4.07279E-09 -4.12647E-09 -4.17327E-09 -4.21337E-09 -4.24701E-09 -4.27442E-09 -4.29580E-09
  -4.31137E-09 -4.32135E-09 -4.32598E-09 -4.32545E-09 -4.31999E-09 -4.30982E-09 -4.29513E-09 -4.27619E-09 -4.25321E-09 -4.22636E-09
  -4.19589E-09 -4.16203E-09 -4.12497E-09 -4.08496E-09 -4.04218E-09 -3.99689E-09 -3.94929E-09 -3.89958E-09 -3.84800E-09 -3.79476E-09
  -3.74007E-09 -3.68415E-09 -3.62724E-09 -3.56953E-09 -3.51125E-09 -3.45262E-09 -3.39386E-09 -3.33520E-09 -3.27681E-09 -3.21893E-09
  -3.16179E-09 -3.10563E-09 -3.05062E-09 -2.99698E-09 -2.94498E-09 -2.89477E-09 -2.84662E-09 -2.80072E-09 -2.75730E-09 -2.71658E-09
  -2.67864E-09 -2.64343E-09 -2.61092E-09 -2.58106E-09 -2.55378E-09 -2.52904E-09 -2.50679E-09 -2.48698E-09 -2.46956E-09 -2.45447E-09
  -2.44167E-09 -2.43110E-09 -2.42272E-09 -2.41646E-09 -2.41228E-09 -2.41015E-09 -2.40998E-09 -2.41175E-09 -2.41538E-09 -2.42086E-09
  -2.42809E-09 -2.43707E-09 -2.44770E-09 -2.45996E-09 -2.47379E-09 -2.48915E-09 -2.50597E-09 -2.52420E-09 -2.54381E-09 -2.56475E-09
  -2.58694E-09 -2.61034E-09 -2.63490E-09 -2.66059E-09 -2.68732E-09 -2.71509E-09 -2.74380E-09 -2.77342E-09 -2.80389E-09 -2.83518E-09
  -2.86723E-09 -2.89997E-09 -2.93338E-09 -2.96737E-09 -3.00192E-09 -3.03699E-09 -3.07251E-09 -3.10840E-09 -3.14467E-09 -3.18122E-09
  -3.21803E-09 -3.25505E-09 -3.29223E-09 -3.32958E-09 -3.36709E-09 -3.40476E-09 -3.44258E-09 -3.48055E-09 -3.51866E-09 -3.55690E-09
  -3.59526E-09 -3.63375E-09 -3.67235E-09 -3.71106E-09 -3.74988E-09 -3.78878E-09 -3.82778E-09 -3.86686E-09 -3.90602E-09 -3.94524E-09
  -3.98454E-09 -4.02389E-09 -4.06328E-09 -4.10274E-09 -4.14222E-09 -4.18174E-09 -4.22129E-09 -4.26086E-09 -4.30044E-09 -4.34003E-09
  -4.37962E-09 -4.41921E-09 -4.45878E-09 -4.49834E-09 -4.53788E-09 -4.57739E-09 -4.61686E-09 -4.65629E-09 -4.69567E-09 -4.73500E-09
  -4.77427E-09 -4.81347E-09 -4.85260E-09 -4.89165E-09 -4.93061E-09 -4.96948E-09 -5.00825E-09 -5.04692E-09 -5.08548E-09 -5.12392E-09
  -5.16224E-09 -5.20043E-09 -5.23849E-09
 Cr       Conc. = 3.95E-10
   2.50004E-09  2.59183E-09  2.51792E-09  1.78728E-09  1.59963E-09  1.57323E-09  1.58624E-09  1.61375E-09  1.64801E-09  1.68592E-09
   1.72600E-09  1.76750E-09  1.80995E-09  1.85310E-09  1.89677E-09  1.94088E-09  1.98535E-09  2.03015E-09  2.07529E-09  2.12078E-09
   2.16667E-09  2.21304E-09  2.26003E-09  2.30785E-09  2.35685E-09  2.40763E-09  2.46122E-09  2.51972E-09  2.58770E-09  2.67746E-09
   2.83348E-09  3.31041E-09  4.07100E-09  4.43658E-09  4.58842E-09  4.65957E-09  4.74753E-09  4.78522E-09  4.81572E-09  4.83331E-09
   4.93246E-09  4.99607E-09  4.53872E-09  3.67194E-09  3.49662E-09  3.45921E-09  3.46318E-09  3.48443E-09  3.51446E-09  3.54956E-09
   3.58788E-09  3.62835E-09  3.67038E-09  3.71355E-09  3.75762E-09  3.80241E-09  3.84777E-09  3.89363E-09  3.93992E-09  3.98657E-09
   4.03356E-09  4.08085E-09  4.12842E-09  4.17625E-09  4.22432E-09  4.27262E-09  4.32113E-09  4.36986E-09  4.41880E-09  4.46793E-09
   4.51726E-09  4.56678E-09  4.61649E-09  4.66639E-09  4.71647E-09  4.76673E-09  4.81717E-09  4.86780E-09  4.91860E-09  4.96958E-09
   5.02075E-09  5.07209E-09  5.12361E-09  5.17531E-09  5.22719E-09  5.27925E-09  5.33149E-09  5.38391E-09  5.43651E-09  5.48930E-09
   5.54227E-09  5.59543E-09  5.64876E-09  5.70229E-09  5.75600E-09  5.80990E-09  5.86398E-09  5.91826E-09  5.97273E-09  6.02739E-09
   6.08224E-09  6.13728E-09  6.19252E-09  6.24796E-09  6.30359E-09  6.35933E-09  6.41503E-09  6.47056E-09  6.52575E-09  6.58047E-09
   6.63456E-09  6.68789E-09  6.74029E-09  6.79163E-09  6.84175E-09  6.89052E-09  6.93777E-09  6.98337E-09  7.02717E-09  7.06901E-09
   7.10876E-09  7.14626E-09  7.18138E-09  7.21395E-09  7.24383E-09  7.27088E-09  7.29495E-09  7.31590E-09  7.33356E-09  7.34780E-09
   7.35847E-09  7.36543E-09  7.36852E-09  7.36760E-09  7.36252E-09  7.35313E-09  7.33929E-09  7.32085E-09  7.29766E-09  7.26959E-09
   7.23647E-09  7.19815E-09  7.15452E-09  7.10540E-09  7.05065E-09  6.99012E-09  6.92368E-09  6.85117E-09  6.77245E-09  6.68739E-09
   6.59581E-09  6.49761E-09  6.39262E-09  6.28071E-09  6.16175E-09  6.03559E-09  5.90220E-09  5.76175E-09  5.61465E-09  5.46127E-09
   5.30208E-09  5.13762E-09  4.96872E-09  4.79674E-09  4.62471E-09  4.46186E-09  4.35336E-09  4.43909E-09  4.38255E-09  4.23702E-09
   4.03706E-09  3.85146E-09  3.63772E-09  3.42644E-09  3.19470E-09  2.99231E-09  2.80045E-09  2.51627E-09  1.90973E-09  1.57823E-09
   1.32022E-09  1.08177E-09  8.51327E-10  6.25359E-10  4.02528E-10  1.82413E-10 -3.51524E-11 -2.50128E-10 -4.62319E-10 -6.71548E-10
  -8.77591E-10 -1.08016E-09 -1.27904E-09 -1.47388E-09 -1.66446E-09 -1.85045E-09 -2.03158E-09 -2.20753E-09 -2.37803E-09 -2.54276E-09
  -2.70142E-09 -2.85372E-09 -2.99934E-09 -3.13799E-09 -3.26937E-09 -3.39318E-09 -3.50907E-09 -3.61681E-09 -3.71617E-09 -3.80733E-09
  -3.89051E-09 -3.96592E-09 -4.03379E-09 -4.09435E-09 -4.14778E-09 -4.19434E-09 -4.23423E-09 -4.26766E-09 -4.29486E-09 -4.31606E-09
  -4.33144E-09 -4.34125E-09 -4.34571E-09 -4.34502E-09 -4.33941E-09 -4.32909E-09 -4.31426E-09 -4.29519E-09 -4.27208E-09 -4.24511E-09
