 LCModel (Version 6.3-1R) Copyright: S.W. Provencher.          Ref.: Magn. Reson. Med. 30:672-679 (1993).                
 onepulse 12x16_ftSpec_smooth_lcm
 26 lines in following concentration table = NCONC+1
    Conc.  %SD   /Cr    Metabolite                                         
    0.000 999%   0.000 Ala                                                 
    0.000 999%   0.000 Asp                                                 
    0.000 999%   0.000 Cr                                                  
 1.00E-09  70%   0.000 GABA                                                
 1.31E-09  47%   0.000 Glc                                                 
    0.000 999%   0.000 Gln                                                 
 3.28E-10 191%   0.000 Glu                                                 
    0.000 999%   0.000 Glyc                                                
 1.04E-10  95%   0.000 GPC                                                 
    0.000 999%   0.000 GSH                                                 
 7.01E-10  64%   0.000 Ins                                                 
    0.000 999%   0.000 Lac                                                 
    0.000 999%   0.000 NAAG                                                
 6.13E-10  54%   0.000 NAA                                                 
    0.000 999%   0.000 PCh                                                 
    0.000 999%   0.000 PCr                                                 
    0.000 999%   0.000 PE                                                  
    0.000 999%   0.000 Scyllo                                              
 3.28E-09  32%   0.000 Ser                                                 
    0.000 999%   0.000 Tau                                                 
 1.04E-10  95%   0.000 GPC+PCh                                             
 6.13E-10  54%   0.000 NAA+NAAG                                            
 7.01E-10  64%   0.000 Ins+Glyc                                            
    0.000 999%   0.000 Cr+PCr                                              
 3.28E-10 191%   0.000 Glu+Gln                                             
   6 lines in following misc. output table
  FWHM = 0.056 ppm    S/N =   2                                            
  Data shift = 0.324 ppm                                                   
  Ph: -36 deg     -36.5 deg/ppm                                            
  alphaB,S = 5.9E-01,   2.8E+01                                            
    8 spline knots.   Ns = 5(1)                                            
  ( 7) 4 infls.   ( 3) 1 extrs.                                            
  363 points on ppm-axis = NY
      4.250000     4.238821     4.227641     4.216462     4.205282     4.194103     4.182923     4.171744     4.160564     4.149385
      4.138206     4.127026     4.115847     4.104667     4.093488     4.082308     4.071129     4.059949     4.048770     4.037591
      4.026411     4.015232     4.004052     3.992873     3.981693     3.970514     3.959334     3.948155     3.936975     3.925796
      3.914617     3.903437     3.892258     3.881078     3.869899     3.858719     3.847540     3.836360     3.825181     3.814002
      3.802822     3.791643     3.780463     3.769284     3.758104     3.746925     3.735745     3.724566     3.713387     3.702207
      3.691028     3.679848     3.668669     3.657489     3.646310     3.635130     3.623951     3.612772     3.601592     3.590413
      3.579233     3.568054     3.556874     3.545695     3.534515     3.523336     3.512156     3.500977     3.489798     3.478618
      3.467439     3.456259     3.445080     3.433900     3.422721     3.411541     3.400362     3.389183     3.378003     3.366824
      3.355644     3.344465     3.333285     3.322106     3.310926     3.299747     3.288568     3.277388     3.266209     3.255029
      3.243850     3.232670     3.221491     3.210311     3.199132     3.187953     3.176773     3.165594     3.154414     3.143235
      3.132055     3.120876     3.109696     3.098517     3.087337     3.076158     3.064979     3.053799     3.042620     3.031440
      3.020261     3.009081     2.997902     2.986722     2.975543     2.964364     2.953184     2.942005     2.930825     2.919646
      2.908466     2.897287     2.886107     2.874928     2.863749     2.852569     2.841390     2.830210     2.819031     2.807851
      2.796672     2.785492     2.774313     2.763134     2.751954     2.740775     2.729595     2.718416     2.707236     2.696057
      2.684877     2.673698     2.662519     2.651339     2.640160     2.628980     2.617801     2.606621     2.595442     2.584262
      2.573083     2.561903     2.550724     2.539545     2.528365     2.517186     2.506006     2.494827     2.483647     2.472468
      2.461288     2.450109     2.438930     2.427750     2.416571     2.405391     2.394212     2.383032     2.371853     2.360673
      2.349494     2.338315     2.327135     2.315956     2.304776     2.293597     2.282417     2.271238     2.260058     2.248879
      2.237700     2.226520     2.215341     2.204161     2.192982     2.181802     2.170623     2.159443     2.148264     2.137084
      2.125905     2.114726     2.103546     2.092367     2.081187     2.070008     2.058828     2.047649     2.036469     2.025290
      2.014111     2.002931     1.991752     1.980572     1.969393     1.958213     1.947034     1.935854     1.924675     1.913496
      1.902316     1.891137     1.879957     1.868778     1.857598     1.846419     1.835239     1.824060     1.812881     1.801701
      1.790522     1.779342     1.768163     1.756983     1.745804     1.734624     1.723445     1.712265     1.701086     1.689907
      1.678727     1.667548     1.656368     1.645189     1.634009     1.622830     1.611650     1.600471     1.589292     1.578112
      1.566933     1.555753     1.544574     1.533394     1.522215     1.511035     1.499856     1.488677     1.477497     1.466318
      1.455138     1.443959     1.432779     1.421600     1.410420     1.399241     1.388062     1.376882     1.365703     1.354523
      1.343344     1.332164     1.320985     1.309805     1.298626     1.287446     1.276267     1.265088     1.253908     1.242729
      1.231549     1.220370     1.209190     1.198011     1.186831     1.175652     1.164473     1.153293     1.142114     1.130934
      1.119755     1.108575     1.097396     1.086216     1.075037     1.063858     1.052678     1.041499     1.030319     1.019140
      1.007960     0.996781     0.985601     0.974422     0.963243     0.952063     0.940884     0.929704     0.918525     0.907345
      0.896166     0.884986     0.873807     0.862628     0.851448     0.840269     0.829089     0.817910     0.806730     0.795551
      0.784371     0.773192     0.762012     0.750833     0.739654     0.728474     0.717295     0.706115     0.694936     0.683756
      0.672577     0.661397     0.650218     0.639039     0.627859     0.616680     0.605500     0.594321     0.583141     0.571962
      0.560782     0.549603     0.538424     0.527244     0.516065     0.504885     0.493706     0.482526     0.471347     0.460167
      0.448988     0.437809     0.426629     0.415450     0.404270     0.393091     0.381911     0.370732     0.359552     0.348373
      0.337193     0.326014     0.314835     0.303655     0.292476     0.281296     0.270117     0.258937     0.247758     0.236578
      0.225399     0.214220     0.203040
 NY phased data points follow
   1.20013E-08  1.33075E-08  1.48687E-08  1.59197E-08  1.78049E-08  1.79416E-08  1.76398E-08  1.67921E-08  1.64121E-08  1.57368E-08
   1.52459E-08  1.49277E-08  1.51177E-08  1.40186E-08  1.50307E-08  1.46622E-08  1.53368E-08  1.49109E-08  1.52841E-08  1.51948E-08
   1.56557E-08  1.51044E-08  1.47545E-08  1.44237E-08  1.45304E-08  1.40641E-08  1.41886E-08  1.40426E-08  1.48023E-08  1.41086E-08
   1.41429E-08  1.34045E-08  1.37969E-08  1.37670E-08  1.47174E-08  1.51399E-08  1.57790E-08  1.57108E-08  1.60427E-08  1.50000E-08
   1.51662E-08  1.35045E-08  1.42704E-08  1.29653E-08  1.37115E-08  1.23524E-08  1.28700E-08  1.24146E-08  1.26106E-08  1.16458E-08
   1.19861E-08  1.06462E-08  1.12005E-08  1.06210E-08  1.06852E-08  1.03634E-08  1.08488E-08  9.60381E-09  9.86003E-09  9.42052E-09
   9.05659E-09  8.77064E-09  8.90589E-09  8.36529E-09  1.00704E-08  9.64110E-09  1.26510E-08  1.26008E-08  1.41004E-08  1.29972E-08
   1.33010E-08  1.25086E-08  1.22903E-08  1.07433E-08  1.12823E-08  9.98308E-09  1.02111E-08  9.04051E-09  8.68059E-09  7.83836E-09
   8.70294E-09  9.45614E-09  1.18711E-08  1.27523E-08  1.57525E-08  1.50549E-08  1.59616E-08  1.42793E-08  1.52841E-08  1.42079E-08
   1.51508E-08  1.31991E-08  1.38950E-08  1.29705E-08  1.37182E-08  1.25440E-08  1.30832E-08  1.13606E-08  1.19041E-08  1.09639E-08
   1.10411E-08  1.02719E-08  1.01996E-08  8.94443E-09  1.00414E-08  8.83403E-09  9.68622E-09  9.25669E-09  8.92783E-09  8.33919E-09
   8.92803E-09  7.24931E-09  7.62845E-09  7.04663E-09  7.01375E-09  6.43100E-09  7.20718E-09  6.31014E-09  7.58946E-09  6.75938E-09
   7.28304E-09  6.44436E-09  7.96726E-09  6.85613E-09  7.44505E-09  6.58854E-09  7.10060E-09  5.51097E-09  5.98689E-09  4.87475E-09
   6.19840E-09  5.05324E-09  6.19954E-09  5.34524E-09  5.89864E-09  5.56830E-09  6.52189E-09  6.09005E-09  6.74174E-09  5.98923E-09
   6.82597E-09  6.36669E-09  7.69509E-09  7.52857E-09  8.78883E-09  7.86830E-09  9.15728E-09  7.76491E-09  9.66093E-09  9.45045E-09
   1.01448E-08  9.03988E-09  1.05385E-08  9.38616E-09  9.87827E-09  9.07933E-09  9.89996E-09  9.47723E-09  9.54912E-09  8.50926E-09
   9.70682E-09  8.44195E-09  9.85895E-09  8.58540E-09  9.51760E-09  7.95199E-09  9.61335E-09  8.22104E-09  8.51512E-09  7.76651E-09
   8.97314E-09  8.56376E-09  1.06246E-08  1.18515E-08  1.55372E-08  1.63867E-08  1.74057E-08  1.53166E-08  1.56852E-08  1.38140E-08
   1.33321E-08  1.11495E-08  1.07569E-08  8.79665E-09  7.94083E-09  5.81784E-09  4.46304E-09  1.94166E-09  7.54277E-10 -2.86427E-09
  -3.27864E-09 -7.09645E-09 -8.56376E-09 -1.18654E-08 -1.27244E-08 -1.55028E-08 -1.67490E-08 -1.81318E-08 -1.83772E-08 -2.00625E-08
  -1.95450E-08 -2.00796E-08 -1.89913E-08 -1.80732E-08 -1.57456E-08 -1.53947E-08 -1.30044E-08 -1.20065E-08 -9.53781E-09 -9.08542E-09
  -6.74485E-09 -6.84826E-09 -5.51542E-09 -5.30814E-09 -4.29241E-09 -4.94894E-09 -4.28829E-09 -5.06013E-09 -4.71020E-09 -5.02190E-09
  -3.98443E-09 -4.42129E-09 -4.16204E-09 -4.19832E-09 -3.08934E-09 -4.05777E-09 -3.08411E-09 -3.95081E-09 -3.15266E-09 -3.60857E-09
  -3.47489E-09 -4.07667E-09 -3.28063E-09 -3.31610E-09 -3.67209E-09 -3.20541E-09 -2.89951E-09 -2.90249E-09 -2.68521E-09 -3.31668E-09
  -2.84477E-09 -3.49230E-09 -3.07881E-09 -3.76756E-09 -3.02427E-09 -3.42847E-09 -3.45711E-09 -3.27049E-09 -2.42095E-09 -3.26744E-09
  -2.55575E-09 -2.74714E-09 -2.50655E-09 -2.53788E-09 -2.23878E-09 -2.60190E-09 -2.17342E-09 -2.35707E-09 -2.59478E-09 -3.08626E-09
  -2.30126E-09 -3.26127E-09 -3.25963E-09 -3.71131E-09 -3.28853E-09 -3.86250E-09 -3.39085E-09 -3.83632E-09 -2.99792E-09 -3.42459E-09
  -3.28875E-09 -3.15674E-09 -2.28685E-09 -2.74994E-09 -2.38773E-09 -2.31945E-09 -2.21883E-09 -1.64107E-09 -1.36176E-09 -1.20105E-09
  -1.31140E-09 -1.81703E-09 -1.91868E-09 -1.96813E-09 -1.86362E-09 -2.06936E-09 -1.98211E-09 -2.33039E-09 -2.70808E-09 -2.33831E-09
  -2.74912E-09 -2.55790E-09 -2.91311E-09 -3.09266E-09 -3.11843E-09 -3.07597E-09 -3.02617E-09 -3.09992E-09 -2.92061E-09 -3.39611E-09
  -3.49395E-09 -3.72476E-09 -3.40146E-09 -3.81187E-09 -3.78058E-09 -3.96427E-09 -3.62853E-09 -4.03235E-09 -3.58144E-09 -4.16108E-09
  -4.11124E-09 -4.15135E-09 -3.87960E-09 -3.83533E-09 -3.72183E-09 -4.45969E-09 -3.97679E-09 -4.53846E-09 -3.53975E-09 -4.24209E-09
  -4.42644E-09 -3.99993E-09 -4.04357E-09 -4.78005E-09 -4.18131E-09 -3.65628E-09 -4.06286E-09 -4.39852E-09 -3.83549E-09 -3.79275E-09
  -3.70316E-09 -4.39162E-09 -3.95527E-09 -4.24885E-09 -3.99526E-09 -4.17112E-09 -3.51415E-09 -4.72880E-09 -4.43110E-09 -4.26195E-09
  -3.79720E-09 -4.18023E-09 -3.63511E-09 -3.85340E-09 -3.93380E-09 -4.14629E-09 -4.08430E-09 -3.91368E-09 -3.60411E-09 -3.71651E-09
  -3.79874E-09 -3.97628E-09 -3.27190E-09 -3.80390E-09 -3.29796E-09 -4.29706E-09 -3.44660E-09 -3.54158E-09 -3.26643E-09 -3.97145E-09
  -3.53343E-09 -3.89166E-09 -2.66651E-09
 NY points of the fit to the data follow
   1.52048E-08  1.60713E-08  1.58894E-08  1.54802E-08  1.62921E-08  1.73897E-08  1.75969E-08  1.68608E-08  1.57405E-08  1.46907E-08
   1.38946E-08  1.33743E-08  1.30867E-08  1.31880E-08  1.36163E-08  1.40484E-08  1.44418E-08  1.50396E-08  1.53248E-08  1.50632E-08
   1.49521E-08  1.51907E-08  1.54611E-08  1.55364E-08  1.52763E-08  1.46144E-08  1.39268E-08  1.34953E-08  1.33748E-08  1.36294E-08
   1.41082E-08  1.45640E-08  1.49967E-08  1.51937E-08  1.48185E-08  1.42625E-08  1.40619E-08  1.40056E-08  1.39812E-08  1.39430E-08
   1.38578E-08  1.38617E-08  1.37440E-08  1.32912E-08  1.29626E-08  1.27733E-08  1.23954E-08  1.20164E-08  1.17435E-08  1.15667E-08
   1.14481E-08  1.13541E-08  1.12523E-08  1.10964E-08  1.08960E-08  1.07324E-08  1.06515E-08  1.06665E-08  1.07011E-08  1.06802E-08
   1.05607E-08  1.04176E-08  1.04157E-08  1.04732E-08  1.06458E-08  1.10388E-08  1.14112E-08  1.16620E-08  1.19609E-08  1.22528E-08
   1.25516E-08  1.27397E-08  1.26163E-08  1.22639E-08  1.20286E-08  1.14708E-08  1.07960E-08  1.08656E-08  1.11634E-08  1.13374E-08
   1.15562E-08  1.18326E-08  1.23089E-08  1.31579E-08  1.41889E-08  1.50920E-08  1.55248E-08  1.50593E-08  1.37317E-08  1.28754E-08
   1.24874E-08  1.22954E-08  1.22657E-08  1.20969E-08  1.18262E-08  1.17547E-08  1.15879E-08  1.12632E-08  1.10572E-08  1.08756E-08
   1.06594E-08  1.04730E-08  1.03134E-08  1.01729E-08  1.00461E-08  9.92941E-09  9.82042E-09  9.71758E-09  9.61965E-09  9.52560E-09
   9.43466E-09  9.34576E-09  9.25846E-09  9.17235E-09  9.08712E-09  9.00254E-09  8.91828E-09  8.83399E-09  8.74941E-09  8.66441E-09
   8.57867E-09  8.49217E-09  8.40468E-09  8.31607E-09  8.22619E-09  8.13490E-09  8.04204E-09  7.94759E-09  7.85136E-09  7.75326E-09
   7.65320E-09  7.55103E-09  7.44674E-09  7.34019E-09  7.23129E-09  7.11991E-09  7.00610E-09  6.88963E-09  6.77049E-09  6.64855E-09
   6.52380E-09  6.39614E-09  6.26551E-09  6.13177E-09  5.99492E-09  5.85489E-09  5.71164E-09  5.56528E-09  5.41591E-09  5.26367E-09
   5.10866E-09  4.95104E-09  4.79094E-09  4.62856E-09  4.46410E-09  4.29781E-09  4.13000E-09  3.96107E-09  3.79161E-09  3.62245E-09
   3.45485E-09  3.29099E-09  3.13474E-09  2.99393E-09  2.88702E-09  2.86941E-09  3.19340E-09  4.85290E-09  6.90115E-09  8.36011E-09
   9.41898E-09  1.07222E-08  1.27550E-08  1.54320E-08  1.79826E-08  1.91128E-08  1.74804E-08  1.24894E-08  5.97314E-09  2.66215E-09
   1.49720E-09  8.61144E-10  4.20549E-10  7.36541E-11 -2.20794E-10 -4.82607E-10 -7.22430E-10 -9.46439E-10 -1.15855E-09 -1.36120E-09
  -1.55602E-09 -1.74419E-09 -1.92646E-09 -2.10341E-09 -2.27537E-09 -2.44266E-09 -2.60548E-09 -2.76389E-09 -2.91800E-09 -3.06787E-09
  -3.21349E-09 -3.35485E-09 -3.49191E-09 -3.62465E-09 -3.75303E-09 -3.87695E-09 -3.99636E-09 -4.11121E-09 -4.22142E-09 -4.32686E-09
  -4.42753E-09 -4.52329E-09 -4.61406E-09 -4.69977E-09 -4.78036E-09 -4.85568E-09 -4.92569E-09 -4.99032E-09 -5.04944E-09 -5.10319E-09
  -5.15166E-09 -5.19503E-09 -5.23339E-09 -5.26691E-09 -5.29570E-09 -5.31991E-09 -5.33968E-09 -5.35512E-09 -5.36639E-09 -5.37361E-09
  -5.37692E-09 -5.37645E-09 -5.37234E-09 -5.36472E-09 -5.35372E-09 -5.33947E-09 -5.32212E-09 -5.30178E-09 -5.27859E-09 -5.25268E-09
  -5.22417E-09 -5.19323E-09 -5.15995E-09 -5.12446E-09 -5.08689E-09 -5.04739E-09 -5.00606E-09 -4.96304E-09 -4.91846E-09 -4.87242E-09
  -4.82507E-09 -4.77651E-09 -4.72689E-09 -4.67629E-09 -4.62484E-09 -4.57270E-09 -4.51993E-09 -4.46668E-09 -4.41305E-09 -4.35915E-09
  -4.30509E-09 -4.25101E-09 -4.19700E-09 -4.14315E-09 -4.08958E-09 -4.03639E-09 -3.98371E-09 -3.93159E-09 -3.88016E-09 -3.82953E-09
  -3.77976E-09 -3.73097E-09 -3.68326E-09 -3.63667E-09 -3.59136E-09 -3.54736E-09 -3.50478E-09 -3.46372E-09 -3.42420E-09 -3.38635E-09
  -3.35024E-09 -3.31594E-09 -3.28352E-09 -3.25303E-09 -3.22457E-09 -3.19818E-09 -3.17396E-09 -3.15190E-09 -3.13212E-09 -3.11466E-09
  -3.09955E-09 -3.08682E-09 -3.07636E-09 -3.06809E-09 -3.06191E-09 -3.05775E-09 -3.05551E-09 -3.05512E-09 -3.05648E-09 -3.05950E-09
  -3.06412E-09 -3.07023E-09 -3.07777E-09 -3.08664E-09 -3.09676E-09 -3.10805E-09 -3.12045E-09 -3.13387E-09 -3.14821E-09 -3.16342E-09
  -3.17941E-09 -3.19611E-09 -3.21345E-09 -3.23134E-09 -3.24972E-09 -3.26851E-09 -3.28766E-09 -3.30707E-09 -3.32670E-09 -3.34647E-09
  -3.36631E-09 -3.38615E-09 -3.40594E-09 -3.42562E-09 -3.44511E-09 -3.46435E-09 -3.48330E-09 -3.50190E-09 -3.52008E-09 -3.53779E-09
  -3.55498E-09 -3.57159E-09 -3.58757E-09 -3.60287E-09 -3.61745E-09 -3.63125E-09 -3.64424E-09 -3.65636E-09 -3.66758E-09 -3.67783E-09
  -3.68711E-09 -3.69535E-09 -3.70254E-09 -3.70862E-09 -3.71355E-09 -3.71734E-09 -3.71992E-09 -3.72129E-09 -3.72138E-09 -3.72021E-09
  -3.71773E-09 -3.71391E-09 -3.70876E-09 -3.70222E-09 -3.69431E-09 -3.68498E-09 -3.67425E-09 -3.66208E-09 -3.64847E-09 -3.63342E-09
  -3.61689E-09 -3.59891E-09 -3.57946E-09
 NY background values follow
     6.897E-09    6.970E-09    7.041E-09    7.110E-09    7.177E-09    7.243E-09    7.306E-09    7.369E-09    7.429E-09    7.488E-09
     7.545E-09    7.600E-09    7.654E-09    7.706E-09    7.756E-09    7.805E-09    7.852E-09    7.898E-09    7.941E-09    7.984E-09
     8.024E-09    8.063E-09    8.101E-09    8.137E-09    8.171E-09    8.204E-09    8.235E-09    8.265E-09    8.294E-09    8.321E-09
     8.346E-09    8.371E-09    8.393E-09    8.415E-09    8.435E-09    8.454E-09    8.471E-09    8.488E-09    8.503E-09    8.517E-09
     8.529E-09    8.541E-09    8.551E-09    8.560E-09    8.569E-09    8.576E-09    8.582E-09    8.587E-09    8.591E-09    8.594E-09
     8.597E-09    8.598E-09    8.599E-09    8.599E-09    8.598E-09    8.596E-09    8.594E-09    8.591E-09    8.587E-09    8.583E-09
     8.578E-09    8.573E-09    8.567E-09    8.561E-09    8.554E-09    8.547E-09    8.540E-09    8.532E-09    8.524E-09    8.516E-09
     8.508E-09    8.499E-09    8.491E-09    8.482E-09    8.473E-09    8.465E-09    8.456E-09    8.447E-09    8.437E-09    8.428E-09
     8.418E-09    8.409E-09    8.398E-09    8.388E-09    8.377E-09    8.366E-09    8.354E-09    8.342E-09    8.329E-09    8.316E-09
     8.303E-09    8.288E-09    8.273E-09    8.258E-09    8.241E-09    8.224E-09    8.206E-09    8.187E-09    8.167E-09    8.146E-09
     8.125E-09    8.102E-09    8.078E-09    8.053E-09    8.027E-09    7.999E-09    7.970E-09    7.940E-09    7.908E-09    7.875E-09
     7.841E-09    7.805E-09    7.767E-09    7.727E-09    7.686E-09    7.643E-09    7.598E-09    7.552E-09    7.503E-09    7.452E-09
     7.399E-09    7.345E-09    7.288E-09    7.228E-09    7.167E-09    7.103E-09    7.036E-09    6.968E-09    6.896E-09    6.822E-09
     6.746E-09    6.667E-09    6.585E-09    6.500E-09    6.412E-09    6.321E-09    6.228E-09    6.131E-09    6.031E-09    5.929E-09
     5.822E-09    5.713E-09    5.600E-09    5.484E-09    5.365E-09    5.242E-09    5.115E-09    4.985E-09    4.852E-09    4.715E-09
     4.576E-09    4.433E-09    4.288E-09    4.140E-09    3.990E-09    3.836E-09    3.681E-09    3.523E-09    3.364E-09    3.202E-09
     3.038E-09    2.873E-09    2.706E-09    2.537E-09    2.368E-09    2.197E-09    2.025E-09    1.851E-09    1.678E-09    1.503E-09
     1.328E-09    1.152E-09    9.764E-10    8.003E-10    6.242E-10    4.482E-10    2.724E-10    9.696E-11   -7.796E-11   -2.523E-10
    -4.258E-10   -5.984E-10   -7.701E-10   -9.405E-10   -1.110E-09   -1.277E-09   -1.444E-09   -1.608E-09   -1.771E-09   -1.931E-09
    -2.090E-09   -2.247E-09   -2.401E-09   -2.552E-09   -2.701E-09   -2.848E-09   -2.991E-09   -3.132E-09   -3.269E-09   -3.403E-09
    -3.534E-09   -3.661E-09   -3.785E-09   -3.905E-09   -4.022E-09   -4.134E-09   -4.242E-09   -4.347E-09   -4.446E-09   -4.542E-09
    -4.633E-09   -4.719E-09   -4.801E-09   -4.878E-09   -4.950E-09   -5.017E-09   -5.079E-09   -5.136E-09   -5.187E-09   -5.233E-09
    -5.274E-09   -5.310E-09   -5.341E-09   -5.368E-09   -5.390E-09   -5.407E-09   -5.421E-09   -5.430E-09   -5.434E-09   -5.435E-09
    -5.432E-09   -5.426E-09   -5.416E-09   -5.402E-09   -5.386E-09   -5.366E-09   -5.343E-09   -5.317E-09   -5.288E-09   -5.257E-09
    -5.223E-09   -5.187E-09   -5.148E-09   -5.108E-09   -5.065E-09   -5.021E-09   -4.974E-09   -4.926E-09   -4.877E-09   -4.826E-09
    -4.774E-09   -4.721E-09   -4.667E-09   -4.612E-09   -4.556E-09   -4.499E-09   -4.442E-09   -4.384E-09   -4.326E-09   -4.268E-09
    -4.210E-09   -4.152E-09   -4.094E-09   -4.036E-09   -3.978E-09   -3.921E-09   -3.864E-09   -3.808E-09   -3.753E-09   -3.699E-09
    -3.645E-09   -3.592E-09   -3.541E-09   -3.491E-09   -3.442E-09   -3.394E-09   -3.348E-09   -3.303E-09   -3.260E-09   -3.219E-09
    -3.179E-09   -3.142E-09   -3.106E-09   -3.072E-09   -3.040E-09   -3.011E-09   -2.983E-09   -2.958E-09   -2.935E-09   -2.914E-09
    -2.896E-09   -2.880E-09   -2.867E-09   -2.855E-09   -2.846E-09   -2.839E-09   -2.834E-09   -2.830E-09   -2.829E-09   -2.829E-09
    -2.831E-09   -2.834E-09   -2.839E-09   -2.845E-09   -2.852E-09   -2.861E-09   -2.870E-09   -2.881E-09   -2.893E-09   -2.905E-09
    -2.919E-09   -2.933E-09   -2.947E-09   -2.963E-09   -2.979E-09   -2.995E-09   -3.011E-09   -3.028E-09   -3.046E-09   -3.063E-09
    -3.080E-09   -3.098E-09   -3.115E-09   -3.132E-09   -3.150E-09   -3.167E-09   -3.183E-09   -3.200E-09   -3.215E-09   -3.231E-09
    -3.246E-09   -3.260E-09   -3.274E-09   -3.287E-09   -3.300E-09   -3.311E-09   -3.322E-09   -3.332E-09   -3.341E-09   -3.350E-09
    -3.357E-09   -3.363E-09   -3.368E-09   -3.372E-09   -3.375E-09   -3.377E-09   -3.378E-09   -3.377E-09   -3.376E-09   -3.372E-09
    -3.368E-09   -3.362E-09   -3.355E-09   -3.347E-09   -3.337E-09   -3.326E-09   -3.314E-09   -3.300E-09   -3.285E-09   -3.268E-09
    -3.250E-09   -3.230E-09   -3.209E-09
 GABA     Conc. = 1.00E-09
   6.46969E-09  6.53511E-09  6.59849E-09  6.65978E-09  6.71898E-09  6.77606E-09  6.83096E-09  6.88366E-09  6.93413E-09  6.98230E-09
   7.02815E-09  7.07160E-09  7.11260E-09  7.15105E-09  7.18690E-09  7.22005E-09  7.25030E-09  7.27756E-09  7.30170E-09  7.32245E-09
   7.33954E-09  7.35271E-09  7.36149E-09  7.36539E-09  7.36392E-09  7.35637E-09  7.34237E-09  7.32267E-09  7.30480E-09  7.35096E-09
   7.42600E-09  7.44320E-09  7.55811E-09  7.80372E-09  8.05376E-09  8.35367E-09  8.73823E-09  9.16368E-09  9.56463E-09  9.86965E-09
   1.00729E-08  1.03275E-08  1.04250E-08  1.01409E-08  9.95812E-09  9.89104E-09  9.63044E-09  9.36320E-09  9.17812E-09  9.04047E-09
   8.93170E-09  8.84170E-09  8.76422E-09  8.69556E-09  8.63311E-09  8.57460E-09  8.51869E-09  8.46450E-09  8.41154E-09  8.36139E-09
   8.31955E-09  8.31583E-09  8.41037E-09  8.47521E-09  8.53338E-09  8.75830E-09  9.02874E-09  9.29067E-09  9.61378E-09  9.97101E-09
   1.02930E-08  1.04942E-08  1.05198E-08  1.04627E-08  1.04534E-08  1.01192E-08  9.65247E-09  9.52134E-09  9.35483E-09  9.09459E-09
   8.96209E-09  8.85539E-09  8.75671E-09  8.77719E-09  8.82460E-09  8.84766E-09  8.94546E-09  9.09451E-09  9.25970E-09  9.43495E-09
   9.55862E-09  9.69047E-09  9.88867E-09  9.89760E-09  9.76699E-09  9.81070E-09  9.74456E-09  9.50694E-09  9.37717E-09  9.26365E-09
   9.10881E-09  8.97834E-09  8.87000E-09  8.77680E-09  8.69402E-09  8.61845E-09  8.54807E-09  8.48165E-09  8.41817E-09  8.35683E-09
   8.29702E-09  8.23784E-09  8.17897E-09  8.12013E-09  8.06109E-09  8.00171E-09  7.94176E-09  7.88093E-09  7.81904E-09  7.75600E-09
   7.69155E-09  7.62572E-09  7.55831E-09  7.48923E-09  7.41836E-09  7.34560E-09  7.27081E-09  7.19399E-09  7.11499E-09  7.03374E-09
   6.95015E-09  6.86412E-09  6.77564E-09  6.68459E-09  6.59090E-09  6.49445E-09  6.39530E-09  6.29323E-09  6.18826E-09  6.08026E-09
   5.96924E-09  5.85509E-09  5.73777E-09  5.61715E-09  5.49323E-09  5.36593E-09  5.23524E-09  5.10125E-09  4.96407E-09  4.82381E-09
   4.68057E-09  4.53448E-09  4.38563E-09  4.23418E-09  4.08023E-09  3.92393E-09  3.76542E-09  3.60485E-09  3.44243E-09  3.27836E-09
   3.11292E-09  2.94658E-09  2.78003E-09  2.61466E-09  2.45377E-09  2.30789E-09  2.23037E-09  2.37565E-09  2.49672E-09  2.51724E-09
   2.50519E-09  2.55626E-09  2.72266E-09  2.96307E-09  3.14187E-09  3.06236E-09  2.54693E-09  1.56783E-09  5.18729E-10  9.28718E-11
  -1.78252E-10 -4.02396E-10 -6.06055E-10 -7.98512E-10 -9.83855E-10 -1.16410E-09 -1.34031E-09 -1.51304E-09 -1.68272E-09 -1.84948E-09
  -2.01339E-09 -2.17453E-09 -2.33285E-09 -2.48833E-09 -2.64087E-09 -2.79043E-09 -2.93694E-09 -3.08025E-09 -3.22028E-09 -3.35697E-09
  -3.49019E-09 -3.61983E-09 -3.74578E-09 -3.86793E-09 -3.98621E-09 -4.10045E-09 -4.21058E-09 -4.31649E-09 -4.41809E-09 -4.51521E-09
  -4.60783E-09 -4.69578E-09 -4.77898E-09 -4.85733E-09 -4.93076E-09 -4.99910E-09 -5.06230E-09 -5.12029E-09 -5.17293E-09 -5.22032E-09
  -5.26258E-09 -5.29986E-09 -5.33226E-09 -5.35993E-09 -5.38298E-09 -5.40157E-09 -5.41580E-09 -5.42581E-09 -5.43173E-09 -5.43369E-09
  -5.43183E-09 -5.42627E-09 -5.41714E-09 -5.40458E-09 -5.38871E-09 -5.36967E-09 -5.34758E-09 -5.32257E-09 -5.29479E-09 -5.26433E-09
  -5.23135E-09 -5.19598E-09 -5.15833E-09 -5.11854E-09 -5.07671E-09 -5.03299E-09 -4.98751E-09 -4.94039E-09 -4.89174E-09 -4.84169E-09
  -4.79038E-09 -4.73789E-09 -4.68440E-09 -4.62996E-09 -4.57471E-09 -4.51882E-09 -4.46234E-09 -4.40541E-09 -4.34815E-09 -4.29065E-09
  -4.23303E-09 -4.17543E-09 -4.11792E-09 -4.06062E-09 -4.00363E-09 -3.94706E-09 -3.89102E-09 -3.83558E-09 -3.78086E-09 -3.72697E-09
  -3.67398E-09 -3.62199E-09 -3.57111E-09 -3.52139E-09 -3.47297E-09 -3.42590E-09 -3.38027E-09 -3.33617E-09 -3.29367E-09 -3.25285E-09
  -3.21380E-09 -3.17658E-09 -3.14127E-09 -3.10792E-09 -3.07662E-09 -3.04742E-09 -3.02041E-09 -2.99558E-09 -2.97307E-09 -2.95289E-09
  -2.93509E-09 -2.91969E-09 -2.90658E-09 -2.89568E-09 -2.88690E-09 -2.88017E-09 -2.87537E-09 -2.87244E-09 -2.87129E-09 -2.87182E-09
  -2.87396E-09 -2.87762E-09 -2.88273E-09 -2.88919E-09 -2.89692E-09 -2.90585E-09 -2.91589E-09 -2.92698E-09 -2.93901E-09 -2.95193E-09
  -2.96565E-09 -2.98009E-09 -2.99519E-09 -3.01086E-09 -3.02705E-09 -3.04366E-09 -3.06065E-09 -3.07791E-09 -3.09541E-09 -3.11307E-09
  -3.13082E-09 -3.14858E-09 -3.16632E-09 -3.18395E-09 -3.20142E-09 -3.21865E-09 -3.23562E-09 -3.25224E-09 -3.26847E-09 -3.28423E-09
  -3.29950E-09 -3.31420E-09 -3.32828E-09 -3.34170E-09 -3.35442E-09 -3.36638E-09 -3.37753E-09 -3.38783E-09 -3.39726E-09 -3.40572E-09
  -3.41323E-09 -3.41971E-09 -3.42516E-09 -3.42952E-09 -3.43274E-09 -3.43483E-09 -3.43573E-09 -3.43542E-09 -3.43387E-09 -3.43105E-09
  -3.42695E-09 -3.42152E-09 -3.41476E-09 -3.40665E-09 -3.39716E-09 -3.38628E-09 -3.37401E-09 -3.36031E-09 -3.34519E-09 -3.32863E-09
  -3.31062E-09 -3.29115E-09 -3.27025E-09
 Glc      Conc. = 1.31E-09
   5.76551E-09  6.09025E-09  6.42806E-09  6.96767E-09  7.62165E-09  8.31739E-09  8.83911E-09  9.19533E-09  9.25995E-09  8.95099E-09
   8.66012E-09  8.42858E-09  8.24135E-09  8.20771E-09  8.39491E-09  8.68714E-09  9.00488E-09  9.39321E-09  9.81465E-09  1.03224E-08
   1.10668E-08  1.19322E-08  1.27167E-08  1.32526E-08  1.32576E-08  1.27122E-08  1.21034E-08  1.17136E-08  1.15247E-08  1.14611E-08
   1.13826E-08  1.12746E-08  1.12236E-08  1.11535E-08  1.09982E-08  1.08606E-08  1.07629E-08  1.06261E-08  1.04628E-08  1.03319E-08
   1.02268E-08  1.01382E-08  1.00617E-08  9.99437E-09  9.93420E-09  9.87979E-09  9.83010E-09  9.78424E-09  9.74158E-09  9.70162E-09
   9.66389E-09  9.62811E-09  9.59393E-09  9.56117E-09  9.52967E-09  9.49918E-09  9.46962E-09  9.44094E-09  9.41287E-09  9.38550E-09
   9.35873E-09  9.33244E-09  9.30667E-09  9.28132E-09  9.25645E-09  9.23193E-09  9.20782E-09  9.18406E-09  9.16068E-09  9.13771E-09
   9.11507E-09  9.09280E-09  9.07098E-09  9.04949E-09  9.02842E-09  9.00767E-09  8.98719E-09  8.96696E-09  8.94692E-09  8.92702E-09
   8.90721E-09  8.88746E-09  8.86771E-09  8.84791E-09  8.82804E-09  8.80803E-09  8.78783E-09  8.76741E-09  8.74672E-09  8.72570E-09
   8.70431E-09  8.68252E-09  8.66022E-09  8.63746E-09  8.61410E-09  8.59011E-09  8.56547E-09  8.54012E-09  8.51399E-09  8.48704E-09
   8.45921E-09  8.43046E-09  8.40073E-09  8.36999E-09  8.33813E-09  8.30514E-09  8.27095E-09  8.23553E-09  8.19881E-09  8.16066E-09
   8.12118E-09  8.08017E-09  8.03763E-09  7.99350E-09  7.94772E-09  7.90024E-09  7.85100E-09  7.79995E-09  7.74699E-09  7.69215E-09
   7.63525E-09  7.57633E-09  7.51528E-09  7.45207E-09  7.38663E-09  7.31888E-09  7.24874E-09  7.17625E-09  7.10127E-09  7.02375E-09
   6.94365E-09  6.86087E-09  6.77542E-09  6.68719E-09  6.59613E-09  6.50214E-09  6.40529E-09  6.30539E-09  6.20244E-09  6.09633E-09
   5.98708E-09  5.87459E-09  5.75882E-09  5.63966E-09  5.51712E-09  5.39113E-09  5.26167E-09  5.12884E-09  4.99275E-09  4.85353E-09
   4.71129E-09  4.56616E-09  4.41824E-09  4.26770E-09  4.11465E-09  3.95925E-09  3.80167E-09  3.64207E-09  3.48068E-09  3.31778E-09
   3.15368E-09  2.98897E-09  2.82449E-09  2.66194E-09  2.50518E-09  2.36573E-09  2.29653E-09  2.52573E-09  2.75016E-09  2.84272E-09
   2.87925E-09  2.98607E-09  3.24157E-09  3.60544E-09  3.91190E-09  3.90739E-09  3.34999E-09  2.16262E-09  7.86540E-10  2.24247E-10
  -8.76753E-11 -3.29871E-10 -5.43393E-10 -7.41959E-10 -9.31418E-10 -1.11461E-09 -1.29303E-09 -1.46749E-09 -1.63855E-09 -1.80647E-09
  -1.97135E-09 -2.13333E-09 -2.29240E-09 -2.44854E-09 -2.60169E-09 -2.75180E-09 -2.89883E-09 -3.04262E-09 -3.18312E-09 -3.32025E-09
  -3.45389E-09 -3.58394E-09 -3.71028E-09 -3.83283E-09 -3.95149E-09 -4.06610E-09 -4.17660E-09 -4.28288E-09 -4.38484E-09 -4.48231E-09
  -4.57528E-09 -4.66359E-09 -4.74713E-09 -4.82583E-09 -4.89961E-09 -4.96829E-09 -5.03184E-09 -5.09017E-09 -5.14315E-09 -5.19089E-09
  -5.23349E-09 -5.27111E-09 -5.30385E-09 -5.33187E-09 -5.35525E-09 -5.37418E-09 -5.38875E-09 -5.39910E-09 -5.40536E-09 -5.40765E-09
