 LCModel (Version 6.3-1R) Copyright: S.W. Provencher.          Ref.: Magn. Reson. Med. 30:672-679 (1993).                
 onepulse 12x15_ftSpec_smooth_lcm
 26 lines in following concentration table = NCONC+1
    Conc.  %SD /Cr+PCr  Metabolite                                         
    0.000 999%   0.000 Ala                                                 
 1.10E-09  71%   3.086 Asp                                                 
 3.57E-10 114%   1.000 Cr                                                  
 6.92E-10 125%   1.938 GABA                                                
    0.000 999%   0.000 Glc                                                 
 2.34E-09  36%   6.564 Gln                                                 
    0.000 999%   0.000 Glu                                                 
    0.000 999%   0.000 Glyc                                                
    0.000 999%   0.000 GPC                                                 
 4.69E-10 133%   1.314 GSH                                                 
 1.62E-09  28%   4.540 Ins                                                 
    0.000 999%   0.000 Lac                                                 
 1.83E-10 212%   0.513 NAAG                                                
 4.09E-10 141%   1.146 NAA                                                 
    0.000 999%   0.000 PCh                                                 
    0.000 999%   0.000 PCr                                                 
 1.52E-09  59%   4.247 PE                                                  
 8.86E-11 353%   0.248 Scyllo                                              
 7.90E-10 114%   2.212 Ser                                                 
 9.73E-10 108%   2.726 Tau                                                 
    0.000 999%   0.000 GPC+PCh                                             
 5.92E-10  59%   1.659 NAA+NAAG                                            
 1.62E-09  28%   4.540 Ins+Glyc                                            
 3.57E-10 114%   1.000 Cr+PCr                                              
 2.34E-09  36%   6.564 Glu+Gln                                             
   6 lines in following misc. output table
  FWHM = 0.123 ppm    S/N =   3                                            
  Data shift = 0.402 ppm                                                   
  Ph: -15 deg     -41.5 deg/ppm                                            
  alphaB,S = 3.5E-01,   1.4E+01                                            
   10 spline knots.   Ns = 5(1)                                            
  (12) 6 infls.   (11) 5 extrs.                                            
  363 points on ppm-axis = NY
      4.250000     4.238821     4.227641     4.216462     4.205282     4.194103     4.182923     4.171744     4.160564     4.149385
      4.138206     4.127026     4.115847     4.104667     4.093488     4.082308     4.071129     4.059949     4.048770     4.037591
      4.026411     4.015232     4.004052     3.992873     3.981693     3.970514     3.959334     3.948155     3.936975     3.925796
      3.914617     3.903437     3.892258     3.881078     3.869899     3.858719     3.847540     3.836360     3.825181     3.814002
      3.802822     3.791643     3.780463     3.769284     3.758104     3.746925     3.735745     3.724566     3.713387     3.702207
      3.691028     3.679848     3.668669     3.657489     3.646310     3.635130     3.623951     3.612772     3.601592     3.590413
      3.579233     3.568054     3.556874     3.545695     3.534515     3.523336     3.512156     3.500977     3.489798     3.478618
      3.467439     3.456259     3.445080     3.433900     3.422721     3.411541     3.400362     3.389183     3.378003     3.366824
      3.355644     3.344465     3.333285     3.322106     3.310926     3.299747     3.288568     3.277388     3.266209     3.255029
      3.243850     3.232670     3.221491     3.210311     3.199132     3.187953     3.176773     3.165594     3.154414     3.143235
      3.132055     3.120876     3.109696     3.098517     3.087337     3.076158     3.064979     3.053799     3.042620     3.031440
      3.020261     3.009081     2.997902     2.986722     2.975543     2.964364     2.953184     2.942005     2.930825     2.919646
      2.908466     2.897287     2.886107     2.874928     2.863749     2.852569     2.841390     2.830210     2.819031     2.807851
      2.796672     2.785492     2.774313     2.763134     2.751954     2.740775     2.729595     2.718416     2.707236     2.696057
      2.684877     2.673698     2.662519     2.651339     2.640160     2.628980     2.617801     2.606621     2.595442     2.584262
      2.573083     2.561903     2.550724     2.539545     2.528365     2.517186     2.506006     2.494827     2.483647     2.472468
      2.461288     2.450109     2.438930     2.427750     2.416571     2.405391     2.394212     2.383032     2.371853     2.360673
      2.349494     2.338315     2.327135     2.315956     2.304776     2.293597     2.282417     2.271238     2.260058     2.248879
      2.237700     2.226520     2.215341     2.204161     2.192982     2.181802     2.170623     2.159443     2.148264     2.137084
      2.125905     2.114726     2.103546     2.092367     2.081187     2.070008     2.058828     2.047649     2.036469     2.025290
      2.014111     2.002931     1.991752     1.980572     1.969393     1.958213     1.947034     1.935854     1.924675     1.913496
      1.902316     1.891137     1.879957     1.868778     1.857598     1.846419     1.835239     1.824060     1.812881     1.801701
      1.790522     1.779342     1.768163     1.756983     1.745804     1.734624     1.723445     1.712265     1.701086     1.689907
      1.678727     1.667548     1.656368     1.645189     1.634009     1.622830     1.611650     1.600471     1.589292     1.578112
      1.566933     1.555753     1.544574     1.533394     1.522215     1.511035     1.499856     1.488677     1.477497     1.466318
      1.455138     1.443959     1.432779     1.421600     1.410420     1.399241     1.388062     1.376882     1.365703     1.354523
      1.343344     1.332164     1.320985     1.309805     1.298626     1.287446     1.276267     1.265088     1.253908     1.242729
      1.231549     1.220370     1.209190     1.198011     1.186831     1.175652     1.164473     1.153293     1.142114     1.130934
      1.119755     1.108575     1.097396     1.086216     1.075037     1.063858     1.052678     1.041499     1.030319     1.019140
      1.007960     0.996781     0.985601     0.974422     0.963243     0.952063     0.940884     0.929704     0.918525     0.907345
      0.896166     0.884986     0.873807     0.862628     0.851448     0.840269     0.829089     0.817910     0.806730     0.795551
      0.784371     0.773192     0.762012     0.750833     0.739654     0.728474     0.717295     0.706115     0.694936     0.683756
      0.672577     0.661397     0.650218     0.639039     0.627859     0.616680     0.605500     0.594321     0.583141     0.571962
      0.560782     0.549603     0.538424     0.527244     0.516065     0.504885     0.493706     0.482526     0.471347     0.460167
      0.448988     0.437809     0.426629     0.415450     0.404270     0.393091     0.381911     0.370732     0.359552     0.348373
      0.337193     0.326014     0.314835     0.303655     0.292476     0.281296     0.270117     0.258937     0.247758     0.236578
      0.225399     0.214220     0.203040
 NY phased data points follow
   1.33688E-08  9.48193E-09  1.22932E-08  8.73200E-09  1.21870E-08  8.93698E-09  1.19141E-08  9.70690E-09  1.25944E-08  1.02504E-08
   1.28330E-08  1.04532E-08  1.31181E-08  1.00155E-08  1.22106E-08  9.42457E-09  1.21237E-08  9.38625E-09  1.20030E-08  9.37934E-09
   1.24560E-08  1.00128E-08  1.21245E-08  9.36971E-09  1.15469E-08  9.62318E-09  1.23266E-08  1.10210E-08  1.36272E-08  1.17897E-08
   1.37455E-08  1.10329E-08  1.20642E-08  9.78904E-09  1.07430E-08  9.11755E-09  1.03338E-08  9.01530E-09  9.74419E-09  8.66479E-09
   1.00200E-08  8.28563E-09  9.50743E-09  7.87643E-09  8.54156E-09  7.72114E-09  8.90216E-09  7.36722E-09  9.07022E-09  7.63768E-09
   8.07517E-09  6.98375E-09  8.18845E-09  6.57516E-09  8.10778E-09  6.92275E-09  8.56155E-09  8.66942E-09  1.02725E-08  1.18620E-08
   1.28583E-08  1.25219E-08  1.25137E-08  1.12418E-08  1.14331E-08  9.69345E-09  9.82227E-09  8.96803E-09  9.15289E-09  8.23551E-09
   8.18662E-09  6.85054E-09  7.39472E-09  7.40733E-09  9.75989E-09  1.14325E-08  1.39274E-08  1.54219E-08  1.50220E-08  1.46499E-08
   1.38146E-08  1.38081E-08  1.35062E-08  1.33140E-08  1.22785E-08  1.21328E-08  1.21426E-08  1.19258E-08  1.17619E-08  1.13466E-08
   1.06549E-08  1.04605E-08  1.00442E-08  9.68429E-09  9.39551E-09  8.91467E-09  8.46060E-09  8.73832E-09  8.48122E-09  8.55829E-09
   8.76071E-09  8.15819E-09  8.24670E-09  8.32471E-09  7.17024E-09  7.01772E-09  6.98188E-09  6.38839E-09  6.30297E-09  6.94034E-09
   6.55346E-09  7.35395E-09  6.95625E-09  7.21012E-09  6.80689E-09  7.84116E-09  7.16898E-09  7.60126E-09  7.18852E-09  7.24766E-09
   6.00593E-09  6.21164E-09  5.29334E-09  6.25924E-09  5.69294E-09  6.20132E-09  5.63360E-09  6.02091E-09  6.05883E-09  6.86134E-09
   6.44084E-09  7.06812E-09  6.32231E-09  7.09581E-09  6.65554E-09  7.73715E-09  7.81813E-09  9.10490E-09  8.20876E-09  9.59370E-09
   8.14010E-09  9.99624E-09  9.96321E-09  1.08354E-08  9.84588E-09  1.13603E-08  1.01690E-08  1.08375E-08  1.01805E-08  1.09998E-08
   1.08014E-08  1.09487E-08  9.83070E-09  1.11373E-08  9.90557E-09  1.13811E-08  1.03389E-08  1.12833E-08  9.82637E-09  1.13547E-08
   1.03663E-08  1.02930E-08  9.45415E-09  1.01194E-08  9.25364E-09  1.05453E-08  1.15113E-08  1.62882E-08  1.83426E-08  2.10109E-08
   2.00973E-08  2.12346E-08  2.02343E-08  2.06666E-08  1.93918E-08  1.97106E-08  1.83484E-08  1.84409E-08  1.69938E-08  1.68430E-08
   1.44056E-08  1.42503E-08  1.09799E-08  1.07104E-08  7.55341E-09  5.88969E-09  2.41696E-09  1.01631E-09 -2.00907E-09 -4.06863E-09
  -6.52459E-09 -7.54012E-09 -1.02184E-08 -1.09729E-08 -1.27562E-08 -1.29889E-08 -1.35147E-08 -1.21739E-08 -1.24084E-08 -1.08752E-08
  -1.07715E-08 -8.32795E-09 -8.23122E-09 -5.89806E-09 -5.47876E-09 -4.42267E-09 -4.36532E-09 -2.78301E-09 -3.75888E-09 -2.64547E-09
  -3.34722E-09 -3.10705E-09 -3.93997E-09 -2.80916E-09 -3.29626E-09 -2.41756E-09 -3.25129E-09 -1.80842E-09 -2.64998E-09 -1.70904E-09
  -2.49556E-09 -1.68368E-09 -2.31408E-09 -1.80578E-09 -2.91727E-09 -2.16005E-09 -2.01566E-09 -1.84096E-09 -2.44350E-09 -1.46684E-09
  -1.94752E-09 -9.44157E-10 -2.14853E-09 -1.12671E-09 -2.16883E-09 -1.54595E-09 -2.50465E-09 -1.79655E-09 -2.18601E-09 -1.79539E-09
  -3.01826E-09 -1.29467E-09 -2.20273E-09 -1.52535E-09 -2.02316E-09 -1.55931E-09 -1.78534E-09 -9.64598E-10 -1.94753E-09 -7.38485E-10
  -1.47012E-09 -6.55108E-10 -2.04186E-09 -7.69974E-10 -1.58327E-09 -1.22044E-09 -2.11861E-09 -1.46272E-09 -2.25981E-09 -1.93100E-09
  -2.90699E-09 -2.17689E-09 -2.62589E-09 -2.44254E-09 -3.38302E-09 -2.20078E-09 -2.69551E-09 -2.36051E-09 -2.62250E-09 -2.35068E-09
  -2.50472E-09 -1.40184E-09 -1.52964E-09 -5.62885E-10 -1.45863E-09 -4.84223E-10 -1.30887E-09 -6.41114E-10 -1.23804E-09 -3.66500E-10
  -6.64368E-10 -6.44357E-10 -1.01441E-09 -6.63737E-10 -9.59859E-10 -1.85878E-10 -1.39796E-09 -4.91837E-10 -1.54376E-09 -6.82083E-10
  -1.71261E-09 -5.10304E-10 -1.37214E-09 -7.28940E-10 -1.71838E-09 -6.83669E-10 -1.49246E-09 -1.04783E-09 -1.82625E-09 -1.14128E-09
  -1.94901E-09 -1.31840E-09 -1.74458E-09 -1.43024E-09 -2.40415E-09 -1.63789E-09 -2.22999E-09 -1.39957E-09 -2.15041E-09 -1.81035E-09
  -2.52029E-09 -1.86596E-09 -1.96326E-09 -2.17762E-09 -2.68110E-09 -1.52801E-09 -2.45371E-09 -2.82728E-09 -2.72167E-09 -1.67861E-09
  -2.96024E-09 -2.47621E-09 -2.78624E-09 -1.96899E-09 -2.55928E-09 -2.23457E-09 -2.75985E-09 -2.32585E-09 -3.10887E-09 -2.08504E-09
  -2.33080E-09 -2.81134E-09 -3.33904E-09 -2.88302E-09 -3.21911E-09 -2.97782E-09 -2.93755E-09 -2.56224E-09 -3.24038E-09 -2.77398E-09
  -3.49105E-09 -2.92248E-09 -3.27570E-09 -2.48927E-09 -3.76256E-09 -2.76139E-09 -3.36757E-09 -2.63487E-09 -3.44600E-09 -3.40872E-09
  -3.60327E-09 -2.77863E-09 -3.55362E-09 -3.04773E-09 -4.14163E-09 -3.13812E-09 -3.67087E-09 -3.58919E-09 -3.42240E-09 -3.38832E-09
  -3.25816E-09 -3.17328E-09 -3.99649E-09
 NY points of the fit to the data follow
   1.25999E-08  1.19636E-08  1.11826E-08  1.02637E-08  1.02868E-08  1.05511E-08  1.04138E-08  1.03836E-08  1.12116E-08  1.17616E-08
   1.14645E-08  1.10596E-08  1.10688E-08  1.13017E-08  1.16753E-08  1.12715E-08  1.10718E-08  1.16465E-08  1.15674E-08  1.00300E-08
   9.33405E-09  9.95256E-09  1.07052E-08  1.11961E-08  1.15163E-08  1.18170E-08  1.22477E-08  1.21102E-08  1.19349E-08  1.18808E-08
   1.20054E-08  1.18594E-08  1.15980E-08  1.11031E-08  1.07141E-08  1.01347E-08  9.56119E-09  9.27353E-09  9.21351E-09  9.05489E-09
   8.89785E-09  8.93743E-09  8.50201E-09  7.54186E-09  7.45179E-09  7.50902E-09  7.36390E-09  6.96900E-09  7.00451E-09  7.16089E-09
   7.50561E-09  7.90011E-09  8.25797E-09  8.54244E-09  8.93301E-09  9.37485E-09  9.51923E-09  1.02349E-08  1.11980E-08  1.14540E-08
   1.14767E-08  1.15942E-08  1.17332E-08  1.17693E-08  1.16369E-08  1.12601E-08  1.06903E-08  1.05644E-08  9.97633E-09  9.21312E-09
   9.17471E-09  9.51806E-09  9.62103E-09  9.73699E-09  1.03429E-08  1.10884E-08  1.17193E-08  1.30730E-08  1.39365E-08  1.42639E-08
   1.43382E-08  1.43458E-08  1.38931E-08  1.34901E-08  1.34307E-08  1.29566E-08  1.21294E-08  1.13405E-08  9.77160E-09  9.06868E-09
   8.71863E-09  8.51075E-09  8.50827E-09  8.38780E-09  8.12436E-09  8.13371E-09  8.09649E-09  7.90073E-09  7.84997E-09  7.81936E-09
   7.76259E-09  7.74095E-09  7.73472E-09  7.73753E-09  7.74993E-09  7.76924E-09  7.79305E-09  7.82024E-09  7.84962E-09  7.88068E-09
   7.91290E-09  7.94560E-09  7.97846E-09  8.01113E-09  8.04334E-09  8.07491E-09  8.10560E-09  8.13513E-09  8.16328E-09  8.18987E-09
   8.21472E-09  8.23768E-09  8.25859E-09  8.27729E-09  8.29361E-09  8.30744E-09  8.31860E-09  8.32698E-09  8.33243E-09  8.33483E-09
   8.33403E-09  8.32993E-09  8.32240E-09  8.31131E-09  8.29656E-09  8.27801E-09  8.25558E-09  8.22912E-09  8.19855E-09  8.16377E-09
   8.12466E-09  8.08115E-09  8.03314E-09  7.98056E-09  7.92331E-09  7.86134E-09  7.79462E-09  7.72309E-09  7.64675E-09  7.56561E-09
   7.47971E-09  7.38916E-09  7.29410E-09  7.19477E-09  7.09153E-09  6.98491E-09  6.87575E-09  6.76548E-09  6.65628E-09  6.55129E-09
   6.45546E-09  6.37693E-09  6.33060E-09  6.34667E-09  6.49747E-09  7.00550E-09  8.90528E-09  1.54015E-08  1.94718E-08  2.09594E-08
   2.10436E-08  2.11924E-08  2.09441E-08  2.05813E-08  2.00812E-08  2.04549E-08  2.08369E-08  1.79156E-08  8.32463E-09  4.82823E-09
   3.63959E-09  2.99793E-09  2.55354E-09  2.20059E-09  1.89716E-09  1.62379E-09  1.37022E-09  1.13070E-09  9.01844E-10  6.81529E-10
   4.68416E-10  2.61698E-10  6.08087E-11 -1.34501E-10 -3.24453E-10 -5.09075E-10 -6.88366E-10 -8.62229E-10 -1.03059E-09 -1.19328E-09
  -1.35014E-09 -1.50099E-09 -1.64561E-09 -1.78382E-09 -1.91538E-09 -2.04007E-09 -2.15763E-09 -2.26788E-09 -2.37063E-09 -2.46606E-09
  -2.55435E-09 -2.63570E-09 -2.71031E-09 -2.77836E-09 -2.84004E-09 -2.89556E-09 -2.94506E-09 -2.98876E-09 -3.02684E-09 -3.05948E-09
  -3.08685E-09 -3.10916E-09 -3.12657E-09 -3.13926E-09 -3.14743E-09 -3.15125E-09 -3.15088E-09 -3.14655E-09 -3.13842E-09 -3.12663E-09
  -3.11140E-09 -3.09290E-09 -3.07131E-09 -3.04681E-09 -3.01957E-09 -2.98980E-09 -2.95765E-09 -2.92330E-09 -2.88693E-09 -2.84873E-09
  -2.80887E-09 -2.76752E-09 -2.72488E-09 -2.68111E-09 -2.63639E-09 -2.59091E-09 -2.54485E-09 -2.49839E-09 -2.45168E-09 -2.40490E-09
  -2.35826E-09 -2.31193E-09 -2.26608E-09 -2.22087E-09 -2.17653E-09 -2.13317E-09 -2.09102E-09 -2.05024E-09 -2.01101E-09 -1.97352E-09
  -1.93782E-09 -1.90392E-09 -1.87179E-09 -1.84141E-09 -1.81274E-09 -1.78578E-09 -1.76049E-09 -1.73686E-09 -1.71484E-09 -1.69443E-09
  -1.67561E-09 -1.65833E-09 -1.64259E-09 -1.62835E-09 -1.61559E-09 -1.60430E-09 -1.59444E-09 -1.58599E-09 -1.57891E-09 -1.57321E-09
  -1.56884E-09 -1.56580E-09 -1.56403E-09 -1.56352E-09 -1.56427E-09 -1.56624E-09 -1.56938E-09 -1.57370E-09 -1.57918E-09 -1.58577E-09
  -1.59346E-09 -1.60222E-09 -1.61202E-09 -1.62287E-09 -1.63469E-09 -1.64751E-09 -1.66128E-09 -1.67597E-09 -1.69156E-09 -1.70804E-09
  -1.72538E-09 -1.74353E-09 -1.76251E-09 -1.78226E-09 -1.80276E-09 -1.82402E-09 -1.84599E-09 -1.86862E-09 -1.89195E-09 -1.91588E-09
  -1.94045E-09 -1.96563E-09 -1.99135E-09 -2.01764E-09 -2.04446E-09 -2.07181E-09 -2.09966E-09 -2.12801E-09 -2.15684E-09 -2.18612E-09
  -2.21586E-09 -2.24602E-09 -2.27659E-09 -2.30756E-09 -2.33892E-09 -2.37064E-09 -2.40271E-09 -2.43511E-09 -2.46783E-09 -2.50085E-09
  -2.53417E-09 -2.56775E-09 -2.60158E-09 -2.63566E-09 -2.66996E-09 -2.70446E-09 -2.73916E-09 -2.77403E-09 -2.80906E-09 -2.84423E-09
  -2.87953E-09 -2.91495E-09 -2.95046E-09 -2.98605E-09 -3.02170E-09 -3.05740E-09 -3.09314E-09 -3.12889E-09 -3.16464E-09 -3.20038E-09
  -3.23608E-09 -3.27174E-09 -3.30734E-09 -3.34286E-09 -3.37828E-09 -3.41359E-09 -3.44878E-09 -3.48382E-09 -3.51871E-09 -3.55342E-09
  -3.58794E-09 -3.62226E-09 -3.65635E-09
 NY background values follow
    -6.565E-10   -5.820E-10   -5.076E-10   -4.331E-10   -3.587E-10   -2.844E-10   -2.100E-10   -1.357E-10   -6.141E-11    1.285E-11
     8.707E-11    1.613E-10    2.354E-10    3.095E-10    3.836E-10    4.576E-10    5.316E-10    6.055E-10    6.794E-10    7.532E-10
     8.269E-10    9.006E-10    9.743E-10    1.048E-09    1.121E-09    1.195E-09    1.268E-09    1.341E-09    1.415E-09    1.488E-09
     1.561E-09    1.634E-09    1.707E-09    1.780E-09    1.852E-09    1.925E-09    1.998E-09    2.070E-09    2.142E-09    2.215E-09
     2.287E-09    2.359E-09    2.431E-09    2.503E-09    2.575E-09    2.646E-09    2.718E-09    2.789E-09    2.860E-09    2.932E-09
     3.003E-09    3.074E-09    3.144E-09    3.215E-09    3.286E-09    3.356E-09    3.426E-09    3.496E-09    3.566E-09    3.636E-09
     3.706E-09    3.775E-09    3.844E-09    3.913E-09    3.982E-09    4.050E-09    4.119E-09    4.187E-09    4.255E-09    4.322E-09
     4.390E-09    4.457E-09    4.524E-09    4.590E-09    4.657E-09    4.723E-09    4.788E-09    4.854E-09    4.919E-09    4.984E-09
     5.048E-09    5.112E-09    5.176E-09    5.239E-09    5.303E-09    5.365E-09    5.428E-09    5.490E-09    5.551E-09    5.613E-09
     5.673E-09    5.734E-09    5.794E-09    5.854E-09    5.913E-09    5.971E-09    6.030E-09    6.088E-09    6.145E-09    6.202E-09
     6.259E-09    6.315E-09    6.370E-09    6.425E-09    6.480E-09    6.534E-09    6.587E-09    6.640E-09    6.691E-09    6.742E-09
     6.791E-09    6.839E-09    6.886E-09    6.932E-09    6.975E-09    7.017E-09    7.057E-09    7.095E-09    7.132E-09    7.165E-09
     7.197E-09    7.226E-09    7.253E-09    7.277E-09    7.298E-09    7.316E-09    7.331E-09    7.344E-09    7.353E-09    7.358E-09
     7.360E-09    7.359E-09    7.354E-09    7.345E-09    7.332E-09    7.315E-09    7.293E-09    7.268E-09    7.238E-09    7.204E-09
     7.165E-09    7.121E-09    7.072E-09    7.019E-09    6.960E-09    6.896E-09    6.827E-09    6.752E-09    6.672E-09    6.586E-09
     6.494E-09    6.396E-09    6.293E-09    6.183E-09    6.067E-09    5.944E-09    5.815E-09    5.680E-09    5.539E-09    5.392E-09
     5.239E-09    5.081E-09    4.919E-09    4.752E-09    4.580E-09    4.404E-09    4.224E-09    4.041E-09    3.854E-09    3.665E-09
     3.472E-09    3.277E-09    3.080E-09    2.881E-09    2.680E-09    2.477E-09    2.273E-09    2.069E-09    1.864E-09    1.658E-09
     1.452E-09    1.247E-09    1.042E-09    8.371E-10    6.336E-10    4.313E-10    2.305E-10    3.149E-11   -1.655E-10   -3.602E-10
    -5.523E-10   -7.416E-10   -9.278E-10   -1.111E-09   -1.290E-09   -1.465E-09   -1.636E-09   -1.803E-09   -1.965E-09   -2.122E-09
    -2.273E-09   -2.420E-09   -2.560E-09   -2.694E-09   -2.823E-09   -2.944E-09   -3.059E-09   -3.166E-09   -3.266E-09   -3.359E-09
    -3.445E-09   -3.525E-09   -3.597E-09   -3.664E-09   -3.724E-09   -3.777E-09   -3.825E-09   -3.868E-09   -3.904E-09   -3.936E-09
    -3.962E-09   -3.983E-09   -3.999E-09   -4.011E-09   -4.018E-09   -4.021E-09   -4.019E-09   -4.014E-09   -4.005E-09   -3.992E-09
    -3.976E-09   -3.957E-09   -3.934E-09   -3.909E-09   -3.881E-09   -3.851E-09   -3.818E-09   -3.783E-09   -3.746E-09   -3.707E-09
    -3.666E-09   -3.624E-09   -3.581E-09   -3.537E-09   -3.491E-09   -3.445E-09   -3.399E-09   -3.352E-09   -3.304E-09   -3.257E-09
    -3.210E-09   -3.163E-09   -3.117E-09   -3.071E-09   -3.026E-09   -2.982E-09   -2.940E-09   -2.898E-09   -2.859E-09   -2.821E-09
    -2.784E-09   -2.750E-09   -2.718E-09   -2.687E-09   -2.658E-09   -2.630E-09   -2.604E-09   -2.580E-09   -2.558E-09   -2.537E-09
    -2.518E-09   -2.500E-09   -2.484E-09   -2.469E-09   -2.456E-09   -2.445E-09   -2.434E-09   -2.425E-09   -2.418E-09   -2.412E-09
    -2.407E-09   -2.404E-09   -2.402E-09   -2.401E-09   -2.401E-09   -2.403E-09   -2.405E-09   -2.409E-09   -2.414E-09   -2.421E-09
    -2.428E-09   -2.436E-09   -2.446E-09   -2.456E-09   -2.468E-09   -2.480E-09   -2.493E-09   -2.508E-09   -2.523E-09   -2.539E-09
    -2.556E-09   -2.574E-09   -2.593E-09   -2.612E-09   -2.632E-09   -2.653E-09   -2.675E-09   -2.697E-09   -2.720E-09   -2.743E-09
    -2.768E-09   -2.792E-09   -2.818E-09   -2.844E-09   -2.870E-09   -2.897E-09   -2.925E-09   -2.953E-09   -2.981E-09   -3.010E-09
    -3.039E-09   -3.069E-09   -3.099E-09   -3.130E-09   -3.161E-09   -3.192E-09   -3.224E-09   -3.256E-09   -3.288E-09   -3.321E-09
    -3.354E-09   -3.387E-09   -3.421E-09   -3.454E-09   -3.488E-09   -3.522E-09   -3.557E-09   -3.591E-09   -3.626E-09   -3.661E-09
    -3.695E-09   -3.730E-09   -3.766E-09   -3.801E-09   -3.836E-09   -3.871E-09   -3.907E-09   -3.942E-09   -3.977E-09   -4.013E-09
    -4.048E-09   -4.083E-09   -4.118E-09   -4.154E-09   -4.189E-09   -4.223E-09   -4.258E-09   -4.293E-09   -4.327E-09   -4.362E-09
    -4.396E-09   -4.430E-09   -4.463E-09
 Asp      Conc. = 1.10E-09
   5.73356E-10  4.45756E-10  4.14454E-10  3.12983E-10  3.25700E-10  2.64961E-10  1.96064E-10  1.16753E-10  1.24482E-10  1.63065E-10
   2.15246E-10  2.74560E-10  3.38776E-10  4.08159E-10  4.78734E-10  5.49933E-10  6.21927E-10  6.94649E-10  7.67976E-10  8.41854E-10
   9.16223E-10  9.91067E-10  1.06639E-09  1.14222E-09  1.21859E-09  1.29560E-09  1.37334E-09  1.45198E-09  1.53174E-09  1.61296E-09
   1.69613E-09  1.78195E-09  1.87167E-09  1.96745E-09  2.07370E-09  2.20138E-09  2.37721E-09  2.51783E-09  2.68003E-09  2.77151E-09
   2.84418E-09  2.92654E-09  3.09875E-09  3.36739E-09  3.71758E-09  4.11997E-09  4.25927E-09  4.22939E-09  4.40919E-09  4.51672E-09
   4.66964E-09  4.84775E-09  4.98595E-09  4.97109E-09  4.80281E-09  4.56681E-09  4.28647E-09  4.40848E-09  4.50844E-09  4.31807E-09
   4.27528E-09  4.29105E-09  4.23711E-09  4.26733E-09  4.37826E-09  4.45936E-09  4.42551E-09  4.43613E-09  4.46792E-09  4.51033E-09
   4.55891E-09  4.61140E-09  4.66652E-09  4.72348E-09  4.78175E-09  4.84096E-09  4.90084E-09  4.96121E-09  5.02192E-09  5.08283E-09
   5.14387E-09  5.20495E-09  5.26602E-09  5.32702E-09  5.38790E-09  5.44863E-09  5.50917E-09  5.56951E-09  5.62960E-09  5.68943E-09
   5.74898E-09  5.80822E-09  5.86715E-09  5.92574E-09  5.98397E-09  6.04185E-09  6.09935E-09  6.15646E-09  6.21316E-09  6.26945E-09
   6.32532E-09  6.38075E-09  6.43574E-09  6.49027E-09  6.54434E-09  6.59787E-09  6.65074E-09  6.70284E-09  6.75406E-09  6.80426E-09
   6.85334E-09  6.90118E-09  6.94765E-09  6.99265E-09  7.03606E-09  7.07775E-09  7.11761E-09  7.15553E-09  7.19138E-09  7.22505E-09
   7.25643E-09  7.28540E-09  7.31183E-09  7.33562E-09  7.35665E-09  7.37480E-09  7.38995E-09  7.40199E-09  7.41080E-09  7.41627E-09
   7.41828E-09  7.41672E-09  7.41146E-09  7.40240E-09  7.38941E-09  7.37238E-09  7.35120E-09  7.32575E-09  7.29592E-09  7.26160E-09
   7.22266E-09  7.17899E-09  7.13049E-09  7.07704E-09  7.01853E-09  6.95483E-09  6.88586E-09  6.81150E-09  6.73164E-09  6.64618E-09
   6.55502E-09  6.45807E-09  6.35524E-09  6.24644E-09  6.13162E-09  6.01071E-09  5.88375E-09  5.75103E-09  5.61303E-09  5.47031E-09
   5.32366E-09  5.17420E-09  5.02381E-09  4.87611E-09  4.73967E-09  4.64121E-09  4.71002E-09  5.26500E-09  5.48910E-09  5.45152E-09
   5.27919E-09  5.12244E-09  4.91665E-09  4.70021E-09  4.47097E-09  4.34069E-09  4.19074E-09  3.64391E-09  2.41207E-09  1.93554E-09
   1.64029E-09  1.39271E-09  1.16376E-09  9.44214E-10  7.30379E-10  5.20685E-10  3.14332E-10  1.10977E-10 -8.94299E-11 -2.86889E-10
  -4.81306E-10 -6.72495E-10 -8.60312E-10 -1.04449E-09 -1.22487E-09 -1.40118E-09 -1.57320E-09 -1.74065E-09 -1.90333E-09 -2.06093E-09
  -2.21323E-09 -2.35995E-09 -2.50084E-09 -2.63564E-09 -2.76409E-09 -2.88592E-09 -3.00084E-09 -3.10865E-09 -3.20912E-09 -3.30244E-09
  -3.38876E-09 -3.46827E-09 -3.54115E-09 -3.60757E-09 -3.66772E-09 -3.72177E-09 -3.76991E-09 -3.81230E-09 -3.84913E-09 -3.88059E-09
  -3.90684E-09 -3.92806E-09 -3.94444E-09 -3.95614E-09 -3.96336E-09 -3.96627E-09 -3.96502E-09 -3.95983E-09 -3.95088E-09 -3.93830E-09
  -3.92230E-09 -3.90306E-09 -3.88074E-09 -3.85555E-09 -3.82763E-09 -3.79720E-09 -3.76441E-09 -3.72942E-09 -3.69245E-09 -3.65365E-09
  -3.61320E-09 -3.57128E-09 -3.52808E-09 -3.48377E-09 -3.43851E-09 -3.39251E-09 -3.34593E-09 -3.29897E-09 -3.25175E-09 -3.20449E-09
  -3.15737E-09 -3.11057E-09 -3.06425E-09 -3.01858E-09 -2.97379E-09 -2.92998E-09 -2.88740E-09 -2.84618E-09 -2.80652E-09 -2.76860E-09
  -2.73249E-09 -2.69817E-09 -2.66563E-09 -2.63484E-09 -2.60578E-09 -2.57842E-09 -2.55274E-09 -2.52871E-09 -2.50631E-09 -2.48552E-09
  -2.46631E-09 -2.44866E-09 -2.43255E-09 -2.41793E-09 -2.40480E-09 -2.39314E-09 -2.38291E-09 -2.37410E-09 -2.36667E-09 -2.36061E-09
  -2.35588E-09 -2.35248E-09 -2.35036E-09 -2.34950E-09 -2.34990E-09 -2.35151E-09 -2.35431E-09 -2.35829E-09 -2.36341E-09 -2.36967E-09
  -2.37701E-09 -2.38543E-09 -2.39489E-09 -2.40539E-09 -2.41688E-09 -2.42936E-09 -2.44278E-09 -2.45713E-09 -2.47238E-09 -2.48853E-09
  -2.50553E-09 -2.52334E-09 -2.54198E-09 -2.56140E-09 -2.58157E-09 -2.60249E-09 -2.62412E-09 -2.64642E-09 -2.66940E-09 -2.69300E-09
  -2.71724E-09 -2.74207E-09 -2.76746E-09 -2.79341E-09 -2.81989E-09 -2.84690E-09 -2.87442E-09 -2.90243E-09 -2.93091E-09 -2.95986E-09
  -2.98925E-09 -3.01907E-09 -3.04930E-09 -3.07993E-09 -3.11094E-09 -3.14232E-09 -3.17404E-09 -3.20610E-09 -3.23847E-09 -3.27115E-09
  -3.30411E-09 -3.33734E-09 -3.37083E-09 -3.40455E-09 -3.43849E-09 -3.47264E-09 -3.50699E-09 -3.54150E-09 -3.57617E-09 -3.61099E-09
  -3.64593E-09 -3.68098E-09 -3.71613E-09 -3.75136E-09 -3.78664E-09 -3.82198E-09 -3.85734E-09 -3.89272E-09 -3.92810E-09 -3.96347E-09
  -3.99880E-09 -4.03408E-09 -4.06930E-09 -4.10443E-09 -4.13947E-09 -4.17440E-09 -4.20920E-09 -4.24385E-09 -4.27835E-09 -4.31267E-09
  -4.34680E-09 -4.38072E-09 -4.41442E-09
 Cr       Conc. = 3.57E-10
   5.51482E-10  6.69965E-10  5.52856E-10 -5.50427E-11 -1.76874E-10 -1.63395E-10 -1.16487E-10 -5.72144E-11  7.83282E-12  7.60007E-11
   1.46021E-10  2.17238E-10  2.89271E-10  3.61884E-10  4.34941E-10  5.08355E-10  5.82065E-10  6.56066E-10  7.30336E-10  8.04918E-10
   8.79848E-10  9.55214E-10  1.03116E-09  1.10789E-09  1.18573E-09  1.26527E-09  1.34751E-09  1.43441E-09  1.53023E-09  1.64623E-09
   1.82244E-09  2.28295E-09  2.97519E-09  3.35558E-09  3.52753E-09  3.62413E-09  3.72085E-09  3.78305E-09  3.83251E-09  3.90525E-09
   4.05175E-09  4.08962E-09  3.60929E-09  2.91170E-09  2.79925E-09  2.80166E-09  2.83841E-09  2.88932E-09  2.94726E-09  3.00914E-09
   3.07341E-09  3.13920E-09  3.20600E-09  3.27347E-09  3.34140E-09  3.40964E-09  3.47807E-09  3.54663E-09  3.61523E-09  3.68384E-09
   3.75242E-09  3.82093E-09  3.88934E-09  3.95764E-09  4.02580E-09  4.09382E-09  4.16166E-09  4.22932E-09  4.29678E-09  4.36403E-09
   4.43106E-09  4.49786E-09  4.56443E-09  4.63074E-09  4.69679E-09  4.76257E-09  4.82807E-09  4.89328E-09  4.95820E-09  5.02282E-09
   5.08712E-09  5.15111E-09  5.21476E-09  5.27808E-09  5.34106E-09  5.40368E-09  5.46595E-09  5.52784E-09  5.58937E-09  5.65051E-09
   5.71126E-09  5.77162E-09  5.83156E-09  5.89110E-09  5.95022E-09  6.00891E-09  6.06717E-09  6.12498E-09  6.18235E-09  6.23926E-09
   6.29571E-09  6.35168E-09  6.40718E-09  6.46220E-09  6.51672E-09  6.57067E-09  6.62394E-09  6.67642E-09  6.72799E-09  6.77853E-09
   6.82793E-09  6.87607E-09  6.92282E-09  6.96809E-09  7.01175E-09  7.05368E-09  7.09377E-09  7.13190E-09  7.16796E-09  7.20182E-09
   7.23338E-09  7.26252E-09  7.28911E-09  7.31305E-09  7.33422E-09  7.35250E-09  7.36777E-09  7.37993E-09  7.38884E-09  7.39441E-09
   7.39650E-09  7.39501E-09  7.38982E-09  7.38081E-09  7.36787E-09  7.35087E-09  7.32972E-09  7.30428E-09  7.27444E-09  7.24010E-09
   7.20112E-09  7.15740E-09  7.10883E-09  7.05528E-09  6.99664E-09  6.93280E-09  6.86364E-09  6.78905E-09  6.70891E-09  6.62313E-09
   6.53157E-09  6.43414E-09  6.33073E-09  6.22123E-09  6.10554E-09  5.98356E-09  5.85528E-09  5.72086E-09  5.58068E-09  5.43507E-09
   5.28449E-09  5.12946E-09  4.97077E-09  4.80975E-09  4.64931E-09  4.49803E-09  4.39658E-09  4.45452E-09  4.40275E-09  4.26307E-09
   4.07688E-09  3.89433E-09  3.69422E-09  3.48936E-09  3.27868E-09  3.09958E-09  2.91487E-09  2.60273E-09  2.06046E-09  1.76548E-09
   1.53059E-09  1.31143E-09  1.09861E-09  8.89313E-10  6.82488E-10  4.77851E-10  2.75295E-10  7.48786E-11 -1.23197E-10 -3.18767E-10
  -5.11629E-10 -7.01517E-10 -8.88235E-10 -1.07147E-09 -1.25104E-09 -1.42664E-09 -1.59804E-09 -1.76494E-09 -1.92712E-09 -2.08429E-09
  -2.23619E-09 -2.38256E-09 -2.52313E-09 -2.65763E-09 -2.78581E-09 -2.90739E-09 -3.02209E-09 -3.12968E-09 -3.22997E-09 -3.32310E-09
  -3.40925E-09 -3.48861E-09 -3.56133E-09 -3.62762E-09 -3.68763E-09 -3.74157E-09 -3.78959E-09 -3.83187E-09 -3.86860E-09 -3.89996E-09
  -3.92611E-09 -3.94725E-09 -3.96354E-09 -3.97517E-09 -3.98231E-09 -3.98514E-09 -3.98382E-09 -3.97856E-09 -3.96955E-09 -3.95691E-09
