 LCModel (Version 6.3-1R) Copyright: S.W. Provencher.          Ref.: Magn. Reson. Med. 30:672-679 (1993).                
 onepulse 12x10_ftSpec_smooth_lcm
 26 lines in following concentration table = NCONC+1
    Conc.  %SD   /Cr    Metabolite                                         
    0.000 999%   0.000 Ala                                                 
 3.37E-10 155%   0.000 Asp                                                 
    0.000 999%   0.000 Cr                                                  
 2.78E-10 134%   0.000 GABA                                                
 1.89E-10 322%   0.000 Glc                                                 
 9.20E-10  44%   0.000 Gln                                                 
    0.000 999%   0.000 Glu                                                 
 3.26E-10 377%   0.000 Glyc                                                
    0.000 999%   0.000 GPC                                                 
 8.22E-10  38%   0.000 GSH                                                 
 1.21E-09  94%   0.000 Ins                                                 
    0.000 999%   0.000 Lac                                                 
 1.46E-10 153%   0.000 NAAG                                                
 1.45E-10 215%   0.000 NAA                                                 
    0.000 999%   0.000 PCh                                                 
    0.000 999%   0.000 PCr                                                 
 1.55E-09  29%   0.000 PE                                                  
 2.33E-10  63%   0.000 Scyllo                                              
 1.19E-09  58%   0.000 Ser                                                 
    0.000 999%   0.000 Tau                                                 
    0.000 999%   0.000 GPC+PCh                                             
 2.91E-10  64%   0.000 NAA+NAAG                                            
 1.54E-09  25%   0.000 Ins+Glyc                                            
    0.000 999%   0.000 Cr+PCr                                              
 9.20E-10  44%   0.000 Glu+Gln                                             
   6 lines in following misc. output table
  FWHM = 0.123 ppm    S/N =   4                                            
  Data shift = 0.425 ppm                                                   
  Ph:   0 deg     -46.3 deg/ppm                                            
  alphaB,S = 4.5E-01,   1.4E+01                                            
   10 spline knots.   Ns = 5(1)                                            
  (12) 6 infls.   ( 9) 3 extrs.                                            
  363 points on ppm-axis = NY
      4.250000     4.238821     4.227641     4.216462     4.205282     4.194103     4.182923     4.171744     4.160564     4.149385
      4.138206     4.127026     4.115847     4.104667     4.093488     4.082308     4.071129     4.059949     4.048770     4.037591
      4.026411     4.015232     4.004052     3.992873     3.981693     3.970514     3.959334     3.948155     3.936975     3.925796
      3.914617     3.903437     3.892258     3.881078     3.869899     3.858719     3.847540     3.836360     3.825181     3.814002
      3.802822     3.791643     3.780463     3.769284     3.758104     3.746925     3.735745     3.724566     3.713387     3.702207
      3.691028     3.679848     3.668669     3.657489     3.646310     3.635130     3.623951     3.612772     3.601592     3.590413
      3.579233     3.568054     3.556874     3.545695     3.534515     3.523336     3.512156     3.500977     3.489798     3.478618
      3.467439     3.456259     3.445080     3.433900     3.422721     3.411541     3.400362     3.389183     3.378003     3.366824
      3.355644     3.344465     3.333285     3.322106     3.310926     3.299747     3.288568     3.277388     3.266209     3.255029
      3.243850     3.232670     3.221491     3.210311     3.199132     3.187953     3.176773     3.165594     3.154414     3.143235
      3.132055     3.120876     3.109696     3.098517     3.087337     3.076158     3.064979     3.053799     3.042620     3.031440
      3.020261     3.009081     2.997902     2.986722     2.975543     2.964364     2.953184     2.942005     2.930825     2.919646
      2.908466     2.897287     2.886107     2.874928     2.863749     2.852569     2.841390     2.830210     2.819031     2.807851
      2.796672     2.785492     2.774313     2.763134     2.751954     2.740775     2.729595     2.718416     2.707236     2.696057
      2.684877     2.673698     2.662519     2.651339     2.640160     2.628980     2.617801     2.606621     2.595442     2.584262
      2.573083     2.561903     2.550724     2.539545     2.528365     2.517186     2.506006     2.494827     2.483647     2.472468
      2.461288     2.450109     2.438930     2.427750     2.416571     2.405391     2.394212     2.383032     2.371853     2.360673
      2.349494     2.338315     2.327135     2.315956     2.304776     2.293597     2.282417     2.271238     2.260058     2.248879
      2.237700     2.226520     2.215341     2.204161     2.192982     2.181802     2.170623     2.159443     2.148264     2.137084
      2.125905     2.114726     2.103546     2.092367     2.081187     2.070008     2.058828     2.047649     2.036469     2.025290
      2.014111     2.002931     1.991752     1.980572     1.969393     1.958213     1.947034     1.935854     1.924675     1.913496
      1.902316     1.891137     1.879957     1.868778     1.857598     1.846419     1.835239     1.824060     1.812881     1.801701
      1.790522     1.779342     1.768163     1.756983     1.745804     1.734624     1.723445     1.712265     1.701086     1.689907
      1.678727     1.667548     1.656368     1.645189     1.634009     1.622830     1.611650     1.600471     1.589292     1.578112
      1.566933     1.555753     1.544574     1.533394     1.522215     1.511035     1.499856     1.488677     1.477497     1.466318
      1.455138     1.443959     1.432779     1.421600     1.410420     1.399241     1.388062     1.376882     1.365703     1.354523
      1.343344     1.332164     1.320985     1.309805     1.298626     1.287446     1.276267     1.265088     1.253908     1.242729
      1.231549     1.220370     1.209190     1.198011     1.186831     1.175652     1.164473     1.153293     1.142114     1.130934
      1.119755     1.108575     1.097396     1.086216     1.075037     1.063858     1.052678     1.041499     1.030319     1.019140
      1.007960     0.996781     0.985601     0.974422     0.963243     0.952063     0.940884     0.929704     0.918525     0.907345
      0.896166     0.884986     0.873807     0.862628     0.851448     0.840269     0.829089     0.817910     0.806730     0.795551
      0.784371     0.773192     0.762012     0.750833     0.739654     0.728474     0.717295     0.706115     0.694936     0.683756
      0.672577     0.661397     0.650218     0.639039     0.627859     0.616680     0.605500     0.594321     0.583141     0.571962
      0.560782     0.549603     0.538424     0.527244     0.516065     0.504885     0.493706     0.482526     0.471347     0.460167
      0.448988     0.437809     0.426629     0.415450     0.404270     0.393091     0.381911     0.370732     0.359552     0.348373
      0.337193     0.326014     0.314835     0.303655     0.292476     0.281296     0.270117     0.258937     0.247758     0.236578
      0.225399     0.214220     0.203040
 NY phased data points follow
   7.25444E-09  5.62630E-09  6.20116E-09  5.34050E-09  6.44738E-09  5.75532E-09  6.39094E-09  5.93371E-09  7.08105E-09  6.30695E-09
   7.54192E-09  6.57745E-09  7.30831E-09  6.63542E-09  7.37497E-09  5.89124E-09  7.04468E-09  5.65966E-09  6.88767E-09  6.54810E-09
   7.43241E-09  6.39540E-09  6.85481E-09  5.40503E-09  6.45955E-09  6.29233E-09  7.31235E-09  7.76376E-09  8.74430E-09  7.88490E-09
   8.49186E-09  7.08834E-09  7.53417E-09  6.53520E-09  7.13162E-09  6.47838E-09  7.15752E-09  6.20477E-09  7.27883E-09  6.29282E-09
   6.59055E-09  5.94854E-09  6.03984E-09  5.33458E-09  6.11978E-09  5.35152E-09  6.14466E-09  5.41784E-09  5.92156E-09  4.93604E-09
   4.77773E-09  4.10448E-09  4.62764E-09  4.10082E-09  4.29260E-09  3.84477E-09  4.63927E-09  5.26637E-09  7.15993E-09  7.14485E-09
   7.47628E-09  6.82145E-09  7.28331E-09  6.60889E-09  6.49459E-09  5.98802E-09  5.94476E-09  5.22093E-09  4.80700E-09  4.19695E-09
   3.85402E-09  2.67949E-09  2.74783E-09  4.22743E-09  6.71646E-09  7.96565E-09  8.53508E-09  8.28674E-09  8.41715E-09  8.24377E-09
   8.48113E-09  7.63281E-09  8.31003E-09  7.69992E-09  8.30564E-09  7.34659E-09  8.29647E-09  7.70816E-09  7.90021E-09  7.53119E-09
   7.74652E-09  7.10668E-09  7.34223E-09  6.33646E-09  6.47928E-09  6.16726E-09  6.62163E-09  6.16767E-09  6.26998E-09  6.04586E-09
   6.26033E-09  6.20496E-09  6.32439E-09  5.25366E-09  5.80025E-09  4.72027E-09  4.59434E-09  4.04189E-09  5.28717E-09  4.55431E-09
   4.99854E-09  4.66950E-09  5.48620E-09  4.61649E-09  5.25233E-09  5.14816E-09  5.27831E-09  4.68558E-09  5.18043E-09  4.50999E-09
   4.05031E-09  3.79237E-09  4.19756E-09  3.52653E-09  3.67479E-09  3.55904E-09  4.24923E-09  3.87325E-09  4.35794E-09  4.30703E-09
   4.05253E-09  4.13541E-09  3.76363E-09  3.53157E-09  4.50492E-09  4.77750E-09  5.08164E-09  5.05319E-09  5.21378E-09  5.60389E-09
   6.23600E-09  5.93447E-09  6.16241E-09  6.61377E-09  6.37079E-09  6.84109E-09  6.45114E-09  6.60234E-09  6.71682E-09  6.50404E-09
   6.44380E-09  6.54565E-09  7.16663E-09  6.98214E-09  6.82001E-09  6.62240E-09  6.92693E-09  6.94684E-09  7.19170E-09  6.76778E-09
   6.59632E-09  7.21595E-09  5.78664E-09  4.51657E-09  5.26745E-09  8.24560E-09  1.09468E-08  1.29477E-08  1.32383E-08  1.42339E-08
   1.46750E-08  1.45298E-08  1.44115E-08  1.45144E-08  1.43236E-08  1.45535E-08  1.35385E-08  1.38793E-08  1.28095E-08  1.24079E-08
   1.14448E-08  9.73104E-09  8.55238E-09  6.85186E-09  5.27169E-09  3.80863E-09  1.77740E-09  3.47079E-10 -1.52270E-09 -2.48697E-09
  -4.20089E-09 -4.68914E-09 -5.22275E-09 -5.62386E-09 -5.71739E-09 -4.89055E-09 -4.72430E-09 -4.15089E-09 -3.67993E-09 -2.76993E-09
  -2.51332E-09 -1.56388E-09 -1.29396E-09 -8.76408E-10 -8.38993E-10 -1.62175E-10 -1.23589E-09 -4.41978E-10 -1.34168E-09 -7.58782E-10
  -1.04253E-09 -1.19147E-09 -6.40915E-10 -6.45516E-10 -8.21574E-10 -3.57479E-10 -5.03070E-10 -4.30179E-11 -5.74312E-10 -1.19750E-10
  -7.94367E-10 -7.69174E-10 -4.71364E-10 -7.05985E-10 -8.32716E-10 -3.75774E-10 -1.43871E-10 -1.65788E-10 -3.09189E-10 -4.58368E-10
  -4.79594E-10 -2.80168E-10 -3.95679E-10 -6.01948E-10 -7.11708E-10 -1.18226E-09 -1.11480E-09 -9.92377E-10 -1.00804E-09 -8.69359E-10
  -6.94678E-10 -4.69237E-10 -6.34015E-10 -4.50348E-10 -8.50895E-10 -4.28217E-10 -7.54316E-10 -4.65027E-10 -8.75744E-10 -8.83159E-10
  -4.49211E-10 -8.30704E-10 -8.59223E-10 -1.05900E-09 -6.88063E-10 -1.27060E-09 -1.14604E-09 -1.80909E-09 -1.40046E-09 -1.22394E-09
  -2.03441E-09 -1.78451E-09 -1.65213E-09 -1.86140E-09 -1.82664E-09 -1.91307E-09 -1.92622E-09 -1.59254E-09 -1.33183E-09 -1.17241E-09
  -1.08878E-09 -6.84498E-10 -8.78827E-10 -7.34210E-10 -6.03361E-10 -1.00705E-09 -6.49931E-10 -6.69720E-10 -5.44212E-10 -4.74182E-10
  -5.26022E-10 -5.89808E-10 -5.69448E-10 -9.96347E-10 -9.14521E-10 -6.38391E-10 -6.83019E-10 -7.33290E-10 -1.09130E-09 -8.00620E-10
  -9.39348E-10 -6.04431E-10 -9.34034E-10 -1.01216E-09 -9.23813E-10 -1.57286E-09 -8.01604E-10 -9.74060E-10 -1.39312E-09 -1.12514E-09
  -1.36369E-09 -9.49442E-10 -1.54807E-09 -1.26340E-09 -1.59219E-09 -1.54945E-09 -1.56714E-09 -1.73456E-09 -1.84684E-09 -1.92874E-09
  -1.74895E-09 -1.55235E-09 -1.82846E-09 -2.06418E-09 -1.99828E-09 -1.48745E-09 -1.91829E-09 -2.24437E-09 -2.29296E-09 -2.07313E-09
  -2.02442E-09 -1.95369E-09 -2.29955E-09 -2.24567E-09 -2.20493E-09 -2.39023E-09 -2.20242E-09 -2.26811E-09 -2.48254E-09 -2.28376E-09
  -2.60385E-09 -2.46938E-09 -2.94880E-09 -2.76512E-09 -2.77503E-09 -2.67711E-09 -3.26582E-09 -2.68798E-09 -3.13248E-09 -2.78471E-09
  -2.99921E-09 -2.83266E-09 -3.37843E-09 -2.80119E-09 -2.85332E-09 -3.10123E-09 -3.40149E-09 -2.98298E-09 -3.17267E-09 -3.11825E-09
  -3.32014E-09 -3.12414E-09 -3.33911E-09 -3.01407E-09 -3.39341E-09 -3.18738E-09 -3.28634E-09 -3.35877E-09 -3.94591E-09 -3.15022E-09
  -3.70313E-09 -3.17066E-09 -3.88120E-09
 NY points of the fit to the data follow
   6.63489E-09  7.08204E-09  6.36961E-09  5.91853E-09  5.71697E-09  6.14887E-09  6.02128E-09  5.62912E-09  6.70608E-09  7.73798E-09
   6.99979E-09  6.77864E-09  6.47633E-09  6.42276E-09  6.69458E-09  6.76828E-09  6.10893E-09  6.42585E-09  8.01129E-09  7.58584E-09
   6.13634E-09  5.53382E-09  5.90845E-09  6.05620E-09  6.31005E-09  6.64052E-09  7.45562E-09  8.30644E-09  8.72682E-09  7.81829E-09
   7.64539E-09  7.78470E-09  7.79437E-09  7.20486E-09  7.40069E-09  7.06898E-09  6.99080E-09  6.62063E-09  6.39255E-09  6.22648E-09
   6.03749E-09  5.95926E-09  6.02609E-09  6.05436E-09  5.98904E-09  5.55712E-09  5.46414E-09  5.00164E-09  4.53229E-09  4.31336E-09
   4.31800E-09  4.46270E-09  4.52309E-09  4.71590E-09  5.12754E-09  5.38263E-09  5.40965E-09  5.85456E-09  6.34973E-09  6.51857E-09
   6.63007E-09  6.65210E-09  6.65035E-09  6.77424E-09  6.62985E-09  6.24979E-09  6.09740E-09  6.06913E-09  5.63342E-09  5.32399E-09
   5.43170E-09  5.52685E-09  5.68959E-09  5.81377E-09  6.14986E-09  6.59582E-09  7.03569E-09  7.71608E-09  8.21901E-09  8.58058E-09
   8.76231E-09  8.73479E-09  8.71781E-09  8.57498E-09  8.51699E-09  8.39868E-09  8.14360E-09  7.65093E-09  6.93912E-09  6.52594E-09
   6.27454E-09  6.07864E-09  6.00736E-09  5.93409E-09  5.76231E-09  5.70620E-09  5.67384E-09  5.55731E-09  5.49465E-09  5.44980E-09
   5.39243E-09  5.35343E-09  5.32425E-09  5.29873E-09  5.27960E-09  5.26575E-09  5.25584E-09  5.24923E-09  5.24501E-09  5.24284E-09
   5.24238E-09  5.24321E-09  5.24507E-09  5.24772E-09  5.25094E-09  5.25459E-09  5.25851E-09  5.26251E-09  5.26644E-09  5.27019E-09
   5.27362E-09  5.27664E-09  5.27914E-09  5.28102E-09  5.28218E-09  5.28254E-09  5.28201E-09  5.28051E-09  5.27796E-09  5.27429E-09
   5.26943E-09  5.26330E-09  5.25585E-09  5.24701E-09  5.23672E-09  5.22492E-09  5.21156E-09  5.19658E-09  5.17993E-09  5.16156E-09
   5.14144E-09  5.11952E-09  5.09578E-09  5.07017E-09  5.04267E-09  5.01327E-09  4.98196E-09  4.94874E-09  4.91364E-09  4.87669E-09
   4.83795E-09  4.79752E-09  4.75553E-09  4.71217E-09  4.66772E-09  4.62257E-09  4.57733E-09  4.53293E-09  4.49079E-09  4.45304E-09
   4.42306E-09  4.40662E-09  4.41438E-09  4.46851E-09  4.62341E-09  5.05129E-09  6.58073E-09  1.17791E-08  1.41200E-08  1.47034E-08
   1.49347E-08  1.49009E-08  1.46530E-08  1.44553E-08  1.44252E-08  1.48055E-08  1.52861E-08  1.37147E-08  6.75349E-09  4.16303E-09
   3.35250E-09  2.94909E-09  2.68776E-09  2.49055E-09  2.32721E-09  2.18385E-09  2.05324E-09  1.93129E-09  1.81564E-09  1.70473E-09
   1.59760E-09  1.49363E-09  1.39236E-09  1.29355E-09  1.19699E-09  1.10257E-09  1.01022E-09  9.19936E-10  8.31692E-10  7.45526E-10
   6.61467E-10  5.79559E-10  4.99863E-10  4.22434E-10  3.47347E-10  2.74668E-10  2.04493E-10  1.36865E-10  7.18655E-11  9.41835E-12
  -5.05307E-11 -1.08051E-10 -1.63203E-10 -2.16054E-10 -2.66658E-10 -3.15085E-10 -3.61387E-10 -4.05622E-10 -4.47859E-10 -4.88154E-10
  -5.26552E-10 -5.63125E-10 -5.97929E-10 -6.31015E-10 -6.62446E-10 -6.92276E-10 -7.20550E-10 -7.47348E-10 -7.72721E-10 -7.96703E-10
  -8.19363E-10 -8.40763E-10 -8.60945E-10 -8.79978E-10 -8.97904E-10 -9.14791E-10 -9.30686E-10 -9.45636E-10 -9.59703E-10 -9.72938E-10
  -9.85394E-10 -9.97121E-10 -1.00818E-09 -1.01861E-09 -1.02848E-09 -1.03782E-09 -1.04671E-09 -1.05519E-09 -1.06329E-09 -1.07107E-09
  -1.07860E-09 -1.08591E-09 -1.09306E-09 -1.10008E-09 -1.10706E-09 -1.11399E-09 -1.12097E-09 -1.12801E-09 -1.13518E-09 -1.14253E-09
  -1.15006E-09 -1.15781E-09 -1.16576E-09 -1.17394E-09 -1.18235E-09 -1.19099E-09 -1.19987E-09 -1.20901E-09 -1.21840E-09 -1.22806E-09
  -1.23798E-09 -1.24818E-09 -1.25867E-09 -1.26944E-09 -1.28050E-09 -1.29187E-09 -1.30354E-09 -1.31553E-09 -1.32783E-09 -1.34045E-09
  -1.35339E-09 -1.36667E-09 -1.38029E-09 -1.39424E-09 -1.40854E-09 -1.42319E-09 -1.43818E-09 -1.45354E-09 -1.46926E-09 -1.48533E-09
  -1.50178E-09 -1.51859E-09 -1.53578E-09 -1.55334E-09 -1.57128E-09 -1.58960E-09 -1.60829E-09 -1.62738E-09 -1.64684E-09 -1.66670E-09
  -1.68694E-09 -1.70757E-09 -1.72859E-09 -1.75000E-09 -1.77181E-09 -1.79400E-09 -1.81659E-09 -1.83956E-09 -1.86294E-09 -1.88669E-09
  -1.91084E-09 -1.93539E-09 -1.96029E-09 -1.98555E-09 -2.01112E-09 -2.03699E-09 -2.06314E-09 -2.08952E-09 -2.11613E-09 -2.14294E-09
  -2.16992E-09 -2.19706E-09 -2.22431E-09 -2.25168E-09 -2.27912E-09 -2.30662E-09 -2.33415E-09 -2.36170E-09 -2.38923E-09 -2.41674E-09
  -2.44419E-09 -2.47156E-09 -2.49883E-09 -2.52600E-09 -2.55302E-09 -2.57987E-09 -2.60656E-09 -2.63304E-09 -2.65930E-09 -2.68532E-09
  -2.71109E-09 -2.73657E-09 -2.76177E-09 -2.78664E-09 -2.81119E-09 -2.83538E-09 -2.85921E-09 -2.88265E-09 -2.90569E-09 -2.92831E-09
  -2.95049E-09 -2.97223E-09 -2.99349E-09 -3.01428E-09 -3.03457E-09 -3.05434E-09 -3.07360E-09 -3.09230E-09 -3.11046E-09 -3.12805E-09
  -3.14506E-09 -3.16147E-09 -3.17728E-09
 NY background values follow
    -1.089E-09   -1.055E-09   -1.022E-09   -9.874E-10   -9.528E-10   -9.178E-10   -8.824E-10   -8.465E-10   -8.103E-10   -7.736E-10
    -7.366E-10   -6.991E-10   -6.613E-10   -6.231E-10   -5.845E-10   -5.455E-10   -5.061E-10   -4.664E-10   -4.263E-10   -3.858E-10
    -3.450E-10   -3.039E-10   -2.624E-10   -2.205E-10   -1.783E-10   -1.358E-10   -9.293E-11   -4.975E-11   -6.259E-12    3.755E-11
     8.168E-11    1.261E-10    1.708E-10    2.158E-10    2.611E-10    3.067E-10    3.526E-10    3.987E-10    4.452E-10    4.918E-10
     5.388E-10    5.860E-10    6.334E-10    6.811E-10    7.290E-10    7.771E-10    8.255E-10    8.741E-10    9.229E-10    9.720E-10
     1.021E-09    1.071E-09    1.120E-09    1.170E-09    1.220E-09    1.270E-09    1.321E-09    1.371E-09    1.422E-09    1.472E-09
     1.523E-09    1.574E-09    1.625E-09    1.676E-09    1.727E-09    1.778E-09    1.829E-09    1.880E-09    1.931E-09    1.982E-09
     2.033E-09    2.084E-09    2.135E-09    2.186E-09    2.237E-09    2.287E-09    2.338E-09    2.388E-09    2.439E-09    2.489E-09
     2.539E-09    2.588E-09    2.638E-09    2.687E-09    2.736E-09    2.785E-09    2.834E-09    2.882E-09    2.930E-09    2.978E-09
     3.025E-09    3.072E-09    3.119E-09    3.165E-09    3.211E-09    3.257E-09    3.302E-09    3.346E-09    3.391E-09    3.435E-09
     3.478E-09    3.521E-09    3.563E-09    3.605E-09    3.646E-09    3.687E-09    3.727E-09    3.767E-09    3.806E-09    3.844E-09
     3.881E-09    3.918E-09    3.953E-09    3.988E-09    4.021E-09    4.054E-09    4.086E-09    4.116E-09    4.145E-09    4.173E-09
     4.200E-09    4.226E-09    4.250E-09    4.272E-09    4.294E-09    4.313E-09    4.332E-09    4.348E-09    4.363E-09    4.376E-09
     4.388E-09    4.398E-09    4.406E-09    4.412E-09    4.416E-09    4.418E-09    4.418E-09    4.416E-09    4.412E-09    4.405E-09
     4.397E-09    4.386E-09    4.373E-09    4.357E-09    4.340E-09    4.319E-09    4.296E-09    4.271E-09    4.243E-09    4.213E-09
     4.180E-09    4.144E-09    4.105E-09    4.063E-09    4.019E-09    3.972E-09    3.922E-09    3.869E-09    3.813E-09    3.755E-09
     3.694E-09    3.631E-09    3.565E-09    3.497E-09    3.427E-09    3.355E-09    3.281E-09    3.205E-09    3.128E-09    3.049E-09
     2.968E-09    2.886E-09    2.803E-09    2.718E-09    2.633E-09    2.546E-09    2.459E-09    2.371E-09    2.282E-09    2.192E-09
     2.103E-09    2.013E-09    1.922E-09    1.832E-09    1.741E-09    1.651E-09    1.561E-09    1.471E-09    1.382E-09    1.293E-09
     1.205E-09    1.117E-09    1.031E-09    9.451E-10    8.605E-10    7.771E-10    6.949E-10    6.141E-10    5.347E-10    4.569E-10
     3.808E-10    3.065E-10    2.341E-10    1.636E-10    9.524E-11    2.903E-11   -3.488E-11   -9.643E-11   -1.555E-10   -2.122E-10
    -2.666E-10   -3.187E-10   -3.685E-10   -4.161E-10   -4.616E-10   -5.050E-10   -5.464E-10   -5.858E-10   -6.233E-10   -6.590E-10
    -6.928E-10   -7.249E-10   -7.553E-10   -7.840E-10   -8.111E-10   -8.367E-10   -8.608E-10   -8.835E-10   -9.048E-10   -9.248E-10
    -9.435E-10   -9.610E-10   -9.773E-10   -9.925E-10   -1.007E-09   -1.020E-09   -1.032E-09   -1.043E-09   -1.054E-09   -1.064E-09
    -1.072E-09   -1.081E-09   -1.088E-09   -1.095E-09   -1.102E-09   -1.108E-09   -1.113E-09   -1.119E-09   -1.124E-09   -1.128E-09
    -1.132E-09   -1.137E-09   -1.141E-09   -1.145E-09   -1.149E-09   -1.152E-09   -1.156E-09   -1.160E-09   -1.165E-09   -1.169E-09
    -1.174E-09   -1.179E-09   -1.184E-09   -1.189E-09   -1.195E-09   -1.201E-09   -1.207E-09   -1.213E-09   -1.220E-09   -1.227E-09
    -1.234E-09   -1.242E-09   -1.250E-09   -1.258E-09   -1.266E-09   -1.275E-09   -1.284E-09   -1.294E-09   -1.303E-09   -1.314E-09
    -1.324E-09   -1.335E-09   -1.346E-09   -1.358E-09   -1.370E-09   -1.382E-09   -1.395E-09   -1.408E-09   -1.421E-09   -1.435E-09
    -1.449E-09   -1.464E-09   -1.479E-09   -1.494E-09   -1.510E-09   -1.526E-09   -1.542E-09   -1.559E-09   -1.577E-09   -1.594E-09
    -1.612E-09   -1.631E-09   -1.650E-09   -1.669E-09   -1.689E-09   -1.709E-09   -1.730E-09   -1.751E-09   -1.772E-09   -1.794E-09
    -1.816E-09   -1.839E-09   -1.862E-09   -1.885E-09   -1.909E-09   -1.933E-09   -1.957E-09   -1.981E-09   -2.006E-09   -2.031E-09
    -2.056E-09   -2.081E-09   -2.107E-09   -2.132E-09   -2.158E-09   -2.184E-09   -2.210E-09   -2.235E-09   -2.261E-09   -2.287E-09
    -2.313E-09   -2.338E-09   -2.364E-09   -2.389E-09   -2.415E-09   -2.440E-09   -2.465E-09   -2.490E-09   -2.514E-09   -2.539E-09
    -2.563E-09   -2.587E-09   -2.610E-09   -2.634E-09   -2.657E-09   -2.679E-09   -2.702E-09   -2.724E-09   -2.745E-09   -2.766E-09
    -2.787E-09   -2.807E-09   -2.827E-09   -2.846E-09   -2.865E-09   -2.883E-09   -2.901E-09   -2.918E-09   -2.935E-09   -2.951E-09
    -2.967E-09   -2.982E-09   -2.996E-09
 Asp      Conc. = 3.37E-10
  -7.92144E-10 -7.61419E-10 -7.44832E-10 -7.36914E-10 -7.00244E-10 -6.98974E-10 -6.74780E-10 -6.95440E-10 -6.95364E-10 -6.83564E-10
  -6.65064E-10 -6.42358E-10 -6.16758E-10 -5.88330E-10 -5.57805E-10 -5.26055E-10 -4.93221E-10 -4.59427E-10 -4.24808E-10 -3.89448E-10
  -3.53438E-10 -3.16843E-10 -2.79713E-10 -2.42104E-10 -2.04064E-10 -1.65621E-10 -1.26815E-10 -8.76662E-11 -4.82020E-11 -8.42329E-12
   3.16854E-11  7.21506E-11  1.13128E-10  1.54941E-10  1.98518E-10  2.47073E-10  3.14913E-10  3.75298E-10  4.51233E-10  5.03189E-10
   5.41622E-10  5.77517E-10  6.28089E-10  7.29659E-10  8.39110E-10  1.02973E-09  1.13463E-09  1.16808E-09  1.26696E-09  1.33686E-09
   1.41591E-09  1.52527E-09  1.64669E-09  1.73227E-09  1.74598E-09  1.77466E-09  1.68770E-09  1.72743E-09  1.81180E-09  1.80695E-09
   1.80969E-09  1.84145E-09  1.85476E-09  1.87483E-09  1.92947E-09  1.99803E-09  2.01907E-09  2.04733E-09  2.08158E-09  2.11946E-09
   2.15972E-09  2.20167E-09  2.24485E-09  2.28895E-09  2.33377E-09  2.37913E-09  2.42492E-09  2.47103E-09  2.51739E-09  2.56392E-09
   2.61056E-09  2.65727E-09  2.70400E-09  2.75071E-09  2.79736E-09  2.84392E-09  2.89036E-09  2.93666E-09  2.98278E-09  3.02871E-09
   3.07441E-09  3.11986E-09  3.16505E-09  3.20994E-09  3.25453E-09  3.29879E-09  3.34270E-09  3.38624E-09  3.42940E-09  3.47215E-09
   3.51447E-09  3.55636E-09  3.59780E-09  3.63875E-09  3.67922E-09  3.71916E-09  3.75852E-09  3.79727E-09  3.83534E-09  3.87269E-09
   3.90928E-09  3.94506E-09  3.97997E-09  4.01397E-09  4.04701E-09  4.07904E-09  4.11002E-09  4.13989E-09  4.16861E-09  4.19613E-09
   4.22240E-09  4.24737E-09  4.27100E-09  4.29323E-09  4.31402E-09  4.33331E-09  4.35107E-09  4.36724E-09  4.38178E-09  4.39463E-09
   4.40575E-09  4.41509E-09  4.42261E-09  4.42825E-09  4.43197E-09  4.43371E-09  4.43345E-09  4.43112E-09  4.42668E-09  4.42008E-09
   4.41129E-09  4.40024E-09  4.38690E-09  4.37123E-09  4.35317E-09  4.33268E-09  4.30972E-09  4.28424E-09  4.25621E-09  4.22559E-09
   4.19232E-09  4.15638E-09  4.11774E-09  4.07634E-09  4.03217E-09  3.98520E-09  3.93544E-09  3.88299E-09  3.82800E-09  3.77069E-09
   3.71130E-09  3.65020E-09  3.58803E-09  3.52601E-09  3.46708E-09  3.42093E-09  3.43755E-09  3.61989E-09  3.63038E-09  3.57492E-09
   3.50780E-09  3.42670E-09  3.33554E-09  3.24727E-09  3.16699E-09  3.10603E-09  3.04264E-09  2.85881E-09  2.43624E-09  2.26468E-09
   2.14791E-09  2.04517E-09  1.94768E-09  1.85269E-09  1.75909E-09  1.66647E-09  1.57460E-09  1.48341E-09  1.39291E-09  1.30314E-09
   1.21414E-09  1.12600E-09  1.03877E-09  9.52592E-10  8.67507E-10  7.83631E-10  7.01053E-10  6.19887E-10  5.40205E-10  4.62127E-10
   3.85747E-10  3.11160E-10  2.38471E-10  1.67771E-10  9.91647E-11  3.27448E-11 -3.13704E-11 -9.31212E-11 -1.52410E-10 -2.09297E-10
  -2.63826E-10 -3.16056E-10 -3.66037E-10 -4.13829E-10 -4.59479E-10 -5.03050E-10 -5.44587E-10 -5.84146E-10 -6.21788E-10 -6.57567E-10
  -6.91524E-10 -7.23727E-10 -7.54227E-10 -7.83075E-10 -8.10330E-10 -8.36044E-10 -8.60258E-10 -8.83052E-10 -9.04474E-10 -9.24557E-10
  -9.43368E-10 -9.60967E-10 -9.77395E-10 -9.92718E-10 -1.00698E-09 -1.02024E-09 -1.03256E-09 -1.04397E-09 -1.05453E-09 -1.06431E-09
  -1.07334E-09 -1.08168E-09 -1.08938E-09 -1.09650E-09 -1.10308E-09 -1.10917E-09 -1.11484E-09 -1.12014E-09 -1.12508E-09 -1.12974E-09
  -1.13417E-09 -1.13843E-09 -1.14254E-09 -1.14656E-09 -1.15055E-09 -1.15454E-09 -1.15859E-09 -1.16274E-09 -1.16704E-09 -1.17154E-09
  -1.17626E-09 -1.18120E-09 -1.18639E-09 -1.19182E-09 -1.19750E-09 -1.20344E-09 -1.20965E-09 -1.21613E-09 -1.22289E-09 -1.22993E-09
  -1.23727E-09 -1.24490E-09 -1.25284E-09 -1.26109E-09 -1.26965E-09 -1.27853E-09 -1.28774E-09 -1.29727E-09 -1.30715E-09 -1.31736E-09
  -1.32792E-09 -1.33883E-09 -1.35009E-09 -1.36171E-09 -1.37369E-09 -1.38604E-09 -1.39876E-09 -1.41185E-09 -1.42532E-09 -1.43916E-09
  -1.45340E-09 -1.46801E-09 -1.48301E-09 -1.49841E-09 -1.51420E-09 -1.53038E-09 -1.54696E-09 -1.56394E-09 -1.58132E-09 -1.59910E-09
  -1.61728E-09 -1.63587E-09 -1.65486E-09 -1.67426E-09 -1.69406E-09 -1.71427E-09 -1.73488E-09 -1.75590E-09 -1.77732E-09 -1.79915E-09
  -1.82138E-09 -1.84401E-09 -1.86703E-09 -1.89040E-09 -1.91411E-09 -1.93812E-09 -1.96242E-09 -1.98698E-09 -2.01177E-09 -2.03677E-09
  -2.06196E-09 -2.08731E-09 -2.11280E-09 -2.13840E-09 -2.16409E-09 -2.18986E-09 -2.21567E-09 -2.24150E-09 -2.26733E-09 -2.29314E-09
  -2.31891E-09 -2.34462E-09 -2.37023E-09 -2.39575E-09 -2.42113E-09 -2.44636E-09 -2.47143E-09 -2.49630E-09 -2.52097E-09 -2.54540E-09
  -2.56959E-09 -2.59351E-09 -2.61715E-09 -2.64048E-09 -2.66349E-09 -2.68615E-09 -2.70846E-09 -2.73040E-09 -2.75194E-09 -2.77307E-09
  -2.79377E-09 -2.81404E-09 -2.83384E-09 -2.85318E-09 -2.87202E-09 -2.89036E-09 -2.90819E-09 -2.92548E-09 -2.94223E-09 -2.95842E-09
  -2.97404E-09 -2.98907E-09 -3.00351E-09
 GABA     Conc. = 2.78E-10
  -1.17367E-09 -1.14170E-09 -1.10936E-09 -1.07666E-09 -1.04361E-09 -1.01022E-09 -9.76499E-10 -9.42461E-10 -9.08118E-10 -8.73472E-10
  -8.38556E-10 -8.03382E-10 -7.67930E-10 -7.32280E-10 -6.96392E-10 -6.60301E-10 -6.24114E-10 -5.87767E-10 -5.51294E-10 -5.14802E-10
  -4.78282E-10 -4.41748E-10 -4.05248E-10 -3.68799E-10 -3.32301E-10 -2.95652E-10 -2.58183E-10 -2.17712E-10 -1.65820E-10 -5.73801E-11
   2.23655E-11  6.13187E-11  2.25220E-10  3.83849E-10  4.56722E-10  5.77685E-10  7.09787E-10  8.20583E-10  9.23388E-10  9.99903E-10
   9.94449E-10  1.05901E-09  1.16721E-09  1.08321E-09  1.03600E-09  1.09826E-09  1.07963E-09  1.05705E-09  1.06102E-09  1.07853E-09
   1.10406E-09  1.13461E-09  1.16852E-09  1.20506E-09  1.24366E-09  1.28386E-09  1.32558E-09  1.36892E-09  1.41435E-09  1.46372E-09
   1.52246E-09  1.61302E-09  1.75332E-09  1.81623E-09  1.91140E-09  2.10900E-09  2.20832E-09  2.27488E-09  2.38465E-09  2.47899E-09
   2.56212E-09  2.63388E-09  2.65037E-09  2.61276E-09  2.69916E-09  2.70880E-09  2.58531E-09  2.61003E-09  2.64699E-09  2.64525E-09
   2.69591E-09  2.71293E-09  2.74815E-09  2.87269E-09  2.93880E-09  2.98529E-09  3.10153E-09  3.19000E-09  3.26000E-09  3.35919E-09
   3.42208E-09  3.44837E-09  3.55000E-09  3.61536E-09  3.56605E-09  3.61974E-09  3.68254E-09  3.64779E-09  3.65745E-09  3.68799E-09
   3.69788E-09  3.71436E-09  3.73672E-09  3.76280E-09  3.79131E-09  3.82131E-09  3.85227E-09  3.88380E-09  3.91562E-09  3.94752E-09
   3.97936E-09  4.01087E-09  4.04194E-09  4.07246E-09  4.10232E-09  4.13147E-09  4.15984E-09  4.18732E-09  4.21383E-09  4.23930E-09
   4.26366E-09  4.28687E-09  4.30884E-09  4.32954E-09  4.34888E-09  4.36683E-09  4.38332E-09  4.39829E-09  4.41169E-09  4.42348E-09
   4.43358E-09  4.44196E-09  4.44857E-09  4.45334E-09  4.45624E-09  4.45720E-09  4.45619E-09  4.45314E-09  4.44802E-09  4.44077E-09
   4.43134E-09  4.41969E-09  4.40578E-09  4.38955E-09  4.37096E-09  4.34995E-09  4.32650E-09  4.30054E-09  4.27204E-09  4.24096E-09
   4.20725E-09  4.17088E-09  4.13181E-09  4.08999E-09  4.04540E-09  3.99802E-09  3.94783E-09  3.89493E-09  3.83948E-09  3.78165E-09
   3.72168E-09  3.65987E-09  3.59677E-09  3.53336E-09  3.47202E-09  3.42034E-09  3.41671E-09  3.55608E-09  3.55341E-09  3.49392E-09
   3.42429E-09  3.34289E-09  3.25268E-09  3.16456E-09  3.08258E-09  3.01651E-09  2.95019E-09  2.78933E-09  2.42043E-09  2.26015E-09
   2.14745E-09  2.04666E-09  1.95024E-09  1.85589E-09  1.76270E-09  1.67034E-09  1.57863E-09  1.48754E-09  1.39709E-09  1.30734E-09
   1.21833E-09  1.13017E-09  1.04291E-09  9.56686E-10  8.71546E-10  7.87610E-10  7.04967E-10  6.23732E-10  5.43978E-10  4.65826E-10
   3.89370E-10  3.14707E-10  2.41941E-10  1.71163E-10  1.02479E-10  3.59808E-11 -2.82123E-11 -9.00409E-11 -1.49407E-10 -2.06370E-10
  -2.60976E-10 -3.13282E-10 -3.63337E-10 -4.11203E-10 -4.56926E-10 -5.00570E-10 -5.42179E-10 -5.81808E-10 -6.19521E-10 -6.55369E-10
  -6.89394E-10 -7.21664E-10 -7.52231E-10 -7.81145E-10 -8.08465E-10 -8.34242E-10 -8.58520E-10 -8.81377E-10 -9.02860E-10 -9.23004E-10
