 LCModel (Version 6.3-1R) Copyright: S.W. Provencher.          Ref.: Magn. Reson. Med. 30:672-679 (1993).                
 onepulse 12x25_ftSpec_smooth_lcm
 26 lines in following concentration table = NCONC+1
    Conc.  %SD   /Cr    Metabolite                                         
    0.000 999%   0.000 Ala                                                 
    0.000 999%   0.000 Asp                                                 
    0.000 999%   0.000 Cr                                                  
    0.000 999%   0.000 GABA                                                
    0.000 999%   0.000 Glc                                                 
    0.000 999%   0.000 Gln                                                 
    0.000 999%   0.000 Glu                                                 
    0.000 999%   0.000 Glyc                                                
    0.000 999%   0.000 GPC                                                 
    0.000 999%   0.000 GSH                                                 
    0.000 999%   0.000 Ins                                                 
    0.000 999%   0.000 Lac                                                 
    0.000 999%   0.000 NAAG                                                
    0.000 999%   0.000 NAA                                                 
    0.000 999%   0.000 PCh                                                 
    0.000 999%   0.000 PCr                                                 
    0.000 999%   0.000 PE                                                  
    0.000 999%   0.000 Scyllo                                              
    0.000 999%   0.000 Ser                                                 
    0.000 999%   0.000 Tau                                                 
    0.000 999%   0.000 GPC+PCh                                             
    0.000 999%   0.000 NAA+NAAG                                            
    0.000 999%   0.000 Ins+Glyc                                            
    0.000 999%   0.000 Cr+PCr                                              
    0.000 999%   0.000 Glu+Gln                                             
   6 lines in following misc. output table
  FWHM = 0.078 ppm    S/N =   0                                            
  Data shift = 0.224 ppm                                                   
  Ph: -94 deg      29.4 deg/ppm                                            
  alphaB,S = 1.0E+00,   4.0E-01                                            
    8 spline knots.   Ns = 5(1)                                            
   2 inflections.     1 extrema                                            
  363 points on ppm-axis = NY
      4.250000     4.238821     4.227641     4.216462     4.205282     4.194103     4.182923     4.171744     4.160564     4.149385
      4.138206     4.127026     4.115847     4.104667     4.093488     4.082308     4.071129     4.059949     4.048770     4.037591
      4.026411     4.015232     4.004052     3.992873     3.981693     3.970514     3.959334     3.948155     3.936975     3.925796
      3.914617     3.903437     3.892258     3.881078     3.869899     3.858719     3.847540     3.836360     3.825181     3.814002
      3.802822     3.791643     3.780463     3.769284     3.758104     3.746925     3.735745     3.724566     3.713387     3.702207
      3.691028     3.679848     3.668669     3.657489     3.646310     3.635130     3.623951     3.612772     3.601592     3.590413
      3.579233     3.568054     3.556874     3.545695     3.534515     3.523336     3.512156     3.500977     3.489798     3.478618
      3.467439     3.456259     3.445080     3.433900     3.422721     3.411541     3.400362     3.389183     3.378003     3.366824
      3.355644     3.344465     3.333285     3.322106     3.310926     3.299747     3.288568     3.277388     3.266209     3.255029
      3.243850     3.232670     3.221491     3.210311     3.199132     3.187953     3.176773     3.165594     3.154414     3.143235
      3.132055     3.120876     3.109696     3.098517     3.087337     3.076158     3.064979     3.053799     3.042620     3.031440
      3.020261     3.009081     2.997902     2.986722     2.975543     2.964364     2.953184     2.942005     2.930825     2.919646
      2.908466     2.897287     2.886107     2.874928     2.863749     2.852569     2.841390     2.830210     2.819031     2.807851
      2.796672     2.785492     2.774313     2.763134     2.751954     2.740775     2.729595     2.718416     2.707236     2.696057
      2.684877     2.673698     2.662519     2.651339     2.640160     2.628980     2.617801     2.606621     2.595442     2.584262
      2.573083     2.561903     2.550724     2.539545     2.528365     2.517186     2.506006     2.494827     2.483647     2.472468
      2.461288     2.450109     2.438930     2.427750     2.416571     2.405391     2.394212     2.383032     2.371853     2.360673
      2.349494     2.338315     2.327135     2.315956     2.304776     2.293597     2.282417     2.271238     2.260058     2.248879
      2.237700     2.226520     2.215341     2.204161     2.192982     2.181802     2.170623     2.159443     2.148264     2.137084
      2.125905     2.114726     2.103546     2.092367     2.081187     2.070008     2.058828     2.047649     2.036469     2.025290
      2.014111     2.002931     1.991752     1.980572     1.969393     1.958213     1.947034     1.935854     1.924675     1.913496
      1.902316     1.891137     1.879957     1.868778     1.857598     1.846419     1.835239     1.824060     1.812881     1.801701
      1.790522     1.779342     1.768163     1.756983     1.745804     1.734624     1.723445     1.712265     1.701086     1.689907
      1.678727     1.667548     1.656368     1.645189     1.634009     1.622830     1.611650     1.600471     1.589292     1.578112
      1.566933     1.555753     1.544574     1.533394     1.522215     1.511035     1.499856     1.488677     1.477497     1.466318
      1.455138     1.443959     1.432779     1.421600     1.410420     1.399241     1.388062     1.376882     1.365703     1.354523
      1.343344     1.332164     1.320985     1.309805     1.298626     1.287446     1.276267     1.265088     1.253908     1.242729
      1.231549     1.220370     1.209190     1.198011     1.186831     1.175652     1.164473     1.153293     1.142114     1.130934
      1.119755     1.108575     1.097396     1.086216     1.075037     1.063858     1.052678     1.041499     1.030319     1.019140
      1.007960     0.996781     0.985601     0.974422     0.963243     0.952063     0.940884     0.929704     0.918525     0.907345
      0.896166     0.884986     0.873807     0.862628     0.851448     0.840269     0.829089     0.817910     0.806730     0.795551
      0.784371     0.773192     0.762012     0.750833     0.739654     0.728474     0.717295     0.706115     0.694936     0.683756
      0.672577     0.661397     0.650218     0.639039     0.627859     0.616680     0.605500     0.594321     0.583141     0.571962
      0.560782     0.549603     0.538424     0.527244     0.516065     0.504885     0.493706     0.482526     0.471347     0.460167
      0.448988     0.437809     0.426629     0.415450     0.404270     0.393091     0.381911     0.370732     0.359552     0.348373
      0.337193     0.326014     0.314835     0.303655     0.292476     0.281296     0.270117     0.258937     0.247758     0.236578
      0.225399     0.214220     0.203040
 NY phased data points follow
  -7.09060E-09 -6.78809E-09 -6.31723E-09 -6.74725E-09 -6.44815E-09 -6.01694E-09 -5.04577E-09 -5.07927E-09 -4.76317E-09 -4.89491E-09
  -4.99075E-09 -7.15525E-09 -8.68402E-09 -1.00276E-08 -1.00160E-08 -1.10819E-08 -1.05345E-08 -1.04230E-08 -9.60351E-09 -9.77368E-09
  -9.21411E-09 -9.93578E-09 -9.13809E-09 -9.55857E-09 -9.32226E-09 -9.96358E-09 -9.59247E-09 -1.08475E-08 -1.05036E-08 -1.08639E-08
  -1.02468E-08 -1.07159E-08 -1.04009E-08 -1.10249E-08 -9.72555E-09 -1.05705E-08 -1.00384E-08 -1.08489E-08 -1.06551E-08 -1.09220E-08
  -1.00921E-08 -9.77260E-09 -9.93905E-09 -1.05357E-08 -1.11735E-08 -1.19486E-08 -1.27350E-08 -1.24968E-08 -1.16253E-08 -1.18442E-08
  -1.10913E-08 -1.15593E-08 -1.06024E-08 -1.11090E-08 -1.05385E-08 -1.00882E-08 -1.02018E-08 -1.02834E-08 -9.47414E-09 -9.71606E-09
  -8.96921E-09 -8.71896E-09 -8.72005E-09 -9.10124E-09 -8.93257E-09 -8.76913E-09 -8.00266E-09 -8.05508E-09 -7.99723E-09 -8.00668E-09
  -7.43289E-09 -8.20594E-09 -7.73785E-09 -7.84446E-09 -8.44898E-09 -9.32557E-09 -9.82769E-09 -1.09327E-08 -1.07431E-08 -1.07107E-08
  -9.57183E-09 -9.71783E-09 -8.59486E-09 -8.79072E-09 -7.69612E-09 -7.99474E-09 -6.58443E-09 -6.65394E-09 -6.06046E-09 -6.83671E-09
  -7.73523E-09 -9.40338E-09 -1.17149E-08 -1.30350E-08 -1.28784E-08 -1.33168E-08 -1.30901E-08 -1.25808E-08 -1.22012E-08 -1.19921E-08
  -1.13174E-08 -1.20156E-08 -1.17035E-08 -1.12666E-08 -1.08245E-08 -1.01394E-08 -1.02597E-08 -1.01760E-08 -9.66440E-09 -9.88267E-09
  -9.21833E-09 -8.88868E-09 -8.55930E-09 -8.72461E-09 -8.02122E-09 -8.68946E-09 -7.98801E-09 -8.34470E-09 -7.65767E-09 -7.28141E-09
  -6.83058E-09 -6.44369E-09 -5.67408E-09 -5.54191E-09 -4.96459E-09 -5.11581E-09 -5.03299E-09 -4.87499E-09 -4.53683E-09 -5.08869E-09
  -4.46169E-09 -4.72577E-09 -4.47511E-09 -4.89253E-09 -4.45990E-09 -4.45871E-09 -3.16878E-09 -3.42463E-09 -3.19945E-09 -3.27597E-09
  -3.87739E-09 -3.60183E-09 -3.61463E-09 -3.76989E-09 -3.89964E-09 -3.99810E-09 -4.14496E-09 -4.23032E-09 -4.17329E-09 -4.39092E-09
  -4.72545E-09 -5.17041E-09 -6.25996E-09 -6.60196E-09 -6.96463E-09 -7.48807E-09 -7.56150E-09 -8.20252E-09 -8.66663E-09 -8.55452E-09
  -8.74208E-09 -9.39461E-09 -9.21114E-09 -8.58284E-09 -9.18694E-09 -9.12422E-09 -8.86691E-09 -8.87861E-09 -9.33832E-09 -9.26351E-09
  -9.27858E-09 -9.47747E-09 -9.43952E-09 -9.76339E-09 -8.97916E-09 -9.60645E-09 -9.84718E-09 -9.96134E-09 -1.04198E-08 -1.09714E-08
  -1.17335E-08 -1.28770E-08 -1.49244E-08 -1.67524E-08 -1.68836E-08 -1.56691E-08 -1.42981E-08 -1.33940E-08 -1.19350E-08 -1.07543E-08
  -1.03921E-08 -9.12510E-09 -8.11363E-09 -7.55517E-09 -5.98814E-09 -5.20431E-09 -4.07579E-09 -2.48637E-09 -7.31686E-10  6.21362E-10
   2.15181E-09  3.80095E-09  6.14874E-09  8.93060E-09  1.09219E-08  1.41541E-08  1.64351E-08  1.91520E-08  2.14273E-08  2.43159E-08
   2.62880E-08  2.75419E-08  2.87391E-08  2.90295E-08  2.82819E-08  2.79063E-08  2.52941E-08  2.29862E-08  1.98379E-08  1.62280E-08
   1.25154E-08  9.57732E-09  6.41357E-09  4.38286E-09  2.17307E-09  1.26694E-09  8.24846E-10  2.83027E-10  7.86422E-10  3.93108E-10
   1.35299E-09  1.70136E-09  1.72120E-09  1.60106E-09  1.76910E-09  1.94124E-09  1.76384E-09  1.59179E-09  1.75616E-09  1.02128E-09
   1.66688E-09  9.80025E-10  1.80979E-09  2.11287E-09  2.00922E-09  1.94680E-09  1.65722E-09  1.48124E-09  1.34752E-09  1.04342E-09
   9.03201E-10  8.01794E-10  8.96205E-10  1.55509E-09  1.00754E-09  1.45280E-09  1.79842E-09  1.64734E-09  1.46406E-09  6.70840E-10
   6.25552E-10 -1.03110E-11 -7.48763E-11 -1.84510E-10  2.51427E-10  4.99768E-10  6.11546E-10  5.76444E-10  6.00874E-10  4.27941E-10
   8.87253E-10  1.08452E-09  4.33759E-10  1.42369E-09  1.18794E-09  1.14360E-09  7.02562E-10  2.90490E-10  1.34672E-10 -3.49959E-10
  -2.95882E-10 -5.62036E-10 -5.83711E-10 -1.02358E-09 -7.84281E-10 -1.19708E-09 -6.19216E-10 -1.31619E-09 -5.18687E-10 -2.67449E-10
  -5.91654E-11 -2.34118E-10 -3.28288E-10 -5.68323E-11  1.07523E-10  3.58701E-10  4.29754E-10 -3.54241E-10  6.58480E-10  3.06440E-10
   8.19377E-10  8.52358E-10  2.39425E-10 -5.92193E-13  4.73249E-10  1.17983E-10  5.65140E-11  1.96848E-10  3.18217E-10  4.72872E-10
  -5.11386E-11 -3.03822E-11 -1.26822E-10 -4.72034E-10 -1.53129E-10 -4.92196E-10 -5.88253E-11 -5.04046E-10 -9.96751E-11 -1.42069E-09
  -8.19959E-10 -1.08534E-09 -5.47474E-10 -9.32840E-10 -1.15636E-09 -1.22578E-09 -1.65032E-09 -1.38068E-09 -1.04901E-09 -1.81776E-09
  -1.30775E-09 -1.85880E-09 -1.43696E-09 -1.88576E-09 -1.50851E-09 -2.05049E-09 -1.97153E-09 -1.96312E-09 -1.51307E-09 -2.02778E-09
  -1.88687E-09 -2.57874E-09 -2.41270E-09 -2.50282E-09 -2.27264E-09 -2.05070E-09 -2.52639E-09 -2.13909E-09 -2.13884E-09 -2.86630E-09
  -2.67221E-09 -2.52410E-09 -2.76325E-09 -3.01960E-09 -2.87511E-09 -2.89076E-09 -2.66090E-09 -2.76234E-09 -3.03186E-09 -2.93904E-09
  -2.86158E-09 -2.81526E-09 -2.78873E-09
 NY points of the fit to the data follow
  -9.31484E-09 -9.32828E-09 -9.34159E-09 -9.35477E-09 -9.36779E-09 -9.38068E-09 -9.39340E-09 -9.40594E-09 -9.41831E-09 -9.43048E-09
  -9.44247E-09 -9.45426E-09 -9.46583E-09 -9.47718E-09 -9.48831E-09 -9.49920E-09 -9.50984E-09 -9.52023E-09 -9.53037E-09 -9.54024E-09
  -9.54983E-09 -9.55913E-09 -9.56815E-09 -9.57686E-09 -9.58525E-09 -9.59334E-09 -9.60110E-09 -9.60853E-09 -9.61562E-09 -9.62235E-09
  -9.62873E-09 -9.63474E-09 -9.64037E-09 -9.64563E-09 -9.65048E-09 -9.65496E-09 -9.65901E-09 -9.66264E-09 -9.66588E-09 -9.66866E-09
  -9.67100E-09 -9.67290E-09 -9.67435E-09 -9.67531E-09 -9.67582E-09 -9.67584E-09 -9.67539E-09 -9.67442E-09 -9.67295E-09 -9.67098E-09
  -9.66847E-09 -9.66545E-09 -9.66187E-09 -9.65775E-09 -9.65310E-09 -9.64786E-09 -9.64205E-09 -9.63570E-09 -9.62870E-09 -9.62114E-09
  -9.61299E-09 -9.60420E-09 -9.59481E-09 -9.58477E-09 -9.57413E-09 -9.56282E-09 -9.55087E-09 -9.53824E-09 -9.52495E-09 -9.51100E-09
  -9.49634E-09 -9.48099E-09 -9.46496E-09 -9.44820E-09 -9.43073E-09 -9.41253E-09 -9.39358E-09 -9.37390E-09 -9.35345E-09 -9.33224E-09
  -9.31024E-09 -9.28745E-09 -9.26387E-09 -9.23946E-09 -9.21425E-09 -9.18820E-09 -9.16131E-09 -9.13357E-09 -9.10498E-09 -9.07551E-09
  -9.04514E-09 -9.01391E-09 -8.98175E-09 -8.94871E-09 -8.91473E-09 -8.87981E-09 -8.84396E-09 -8.80716E-09 -8.76938E-09 -8.73064E-09
  -8.69092E-09 -8.65020E-09 -8.60848E-09 -8.56576E-09 -8.52200E-09 -8.47721E-09 -8.43137E-09 -8.38449E-09 -8.33656E-09 -8.28751E-09
  -8.23742E-09 -8.18621E-09 -8.13390E-09 -8.08047E-09 -8.02592E-09 -7.97023E-09 -7.91341E-09 -7.85543E-09 -7.79627E-09 -7.73597E-09
  -7.67444E-09 -7.61174E-09 -7.54782E-09 -7.48270E-09 -7.41635E-09 -7.34876E-09 -7.27990E-09 -7.20982E-09 -7.13846E-09 -7.06582E-09
  -6.99189E-09 -6.91666E-09 -6.84013E-09 -6.76229E-09 -6.68311E-09 -6.60258E-09 -6.52073E-09 -6.43751E-09 -6.35292E-09 -6.26694E-09
  -6.17959E-09 -6.09084E-09 -6.00068E-09 -5.90909E-09 -5.81608E-09 -5.72162E-09 -5.62574E-09 -5.52847E-09 -5.42988E-09 -5.33001E-09
  -5.22892E-09 -5.12667E-09 -5.02330E-09 -4.91888E-09 -4.81345E-09 -4.70706E-09 -4.59979E-09 -4.49167E-09 -4.38277E-09 -4.27314E-09
  -4.16281E-09 -4.05188E-09 -3.94036E-09 -3.82833E-09 -3.71584E-09 -3.60294E-09 -3.48968E-09 -3.37612E-09 -3.26231E-09 -3.14832E-09
  -3.03418E-09 -2.91996E-09 -2.80571E-09 -2.69148E-09 -2.57733E-09 -2.46331E-09 -2.34948E-09 -2.23589E-09 -2.12259E-09 -2.00963E-09
  -1.89708E-09 -1.78501E-09 -1.67341E-09 -1.56239E-09 -1.45199E-09 -1.34225E-09 -1.23325E-09 -1.12506E-09 -1.01767E-09 -9.11163E-10
  -8.05634E-10 -7.01069E-10 -5.97561E-10 -4.95145E-10 -3.93919E-10 -2.93892E-10 -1.95104E-10 -9.76751E-11 -1.62795E-12  9.30158E-11
   1.86172E-10  2.77790E-10  3.67804E-10  4.56177E-10  5.42870E-10  6.27781E-10  7.10890E-10  7.92146E-10  8.71501E-10  9.48840E-10
   1.02420E-09  1.09747E-09  1.16859E-09  1.23754E-09  1.30427E-09  1.36867E-09  1.43073E-09  1.49041E-09  1.54761E-09  1.60238E-09
   1.65473E-09  1.70471E-09  1.75231E-09  1.79760E-09  1.84057E-09  1.88128E-09  1.91975E-09  1.95600E-09  1.99006E-09  2.02197E-09
   2.05175E-09  2.07943E-09  2.10503E-09  2.12860E-09  2.15015E-09  2.16972E-09  2.18734E-09  2.20302E-09  2.21681E-09  2.22872E-09
   2.23879E-09  2.24706E-09  2.25354E-09  2.25826E-09  2.26125E-09  2.26255E-09  2.26218E-09  2.26017E-09  2.25655E-09  2.25134E-09
   2.24459E-09  2.23629E-09  2.22653E-09  2.21527E-09  2.20256E-09  2.18847E-09  2.17299E-09  2.15615E-09  2.13799E-09  2.11853E-09
   2.09779E-09  2.07584E-09  2.05267E-09  2.02832E-09  2.00280E-09  1.97617E-09  1.94846E-09  1.91965E-09  1.88982E-09  1.85899E-09
   1.82717E-09  1.79439E-09  1.76070E-09  1.72610E-09  1.69066E-09  1.65436E-09  1.61726E-09  1.57939E-09  1.54075E-09  1.50139E-09
   1.46135E-09  1.42064E-09  1.37930E-09  1.33734E-09  1.29481E-09  1.25173E-09  1.20814E-09  1.16402E-09  1.11946E-09  1.07447E-09
   1.02906E-09  9.83266E-10  9.37094E-10  8.90549E-10  8.43634E-10  7.96365E-10  7.48734E-10  7.00759E-10  6.52442E-10  6.03789E-10
   5.54810E-10  5.05506E-10  4.55890E-10  4.05965E-10  3.55734E-10  3.05208E-10  2.54395E-10  2.03302E-10  1.51929E-10  1.00284E-10
   4.83795E-11 -3.78587E-12 -5.61951E-11 -1.08854E-10 -1.61747E-10 -2.14873E-10 -2.68220E-10 -3.21789E-10 -3.75568E-10 -4.29549E-10
  -4.83727E-10 -5.38106E-10 -5.92663E-10 -6.47398E-10 -7.02308E-10 -7.57390E-10 -8.12620E-10 -8.68009E-10 -9.23538E-10 -9.79215E-10
  -1.03502E-09 -1.09095E-09 -1.14701E-09 -1.20318E-09 -1.25945E-09 -1.31583E-09 -1.37229E-09 -1.42885E-09 -1.48548E-09 -1.54221E-09
  -1.59898E-09 -1.65583E-09 -1.71273E-09 -1.76967E-09 -1.82667E-09 -1.88369E-09 -1.94075E-09 -1.99783E-09 -2.05493E-09 -2.11203E-09
  -2.16913E-09 -2.22624E-09 -2.28334E-09 -2.34042E-09 -2.39747E-09 -2.45450E-09 -2.51149E-09 -2.56844E-09 -2.62535E-09 -2.68219E-09
  -2.73898E-09 -2.79570E-09 -2.85233E-09
 NY background values follow
    -9.315E-09   -9.328E-09   -9.342E-09   -9.355E-09   -9.368E-09   -9.381E-09   -9.393E-09   -9.406E-09   -9.418E-09   -9.430E-09
    -9.442E-09   -9.454E-09   -9.466E-09   -9.477E-09   -9.488E-09   -9.499E-09   -9.510E-09   -9.520E-09   -9.530E-09   -9.540E-09
    -9.550E-09   -9.559E-09   -9.568E-09   -9.577E-09   -9.585E-09   -9.593E-09   -9.601E-09   -9.609E-09   -9.616E-09   -9.622E-09
    -9.629E-09   -9.635E-09   -9.640E-09   -9.646E-09   -9.650E-09   -9.655E-09   -9.659E-09   -9.663E-09   -9.666E-09   -9.669E-09
    -9.671E-09   -9.673E-09   -9.674E-09   -9.675E-09   -9.676E-09   -9.676E-09   -9.675E-09   -9.674E-09   -9.673E-09   -9.671E-09
    -9.668E-09   -9.665E-09   -9.662E-09   -9.658E-09   -9.653E-09   -9.648E-09   -9.642E-09   -9.636E-09   -9.629E-09   -9.621E-09
    -9.613E-09   -9.604E-09   -9.595E-09   -9.585E-09   -9.574E-09   -9.563E-09   -9.551E-09   -9.538E-09   -9.525E-09   -9.511E-09
    -9.496E-09   -9.481E-09   -9.465E-09   -9.448E-09   -9.431E-09   -9.413E-09   -9.394E-09   -9.374E-09   -9.353E-09   -9.332E-09
    -9.310E-09   -9.287E-09   -9.264E-09   -9.239E-09   -9.214E-09   -9.188E-09   -9.161E-09   -9.134E-09   -9.105E-09   -9.076E-09
    -9.045E-09   -9.014E-09   -8.982E-09   -8.949E-09   -8.915E-09   -8.880E-09   -8.844E-09   -8.807E-09   -8.769E-09   -8.731E-09
    -8.691E-09   -8.650E-09   -8.608E-09   -8.566E-09   -8.522E-09   -8.477E-09   -8.431E-09   -8.384E-09   -8.337E-09   -8.288E-09
    -8.237E-09   -8.186E-09   -8.134E-09   -8.080E-09   -8.026E-09   -7.970E-09   -7.913E-09   -7.855E-09   -7.796E-09   -7.736E-09
    -7.674E-09   -7.612E-09   -7.548E-09   -7.483E-09   -7.416E-09   -7.349E-09   -7.280E-09   -7.210E-09   -7.138E-09   -7.066E-09
    -6.992E-09   -6.917E-09   -6.840E-09   -6.762E-09   -6.683E-09   -6.603E-09   -6.521E-09   -6.438E-09   -6.353E-09   -6.267E-09
    -6.180E-09   -6.091E-09   -6.001E-09   -5.909E-09   -5.816E-09   -5.722E-09   -5.626E-09   -5.528E-09   -5.430E-09   -5.330E-09
    -5.229E-09   -5.127E-09   -5.023E-09   -4.919E-09   -4.813E-09   -4.707E-09   -4.600E-09   -4.492E-09   -4.383E-09   -4.273E-09
    -4.163E-09   -4.052E-09   -3.940E-09   -3.828E-09   -3.716E-09   -3.603E-09   -3.490E-09   -3.376E-09   -3.262E-09   -3.148E-09
    -3.034E-09   -2.920E-09   -2.806E-09   -2.691E-09   -2.577E-09   -2.463E-09   -2.349E-09   -2.236E-09   -2.123E-09   -2.010E-09
    -1.897E-09   -1.785E-09   -1.673E-09   -1.562E-09   -1.452E-09   -1.342E-09   -1.233E-09   -1.125E-09   -1.018E-09   -9.112E-10
    -8.056E-10   -7.011E-10   -5.976E-10   -4.951E-10   -3.939E-10   -2.939E-10   -1.951E-10   -9.768E-11   -1.628E-12    9.302E-11
     1.862E-10    2.778E-10    3.678E-10    4.562E-10    5.429E-10    6.278E-10    7.109E-10    7.921E-10    8.715E-10    9.488E-10
     1.024E-09    1.097E-09    1.169E-09    1.238E-09    1.304E-09    1.369E-09    1.431E-09    1.490E-09    1.548E-09    1.602E-09
     1.655E-09    1.705E-09    1.752E-09    1.798E-09    1.841E-09    1.881E-09    1.920E-09    1.956E-09    1.990E-09    2.022E-09
     2.052E-09    2.079E-09    2.105E-09    2.129E-09    2.150E-09    2.170E-09    2.187E-09    2.203E-09    2.217E-09    2.229E-09
     2.239E-09    2.247E-09    2.254E-09    2.258E-09    2.261E-09    2.263E-09    2.262E-09    2.260E-09    2.257E-09    2.251E-09
     2.245E-09    2.236E-09    2.227E-09    2.215E-09    2.203E-09    2.188E-09    2.173E-09    2.156E-09    2.138E-09    2.119E-09
     2.098E-09    2.076E-09    2.053E-09    2.028E-09    2.003E-09    1.976E-09    1.948E-09    1.920E-09    1.890E-09    1.859E-09
     1.827E-09    1.794E-09    1.761E-09    1.726E-09    1.691E-09    1.654E-09    1.617E-09    1.579E-09    1.541E-09    1.501E-09
     1.461E-09    1.421E-09    1.379E-09    1.337E-09    1.295E-09    1.252E-09    1.208E-09    1.164E-09    1.119E-09    1.074E-09
     1.029E-09    9.833E-10    9.371E-10    8.905E-10    8.436E-10    7.964E-10    7.487E-10    7.008E-10    6.524E-10    6.038E-10
     5.548E-10    5.055E-10    4.559E-10    4.060E-10    3.557E-10    3.052E-10    2.544E-10    2.033E-10    1.519E-10    1.003E-10
     4.838E-11   -3.786E-12   -5.620E-11   -1.089E-10   -1.617E-10   -2.149E-10   -2.682E-10   -3.218E-10   -3.756E-10   -4.295E-10
    -4.837E-10   -5.381E-10   -5.927E-10   -6.474E-10   -7.023E-10   -7.574E-10   -8.126E-10   -8.680E-10   -9.235E-10   -9.792E-10
    -1.035E-09   -1.091E-09   -1.147E-09   -1.203E-09   -1.259E-09   -1.316E-09   -1.372E-09   -1.429E-09   -1.485E-09   -1.542E-09
    -1.599E-09   -1.656E-09   -1.713E-09   -1.770E-09   -1.827E-09   -1.884E-09   -1.941E-09   -1.998E-09   -2.055E-09   -2.112E-09
    -2.169E-09   -2.226E-09   -2.283E-09   -2.340E-09   -2.397E-09   -2.455E-09   -2.511E-09   -2.568E-09   -2.625E-09   -2.682E-09
    -2.739E-09   -2.796E-09   -2.852E-09
   7 lines in following diagnostic table:
   1 ERROR     MYBASI 10                                                  
   4 ERRORS    AREABA  3                                                  
   1 warning   STARTV  5                                                  
   1 info      STARTV 13                                                  
   1 warning   STARTV 25                                                  
   1 info      STARTV 20                                                  
   2 warnings  RBASOL  3                                                  
  79 lines in following table of input changes:
ATTH2O=1.0                                                                
FILH2O='/mnt/c/Users/divya/Downloads/Lexar/DataFo                         
   rDivya/meas_MID01415_FID95676_lb_RosetteSpinEc                         
   ho_ek_v1a_lcm/12x25_ftSpec_smooth_lcm_w'                               
DOWS=T                                                                    
DOECC=T                                                                   
CHRATO(8)='MM9/MM1 = 1.40 +- 0.7'                                         
CHRATO(7)='MM8/MM1 = 0.33 +- 0.17'                                        
CHRATO(6)='MM7/MM1 = 0.54 +- 0.27'                                        
CHRATO(5)='MM6/MM1 = 0.63 +- 0.16'                                        
CHRATO(4)='MM5/MM1 = 3.16 +- 0.79'                                        
CHRATO(3)='MM4/MM1 = 1.29 +- 1.03'                                        
CHRATO(2)='MM3/MM1 = 1.05 +- 0.63'                                        
CHRATO(1)='MM2/MM1 = 0.51 +- 0.17'                                        
NRATIO=8                                                                  
NORATO(7)='-CrCH2/totCr'                                                  
NORATO(6)='MM17/MM09*'                                                    
NORATO(5)='MM14/MM09*'                                                    
NORATO(4)='MM12/MM09*'                                                    
NORATO(3)='MM20/MM09*'                                                    
NORATO(2)='Lip20/Lip13*'                                                  
NORATO(1)='Lip09/Lip13*'                                                  
NNORAT=7                                                                  
CHOMIT(14)='-CrCH2'                                                       
CHOMIT(13)='MM17'                                                         
CHOMIT(12)='MM14'                                                         
CHOMIT(11)='MM12'                                                         
CHOMIT(10)='MM20'                                                         
CHOMIT(9)='Lip20'                                                         
CHOMIT(8)='MM09'                                                          
CHOMIT(7)='Lip09'                                                         
CHOMIT(6)='Lip13d'                                                        
CHOMIT(5)='Lip13c'                                                        
CHOMIT(4)='Lip13b'                                                        
CHOMIT(3)='Lip13a'                                                        
CHOMIT(2)='bHG'                                                           
CHOMIT(1)='bHB'                                                           
NOMIT=14                                                                  
NEACH=999                                                                 
DKNTMN=0.3                                                                
WDLINE(1)=0.025                                                           
RFWHM=0.15                                                                
PPMEND=0.2                                                                
PPMST=4.25                                                                
LPS=8                                                                     
DOREFS(1)=T                                                               
FILPRI='/mnt/c/Users/divya/Downloads/Lexar/DataFo                         
   rDivya/meas_MID01415_FID95676_lb_RosetteSpinEc                         
   ho_ek_v1a_lcm/12x25_ftSpec_smooth_lcm_out/12x2                         
   5_ftSpec_smooth_lcm.print'                                             
LCSV=11                                                                   
LCOORD=9                                                                  
LTABLE=7                                                                  
LPRINT=6                                                                  
ECHOT=20                                                                  
NUNFIL=576                                                                
DELTAT=0.00063000                                                         
HZPPPM=123.25                                                             
FILBAS='/mnt/c/Users/divya/Downloads/linux-send/f                         
   ida2/new/3T_SpinEchoRosetteMRSI_TE20.basis'                            
FILCSV='/mnt/c/Users/divya/Downloads/Lexar/DataFo                         
   rDivya/meas_MID01415_FID95676_lb_RosetteSpinEc                         
   ho_ek_v1a_lcm/12x25_ftSpec_smooth_lcm_out/12x2                         
   5_ftSpec_smooth_lcm.csv'                                               
FILCOO='/mnt/c/Users/divya/Downloads/Lexar/DataFo                         
   rDivya/meas_MID01415_FID95676_lb_RosetteSpinEc                         
   ho_ek_v1a_lcm/12x25_ftSpec_smooth_lcm_out/12x2                         
   5_ftSpec_smooth_lcm.coord'                                             
FILTAB='/mnt/c/Users/divya/Downloads/Lexar/DataFo                         
   rDivya/meas_MID01415_FID95676_lb_RosetteSpinEc                         
   ho_ek_v1a_lcm/12x25_ftSpec_smooth_lcm_out/12x2                         
   5_ftSpec_smooth_lcm.table'                                             
FILPS='/mnt/c/Users/divya/Downloads/Lexar/DataFor                         
   Divya/meas_MID01415_FID95676_lb_RosetteSpinEch                         
   o_ek_v1a_lcm/12x25_ftSpec_smooth_lcm_out/12x25                         
   _ftSpec_smooth_lcm.ps'                                                 
FILRAW='/mnt/c/Users/divya/Downloads/Lexar/DataFo                         
   rDivya/meas_MID01415_FID95676_lb_RosetteSpinEc                         
   ho_ek_v1a_lcm/12x25_ftSpec_smooth_lcm'                                 
