 LCModel (Version 6.3-1R) Copyright: S.W. Provencher.          Ref.: Magn. Reson. Med. 30:672-679 (1993).                
 onepulse 12x20_ftSpec_smooth_lcm
 26 lines in following concentration table = NCONC+1
    Conc.  %SD /Cr+PCr  Metabolite                                         
 4.99E-10  80%   9.720 Ala                                                 
 1.82E-09  51%  35.491 Asp                                                 
    0.000 999%   0.000 Cr                                                  
 2.40E-09  32%  46.753 GABA                                                
 9.25E-10 122%  18.033 Glc                                                 
    0.000 999%   0.000 Gln                                                 
    0.000 999%   0.000 Glu                                                 
    0.000 999%   0.000 Glyc                                                
    0.000 999%   0.000 GPC                                                 
    0.000 999%   0.000 GSH                                                 
 7.45E-10  85%  14.515 Ins                                                 
    0.000 999%   0.000 Lac                                                 
    0.000 999%   0.000 NAAG                                                
 6.64E-10  44%  12.929 NAA                                                 
    0.000 999%   0.000 PCh                                                 
 5.13E-11 778%   1.000 PCr                                                 
 8.23E-10  90%  16.032 PE                                                  
 1.07E-10 263%   2.080 Scyllo                                              
 1.20E-10 999%   2.329 Ser                                                 
    0.000 999%   0.000 Tau                                                 
    0.000 999%   0.000 GPC+PCh                                             
 6.64E-10  44%  12.929 NAA+NAAG                                            
 7.45E-10  85%  14.515 Ins+Glyc                                            
 5.13E-11 778%   1.000 Cr+PCr                                              
    0.000 999%   0.000 Glu+Gln                                             
   6 lines in following misc. output table
  FWHM = 0.089 ppm    S/N =   2                                            
  Data shift = 0.369 ppm                                                   
  Ph: 107 deg      24.4 deg/ppm                                            
  alphaB,S = 6.3E-01,   4.3E+01                                            
    8 spline knots.   Ns = 5(1)                                            
  (10) 2 infls.   ( 5) 1 extrs.                                            
  363 points on ppm-axis = NY
      4.250000     4.238821     4.227641     4.216462     4.205282     4.194103     4.182923     4.171744     4.160564     4.149385
      4.138206     4.127026     4.115847     4.104667     4.093488     4.082308     4.071129     4.059949     4.048770     4.037591
      4.026411     4.015232     4.004052     3.992873     3.981693     3.970514     3.959334     3.948155     3.936975     3.925796
      3.914617     3.903437     3.892258     3.881078     3.869899     3.858719     3.847540     3.836360     3.825181     3.814002
      3.802822     3.791643     3.780463     3.769284     3.758104     3.746925     3.735745     3.724566     3.713387     3.702207
      3.691028     3.679848     3.668669     3.657489     3.646310     3.635130     3.623951     3.612772     3.601592     3.590413
      3.579233     3.568054     3.556874     3.545695     3.534515     3.523336     3.512156     3.500977     3.489798     3.478618
      3.467439     3.456259     3.445080     3.433900     3.422721     3.411541     3.400362     3.389183     3.378003     3.366824
      3.355644     3.344465     3.333285     3.322106     3.310926     3.299747     3.288568     3.277388     3.266209     3.255029
      3.243850     3.232670     3.221491     3.210311     3.199132     3.187953     3.176773     3.165594     3.154414     3.143235
      3.132055     3.120876     3.109696     3.098517     3.087337     3.076158     3.064979     3.053799     3.042620     3.031440
      3.020261     3.009081     2.997902     2.986722     2.975543     2.964364     2.953184     2.942005     2.930825     2.919646
      2.908466     2.897287     2.886107     2.874928     2.863749     2.852569     2.841390     2.830210     2.819031     2.807851
      2.796672     2.785492     2.774313     2.763134     2.751954     2.740775     2.729595     2.718416     2.707236     2.696057
      2.684877     2.673698     2.662519     2.651339     2.640160     2.628980     2.617801     2.606621     2.595442     2.584262
      2.573083     2.561903     2.550724     2.539545     2.528365     2.517186     2.506006     2.494827     2.483647     2.472468
      2.461288     2.450109     2.438930     2.427750     2.416571     2.405391     2.394212     2.383032     2.371853     2.360673
      2.349494     2.338315     2.327135     2.315956     2.304776     2.293597     2.282417     2.271238     2.260058     2.248879
      2.237700     2.226520     2.215341     2.204161     2.192982     2.181802     2.170623     2.159443     2.148264     2.137084
      2.125905     2.114726     2.103546     2.092367     2.081187     2.070008     2.058828     2.047649     2.036469     2.025290
      2.014111     2.002931     1.991752     1.980572     1.969393     1.958213     1.947034     1.935854     1.924675     1.913496
      1.902316     1.891137     1.879957     1.868778     1.857598     1.846419     1.835239     1.824060     1.812881     1.801701
      1.790522     1.779342     1.768163     1.756983     1.745804     1.734624     1.723445     1.712265     1.701086     1.689907
      1.678727     1.667548     1.656368     1.645189     1.634009     1.622830     1.611650     1.600471     1.589292     1.578112
      1.566933     1.555753     1.544574     1.533394     1.522215     1.511035     1.499856     1.488677     1.477497     1.466318
      1.455138     1.443959     1.432779     1.421600     1.410420     1.399241     1.388062     1.376882     1.365703     1.354523
      1.343344     1.332164     1.320985     1.309805     1.298626     1.287446     1.276267     1.265088     1.253908     1.242729
      1.231549     1.220370     1.209190     1.198011     1.186831     1.175652     1.164473     1.153293     1.142114     1.130934
      1.119755     1.108575     1.097396     1.086216     1.075037     1.063858     1.052678     1.041499     1.030319     1.019140
      1.007960     0.996781     0.985601     0.974422     0.963243     0.952063     0.940884     0.929704     0.918525     0.907345
      0.896166     0.884986     0.873807     0.862628     0.851448     0.840269     0.829089     0.817910     0.806730     0.795551
      0.784371     0.773192     0.762012     0.750833     0.739654     0.728474     0.717295     0.706115     0.694936     0.683756
      0.672577     0.661397     0.650218     0.639039     0.627859     0.616680     0.605500     0.594321     0.583141     0.571962
      0.560782     0.549603     0.538424     0.527244     0.516065     0.504885     0.493706     0.482526     0.471347     0.460167
      0.448988     0.437809     0.426629     0.415450     0.404270     0.393091     0.381911     0.370732     0.359552     0.348373
      0.337193     0.326014     0.314835     0.303655     0.292476     0.281296     0.270117     0.258937     0.247758     0.236578
      0.225399     0.214220     0.203040
 NY phased data points follow
   6.89970E-09  6.17618E-09  8.22513E-09  7.16642E-09  8.86590E-09  7.42465E-09  8.49191E-09  7.30367E-09  8.51679E-09  7.18775E-09
   9.14677E-09  7.41162E-09  8.87495E-09  7.58871E-09  8.77127E-09  7.59929E-09  9.04496E-09  8.11535E-09  9.60404E-09  8.42131E-09
   1.03259E-08  8.37953E-09  9.59685E-09  7.67462E-09  9.61335E-09  8.17649E-09  9.62023E-09  9.06583E-09  9.40547E-09  8.45169E-09
   9.13807E-09  9.26615E-09  1.02926E-08  1.02848E-08  1.18290E-08  1.03901E-08  1.20110E-08  1.04348E-08  1.13021E-08  9.96934E-09
   1.13605E-08  9.90690E-09  1.08535E-08  1.00161E-08  1.01678E-08  9.65618E-09  9.74108E-09  8.92777E-09  8.95645E-09  8.31230E-09
   9.28418E-09  8.10619E-09  8.74617E-09  7.51900E-09  8.71667E-09  7.61156E-09  8.02093E-09  6.46656E-09  7.26337E-09  6.16165E-09
   7.39025E-09  5.76727E-09  8.23366E-09  7.58409E-09  9.17197E-09  8.91026E-09  9.93049E-09  9.24106E-09  9.97526E-09  8.97047E-09
   9.39044E-09  7.98064E-09  8.59371E-09  7.13256E-09  7.39839E-09  6.78811E-09  7.11022E-09  6.98916E-09  8.10922E-09  8.37595E-09
   1.06891E-08  1.07456E-08  1.24863E-08  1.16773E-08  1.32902E-08  1.25714E-08  1.38233E-08  1.22653E-08  1.32142E-08  1.25766E-08
   1.31821E-08  1.24668E-08  1.29275E-08  1.16718E-08  1.21910E-08  1.17311E-08  1.15875E-08  1.09725E-08  1.11814E-08  1.01356E-08
   1.13262E-08  9.95172E-09  1.04743E-08  9.74112E-09  1.03017E-08  8.89687E-09  9.82932E-09  8.58002E-09  8.96516E-09  7.79517E-09
   8.19044E-09  7.57632E-09  7.57088E-09  6.52954E-09  7.74875E-09  6.72209E-09  7.92724E-09  6.07263E-09  7.61814E-09  6.81392E-09
   7.50391E-09  6.25662E-09  7.36103E-09  6.11764E-09  6.47481E-09  5.10966E-09  6.22434E-09  5.18547E-09  5.70725E-09  5.21993E-09
   5.52525E-09  4.47275E-09  5.84675E-09  4.83540E-09  6.01327E-09  5.37520E-09  6.00045E-09  4.89490E-09  6.08815E-09  6.09796E-09
   6.95934E-09  6.17312E-09  7.68924E-09  6.69911E-09  8.22297E-09  7.56459E-09  8.74142E-09  7.99002E-09  9.02386E-09  9.11236E-09
   9.38765E-09  8.13961E-09  9.41445E-09  8.18864E-09  9.15254E-09  8.03411E-09  8.89081E-09  8.48671E-09  9.02349E-09  8.59988E-09
   9.51734E-09  8.42683E-09  9.34616E-09  8.53159E-09  9.28802E-09  8.66895E-09  1.02879E-08  1.03524E-08  1.25971E-08  1.28974E-08
   1.49913E-08  1.55818E-08  1.73857E-08  1.64423E-08  1.70123E-08  1.53667E-08  1.62840E-08  1.38832E-08  1.39561E-08  1.27041E-08
   1.26057E-08  1.05323E-08  9.91156E-09  8.25018E-09  7.08273E-09  4.63498E-09  4.24688E-09  1.35723E-09  4.36757E-10 -2.39614E-09
  -3.95045E-09 -6.38991E-09 -7.88583E-09 -1.06171E-08 -1.25047E-08 -1.47148E-08 -1.62834E-08 -1.87429E-08 -1.88630E-08 -2.08066E-08
  -2.00701E-08 -2.12740E-08 -2.05504E-08 -1.99110E-08 -1.77098E-08 -1.74497E-08 -1.46325E-08 -1.37905E-08 -1.05584E-08 -9.69615E-09
  -7.67704E-09 -6.37249E-09 -4.47156E-09 -4.49016E-09 -3.55604E-09 -4.12173E-09 -2.43369E-09 -3.35286E-09 -2.86969E-09 -4.09114E-09
  -2.35724E-09 -3.41739E-09 -2.33880E-09 -3.50735E-09 -2.45948E-09 -3.22961E-09 -2.29879E-09 -3.41250E-09 -2.39312E-09 -3.58252E-09
  -2.78920E-09 -3.29432E-09 -2.42510E-09 -2.61486E-09 -1.79147E-09 -2.23431E-09 -2.07296E-09 -2.81087E-09 -2.02565E-09 -2.93104E-09
  -2.11666E-09 -2.92076E-09 -1.90285E-09 -2.60455E-09 -2.04448E-09 -2.24419E-09 -1.58425E-09 -1.74119E-09 -1.22669E-09 -1.98476E-09
  -1.26012E-09 -1.94122E-09 -1.09578E-09 -1.57731E-09 -1.59118E-09 -1.96152E-09 -1.56039E-09 -2.35156E-09 -1.65070E-09 -2.67878E-09
  -1.77480E-09 -2.70083E-09 -2.29680E-09 -2.24769E-09 -1.61015E-09 -2.08987E-09 -1.06821E-09 -1.32252E-09 -8.46578E-10 -1.42178E-09
  -7.46710E-10 -1.41777E-09 -4.97783E-10 -8.99119E-10 -1.40884E-10 -6.91299E-10 -2.57674E-11 -9.99834E-10 -4.97689E-10 -8.41255E-10
  -3.44906E-10 -1.44595E-09 -1.08474E-09 -1.54012E-09 -1.06655E-09 -1.22823E-09 -1.58493E-09 -1.73796E-09 -9.32714E-10 -2.29581E-09
  -1.15932E-09 -1.24490E-09 -1.89087E-09 -1.49993E-09 -1.62188E-09 -2.02597E-09 -1.25706E-09 -1.66286E-09 -1.49695E-09 -1.61884E-09
  -2.17985E-09 -2.00760E-09 -1.46374E-09 -1.91315E-09 -8.31801E-10 -1.86681E-09 -1.27081E-09 -1.79353E-09 -9.50119E-10 -1.00367E-09
  -9.40350E-10 -1.68949E-09 -9.23104E-10 -1.73778E-09 -8.53747E-10 -8.05174E-10 -7.93571E-10 -8.50293E-10 -7.37674E-10 -8.42127E-10
  -7.95978E-10 -9.01952E-10 -4.18489E-10 -5.44269E-10 -4.42914E-10  3.77615E-11 -4.60176E-10 -1.97658E-10  4.70158E-11 -4.70880E-10
   5.24236E-10 -6.41739E-11 -3.48146E-11  2.82481E-10  6.24062E-10  2.69340E-10  5.28523E-10  2.68720E-10  3.92010E-10  8.39901E-10
   1.10936E-09  5.77760E-13  1.16870E-09  1.01386E-09  9.78446E-10  7.63988E-10  1.01408E-09  9.27624E-10  1.58613E-09  1.52871E-09
   1.62813E-09  1.19536E-09  1.95053E-09  1.24544E-09  1.60455E-09  1.70136E-09  1.67276E-09  1.78524E-09  2.20771E-09  1.84073E-09
   2.12949E-09  1.94909E-09  2.43604E-09
 NY points of the fit to the data follow
   8.52629E-09  8.15753E-09  7.87508E-09  7.62256E-09  7.44599E-09  7.26417E-09  7.01931E-09  6.83134E-09  6.90726E-09  7.22315E-09
   7.57281E-09  7.90752E-09  8.28718E-09  8.71433E-09  9.06832E-09  9.28197E-09  9.42096E-09  9.46185E-09  9.25421E-09  8.94922E-09
   8.86984E-09  8.99651E-09  9.04635E-09  9.02928E-09  8.95327E-09  8.95285E-09  9.09332E-09  9.18272E-09  9.21555E-09  9.43893E-09
   9.66487E-09  9.68380E-09  9.94782E-09  1.03977E-08  1.06157E-08  1.08535E-08  1.11225E-08  1.13271E-08  1.13642E-08  1.11268E-08
   1.06980E-08  1.02483E-08  9.51167E-09  8.74515E-09  8.60513E-09  8.67596E-09  8.45398E-09  8.31331E-09  8.44680E-09  8.71470E-09
   9.05250E-09  9.27849E-09  9.28919E-09  8.98854E-09  8.49005E-09  8.08482E-09  7.91275E-09  8.01207E-09  7.99101E-09  7.83374E-09
   7.82969E-09  8.02455E-09  8.51816E-09  9.05033E-09  9.65656E-09  1.04195E-08  1.09566E-08  1.12871E-08  1.15582E-08  1.16884E-08
   1.16032E-08  1.12150E-08  1.05874E-08  9.95399E-09  9.41894E-09  8.63886E-09  8.17696E-09  8.77783E-09  9.44009E-09  9.95750E-09
   1.05642E-08  1.10369E-08  1.14258E-08  1.19592E-08  1.23470E-08  1.23541E-08  1.20448E-08  1.13368E-08  1.05348E-08  1.04059E-08
   1.04015E-08  1.04177E-08  1.04182E-08  1.01194E-08  9.73326E-09  9.58917E-09  9.27207E-09  8.84210E-09  8.66744E-09  8.60401E-09
   8.67796E-09  8.79000E-09  8.89934E-09  9.13828E-09  9.40571E-09  9.62177E-09  9.75041E-09  9.77118E-09  9.65591E-09  9.38866E-09
   9.01165E-09  8.66405E-09  8.44874E-09  8.07497E-09  7.67574E-09  7.50545E-09  7.40665E-09  7.33539E-09  7.27707E-09  7.22538E-09
   7.17711E-09  7.13041E-09  7.08411E-09  7.03742E-09  6.98981E-09  6.94089E-09  6.89033E-09  6.83791E-09  6.78346E-09  6.72680E-09
   6.66781E-09  6.60636E-09  6.54237E-09  6.47575E-09  6.40641E-09  6.33430E-09  6.25934E-09  6.18146E-09  6.10062E-09  6.01677E-09
   5.92988E-09  5.83990E-09  5.74681E-09  5.65057E-09  5.55115E-09  5.44856E-09  5.34285E-09  5.23417E-09  5.12270E-09  5.00866E-09
   4.89226E-09  4.77377E-09  4.65349E-09  4.53178E-09  4.40908E-09  4.28595E-09  4.16310E-09  4.04148E-09  3.92245E-09  3.80795E-09
   3.70096E-09  3.60637E-09  3.53273E-09  3.49678E-09  3.53635E-09  3.76003E-09  4.63451E-09  7.66406E-09  1.11316E-08  1.39276E-08
   1.58832E-08  1.71918E-08  1.80594E-08  1.84677E-08  1.81622E-08  1.65726E-08  1.31756E-08  8.13756E-09  3.36747E-09  1.83267E-09
   1.17406E-09  7.65074E-10  4.58900E-10  2.04874E-10 -1.90257E-11 -2.23812E-10 -4.15551E-10 -5.97808E-10 -7.72854E-10 -9.42093E-10
  -1.10646E-09 -1.26661E-09 -1.42296E-09 -1.57580E-09 -1.72528E-09 -1.87156E-09 -2.01470E-09 -2.15468E-09 -2.29153E-09 -2.42523E-09
  -2.55572E-09 -2.68295E-09 -2.80684E-09 -2.92734E-09 -3.04435E-09 -3.15778E-09 -3.26754E-09 -3.37355E-09 -3.47570E-09 -3.57385E-09
  -3.66797E-09 -3.75790E-09 -3.84354E-09 -3.92479E-09 -4.00156E-09 -4.07370E-09 -4.14112E-09 -4.20372E-09 -4.26136E-09 -4.31413E-09
  -4.36207E-09 -4.40533E-09 -4.44396E-09 -4.47808E-09 -4.50775E-09 -4.53310E-09 -4.55421E-09 -4.57116E-09 -4.58405E-09 -4.59297E-09
  -4.59803E-09 -4.59929E-09 -4.59686E-09 -4.59082E-09 -4.58128E-09 -4.56832E-09 -4.55203E-09 -4.53250E-09 -4.50982E-09 -4.48409E-09
  -4.45538E-09 -4.42382E-09 -4.38947E-09 -4.35242E-09 -4.31277E-09 -4.27060E-09 -4.22601E-09 -4.17910E-09 -4.12995E-09 -4.07863E-09
  -4.02528E-09 -3.96993E-09 -3.91274E-09 -3.85372E-09 -3.79301E-09 -3.73071E-09 -3.66689E-09 -3.60163E-09 -3.53504E-09 -3.46719E-09
  -3.39819E-09 -3.32814E-09 -3.25710E-09 -3.18518E-09 -3.11246E-09 -3.03903E-09 -2.96501E-09 -2.89044E-09 -2.81544E-09 -2.74011E-09
  -2.66451E-09 -2.58874E-09 -2.51291E-09 -2.43708E-09 -2.36138E-09 -2.28586E-09 -2.21062E-09 -2.13578E-09 -2.06138E-09 -1.98755E-09
  -1.91437E-09 -1.84193E-09 -1.77032E-09 -1.69961E-09 -1.62992E-09 -1.56133E-09 -1.49394E-09 -1.42779E-09 -1.36303E-09 -1.29973E-09
  -1.23796E-09 -1.17779E-09 -1.11916E-09 -1.06204E-09 -1.00638E-09 -9.52166E-10 -8.99319E-10 -8.47828E-10 -7.97642E-10 -7.48721E-10
  -7.01035E-10 -6.54528E-10 -6.09180E-10 -5.64936E-10 -5.21753E-10 -4.79600E-10 -4.38443E-10 -3.98240E-10 -3.58937E-10 -3.20502E-10
  -2.82901E-10 -2.46081E-10 -2.10027E-10 -1.74668E-10 -1.39987E-10 -1.05932E-10 -7.24742E-11 -3.95551E-11 -7.15333E-12  2.47743E-11
   5.62656E-11  8.73909E-11  1.18144E-10  1.48586E-10  1.78763E-10  2.08726E-10  2.38467E-10  2.68068E-10  2.97546E-10  3.26970E-10
   3.56345E-10  3.85732E-10  4.15178E-10  4.44711E-10  4.74357E-10  5.04176E-10  5.34194E-10  5.64472E-10  5.95014E-10  6.25922E-10
   6.57160E-10  6.88829E-10  7.20924E-10  7.53505E-10  7.86652E-10  8.20316E-10  8.54612E-10  8.89532E-10  9.25159E-10  9.61498E-10
   9.98597E-10  1.03652E-09  1.07527E-09  1.11492E-09  1.15548E-09  1.19702E-09  1.23954E-09  1.28312E-09  1.32779E-09  1.37357E-09
   1.42053E-09  1.46869E-09  1.51807E-09
 NY background values follow
     9.068E-10    9.711E-10    1.036E-09    1.100E-09    1.165E-09    1.230E-09    1.295E-09    1.361E-09    1.426E-09    1.492E-09
     1.557E-09    1.623E-09    1.689E-09    1.755E-09    1.821E-09    1.887E-09    1.954E-09    2.020E-09    2.086E-09    2.153E-09
     2.219E-09    2.285E-09    2.352E-09    2.418E-09    2.484E-09    2.550E-09    2.616E-09    2.682E-09    2.748E-09    2.814E-09
     2.880E-09    2.945E-09    3.011E-09    3.076E-09    3.141E-09    3.206E-09    3.271E-09    3.336E-09    3.400E-09    3.465E-09
     3.529E-09    3.592E-09    3.656E-09    3.719E-09    3.782E-09    3.845E-09    3.907E-09    3.969E-09    4.031E-09    4.092E-09
     4.154E-09    4.214E-09    4.275E-09    4.335E-09    4.394E-09    4.453E-09    4.512E-09    4.571E-09    4.629E-09    4.686E-09
     4.743E-09    4.800E-09    4.856E-09    4.911E-09    4.966E-09    5.021E-09    5.075E-09    5.128E-09    5.181E-09    5.234E-09
     5.285E-09    5.337E-09    5.387E-09    5.437E-09    5.487E-09    5.535E-09    5.583E-09    5.630E-09    5.677E-09    5.722E-09
     5.767E-09    5.811E-09    5.853E-09    5.895E-09    5.936E-09    5.975E-09    6.014E-09    6.051E-09    6.087E-09    6.122E-09
     6.155E-09    6.187E-09    6.218E-09    6.247E-09    6.275E-09    6.301E-09    6.326E-09    6.349E-09    6.371E-09    6.390E-09
     6.408E-09    6.425E-09    6.439E-09    6.452E-09    6.462E-09    6.471E-09    6.478E-09    6.483E-09    6.486E-09    6.486E-09
     6.485E-09    6.481E-09    6.475E-09    6.467E-09    6.456E-09    6.443E-09    6.428E-09    6.410E-09    6.390E-09    6.367E-09
     6.342E-09    6.314E-09    6.284E-09    6.251E-09    6.215E-09    6.176E-09    6.134E-09    6.090E-09    6.043E-09    5.992E-09
     5.939E-09    5.883E-09    5.824E-09    5.761E-09    5.696E-09    5.627E-09    5.555E-09    5.480E-09    5.401E-09    5.319E-09
     5.234E-09    5.145E-09    5.053E-09    4.957E-09    4.858E-09    4.755E-09    4.648E-09    4.538E-09    4.425E-09    4.308E-09
     4.188E-09    4.065E-09    3.940E-09    3.811E-09    3.680E-09    3.546E-09    3.410E-09    3.271E-09    3.130E-09    2.988E-09
     2.843E-09    2.696E-09    2.548E-09    2.398E-09    2.246E-09    2.093E-09    1.939E-09    1.784E-09    1.628E-09    1.471E-09
     1.313E-09    1.154E-09    9.950E-10    8.354E-10    6.755E-10    5.154E-10    3.553E-10    1.952E-10    3.524E-11   -1.244E-10
    -2.837E-10   -4.424E-10   -6.005E-10   -7.579E-10   -9.144E-10   -1.070E-09   -1.224E-09   -1.377E-09   -1.529E-09   -1.680E-09
    -1.828E-09   -1.975E-09   -2.121E-09   -2.264E-09   -2.405E-09   -2.544E-09   -2.681E-09   -2.815E-09   -2.947E-09   -3.077E-09
    -3.203E-09   -3.327E-09   -3.447E-09   -3.565E-09   -3.679E-09   -3.790E-09   -3.897E-09   -4.001E-09   -4.101E-09   -4.197E-09
    -4.289E-09   -4.378E-09   -4.462E-09   -4.541E-09   -4.617E-09   -4.688E-09   -4.754E-09   -4.815E-09   -4.872E-09   -4.923E-09
    -4.970E-09   -5.013E-09   -5.050E-09   -5.083E-09   -5.112E-09   -5.137E-09   -5.157E-09   -5.173E-09   -5.185E-09   -5.193E-09
    -5.198E-09   -5.198E-09   -5.195E-09   -5.189E-09   -5.178E-09   -5.165E-09   -5.148E-09   -5.128E-09   -5.105E-09   -5.078E-09
    -5.049E-09   -5.017E-09   -4.982E-09   -4.945E-09   -4.904E-09   -4.862E-09   -4.817E-09   -4.769E-09   -4.720E-09   -4.668E-09
    -4.614E-09   -4.558E-09   -4.501E-09   -4.441E-09   -4.380E-09   -4.318E-09   -4.253E-09   -4.188E-09   -4.121E-09   -4.053E-09
    -3.983E-09   -3.913E-09   -3.841E-09   -3.769E-09   -3.696E-09   -3.622E-09   -3.548E-09   -3.473E-09   -3.398E-09   -3.322E-09
    -3.246E-09   -3.170E-09   -3.094E-09   -3.018E-09   -2.942E-09   -2.866E-09   -2.790E-09   -2.715E-09   -2.640E-09   -2.566E-09
    -2.493E-09   -2.420E-09   -2.348E-09   -2.277E-09   -2.207E-09   -2.138E-09   -2.070E-09   -2.004E-09   -1.939E-09   -1.875E-09
    -1.813E-09   -1.753E-09   -1.694E-09   -1.636E-09   -1.581E-09   -1.526E-09   -1.473E-09   -1.421E-09   -1.371E-09   -1.321E-09
    -1.273E-09   -1.227E-09   -1.181E-09   -1.137E-09   -1.093E-09   -1.051E-09   -1.009E-09   -9.688E-10   -9.292E-10   -8.905E-10
    -8.526E-10   -8.155E-10   -7.792E-10   -7.435E-10   -7.086E-10   -6.743E-10   -6.405E-10   -6.073E-10   -5.747E-10   -5.425E-10
    -5.107E-10   -4.793E-10   -4.483E-10   -4.175E-10   -3.871E-10   -3.569E-10   -3.268E-10   -2.970E-10   -2.672E-10   -2.375E-10
    -2.079E-10   -1.782E-10   -1.485E-10   -1.187E-10   -8.873E-11   -5.863E-11   -2.833E-11    2.224E-12    3.305E-11    6.424E-11
     9.576E-11    1.277E-10    1.601E-10    1.930E-10    2.264E-10    2.603E-10    2.949E-10    3.301E-10    3.660E-10    4.027E-10
     4.401E-10    4.783E-10    5.173E-10    5.573E-10    5.981E-10    6.400E-10    6.828E-10    7.267E-10    7.716E-10    8.177E-10
     8.650E-10    9.134E-10    9.631E-10
 Ala      Conc. = 4.99E-10
   1.25821E-09  1.36178E-09  1.45062E-09  1.53067E-09  1.60176E-09  1.66376E-09  1.70816E-09  1.72721E-09  1.75879E-09  1.79983E-09
   1.80434E-09  1.81897E-09  1.86239E-09  1.89685E-09  1.93339E-09  1.98166E-09  2.03596E-09  2.09371E-09  2.15364E-09  2.21503E-09
   2.27745E-09  2.34061E-09  2.40431E-09  2.46841E-09  2.53282E-09  2.59743E-09  2.66221E-09  2.72708E-09  2.79202E-09  2.85699E-09
   2.92194E-09  2.98687E-09  3.05174E-09  3.11653E-09  3.18123E-09  3.24580E-09  3.31024E-09  3.37453E-09  3.43865E-09  3.50259E-09
   3.56633E-09  3.62987E-09  3.69317E-09  3.75624E-09  3.81905E-09  3.88160E-09  3.94386E-09  4.00585E-09  4.06752E-09  4.12888E-09
   4.18992E-09  4.25061E-09  4.31095E-09  4.37093E-09  4.43053E-09  4.48975E-09  4.54857E-09  4.60696E-09  4.66496E-09  4.72252E-09
   4.77963E-09  4.83630E-09  4.89249E-09  4.94822E-09  5.00345E-09  5.05819E-09  5.11243E-09  5.16615E-09  5.21936E-09  5.27202E-09
   5.32415E-09  5.37573E-09  5.42675E-09  5.47721E-09  5.52707E-09  5.57632E-09  5.62491E-09  5.67281E-09  5.72000E-09  5.76643E-09
   5.81210E-09  5.85697E-09  5.90102E-09  5.94426E-09  5.98667E-09  6.02825E-09  6.06903E-09  6.10905E-09  6.14837E-09  6.18709E-09
   6.22535E-09  6.26340E-09  6.30159E-09  6.34046E-09  6.38092E-09  6.42450E-09  6.47403E-09  6.53535E-09  6.62294E-09  6.78546E-09
   7.10465E-09  7.38925E-09  7.62202E-09  7.95402E-09  8.29438E-09  8.56948E-09  8.74689E-09  8.80846E-09  8.72763E-09  8.48977E-09
   8.13821E-09  7.81314E-09  7.61783E-09  7.26184E-09  6.87843E-09  6.72218E-09  6.63596E-09  6.57611E-09  6.52818E-09  6.48598E-09
   6.44637E-09  6.40757E-09  6.36850E-09  6.32846E-09  6.28697E-09  6.24367E-09  6.19830E-09  6.15067E-09  6.10062E-09  6.04802E-09
   5.99275E-09  5.93472E-09  5.87385E-09  5.81006E-09  5.74327E-09  5.67344E-09  5.60049E-09  5.52438E-09  5.44504E-09  5.36242E-09
   5.27648E-09  5.18717E-09  5.09443E-09  4.99824E-09  4.89852E-09  4.79525E-09  4.68843E-09  4.57816E-09  4.46457E-09  4.34776E-09
   4.22787E-09  4.10503E-09  3.97934E-09  3.85096E-09  3.72001E-09  3.58664E-09  3.45100E-09  3.31325E-09  3.17360E-09  3.03226E-09
   2.88953E-09  2.74584E-09  2.60181E-09  2.45866E-09  2.31898E-09  2.19031E-09  2.10664E-09  2.15086E-09  2.21402E-09  2.23337E-09
   2.20151E-09  2.13090E-09  2.03344E-09  1.90698E-09  1.73461E-09  1.48096E-09  1.11591E-09  6.55998E-10  2.26386E-10 -8.51986E-12
  -1.96771E-10 -3.70547E-10 -5.37775E-10 -7.01183E-10 -8.61956E-10 -1.02063E-09 -1.17746E-09 -1.33252E-09 -1.48588E-09 -1.63751E-09
  -1.78733E-09 -1.93530E-09 -2.08132E-09 -2.22530E-09 -2.36713E-09 -2.50673E-09 -2.64399E-09 -2.77877E-09 -2.91098E-09 -3.04053E-09
  -3.16727E-09 -3.29111E-09 -3.41192E-09 -3.52960E-09 -3.64403E-09 -3.75507E-09 -3.86263E-09 -3.96659E-09 -4.06684E-09 -4.16323E-09
  -4.25569E-09 -4.34406E-09 -4.42824E-09 -4.50812E-09 -4.58359E-09 -4.65450E-09 -4.72075E-09 -4.78224E-09 -4.83884E-09 -4.89059E-09
  -4.93758E-09 -4.97992E-09 -5.01767E-09 -5.05094E-09 -5.07980E-09 -5.10438E-09 -5.12473E-09 -5.14096E-09 -5.15315E-09 -5.16139E-09
  -5.16579E-09 -5.16642E-09 -5.16338E-09 -5.15675E-09 -5.14663E-09 -5.13311E-09 -5.11627E-09 -5.09621E-09 -5.07301E-09 -5.04677E-09
  -5.01757E-09 -4.98553E-09 -4.95071E-09 -4.91320E-09 -4.87309E-09 -4.83048E-09 -4.78546E-09 -4.73812E-09 -4.68855E-09 -4.63683E-09
  -4.58307E-09 -4.52733E-09 -4.46975E-09 -4.41035E-09 -4.34926E-09 -4.28660E-09 -4.22241E-09 -4.15679E-09 -4.08985E-09 -4.02165E-09
  -3.95230E-09 -3.88191E-09 -3.81054E-09 -3.73829E-09 -3.66524E-09 -3.59149E-09 -3.51714E-09 -3.44225E-09 -3.36694E-09 -3.29130E-09
  -3.21539E-09 -3.13932E-09 -3.06319E-09 -2.98705E-09 -2.91106E-09 -2.83524E-09 -2.75971E-09 -2.68458E-09 -2.60989E-09 -2.53577E-09
  -2.46231E-09 -2.38959E-09 -2.31770E-09 -2.24671E-09 -2.17674E-09 -2.10788E-09 -2.04021E-09 -1.97379E-09 -1.90876E-09 -1.84519E-09
  -1.78315E-09 -1.72271E-09 -1.66381E-09 -1.60643E-09 -1.55050E-09 -1.49602E-09 -1.44291E-09 -1.39116E-09 -1.34071E-09 -1.29153E-09
  -1.24358E-09 -1.19682E-09 -1.15121E-09 -1.10671E-09 -1.06327E-09 -1.02086E-09 -9.79444E-10 -9.38984E-10 -8.99425E-10 -8.60733E-10
  -8.22876E-10 -7.85801E-10 -7.49491E-10 -7.13876E-10 -6.78940E-10 -6.44629E-10 -6.10916E-10 -5.77742E-10 -5.45084E-10 -5.12901E-10
  -4.81154E-10 -4.49773E-10 -4.18764E-10 -3.88067E-10 -3.57633E-10 -3.27414E-10 -2.97416E-10 -2.67557E-10 -2.37822E-10 -2.08140E-10
  -1.78506E-10 -1.48860E-10 -1.19154E-10 -8.93616E-11 -5.94550E-11 -2.93748E-11  9.05172E-13  3.14451E-11  6.22497E-11  9.34222E-11
   1.24924E-10  1.56858E-10  1.89219E-10  2.22066E-10  2.55480E-10  2.89413E-10  3.23978E-10  3.59168E-10  3.95066E-10  4.31677E-10
   4.69049E-10  5.07241E-10  5.46271E-10  5.86196E-10  6.27033E-10  6.68853E-10  7.11650E-10  7.55515E-10  8.00466E-10  8.46528E-10
   8.93772E-10  9.42214E-10  9.91881E-10
 Asp      Conc. = 1.82E-09
   3.01870E-09  2.81454E-09  2.63704E-09  2.44472E-09  2.27263E-09  2.05270E-09  1.87371E-09  1.74508E-09  1.71888E-09  1.73230E-09
   1.76522E-09  1.80979E-09  1.86237E-09  1.92027E-09  1.98027E-09  2.04169E-09  2.10460E-09  2.16878E-09  2.23407E-09  2.30033E-09
   2.36749E-09  2.43549E-09  2.50433E-09  2.57402E-09  2.64463E-09  2.71626E-09  2.78905E-09  2.86323E-09  2.93909E-09  3.01708E-09
   3.09783E-09  3.18230E-09  3.27198E-09  3.36941E-09  3.47943E-09  3.61291E-09  3.79726E-09  3.99383E-09  4.21383E-09  4.39810E-09
   4.53477E-09  4.64905E-09  4.79898E-09  5.05438E-09  5.39604E-09  5.85044E-09  6.19460E-09  6.39688E-09  6.67913E-09  7.00717E-09
   7.34661E-09  7.55716E-09  7.54565E-09  7.24909E-09  6.76407E-09  6.34137E-09  6.08936E-09  6.08970E-09  5.97671E-09  5.74992E-09
   5.65041E-09  5.60911E-09  5.58628E-09  5.62738E-09  5.67316E-09  5.64451E-09  5.55986E-09  5.53051E-09  5.52900E-09  5.54225E-09
   5.56435E-09  5.59217E-09  5.62386E-09  5.65825E-09  5.69451E-09  5.73206E-09  5.77046E-09  5.80935E-09  5.84848E-09  5.88762E-09
   5.92661E-09  5.96527E-09  6.00349E-09  6.04114E-09  6.07813E-09  6.11436E-09  6.14974E-09  6.18421E-09  6.21768E-09  6.25009E-09
   6.28138E-09  6.31149E-09  6.34035E-09  6.36791E-09  6.39411E-09  6.41891E-09  6.44225E-09  6.46407E-09  6.48434E-09  6.50300E-09
   6.52000E-09  6.53529E-09  6.54884E-09  6.56059E-09  6.57049E-09  6.57851E-09  6.58459E-09  6.58869E-09  6.59078E-09  6.59080E-09
   6.58870E-09  6.58446E-09  6.57801E-09  6.56932E-09  6.55835E-09  6.54505E-09  6.52938E-09  6.51129E-09  6.49075E-09  6.46771E-09
   6.44213E-09  6.41396E-09  6.38317E-09  6.34971E-09  6.31354E-09  6.27462E-09  6.23290E-09  6.18835E-09  6.14092E-09  6.09057E-09
   6.03727E-09  5.98096E-09  5.92161E-09  5.85917E-09  5.79362E-09  5.72490E-09  5.65298E-09  5.57781E-09  5.49936E-09  5.41759E-09
   5.33247E-09  5.24395E-09  5.15199E-09  5.05657E-09  4.95765E-09  4.85519E-09  4.74922E-09  4.63984E-09  4.52720E-09  4.41143E-09
   4.29267E-09  4.17109E-09  4.04684E-09  3.92009E-09  3.79103E-09  3.65989E-09  3.52691E-09  3.39240E-09  3.25676E-09  3.12051E-09
   2.98441E-09  2.84964E-09  2.71820E-09  2.59388E-09  2.48514E-09  2.41584E-09  2.48692E-09  3.04268E-09  3.69867E-09  4.20423E-09
   4.52060E-09  4.69099E-09  4.76215E-09  4.73063E-09  4.54044E-09  4.06428E-09  3.18393E-09  1.93283E-09  7.33666E-10  2.63581E-10
  -7.81453E-12 -2.22517E-10 -4.13631E-10 -5.92454E-10 -7.63862E-10 -9.30234E-10 -1.09283E-09 -1.25235E-09 -1.40923E-09 -1.56369E-09
  -1.71582E-09 -1.86571E-09 -2.01334E-09 -2.15870E-09 -2.30169E-09 -2.44230E-09 -2.58044E-09 -2.71599E-09 -2.84888E-09 -2.97902E-09
  -3.10630E-09 -3.23062E-09 -3.35186E-09 -3.46992E-09 -3.58470E-09 -3.69607E-09 -3.80392E-09 -3.90815E-09 -4.00865E-09 -4.10526E-09
  -4.19793E-09 -4.28650E-09 -4.37087E-09 -4.45091E-09 -4.52654E-09 -4.59759E-09 -4.66398E-09 -4.72560E-09 -4.78231E-09 -4.83418E-09
  -4.88128E-09 -4.92372E-09 -4.96157E-09 -4.99493E-09 -5.02388E-09 -5.04854E-09 -5.06898E-09 -5.08528E-09 -5.09755E-09 -5.10586E-09
