 LCModel (Version 6.3-1R) Copyright: S.W. Provencher.          Ref.: Magn. Reson. Med. 30:672-679 (1993).                
 onepulse 12x26_ftSpec_smooth_lcm
 26 lines in following concentration table = NCONC+1
    Conc.  %SD   /Cr    Metabolite                                         
 3.32E-10 137%   0.000 Ala                                                 
 1.03E-09 106%   0.000 Asp                                                 
    0.000 999%   0.000 Cr                                                  
 1.89E-09  37%   0.000 GABA                                                
 8.76E-10 143%   0.000 Glc                                                 
    0.000 999%   0.000 Gln                                                 
    0.000 999%   0.000 Glu                                                 
 1.40E-11 999%   0.000 Glyc                                                
    0.000 999%   0.000 GPC                                                 
    0.000 999%   0.000 GSH                                                 
 6.00E-10 391%   0.000 Ins                                                 
    0.000 999%   0.000 Lac                                                 
    0.000 999%   0.000 NAAG                                                
 7.23E-10  46%   0.000 NAA                                                 
    0.000 999%   0.000 PCh                                                 
    0.000 999%   0.000 PCr                                                 
 6.04E-10 152%   0.000 PE                                                  
 7.18E-11 434%   0.000 Scyllo                                              
 1.05E-09 143%   0.000 Ser                                                 
    0.000 999%   0.000 Tau                                                 
    0.000 999%   0.000 GPC+PCh                                             
 7.23E-10  46%   0.000 NAA+NAAG                                            
 6.14E-10 118%   0.000 Ins+Glyc                                            
    0.000 999%   0.000 Cr+PCr                                              
    0.000 999%   0.000 Glu+Gln                                             
   6 lines in following misc. output table
  FWHM = 0.089 ppm    S/N =   2                                            
  Data shift = 0.335 ppm                                                   
  Ph:  37 deg       9.4 deg/ppm                                            
  alphaB,S = 8.1E-01,   4.4E+01                                            
    9 spline knots.   Ns = 5(1)                                            
  ( 8) 2 infls.   ( 7) 1 extrs.                                            
  363 points on ppm-axis = NY
      4.250000     4.238821     4.227641     4.216462     4.205282     4.194103     4.182923     4.171744     4.160564     4.149385
      4.138206     4.127026     4.115847     4.104667     4.093488     4.082308     4.071129     4.059949     4.048770     4.037591
      4.026411     4.015232     4.004052     3.992873     3.981693     3.970514     3.959334     3.948155     3.936975     3.925796
      3.914617     3.903437     3.892258     3.881078     3.869899     3.858719     3.847540     3.836360     3.825181     3.814002
      3.802822     3.791643     3.780463     3.769284     3.758104     3.746925     3.735745     3.724566     3.713387     3.702207
      3.691028     3.679848     3.668669     3.657489     3.646310     3.635130     3.623951     3.612772     3.601592     3.590413
      3.579233     3.568054     3.556874     3.545695     3.534515     3.523336     3.512156     3.500977     3.489798     3.478618
      3.467439     3.456259     3.445080     3.433900     3.422721     3.411541     3.400362     3.389183     3.378003     3.366824
      3.355644     3.344465     3.333285     3.322106     3.310926     3.299747     3.288568     3.277388     3.266209     3.255029
      3.243850     3.232670     3.221491     3.210311     3.199132     3.187953     3.176773     3.165594     3.154414     3.143235
      3.132055     3.120876     3.109696     3.098517     3.087337     3.076158     3.064979     3.053799     3.042620     3.031440
      3.020261     3.009081     2.997902     2.986722     2.975543     2.964364     2.953184     2.942005     2.930825     2.919646
      2.908466     2.897287     2.886107     2.874928     2.863749     2.852569     2.841390     2.830210     2.819031     2.807851
      2.796672     2.785492     2.774313     2.763134     2.751954     2.740775     2.729595     2.718416     2.707236     2.696057
      2.684877     2.673698     2.662519     2.651339     2.640160     2.628980     2.617801     2.606621     2.595442     2.584262
      2.573083     2.561903     2.550724     2.539545     2.528365     2.517186     2.506006     2.494827     2.483647     2.472468
      2.461288     2.450109     2.438930     2.427750     2.416571     2.405391     2.394212     2.383032     2.371853     2.360673
      2.349494     2.338315     2.327135     2.315956     2.304776     2.293597     2.282417     2.271238     2.260058     2.248879
      2.237700     2.226520     2.215341     2.204161     2.192982     2.181802     2.170623     2.159443     2.148264     2.137084
      2.125905     2.114726     2.103546     2.092367     2.081187     2.070008     2.058828     2.047649     2.036469     2.025290
      2.014111     2.002931     1.991752     1.980572     1.969393     1.958213     1.947034     1.935854     1.924675     1.913496
      1.902316     1.891137     1.879957     1.868778     1.857598     1.846419     1.835239     1.824060     1.812881     1.801701
      1.790522     1.779342     1.768163     1.756983     1.745804     1.734624     1.723445     1.712265     1.701086     1.689907
      1.678727     1.667548     1.656368     1.645189     1.634009     1.622830     1.611650     1.600471     1.589292     1.578112
      1.566933     1.555753     1.544574     1.533394     1.522215     1.511035     1.499856     1.488677     1.477497     1.466318
      1.455138     1.443959     1.432779     1.421600     1.410420     1.399241     1.388062     1.376882     1.365703     1.354523
      1.343344     1.332164     1.320985     1.309805     1.298626     1.287446     1.276267     1.265088     1.253908     1.242729
      1.231549     1.220370     1.209190     1.198011     1.186831     1.175652     1.164473     1.153293     1.142114     1.130934
      1.119755     1.108575     1.097396     1.086216     1.075037     1.063858     1.052678     1.041499     1.030319     1.019140
      1.007960     0.996781     0.985601     0.974422     0.963243     0.952063     0.940884     0.929704     0.918525     0.907345
      0.896166     0.884986     0.873807     0.862628     0.851448     0.840269     0.829089     0.817910     0.806730     0.795551
      0.784371     0.773192     0.762012     0.750833     0.739654     0.728474     0.717295     0.706115     0.694936     0.683756
      0.672577     0.661397     0.650218     0.639039     0.627859     0.616680     0.605500     0.594321     0.583141     0.571962
      0.560782     0.549603     0.538424     0.527244     0.516065     0.504885     0.493706     0.482526     0.471347     0.460167
      0.448988     0.437809     0.426629     0.415450     0.404270     0.393091     0.381911     0.370732     0.359552     0.348373
      0.337193     0.326014     0.314835     0.303655     0.292476     0.281296     0.270117     0.258937     0.247758     0.236578
      0.225399     0.214220     0.203040
 NY phased data points follow
   1.00812E-08  1.33500E-08  1.30530E-08  1.41058E-08  1.24848E-08  1.36224E-08  1.14909E-08  1.21679E-08  1.04386E-08  1.14357E-08
   1.03097E-08  1.15473E-08  1.00502E-08  1.13398E-08  1.03517E-08  1.17573E-08  1.06483E-08  1.23571E-08  1.09485E-08  1.17190E-08
   1.04380E-08  1.13377E-08  1.04375E-08  1.13064E-08  9.50197E-09  1.10518E-08  9.81217E-09  1.13036E-08  1.01381E-08  1.08906E-08
   9.23602E-09  1.00279E-08  9.61676E-09  1.11357E-08  1.08599E-08  1.20658E-08  1.14515E-08  1.10318E-08  9.92656E-09  1.04352E-08
   9.31487E-09  1.01907E-08  8.72100E-09  9.80296E-09  8.50318E-09  8.80146E-09  8.50991E-09  8.95685E-09  7.58399E-09  8.50511E-09
   7.27697E-09  7.89196E-09  7.47427E-09  8.27845E-09  7.45543E-09  7.84941E-09  6.58354E-09  7.39524E-09  6.85504E-09  7.39580E-09
   6.59724E-09  8.01585E-09  6.81541E-09  7.96457E-09  7.95675E-09  9.12233E-09  9.06321E-09  9.95937E-09  8.92731E-09  8.99062E-09
   7.43759E-09  7.98158E-09  6.76609E-09  7.28093E-09  6.15770E-09  6.93967E-09  5.25496E-09  6.24699E-09  5.29887E-09  7.02076E-09
   7.88139E-09  1.00907E-08  1.13812E-08  1.22327E-08  1.09463E-08  1.15955E-08  1.04989E-08  1.03589E-08  9.50981E-09  9.55800E-09
   8.67501E-09  9.75119E-09  9.09888E-09  8.85189E-09  7.99359E-09  7.88357E-09  7.73014E-09  7.93034E-09  6.98469E-09  7.64457E-09
   6.71088E-09  6.82815E-09  6.26016E-09  6.69846E-09  5.97648E-09  6.73970E-09  5.66417E-09  6.23781E-09  5.33676E-09  5.43113E-09
   4.55816E-09  4.69936E-09  3.66805E-09  4.01037E-09  3.24391E-09  3.91571E-09  3.57508E-09  3.58585E-09  3.22615E-09  4.15668E-09
   3.20802E-09  3.86492E-09  3.17398E-09  4.03956E-09  3.23342E-09  3.49421E-09  2.00210E-09  2.66525E-09  2.29159E-09  2.77660E-09
   2.92995E-09  3.00944E-09  2.73773E-09  3.18929E-09  3.11510E-09  3.43068E-09  3.22883E-09  3.61281E-09  3.33351E-09  4.13310E-09
   4.12815E-09  5.05144E-09  5.87162E-09  6.37772E-09  6.48493E-09  7.13265E-09  7.00479E-09  8.05835E-09  8.02599E-09  8.10429E-09
   8.13633E-09  8.77808E-09  8.40006E-09  8.03083E-09  8.28918E-09  8.40380E-09  8.05895E-09  8.29816E-09  8.51108E-09  8.86790E-09
   8.60798E-09  8.99839E-09  8.59044E-09  9.23874E-09  8.16208E-09  8.93519E-09  9.09615E-09  9.46174E-09  9.63920E-09  1.03018E-08
   1.05793E-08  1.19655E-08  1.39558E-08  1.57620E-08  1.58053E-08  1.46317E-08  1.30685E-08  1.26200E-08  1.13030E-08  1.03662E-08
   1.01808E-08  9.35881E-09  8.10011E-09  7.85720E-09  6.44694E-09  6.01050E-09  4.82730E-09  3.51284E-09  1.70531E-09  6.12308E-10
  -6.94038E-10 -2.17974E-09 -4.43002E-09 -6.99391E-09 -9.00528E-09 -1.15386E-08 -1.40600E-08 -1.62648E-08 -1.85367E-08 -2.09817E-08
  -2.32446E-08 -2.42211E-08 -2.53470E-08 -2.55717E-08 -2.52696E-08 -2.45841E-08 -2.25470E-08 -2.01649E-08 -1.75336E-08 -1.40897E-08
  -1.05591E-08 -7.68542E-09 -5.07075E-09 -3.28640E-09 -1.88001E-09 -9.99069E-10 -1.53173E-09 -1.03483E-09 -1.89103E-09 -1.31136E-09
  -2.35076E-09 -2.17357E-09 -2.12572E-09 -1.67117E-09 -1.95297E-09 -1.77876E-09 -2.22407E-09 -1.87985E-09 -2.46392E-09 -1.60924E-09
  -2.20500E-09 -1.26836E-09 -1.90588E-09 -2.05156E-09 -2.23348E-09 -2.06122E-09 -2.20483E-09 -1.77476E-09 -2.05657E-09 -1.47351E-09
  -1.48952E-09 -1.22374E-09 -1.34596E-09 -1.77683E-09 -1.64083E-09 -1.66713E-09 -2.32643E-09 -1.94782E-09 -2.11029E-09 -1.06133E-09
  -1.42005E-09 -5.66318E-10 -6.57413E-10 -3.52695E-10 -9.80525E-10 -9.55682E-10 -1.18204E-09 -1.02524E-09 -1.29843E-09 -8.52862E-10
  -1.39829E-09 -1.28440E-09 -9.96949E-10 -1.40535E-09 -1.66000E-09 -1.40645E-09 -1.53199E-09 -6.54683E-10 -1.22348E-09 -3.75243E-10
  -7.51090E-10  7.63735E-11 -6.12734E-10  2.95327E-10 -3.14906E-10  5.62724E-10 -1.80880E-10  6.43113E-10  1.31589E-10 -1.93780E-10
  -7.44130E-10 -2.07794E-10 -3.35568E-10 -3.29731E-10 -6.67813E-10 -4.82013E-10 -1.18941E-09 -2.92432E-11 -9.87430E-10 -6.64106E-10
  -1.31007E-09 -1.27444E-09 -1.17217E-09 -4.75761E-10 -1.31738E-09 -8.45647E-10 -9.98690E-10 -9.06353E-10 -1.35435E-09 -1.14276E-09
  -1.35547E-09 -6.13131E-10 -1.39154E-09 -4.47960E-10 -1.12516E-09 -3.86214E-10 -1.28054E-09 -6.28207E-10 -1.46381E-09 -9.86957E-11
  -5.71899E-10 -2.61543E-10 -9.23961E-10 -6.29110E-10 -5.51992E-10 -2.12097E-10 -3.41180E-10 -2.29931E-11 -7.98064E-10  7.88838E-11
  -5.60055E-10  2.42873E-10 -4.60229E-10  9.95183E-11 -2.94808E-10  7.48554E-11  2.82788E-11  4.53688E-10 -2.66248E-10  1.72834E-10
  -2.54027E-10  3.72208E-10  3.25630E-10  6.44922E-10  4.94055E-10  1.95937E-10  3.88355E-10  3.50684E-10 -1.97969E-10  5.65114E-10
   4.97410E-10  5.41601E-10  3.76536E-10  9.08121E-10  7.49846E-10  9.48859E-10  6.11583E-10  6.96107E-10  8.18000E-10  1.08632E-09
   8.41476E-10  1.03457E-09  4.96786E-10  1.35568E-09  1.19307E-09  1.41110E-09  1.08063E-09  1.25738E-09  1.07847E-09  1.58829E-09
   1.34602E-09  1.66472E-09  1.18602E-09
 NY points of the fit to the data follow
   1.47276E-08  1.39857E-08  1.34046E-08  1.29184E-08  1.23513E-08  1.16871E-08  1.10104E-08  1.05080E-08  1.03151E-08  1.04027E-08
   1.06270E-08  1.08908E-08  1.11910E-08  1.15123E-08  1.17748E-08  1.19190E-08  1.19604E-08  1.18800E-08  1.16257E-08  1.13344E-08
   1.11812E-08  1.11099E-08  1.09489E-08  1.07402E-08  1.05216E-08  1.04044E-08  1.04318E-08  1.04615E-08  1.04726E-08  1.05931E-08
   1.06605E-08  1.05846E-08  1.06811E-08  1.08920E-08  1.09785E-08  1.11008E-08  1.12237E-08  1.12827E-08  1.12078E-08  1.09442E-08
   1.05491E-08  1.01178E-08  9.48623E-09  8.86288E-09  8.62922E-09  8.47673E-09  8.22386E-09  8.12491E-09  8.20380E-09  8.34870E-09
   8.49805E-09  8.54899E-09  8.46950E-09  8.24139E-09  7.94938E-09  7.72851E-09  7.63691E-09  7.62924E-09  7.54347E-09  7.40037E-09
   7.35868E-09  7.47173E-09  7.80848E-09  8.18698E-09  8.64142E-09  9.18338E-09  9.58810E-09  9.85586E-09  1.00464E-08  1.00841E-08
   9.92584E-09  9.52174E-09  8.93575E-09  8.33497E-09  7.78337E-09  7.16331E-09  6.87505E-09  7.37452E-09  8.02533E-09  8.68541E-09
   9.41364E-09  1.00394E-08  1.05562E-08  1.10150E-08  1.11446E-08  1.07998E-08  1.00831E-08  9.10063E-09  8.22001E-09  8.00542E-09
   7.93926E-09  7.88424E-09  7.78119E-09  7.48601E-09  7.15875E-09  6.94644E-09  6.61347E-09  6.25476E-09  6.05949E-09  5.92614E-09
   5.89340E-09  5.91294E-09  5.95158E-09  6.07436E-09  6.22414E-09  6.34566E-09  6.40162E-09  6.36945E-09  6.23800E-09  6.01102E-09
   5.72108E-09  5.43888E-09  5.21360E-09  4.91733E-09  4.63563E-09  4.49082E-09  4.39004E-09  4.30686E-09  4.23231E-09  4.16247E-09
   4.09525E-09  4.02951E-09  3.96449E-09  3.89976E-09  3.83500E-09  3.77002E-09  3.70467E-09  3.63886E-09  3.57254E-09  3.50565E-09
   3.43818E-09  3.37010E-09  3.30141E-09  3.23213E-09  3.16225E-09  3.09180E-09  3.02079E-09  2.94924E-09  2.87719E-09  2.80468E-09
   2.73174E-09  2.65841E-09  2.58473E-09  2.51076E-09  2.43653E-09  2.36213E-09  2.28763E-09  2.21311E-09  2.13864E-09  2.06436E-09
   1.99039E-09  1.91685E-09  1.84397E-09  1.77199E-09  1.70118E-09  1.63196E-09  1.56486E-09  1.50061E-09  1.44026E-09  1.38538E-09
   1.33834E-09  1.30313E-09  1.28667E-09  1.30253E-09  1.38122E-09  1.60996E-09  2.36390E-09  4.76840E-09  7.69305E-09  1.03918E-08
   1.26587E-08  1.45062E-08  1.58483E-08  1.63934E-08  1.57328E-08  1.35642E-08  9.93564E-09  5.54188E-09  1.94580E-09  8.40007E-10
   3.71229E-10  9.46793E-11 -9.94681E-11 -2.50697E-10 -3.76679E-10 -4.86470E-10 -5.85186E-10 -6.75925E-10 -7.60660E-10 -8.40698E-10
  -9.16954E-10 -9.90053E-10 -1.06047E-09 -1.12852E-09 -1.19449E-09 -1.25856E-09 -1.32087E-09 -1.38155E-09 -1.44068E-09 -1.49833E-09
  -1.55455E-09 -1.60941E-09 -1.66292E-09 -1.71510E-09 -1.76599E-09 -1.81560E-09 -1.86394E-09 -1.91100E-09 -1.95681E-09 -2.00137E-09
  -2.04467E-09 -2.08671E-09 -2.12750E-09 -2.16701E-09 -2.20527E-09 -2.24226E-09 -2.27796E-09 -2.31238E-09 -2.34551E-09 -2.37734E-09
  -2.40785E-09 -2.43705E-09 -2.46492E-09 -2.49146E-09 -2.51666E-09 -2.54049E-09 -2.56297E-09 -2.58407E-09 -2.60378E-09 -2.62210E-09
  -2.63901E-09 -2.65450E-09 -2.66856E-09 -2.68119E-09 -2.69236E-09 -2.70207E-09 -2.71031E-09 -2.71707E-09 -2.72233E-09 -2.72608E-09
  -2.72831E-09 -2.72902E-09 -2.72818E-09 -2.72582E-09 -2.72196E-09 -2.71664E-09 -2.70988E-09 -2.70171E-09 -2.69217E-09 -2.68128E-09
  -2.66907E-09 -2.65557E-09 -2.64081E-09 -2.62483E-09 -2.60764E-09 -2.58929E-09 -2.56979E-09 -2.54918E-09 -2.52749E-09 -2.50475E-09
  -2.48098E-09 -2.45622E-09 -2.43050E-09 -2.40384E-09 -2.37628E-09 -2.34784E-09 -2.31855E-09 -2.28845E-09 -2.25756E-09 -2.22591E-09
  -2.19353E-09 -2.16045E-09 -2.12670E-09 -2.09231E-09 -2.05731E-09 -2.02172E-09 -1.98558E-09 -1.94892E-09 -1.91176E-09 -1.87414E-09
  -1.83609E-09 -1.79762E-09 -1.75878E-09 -1.71959E-09 -1.68008E-09 -1.64028E-09 -1.60022E-09 -1.55993E-09 -1.51944E-09 -1.47878E-09
  -1.43797E-09 -1.39705E-09 -1.35605E-09 -1.31499E-09 -1.27390E-09 -1.23282E-09 -1.19177E-09 -1.15078E-09 -1.10989E-09 -1.06911E-09
  -1.02848E-09 -9.88031E-10 -9.47795E-10 -9.07778E-10 -8.67984E-10 -8.28401E-10 -7.89024E-10 -7.49851E-10 -7.10869E-10 -6.72080E-10
  -6.33475E-10 -5.95044E-10 -5.56784E-10 -5.18693E-10 -4.80757E-10 -4.42974E-10 -4.05335E-10 -3.67840E-10 -3.30475E-10 -2.93244E-10
  -2.56130E-10 -2.19132E-10 -1.82246E-10 -1.45465E-10 -1.08782E-10 -7.21866E-11 -3.56734E-11  7.57394E-13  3.71096E-11  7.34051E-11
   1.09632E-10  1.45797E-10  1.81928E-10  2.18012E-10  2.54048E-10  2.90067E-10  3.26064E-10  3.62032E-10  3.97992E-10  4.33951E-10
   4.69899E-10  5.05868E-10  5.41838E-10  5.77832E-10  6.13843E-10  6.49889E-10  6.85976E-10  7.22102E-10  7.58277E-10  7.94513E-10
   8.30804E-10  8.67165E-10  9.03597E-10  9.40107E-10  9.76714E-10  1.01341E-09  1.05019E-09  1.08708E-09  1.12409E-09  1.16120E-09
   1.19844E-09  1.23581E-09  1.27332E-09
 NY background values follow
     5.586E-09    5.575E-09    5.565E-09    5.554E-09    5.543E-09    5.532E-09    5.521E-09    5.510E-09    5.499E-09    5.488E-09
     5.477E-09    5.466E-09    5.455E-09    5.444E-09    5.432E-09    5.421E-09    5.410E-09    5.398E-09    5.387E-09    5.376E-09
     5.364E-09    5.353E-09    5.341E-09    5.330E-09    5.318E-09    5.306E-09    5.295E-09    5.283E-09    5.272E-09    5.260E-09
     5.248E-09    5.236E-09    5.225E-09    5.213E-09    5.201E-09    5.189E-09    5.178E-09    5.166E-09    5.154E-09    5.142E-09
     5.130E-09    5.118E-09    5.106E-09    5.094E-09    5.083E-09    5.071E-09    5.059E-09    5.047E-09    5.035E-09    5.023E-09
     5.011E-09    4.999E-09    4.987E-09    4.975E-09    4.963E-09    4.951E-09    4.939E-09    4.928E-09    4.916E-09    4.904E-09
     4.892E-09    4.880E-09    4.868E-09    4.856E-09    4.844E-09    4.832E-09    4.820E-09    4.808E-09    4.795E-09    4.783E-09
     4.770E-09    4.757E-09    4.744E-09    4.730E-09    4.717E-09    4.703E-09    4.688E-09    4.674E-09    4.659E-09    4.643E-09
     4.627E-09    4.611E-09    4.594E-09    4.577E-09    4.559E-09    4.541E-09    4.522E-09    4.503E-09    4.483E-09    4.462E-09
     4.441E-09    4.419E-09    4.396E-09    4.373E-09    4.349E-09    4.324E-09    4.299E-09    4.272E-09    4.245E-09    4.217E-09
     4.188E-09    4.158E-09    4.128E-09    4.096E-09    4.064E-09    4.030E-09    3.995E-09    3.960E-09    3.923E-09    3.886E-09
     3.847E-09    3.807E-09    3.766E-09    3.724E-09    3.680E-09    3.636E-09    3.590E-09    3.543E-09    3.494E-09    3.445E-09
     3.394E-09    3.341E-09    3.288E-09    3.233E-09    3.177E-09    3.119E-09    3.061E-09    3.001E-09    2.940E-09    2.878E-09
     2.815E-09    2.750E-09    2.685E-09    2.619E-09    2.552E-09    2.484E-09    2.416E-09    2.346E-09    2.276E-09    2.205E-09
     2.133E-09    2.061E-09    1.987E-09    1.914E-09    1.840E-09    1.765E-09    1.690E-09    1.614E-09    1.538E-09    1.462E-09
     1.385E-09    1.308E-09    1.230E-09    1.153E-09    1.075E-09    9.969E-10    9.188E-10    8.406E-10    7.623E-10    6.841E-10
     6.058E-10    5.276E-10    4.494E-10    3.714E-10    2.936E-10    2.159E-10    1.385E-10    6.129E-11   -1.559E-11   -9.213E-11
    -1.683E-10   -2.441E-10   -3.194E-10   -3.942E-10   -4.686E-10   -5.424E-10   -6.156E-10   -6.881E-10   -7.600E-10   -8.313E-10
    -9.018E-10   -9.715E-10   -1.040E-09   -1.109E-09   -1.176E-09   -1.242E-09   -1.308E-09   -1.373E-09   -1.437E-09   -1.500E-09
    -1.562E-09   -1.623E-09   -1.683E-09   -1.743E-09   -1.801E-09   -1.858E-09   -1.915E-09   -1.970E-09   -2.025E-09   -2.078E-09
    -2.131E-09   -2.182E-09   -2.233E-09   -2.282E-09   -2.330E-09   -2.377E-09   -2.424E-09   -2.469E-09   -2.512E-09   -2.555E-09
    -2.597E-09   -2.637E-09   -2.677E-09   -2.715E-09   -2.752E-09   -2.787E-09   -2.822E-09   -2.855E-09   -2.887E-09   -2.918E-09
    -2.948E-09   -2.976E-09   -3.003E-09   -3.028E-09   -3.053E-09   -3.076E-09   -3.098E-09   -3.118E-09   -3.137E-09   -3.155E-09
    -3.171E-09   -3.186E-09   -3.199E-09   -3.211E-09   -3.222E-09   -3.231E-09   -3.239E-09   -3.245E-09   -3.249E-09   -3.253E-09
    -3.254E-09   -3.255E-09   -3.253E-09   -3.251E-09   -3.246E-09   -3.240E-09   -3.233E-09   -3.225E-09   -3.215E-09   -3.203E-09
    -3.191E-09   -3.177E-09   -3.162E-09   -3.145E-09   -3.128E-09   -3.109E-09   -3.089E-09   -3.068E-09   -3.046E-09   -3.023E-09
    -2.999E-09   -2.974E-09   -2.948E-09   -2.921E-09   -2.893E-09   -2.864E-09   -2.835E-09   -2.804E-09   -2.773E-09   -2.741E-09
    -2.708E-09   -2.675E-09   -2.641E-09   -2.606E-09   -2.571E-09   -2.535E-09   -2.499E-09   -2.462E-09   -2.424E-09   -2.386E-09
    -2.348E-09   -2.309E-09   -2.270E-09   -2.231E-09   -2.191E-09   -2.151E-09   -2.111E-09   -2.070E-09   -2.029E-09   -1.988E-09
    -1.947E-09   -1.906E-09   -1.865E-09   -1.823E-09   -1.782E-09   -1.741E-09   -1.699E-09   -1.658E-09   -1.617E-09   -1.576E-09
    -1.535E-09   -1.494E-09   -1.454E-09   -1.414E-09   -1.374E-09   -1.334E-09   -1.294E-09   -1.255E-09   -1.216E-09   -1.177E-09
    -1.138E-09   -1.099E-09   -1.061E-09   -1.022E-09   -9.840E-10   -9.460E-10   -9.081E-10   -8.703E-10   -8.327E-10   -7.953E-10
    -7.579E-10   -7.207E-10   -6.835E-10   -6.465E-10   -6.096E-10   -5.727E-10   -5.360E-10   -4.993E-10   -4.627E-10   -4.262E-10
    -3.897E-10   -3.533E-10   -3.169E-10   -2.806E-10   -2.443E-10   -2.080E-10   -1.718E-10   -1.355E-10   -9.932E-11   -6.311E-11
    -2.691E-11    9.309E-12    4.553E-11    8.178E-11    1.180E-10    1.543E-10    1.907E-10    2.271E-10    2.635E-10    3.000E-10
     3.366E-10    3.732E-10    4.099E-10    4.466E-10    4.835E-10    5.205E-10    5.575E-10    5.947E-10    6.319E-10    6.693E-10
     7.068E-10    7.445E-10    7.823E-10
 Ala      Conc. = 3.32E-10
   5.81957E-09  5.83604E-09  5.84367E-09  5.84461E-09  5.83820E-09  5.82419E-09  5.79893E-09  5.75954E-09  5.72439E-09  5.69195E-09
   5.64152E-09  5.59760E-09  5.56893E-09  5.53639E-09  5.50629E-09  5.48345E-09  5.46437E-09  5.44744E-09  5.43187E-09  5.41721E-09
   5.40318E-09  5.38961E-09  5.37638E-09  5.36340E-09  5.35062E-09  5.33801E-09  5.32549E-09  5.31308E-09  5.30075E-09  5.28847E-09
   5.27625E-09  5.26406E-09  5.25190E-09  5.23978E-09  5.22767E-09  5.21557E-09  5.20350E-09  5.19143E-09  5.17938E-09  5.16734E-09
   5.15530E-09  5.14327E-09  5.13124E-09  5.11923E-09  5.10722E-09  5.09522E-09  5.08322E-09  5.07122E-09  5.05925E-09  5.04727E-09
   5.03531E-09  5.02334E-09  5.01140E-09  4.99947E-09  4.98754E-09  4.97562E-09  4.96371E-09  4.95183E-09  4.93996E-09  4.92812E-09
   4.91629E-09  4.90447E-09  4.89267E-09  4.88085E-09  4.86899E-09  4.85707E-09  4.84507E-09  4.83297E-09  4.82075E-09  4.80838E-09
   4.79585E-09  4.78313E-09  4.77021E-09  4.75707E-09  4.74368E-09  4.73003E-09  4.71610E-09  4.70189E-09  4.68735E-09  4.67250E-09
   4.65731E-09  4.64177E-09  4.62588E-09  4.60964E-09  4.59305E-09  4.57610E-09  4.55884E-09  4.54127E-09  4.52345E-09  4.50544E-09
   4.48734E-09  4.46931E-09  4.45158E-09  4.43448E-09  4.41860E-09  4.40486E-09  4.39500E-09  4.39250E-09  4.40585E-09  4.46274E-09
   4.61408E-09  4.76233E-09  4.89428E-09  5.08814E-09  5.29407E-09  5.46126E-09  5.55500E-09  5.55448E-09  5.44985E-09  5.24587E-09
   4.97597E-09  4.71151E-09  4.50197E-09  4.21969E-09  3.95041E-09  3.81666E-09  3.72583E-09  3.65169E-09  3.58537E-09  3.52306E-09
   3.46270E-09  3.40324E-09  3.34397E-09  3.28453E-09  3.22464E-09  3.16415E-09  3.10295E-09  3.04097E-09  2.97818E-09  2.91455E-09
   2.85006E-09  2.78473E-09  2.71856E-09  2.65156E-09  2.58375E-09  2.51515E-09  2.44578E-09  2.37567E-09  2.30486E-09  2.23336E-09
   2.16121E-09  2.08844E-09  2.01508E-09  1.94118E-09  1.86674E-09  1.79181E-09  1.71643E-09  1.64064E-09  1.56446E-09  1.48794E-09
   1.41113E-09  1.33404E-09  1.25673E-09  1.17925E-09  1.10163E-09  1.02393E-09  9.46215E-10  8.68544E-10  7.90991E-10  7.13685E-10
   6.36740E-10  5.60402E-10  4.85014E-10  4.11263E-10  3.40635E-10  2.77418E-10  2.40512E-10  2.79310E-10  3.40805E-10  3.91655E-10
   4.22999E-10  4.35431E-10  4.24701E-10  3.77067E-10  2.73722E-10  1.01143E-10 -1.37588E-10 -4.09043E-10 -6.39828E-10 -7.56655E-10
  -8.45178E-10 -9.24432E-10 -9.99199E-10 -1.07122E-09 -1.14131E-09 -1.20984E-09 -1.27705E-09 -1.34307E-09 -1.40797E-09 -1.47181E-09
  -1.53462E-09 -1.59640E-09 -1.65719E-09 -1.71697E-09 -1.77575E-09 -1.83353E-09 -1.89030E-09 -1.94605E-09 -2.00079E-09 -2.05449E-09
  -2.10715E-09 -2.15877E-09 -2.20933E-09 -2.25882E-09 -2.30723E-09 -2.35455E-09 -2.40078E-09 -2.44588E-09 -2.48987E-09 -2.53272E-09
  -2.57443E-09 -2.61497E-09 -2.65435E-09 -2.69254E-09 -2.72955E-09 -2.76534E-09 -2.79992E-09 -2.83327E-09 -2.86539E-09 -2.89625E-09
  -2.92584E-09 -2.95415E-09 -2.98117E-09 -3.00690E-09 -3.03132E-09 -3.05440E-09 -3.07616E-09 -3.09657E-09 -3.11561E-09 -3.13328E-09
  -3.14956E-09 -3.16444E-09 -3.17792E-09 -3.18997E-09 -3.20059E-09 -3.20976E-09 -3.21748E-09 -3.22373E-09 -3.22850E-09 -3.23176E-09
  -3.23353E-09 -3.23377E-09 -3.23249E-09 -3.22969E-09 -3.22540E-09 -3.21966E-09 -3.21249E-09 -3.20392E-09 -3.19398E-09 -3.18270E-09
  -3.17011E-09 -3.15624E-09 -3.14112E-09 -3.12477E-09 -3.10723E-09 -3.08853E-09 -3.06869E-09 -3.04774E-09 -3.02572E-09 -3.00265E-09
  -2.97856E-09 -2.95348E-09 -2.92744E-09 -2.90047E-09 -2.87260E-09 -2.84386E-09 -2.81427E-09 -2.78387E-09 -2.75269E-09 -2.72075E-09
  -2.68808E-09 -2.65472E-09 -2.62069E-09 -2.58602E-09 -2.55074E-09 -2.51488E-09 -2.47847E-09 -2.44154E-09 -2.40411E-09 -2.36622E-09
  -2.32790E-09 -2.28917E-09 -2.25007E-09 -2.21063E-09 -2.17086E-09 -2.13081E-09 -2.09050E-09 -2.04995E-09 -2.00921E-09 -1.96830E-09
  -1.92724E-09 -1.88608E-09 -1.84483E-09 -1.80352E-09 -1.76219E-09 -1.72087E-09 -1.67957E-09 -1.63835E-09 -1.59721E-09 -1.55620E-09
  -1.51533E-09 -1.47464E-09 -1.43416E-09 -1.39391E-09 -1.35388E-09 -1.31406E-09 -1.27445E-09 -1.23504E-09 -1.19582E-09 -1.15680E-09
  -1.11796E-09 -1.07929E-09 -1.04080E-09 -1.00247E-09 -9.64305E-10 -9.26289E-10 -8.88416E-10 -8.50688E-10 -8.13090E-10 -7.75625E-10
  -7.38278E-10 -7.01046E-10 -6.63927E-10 -6.26913E-10 -5.89996E-10 -5.53167E-10 -5.16419E-10 -4.79754E-10 -4.43167E-10 -4.06637E-10
  -3.70175E-10 -3.33773E-10 -2.97406E-10 -2.61086E-10 -2.24813E-10 -1.88557E-10 -1.52322E-10 -1.16115E-10 -7.99167E-11 -4.37174E-11
  -7.52978E-12  2.86802E-11  6.48918E-11  1.01127E-10  1.37381E-10  1.73671E-10  2.10002E-10  2.46373E-10  2.82794E-10  3.19276E-10
   3.55815E-10  3.92424E-10  4.29105E-10  4.65865E-10  5.02723E-10  5.39667E-10  5.76704E-10  6.13852E-10  6.51110E-10  6.88476E-10
   7.25979E-10  7.63603E-10  8.01372E-10
 Asp      Conc. = 1.03E-09
   6.78745E-09  6.62912E-09  6.47844E-09  6.30928E-09  6.14733E-09  5.97081E-09  5.82339E-09  5.71580E-09  5.65764E-09  5.61926E-09
   5.59100E-09  5.56887E-09  5.55079E-09  5.53522E-09  5.52062E-09  5.50677E-09  5.49367E-09  5.48122E-09  5.46934E-09  5.45795E-09
   5.44702E-09  5.43652E-09  5.42647E-09  5.41688E-09  5.40780E-09  5.39929E-09  5.39143E-09  5.38436E-09  5.37827E-09  5.37338E-09
   5.37007E-09  5.36885E-09  5.37055E-09  5.37657E-09  5.38949E-09  5.41511E-09  5.46758E-09  5.52917E-09  5.60559E-09  5.66902E-09
   5.71168E-09  5.73990E-09  5.77787E-09  5.85242E-09  5.96910E-09  6.14367E-09  6.29175E-09  6.40408E-09  6.57094E-09  6.74999E-09
   6.89744E-09  6.93738E-09  6.83471E-09  6.59230E-09  6.28391E-09  6.02391E-09  5.85648E-09  5.77971E-09  5.64759E-09  5.48361E-09
   5.39552E-09  5.33894E-09  5.29380E-09  5.27211E-09  5.23937E-09  5.17092E-09  5.08626E-09  5.03026E-09  4.98859E-09  4.95476E-09
   4.92575E-09  4.89991E-09  4.87627E-09  4.85417E-09  4.83318E-09  4.81297E-09  4.79329E-09  4.77397E-09  4.75486E-09  4.73584E-09
   4.71681E-09  4.69768E-09  4.67838E-09  4.65886E-09  4.63906E-09  4.61890E-09  4.59838E-09  4.57743E-09  4.55601E-09  4.53410E-09
   4.51164E-09  4.48862E-09  4.46500E-09  4.44074E-09  4.41582E-09  4.39021E-09  4.36388E-09  4.33680E-09  4.30894E-09  4.28030E-09
   4.25081E-09  4.22048E-09  4.18927E-09  4.15715E-09  4.12411E-09  4.09011E-09  4.05513E-09  4.01916E-09  3.98216E-09  3.94411E-09
   3.90500E-09  3.86477E-09  3.82343E-09  3.78094E-09  3.73729E-09  3.69244E-09  3.64638E-09  3.59909E-09  3.55053E-09  3.50071E-09
   3.44955E-09  3.39707E-09  3.34326E-09  3.28815E-09  3.23178E-09  3.17419E-09  3.11539E-09  3.05545E-09  2.99439E-09  2.93224E-09
   2.86905E-09  2.80484E-09  2.73966E-09  2.67354E-09  2.60652E-09  2.53863E-09  2.46991E-09  2.40039E-09  2.33013E-09  2.25914E-09
   2.18748E-09  2.11517E-09  2.04226E-09  1.96880E-09  1.89480E-09  1.82031E-09  1.74538E-09  1.67005E-09  1.59437E-09  1.51838E-09
   1.44214E-09  1.36567E-09  1.28907E-09  1.21240E-09  1.13570E-09  1.05909E-09  9.82667E-10  9.06570E-10  8.30971E-10  7.56145E-10
   6.82436E-10  6.10469E-10  5.41252E-10  4.76763E-10  4.21379E-10  3.87554E-10  4.28586E-10  7.07140E-10  1.06101E-09  1.38286E-09
   1.64306E-09  1.84343E-09  1.97182E-09  1.98647E-09  1.82876E-09  1.45521E-09  8.72426E-10  1.79680E-10 -3.99111E-10 -6.19131E-10
  -7.46777E-10 -8.46146E-10 -9.32999E-10 -1.01299E-09 -1.08867E-09 -1.16130E-09 -1.23162E-09 -1.30007E-09 -1.36691E-09 -1.43231E-09
  -1.49642E-09 -1.55929E-09 -1.62099E-09 -1.68154E-09 -1.74099E-09 -1.79936E-09 -1.85664E-09 -1.91284E-09 -1.96797E-09 -2.02203E-09
  -2.07500E-09 -2.12691E-09 -2.17773E-09 -2.22745E-09 -2.27607E-09 -2.32359E-09 -2.36999E-09 -2.41526E-09 -2.45940E-09 -2.50239E-09
  -2.54423E-09 -2.58489E-09 -2.62438E-09 -2.66267E-09 -2.69978E-09 -2.73567E-09 -2.77033E-09 -2.80376E-09 -2.83596E-09 -2.86689E-09
  -2.89655E-09 -2.92492E-09 -2.95201E-09 -2.97780E-09 -3.00228E-09 -3.02541E-09 -3.04722E-09 -3.06767E-09 -3.08676E-09 -3.10447E-09
