 LCModel (Version 6.3-1R) Copyright: S.W. Provencher.          Ref.: Magn. Reson. Med. 30:672-679 (1993).                
 onepulse 12x21_ftSpec_smooth_lcm
 26 lines in following concentration table = NCONC+1
    Conc.  %SD /Cr+PCr  Metabolite                                         
    0.000 999%   0.000 Ala                                                 
    0.000 999%   0.000 Asp                                                 
    0.000 999%   0.000 Cr                                                  
 6.79E-10 135%  19.104 GABA                                                
 1.19E-09  65%  33.527 Glc                                                 
    0.000 999%   0.000 Gln                                                 
    0.000 999%   0.000 Glu                                                 
    0.000 999%   0.000 Glyc                                                
 8.87E-11 143%   2.496 GPC                                                 
 1.30E-10 353%   3.654 GSH                                                 
 6.54E-10  86%  18.393 Ins                                                 
    0.000 999%   0.000 Lac                                                 
    0.000 999%   0.000 NAAG                                                
 4.67E-10  79%  13.152 NAA                                                 
    0.000 999%   0.000 PCh                                                 
 3.55E-11 999%   1.000 PCr                                                 
    0.000 999%   0.000 PE                                                  
    0.000 999%   0.000 Scyllo                                              
 2.43E-09  40%  68.405 Ser                                                 
    0.000 999%   0.000 Tau                                                 
 8.87E-11 143%   2.496 GPC+PCh                                             
 4.67E-10  79%  13.152 NAA+NAAG                                            
 6.54E-10  86%  18.393 Ins+Glyc                                            
 3.55E-11 999%   1.000 Cr+PCr                                              
    0.000 999%   0.000 Glu+Gln                                             
   6 lines in following misc. output table
  FWHM = 0.101 ppm    S/N =   1                                            
  Data shift = 0.324 ppm                                                   
  Ph:  33 deg      22.5 deg/ppm                                            
  alphaB,S = 4.7E-01,   2.7E+01                                            
    9 spline knots.   Ns = 5(1)                                            
  (10) 2 infls.   ( 7) 1 extrs.                                            
  363 points on ppm-axis = NY
      4.250000     4.238821     4.227641     4.216462     4.205282     4.194103     4.182923     4.171744     4.160564     4.149385
      4.138206     4.127026     4.115847     4.104667     4.093488     4.082308     4.071129     4.059949     4.048770     4.037591
      4.026411     4.015232     4.004052     3.992873     3.981693     3.970514     3.959334     3.948155     3.936975     3.925796
      3.914617     3.903437     3.892258     3.881078     3.869899     3.858719     3.847540     3.836360     3.825181     3.814002
      3.802822     3.791643     3.780463     3.769284     3.758104     3.746925     3.735745     3.724566     3.713387     3.702207
      3.691028     3.679848     3.668669     3.657489     3.646310     3.635130     3.623951     3.612772     3.601592     3.590413
      3.579233     3.568054     3.556874     3.545695     3.534515     3.523336     3.512156     3.500977     3.489798     3.478618
      3.467439     3.456259     3.445080     3.433900     3.422721     3.411541     3.400362     3.389183     3.378003     3.366824
      3.355644     3.344465     3.333285     3.322106     3.310926     3.299747     3.288568     3.277388     3.266209     3.255029
      3.243850     3.232670     3.221491     3.210311     3.199132     3.187953     3.176773     3.165594     3.154414     3.143235
      3.132055     3.120876     3.109696     3.098517     3.087337     3.076158     3.064979     3.053799     3.042620     3.031440
      3.020261     3.009081     2.997902     2.986722     2.975543     2.964364     2.953184     2.942005     2.930825     2.919646
      2.908466     2.897287     2.886107     2.874928     2.863749     2.852569     2.841390     2.830210     2.819031     2.807851
      2.796672     2.785492     2.774313     2.763134     2.751954     2.740775     2.729595     2.718416     2.707236     2.696057
      2.684877     2.673698     2.662519     2.651339     2.640160     2.628980     2.617801     2.606621     2.595442     2.584262
      2.573083     2.561903     2.550724     2.539545     2.528365     2.517186     2.506006     2.494827     2.483647     2.472468
      2.461288     2.450109     2.438930     2.427750     2.416571     2.405391     2.394212     2.383032     2.371853     2.360673
      2.349494     2.338315     2.327135     2.315956     2.304776     2.293597     2.282417     2.271238     2.260058     2.248879
      2.237700     2.226520     2.215341     2.204161     2.192982     2.181802     2.170623     2.159443     2.148264     2.137084
      2.125905     2.114726     2.103546     2.092367     2.081187     2.070008     2.058828     2.047649     2.036469     2.025290
      2.014111     2.002931     1.991752     1.980572     1.969393     1.958213     1.947034     1.935854     1.924675     1.913496
      1.902316     1.891137     1.879957     1.868778     1.857598     1.846419     1.835239     1.824060     1.812881     1.801701
      1.790522     1.779342     1.768163     1.756983     1.745804     1.734624     1.723445     1.712265     1.701086     1.689907
      1.678727     1.667548     1.656368     1.645189     1.634009     1.622830     1.611650     1.600471     1.589292     1.578112
      1.566933     1.555753     1.544574     1.533394     1.522215     1.511035     1.499856     1.488677     1.477497     1.466318
      1.455138     1.443959     1.432779     1.421600     1.410420     1.399241     1.388062     1.376882     1.365703     1.354523
      1.343344     1.332164     1.320985     1.309805     1.298626     1.287446     1.276267     1.265088     1.253908     1.242729
      1.231549     1.220370     1.209190     1.198011     1.186831     1.175652     1.164473     1.153293     1.142114     1.130934
      1.119755     1.108575     1.097396     1.086216     1.075037     1.063858     1.052678     1.041499     1.030319     1.019140
      1.007960     0.996781     0.985601     0.974422     0.963243     0.952063     0.940884     0.929704     0.918525     0.907345
      0.896166     0.884986     0.873807     0.862628     0.851448     0.840269     0.829089     0.817910     0.806730     0.795551
      0.784371     0.773192     0.762012     0.750833     0.739654     0.728474     0.717295     0.706115     0.694936     0.683756
      0.672577     0.661397     0.650218     0.639039     0.627859     0.616680     0.605500     0.594321     0.583141     0.571962
      0.560782     0.549603     0.538424     0.527244     0.516065     0.504885     0.493706     0.482526     0.471347     0.460167
      0.448988     0.437809     0.426629     0.415450     0.404270     0.393091     0.381911     0.370732     0.359552     0.348373
      0.337193     0.326014     0.314835     0.303655     0.292476     0.281296     0.270117     0.258937     0.247758     0.236578
      0.225399     0.214220     0.203040
 NY phased data points follow
  -4.35976E-10  3.00293E-10 -2.94025E-10 -3.41242E-10 -2.08453E-09 -1.99480E-09 -3.19849E-09 -3.31623E-09 -4.21356E-09 -3.59100E-09
  -4.10249E-09 -3.71153E-09 -4.15765E-09 -3.36727E-09 -4.52127E-09 -3.50175E-09 -4.28800E-09 -3.64142E-09 -4.17672E-09 -3.84399E-09
  -4.58522E-09 -3.89938E-09 -4.83502E-09 -4.23848E-09 -5.66240E-09 -4.57501E-09 -5.14309E-09 -3.94624E-09 -5.08726E-09 -4.53012E-09
  -4.94394E-09 -5.13276E-09 -5.08122E-09 -4.42851E-09 -4.42376E-09 -4.87154E-09 -5.52982E-09 -5.97342E-09 -7.33797E-09 -6.64727E-09
  -7.29071E-09 -7.11900E-09 -7.17910E-09 -6.49610E-09 -7.31046E-09 -6.95071E-09 -7.02815E-09 -7.06574E-09 -6.50868E-09 -6.64481E-09
  -6.40222E-09 -6.22925E-09 -5.69503E-09 -5.34499E-09 -5.86814E-09 -5.33564E-09 -5.44555E-09 -4.65982E-09 -5.09154E-09 -4.73868E-09
  -4.80354E-09 -3.72261E-09 -3.70627E-09 -3.16060E-09 -3.59125E-09 -2.13747E-09 -3.28965E-09 -3.50453E-09 -4.07873E-09 -4.56810E-09
  -5.12317E-09 -5.55498E-09 -5.62092E-09 -5.51468E-09 -5.50665E-09 -4.78070E-09 -4.81690E-09 -4.15929E-09 -3.24469E-09 -3.10157E-09
  -2.36882E-09 -2.06672E-09 -2.23296E-09 -2.36556E-09 -3.94904E-09 -4.86258E-09 -5.99827E-09 -6.08584E-09 -7.16515E-09 -7.64289E-09
  -8.62676E-09 -8.33823E-09 -8.50939E-09 -8.87467E-09 -8.96339E-09 -9.15051E-09 -9.50231E-09 -8.89655E-09 -9.04380E-09 -9.36774E-09
  -9.33560E-09 -9.00415E-09 -9.05023E-09 -8.53074E-09 -9.18336E-09 -8.70916E-09 -8.78634E-09 -8.52111E-09 -9.04856E-09 -8.49376E-09
  -8.51942E-09 -8.39350E-09 -8.40451E-09 -7.80633E-09 -7.52018E-09 -7.43275E-09 -7.42596E-09 -6.13771E-09 -6.82367E-09 -6.39167E-09
  -6.92371E-09 -6.02824E-09 -6.18694E-09 -6.15112E-09 -6.58232E-09 -6.03762E-09 -6.34575E-09 -6.11392E-09 -5.88679E-09 -5.33417E-09
  -5.08126E-09 -5.25854E-09 -4.69000E-09 -4.72068E-09 -4.60419E-09 -3.67804E-09 -4.14700E-09 -3.76008E-09 -3.63970E-09 -3.96799E-09
  -3.72621E-09 -3.28374E-09 -2.83937E-09 -3.34970E-09 -3.73516E-09 -3.15582E-09 -3.70666E-09 -3.76040E-09 -4.02875E-09 -4.26971E-09
  -4.76465E-09 -4.84183E-09 -4.93084E-09 -5.78869E-09 -6.15613E-09 -5.70976E-09 -6.28849E-09 -6.33588E-09 -6.35494E-09 -6.54349E-09
  -6.10054E-09 -6.48811E-09 -6.35281E-09 -6.40572E-09 -6.84682E-09 -6.68287E-09 -6.71254E-09 -6.84465E-09 -6.49520E-09 -6.20087E-09
  -6.26822E-09 -6.48405E-09 -7.47834E-09 -8.02586E-09 -9.54850E-09 -1.13180E-08 -1.36325E-08 -1.52226E-08 -1.69325E-08 -1.74068E-08
  -1.87878E-08 -1.96266E-08 -1.97860E-08 -2.06938E-08 -2.16193E-08 -2.24117E-08 -2.21863E-08 -2.29917E-08 -2.33075E-08 -2.30524E-08
  -2.34719E-08 -2.34816E-08 -2.29336E-08 -2.31606E-08 -2.19808E-08 -2.16622E-08 -2.06470E-08 -1.97164E-08 -1.77112E-08 -1.61101E-08
  -1.39424E-08 -1.10092E-08 -8.70583E-09 -5.91947E-09 -2.73707E-09 -4.72502E-10  2.81232E-09  5.54375E-09  7.13613E-09  9.34885E-09
   1.05784E-08  1.11963E-08  1.15167E-08  1.05092E-08  1.03638E-08  9.26733E-09  8.07973E-09  6.54176E-09  5.00672E-09  4.85433E-09
   3.94190E-09  2.98675E-09  2.38063E-09  2.72106E-09  2.74528E-09  1.98906E-09  2.13833E-09  1.85888E-09  2.04329E-09  1.60639E-09
   1.62568E-09  1.37876E-09  1.74006E-09  1.15324E-09  2.21840E-09  1.74347E-09  2.54883E-09  1.71953E-09  1.89988E-09  1.17295E-09
   1.48442E-09  1.47938E-09  1.64123E-09  1.26128E-09  1.63146E-09  1.49423E-09  1.72323E-09  1.37235E-09  2.29319E-09  1.50358E-09
   2.13629E-09  1.61118E-09  1.79401E-09  1.41507E-09  1.75015E-09  1.32274E-09  1.59167E-09  8.10766E-10  1.21602E-09  9.35356E-10
   1.28307E-09  1.09939E-09  1.17277E-09  9.85642E-10  1.76944E-09  1.21732E-09  2.38853E-09  2.05962E-09  2.50668E-09  2.33505E-09
   2.54938E-09  1.94469E-09  2.21728E-09  1.94695E-09  2.22013E-09  2.03242E-09  2.24998E-09  1.67687E-09  2.05804E-09  1.21526E-09
   1.75202E-09  7.97710E-10  1.52325E-09  8.04862E-10  1.15382E-09  4.45534E-10  1.38964E-09  6.83337E-10  1.63452E-09  6.62925E-10
   1.29804E-09  1.20709E-09  1.46138E-09  9.97027E-10  2.27588E-09  8.75133E-10  1.85241E-09  1.50248E-09  1.67101E-09  1.53650E-09
   2.17403E-09  1.41726E-09  2.34689E-09  1.55248E-09  1.87056E-09  2.32015E-09  2.52609E-09  2.70419E-09  2.69586E-09  2.10887E-09
   2.83476E-09  2.57228E-09  3.45396E-09  2.52903E-09  2.80180E-09  2.41551E-09  3.23719E-09  2.58170E-09  3.80619E-09  2.71153E-09
   3.59297E-09  2.58331E-09  3.45033E-09  2.68324E-09  3.36530E-09  3.14854E-09  3.83989E-09  2.98182E-09  3.75277E-09  3.23317E-09
   3.57293E-09  3.55723E-09  3.46373E-09  3.48398E-09  3.88587E-09  3.06816E-09  4.01725E-09  3.92597E-09  3.85884E-09  3.33166E-09
   3.93961E-09  3.26737E-09  3.88475E-09  3.92770E-09  3.61300E-09  3.43742E-09  4.38468E-09  3.35787E-09  3.86704E-09  3.30984E-09
   3.99319E-09  3.69331E-09  4.40020E-09  3.64017E-09  3.95812E-09  3.63680E-09  3.97410E-09  3.11828E-09  4.23814E-09  3.65668E-09
   4.08286E-09  3.84801E-09  4.03373E-09
 NY points of the fit to the data follow
  -9.10970E-10 -1.55310E-09 -1.84737E-09 -2.33042E-09 -2.81728E-09 -3.11979E-09 -3.01013E-09 -2.59024E-09 -2.11411E-09 -1.64824E-09
  -1.38320E-09 -1.30591E-09 -1.31231E-09 -1.47272E-09 -1.83705E-09 -2.32952E-09 -2.90318E-09 -3.58137E-09 -4.08265E-09 -4.25702E-09
  -4.36605E-09 -4.52028E-09 -4.59663E-09 -4.49481E-09 -4.32840E-09 -4.10819E-09 -3.94871E-09 -3.91577E-09 -3.99632E-09 -4.20864E-09
  -4.53109E-09 -4.81726E-09 -5.08045E-09 -5.30231E-09 -5.33716E-09 -5.20788E-09 -5.20060E-09 -5.29589E-09 -5.44673E-09 -5.62082E-09
  -5.77794E-09 -5.91606E-09 -5.99776E-09 -5.93726E-09 -5.83753E-09 -5.78401E-09 -5.69162E-09 -5.53644E-09 -5.36519E-09 -5.23028E-09
  -5.11982E-09 -5.05181E-09 -5.01189E-09 -4.98130E-09 -4.95537E-09 -4.92415E-09 -4.90010E-09 -4.91728E-09 -4.96214E-09 -4.99965E-09
  -4.98359E-09 -4.89666E-09 -4.83157E-09 -4.80359E-09 -4.74403E-09 -4.79996E-09 -4.95916E-09 -5.09817E-09 -5.24233E-09 -5.40411E-09
  -5.59971E-09 -5.78675E-09 -5.89371E-09 -5.90060E-09 -5.86730E-09 -5.67812E-09 -5.23399E-09 -4.77758E-09 -4.64290E-09 -4.72074E-09
  -4.95780E-09 -5.26428E-09 -5.58266E-09 -6.00010E-09 -6.57370E-09 -7.23198E-09 -7.88094E-09 -8.34940E-09 -8.42478E-09 -8.20067E-09
  -8.09267E-09 -8.05971E-09 -8.10245E-09 -8.15976E-09 -8.16820E-09 -8.20314E-09 -8.25450E-09 -8.24480E-09 -8.22434E-09 -8.21615E-09
  -8.19349E-09 -8.16533E-09 -8.13930E-09 -8.11673E-09 -8.09767E-09 -8.08174E-09 -8.06846E-09 -8.05748E-09 -8.04851E-09 -8.04124E-09
  -8.03551E-09 -8.03095E-09 -8.02737E-09 -8.02454E-09 -8.02234E-09 -8.02061E-09 -8.01928E-09 -8.01822E-09 -8.01728E-09 -8.01642E-09
  -8.01541E-09 -8.01426E-09 -8.01287E-09 -8.01113E-09 -8.00893E-09 -8.00619E-09 -8.00278E-09 -7.99861E-09 -7.99359E-09 -7.98761E-09
  -7.98055E-09 -7.97233E-09 -7.96279E-09 -7.95186E-09 -7.93937E-09 -7.92521E-09 -7.90923E-09 -7.89128E-09 -7.87120E-09 -7.84879E-09
  -7.82387E-09 -7.79622E-09 -7.76558E-09 -7.73174E-09 -7.69432E-09 -7.65300E-09 -7.60741E-09 -7.55710E-09 -7.50151E-09 -7.44008E-09
  -7.37207E-09 -7.29657E-09 -7.21256E-09 -7.11879E-09 -7.01358E-09 -6.89494E-09 -6.76029E-09 -6.60618E-09 -6.42798E-09 -6.21935E-09
  -5.97103E-09 -5.66924E-09 -5.29188E-09 -4.80080E-09 -4.12170E-09 -3.08183E-09 -1.19302E-09  7.42956E-10  1.62429E-09  1.54646E-09
   9.22661E-10  1.58327E-11 -1.16594E-09 -2.78791E-09 -5.01115E-09 -7.76360E-09 -1.05494E-08 -1.24449E-08 -1.25555E-08 -1.17384E-08
  -1.10880E-08 -1.05793E-08 -1.01653E-08 -9.81587E-09 -9.51205E-09 -9.24149E-09 -8.99577E-09 -8.76896E-09 -8.55677E-09 -8.35604E-09
  -8.16431E-09 -7.97978E-09 -7.80095E-09 -7.62672E-09 -7.45615E-09 -7.28848E-09 -7.12318E-09 -6.95973E-09 -6.79773E-09 -6.63689E-09
  -6.47694E-09 -6.31765E-09 -6.15886E-09 -6.00046E-09 -5.84231E-09 -5.68434E-09 -5.52650E-09 -5.36877E-09 -5.21110E-09 -5.05347E-09
  -4.89589E-09 -4.73841E-09 -4.58102E-09 -4.42378E-09 -4.26668E-09 -4.10981E-09 -3.95323E-09 -3.79698E-09 -3.64112E-09 -3.48574E-09
  -3.33092E-09 -3.17672E-09 -3.02323E-09 -2.87053E-09 -2.71870E-09 -2.56789E-09 -2.41812E-09 -2.26953E-09 -2.12223E-09 -1.97632E-09
  -1.83189E-09 -1.68906E-09 -1.54795E-09 -1.40864E-09 -1.27129E-09 -1.13599E-09 -1.00287E-09 -8.72026E-10 -7.43603E-10 -6.17738E-10
  -4.94516E-10 -3.74101E-10 -2.56599E-10 -1.42044E-10 -3.04013E-11  7.83623E-11  1.84274E-10  2.87356E-10  3.87653E-10  4.85196E-10
   5.80018E-10  6.72163E-10  7.61656E-10  8.48535E-10  9.32843E-10  1.01460E-09  1.09388E-09  1.17070E-09  1.24510E-09  1.31712E-09
   1.38681E-09  1.45422E-09  1.51937E-09  1.58233E-09  1.64313E-09  1.70182E-09  1.75844E-09  1.81305E-09  1.86570E-09  1.91641E-09
   1.96528E-09  2.01231E-09  2.05760E-09  2.10115E-09  2.14305E-09  2.18334E-09  2.22209E-09  2.25933E-09  2.29513E-09  2.32954E-09
   2.36261E-09  2.39445E-09  2.42506E-09  2.45450E-09  2.48285E-09  2.51019E-09  2.53652E-09  2.56196E-09  2.58657E-09  2.61039E-09
   2.63348E-09  2.65589E-09  2.67774E-09  2.69904E-09  2.71990E-09  2.74038E-09  2.76052E-09  2.78039E-09  2.80005E-09  2.81960E-09
   2.83912E-09  2.85868E-09  2.87826E-09  2.89800E-09  2.91787E-09  2.93785E-09  2.95795E-09  2.97817E-09  2.99849E-09  3.01891E-09
   3.03943E-09  3.06004E-09  3.08074E-09  3.10152E-09  3.12237E-09  3.14328E-09  3.16426E-09  3.18530E-09  3.20639E-09  3.22753E-09
   3.24870E-09  3.26991E-09  3.29114E-09  3.31240E-09  3.33367E-09  3.35495E-09  3.37623E-09  3.39751E-09  3.41878E-09  3.44003E-09
   3.46126E-09  3.48246E-09  3.50362E-09  3.52473E-09  3.54581E-09  3.56682E-09  3.58776E-09  3.60864E-09  3.62945E-09  3.65016E-09
   3.67080E-09  3.69132E-09  3.71175E-09  3.73206E-09  3.75226E-09  3.77233E-09  3.79227E-09  3.81207E-09  3.83172E-09  3.85122E-09
   3.87055E-09  3.88972E-09  3.90872E-09  3.92753E-09  3.94614E-09  3.96456E-09  3.98279E-09  4.00079E-09  4.01858E-09  4.03615E-09
   4.05347E-09  4.07056E-09  4.08739E-09
 NY background values follow
     1.692E-09    1.583E-09    1.474E-09    1.367E-09    1.259E-09    1.153E-09    1.046E-09    9.409E-10    8.358E-10    7.313E-10
     6.273E-10    5.239E-10    4.211E-10    3.188E-10    2.170E-10    1.159E-10    1.525E-11   -8.480E-11   -1.843E-10   -2.832E-10
    -3.815E-10   -4.793E-10   -5.765E-10   -6.731E-10   -7.692E-10   -8.647E-10   -9.596E-10   -1.054E-09   -1.148E-09   -1.241E-09
    -1.333E-09   -1.425E-09   -1.517E-09   -1.608E-09   -1.698E-09   -1.788E-09   -1.877E-09   -1.965E-09   -2.053E-09   -2.140E-09
    -2.227E-09   -2.313E-09   -2.399E-09   -2.484E-09   -2.568E-09   -2.652E-09   -2.735E-09   -2.818E-09   -2.900E-09   -2.981E-09
    -3.062E-09   -3.142E-09   -3.222E-09   -3.301E-09   -3.379E-09   -3.457E-09   -3.534E-09   -3.611E-09   -3.687E-09   -3.763E-09
    -3.838E-09   -3.912E-09   -3.986E-09   -4.059E-09   -4.131E-09   -4.203E-09   -4.274E-09   -4.345E-09   -4.415E-09   -4.485E-09
    -4.554E-09   -4.622E-09   -4.690E-09   -4.757E-09   -4.824E-09   -4.890E-09   -4.955E-09   -5.020E-09   -5.084E-09   -5.148E-09
    -5.211E-09   -5.273E-09   -5.335E-09   -5.396E-09   -5.456E-09   -5.516E-09   -5.576E-09   -5.634E-09   -5.692E-09   -5.750E-09
    -5.807E-09   -5.863E-09   -5.919E-09   -5.974E-09   -6.028E-09   -6.082E-09   -6.135E-09   -6.187E-09   -6.239E-09   -6.290E-09
    -6.341E-09   -6.391E-09   -6.440E-09   -6.489E-09   -6.537E-09   -6.585E-09   -6.632E-09   -6.678E-09   -6.723E-09   -6.768E-09
    -6.812E-09   -6.856E-09   -6.899E-09   -6.941E-09   -6.983E-09   -7.024E-09   -7.064E-09   -7.104E-09   -7.143E-09   -7.181E-09
    -7.219E-09   -7.256E-09   -7.293E-09   -7.328E-09   -7.363E-09   -7.397E-09   -7.431E-09   -7.463E-09   -7.495E-09   -7.526E-09
    -7.556E-09   -7.586E-09   -7.614E-09   -7.641E-09   -7.667E-09   -7.693E-09   -7.717E-09   -7.740E-09   -7.762E-09   -7.783E-09
    -7.803E-09   -7.821E-09   -7.838E-09   -7.854E-09   -7.869E-09   -7.882E-09   -7.894E-09   -7.904E-09   -7.913E-09   -7.920E-09
    -7.926E-09   -7.930E-09   -7.933E-09   -7.934E-09   -7.933E-09   -7.930E-09   -7.925E-09   -7.919E-09   -7.911E-09   -7.900E-09
    -7.888E-09   -7.874E-09   -7.857E-09   -7.838E-09   -7.818E-09   -7.794E-09   -7.769E-09   -7.741E-09   -7.711E-09   -7.678E-09
    -7.643E-09   -7.606E-09   -7.565E-09   -7.522E-09   -7.476E-09   -7.428E-09   -7.377E-09   -7.322E-09   -7.265E-09   -7.205E-09
    -7.142E-09   -7.075E-09   -7.006E-09   -6.933E-09   -6.857E-09   -6.779E-09   -6.697E-09   -6.612E-09   -6.525E-09   -6.435E-09
    -6.342E-09   -6.246E-09   -6.148E-09   -6.047E-09   -5.944E-09   -5.839E-09   -5.731E-09   -5.621E-09   -5.509E-09   -5.395E-09
    -5.279E-09   -5.160E-09   -5.041E-09   -4.919E-09   -4.796E-09   -4.671E-09   -4.545E-09   -4.417E-09   -4.288E-09   -4.158E-09
    -4.027E-09   -3.895E-09   -3.762E-09   -3.629E-09   -3.494E-09   -3.359E-09   -3.224E-09   -3.088E-09   -2.952E-09   -2.816E-09
    -2.680E-09   -2.543E-09   -2.408E-09   -2.272E-09   -2.137E-09   -2.002E-09   -1.868E-09   -1.735E-09   -1.602E-09   -1.471E-09
    -1.341E-09   -1.212E-09   -1.085E-09   -9.587E-10   -8.344E-10   -7.119E-10   -5.912E-10   -4.727E-10   -3.562E-10   -2.422E-10
    -1.305E-10   -2.141E-11    8.496E-11    1.886E-10    2.895E-10    3.877E-10    4.833E-10    5.762E-10    6.664E-10    7.541E-10
     8.393E-10    9.219E-10    1.002E-09    1.080E-09    1.155E-09    1.228E-09    1.298E-09    1.366E-09    1.432E-09    1.496E-09
     1.557E-09    1.616E-09    1.673E-09    1.728E-09    1.781E-09    1.832E-09    1.881E-09    1.928E-09    1.973E-09    2.017E-09
     2.058E-09    2.098E-09    2.136E-09    2.173E-09    2.208E-09    2.241E-09    2.273E-09    2.304E-09    2.333E-09    2.361E-09
     2.387E-09    2.413E-09    2.437E-09    2.460E-09    2.483E-09    2.504E-09    2.524E-09    2.544E-09    2.562E-09    2.580E-09
     2.598E-09    2.615E-09    2.631E-09    2.647E-09    2.662E-09    2.677E-09    2.692E-09    2.706E-09    2.721E-09    2.735E-09
     2.749E-09    2.764E-09    2.778E-09    2.793E-09    2.808E-09    2.823E-09    2.839E-09    2.854E-09    2.870E-09    2.885E-09
     2.901E-09    2.917E-09    2.933E-09    2.950E-09    2.966E-09    2.983E-09    2.999E-09    3.016E-09    3.033E-09    3.050E-09
     3.067E-09    3.084E-09    3.101E-09    3.118E-09    3.136E-09    3.153E-09    3.170E-09    3.188E-09    3.205E-09    3.223E-09
     3.240E-09    3.258E-09    3.275E-09    3.293E-09    3.310E-09    3.328E-09    3.345E-09    3.362E-09    3.380E-09    3.397E-09
     3.414E-09    3.432E-09    3.449E-09    3.466E-09    3.483E-09    3.500E-09    3.516E-09    3.533E-09    3.550E-09    3.566E-09
     3.582E-09    3.599E-09    3.615E-09    3.631E-09    3.646E-09    3.662E-09    3.677E-09    3.693E-09    3.708E-09    3.722E-09
     3.737E-09    3.752E-09    3.766E-09
 GABA     Conc. = 6.79E-10
   2.03395E-09  1.93257E-09  1.83209E-09  1.73252E-09  1.63390E-09  1.53628E-09  1.43968E-09  1.34418E-09  1.24981E-09  1.15665E-09
   1.06477E-09  9.74268E-10  8.85211E-10  7.97730E-10  7.11951E-10  6.27996E-10  5.46090E-10  4.66487E-10  3.89423E-10  3.15275E-10
   2.44508E-10  1.77678E-10  1.15565E-10  5.91743E-11  9.84635E-12 -3.04397E-11 -5.88354E-11 -7.12272E-11 -6.38514E-11 -7.76660E-11
  -1.46082E-10 -1.84839E-10 -2.42237E-10 -4.18472E-10 -6.47439E-10 -8.97096E-10 -1.19898E-09 -1.54104E-09 -1.88950E-09 -2.20864E-09
  -2.47908E-09 -2.72520E-09 -2.93393E-09 -3.00908E-09 -3.03790E-09 -3.10491E-09 -3.12430E-09 -3.10090E-09 -3.09059E-09 -3.09222E-09
  -3.10213E-09 -3.11751E-09 -3.13597E-09 -3.15563E-09 -3.17487E-09 -3.19196E-09 -3.20500E-09 -3.21174E-09 -3.20914E-09 -3.19300E-09
  -3.15726E-09 -3.10380E-09 -3.12095E-09 -3.17014E-09 -3.17514E-09 -3.28140E-09 -3.49216E-09 -3.72237E-09 -3.98596E-09 -4.28549E-09
  -4.59800E-09 -4.88666E-09 -5.11673E-09 -5.28454E-09 -5.44628E-09 -5.51296E-09 -5.45096E-09 -5.44282E-09 -5.43981E-09 -5.36723E-09
  -5.31608E-09 -5.28746E-09 -5.22077E-09 -5.18452E-09 -5.20936E-09 -5.22438E-09 -5.25791E-09 -5.34541E-09 -5.46604E-09 -5.61479E-09
  -5.77266E-09 -5.93495E-09 -6.13033E-09 -6.31248E-09 -6.42644E-09 -6.55279E-09 -6.68490E-09 -6.74766E-09 -6.79302E-09 -6.84528E-09
  -6.87860E-09 -6.90270E-09 -6.92576E-09 -6.94960E-09 -6.97461E-09 -7.00074E-09 -7.02775E-09 -7.05552E-09 -7.08393E-09 -7.11285E-09
  -7.14223E-09 -7.17184E-09 -7.20160E-09 -7.23137E-09 -7.26112E-09 -7.29077E-09 -7.32033E-09 -7.34971E-09 -7.37887E-09 -7.40778E-09
  -7.43631E-09 -7.46450E-09 -7.49231E-09 -7.51968E-09 -7.54657E-09 -7.57292E-09 -7.59869E-09 -7.62382E-09 -7.64828E-09 -7.67202E-09
  -7.69499E-09 -7.71715E-09 -7.73844E-09 -7.75883E-09 -7.77825E-09 -7.79668E-09 -7.81404E-09 -7.83030E-09 -7.84540E-09 -7.85927E-09
  -7.87188E-09 -7.88314E-09 -7.89300E-09 -7.90144E-09 -7.90830E-09 -7.91353E-09 -7.91707E-09 -7.91884E-09 -7.91870E-09 -7.91658E-09
  -7.91235E-09 -7.90582E-09 -7.89688E-09 -7.88534E-09 -7.87093E-09 -7.85337E-09 -7.83237E-09 -7.80744E-09 -7.77798E-09 -7.74325E-09
  -7.70205E-09 -7.65278E-09 -7.59276E-09 -7.51752E-09 -7.41834E-09 -7.27518E-09 -7.03146E-09 -6.77056E-09 -6.63201E-09 -6.60771E-09
  -6.64829E-09 -6.72112E-09 -6.82410E-09 -6.97639E-09 -7.19779E-09 -7.48134E-09 -7.77007E-09 -7.95523E-09 -7.92775E-09 -7.77639E-09
  -7.64203E-09 -7.52200E-09 -7.41062E-09 -7.30430E-09 -7.20077E-09 -7.09859E-09 -6.99681E-09 -6.89475E-09 -6.79196E-09 -6.68811E-09
  -6.58294E-09 -6.47634E-09 -6.36814E-09 -6.25831E-09 -6.14678E-09 -6.03351E-09 -5.91852E-09 -5.80182E-09 -5.68341E-09 -5.56335E-09
  -5.44166E-09 -5.31838E-09 -5.19358E-09 -5.06732E-09 -4.93965E-09 -4.81065E-09 -4.68038E-09 -4.54896E-09 -4.41642E-09 -4.28284E-09
  -4.14833E-09 -4.01299E-09 -3.87689E-09 -3.74013E-09 -3.60278E-09 -3.46496E-09 -3.32679E-09 -3.18833E-09 -3.04969E-09 -2.91100E-09
  -2.77237E-09 -2.63388E-09 -2.49565E-09 -2.35778E-09 -2.22038E-09 -2.08362E-09 -1.94754E-09 -1.81228E-09 -1.67800E-09 -1.54479E-09
  -1.41276E-09 -1.28205E-09 -1.15278E-09 -1.02505E-09 -8.99035E-10 -7.74834E-10 -6.52570E-10 -5.32376E-10 -4.14386E-10 -2.98752E-10
  -1.85566E-10 -7.49965E-11  3.28400E-11  1.37905E-10  2.40227E-10  3.39833E-10  4.36745E-10  5.30979E-10  6.22576E-10  7.11562E-10
   7.97966E-10  8.81827E-10  9.63165E-10  1.04202E-09  1.11842E-09  1.19240E-09  1.26401E-09  1.33327E-09  1.40022E-09  1.46490E-09
   1.52735E-09  1.58762E-09  1.64574E-09  1.70175E-09  1.75571E-09  1.80765E-09  1.85760E-09  1.90563E-09  1.95179E-09  1.99610E-09
   2.03864E-09  2.07942E-09  2.11854E-09  2.15600E-09  2.19188E-09  2.22623E-09  2.25910E-09  2.29054E-09  2.32061E-09  2.34935E-09
   2.37683E-09  2.40314E-09  2.42827E-09  2.45231E-09  2.47532E-09  2.49738E-09  2.51849E-09  2.53876E-09  2.55827E-09  2.57703E-09
   2.59513E-09  2.61260E-09  2.62957E-09  2.64604E-09  2.66213E-09  2.67789E-09  2.69335E-09  2.70859E-09  2.72368E-09  2.73870E-09
   2.75375E-09  2.76888E-09  2.78408E-09  2.79949E-09  2.81506E-09  2.83081E-09  2.84671E-09  2.86277E-09  2.87898E-09  2.89533E-09
   2.91183E-09  2.92846E-09  2.94521E-09  2.96209E-09  2.97907E-09  2.99617E-09  3.01337E-09  3.03067E-09  3.04806E-09  3.06553E-09
   3.08308E-09  3.10070E-09  3.11839E-09  3.13613E-09  3.15393E-09  3.17177E-09  3.18965E-09  3.20756E-09  3.22549E-09  3.24344E-09
   3.26141E-09  3.27939E-09  3.29735E-09  3.31531E-09  3.33326E-09  3.35117E-09  3.36906E-09  3.38691E-09  3.40472E-09  3.42248E-09
   3.44018E-09  3.45781E-09  3.47537E-09  3.49285E-09  3.51024E-09  3.52754E-09  3.54473E-09  3.56182E-09  3.57879E-09  3.59564E-09
   3.61235E-09  3.62893E-09  3.64536E-09  3.66164E-09  3.67775E-09  3.69370E-09  3.70947E-09  3.72506E-09  3.74046E-09  3.75567E-09
   3.77066E-09  3.78544E-09  3.80000E-09
 Glc      Conc. = 1.19E-09
   3.51796E-09  3.06846E-09  2.59048E-09  2.07024E-09  1.57025E-09  1.10586E-09  7.66685E-10  5.54819E-10  5.20053E-10  6.60503E-10
   8.28216E-10  9.88638E-10  1.15190E-09  1.26510E-09  1.19101E-09  9.01403E-10  4.42889E-10 -1.39989E-10 -7.48222E-10 -1.35265E-09
  -2.01512E-09 -2.68974E-09 -3.26824E-09 -3.68953E-09 -3.85429E-09 -3.75219E-09 -3.58881E-09 -3.50164E-09 -3.50405E-09 -3.56597E-09
  -3.62634E-09 -3.67228E-09 -3.73283E-09 -3.77912E-09 -3.78408E-09 -3.78717E-09 -3.80140E-09 -3.79825E-09 -3.78015E-09 -3.77183E-09
  -3.77454E-09 -3.78578E-09 -3.80403E-09 -3.82801E-09 -3.85671E-09 -3.88943E-09 -3.92553E-09 -3.96452E-09 -4.00597E-09 -4.04954E-09
  -4.09492E-09 -4.14187E-09 -4.19016E-09 -4.23962E-09 -4.29008E-09 -4.34139E-09 -4.39344E-09 -4.44612E-09 -4.49932E-09 -4.55297E-09
  -4.60698E-09 -4.66128E-09 -4.71581E-09 -4.77051E-09 -4.82533E-09 -4.88022E-09 -4.93514E-09 -4.99005E-09 -5.04491E-09 -5.09969E-09
  -5.15436E-09 -5.20888E-09 -5.26323E-09 -5.31739E-09 -5.37133E-09 -5.42504E-09 -5.47847E-09 -5.53165E-09 -5.58451E-09 -5.63707E-09
  -5.68929E-09 -5.74117E-09 -5.79269E-09 -5.84385E-09 -5.89462E-09 -5.94498E-09 -5.99495E-09 -6.04450E-09 -6.09361E-09 -6.14228E-09
  -6.19050E-09 -6.23828E-09 -6.28558E-09 -6.33240E-09 -6.37874E-09 -6.42458E-09 -6.46993E-09 -6.51475E-09 -6.55907E-09 -6.60287E-09
  -6.64612E-09 -6.68884E-09 -6.73102E-09 -6.77264E-09 -6.81370E-09 -6.85420E-09 -6.89411E-09 -6.93345E-09 -6.97222E-09 -7.01037E-09
  -7.04794E-09 -7.08488E-09 -7.12122E-09 -7.15692E-09 -7.19201E-09 -7.22645E-09 -7.26026E-09 -7.29341E-09 -7.32591E-09 -7.35778E-09
  -7.38890E-09 -7.41937E-09 -7.44913E-09 -7.47817E-09 -7.50644E-09 -7.53393E-09 -7.56058E-09 -7.58637E-09 -7.61127E-09 -7.63522E-09
  -7.65821E-09 -7.68018E-09 -7.70108E-09 -7.72089E-09 -7.73954E-09 -7.75700E-09 -7.77319E-09 -7.78808E-09 -7.80161E-09 -7.81369E-09
  -7.82430E-09 -7.83333E-09 -7.84071E-09 -7.84640E-09 -7.85024E-09 -7.85216E-09 -7.85205E-09 -7.84981E-09 -7.84525E-09 -7.83826E-09
  -7.82866E-09 -7.81617E-09 -7.80060E-09 -7.78166E-09 -7.75893E-09 -7.73198E-09 -7.70025E-09 -7.66298E-09 -7.61917E-09 -7.56750E-09
  -7.50596E-09 -7.43173E-09 -7.34018E-09 -7.22346E-09 -7.06632E-09 -6.83363E-09 -6.42614E-09 -5.99081E-09 -5.77190E-09 -5.75512E-09
  -5.85397E-09 -6.01130E-09 -6.22352E-09 -6.52432E-09 -6.94840E-09 -7.48343E-09 -8.02943E-09 -8.39558E-09 -8.39080E-09 -8.17156E-09
  -7.98430E-09 -7.82449E-09 -7.68221E-09 -7.55112E-09 -7.42721E-09 -7.30794E-09 -7.19156E-09 -7.07687E-09 -6.96301E-09 -6.84938E-09
  -6.73548E-09 -6.62101E-09 -6.50570E-09 -6.38938E-09 -6.27190E-09 -6.15315E-09 -6.03309E-09 -5.91168E-09 -5.78888E-09 -5.66470E-09
  -5.53916E-09 -5.41224E-09 -5.28400E-09 -5.15449E-09 -5.02373E-09 -4.89179E-09 -4.75871E-09 -4.62461E-09 -4.48950E-09 -4.35347E-09
  -4.21660E-09 -4.07898E-09 -3.94069E-09 -3.80182E-09 -3.66243E-09 -3.52264E-09 -3.38256E-09 -3.24225E-09 -3.10182E-09 -2.96138E-09
  -2.82105E-09 -2.68091E-09 -2.54107E-09 -2.40163E-09 -2.26270E-09 -2.12444E-09 -1.98690E-09 -1.85022E-09 -1.71454E-09 -1.57996E-09
