 LCModel (Version 6.3-1R) Copyright: S.W. Provencher.          Ref.: Magn. Reson. Med. 30:672-679 (1993).                
 onepulse 12x22_ftSpec_smooth_lcm
 26 lines in following concentration table = NCONC+1
    Conc.  %SD   /Cr    Metabolite                                         
    0.000 999%   0.000 Ala                                                 
    0.000 999%   0.000 Asp                                                 
    0.000 999%   0.000 Cr                                                  
    0.000 999%   0.000 GABA                                                
    0.000 999%   0.000 Glc                                                 
    0.000 999%   0.000 Gln                                                 
    0.000 999%   0.000 Glu                                                 
    0.000 999%   0.000 Glyc                                                
    0.000 999%   0.000 GPC                                                 
    0.000 999%   0.000 GSH                                                 
    0.000 999%   0.000 Ins                                                 
    0.000 999%   0.000 Lac                                                 
    0.000 999%   0.000 NAAG                                                
    0.000 999%   0.000 NAA                                                 
    0.000 999%   0.000 PCh                                                 
    0.000 999%   0.000 PCr                                                 
    0.000 999%   0.000 PE                                                  
    0.000 999%   0.000 Scyllo                                              
    0.000 999%   0.000 Ser                                                 
    0.000 999%   0.000 Tau                                                 
    0.000 999%   0.000 GPC+PCh                                             
    0.000 999%   0.000 NAA+NAAG                                            
    0.000 999%   0.000 Ins+Glyc                                            
    0.000 999%   0.000 Cr+PCr                                              
    0.000 999%   0.000 Glu+Gln                                             
   6 lines in following misc. output table
  FWHM = 0.078 ppm    S/N =   0                                            
  Data shift = 0.212 ppm                                                   
  Ph: -96 deg      28.8 deg/ppm                                            
  alphaB,S = 8.9E-01,   4.0E-01                                            
    8 spline knots.   Ns = 5(1)                                            
   2 inflections.     1 extrema                                            
  363 points on ppm-axis = NY
      4.250000     4.238821     4.227641     4.216462     4.205282     4.194103     4.182923     4.171744     4.160564     4.149385
      4.138206     4.127026     4.115847     4.104667     4.093488     4.082308     4.071129     4.059949     4.048770     4.037591
      4.026411     4.015232     4.004052     3.992873     3.981693     3.970514     3.959334     3.948155     3.936975     3.925796
      3.914617     3.903437     3.892258     3.881078     3.869899     3.858719     3.847540     3.836360     3.825181     3.814002
      3.802822     3.791643     3.780463     3.769284     3.758104     3.746925     3.735745     3.724566     3.713387     3.702207
      3.691028     3.679848     3.668669     3.657489     3.646310     3.635130     3.623951     3.612772     3.601592     3.590413
      3.579233     3.568054     3.556874     3.545695     3.534515     3.523336     3.512156     3.500977     3.489798     3.478618
      3.467439     3.456259     3.445080     3.433900     3.422721     3.411541     3.400362     3.389183     3.378003     3.366824
      3.355644     3.344465     3.333285     3.322106     3.310926     3.299747     3.288568     3.277388     3.266209     3.255029
      3.243850     3.232670     3.221491     3.210311     3.199132     3.187953     3.176773     3.165594     3.154414     3.143235
      3.132055     3.120876     3.109696     3.098517     3.087337     3.076158     3.064979     3.053799     3.042620     3.031440
      3.020261     3.009081     2.997902     2.986722     2.975543     2.964364     2.953184     2.942005     2.930825     2.919646
      2.908466     2.897287     2.886107     2.874928     2.863749     2.852569     2.841390     2.830210     2.819031     2.807851
      2.796672     2.785492     2.774313     2.763134     2.751954     2.740775     2.729595     2.718416     2.707236     2.696057
      2.684877     2.673698     2.662519     2.651339     2.640160     2.628980     2.617801     2.606621     2.595442     2.584262
      2.573083     2.561903     2.550724     2.539545     2.528365     2.517186     2.506006     2.494827     2.483647     2.472468
      2.461288     2.450109     2.438930     2.427750     2.416571     2.405391     2.394212     2.383032     2.371853     2.360673
      2.349494     2.338315     2.327135     2.315956     2.304776     2.293597     2.282417     2.271238     2.260058     2.248879
      2.237700     2.226520     2.215341     2.204161     2.192982     2.181802     2.170623     2.159443     2.148264     2.137084
      2.125905     2.114726     2.103546     2.092367     2.081187     2.070008     2.058828     2.047649     2.036469     2.025290
      2.014111     2.002931     1.991752     1.980572     1.969393     1.958213     1.947034     1.935854     1.924675     1.913496
      1.902316     1.891137     1.879957     1.868778     1.857598     1.846419     1.835239     1.824060     1.812881     1.801701
      1.790522     1.779342     1.768163     1.756983     1.745804     1.734624     1.723445     1.712265     1.701086     1.689907
      1.678727     1.667548     1.656368     1.645189     1.634009     1.622830     1.611650     1.600471     1.589292     1.578112
      1.566933     1.555753     1.544574     1.533394     1.522215     1.511035     1.499856     1.488677     1.477497     1.466318
      1.455138     1.443959     1.432779     1.421600     1.410420     1.399241     1.388062     1.376882     1.365703     1.354523
      1.343344     1.332164     1.320985     1.309805     1.298626     1.287446     1.276267     1.265088     1.253908     1.242729
      1.231549     1.220370     1.209190     1.198011     1.186831     1.175652     1.164473     1.153293     1.142114     1.130934
      1.119755     1.108575     1.097396     1.086216     1.075037     1.063858     1.052678     1.041499     1.030319     1.019140
      1.007960     0.996781     0.985601     0.974422     0.963243     0.952063     0.940884     0.929704     0.918525     0.907345
      0.896166     0.884986     0.873807     0.862628     0.851448     0.840269     0.829089     0.817910     0.806730     0.795551
      0.784371     0.773192     0.762012     0.750833     0.739654     0.728474     0.717295     0.706115     0.694936     0.683756
      0.672577     0.661397     0.650218     0.639039     0.627859     0.616680     0.605500     0.594321     0.583141     0.571962
      0.560782     0.549603     0.538424     0.527244     0.516065     0.504885     0.493706     0.482526     0.471347     0.460167
      0.448988     0.437809     0.426629     0.415450     0.404270     0.393091     0.381911     0.370732     0.359552     0.348373
      0.337193     0.326014     0.314835     0.303655     0.292476     0.281296     0.270117     0.258937     0.247758     0.236578
      0.225399     0.214220     0.203040
 NY phased data points follow
  -8.81294E-09 -8.69581E-09 -8.49934E-09 -8.12181E-09 -8.23975E-09 -8.18115E-09 -7.78462E-09 -6.97651E-09 -6.81336E-09 -6.37343E-09
  -6.42338E-09 -7.01729E-09 -7.80901E-09 -9.25655E-09 -1.03535E-08 -1.06098E-08 -1.14242E-08 -1.17485E-08 -1.14950E-08 -1.12600E-08
  -1.13071E-08 -1.12443E-08 -1.10604E-08 -1.08449E-08 -1.11525E-08 -1.07236E-08 -1.12175E-08 -1.08419E-08 -1.14149E-08 -1.15232E-08
  -1.16318E-08 -1.12903E-08 -1.18370E-08 -1.16127E-08 -1.22583E-08 -1.11740E-08 -1.16753E-08 -1.10340E-08 -1.22175E-08 -1.14268E-08
  -1.20643E-08 -1.14906E-08 -1.15322E-08 -1.11280E-08 -1.18316E-08 -1.23602E-08 -1.29812E-08 -1.34784E-08 -1.37083E-08 -1.25630E-08
  -1.28590E-08 -1.22873E-08 -1.19853E-08 -1.15064E-08 -1.20995E-08 -1.12360E-08 -1.12357E-08 -1.06343E-08 -1.03004E-08 -1.01855E-08
  -9.99843E-09 -9.53982E-09 -8.99855E-09 -9.25893E-09 -9.16761E-09 -8.96914E-09 -8.63330E-09 -8.35504E-09 -8.44861E-09 -8.40416E-09
  -8.12646E-09 -7.67470E-09 -8.01591E-09 -8.18124E-09 -8.13428E-09 -8.17292E-09 -9.83921E-09 -9.74411E-09 -1.06528E-08 -1.04295E-08
  -1.09059E-08 -1.04412E-08 -1.00308E-08 -9.42457E-09 -9.21756E-09 -8.38891E-09 -8.64052E-09 -7.60959E-09 -7.69528E-09 -7.94214E-09
  -7.98147E-09 -8.91165E-09 -9.90061E-09 -1.13924E-08 -1.28210E-08 -1.32790E-08 -1.32523E-08 -1.32275E-08 -1.34535E-08 -1.33566E-08
  -1.31513E-08 -1.21853E-08 -1.23405E-08 -1.17870E-08 -1.15193E-08 -1.13423E-08 -1.06390E-08 -1.00537E-08 -1.03687E-08 -9.98599E-09
  -9.56135E-09 -8.96811E-09 -8.64619E-09 -8.50305E-09 -8.42779E-09 -7.73048E-09 -7.96519E-09 -7.58698E-09 -7.72516E-09 -6.74330E-09
  -6.67609E-09 -6.39703E-09 -5.97785E-09 -5.26440E-09 -5.27102E-09 -5.17287E-09 -4.61850E-09 -4.47051E-09 -5.15962E-09 -4.60989E-09
  -4.77656E-09 -4.18330E-09 -4.68569E-09 -4.53360E-09 -4.82217E-09 -4.00384E-09 -4.48597E-09 -3.46507E-09 -3.85316E-09 -3.14020E-09
  -3.83357E-09 -3.56138E-09 -3.56660E-09 -3.70205E-09 -3.51461E-09 -3.50805E-09 -4.29340E-09 -3.70179E-09 -4.49684E-09 -4.28573E-09
  -4.27578E-09 -4.22693E-09 -4.90295E-09 -5.65479E-09 -5.61780E-09 -5.69092E-09 -6.61767E-09 -6.49813E-09 -6.92320E-09 -7.13627E-09
  -7.41180E-09 -6.98971E-09 -7.87408E-09 -7.57088E-09 -7.31067E-09 -7.25683E-09 -7.71445E-09 -6.99828E-09 -7.40575E-09 -6.78862E-09
  -7.02224E-09 -7.00385E-09 -7.12767E-09 -7.33256E-09 -7.49242E-09 -7.08125E-09 -7.72134E-09 -7.50416E-09 -7.59066E-09 -8.17417E-09
  -8.93314E-09 -1.00260E-08 -1.06585E-08 -1.15353E-08 -1.30154E-08 -1.30078E-08 -1.27687E-08 -1.15812E-08 -1.05104E-08 -8.81419E-09
  -8.34082E-09 -6.40424E-09 -5.70330E-09 -4.39266E-09 -3.67900E-09 -1.25201E-09 -3.57385E-10  1.05672E-09  2.55116E-09  4.40953E-09
   5.40739E-09  8.15433E-09  8.93498E-09  1.15801E-08  1.32723E-08  1.53916E-08  1.75493E-08  2.00135E-08  2.17506E-08  2.37575E-08
   2.54532E-08  2.66595E-08  2.69514E-08  2.82014E-08  2.73508E-08  2.66837E-08  2.58331E-08  2.34473E-08  2.10474E-08  1.85575E-08
   1.46243E-08  1.20690E-08  8.36823E-09  6.10493E-09  3.72816E-09  1.94990E-09  4.47463E-10 -5.35480E-10 -2.88008E-10  2.99687E-10
  -3.54544E-10  4.00710E-10  8.51277E-10  1.76710E-09  6.72066E-10  1.46466E-09  1.20536E-09  1.50323E-09  1.01305E-09  1.48480E-09
   1.09605E-09  2.01893E-09  1.13872E-09  2.24457E-09  1.61788E-09  1.76541E-09  9.36400E-10  8.74090E-10  8.65726E-10  1.09858E-09
   1.12137E-09  1.09446E-09  6.32299E-10  1.04234E-09  9.74826E-10  1.08351E-09  7.86766E-10  1.61081E-09  5.10068E-10  9.58724E-10
   4.65296E-10  4.89893E-10  6.54627E-11  2.84102E-10 -1.79892E-10  2.06780E-10 -6.00026E-11  5.04657E-10  2.31715E-10  7.06173E-10
   3.26050E-10  6.40515E-10  5.83203E-10  1.13887E-09  7.20002E-10  1.19509E-09  4.71655E-10  4.34930E-10 -2.83589E-11 -2.54883E-10
  -7.22315E-10 -3.02530E-10 -6.92923E-10 -6.44233E-10 -1.02585E-09 -8.51844E-10 -1.37056E-09 -6.47190E-10 -1.46486E-09 -4.26426E-10
  -1.20115E-09 -3.80861E-10 -6.56445E-10 -3.30824E-10 -4.72529E-10  1.89583E-10 -2.21996E-10  3.88977E-10 -2.97704E-10  2.35943E-10
   2.81497E-11  3.05383E-10 -1.22674E-11  3.11893E-10 -4.11776E-10  8.89059E-11 -8.71823E-11 -2.25523E-10 -2.96369E-10  2.09214E-10
  -2.82028E-10  9.36192E-11 -3.68931E-10 -6.35540E-10 -8.35688E-11 -2.89421E-10 -6.51358E-10 -7.61274E-10 -1.17862E-09 -5.69139E-10
  -1.17450E-09 -8.31484E-10 -1.76638E-09 -1.28599E-09 -1.58692E-09 -1.00600E-09 -1.75419E-09 -1.41496E-09 -2.16915E-09 -1.48148E-09
  -2.37368E-09 -1.57264E-09 -2.09320E-09 -1.82721E-09 -1.85126E-09 -2.00674E-09 -2.56813E-09 -2.17730E-09 -2.19190E-09 -2.21664E-09
  -2.45232E-09 -2.62531E-09 -2.72852E-09 -2.53522E-09 -2.89107E-09 -2.36551E-09 -2.78390E-09 -3.27289E-09 -3.29693E-09 -2.70937E-09
  -3.40074E-09 -2.86898E-09 -2.99513E-09 -3.30996E-09 -3.37030E-09 -2.86931E-09 -3.76375E-09 -3.13100E-09 -3.54760E-09 -2.98950E-09
  -3.35222E-09 -3.09077E-09 -3.76135E-09
 NY points of the fit to the data follow
  -1.05215E-08 -1.05297E-08 -1.05377E-08 -1.05456E-08 -1.05533E-08 -1.05608E-08 -1.05681E-08 -1.05752E-08 -1.05821E-08 -1.05887E-08
  -1.05952E-08 -1.06013E-08 -1.06072E-08 -1.06129E-08 -1.06183E-08 -1.06234E-08 -1.06281E-08 -1.06326E-08 -1.06368E-08 -1.06406E-08
  -1.06441E-08 -1.06472E-08 -1.06500E-08 -1.06524E-08 -1.06544E-08 -1.06560E-08 -1.06572E-08 -1.06580E-08 -1.06584E-08 -1.06583E-08
  -1.06578E-08 -1.06569E-08 -1.06555E-08 -1.06536E-08 -1.06512E-08 -1.06483E-08 -1.06450E-08 -1.06410E-08 -1.06366E-08 -1.06317E-08
  -1.06262E-08 -1.06201E-08 -1.06135E-08 -1.06062E-08 -1.05984E-08 -1.05900E-08 -1.05810E-08 -1.05714E-08 -1.05611E-08 -1.05502E-08
  -1.05386E-08 -1.05264E-08 -1.05135E-08 -1.04999E-08 -1.04856E-08 -1.04707E-08 -1.04550E-08 -1.04386E-08 -1.04214E-08 -1.04035E-08
  -1.03849E-08 -1.03654E-08 -1.03452E-08 -1.03242E-08 -1.03025E-08 -1.02799E-08 -1.02565E-08 -1.02323E-08 -1.02072E-08 -1.01813E-08
  -1.01545E-08 -1.01268E-08 -1.00983E-08 -1.00689E-08 -1.00386E-08 -1.00073E-08 -9.97518E-09 -9.94212E-09 -9.90813E-09 -9.87321E-09
  -9.83733E-09 -9.80051E-09 -9.76272E-09 -9.72396E-09 -9.68424E-09 -9.64353E-09 -9.60182E-09 -9.55913E-09 -9.51543E-09 -9.47071E-09
  -9.42496E-09 -9.37821E-09 -9.33039E-09 -9.28157E-09 -9.23167E-09 -9.18071E-09 -9.12869E-09 -9.07560E-09 -9.02143E-09 -8.96616E-09
  -8.90981E-09 -8.85234E-09 -8.79377E-09 -8.73408E-09 -8.67326E-09 -8.61131E-09 -8.54820E-09 -8.48397E-09 -8.41858E-09 -8.35199E-09
  -8.28428E-09 -8.21536E-09 -8.14525E-09 -8.07395E-09 -8.00144E-09 -7.92772E-09 -7.85279E-09 -7.77665E-09 -7.69924E-09 -7.62064E-09
  -7.54075E-09 -7.45963E-09 -7.37722E-09 -7.29356E-09 -7.20863E-09 -7.12240E-09 -7.03486E-09 -6.94605E-09 -6.85592E-09 -6.76446E-09
  -6.67170E-09 -6.57758E-09 -6.48215E-09 -6.38537E-09 -6.28722E-09 -6.18770E-09 -6.08685E-09 -5.98460E-09 -5.88097E-09 -5.77593E-09
  -5.66951E-09 -5.56168E-09 -5.45244E-09 -5.34177E-09 -5.22967E-09 -5.11614E-09 -5.00118E-09 -4.88485E-09 -4.76723E-09 -4.64837E-09
  -4.52833E-09 -4.40719E-09 -4.28500E-09 -4.16184E-09 -4.03776E-09 -3.91283E-09 -3.78712E-09 -3.66068E-09 -3.53359E-09 -3.40592E-09
  -3.27769E-09 -3.14903E-09 -3.01995E-09 -2.89055E-09 -2.76088E-09 -2.63100E-09 -2.50099E-09 -2.37089E-09 -2.24077E-09 -2.11073E-09
  -1.98080E-09 -1.85104E-09 -1.72154E-09 -1.59234E-09 -1.46352E-09 -1.33514E-09 -1.20726E-09 -1.07996E-09 -9.53295E-10 -8.27305E-10
  -7.02104E-10 -5.77735E-10 -4.54223E-10 -3.31691E-10 -2.10174E-10 -8.97323E-11  2.95559E-11  1.47588E-10  2.64385E-10  3.79838E-10
   4.93851E-10  6.06425E-10  7.17456E-10  8.26902E-10  9.34649E-10  1.04068E-09  1.14495E-09  1.24732E-09  1.34776E-09  1.44623E-09
   1.54266E-09  1.63696E-09  1.72907E-09  1.81894E-09  1.90652E-09  1.99169E-09  2.07444E-09  2.15468E-09  2.23238E-09  2.30739E-09
   2.37977E-09  2.44935E-09  2.51610E-09  2.57997E-09  2.64091E-09  2.69879E-09  2.75360E-09  2.80529E-09  2.85373E-09  2.89901E-09
   2.94114E-09  2.98018E-09  3.01616E-09  3.04915E-09  3.07916E-09  3.10628E-09  3.13053E-09  3.15195E-09  3.17060E-09  3.18652E-09
   3.19977E-09  3.21038E-09  3.21839E-09  3.22387E-09  3.22685E-09  3.22737E-09  3.22550E-09  3.22126E-09  3.21471E-09  3.20589E-09
   3.19485E-09  3.18165E-09  3.16631E-09  3.14889E-09  3.12943E-09  3.10798E-09  3.08459E-09  3.05930E-09  3.03216E-09  3.00321E-09
   2.97251E-09  2.94008E-09  2.90601E-09  2.87029E-09  2.83300E-09  2.79420E-09  2.75390E-09  2.71216E-09  2.66904E-09  2.62456E-09
   2.57879E-09  2.53177E-09  2.48355E-09  2.43416E-09  2.38365E-09  2.33208E-09  2.27950E-09  2.22592E-09  2.17142E-09  2.11604E-09
   2.05982E-09  2.00280E-09  1.94504E-09  1.88657E-09  1.82747E-09  1.76774E-09  1.70745E-09  1.64666E-09  1.58538E-09  1.52369E-09
   1.46162E-09  1.39922E-09  1.33655E-09  1.27361E-09  1.21050E-09  1.14723E-09  1.08388E-09  1.02044E-09  9.57015E-10  8.93626E-10
   8.30304E-10  7.67104E-10  7.04008E-10  6.41018E-10  5.78124E-10  5.15339E-10  4.52639E-10  3.90038E-10  3.27524E-10  2.65097E-10
   2.02758E-10  1.40496E-10  7.83195E-11  1.62166E-11 -4.58175E-11 -1.07781E-10 -1.69671E-10 -2.31494E-10 -2.93260E-10 -3.54969E-10
  -4.16617E-10 -4.78217E-10 -5.39756E-10 -6.01256E-10 -6.62705E-10 -7.24115E-10 -7.85481E-10 -8.46817E-10 -9.08114E-10 -9.69378E-10
  -1.03061E-09 -1.09183E-09 -1.15302E-09 -1.21418E-09 -1.27534E-09 -1.33649E-09 -1.39760E-09 -1.45872E-09 -1.51982E-09 -1.58094E-09
  -1.64204E-09 -1.70314E-09 -1.76426E-09 -1.82539E-09 -1.88651E-09 -1.94766E-09 -2.00882E-09 -2.07000E-09 -2.13119E-09 -2.19243E-09
  -2.25367E-09 -2.31497E-09 -2.37628E-09 -2.43762E-09 -2.49903E-09 -2.56046E-09 -2.62194E-09 -2.68345E-09 -2.74503E-09 -2.80666E-09
  -2.86833E-09 -2.93008E-09 -2.99188E-09 -3.05375E-09 -3.11568E-09 -3.17768E-09 -3.23974E-09 -3.30190E-09 -3.36412E-09 -3.42643E-09
  -3.48882E-09 -3.55130E-09 -3.61386E-09
 NY background values follow
    -1.052E-08   -1.053E-08   -1.054E-08   -1.055E-08   -1.055E-08   -1.056E-08   -1.057E-08   -1.058E-08   -1.058E-08   -1.059E-08
    -1.060E-08   -1.060E-08   -1.061E-08   -1.061E-08   -1.062E-08   -1.062E-08   -1.063E-08   -1.063E-08   -1.064E-08   -1.064E-08
    -1.064E-08   -1.065E-08   -1.065E-08   -1.065E-08   -1.065E-08   -1.066E-08   -1.066E-08   -1.066E-08   -1.066E-08   -1.066E-08
    -1.066E-08   -1.066E-08   -1.066E-08   -1.065E-08   -1.065E-08   -1.065E-08   -1.064E-08   -1.064E-08   -1.064E-08   -1.063E-08
    -1.063E-08   -1.062E-08   -1.061E-08   -1.061E-08   -1.060E-08   -1.059E-08   -1.058E-08   -1.057E-08   -1.056E-08   -1.055E-08
    -1.054E-08   -1.053E-08   -1.051E-08   -1.050E-08   -1.049E-08   -1.047E-08   -1.045E-08   -1.044E-08   -1.042E-08   -1.040E-08
    -1.038E-08   -1.037E-08   -1.035E-08   -1.032E-08   -1.030E-08   -1.028E-08   -1.026E-08   -1.023E-08   -1.021E-08   -1.018E-08
    -1.015E-08   -1.013E-08   -1.010E-08   -1.007E-08   -1.004E-08   -1.001E-08   -9.975E-09   -9.942E-09   -9.908E-09   -9.873E-09
    -9.837E-09   -9.801E-09   -9.763E-09   -9.724E-09   -9.684E-09   -9.644E-09   -9.602E-09   -9.559E-09   -9.515E-09   -9.471E-09
    -9.425E-09   -9.378E-09   -9.330E-09   -9.282E-09   -9.232E-09   -9.181E-09   -9.129E-09   -9.076E-09   -9.021E-09   -8.966E-09
    -8.910E-09   -8.852E-09   -8.794E-09   -8.734E-09   -8.673E-09   -8.611E-09   -8.548E-09   -8.484E-09   -8.419E-09   -8.352E-09
    -8.284E-09   -8.215E-09   -8.145E-09   -8.074E-09   -8.001E-09   -7.928E-09   -7.853E-09   -7.777E-09   -7.699E-09   -7.621E-09
    -7.541E-09   -7.460E-09   -7.377E-09   -7.294E-09   -7.209E-09   -7.122E-09   -7.035E-09   -6.946E-09   -6.856E-09   -6.764E-09
    -6.672E-09   -6.578E-09   -6.482E-09   -6.385E-09   -6.287E-09   -6.188E-09   -6.087E-09   -5.985E-09   -5.881E-09   -5.776E-09
    -5.670E-09   -5.562E-09   -5.452E-09   -5.342E-09   -5.230E-09   -5.116E-09   -5.001E-09   -4.885E-09   -4.767E-09   -4.648E-09
    -4.528E-09   -4.407E-09   -4.285E-09   -4.162E-09   -4.038E-09   -3.913E-09   -3.787E-09   -3.661E-09   -3.534E-09   -3.406E-09
    -3.278E-09   -3.149E-09   -3.020E-09   -2.891E-09   -2.761E-09   -2.631E-09   -2.501E-09   -2.371E-09   -2.241E-09   -2.111E-09
    -1.981E-09   -1.851E-09   -1.722E-09   -1.592E-09   -1.464E-09   -1.335E-09   -1.207E-09   -1.080E-09   -9.533E-10   -8.273E-10
    -7.021E-10   -5.777E-10   -4.542E-10   -3.317E-10   -2.102E-10   -8.973E-11    2.956E-11    1.476E-10    2.644E-10    3.798E-10
     4.939E-10    6.064E-10    7.175E-10    8.269E-10    9.346E-10    1.041E-09    1.145E-09    1.247E-09    1.348E-09    1.446E-09
     1.543E-09    1.637E-09    1.729E-09    1.819E-09    1.907E-09    1.992E-09    2.074E-09    2.155E-09    2.232E-09    2.307E-09
     2.380E-09    2.449E-09    2.516E-09    2.580E-09    2.641E-09    2.699E-09    2.754E-09    2.805E-09    2.854E-09    2.899E-09
     2.941E-09    2.980E-09    3.016E-09    3.049E-09    3.079E-09    3.106E-09    3.131E-09    3.152E-09    3.171E-09    3.187E-09
     3.200E-09    3.210E-09    3.218E-09    3.224E-09    3.227E-09    3.227E-09    3.225E-09    3.221E-09    3.215E-09    3.206E-09
     3.195E-09    3.182E-09    3.166E-09    3.149E-09    3.129E-09    3.108E-09    3.085E-09    3.059E-09    3.032E-09    3.003E-09
     2.973E-09    2.940E-09    2.906E-09    2.870E-09    2.833E-09    2.794E-09    2.754E-09    2.712E-09    2.669E-09    2.625E-09
     2.579E-09    2.532E-09    2.484E-09    2.434E-09    2.384E-09    2.332E-09    2.279E-09    2.226E-09    2.171E-09    2.116E-09
     2.060E-09    2.003E-09    1.945E-09    1.887E-09    1.827E-09    1.768E-09    1.707E-09    1.647E-09    1.585E-09    1.524E-09
     1.462E-09    1.399E-09    1.337E-09    1.274E-09    1.210E-09    1.147E-09    1.084E-09    1.020E-09    9.570E-10    8.936E-10
     8.303E-10    7.671E-10    7.040E-10    6.410E-10    5.781E-10    5.153E-10    4.526E-10    3.900E-10    3.275E-10    2.651E-10
     2.028E-10    1.405E-10    7.832E-11    1.622E-11   -4.582E-11   -1.078E-10   -1.697E-10   -2.315E-10   -2.933E-10   -3.550E-10
    -4.166E-10   -4.782E-10   -5.398E-10   -6.013E-10   -6.627E-10   -7.241E-10   -7.855E-10   -8.468E-10   -9.081E-10   -9.694E-10
    -1.031E-09   -1.092E-09   -1.153E-09   -1.214E-09   -1.275E-09   -1.336E-09   -1.398E-09   -1.459E-09   -1.520E-09   -1.581E-09
    -1.642E-09   -1.703E-09   -1.764E-09   -1.825E-09   -1.887E-09   -1.948E-09   -2.009E-09   -2.070E-09   -2.131E-09   -2.192E-09
    -2.254E-09   -2.315E-09   -2.376E-09   -2.438E-09   -2.499E-09   -2.560E-09   -2.622E-09   -2.683E-09   -2.745E-09   -2.807E-09
    -2.868E-09   -2.930E-09   -2.992E-09   -3.054E-09   -3.116E-09   -3.178E-09   -3.240E-09   -3.302E-09   -3.364E-09   -3.426E-09
    -3.489E-09   -3.551E-09   -3.614E-09
   7 lines in following diagnostic table:
   1 ERROR     MYBASI 10                                                  
   4 ERRORS    AREABA  3                                                  
   1 warning   STARTV  5                                                  
   1 info      STARTV 13                                                  
   1 warning   STARTV 25                                                  
   1 info      STARTV 20                                                  
   2 warnings  RBASOL  3                                                  
  79 lines in following table of input changes:
ATTH2O=1.0                                                                
FILH2O='/mnt/c/Users/divya/Downloads/Lexar/DataFo                         
   rDivya/meas_MID01415_FID95676_lb_RosetteSpinEc                         
   ho_ek_v1a_lcm/12x22_ftSpec_smooth_lcm_w'                               
DOWS=T                                                                    
DOECC=T                                                                   
CHRATO(8)='MM9/MM1 = 1.40 +- 0.7'                                         
CHRATO(7)='MM8/MM1 = 0.33 +- 0.17'                                        
CHRATO(6)='MM7/MM1 = 0.54 +- 0.27'                                        
CHRATO(5)='MM6/MM1 = 0.63 +- 0.16'                                        
CHRATO(4)='MM5/MM1 = 3.16 +- 0.79'                                        
CHRATO(3)='MM4/MM1 = 1.29 +- 1.03'                                        
CHRATO(2)='MM3/MM1 = 1.05 +- 0.63'                                        
CHRATO(1)='MM2/MM1 = 0.51 +- 0.17'                                        
NRATIO=8                                                                  
NORATO(7)='-CrCH2/totCr'                                                  
NORATO(6)='MM17/MM09*'                                                    
NORATO(5)='MM14/MM09*'                                                    
NORATO(4)='MM12/MM09*'                                                    
NORATO(3)='MM20/MM09*'                                                    
NORATO(2)='Lip20/Lip13*'                                                  
NORATO(1)='Lip09/Lip13*'                                                  
NNORAT=7                                                                  
CHOMIT(14)='-CrCH2'                                                       
CHOMIT(13)='MM17'                                                         
CHOMIT(12)='MM14'                                                         
CHOMIT(11)='MM12'                                                         
CHOMIT(10)='MM20'                                                         
CHOMIT(9)='Lip20'                                                         
CHOMIT(8)='MM09'                                                          
CHOMIT(7)='Lip09'                                                         
CHOMIT(6)='Lip13d'                                                        
CHOMIT(5)='Lip13c'                                                        
CHOMIT(4)='Lip13b'                                                        
CHOMIT(3)='Lip13a'                                                        
CHOMIT(2)='bHG'                                                           
CHOMIT(1)='bHB'                                                           
NOMIT=14                                                                  
NEACH=999                                                                 
DKNTMN=0.3                                                                
WDLINE(1)=0.025                                                           
RFWHM=0.15                                                                
PPMEND=0.2                                                                
PPMST=4.25                                                                
LPS=8                                                                     
DOREFS(1)=T                                                               
FILPRI='/mnt/c/Users/divya/Downloads/Lexar/DataFo                         
   rDivya/meas_MID01415_FID95676_lb_RosetteSpinEc                         
   ho_ek_v1a_lcm/12x22_ftSpec_smooth_lcm_out/12x2                         
   2_ftSpec_smooth_lcm.print'                                             
LCSV=11                                                                   
LCOORD=9                                                                  
LTABLE=7                                                                  
LPRINT=6                                                                  
ECHOT=20                                                                  
NUNFIL=576                                                                
DELTAT=0.00063000                                                         
HZPPPM=123.25                                                             
FILBAS='/mnt/c/Users/divya/Downloads/linux-send/f                         
   ida2/new/3T_SpinEchoRosetteMRSI_TE20.basis'                            
FILCSV='/mnt/c/Users/divya/Downloads/Lexar/DataFo                         
   rDivya/meas_MID01415_FID95676_lb_RosetteSpinEc                         
   ho_ek_v1a_lcm/12x22_ftSpec_smooth_lcm_out/12x2                         
   2_ftSpec_smooth_lcm.csv'                                               
FILCOO='/mnt/c/Users/divya/Downloads/Lexar/DataFo                         
   rDivya/meas_MID01415_FID95676_lb_RosetteSpinEc                         
   ho_ek_v1a_lcm/12x22_ftSpec_smooth_lcm_out/12x2                         
   2_ftSpec_smooth_lcm.coord'                                             
FILTAB='/mnt/c/Users/divya/Downloads/Lexar/DataFo                         
   rDivya/meas_MID01415_FID95676_lb_RosetteSpinEc                         
   ho_ek_v1a_lcm/12x22_ftSpec_smooth_lcm_out/12x2                         
   2_ftSpec_smooth_lcm.table'                                             
FILPS='/mnt/c/Users/divya/Downloads/Lexar/DataFor                         
   Divya/meas_MID01415_FID95676_lb_RosetteSpinEch                         
   o_ek_v1a_lcm/12x22_ftSpec_smooth_lcm_out/12x22                         
   _ftSpec_smooth_lcm.ps'                                                 
FILRAW='/mnt/c/Users/divya/Downloads/Lexar/DataFo                         
   rDivya/meas_MID01415_FID95676_lb_RosetteSpinEc                         
   ho_ek_v1a_lcm/12x22_ftSpec_smooth_lcm'                                 
