 LCModel (Version 6.3-1R) Copyright: S.W. Provencher.          Ref.: Magn. Reson. Med. 30:672-679 (1993).                
 onepulse 12x23_ftSpec_smooth_lcm
 26 lines in following concentration table = NCONC+1
    Conc.  %SD /Cr+PCr  Metabolite                                         
    0.000 999%   0.000 Ala                                                 
    0.000 999%   0.000 Asp                                                 
    0.000 999%   0.000 Cr                                                  
    0.000 999%   0.000 GABA                                                
 2.77E-10 491%  10.347 Glc                                                 
 1.12E-09 101%  41.900 Gln                                                 
    0.000 999%   0.000 Glu                                                 
    0.000 999%   0.000 Glyc                                                
 1.30E-10 108%   4.849 GPC                                                 
 5.78E-11 999%   2.157 GSH                                                 
 1.67E-09  50%  62.137 Ins                                                 
    0.000 999%   0.000 Lac                                                 
 4.13E-10  82%  15.397 NAAG                                                
    0.000 999%   0.000 NAA                                                 
    0.000 999%   0.000 PCh                                                 
 2.68E-11 999%   1.000 PCr                                                 
    0.000 999%   0.000 PE                                                  
 2.25E-10 149%   8.393 Scyllo                                              
 6.56E-09  19% 244.688 Ser                                                 
    0.000 999%   0.000 Tau                                                 
 1.30E-10 108%   4.849 GPC+PCh                                             
 4.13E-10  82%  15.397 NAA+NAAG                                            
 1.67E-09  50%  62.137 Ins+Glyc                                            
 2.68E-11 999%   1.000 Cr+PCr                                              
 1.12E-09 101%  41.900 Glu+Gln                                             
   6 lines in following misc. output table
  FWHM = 0.101 ppm    S/N =   2                                            
  Data shift = 0.402 ppm                                                   
  Ph: -63 deg     -51.3 deg/ppm                                            
  alphaB,S = 5.4E+01,   5.1E+01                                            
    7 spline knots.   Ns = 5(1)                                            
  (10) 4 infls.   ( 9) 3 extrs.                                            
  363 points on ppm-axis = NY
      4.250000     4.238821     4.227641     4.216462     4.205282     4.194103     4.182923     4.171744     4.160564     4.149385
      4.138206     4.127026     4.115847     4.104667     4.093488     4.082308     4.071129     4.059949     4.048770     4.037591
      4.026411     4.015232     4.004052     3.992873     3.981693     3.970514     3.959334     3.948155     3.936975     3.925796
      3.914617     3.903437     3.892258     3.881078     3.869899     3.858719     3.847540     3.836360     3.825181     3.814002
      3.802822     3.791643     3.780463     3.769284     3.758104     3.746925     3.735745     3.724566     3.713387     3.702207
      3.691028     3.679848     3.668669     3.657489     3.646310     3.635130     3.623951     3.612772     3.601592     3.590413
      3.579233     3.568054     3.556874     3.545695     3.534515     3.523336     3.512156     3.500977     3.489798     3.478618
      3.467439     3.456259     3.445080     3.433900     3.422721     3.411541     3.400362     3.389183     3.378003     3.366824
      3.355644     3.344465     3.333285     3.322106     3.310926     3.299747     3.288568     3.277388     3.266209     3.255029
      3.243850     3.232670     3.221491     3.210311     3.199132     3.187953     3.176773     3.165594     3.154414     3.143235
      3.132055     3.120876     3.109696     3.098517     3.087337     3.076158     3.064979     3.053799     3.042620     3.031440
      3.020261     3.009081     2.997902     2.986722     2.975543     2.964364     2.953184     2.942005     2.930825     2.919646
      2.908466     2.897287     2.886107     2.874928     2.863749     2.852569     2.841390     2.830210     2.819031     2.807851
      2.796672     2.785492     2.774313     2.763134     2.751954     2.740775     2.729595     2.718416     2.707236     2.696057
      2.684877     2.673698     2.662519     2.651339     2.640160     2.628980     2.617801     2.606621     2.595442     2.584262
      2.573083     2.561903     2.550724     2.539545     2.528365     2.517186     2.506006     2.494827     2.483647     2.472468
      2.461288     2.450109     2.438930     2.427750     2.416571     2.405391     2.394212     2.383032     2.371853     2.360673
      2.349494     2.338315     2.327135     2.315956     2.304776     2.293597     2.282417     2.271238     2.260058     2.248879
      2.237700     2.226520     2.215341     2.204161     2.192982     2.181802     2.170623     2.159443     2.148264     2.137084
      2.125905     2.114726     2.103546     2.092367     2.081187     2.070008     2.058828     2.047649     2.036469     2.025290
      2.014111     2.002931     1.991752     1.980572     1.969393     1.958213     1.947034     1.935854     1.924675     1.913496
      1.902316     1.891137     1.879957     1.868778     1.857598     1.846419     1.835239     1.824060     1.812881     1.801701
      1.790522     1.779342     1.768163     1.756983     1.745804     1.734624     1.723445     1.712265     1.701086     1.689907
      1.678727     1.667548     1.656368     1.645189     1.634009     1.622830     1.611650     1.600471     1.589292     1.578112
      1.566933     1.555753     1.544574     1.533394     1.522215     1.511035     1.499856     1.488677     1.477497     1.466318
      1.455138     1.443959     1.432779     1.421600     1.410420     1.399241     1.388062     1.376882     1.365703     1.354523
      1.343344     1.332164     1.320985     1.309805     1.298626     1.287446     1.276267     1.265088     1.253908     1.242729
      1.231549     1.220370     1.209190     1.198011     1.186831     1.175652     1.164473     1.153293     1.142114     1.130934
      1.119755     1.108575     1.097396     1.086216     1.075037     1.063858     1.052678     1.041499     1.030319     1.019140
      1.007960     0.996781     0.985601     0.974422     0.963243     0.952063     0.940884     0.929704     0.918525     0.907345
      0.896166     0.884986     0.873807     0.862628     0.851448     0.840269     0.829089     0.817910     0.806730     0.795551
      0.784371     0.773192     0.762012     0.750833     0.739654     0.728474     0.717295     0.706115     0.694936     0.683756
      0.672577     0.661397     0.650218     0.639039     0.627859     0.616680     0.605500     0.594321     0.583141     0.571962
      0.560782     0.549603     0.538424     0.527244     0.516065     0.504885     0.493706     0.482526     0.471347     0.460167
      0.448988     0.437809     0.426629     0.415450     0.404270     0.393091     0.381911     0.370732     0.359552     0.348373
      0.337193     0.326014     0.314835     0.303655     0.292476     0.281296     0.270117     0.258937     0.247758     0.236578
      0.225399     0.214220     0.203040
 NY phased data points follow
   1.45344E-08  1.31293E-08  1.35652E-08  1.27042E-08  1.31867E-08  1.24589E-08  1.26462E-08  1.22006E-08  1.26403E-08  1.22897E-08
   1.26478E-08  1.27704E-08  1.32264E-08  1.26259E-08  1.27549E-08  1.26637E-08  1.28862E-08  1.27409E-08  1.22017E-08  1.23214E-08
   1.22825E-08  1.27358E-08  1.25618E-08  1.24570E-08  1.20541E-08  1.16866E-08  1.21253E-08  1.22360E-08  1.32100E-08  1.33095E-08
   1.42964E-08  1.37256E-08  1.30360E-08  1.27802E-08  1.25483E-08  1.19851E-08  1.18496E-08  1.18485E-08  1.15455E-08  1.08399E-08
   1.09865E-08  1.01904E-08  1.03885E-08  9.95281E-09  9.71759E-09  8.86751E-09  9.45961E-09  8.99009E-09  9.36970E-09  8.50419E-09
   8.60396E-09  8.09755E-09  8.68561E-09  8.00549E-09  8.01489E-09  7.96367E-09  8.49880E-09  7.89548E-09  8.70547E-09  9.57396E-09
   1.01704E-08  1.07358E-08  1.09495E-08  1.08796E-08  1.07141E-08  1.00622E-08  9.56437E-09  9.24575E-09  8.52130E-09  8.38297E-09
   7.63368E-09  7.11779E-09  7.56041E-09  7.26494E-09  8.36251E-09  9.09241E-09  1.11816E-08  1.23621E-08  1.34060E-08  1.32164E-08
   1.37219E-08  1.33356E-08  1.36932E-08  1.34063E-08  1.29652E-08  1.29710E-08  1.28158E-08  1.22797E-08  1.25755E-08  1.15466E-08
   1.14700E-08  1.13925E-08  1.14922E-08  1.10940E-08  1.08083E-08  1.01075E-08  1.01960E-08  1.00075E-08  9.49131E-09  9.70081E-09
   9.63111E-09  9.73678E-09  9.32789E-09  8.62528E-09  8.84277E-09  8.17346E-09  7.70740E-09  7.23943E-09  7.26443E-09  6.61097E-09
   6.52351E-09  6.75146E-09  6.49209E-09  6.39297E-09  6.17115E-09  6.08347E-09  6.28961E-09  6.44071E-09  6.08122E-09  6.13584E-09
   5.41121E-09  5.22363E-09  4.95782E-09  4.70619E-09  5.25724E-09  4.71868E-09  5.05221E-09  4.72115E-09  4.68611E-09  4.97578E-09
   4.99162E-09  4.94507E-09  5.29849E-09  4.75454E-09  4.91527E-09  4.79952E-09  5.77489E-09  5.93522E-09  6.05305E-09  6.68634E-09
   7.07448E-09  7.11036E-09  7.85597E-09  8.15020E-09  7.99178E-09  8.75901E-09  9.18995E-09  8.73229E-09  9.08620E-09  9.52358E-09
   9.38646E-09  9.44343E-09  9.61171E-09  9.38644E-09  9.61463E-09  9.61363E-09  9.98978E-09  1.03338E-08  1.00123E-08  1.02622E-08
   1.07849E-08  1.03545E-08  1.08544E-08  1.11745E-08  1.23844E-08  1.32547E-08  1.44226E-08  1.70263E-08  1.88548E-08  2.01530E-08
   2.06827E-08  2.11314E-08  2.07376E-08  2.08008E-08  2.06469E-08  2.04569E-08  2.01738E-08  2.06968E-08  1.99710E-08  1.94196E-08
   1.93146E-08  1.90562E-08  1.81757E-08  1.80395E-08  1.68110E-08  1.62355E-08  1.55556E-08  1.36836E-08  1.27495E-08  1.04773E-08
   8.24532E-09  5.81055E-09  3.22118E-09  6.56479E-11 -3.24062E-09 -5.84332E-09 -9.26972E-09 -1.27601E-08 -1.46758E-08 -1.77634E-08
  -1.97834E-08 -2.06695E-08 -2.19067E-08 -2.11252E-08 -2.03537E-08 -1.88999E-08 -1.68518E-08 -1.47666E-08 -1.24316E-08 -1.01566E-08
  -7.95805E-09 -5.65962E-09 -5.31028E-09 -4.02090E-09 -3.29999E-09 -2.95708E-09 -3.74270E-09 -3.23741E-09 -3.00894E-09 -3.11468E-09
  -3.15591E-09 -2.58696E-09 -2.78076E-09 -2.02493E-09 -2.48600E-09 -2.17110E-09 -2.10787E-09 -2.86133E-09 -2.76620E-09 -2.95004E-09
  -2.30471E-09 -2.30834E-09 -2.24690E-09 -2.22607E-09 -2.34621E-09 -1.90203E-09 -1.68650E-09 -1.76937E-09 -2.05004E-09 -1.39271E-09
  -2.32036E-09 -2.25653E-09 -2.42929E-09 -2.44750E-09 -2.41631E-09 -2.08336E-09 -1.99225E-09 -1.50154E-09 -1.24586E-09 -1.10989E-09
  -1.37006E-09 -1.25689E-09 -1.30975E-09 -1.27474E-09 -1.05023E-09 -1.33406E-09 -1.44127E-09 -1.44636E-09 -2.22746E-09 -2.32108E-09
  -2.56190E-09 -2.55582E-09 -2.67089E-09 -2.05736E-09 -2.17996E-09 -2.15148E-09 -2.24332E-09 -1.60500E-09 -1.82759E-09 -1.00742E-09
  -1.39539E-09 -7.89078E-10 -7.22393E-10 -8.92357E-10 -4.85841E-10 -8.43096E-10 -7.26717E-10 -4.55220E-10 -7.00962E-10 -5.84397E-10
  -1.11364E-09 -9.92061E-10 -8.61338E-10 -1.16522E-09 -1.02030E-09 -1.55144E-09 -1.73526E-09 -1.56736E-09 -1.50908E-09 -1.75129E-09
  -1.80038E-09 -1.44945E-09 -1.53095E-09 -1.93178E-09 -2.01599E-09 -2.37882E-09 -2.36737E-09 -1.74718E-09 -2.55173E-09 -2.22559E-09
  -2.72172E-09 -2.23205E-09 -2.79105E-09 -2.64553E-09 -2.73126E-09 -2.60843E-09 -2.50451E-09 -2.53141E-09 -2.63272E-09 -2.86109E-09
  -2.93173E-09 -2.30371E-09 -2.68549E-09 -2.70650E-09 -2.27326E-09 -2.80064E-09 -2.41104E-09 -2.55907E-09 -2.82681E-09 -2.76260E-09
  -2.36480E-09 -2.33600E-09 -2.72911E-09 -2.85298E-09 -2.96259E-09 -2.79445E-09 -2.59720E-09 -2.51355E-09 -2.50654E-09 -2.82258E-09
  -3.08933E-09 -2.27260E-09 -2.73974E-09 -2.77736E-09 -2.38258E-09 -2.51032E-09 -2.87859E-09 -2.32747E-09 -2.59820E-09 -2.51299E-09
  -2.38457E-09 -2.40376E-09 -2.25278E-09 -2.21930E-09 -2.38735E-09 -2.46283E-09 -2.42852E-09 -2.49348E-09 -2.26318E-09 -1.98564E-09
  -2.24220E-09 -2.63937E-09 -2.66128E-09 -2.47835E-09 -2.48052E-09 -2.05273E-09 -2.20010E-09 -2.21384E-09 -2.26269E-09 -1.96377E-09
  -2.35525E-09 -2.31512E-09 -2.24226E-09
 NY points of the fit to the data follow
   1.21018E-08  1.39418E-08  1.42906E-08  1.39923E-08  1.42838E-08  1.46227E-08  1.41570E-08  1.28214E-08  1.14351E-08  1.07720E-08
   1.07149E-08  1.10445E-08  1.15299E-08  1.21440E-08  1.27761E-08  1.31742E-08  1.33095E-08  1.33899E-08  1.33545E-08  1.28371E-08
   1.22492E-08  1.18775E-08  1.16154E-08  1.13826E-08  1.14860E-08  1.19909E-08  1.26791E-08  1.32356E-08  1.33962E-08  1.32107E-08
   1.32686E-08  1.33859E-08  1.33846E-08  1.31787E-08  1.27071E-08  1.20431E-08  1.15057E-08  1.10967E-08  1.07801E-08  1.05277E-08
   1.03173E-08  1.01373E-08  9.96371E-09  9.79787E-09  9.64349E-09  9.47838E-09  9.31713E-09  9.16226E-09  9.01788E-09  8.89680E-09
   8.78072E-09  8.67238E-09  8.55438E-09  8.42988E-09  8.39860E-09  8.53357E-09  8.68311E-09  8.90396E-09  9.24918E-09  9.61373E-09
   9.92791E-09  1.02318E-08  1.04982E-08  1.06838E-08  1.07046E-08  1.05615E-08  1.03706E-08  1.01298E-08  9.75290E-09  9.44836E-09
   9.25145E-09  9.17189E-09  9.22482E-09  9.32504E-09  9.46510E-09  9.70674E-09  1.03540E-08  1.12597E-08  1.21750E-08  1.29264E-08
   1.34632E-08  1.37883E-08  1.39513E-08  1.40957E-08  1.41014E-08  1.37332E-08  1.30339E-08  1.22001E-08  1.16555E-08  1.12707E-08
   1.09686E-08  1.07196E-08  1.05062E-08  1.03174E-08  1.01447E-08  9.98688E-09  9.84482E-09  9.71258E-09  9.58311E-09  9.45558E-09
   9.33932E-09  9.23400E-09  9.13119E-09  9.02870E-09  8.93092E-09  8.83748E-09  8.74746E-09  8.66021E-09  8.57505E-09  8.49172E-09
   8.40993E-09  8.32947E-09  8.25011E-09  8.17167E-09  8.09399E-09  8.01693E-09  7.94038E-09  7.86420E-09  7.78836E-09  7.71273E-09
   7.63727E-09  7.56191E-09  7.48659E-09  7.41127E-09  7.33592E-09  7.26047E-09  7.18492E-09  7.10922E-09  7.03337E-09  6.95736E-09
   6.88112E-09  6.80468E-09  6.72802E-09  6.65115E-09  6.57404E-09  6.49672E-09  6.41911E-09  6.34131E-09  6.26330E-09  6.18507E-09
   6.10666E-09  6.02807E-09  5.94934E-09  5.87052E-09  5.79158E-09  5.71262E-09  5.63369E-09  5.55484E-09  5.47617E-09  5.39775E-09
   5.31979E-09  5.24239E-09  5.16578E-09  5.09026E-09  5.01619E-09  4.94406E-09  4.87457E-09  4.80872E-09  4.74794E-09  4.69438E-09
   4.65146E-09  4.62487E-09  4.62486E-09  4.67152E-09  4.81108E-09  5.17563E-09  6.32779E-09  1.04201E-08  1.56745E-08  1.99955E-08
   2.26612E-08  2.39271E-08  2.43722E-08  2.43553E-08  2.37055E-08  2.17708E-08  1.78924E-08  1.22580E-08  6.79508E-09  4.63844E-09
   3.85971E-09  3.43766E-09  3.15457E-09  2.93974E-09  2.76338E-09  2.61080E-09  2.47390E-09  2.34787E-09  2.22968E-09  2.11733E-09
   2.00948E-09  1.90513E-09  1.80361E-09  1.70439E-09  1.60711E-09  1.51146E-09  1.41722E-09  1.32421E-09  1.23231E-09  1.14140E-09
   1.05138E-09  9.62193E-10  8.73810E-10  7.86157E-10  6.99197E-10  6.12934E-10  5.27320E-10  4.42357E-10  3.58017E-10  2.74310E-10
   1.91229E-10  1.08758E-10  2.69048E-11 -5.43289E-11 -1.34947E-10 -2.14920E-10 -2.94273E-10 -3.72993E-10 -4.51067E-10 -5.28480E-10
  -6.05239E-10 -6.81318E-10 -7.56731E-10 -8.31439E-10 -9.05456E-10 -9.78752E-10 -1.05135E-09 -1.12318E-09 -1.19429E-09 -1.26464E-09
  -1.33423E-09 -1.40303E-09 -1.47106E-09 -1.53827E-09 -1.60467E-09 -1.67026E-09 -1.73500E-09 -1.79890E-09 -1.86193E-09 -1.92409E-09
  -1.98538E-09 -2.04575E-09 -2.10523E-09 -2.16379E-09 -2.22142E-09 -2.27811E-09 -2.33384E-09 -2.38860E-09 -2.44239E-09 -2.49518E-09
  -2.54698E-09 -2.59777E-09 -2.64753E-09 -2.69628E-09 -2.74396E-09 -2.79061E-09 -2.83618E-09 -2.88067E-09 -2.92408E-09 -2.96640E-09
  -3.00760E-09 -3.04770E-09 -3.08667E-09 -3.12448E-09 -3.16116E-09 -3.19669E-09 -3.23106E-09 -3.26424E-09 -3.29625E-09 -3.32703E-09
  -3.35666E-09 -3.38504E-09 -3.41222E-09 -3.43817E-09 -3.46288E-09 -3.48634E-09 -3.50856E-09 -3.52951E-09 -3.54919E-09 -3.56760E-09
  -3.58472E-09 -3.60056E-09 -3.61510E-09 -3.62833E-09 -3.64025E-09 -3.65085E-09 -3.66013E-09 -3.66808E-09 -3.67469E-09 -3.67996E-09
  -3.68388E-09 -3.68645E-09 -3.68765E-09 -3.68749E-09 -3.68597E-09 -3.68306E-09 -3.67878E-09 -3.67311E-09 -3.66606E-09 -3.65761E-09
  -3.64776E-09 -3.63652E-09 -3.62386E-09 -3.60981E-09 -3.59434E-09 -3.57745E-09 -3.55915E-09 -3.53943E-09 -3.51829E-09 -3.49572E-09
  -3.47173E-09 -3.44631E-09 -3.41945E-09 -3.39116E-09 -3.36144E-09 -3.33029E-09 -3.29770E-09 -3.26367E-09 -3.22820E-09 -3.19130E-09
  -3.15296E-09 -3.11318E-09 -3.07196E-09 -3.02930E-09 -2.98521E-09 -2.93968E-09 -2.89271E-09 -2.84431E-09 -2.79447E-09 -2.74321E-09
  -2.69051E-09 -2.63639E-09 -2.58084E-09 -2.52386E-09 -2.46547E-09 -2.40565E-09 -2.34442E-09 -2.28177E-09 -2.21772E-09 -2.15226E-09
  -2.08539E-09 -2.01713E-09 -1.94748E-09 -1.87643E-09 -1.80399E-09 -1.73018E-09 -1.65499E-09 -1.57842E-09 -1.50049E-09 -1.42120E-09
  -1.34055E-09 -1.25855E-09 -1.17521E-09 -1.09053E-09 -1.00452E-09 -9.17187E-10 -8.28534E-10 -7.38570E-10 -6.47301E-10 -5.54735E-10
  -4.60881E-10 -3.65744E-10 -2.69335E-10
 NY background values follow
     8.590E-10    9.912E-10    1.122E-09    1.252E-09    1.380E-09    1.507E-09    1.632E-09    1.756E-09    1.879E-09    2.000E-09
     2.120E-09    2.238E-09    2.355E-09    2.471E-09    2.585E-09    2.697E-09    2.808E-09    2.918E-09    3.026E-09    3.133E-09
     3.238E-09    3.342E-09    3.444E-09    3.545E-09    3.644E-09    3.742E-09    3.838E-09    3.933E-09    4.026E-09    4.118E-09
     4.208E-09    4.297E-09    4.384E-09    4.469E-09    4.553E-09    4.636E-09    4.717E-09    4.796E-09    4.874E-09    4.950E-09
     5.025E-09    5.098E-09    5.170E-09    5.240E-09    5.308E-09    5.375E-09    5.440E-09    5.504E-09    5.566E-09    5.627E-09
     5.686E-09    5.744E-09    5.800E-09    5.854E-09    5.907E-09    5.959E-09    6.008E-09    6.057E-09    6.103E-09    6.148E-09
     6.192E-09    6.234E-09    6.275E-09    6.314E-09    6.351E-09    6.387E-09    6.422E-09    6.455E-09    6.486E-09    6.516E-09
     6.544E-09    6.571E-09    6.596E-09    6.620E-09    6.643E-09    6.664E-09    6.683E-09    6.701E-09    6.718E-09    6.733E-09
     6.746E-09    6.758E-09    6.769E-09    6.779E-09    6.786E-09    6.793E-09    6.798E-09    6.801E-09    6.804E-09    6.805E-09
     6.804E-09    6.802E-09    6.799E-09    6.794E-09    6.788E-09    6.781E-09    6.772E-09    6.763E-09    6.751E-09    6.739E-09
     6.725E-09    6.710E-09    6.694E-09    6.676E-09    6.657E-09    6.637E-09    6.616E-09    6.593E-09    6.569E-09    6.544E-09
     6.518E-09    6.491E-09    6.462E-09    6.433E-09    6.402E-09    6.370E-09    6.337E-09    6.303E-09    6.268E-09    6.232E-09
     6.194E-09    6.156E-09    6.117E-09    6.076E-09    6.035E-09    5.992E-09    5.949E-09    5.904E-09    5.859E-09    5.813E-09
     5.765E-09    5.717E-09    5.668E-09    5.618E-09    5.568E-09    5.516E-09    5.463E-09    5.410E-09    5.356E-09    5.301E-09
     5.245E-09    5.188E-09    5.131E-09    5.073E-09    5.014E-09    4.955E-09    4.895E-09    4.834E-09    4.772E-09    4.710E-09
     4.647E-09    4.584E-09    4.520E-09    4.455E-09    4.390E-09    4.324E-09    4.258E-09    4.191E-09    4.124E-09    4.056E-09
     3.987E-09    3.919E-09    3.849E-09    3.780E-09    3.710E-09    3.639E-09    3.568E-09    3.497E-09    3.426E-09    3.354E-09
     3.282E-09    3.209E-09    3.136E-09    3.063E-09    2.990E-09    2.916E-09    2.843E-09    2.769E-09    2.695E-09    2.620E-09
     2.546E-09    2.471E-09    2.397E-09    2.322E-09    2.247E-09    2.172E-09    2.097E-09    2.022E-09    1.947E-09    1.872E-09
     1.797E-09    1.722E-09    1.647E-09    1.572E-09    1.497E-09    1.423E-09    1.348E-09    1.274E-09    1.200E-09    1.126E-09
     1.052E-09    9.780E-10    9.045E-10    8.313E-10    7.583E-10    6.856E-10    6.131E-10    5.410E-10    4.692E-10    3.977E-10
     3.265E-10    2.557E-10    1.853E-10    1.153E-10    4.572E-11   -2.344E-11   -9.217E-11   -1.604E-10   -2.283E-10   -2.956E-10
    -3.624E-10   -4.287E-10   -4.944E-10   -5.596E-10   -6.243E-10   -6.883E-10   -7.518E-10   -8.146E-10   -8.768E-10   -9.384E-10
    -9.994E-10   -1.060E-09   -1.119E-09   -1.178E-09   -1.236E-09   -1.294E-09   -1.350E-09   -1.406E-09   -1.462E-09   -1.516E-09
    -1.570E-09   -1.623E-09   -1.675E-09   -1.726E-09   -1.776E-09   -1.825E-09   -1.874E-09   -1.922E-09   -1.969E-09   -2.014E-09
    -2.059E-09   -2.103E-09   -2.147E-09   -2.189E-09   -2.230E-09   -2.270E-09   -2.309E-09   -2.347E-09   -2.385E-09   -2.421E-09
    -2.456E-09   -2.490E-09   -2.523E-09   -2.555E-09   -2.586E-09   -2.615E-09   -2.644E-09   -2.672E-09   -2.698E-09   -2.723E-09
    -2.747E-09   -2.770E-09   -2.792E-09   -2.813E-09   -2.832E-09   -2.851E-09   -2.868E-09   -2.884E-09   -2.898E-09   -2.912E-09
    -2.924E-09   -2.935E-09   -2.945E-09   -2.954E-09   -2.961E-09   -2.967E-09   -2.972E-09   -2.975E-09   -2.977E-09   -2.978E-09
    -2.978E-09   -2.976E-09   -2.973E-09   -2.969E-09   -2.963E-09   -2.956E-09   -2.948E-09   -2.938E-09   -2.927E-09   -2.915E-09
    -2.901E-09   -2.886E-09   -2.870E-09   -2.852E-09   -2.833E-09   -2.813E-09   -2.791E-09   -2.768E-09   -2.743E-09   -2.717E-09
    -2.690E-09   -2.661E-09   -2.631E-09   -2.600E-09   -2.567E-09   -2.533E-09   -2.497E-09   -2.460E-09   -2.422E-09   -2.382E-09
    -2.341E-09   -2.298E-09   -2.254E-09   -2.209E-09   -2.162E-09   -2.114E-09   -2.064E-09   -2.013E-09   -1.961E-09   -1.907E-09
    -1.852E-09   -1.795E-09   -1.738E-09   -1.678E-09   -1.618E-09   -1.556E-09   -1.492E-09   -1.428E-09   -1.361E-09   -1.294E-09
    -1.225E-09   -1.155E-09   -1.083E-09   -1.010E-09   -9.361E-10   -8.605E-10   -7.836E-10   -7.053E-10   -6.257E-10   -5.448E-10
    -4.626E-10   -3.790E-10   -2.942E-10   -2.081E-10   -1.206E-10   -3.190E-11    5.809E-11    1.494E-10    2.419E-10    3.357E-10
     4.307E-10    5.270E-10    6.245E-10
 Glc      Conc. = 2.77E-10
   4.37775E-10  6.65857E-10  8.92318E-10  1.12252E-09  1.34276E-09  1.55288E-09  1.73431E-09  1.88786E-09  2.00199E-09  2.07127E-09
   2.13405E-09  2.19904E-09  2.26519E-09  2.34854E-09  2.48328E-09  2.67536E-09  2.90848E-09  3.16381E-09  3.40911E-09  3.63437E-09
   3.85746E-09  4.07258E-09  4.26028E-09  4.41107E-09  4.50136E-09  4.53094E-09  4.55456E-09  4.60063E-09  4.66801E-09  4.74681E-09
   4.82101E-09  4.88937E-09  4.95972E-09  5.02381E-09  5.07659E-09  5.13069E-09  5.18691E-09  5.23771E-09  5.28592E-09  5.33697E-09
   5.39014E-09  5.44440E-09  5.49925E-09  5.55425E-09  5.60911E-09  5.66361E-09  5.71757E-09  5.77088E-09  5.82339E-09  5.87501E-09
   5.92571E-09  5.97537E-09  6.02395E-09  6.07144E-09  6.11775E-09  6.16286E-09  6.20675E-09  6.24940E-09  6.29076E-09  6.33082E-09
   6.36958E-09  6.40702E-09  6.44314E-09  6.47790E-09  6.51129E-09  6.54334E-09  6.57402E-09  6.60330E-09  6.63121E-09  6.65773E-09
   6.68288E-09  6.70664E-09  6.72897E-09  6.74996E-09  6.76953E-09  6.78772E-09  6.80451E-09  6.81992E-09  6.83392E-09  6.84655E-09
   6.85779E-09  6.86765E-09  6.87617E-09  6.88330E-09  6.88906E-09  6.89347E-09  6.89648E-09  6.89815E-09  6.89853E-09  6.89753E-09
   6.89518E-09  6.89147E-09  6.88648E-09  6.88018E-09  6.87258E-09  6.86367E-09  6.85348E-09  6.84201E-09  6.82925E-09  6.81524E-09
   6.79996E-09  6.78344E-09  6.76567E-09  6.74668E-09  6.72645E-09  6.70503E-09  6.68240E-09  6.65857E-09  6.63356E-09  6.60739E-09
   6.58005E-09  6.55155E-09  6.52192E-09  6.49116E-09  6.45929E-09  6.42631E-09  6.39224E-09  6.35706E-09  6.32085E-09  6.28355E-09
   6.24521E-09  6.20584E-09  6.16545E-09  6.12404E-09  6.08165E-09  6.03826E-09  5.99390E-09  5.94858E-09  5.90231E-09  5.85514E-09
   5.80701E-09  5.75800E-09  5.70809E-09  5.65731E-09  5.60566E-09  5.55319E-09  5.49983E-09  5.44568E-09  5.39073E-09  5.33497E-09
   5.27845E-09  5.22117E-09  5.16314E-09  5.10440E-09  5.04491E-09  4.98473E-09  4.92388E-09  4.86235E-09  4.80017E-09  4.73733E-09
   4.67393E-09  4.60990E-09  4.54529E-09  4.48014E-09  4.41447E-09  4.34827E-09  4.28161E-09  4.21452E-09  4.14706E-09  4.07929E-09
   4.01131E-09  3.94329E-09  3.87556E-09  3.80864E-09  3.74408E-09  3.68618E-09  3.65583E-09  3.71362E-09  3.78742E-09  3.82674E-09
   3.81973E-09  3.77738E-09  3.71597E-09  3.64308E-09  3.55089E-09  3.41955E-09  3.23267E-09  3.00203E-09  2.79059E-09  2.67751E-09
   2.58761E-09  2.50467E-09  2.42465E-09  2.34610E-09  2.26841E-09  2.19124E-09  2.11443E-09  2.03788E-09  1.96152E-09  1.88532E-09
   1.80927E-09  1.73335E-09  1.65755E-09  1.58189E-09  1.50637E-09  1.43100E-09  1.35578E-09  1.28073E-09  1.20587E-09  1.13120E-09
   1.05673E-09  9.82477E-10  9.08479E-10  8.34722E-10  7.61216E-10  6.88009E-10  6.15086E-10  5.42479E-10  4.70188E-10  3.98245E-10
   3.26663E-10  2.55445E-10  1.84615E-10  1.14188E-10  4.41712E-11 -2.53943E-11 -9.45219E-11 -1.63191E-10 -2.31380E-10 -2.99067E-10
  -3.66252E-10 -4.32903E-10 -4.99029E-10 -5.64585E-10 -6.29580E-10 -6.93981E-10 -7.57810E-10 -8.20981E-10 -8.83551E-10 -9.45477E-10
  -1.00675E-09 -1.06734E-09 -1.12726E-09 -1.18646E-09 -1.24496E-09 -1.30273E-09 -1.35976E-09 -1.41603E-09 -1.47152E-09 -1.52624E-09
  -1.58016E-09 -1.63326E-09 -1.68555E-09 -1.73701E-09 -1.78762E-09 -1.83736E-09 -1.88622E-09 -1.93419E-09 -1.98127E-09 -2.02743E-09
  -2.07267E-09 -2.11697E-09 -2.16031E-09 -2.20272E-09 -2.24413E-09 -2.28457E-09 -2.32400E-09 -2.36243E-09 -2.39984E-09 -2.43623E-09
  -2.47156E-09 -2.50585E-09 -2.53909E-09 -2.57122E-09 -2.60230E-09 -2.63227E-09 -2.66116E-09 -2.68892E-09 -2.71556E-09 -2.74103E-09
  -2.76542E-09 -2.78861E-09 -2.81067E-09 -2.83155E-09 -2.85125E-09 -2.86976E-09 -2.88708E-09 -2.90319E-09 -2.91809E-09 -2.93177E-09
  -2.94422E-09 -2.95544E-09 -2.96541E-09 -2.97413E-09 -2.98160E-09 -2.98780E-09 -2.99272E-09 -2.99637E-09 -2.99874E-09 -2.99981E-09
  -2.99958E-09 -2.99805E-09 -2.99522E-09 -2.99107E-09 -2.98560E-09 -2.97880E-09 -2.97067E-09 -2.96121E-09 -2.95041E-09 -2.93826E-09
  -2.92477E-09 -2.90992E-09 -2.89372E-09 -2.87615E-09 -2.85723E-09 -2.83693E-09 -2.81527E-09 -2.79223E-09 -2.76781E-09 -2.74202E-09
  -2.71484E-09 -2.68629E-09 -2.65634E-09 -2.62501E-09 -2.59229E-09 -2.55818E-09 -2.52268E-09 -2.48578E-09 -2.44750E-09 -2.40781E-09
  -2.36674E-09 -2.32427E-09 -2.28040E-09 -2.23514E-09 -2.18848E-09 -2.14043E-09 -2.09099E-09 -2.04015E-09 -1.98792E-09 -1.93430E-09
  -1.87930E-09 -1.82291E-09 -1.76513E-09 -1.70597E-09 -1.64543E-09 -1.58351E-09 -1.52021E-09 -1.45555E-09 -1.38951E-09 -1.32211E-09
  -1.25334E-09 -1.18322E-09 -1.11174E-09 -1.03891E-09 -9.64734E-10 -8.89214E-10 -8.12357E-10 -7.34168E-10 -6.54651E-10 -5.73812E-10
  -4.91656E-10 -4.08188E-10 -3.23415E-10 -2.37343E-10 -1.49977E-10 -6.13241E-11  2.86087E-11  1.19815E-10  2.12287E-10  3.06019E-10
   4.01003E-10  4.97231E-10  5.94696E-10
 Gln      Conc. = 1.12E-09
  -2.12798E-10  3.26430E-11  3.49739E-10  7.30623E-10  1.14403E-09  1.55673E-09  1.93735E-09  2.25891E-09  2.51598E-09  2.74871E-09
   2.86407E-09  2.91726E-09  2.96985E-09  2.95587E-09  2.96389E-09  2.99432E-09  3.03941E-09  3.09413E-09  3.15538E-09  3.22110E-09
   3.28986E-09  3.36063E-09  3.43266E-09  3.50541E-09  3.57856E-09  3.65179E-09  3.72465E-09  3.79701E-09  3.86863E-09  3.93927E-09
   4.00872E-09  4.07686E-09  4.14354E-09  4.20862E-09  4.27198E-09  4.33351E-09  4.39305E-09  4.45048E-09  4.50560E-09  4.55829E-09
   4.60837E-09  4.65564E-09  4.69999E-09  4.74119E-09  4.77885E-09  4.81272E-09  4.84233E-09  4.86682E-09  4.88596E-09  4.89952E-09
   4.90597E-09  4.90480E-09  4.89746E-09  4.89361E-09  4.96729E-09  5.17350E-09  5.38707E-09  5.66735E-09  6.08694E-09  6.56265E-09
   7.01544E-09  7.44794E-09  7.82141E-09  8.08585E-09  8.20306E-09  8.17461E-09  8.08076E-09  7.92646E-09  7.61509E-09  7.32554E-09
   7.11534E-09  6.98300E-09  6.94544E-09  6.97223E-09  7.11565E-09  7.38170E-09  7.67929E-09  8.00268E-09  8.33284E-09  8.63727E-09
   8.88668E-09  9.03429E-09  9.05754E-09  9.04096E-09  8.95688E-09  8.75059E-09  8.56578E-09  8.40417E-09  8.21464E-09  8.05935E-09
   7.93784E-09  7.83900E-09  7.75617E-09  7.68428E-09  7.61993E-09  7.56161E-09  7.50802E-09  7.45797E-09  7.41077E-09  7.36580E-09
   7.32241E-09  7.28014E-09  7.23873E-09  7.19798E-09  7.15770E-09  7.11770E-09  7.07776E-09  7.03778E-09  6.99765E-09  6.95729E-09
   6.91660E-09  6.87553E-09  6.83401E-09  6.79201E-09  6.74948E-09  6.70639E-09  6.66270E-09  6.61836E-09  6.57340E-09  6.52776E-09
   6.48144E-09  6.43443E-09  6.38672E-09  6.33829E-09  6.28915E-09  6.23928E-09  6.18869E-09  6.13736E-09  6.08531E-09  6.03254E-09
   5.97903E-09  5.92481E-09  5.86987E-09  5.81422E-09  5.75786E-09  5.70083E-09  5.64305E-09  5.58461E-09  5.52551E-09  5.46572E-09
   5.40530E-09  5.34422E-09  5.28251E-09  5.22021E-09  5.15726E-09  5.09373E-09  5.02962E-09  4.96495E-09  4.89974E-09  4.83398E-09
   4.76777E-09  4.70106E-09  4.63390E-09  4.56636E-09  4.49847E-09  4.43027E-09  4.36185E-09  4.29334E-09  4.22490E-09  4.15675E-09
   4.08926E-09  4.02310E-09  3.95943E-09  3.90057E-09  3.85240E-09  3.83257E-09  3.92542E-09  4.37503E-09  4.89090E-09  5.26863E-09
   5.45992E-09  5.50929E-09  5.48224E-09  5.40943E-09  5.25916E-09  4.95144E-09  4.41986E-09  3.71207E-09  3.08249E-09  2.85030E-09
   2.71289E-09  2.60410E-09  2.50754E-09  2.41731E-09  2.33081E-09  2.24667E-09  2.16412E-09  2.08270E-09  2.00213E-09  1.92221E-09
   1.84283E-09  1.76388E-09  1.68530E-09  1.60706E-09  1.52913E-09  1.45149E-09  1.37414E-09  1.29705E-09  1.22025E-09  1.14371E-09
   1.06746E-09  9.91482E-10  9.15822E-10  8.40455E-10  7.65390E-10  6.90666E-10  6.16269E-10  5.42226E-10  4.68534E-10  3.95224E-10
   3.22305E-10  2.49780E-10  1.77670E-10  1.05989E-10  3.47432E-11 -3.60278E-11 -1.06338E-10 -1.76169E-10 -2.45498E-10 -3.14306E-10
  -3.82593E-10 -4.50328E-10 -5.17521E-10 -5.84127E-10 -6.50156E-10 -7.15574E-10 -7.80406E-10 -8.44563E-10 -9.08107E-10 -9.70992E-10
