 LCModel (Version 6.3-1R) Copyright: S.W. Provencher.          Ref.: Magn. Reson. Med. 30:672-679 (1993).                
 onepulse 12x24_ftSpec_smooth_lcm
 26 lines in following concentration table = NCONC+1
    Conc.  %SD   /Cr    Metabolite                                         
    0.000 999%   0.000 Ala                                                 
    0.000 999%   0.000 Asp                                                 
    0.000 999%   0.000 Cr                                                  
    0.000 999%   0.000 GABA                                                
    0.000 999%   0.000 Glc                                                 
    0.000 999%   0.000 Gln                                                 
    0.000 999%   0.000 Glu                                                 
    0.000 999%   0.000 Glyc                                                
    0.000 999%   0.000 GPC                                                 
    0.000 999%   0.000 GSH                                                 
    0.000 999%   0.000 Ins                                                 
    0.000 999%   0.000 Lac                                                 
    0.000 999%   0.000 NAAG                                                
    0.000 999%   0.000 NAA                                                 
    0.000 999%   0.000 PCh                                                 
    0.000 999%   0.000 PCr                                                 
    0.000 999%   0.000 PE                                                  
    0.000 999%   0.000 Scyllo                                              
    0.000 999%   0.000 Ser                                                 
    0.000 999%   0.000 Tau                                                 
    0.000 999%   0.000 GPC+PCh                                             
    0.000 999%   0.000 NAA+NAAG                                            
    0.000 999%   0.000 Ins+Glyc                                            
    0.000 999%   0.000 Cr+PCr                                              
    0.000 999%   0.000 Glu+Gln                                             
   6 lines in following misc. output table
  FWHM = 0.078 ppm    S/N =   0                                            
  Data shift = 0.224 ppm                                                   
  Ph: -92 deg      30.4 deg/ppm                                            
  alphaB,S = 9.6E-01,   4.0E-01                                            
    8 spline knots.   Ns = 5(1)                                            
   2 inflections.     1 extrema                                            
  363 points on ppm-axis = NY
      4.250000     4.238821     4.227641     4.216462     4.205282     4.194103     4.182923     4.171744     4.160564     4.149385
      4.138206     4.127026     4.115847     4.104667     4.093488     4.082308     4.071129     4.059949     4.048770     4.037591
      4.026411     4.015232     4.004052     3.992873     3.981693     3.970514     3.959334     3.948155     3.936975     3.925796
      3.914617     3.903437     3.892258     3.881078     3.869899     3.858719     3.847540     3.836360     3.825181     3.814002
      3.802822     3.791643     3.780463     3.769284     3.758104     3.746925     3.735745     3.724566     3.713387     3.702207
      3.691028     3.679848     3.668669     3.657489     3.646310     3.635130     3.623951     3.612772     3.601592     3.590413
      3.579233     3.568054     3.556874     3.545695     3.534515     3.523336     3.512156     3.500977     3.489798     3.478618
      3.467439     3.456259     3.445080     3.433900     3.422721     3.411541     3.400362     3.389183     3.378003     3.366824
      3.355644     3.344465     3.333285     3.322106     3.310926     3.299747     3.288568     3.277388     3.266209     3.255029
      3.243850     3.232670     3.221491     3.210311     3.199132     3.187953     3.176773     3.165594     3.154414     3.143235
      3.132055     3.120876     3.109696     3.098517     3.087337     3.076158     3.064979     3.053799     3.042620     3.031440
      3.020261     3.009081     2.997902     2.986722     2.975543     2.964364     2.953184     2.942005     2.930825     2.919646
      2.908466     2.897287     2.886107     2.874928     2.863749     2.852569     2.841390     2.830210     2.819031     2.807851
      2.796672     2.785492     2.774313     2.763134     2.751954     2.740775     2.729595     2.718416     2.707236     2.696057
      2.684877     2.673698     2.662519     2.651339     2.640160     2.628980     2.617801     2.606621     2.595442     2.584262
      2.573083     2.561903     2.550724     2.539545     2.528365     2.517186     2.506006     2.494827     2.483647     2.472468
      2.461288     2.450109     2.438930     2.427750     2.416571     2.405391     2.394212     2.383032     2.371853     2.360673
      2.349494     2.338315     2.327135     2.315956     2.304776     2.293597     2.282417     2.271238     2.260058     2.248879
      2.237700     2.226520     2.215341     2.204161     2.192982     2.181802     2.170623     2.159443     2.148264     2.137084
      2.125905     2.114726     2.103546     2.092367     2.081187     2.070008     2.058828     2.047649     2.036469     2.025290
      2.014111     2.002931     1.991752     1.980572     1.969393     1.958213     1.947034     1.935854     1.924675     1.913496
      1.902316     1.891137     1.879957     1.868778     1.857598     1.846419     1.835239     1.824060     1.812881     1.801701
      1.790522     1.779342     1.768163     1.756983     1.745804     1.734624     1.723445     1.712265     1.701086     1.689907
      1.678727     1.667548     1.656368     1.645189     1.634009     1.622830     1.611650     1.600471     1.589292     1.578112
      1.566933     1.555753     1.544574     1.533394     1.522215     1.511035     1.499856     1.488677     1.477497     1.466318
      1.455138     1.443959     1.432779     1.421600     1.410420     1.399241     1.388062     1.376882     1.365703     1.354523
      1.343344     1.332164     1.320985     1.309805     1.298626     1.287446     1.276267     1.265088     1.253908     1.242729
      1.231549     1.220370     1.209190     1.198011     1.186831     1.175652     1.164473     1.153293     1.142114     1.130934
      1.119755     1.108575     1.097396     1.086216     1.075037     1.063858     1.052678     1.041499     1.030319     1.019140
      1.007960     0.996781     0.985601     0.974422     0.963243     0.952063     0.940884     0.929704     0.918525     0.907345
      0.896166     0.884986     0.873807     0.862628     0.851448     0.840269     0.829089     0.817910     0.806730     0.795551
      0.784371     0.773192     0.762012     0.750833     0.739654     0.728474     0.717295     0.706115     0.694936     0.683756
      0.672577     0.661397     0.650218     0.639039     0.627859     0.616680     0.605500     0.594321     0.583141     0.571962
      0.560782     0.549603     0.538424     0.527244     0.516065     0.504885     0.493706     0.482526     0.471347     0.460167
      0.448988     0.437809     0.426629     0.415450     0.404270     0.393091     0.381911     0.370732     0.359552     0.348373
      0.337193     0.326014     0.314835     0.303655     0.292476     0.281296     0.270117     0.258937     0.247758     0.236578
      0.225399     0.214220     0.203040
 NY phased data points follow
  -7.47338E-09 -6.41031E-09 -6.81977E-09 -6.20030E-09 -6.96681E-09 -5.83535E-09 -5.43512E-09 -4.87087E-09 -5.21256E-09 -4.41568E-09
  -5.30928E-09 -6.32298E-09 -8.53626E-09 -9.25341E-09 -1.01234E-08 -1.06613E-08 -1.11203E-08 -1.02960E-08 -1.03120E-08 -9.90812E-09
  -9.96980E-09 -1.00570E-08 -9.81724E-09 -9.67550E-09 -9.97993E-09 -9.96225E-09 -1.01004E-08 -1.07434E-08 -1.10056E-08 -1.09151E-08
  -1.07389E-08 -1.09067E-08 -1.10002E-08 -1.12037E-08 -1.04563E-08 -1.08103E-08 -1.07218E-08 -1.11626E-08 -1.13092E-08 -1.12103E-08
  -1.08172E-08 -1.01758E-08 -1.08026E-08 -1.08329E-08 -1.18876E-08 -1.21712E-08 -1.34073E-08 -1.30769E-08 -1.24884E-08 -1.23410E-08
  -1.20264E-08 -1.18660E-08 -1.14790E-08 -1.15215E-08 -1.13642E-08 -1.05186E-08 -1.09261E-08 -1.03456E-08 -1.02154E-08 -9.95886E-09
  -9.60897E-09 -8.83019E-09 -9.26559E-09 -9.05029E-09 -9.39281E-09 -8.65203E-09 -8.49437E-09 -8.03408E-09 -8.51184E-09 -7.99888E-09
  -7.87359E-09 -8.02223E-09 -8.28756E-09 -7.78919E-09 -8.77554E-09 -9.43998E-09 -1.02156E-08 -1.09770E-08 -1.12086E-08 -1.09704E-08
  -1.04422E-08 -1.00808E-08 -9.29677E-09 -9.17407E-09 -8.28943E-09 -8.21925E-09 -7.25764E-09 -6.91410E-09 -7.01227E-09 -7.21900E-09
  -8.32614E-09 -9.46123E-09 -1.19214E-08 -1.30317E-08 -1.36756E-08 -1.36145E-08 -1.39197E-08 -1.31678E-08 -1.32565E-08 -1.28188E-08
  -1.23875E-08 -1.26021E-08 -1.23327E-08 -1.17395E-08 -1.17503E-08 -1.06358E-08 -1.08845E-08 -1.05466E-08 -1.05083E-08 -1.02078E-08
  -9.81907E-09 -9.07817E-09 -9.13164E-09 -8.90761E-09 -8.39318E-09 -8.75896E-09 -8.47596E-09 -8.57241E-09 -8.02935E-09 -7.29834E-09
  -7.33199E-09 -6.52820E-09 -6.09708E-09 -5.64006E-09 -5.48238E-09 -5.07460E-09 -5.26334E-09 -5.09089E-09 -4.91218E-09 -4.96890E-09
  -4.75522E-09 -4.69482E-09 -4.91713E-09 -4.90298E-09 -4.73036E-09 -4.51986E-09 -3.64074E-09 -3.64943E-09 -3.53761E-09 -3.43518E-09
  -4.21847E-09 -3.69491E-09 -4.07275E-09 -3.88214E-09 -4.18989E-09 -4.26357E-09 -4.58227E-09 -4.47834E-09 -4.75533E-09 -4.44818E-09
  -5.00721E-09 -5.12307E-09 -6.36984E-09 -6.40734E-09 -6.95931E-09 -7.35399E-09 -7.64700E-09 -7.79420E-09 -8.64669E-09 -8.35324E-09
  -8.59423E-09 -9.18421E-09 -9.15298E-09 -8.43364E-09 -9.20951E-09 -9.02275E-09 -8.89858E-09 -8.75043E-09 -9.19046E-09 -8.80073E-09
  -9.10922E-09 -9.04546E-09 -9.43612E-09 -9.40598E-09 -9.01024E-09 -9.45432E-09 -9.81786E-09 -9.57006E-09 -1.03827E-08 -1.07567E-08
  -1.20684E-08 -1.26734E-08 -1.46315E-08 -1.62202E-08 -1.65659E-08 -1.55690E-08 -1.45811E-08 -1.33389E-08 -1.19916E-08 -1.07060E-08
  -1.01279E-08 -8.64193E-09 -7.93644E-09 -7.09095E-09 -5.48726E-09 -4.36659E-09 -3.45739E-09 -1.79660E-09 -2.42730E-10  1.22972E-09
   2.99659E-09  4.49314E-09  6.72098E-09  9.46622E-09  1.13009E-08  1.48011E-08  1.68523E-08  1.97552E-08  2.19421E-08  2.49175E-08
   2.66089E-08  2.80921E-08  2.94843E-08  3.00107E-08  2.91441E-08  2.93451E-08  2.67431E-08  2.48098E-08  2.16521E-08  1.81187E-08
   1.45560E-08  1.14821E-08  7.96035E-09  5.59900E-09  2.88420E-09  1.68219E-09  2.93845E-10 -5.86782E-11  2.09565E-10 -7.63269E-12
   5.53783E-10  1.42855E-09  1.59327E-09  1.46457E-09  1.53437E-09  1.91671E-09  1.39212E-09  1.40372E-09  1.33092E-09  9.42536E-10
   1.55273E-09  1.08336E-09  1.81872E-09  2.15748E-09  1.79186E-09  1.75877E-09  1.18864E-09  1.43940E-09  1.03867E-09  1.14567E-09
   7.40414E-10  7.39903E-10  6.61363E-10  1.43111E-09  7.45406E-10  1.29901E-09  1.59236E-09  1.46441E-09  1.25661E-09  7.56889E-10
   4.06386E-10  5.38519E-11 -2.07604E-10 -3.11132E-10 -9.54677E-11  3.74494E-10  3.99289E-10  3.82850E-10  3.52617E-10  3.28299E-10
   5.83399E-10  1.07074E-09  3.85640E-10  1.42980E-09  1.14020E-09  1.07332E-09  5.97087E-10  3.63905E-10 -1.95186E-10 -4.08990E-10
  -4.48513E-10 -4.87923E-10 -1.01038E-09 -1.09163E-09 -1.16644E-09 -1.26240E-09 -9.11488E-10 -1.41105E-09 -6.45334E-10 -6.32133E-10
  -4.60324E-10 -2.82550E-10 -6.24358E-10 -2.03174E-10 -1.17351E-10  2.55468E-10  2.44071E-10 -3.20619E-10  4.15586E-10  1.94917E-10
   5.14797E-10  7.34114E-10  5.94913E-13 -4.10765E-11  1.02925E-10  4.72280E-11 -2.71523E-10 -8.55328E-11  8.76677E-11  3.49073E-10
  -2.32231E-10  2.49548E-11 -6.88305E-10 -4.10804E-10 -4.04812E-10 -5.21949E-10 -4.86116E-10 -6.60696E-10 -5.01878E-10 -1.44215E-09
  -1.14924E-09 -1.34093E-09 -1.02367E-09 -1.21231E-09 -1.39564E-09 -1.41990E-09 -2.12535E-09 -1.71309E-09 -1.44311E-09 -2.13531E-09
  -1.66837E-09 -1.99783E-09 -1.99106E-09 -1.98715E-09 -1.98189E-09 -2.36354E-09 -2.35498E-09 -2.01950E-09 -1.92396E-09 -2.27397E-09
  -2.42870E-09 -2.86071E-09 -2.81299E-09 -2.63124E-09 -2.63277E-09 -2.36361E-09 -3.09282E-09 -2.61086E-09 -2.62364E-09 -3.21285E-09
  -3.08811E-09 -2.78710E-09 -3.25033E-09 -3.24672E-09 -3.18449E-09 -3.22911E-09 -3.10890E-09 -3.15074E-09 -3.33625E-09 -3.12015E-09
  -3.13901E-09 -3.12617E-09 -3.19496E-09
 NY points of the fit to the data follow
  -9.44166E-09 -9.46118E-09 -9.48056E-09 -9.49979E-09 -9.51884E-09 -9.53774E-09 -9.55644E-09 -9.57495E-09 -9.59326E-09 -9.61135E-09
  -9.62921E-09 -9.64685E-09 -9.66425E-09 -9.68138E-09 -9.69827E-09 -9.71487E-09 -9.73118E-09 -9.74721E-09 -9.76293E-09 -9.77835E-09
  -9.79344E-09 -9.80819E-09 -9.82261E-09 -9.83667E-09 -9.85036E-09 -9.86369E-09 -9.87664E-09 -9.88920E-09 -9.90135E-09 -9.91309E-09
  -9.92442E-09 -9.93531E-09 -9.94575E-09 -9.95575E-09 -9.96527E-09 -9.97436E-09 -9.98293E-09 -9.99102E-09 -9.99862E-09 -1.00057E-08
  -1.00123E-08 -1.00183E-08 -1.00238E-08 -1.00287E-08 -1.00331E-08 -1.00369E-08 -1.00402E-08 -1.00428E-08 -1.00448E-08 -1.00463E-08
  -1.00471E-08 -1.00473E-08 -1.00468E-08 -1.00457E-08 -1.00439E-08 -1.00415E-08 -1.00384E-08 -1.00346E-08 -1.00301E-08 -1.00249E-08
  -1.00190E-08 -1.00123E-08 -1.00049E-08 -9.99679E-09 -9.98790E-09 -9.97824E-09 -9.96780E-09 -9.95656E-09 -9.94453E-09 -9.93171E-09
  -9.91805E-09 -9.90356E-09 -9.88826E-09 -9.87209E-09 -9.85507E-09 -9.83718E-09 -9.81842E-09 -9.79878E-09 -9.77824E-09 -9.75680E-09
  -9.73443E-09 -9.71115E-09 -9.68693E-09 -9.66177E-09 -9.63566E-09 -9.60859E-09 -9.58053E-09 -9.55151E-09 -9.52149E-09 -9.49047E-09
  -9.45843E-09 -9.42539E-09 -9.39130E-09 -9.35620E-09 -9.32003E-09 -9.28279E-09 -9.24450E-09 -9.20513E-09 -9.16467E-09 -9.12311E-09
  -9.08045E-09 -9.03667E-09 -8.99177E-09 -8.94574E-09 -8.89855E-09 -8.85021E-09 -8.80071E-09 -8.75005E-09 -8.69820E-09 -8.64513E-09
  -8.59089E-09 -8.53543E-09 -8.47873E-09 -8.42081E-09 -8.36165E-09 -8.30123E-09 -8.23957E-09 -8.17663E-09 -8.11240E-09 -8.04692E-09
  -7.98009E-09 -7.91199E-09 -7.84255E-09 -7.77180E-09 -7.69971E-09 -7.62627E-09 -7.55145E-09 -7.47530E-09 -7.39776E-09 -7.31883E-09
  -7.23852E-09 -7.15678E-09 -7.07365E-09 -6.98910E-09 -6.90311E-09 -6.81565E-09 -6.72679E-09 -6.63643E-09 -6.54462E-09 -6.45131E-09
  -6.35652E-09 -6.26023E-09 -6.16244E-09 -6.06311E-09 -5.96226E-09 -5.85988E-09 -5.75596E-09 -5.65057E-09 -5.54377E-09 -5.43561E-09
  -5.32616E-09 -5.21548E-09 -5.10361E-09 -4.99063E-09 -4.87659E-09 -4.76156E-09 -4.64560E-09 -4.52875E-09 -4.41109E-09 -4.29268E-09
  -4.17356E-09 -4.05381E-09 -3.93348E-09 -3.81264E-09 -3.69134E-09 -3.56963E-09 -3.44760E-09 -3.32527E-09 -3.20273E-09 -3.08004E-09
  -2.95724E-09 -2.83441E-09 -2.71159E-09 -2.58885E-09 -2.46625E-09 -2.34386E-09 -2.22172E-09 -2.09990E-09 -1.97847E-09 -1.85745E-09
  -1.73696E-09 -1.61703E-09 -1.49769E-09 -1.37904E-09 -1.26113E-09 -1.14401E-09 -1.02774E-09 -9.12438E-10 -7.98066E-10 -6.84732E-10
  -5.72526E-10 -4.61443E-10 -3.51582E-10 -2.42982E-10 -1.35749E-10 -2.98972E-11  7.45309E-11  1.77404E-10  2.78696E-10  3.78381E-10
   4.76369E-10  5.72603E-10  6.67010E-10  7.59550E-10  8.50177E-10  9.38782E-10  1.02534E-09  1.10980E-09  1.19210E-09  1.27212E-09
   1.34990E-09  1.42531E-09  1.49830E-09  1.56882E-09  1.63684E-09  1.70224E-09  1.76499E-09  1.82507E-09  1.88234E-09  1.93688E-09
   1.98869E-09  2.03783E-09  2.08431E-09  2.12818E-09  2.16946E-09  2.20820E-09  2.24443E-09  2.27818E-09  2.30949E-09  2.33838E-09
   2.36491E-09  2.38910E-09  2.41097E-09  2.43058E-09  2.44795E-09  2.46312E-09  2.47613E-09  2.48699E-09  2.49577E-09  2.50247E-09
   2.50714E-09  2.50983E-09  2.51055E-09  2.50935E-09  2.50625E-09  2.50129E-09  2.49451E-09  2.48595E-09  2.47563E-09  2.46358E-09
   2.44987E-09  2.43448E-09  2.41751E-09  2.39892E-09  2.37879E-09  2.35717E-09  2.33406E-09  2.30950E-09  2.28353E-09  2.25618E-09
   2.22749E-09  2.19751E-09  2.16625E-09  2.13376E-09  2.10005E-09  2.06518E-09  2.02919E-09  1.99208E-09  1.95391E-09  1.91472E-09
   1.87452E-09  1.83336E-09  1.79128E-09  1.74829E-09  1.70447E-09  1.65980E-09  1.61435E-09  1.56816E-09  1.52122E-09  1.47360E-09
   1.42535E-09  1.37647E-09  1.32701E-09  1.27699E-09  1.22647E-09  1.17546E-09  1.12403E-09  1.07215E-09  1.01991E-09  9.67334E-10
   9.14432E-10  8.61260E-10  8.07804E-10  7.54074E-10  7.00069E-10  6.45806E-10  5.91273E-10  5.36487E-10  4.81448E-10  4.26160E-10
   3.70632E-10  3.14862E-10  2.58863E-10  2.02634E-10  1.46177E-10  8.95004E-11  3.26129E-11 -2.44824E-11 -8.17871E-11 -1.39294E-10
  -1.96994E-10 -2.54890E-10 -3.12965E-10 -3.71229E-10 -4.29666E-10 -4.88279E-10 -5.47056E-10 -6.06001E-10 -6.65103E-10 -7.24356E-10
  -7.83757E-10 -8.43314E-10 -9.03001E-10 -9.62822E-10 -1.02278E-09 -1.08287E-09 -1.14306E-09 -1.20338E-09 -1.26381E-09 -1.32435E-09
  -1.38499E-09 -1.44572E-09 -1.50656E-09 -1.56748E-09 -1.62848E-09 -1.68956E-09 -1.75072E-09 -1.81195E-09 -1.87323E-09 -1.93459E-09
  -1.99599E-09 -2.05746E-09 -2.11896E-09 -2.18050E-09 -2.24210E-09 -2.30370E-09 -2.36535E-09 -2.42701E-09 -2.48870E-09 -2.55040E-09
  -2.61210E-09 -2.67382E-09 -2.73553E-09 -2.79724E-09 -2.85893E-09 -2.92062E-09 -2.98227E-09 -3.04392E-09 -3.10553E-09 -3.16710E-09
  -3.22865E-09 -3.29015E-09 -3.35159E-09
 NY background values follow
    -9.442E-09   -9.461E-09   -9.481E-09   -9.500E-09   -9.519E-09   -9.538E-09   -9.556E-09   -9.575E-09   -9.593E-09   -9.611E-09
    -9.629E-09   -9.647E-09   -9.664E-09   -9.681E-09   -9.698E-09   -9.715E-09   -9.731E-09   -9.747E-09   -9.763E-09   -9.778E-09
    -9.793E-09   -9.808E-09   -9.823E-09   -9.837E-09   -9.850E-09   -9.864E-09   -9.877E-09   -9.889E-09   -9.901E-09   -9.913E-09
    -9.924E-09   -9.935E-09   -9.946E-09   -9.956E-09   -9.965E-09   -9.974E-09   -9.983E-09   -9.991E-09   -9.999E-09   -1.001E-08
    -1.001E-08   -1.002E-08   -1.002E-08   -1.003E-08   -1.003E-08   -1.004E-08   -1.004E-08   -1.004E-08   -1.004E-08   -1.005E-08
    -1.005E-08   -1.005E-08   -1.005E-08   -1.005E-08   -1.004E-08   -1.004E-08   -1.004E-08   -1.003E-08   -1.003E-08   -1.002E-08
    -1.002E-08   -1.001E-08   -1.000E-08   -9.997E-09   -9.988E-09   -9.978E-09   -9.968E-09   -9.957E-09   -9.945E-09   -9.932E-09
    -9.918E-09   -9.904E-09   -9.888E-09   -9.872E-09   -9.855E-09   -9.837E-09   -9.818E-09   -9.799E-09   -9.778E-09   -9.757E-09
    -9.734E-09   -9.711E-09   -9.687E-09   -9.662E-09   -9.636E-09   -9.609E-09   -9.581E-09   -9.552E-09   -9.521E-09   -9.490E-09
    -9.458E-09   -9.425E-09   -9.391E-09   -9.356E-09   -9.320E-09   -9.283E-09   -9.245E-09   -9.205E-09   -9.165E-09   -9.123E-09
    -9.080E-09   -9.037E-09   -8.992E-09   -8.946E-09   -8.899E-09   -8.850E-09   -8.801E-09   -8.750E-09   -8.698E-09   -8.645E-09
    -8.591E-09   -8.535E-09   -8.479E-09   -8.421E-09   -8.362E-09   -8.301E-09   -8.240E-09   -8.177E-09   -8.112E-09   -8.047E-09
    -7.980E-09   -7.912E-09   -7.843E-09   -7.772E-09   -7.700E-09   -7.626E-09   -7.551E-09   -7.475E-09   -7.398E-09   -7.319E-09
    -7.239E-09   -7.157E-09   -7.074E-09   -6.989E-09   -6.903E-09   -6.816E-09   -6.727E-09   -6.636E-09   -6.545E-09   -6.451E-09
    -6.357E-09   -6.260E-09   -6.162E-09   -6.063E-09   -5.962E-09   -5.860E-09   -5.756E-09   -5.651E-09   -5.544E-09   -5.436E-09
    -5.326E-09   -5.215E-09   -5.104E-09   -4.991E-09   -4.877E-09   -4.762E-09   -4.646E-09   -4.529E-09   -4.411E-09   -4.293E-09
    -4.174E-09   -4.054E-09   -3.933E-09   -3.813E-09   -3.691E-09   -3.570E-09   -3.448E-09   -3.325E-09   -3.203E-09   -3.080E-09
    -2.957E-09   -2.834E-09   -2.712E-09   -2.589E-09   -2.466E-09   -2.344E-09   -2.222E-09   -2.100E-09   -1.978E-09   -1.857E-09
    -1.737E-09   -1.617E-09   -1.498E-09   -1.379E-09   -1.261E-09   -1.144E-09   -1.028E-09   -9.124E-10   -7.981E-10   -6.847E-10
    -5.725E-10   -4.614E-10   -3.516E-10   -2.430E-10   -1.357E-10   -2.990E-11    7.453E-11    1.774E-10    2.787E-10    3.784E-10
     4.764E-10    5.726E-10    6.670E-10    7.596E-10    8.502E-10    9.388E-10    1.025E-09    1.110E-09    1.192E-09    1.272E-09
     1.350E-09    1.425E-09    1.498E-09    1.569E-09    1.637E-09    1.702E-09    1.765E-09    1.825E-09    1.882E-09    1.937E-09
     1.989E-09    2.038E-09    2.084E-09    2.128E-09    2.169E-09    2.208E-09    2.244E-09    2.278E-09    2.309E-09    2.338E-09
     2.365E-09    2.389E-09    2.411E-09    2.431E-09    2.448E-09    2.463E-09    2.476E-09    2.487E-09    2.496E-09    2.502E-09
     2.507E-09    2.510E-09    2.511E-09    2.509E-09    2.506E-09    2.501E-09    2.495E-09    2.486E-09    2.476E-09    2.464E-09
     2.450E-09    2.434E-09    2.418E-09    2.399E-09    2.379E-09    2.357E-09    2.334E-09    2.309E-09    2.284E-09    2.256E-09
     2.227E-09    2.198E-09    2.166E-09    2.134E-09    2.100E-09    2.065E-09    2.029E-09    1.992E-09    1.954E-09    1.915E-09
     1.875E-09    1.833E-09    1.791E-09    1.748E-09    1.704E-09    1.660E-09    1.614E-09    1.568E-09    1.521E-09    1.474E-09
     1.425E-09    1.376E-09    1.327E-09    1.277E-09    1.226E-09    1.175E-09    1.124E-09    1.072E-09    1.020E-09    9.673E-10
     9.144E-10    8.613E-10    8.078E-10    7.541E-10    7.001E-10    6.458E-10    5.913E-10    5.365E-10    4.814E-10    4.262E-10
     3.706E-10    3.149E-10    2.589E-10    2.026E-10    1.462E-10    8.950E-11    3.261E-11   -2.448E-11   -8.179E-11   -1.393E-10
    -1.970E-10   -2.549E-10   -3.130E-10   -3.712E-10   -4.297E-10   -4.883E-10   -5.471E-10   -6.060E-10   -6.651E-10   -7.244E-10
    -7.838E-10   -8.433E-10   -9.030E-10   -9.628E-10   -1.023E-09   -1.083E-09   -1.143E-09   -1.203E-09   -1.264E-09   -1.324E-09
    -1.385E-09   -1.446E-09   -1.507E-09   -1.567E-09   -1.628E-09   -1.690E-09   -1.751E-09   -1.812E-09   -1.873E-09   -1.935E-09
    -1.996E-09   -2.057E-09   -2.119E-09   -2.180E-09   -2.242E-09   -2.304E-09   -2.365E-09   -2.427E-09   -2.489E-09   -2.550E-09
    -2.612E-09   -2.674E-09   -2.736E-09   -2.797E-09   -2.859E-09   -2.921E-09   -2.982E-09   -3.044E-09   -3.106E-09   -3.167E-09
    -3.229E-09   -3.290E-09   -3.352E-09
   8 lines in following diagnostic table:
   1 ERROR     MYBASI 10                                                  
   4 ERRORS    AREABA  3                                                  
   1 warning   STARTV  5                                                  
   1 info      PNNLS   1                                                  
   1 info      STARTV 13                                                  
   1 warning   STARTV 25                                                  
   1 info      STARTV 20                                                  
   2 warnings  RBASOL  3                                                  
  79 lines in following table of input changes:
ATTH2O=1.0                                                                
FILH2O='/mnt/c/Users/divya/Downloads/Lexar/DataFo                         
   rDivya/meas_MID01415_FID95676_lb_RosetteSpinEc                         
   ho_ek_v1a_lcm/12x24_ftSpec_smooth_lcm_w'                               
DOWS=T                                                                    
DOECC=T                                                                   
CHRATO(8)='MM9/MM1 = 1.40 +- 0.7'                                         
CHRATO(7)='MM8/MM1 = 0.33 +- 0.17'                                        
CHRATO(6)='MM7/MM1 = 0.54 +- 0.27'                                        
CHRATO(5)='MM6/MM1 = 0.63 +- 0.16'                                        
CHRATO(4)='MM5/MM1 = 3.16 +- 0.79'                                        
CHRATO(3)='MM4/MM1 = 1.29 +- 1.03'                                        
CHRATO(2)='MM3/MM1 = 1.05 +- 0.63'                                        
CHRATO(1)='MM2/MM1 = 0.51 +- 0.17'                                        
NRATIO=8                                                                  
NORATO(7)='-CrCH2/totCr'                                                  
NORATO(6)='MM17/MM09*'                                                    
NORATO(5)='MM14/MM09*'                                                    
NORATO(4)='MM12/MM09*'                                                    
NORATO(3)='MM20/MM09*'                                                    
NORATO(2)='Lip20/Lip13*'                                                  
NORATO(1)='Lip09/Lip13*'                                                  
NNORAT=7                                                                  
CHOMIT(14)='-CrCH2'                                                       
CHOMIT(13)='MM17'                                                         
CHOMIT(12)='MM14'                                                         
CHOMIT(11)='MM12'                                                         
CHOMIT(10)='MM20'                                                         
CHOMIT(9)='Lip20'                                                         
CHOMIT(8)='MM09'                                                          
CHOMIT(7)='Lip09'                                                         
CHOMIT(6)='Lip13d'                                                        
CHOMIT(5)='Lip13c'                                                        
CHOMIT(4)='Lip13b'                                                        
CHOMIT(3)='Lip13a'                                                        
CHOMIT(2)='bHG'                                                           
CHOMIT(1)='bHB'                                                           
NOMIT=14                                                                  
NEACH=999                                                                 
DKNTMN=0.3                                                                
WDLINE(1)=0.025                                                           
RFWHM=0.15                                                                
PPMEND=0.2                                                                
PPMST=4.25                                                                
LPS=8                                                                     
DOREFS(1)=T                                                               
FILPRI='/mnt/c/Users/divya/Downloads/Lexar/DataFo                         
   rDivya/meas_MID01415_FID95676_lb_RosetteSpinEc                         
   ho_ek_v1a_lcm/12x24_ftSpec_smooth_lcm_out/12x2                         
   4_ftSpec_smooth_lcm.print'                                             
LCSV=11                                                                   
LCOORD=9                                                                  
LTABLE=7                                                                  
LPRINT=6                                                                  
ECHOT=20                                                                  
NUNFIL=576                                                                
DELTAT=0.00063000                                                         
HZPPPM=123.25                                                             
FILBAS='/mnt/c/Users/divya/Downloads/linux-send/f                         
   ida2/new/3T_SpinEchoRosetteMRSI_TE20.basis'                            
FILCSV='/mnt/c/Users/divya/Downloads/Lexar/DataFo                         
   rDivya/meas_MID01415_FID95676_lb_RosetteSpinEc                         
   ho_ek_v1a_lcm/12x24_ftSpec_smooth_lcm_out/12x2                         
   4_ftSpec_smooth_lcm.csv'                                               
FILCOO='/mnt/c/Users/divya/Downloads/Lexar/DataFo                         
   rDivya/meas_MID01415_FID95676_lb_RosetteSpinEc                         
   ho_ek_v1a_lcm/12x24_ftSpec_smooth_lcm_out/12x2                         
   4_ftSpec_smooth_lcm.coord'                                             
FILTAB='/mnt/c/Users/divya/Downloads/Lexar/DataFo                         
   rDivya/meas_MID01415_FID95676_lb_RosetteSpinEc                         
   ho_ek_v1a_lcm/12x24_ftSpec_smooth_lcm_out/12x2                         
   4_ftSpec_smooth_lcm.table'                                             
FILPS='/mnt/c/Users/divya/Downloads/Lexar/DataFor                         
   Divya/meas_MID01415_FID95676_lb_RosetteSpinEch                         
   o_ek_v1a_lcm/12x24_ftSpec_smooth_lcm_out/12x24                         
   _ftSpec_smooth_lcm.ps'                                                 
FILRAW='/mnt/c/Users/divya/Downloads/Lexar/DataFo                         
   rDivya/meas_MID01415_FID95676_lb_RosetteSpinEc                         
   ho_ek_v1a_lcm/12x24_ftSpec_smooth_lcm'                                 
