 LCModel (Version 6.3-1R) Copyright: S.W. Provencher.          Ref.: Magn. Reson. Med. 30:672-679 (1993).                
 onepulse 12x27_ftSpec_smooth_lcm
 26 lines in following concentration table = NCONC+1
    Conc.  %SD /Cr+PCr  Metabolite                                         
 5.07E-10  72%   5.879 Ala                                                 
 1.91E-09  46%  22.112 Asp                                                 
    0.000 999%   0.000 Cr                                                  
 1.61E-09  47%  18.691 GABA                                                
    0.000 999%   0.000 Glc                                                 
 2.43E-10 323%   2.820 Gln                                                 
    0.000 999%   0.000 Glu                                                 
 5.64E-10 411%   6.531 Glyc                                                
    0.000 999%   0.000 GPC                                                 
    0.000 999%   0.000 GSH                                                 
 3.71E-10 533%   4.298 Ins                                                 
    0.000 999%   0.000 Lac                                                 
    0.000 999%   0.000 NAAG                                                
 5.74E-10  58%   6.647 NAA                                                 
    0.000 999%   0.000 PCh                                                 
 8.63E-11 468%   1.000 PCr                                                 
 4.83E-10 266%   5.592 PE                                                  
 2.91E-11 999%   0.338 Scyllo                                              
 1.15E-09  89%  13.280 Ser                                                 
 6.77E-10 198%   7.848 Tau                                                 
    0.000 999%   0.000 GPC+PCh                                             
 5.74E-10  58%   6.647 NAA+NAAG                                            
 9.35E-10  80%  10.829 Ins+Glyc                                            
 8.63E-11 468%   1.000 Cr+PCr                                              
 2.43E-10 323%   2.820 Glu+Gln                                             
   6 lines in following misc. output table
  FWHM = 0.101 ppm    S/N =   2                                            
  Data shift = 0.402 ppm                                                   
  Ph: 121 deg      27.1 deg/ppm                                            
  alphaB,S = 7.7E-01,   4.2E+01                                            
    8 spline knots.   Ns = 5(1)                                            
  (10) 4 infls.   ( 9) 3 extrs.                                            
  363 points on ppm-axis = NY
      4.250000     4.238821     4.227641     4.216462     4.205282     4.194103     4.182923     4.171744     4.160564     4.149385
      4.138206     4.127026     4.115847     4.104667     4.093488     4.082308     4.071129     4.059949     4.048770     4.037591
      4.026411     4.015232     4.004052     3.992873     3.981693     3.970514     3.959334     3.948155     3.936975     3.925796
      3.914617     3.903437     3.892258     3.881078     3.869899     3.858719     3.847540     3.836360     3.825181     3.814002
      3.802822     3.791643     3.780463     3.769284     3.758104     3.746925     3.735745     3.724566     3.713387     3.702207
      3.691028     3.679848     3.668669     3.657489     3.646310     3.635130     3.623951     3.612772     3.601592     3.590413
      3.579233     3.568054     3.556874     3.545695     3.534515     3.523336     3.512156     3.500977     3.489798     3.478618
      3.467439     3.456259     3.445080     3.433900     3.422721     3.411541     3.400362     3.389183     3.378003     3.366824
      3.355644     3.344465     3.333285     3.322106     3.310926     3.299747     3.288568     3.277388     3.266209     3.255029
      3.243850     3.232670     3.221491     3.210311     3.199132     3.187953     3.176773     3.165594     3.154414     3.143235
      3.132055     3.120876     3.109696     3.098517     3.087337     3.076158     3.064979     3.053799     3.042620     3.031440
      3.020261     3.009081     2.997902     2.986722     2.975543     2.964364     2.953184     2.942005     2.930825     2.919646
      2.908466     2.897287     2.886107     2.874928     2.863749     2.852569     2.841390     2.830210     2.819031     2.807851
      2.796672     2.785492     2.774313     2.763134     2.751954     2.740775     2.729595     2.718416     2.707236     2.696057
      2.684877     2.673698     2.662519     2.651339     2.640160     2.628980     2.617801     2.606621     2.595442     2.584262
      2.573083     2.561903     2.550724     2.539545     2.528365     2.517186     2.506006     2.494827     2.483647     2.472468
      2.461288     2.450109     2.438930     2.427750     2.416571     2.405391     2.394212     2.383032     2.371853     2.360673
      2.349494     2.338315     2.327135     2.315956     2.304776     2.293597     2.282417     2.271238     2.260058     2.248879
      2.237700     2.226520     2.215341     2.204161     2.192982     2.181802     2.170623     2.159443     2.148264     2.137084
      2.125905     2.114726     2.103546     2.092367     2.081187     2.070008     2.058828     2.047649     2.036469     2.025290
      2.014111     2.002931     1.991752     1.980572     1.969393     1.958213     1.947034     1.935854     1.924675     1.913496
      1.902316     1.891137     1.879957     1.868778     1.857598     1.846419     1.835239     1.824060     1.812881     1.801701
      1.790522     1.779342     1.768163     1.756983     1.745804     1.734624     1.723445     1.712265     1.701086     1.689907
      1.678727     1.667548     1.656368     1.645189     1.634009     1.622830     1.611650     1.600471     1.589292     1.578112
      1.566933     1.555753     1.544574     1.533394     1.522215     1.511035     1.499856     1.488677     1.477497     1.466318
      1.455138     1.443959     1.432779     1.421600     1.410420     1.399241     1.388062     1.376882     1.365703     1.354523
      1.343344     1.332164     1.320985     1.309805     1.298626     1.287446     1.276267     1.265088     1.253908     1.242729
      1.231549     1.220370     1.209190     1.198011     1.186831     1.175652     1.164473     1.153293     1.142114     1.130934
      1.119755     1.108575     1.097396     1.086216     1.075037     1.063858     1.052678     1.041499     1.030319     1.019140
      1.007960     0.996781     0.985601     0.974422     0.963243     0.952063     0.940884     0.929704     0.918525     0.907345
      0.896166     0.884986     0.873807     0.862628     0.851448     0.840269     0.829089     0.817910     0.806730     0.795551
      0.784371     0.773192     0.762012     0.750833     0.739654     0.728474     0.717295     0.706115     0.694936     0.683756
      0.672577     0.661397     0.650218     0.639039     0.627859     0.616680     0.605500     0.594321     0.583141     0.571962
      0.560782     0.549603     0.538424     0.527244     0.516065     0.504885     0.493706     0.482526     0.471347     0.460167
      0.448988     0.437809     0.426629     0.415450     0.404270     0.393091     0.381911     0.370732     0.359552     0.348373
      0.337193     0.326014     0.314835     0.303655     0.292476     0.281296     0.270117     0.258937     0.247758     0.236578
      0.225399     0.214220     0.203040
 NY phased data points follow
   2.00261E-09  1.77309E-09  1.88103E-09  1.43759E-09  1.46879E-09  1.57266E-09  1.55140E-09  1.37662E-09  1.44604E-09  1.53375E-09
   1.81390E-09  1.83456E-09  2.73979E-09  2.57370E-09  2.80569E-09  2.57237E-09  2.74521E-09  3.12207E-09  2.89999E-09  2.58027E-09
   2.83257E-09  2.80044E-09  3.44395E-09  3.36774E-09  3.43606E-09  2.54872E-09  2.68562E-09  2.59499E-09  3.46557E-09  3.69163E-09
   4.98749E-09  4.75676E-09  4.65987E-09  4.69453E-09  4.60132E-09  4.67435E-09  4.75160E-09  4.48670E-09  5.02821E-09  4.29988E-09
   4.49181E-09  4.86079E-09  4.48820E-09  4.29415E-09  4.49536E-09  3.98280E-09  4.21159E-09  4.22793E-09  4.32230E-09  4.41841E-09
   4.09483E-09  3.64124E-09  3.75056E-09  3.71376E-09  3.19918E-09  3.43483E-09  3.47694E-09  3.02515E-09  3.60825E-09  3.64752E-09
   4.52930E-09  5.00279E-09  5.41480E-09  5.53650E-09  5.29712E-09  4.87886E-09  4.87966E-09  4.63490E-09  4.24075E-09  4.33881E-09
   3.68877E-09  3.01161E-09  2.72764E-09  1.53523E-09  2.34267E-09  2.92512E-09  4.64266E-09  6.00553E-09  6.49850E-09  6.57296E-09
   7.28290E-09  6.96472E-09  7.25066E-09  6.99034E-09  6.84181E-09  6.75679E-09  7.70341E-09  7.41319E-09  7.51114E-09  7.07382E-09
   7.10230E-09  7.38841E-09  7.05092E-09  6.97940E-09  7.26140E-09  6.86057E-09  6.84950E-09  6.78532E-09  6.78272E-09  6.95795E-09
   6.86917E-09  6.72496E-09  6.83856E-09  6.61877E-09  6.43745E-09  6.19812E-09  5.91688E-09  5.43176E-09  5.28127E-09  4.93182E-09
   5.21793E-09  4.85347E-09  4.45559E-09  4.85615E-09  4.71669E-09  4.68223E-09  4.53420E-09  4.54141E-09  4.79416E-09  4.57477E-09
   4.15710E-09  3.30023E-09  3.56439E-09  3.05250E-09  3.42214E-09  3.06671E-09  3.04372E-09  2.72755E-09  2.84582E-09  2.74481E-09
   2.67707E-09  2.40484E-09  2.19271E-09  2.23222E-09  2.33012E-09  2.21888E-09  3.28151E-09  3.54514E-09  3.98020E-09  4.30288E-09
   4.50503E-09  5.08117E-09  5.89239E-09  5.81894E-09  6.22228E-09  6.55743E-09  7.06200E-09  6.73612E-09  6.97673E-09  7.11337E-09
   7.17049E-09  7.22659E-09  7.37742E-09  7.85555E-09  8.01935E-09  8.36892E-09  8.20106E-09  8.74356E-09  8.44417E-09  8.08267E-09
   8.81480E-09  8.76202E-09  9.20147E-09  9.35205E-09  9.75390E-09  9.99086E-09  1.20204E-08  1.41318E-08  1.60072E-08  1.64806E-08
   1.60437E-08  1.60654E-08  1.62435E-08  1.55807E-08  1.59311E-08  1.61192E-08  1.54938E-08  1.55054E-08  1.51436E-08  1.49159E-08
   1.47682E-08  1.40735E-08  1.31166E-08  1.20683E-08  1.15594E-08  1.05578E-08  9.39888E-09  7.20696E-09  5.37756E-09  3.45665E-09
   9.44522E-10 -1.36250E-09 -3.74156E-09 -6.26761E-09 -9.28293E-09 -1.14973E-08 -1.33565E-08 -1.50885E-08 -1.63331E-08 -1.72739E-08
  -1.71795E-08 -1.64524E-08 -1.53195E-08 -1.34484E-08 -1.06709E-08 -8.13714E-09 -5.68097E-09 -3.57067E-09 -2.25963E-09 -7.79539E-10
  -1.06108E-09 -7.78269E-10 -1.54441E-09 -1.40017E-09 -2.01209E-09 -2.02803E-09 -1.79919E-09 -1.20324E-09 -1.05935E-09 -6.52932E-10
  -1.10497E-09 -1.04463E-09 -1.64725E-09 -1.47773E-09 -1.83127E-09 -1.28183E-09 -1.26987E-09 -1.42934E-09 -1.40264E-09 -1.30163E-09
  -1.42266E-09 -1.28767E-09 -1.65050E-09 -1.60221E-09 -1.45353E-09 -1.42291E-09 -1.18378E-09 -1.49906E-09 -1.52926E-09 -1.38929E-09
  -1.99725E-09 -1.80992E-09 -1.96189E-09 -1.17132E-09 -1.38524E-09 -9.87007E-10 -8.50897E-10 -6.89705E-10 -1.07589E-09 -1.32082E-09
  -1.32604E-09 -1.22094E-09 -1.43532E-09 -1.14532E-09 -1.38669E-09 -1.19807E-09 -1.02368E-09 -1.14901E-09 -1.37431E-09 -1.14273E-09
  -1.49102E-09 -6.27246E-10 -1.21091E-09 -7.38613E-10 -1.06311E-09 -2.69956E-10 -8.26429E-10 -2.60992E-10 -6.48737E-10 -1.45490E-10
  -3.63761E-10 -1.08625E-10 -4.71098E-11 -5.03048E-10 -1.01059E-09 -7.48254E-10 -5.96516E-10 -8.16642E-10 -9.05715E-10 -6.29766E-10
  -1.34376E-09 -6.12782E-10 -9.36479E-10 -8.81433E-10 -1.26791E-09 -1.31751E-09 -1.25699E-09 -7.36003E-10 -1.28602E-09 -1.13515E-09
  -1.13539E-09 -1.01582E-09 -1.47229E-09 -1.20270E-09 -1.55920E-09 -9.01162E-10 -1.47009E-09 -8.87453E-10 -1.23669E-09 -7.78777E-10
  -1.34468E-09 -1.08300E-09 -1.54179E-09 -7.47601E-10 -8.34839E-10 -7.74367E-10 -1.21914E-09 -1.13024E-09 -9.97594E-10 -7.61556E-10
  -8.78082E-10 -7.34537E-10 -1.17687E-09 -7.67663E-10 -1.11710E-09 -6.42123E-10 -9.95722E-10 -8.54555E-10 -8.41294E-10 -8.52031E-10
  -7.62413E-10 -3.90311E-10 -8.46074E-10 -6.78972E-10 -9.81338E-10 -6.92795E-10 -6.09120E-10 -4.46053E-10 -3.78218E-10 -7.82059E-10
  -5.51660E-10 -6.38527E-10 -1.10161E-09 -6.98094E-10 -5.78444E-10 -5.80527E-10 -6.86863E-10 -3.58918E-10 -4.22468E-10 -3.91811E-10
  -4.99832E-10 -5.17263E-10 -3.17261E-10 -2.24015E-10 -2.95589E-10 -1.39523E-10 -5.74900E-10  7.77928E-11 -7.76351E-12  1.45978E-10
   8.63082E-11  9.44749E-11 -1.24581E-10  3.93933E-10  1.09775E-10  4.10275E-10  1.01776E-10  1.32095E-10  3.10772E-10  3.62254E-10
   2.89884E-11  6.16243E-10  2.57270E-10
 NY points of the fit to the data follow
   4.31593E-09  3.17643E-09  2.29113E-09  1.75935E-09  1.33183E-09  8.25256E-10  3.42179E-10  1.07800E-10  6.36751E-10  1.44879E-09
   2.03509E-09  2.40451E-09  2.65460E-09  2.89793E-09  3.21599E-09  3.48105E-09  3.68773E-09  3.59816E-09  3.05346E-09  2.33427E-09
   2.18797E-09  2.43216E-09  2.80020E-09  3.13022E-09  3.32941E-09  3.50022E-09  3.67930E-09  3.77628E-09  3.94561E-09  4.24312E-09
   4.32551E-09  4.19663E-09  4.40314E-09  4.63269E-09  4.65693E-09  4.70623E-09  4.84733E-09  4.99439E-09  5.03090E-09  4.84648E-09
   4.52188E-09  4.21443E-09  3.74429E-09  3.42916E-09  3.72177E-09  4.11324E-09  4.07370E-09  3.92110E-09  4.01597E-09  4.26597E-09
   4.62012E-09  4.90127E-09  4.96770E-09  4.67984E-09  4.18956E-09  3.82295E-09  3.75039E-09  3.98547E-09  4.08664E-09  3.97416E-09
   3.97964E-09  4.15125E-09  4.52318E-09  4.85453E-09  5.26829E-09  5.74389E-09  5.93130E-09  5.93259E-09  5.91306E-09  5.88076E-09
   5.77962E-09  5.53127E-09  5.17570E-09  4.86333E-09  4.62938E-09  4.26240E-09  4.23137E-09  5.13162E-09  5.99109E-09  6.54300E-09
   6.90094E-09  6.98345E-09  7.04199E-09  7.36282E-09  7.61682E-09  7.62413E-09  7.41813E-09  6.80105E-09  6.01464E-09  5.82088E-09
   5.77023E-09  5.76968E-09  5.76356E-09  5.56461E-09  5.35513E-09  5.31055E-09  5.13667E-09  4.92674E-09  4.90641E-09  5.00125E-09
   5.29696E-09  5.52715E-09  5.66781E-09  5.95525E-09  6.25178E-09  6.45976E-09  6.55965E-09  6.56070E-09  6.45300E-09  6.22032E-09
   5.89904E-09  5.62435E-09  5.49906E-09  5.20263E-09  4.85872E-09  4.73885E-09  4.68812E-09  4.66414E-09  4.65295E-09  4.64850E-09
   4.64779E-09  4.64906E-09  4.65125E-09  4.65362E-09  4.65570E-09  4.65712E-09  4.65762E-09  4.65697E-09  4.65504E-09  4.65169E-09
   4.64679E-09  4.64026E-09  4.63200E-09  4.62197E-09  4.61008E-09  4.59632E-09  4.58057E-09  4.56282E-09  4.54303E-09  4.52118E-09
   4.49722E-09  4.47114E-09  4.44291E-09  4.41254E-09  4.37998E-09  4.34526E-09  4.30842E-09  4.26957E-09  4.22886E-09  4.18643E-09
   4.14246E-09  4.09718E-09  4.05086E-09  4.00382E-09  3.95648E-09  3.90940E-09  3.86332E-09  3.81927E-09  3.77875E-09  3.74401E-09
   3.71863E-09  3.70863E-09  3.72500E-09  3.79009E-09  3.95702E-09  4.38792E-09  5.83407E-09  1.02513E-08  1.45245E-08  1.70155E-08
   1.78042E-08  1.77126E-08  1.74894E-08  1.74353E-08  1.73123E-08  1.63436E-08  1.36347E-08  9.09876E-09  4.60865E-09  3.28600E-09
   2.73580E-09  2.41203E-09  2.18273E-09  2.00146E-09  1.84780E-09  1.71144E-09  1.58661E-09  1.46988E-09  1.35907E-09  1.25275E-09
   1.14998E-09  1.05007E-09  9.52587E-10  8.57181E-10  7.63627E-10  6.71750E-10  5.81438E-10  4.92619E-10  4.05239E-10  3.19267E-10
   2.34697E-10  1.51529E-10  6.97745E-11 -1.05428E-11 -8.93929E-11 -1.66744E-10 -2.42556E-10 -3.16790E-10 -3.89401E-10 -4.60330E-10
  -5.29544E-10 -5.96979E-10 -6.62584E-10 -7.26307E-10 -7.88094E-10 -8.47878E-10 -9.05603E-10 -9.61223E-10 -1.01467E-09 -1.06596E-09
  -1.11512E-09 -1.16221E-09 -1.20724E-09 -1.25025E-09 -1.29128E-09 -1.33036E-09 -1.36753E-09 -1.40281E-09 -1.43624E-09 -1.46785E-09
  -1.49769E-09 -1.52577E-09 -1.55213E-09 -1.57681E-09 -1.59984E-09 -1.62124E-09 -1.64106E-09 -1.65932E-09 -1.67606E-09 -1.69130E-09
  -1.70507E-09 -1.71743E-09 -1.72839E-09 -1.73799E-09 -1.74624E-09 -1.75319E-09 -1.75888E-09 -1.76333E-09 -1.76657E-09 -1.76863E-09
  -1.76957E-09 -1.76937E-09 -1.76811E-09 -1.76578E-09 -1.76244E-09 -1.75812E-09 -1.75284E-09 -1.74664E-09 -1.73954E-09 -1.73158E-09
  -1.72279E-09 -1.71321E-09 -1.70287E-09 -1.69179E-09 -1.67999E-09 -1.66753E-09 -1.65443E-09 -1.64071E-09 -1.62642E-09 -1.61158E-09
  -1.59622E-09 -1.58037E-09 -1.56408E-09 -1.54735E-09 -1.53025E-09 -1.51277E-09 -1.49497E-09 -1.47688E-09 -1.45850E-09 -1.43990E-09
  -1.42110E-09 -1.40212E-09 -1.38301E-09 -1.36377E-09 -1.34446E-09 -1.32510E-09 -1.30574E-09 -1.28636E-09 -1.26705E-09 -1.24781E-09
  -1.22866E-09 -1.20966E-09 -1.19077E-09 -1.17199E-09 -1.15333E-09 -1.13478E-09 -1.11633E-09 -1.09798E-09 -1.07973E-09 -1.06157E-09
  -1.04349E-09 -1.02550E-09 -1.00759E-09 -9.89760E-10 -9.71994E-10 -9.54296E-10 -9.36664E-10 -9.19092E-10 -9.01571E-10 -8.84101E-10
  -8.66679E-10 -8.49296E-10 -8.31958E-10 -8.14648E-10 -7.97372E-10 -7.80119E-10 -7.62891E-10 -7.45677E-10 -7.28478E-10 -7.11290E-10
  -6.94109E-10 -6.76921E-10 -6.59737E-10 -6.42546E-10 -6.25341E-10 -6.08114E-10 -5.90880E-10 -5.73616E-10 -5.56330E-10 -5.39004E-10
  -5.21649E-10 -5.04252E-10 -4.86807E-10 -4.69314E-10 -4.51773E-10 -4.34172E-10 -4.16514E-10 -3.98786E-10 -3.80997E-10 -3.63121E-10
  -3.45181E-10 -3.27149E-10 -3.09040E-10 -2.90841E-10 -2.72534E-10 -2.54145E-10 -2.35645E-10 -2.17046E-10 -1.98329E-10 -1.79503E-10
  -1.60559E-10 -1.41487E-10 -1.22291E-10 -1.02960E-10 -8.34989E-11 -6.38924E-11 -4.41527E-11 -2.42562E-11 -4.20891E-12  1.59907E-11
   3.63562E-11  5.68844E-11  7.75728E-11
 NY background values follow
    -3.883E-09   -3.804E-09   -3.725E-09   -3.646E-09   -3.568E-09   -3.489E-09   -3.410E-09   -3.331E-09   -3.252E-09   -3.173E-09
    -3.094E-09   -3.016E-09   -2.937E-09   -2.858E-09   -2.780E-09   -2.701E-09   -2.623E-09   -2.544E-09   -2.466E-09   -2.387E-09
    -2.309E-09   -2.231E-09   -2.153E-09   -2.075E-09   -1.997E-09   -1.919E-09   -1.841E-09   -1.764E-09   -1.686E-09   -1.609E-09
    -1.532E-09   -1.454E-09   -1.377E-09   -1.300E-09   -1.224E-09   -1.147E-09   -1.071E-09   -9.941E-10   -9.179E-10   -8.419E-10
    -7.660E-10   -6.902E-10   -6.147E-10   -5.393E-10   -4.640E-10   -3.890E-10   -3.141E-10   -2.394E-10   -1.650E-10   -9.067E-11
    -1.657E-11    5.730E-11    1.310E-10    2.045E-10    2.777E-10    3.507E-10    4.235E-10    4.961E-10    5.685E-10    6.406E-10
     7.124E-10    7.840E-10    8.554E-10    9.265E-10    9.974E-10    1.068E-09    1.138E-09    1.208E-09    1.278E-09    1.348E-09
     1.417E-09    1.486E-09    1.554E-09    1.623E-09    1.691E-09    1.758E-09    1.826E-09    1.893E-09    1.959E-09    2.025E-09
     2.090E-09    2.155E-09    2.220E-09    2.283E-09    2.347E-09    2.409E-09    2.471E-09    2.532E-09    2.592E-09    2.651E-09
     2.710E-09    2.768E-09    2.825E-09    2.881E-09    2.936E-09    2.990E-09    3.043E-09    3.095E-09    3.146E-09    3.196E-09
     3.244E-09    3.292E-09    3.338E-09    3.383E-09    3.427E-09    3.470E-09    3.511E-09    3.551E-09    3.589E-09    3.626E-09
     3.662E-09    3.696E-09    3.728E-09    3.759E-09    3.789E-09    3.816E-09    3.842E-09    3.867E-09    3.890E-09    3.911E-09
     3.930E-09    3.947E-09    3.963E-09    3.977E-09    3.989E-09    3.999E-09    4.007E-09    4.013E-09    4.017E-09    4.018E-09
     4.018E-09    4.016E-09    4.011E-09    4.005E-09    3.996E-09    3.985E-09    3.971E-09    3.956E-09    3.938E-09    3.917E-09
     3.895E-09    3.869E-09    3.842E-09    3.811E-09    3.779E-09    3.743E-09    3.706E-09    3.665E-09    3.622E-09    3.577E-09
     3.530E-09    3.480E-09    3.428E-09    3.374E-09    3.318E-09    3.260E-09    3.200E-09    3.138E-09    3.074E-09    3.009E-09
     2.942E-09    2.873E-09    2.803E-09    2.731E-09    2.658E-09    2.584E-09    2.508E-09    2.431E-09    2.353E-09    2.274E-09
     2.194E-09    2.113E-09    2.031E-09    1.948E-09    1.865E-09    1.781E-09    1.696E-09    1.610E-09    1.524E-09    1.438E-09
     1.352E-09    1.265E-09    1.177E-09    1.090E-09    1.003E-09    9.151E-10    8.276E-10    7.403E-10    6.531E-10    5.661E-10
     4.794E-10    3.931E-10    3.071E-10    2.217E-10    1.368E-10    5.254E-11   -3.106E-11   -1.139E-10   -1.959E-10   -2.771E-10
    -3.573E-10   -4.366E-10   -5.147E-10   -5.917E-10   -6.676E-10   -7.421E-10   -8.153E-10   -8.872E-10   -9.575E-10   -1.026E-09
    -1.094E-09   -1.159E-09   -1.223E-09   -1.285E-09   -1.345E-09   -1.404E-09   -1.460E-09   -1.514E-09   -1.567E-09   -1.617E-09
    -1.665E-09   -1.711E-09   -1.755E-09   -1.797E-09   -1.837E-09   -1.875E-09   -1.911E-09   -1.946E-09   -1.978E-09   -2.009E-09
    -2.038E-09   -2.066E-09   -2.091E-09   -2.115E-09   -2.138E-09   -2.158E-09   -2.178E-09   -2.195E-09   -2.211E-09   -2.226E-09
    -2.239E-09   -2.251E-09   -2.261E-09   -2.270E-09   -2.278E-09   -2.285E-09   -2.290E-09   -2.294E-09   -2.297E-09   -2.298E-09
    -2.299E-09   -2.298E-09   -2.296E-09   -2.294E-09   -2.290E-09   -2.285E-09   -2.279E-09   -2.273E-09   -2.265E-09   -2.257E-09
    -2.248E-09   -2.238E-09   -2.227E-09   -2.216E-09   -2.203E-09   -2.191E-09   -2.177E-09   -2.163E-09   -2.149E-09   -2.133E-09
    -2.118E-09   -2.101E-09   -2.085E-09   -2.068E-09   -2.050E-09   -2.033E-09   -2.014E-09   -1.996E-09   -1.977E-09   -1.958E-09
    -1.939E-09   -1.920E-09   -1.901E-09   -1.881E-09   -1.862E-09   -1.842E-09   -1.822E-09   -1.803E-09   -1.783E-09   -1.763E-09
    -1.744E-09   -1.725E-09   -1.706E-09   -1.686E-09   -1.668E-09   -1.649E-09   -1.630E-09   -1.611E-09   -1.593E-09   -1.574E-09
    -1.556E-09   -1.538E-09   -1.520E-09   -1.502E-09   -1.483E-09   -1.466E-09   -1.448E-09   -1.430E-09   -1.412E-09   -1.394E-09
    -1.377E-09   -1.359E-09   -1.341E-09   -1.324E-09   -1.306E-09   -1.289E-09   -1.271E-09   -1.254E-09   -1.236E-09   -1.219E-09
    -1.201E-09   -1.184E-09   -1.166E-09   -1.149E-09   -1.132E-09   -1.114E-09   -1.097E-09   -1.079E-09   -1.062E-09   -1.044E-09
    -1.026E-09   -1.009E-09   -9.909E-10   -9.732E-10   -9.554E-10   -9.375E-10   -9.196E-10   -9.016E-10   -8.836E-10   -8.654E-10
    -8.472E-10   -8.289E-10   -8.105E-10   -7.921E-10   -7.735E-10   -7.548E-10   -7.361E-10   -7.172E-10   -6.982E-10   -6.791E-10
    -6.599E-10   -6.406E-10   -6.211E-10   -6.015E-10   -5.818E-10   -5.619E-10   -5.419E-10   -5.217E-10   -5.014E-10   -4.809E-10
    -4.602E-10   -4.394E-10   -4.184E-10
 Ala      Conc. = 5.07E-10
  -3.51124E-09 -3.39631E-09 -3.30064E-09 -3.21319E-09 -3.13349E-09 -3.06191E-09 -3.00763E-09 -2.97841E-09 -2.93339E-09 -2.87675E-09
  -2.85800E-09 -2.82819E-09 -2.76897E-09 -2.72008E-09 -2.66976E-09 -2.60833E-09 -2.54124E-09 -2.47096E-09 -2.39869E-09 -2.32511E-09
  -2.25062E-09 -2.17551E-09 -2.09993E-09 -2.02403E-09 -1.94787E-09 -1.87157E-09 -1.79515E-09 -1.71866E-09 -1.64214E-09 -1.56560E-09
  -1.48908E-09 -1.41259E-09 -1.33614E-09 -1.25976E-09 -1.18345E-09 -1.10725E-09 -1.03112E-09 -9.55099E-10 -8.79213E-10 -8.03422E-10
  -7.27775E-10 -6.52251E-10 -5.76889E-10 -5.01648E-10 -4.26583E-10 -3.51664E-10 -2.76930E-10 -2.02342E-10 -1.27932E-10 -5.37183E-11
   2.03282E-11  9.41662E-11  1.67833E-10  2.41291E-10  3.14528E-10  3.87589E-10  4.60431E-10  5.33024E-10  6.05466E-10  6.77649E-10
   7.49600E-10  8.21348E-10  8.92844E-10  9.64123E-10  1.03513E-09  1.10593E-09  1.17647E-09  1.24678E-09  1.31685E-09  1.38665E-09
   1.45622E-09  1.52555E-09  1.59460E-09  1.66344E-09  1.73199E-09  1.80027E-09  1.86823E-09  1.93586E-09  2.00315E-09  2.07007E-09
   2.13661E-09  2.20277E-09  2.26853E-09  2.33390E-09  2.39888E-09  2.46351E-09  2.52783E-09  2.59187E-09  2.65575E-09  2.71959E-09
   2.78358E-09  2.84802E-09  2.91335E-09  2.98025E-09  3.04988E-09  3.12417E-09  3.20681E-09  3.30561E-09  3.44067E-09  3.68248E-09
   4.13232E-09  4.47013E-09  4.68890E-09  5.03592E-09  5.37970E-09  5.62639E-09  5.75855E-09  5.78682E-09  5.70226E-09  5.48942E-09
   5.18544E-09  4.92613E-09  4.81457E-09  4.53041E-09  4.19747E-09  4.08737E-09  4.04544E-09  4.02948E-09  4.02561E-09  4.02786E-09
   4.03330E-09  4.04019E-09  4.04754E-09  4.05467E-09  4.06112E-09  4.06658E-09  4.07082E-09  4.07362E-09  4.07486E-09  4.07443E-09
   4.07221E-09  4.06814E-09  4.06212E-09  4.05411E-09  4.04403E-09  4.03186E-09  4.01751E-09  4.00097E-09  3.98217E-09  3.96110E-09
   3.93768E-09  3.91190E-09  3.88371E-09  3.85310E-09  3.82000E-09  3.78439E-09  3.74627E-09  3.70570E-09  3.66274E-09  3.61746E-09
   3.56993E-09  3.52023E-09  3.46842E-09  3.41460E-09  3.35884E-09  3.30123E-09  3.24190E-09  3.18094E-09  3.11854E-09  3.05487E-09
   2.99023E-09  2.92505E-09  2.86009E-09  2.79682E-09  2.73874E-09  2.69651E-09  2.72085E-09  2.92296E-09  3.10999E-09  3.18533E-09
   3.15640E-09  3.07425E-09  2.98424E-09  2.90378E-09  2.81694E-09  2.67517E-09  2.42437E-09  2.06289E-09  1.71159E-09  1.55245E-09
   1.43780E-09  1.33634E-09  1.24035E-09  1.14714E-09  1.05552E-09  9.64933E-10  8.75091E-10  7.85844E-10  6.97110E-10  6.08870E-10
   5.21126E-10  4.33891E-10  3.47203E-10  2.61101E-10  1.75634E-10  9.08460E-11  6.79248E-12 -7.64634E-11 -1.58869E-10 -2.40369E-10
  -3.20896E-10 -4.00394E-10 -4.78801E-10 -5.56053E-10 -6.32086E-10 -7.06838E-10 -7.80246E-10 -8.52249E-10 -9.22782E-10 -9.91772E-10
  -1.05917E-09 -1.12490E-09 -1.18891E-09 -1.25112E-09 -1.31149E-09 -1.36992E-09 -1.42637E-09 -1.48078E-09 -1.53307E-09 -1.58327E-09
  -1.63138E-09 -1.67747E-09 -1.72154E-09 -1.76363E-09 -1.80378E-09 -1.84201E-09 -1.87836E-09 -1.91286E-09 -1.94554E-09 -1.97642E-09
  -2.00555E-09 -2.03295E-09 -2.05866E-09 -2.08270E-09 -2.10511E-09 -2.12591E-09 -2.14515E-09 -2.16284E-09 -2.17902E-09 -2.19372E-09
  -2.20698E-09 -2.21883E-09 -2.22929E-09 -2.23840E-09 -2.24618E-09 -2.25267E-09 -2.25790E-09 -2.26190E-09 -2.26471E-09 -2.26635E-09
  -2.26686E-09 -2.26625E-09 -2.26460E-09 -2.26187E-09 -2.25814E-09 -2.25344E-09 -2.24779E-09 -2.24122E-09 -2.23376E-09 -2.22544E-09
  -2.21630E-09 -2.20637E-09 -2.19568E-09 -2.18426E-09 -2.17214E-09 -2.15934E-09 -2.14593E-09 -2.13188E-09 -2.11727E-09 -2.10212E-09
  -2.08645E-09 -2.07030E-09 -2.05371E-09 -2.03667E-09 -2.01928E-09 -2.00150E-09 -1.98341E-09 -1.96503E-09 -1.94637E-09 -1.92748E-09
  -1.90840E-09 -1.88914E-09 -1.86975E-09 -1.85024E-09 -1.83066E-09 -1.81103E-09 -1.79140E-09 -1.77175E-09 -1.75217E-09 -1.73267E-09
  -1.71326E-09 -1.69399E-09 -1.67484E-09 -1.65581E-09 -1.63689E-09 -1.61809E-09 -1.59938E-09 -1.58078E-09 -1.56227E-09 -1.54386E-09
  -1.52554E-09 -1.50730E-09 -1.48914E-09 -1.47106E-09 -1.45304E-09 -1.43510E-09 -1.41722E-09 -1.39940E-09 -1.38164E-09 -1.36392E-09
  -1.34625E-09 -1.32863E-09 -1.31105E-09 -1.29349E-09 -1.27597E-09 -1.25848E-09 -1.24101E-09 -1.22355E-09 -1.20611E-09 -1.18868E-09
  -1.17126E-09 -1.15383E-09 -1.13640E-09 -1.11897E-09 -1.10152E-09 -1.08406E-09 -1.06658E-09 -1.04907E-09 -1.03155E-09 -1.01398E-09
  -9.96380E-10 -9.78740E-10 -9.61052E-10 -9.43315E-10 -9.25530E-10 -9.07685E-10 -8.89783E-10 -8.71810E-10 -8.53776E-10 -8.35654E-10
  -8.17467E-10 -7.99189E-10 -7.80833E-10 -7.62385E-10 -7.43830E-10 -7.25191E-10 -7.06442E-10 -6.87593E-10 -6.68624E-10 -6.49546E-10
  -6.30349E-10 -6.11023E-10 -5.91573E-10 -5.71987E-10 -5.52270E-10 -5.32406E-10 -5.12409E-10 -4.92253E-10 -4.71946E-10 -4.51485E-10
  -4.30858E-10 -4.10067E-10 -3.89114E-10
 Asp      Conc. = 1.91E-09
  -1.81960E-09 -2.03933E-09 -2.19657E-09 -2.36894E-09 -2.50275E-09 -2.69021E-09 -2.85185E-09 -2.95475E-09 -2.96214E-09 -2.93275E-09
  -2.88533E-09 -2.82703E-09 -2.76106E-09 -2.68989E-09 -2.61699E-09 -2.54277E-09 -2.46719E-09 -2.39044E-09 -2.31267E-09 -2.23399E-09
  -2.15447E-09 -2.07413E-09 -1.99295E-09 -1.91091E-09 -1.82788E-09 -1.74377E-09 -1.65836E-09 -1.57138E-09 -1.48245E-09 -1.39100E-09
  -1.29624E-09 -1.19694E-09 -1.09111E-09 -9.75348E-10 -8.42864E-10 -6.77671E-10 -4.40673E-10 -2.09117E-10  3.39224E-11  1.99415E-10
   2.91557E-10  3.72461E-10  5.55215E-10  9.15718E-10  1.42736E-09  2.04328E-09  2.38934E-09  2.44751E-09  2.62083E-09  2.87686E-09
   3.17885E-09  3.39899E-09  3.40583E-09  3.10145E-09  2.59911E-09  2.18516E-09  1.99798E-09  2.05967E-09  1.97741E-09  1.74539E-09
   1.64670E-09  1.59610E-09  1.56767E-09  1.62561E-09  1.69270E-09  1.68437E-09  1.62106E-09  1.61143E-09  1.62841E-09  1.65972E-09
   1.69981E-09  1.74571E-09  1.79563E-09  1.84849E-09  1.90348E-09  1.96005E-09  2.01779E-09  2.07635E-09  2.13550E-09  2.19503E-09
   2.25478E-09  2.31461E-09  2.37438E-09  2.43401E-09  2.49339E-09  2.55245E-09  2.61111E-09  2.66931E-09  2.72698E-09  2.78406E-09
   2.84052E-09  2.89628E-09  2.95131E-09  3.00555E-09  3.05897E-09  3.11152E-09  3.16315E-09  3.21384E-09  3.26353E-09  3.31219E-09
   3.35978E-09  3.40627E-09  3.45162E-09  3.49578E-09  3.53874E-09  3.58044E-09  3.62086E-09  3.65996E-09  3.69771E-09  3.73408E-09
   3.76902E-09  3.80251E-09  3.83452E-09  3.86500E-09  3.89393E-09  3.92128E-09  3.94700E-09  3.97107E-09  3.99346E-09  4.01412E-09
   4.03304E-09  4.05018E-09  4.06550E-09  4.07898E-09  4.09057E-09  4.10027E-09  4.10802E-09  4.11380E-09  4.11757E-09  4.11931E-09
   4.11898E-09  4.11656E-09  4.11200E-09  4.10529E-09  4.09639E-09  4.08528E-09  4.07190E-09  4.05626E-09  4.03831E-09  4.01803E-09
   3.99538E-09  3.97034E-09  3.94288E-09  3.91300E-09  3.88065E-09  3.84581E-09  3.80849E-09  3.76877E-09  3.72672E-09  3.68244E-09
   3.63602E-09  3.58757E-09  3.53719E-09  3.48502E-09  3.43120E-09  3.37591E-09  3.31939E-09  3.26192E-09  3.20390E-09  3.14592E-09
   3.08885E-09  3.03416E-09  2.98444E-09  2.94493E-09  2.92792E-09  2.97051E-09  3.24185E-09  4.20540E-09  5.14253E-09  5.66674E-09
   5.79260E-09  5.71025E-09  5.59465E-09  5.51738E-09  5.42494E-09  5.13823E-09  4.44861E-09  3.33175E-09  2.21530E-09  1.83496E-09
   1.63900E-09  1.49654E-09  1.37618E-09  1.26700E-09  1.16421E-09  1.06543E-09  9.69369E-10  8.75267E-10  7.82656E-10  6.91263E-10
   6.00914E-10  5.11498E-10  4.22963E-10  3.35279E-10  2.48447E-10  1.62472E-10  7.73757E-11 -6.80026E-12 -9.00226E-11 -1.72252E-10
  -2.53434E-10 -3.33521E-10 -4.12462E-10 -4.90201E-10 -5.66678E-10 -6.41837E-10 -7.15619E-10 -7.87966E-10 -8.58819E-10 -9.28104E-10
  -9.95778E-10 -1.06177E-09 -1.12601E-09 -1.18845E-09 -1.24902E-09 -1.30765E-09 -1.36429E-09 -1.41887E-09 -1.47132E-09 -1.52167E-09
  -1.56994E-09 -1.61617E-09 -1.66037E-09 -1.70259E-09 -1.74286E-09 -1.78121E-09 -1.81767E-09 -1.85228E-09 -1.88506E-09 -1.91604E-09
