 LCModel (Version 6.3-1R) Copyright: S.W. Provencher.          Ref.: Magn. Reson. Med. 30:672-679 (1993).                
 onepulse 13x17_ftSpec_smooth_lcm
 26 lines in following concentration table = NCONC+1
    Conc.  %SD /Cr+PCr  Metabolite                                         
    0.000 999%   0.000 Ala                                                 
    0.000 999%   0.000 Asp                                                 
    0.000 999%   0.000 Cr                                                  
 7.65E-10  97%   4.169 GABA                                                
 7.88E-10 137%   4.294 Glc                                                 
 9.07E-10  75%   4.939 Gln                                                 
    0.000 999%   0.000 Glu                                                 
    0.000 999%   0.000 Glyc                                                
 2.18E-10  64%   1.189 GPC                                                 
    0.000 999%   0.000 GSH                                                 
 1.25E-09  44%   6.802 Ins                                                 
    0.000 999%   0.000 Lac                                                 
 3.68E-12 999% 2.0E-02 NAAG                                                
 8.23E-10  64%   4.484 NAA                                                 
    0.000 999%   0.000 PCh                                                 
 1.84E-10 189%   1.000 PCr                                                 
    0.000 999%   0.000 PE                                                  
 1.06E-10 290%   0.575 Scyllo                                              
 4.48E-09  25%  24.421 Ser                                                 
 3.69E-11 999%   0.201 Tau                                                 
 2.18E-10  64%   1.189 GPC+PCh                                             
 8.27E-10  38%   4.504 NAA+NAAG                                            
 1.25E-09  44%   6.802 Ins+Glyc                                            
 1.84E-10 189%   1.000 Cr+PCr                                              
 9.07E-10  75%   4.939 Glu+Gln                                             
   6 lines in following misc. output table
  FWHM = 0.112 ppm    S/N =   3                                            
  Data shift = 0.380 ppm                                                   
  Ph:  -9 deg     -30.4 deg/ppm                                            
  alphaB,S = 2.7E-01,   2.8E+01                                            
   10 spline knots.   Ns = 5(1)                                            
  (12) 4 infls.   ( 7) 1 extrs.                                            
  363 points on ppm-axis = NY
      4.250000     4.238821     4.227641     4.216462     4.205282     4.194103     4.182923     4.171744     4.160564     4.149385
      4.138206     4.127026     4.115847     4.104667     4.093488     4.082308     4.071129     4.059949     4.048770     4.037591
      4.026411     4.015232     4.004052     3.992873     3.981693     3.970514     3.959334     3.948155     3.936975     3.925796
      3.914617     3.903437     3.892258     3.881078     3.869899     3.858719     3.847540     3.836360     3.825181     3.814002
      3.802822     3.791643     3.780463     3.769284     3.758104     3.746925     3.735745     3.724566     3.713387     3.702207
      3.691028     3.679848     3.668669     3.657489     3.646310     3.635130     3.623951     3.612772     3.601592     3.590413
      3.579233     3.568054     3.556874     3.545695     3.534515     3.523336     3.512156     3.500977     3.489798     3.478618
      3.467439     3.456259     3.445080     3.433900     3.422721     3.411541     3.400362     3.389183     3.378003     3.366824
      3.355644     3.344465     3.333285     3.322106     3.310926     3.299747     3.288568     3.277388     3.266209     3.255029
      3.243850     3.232670     3.221491     3.210311     3.199132     3.187953     3.176773     3.165594     3.154414     3.143235
      3.132055     3.120876     3.109696     3.098517     3.087337     3.076158     3.064979     3.053799     3.042620     3.031440
      3.020261     3.009081     2.997902     2.986722     2.975543     2.964364     2.953184     2.942005     2.930825     2.919646
      2.908466     2.897287     2.886107     2.874928     2.863749     2.852569     2.841390     2.830210     2.819031     2.807851
      2.796672     2.785492     2.774313     2.763134     2.751954     2.740775     2.729595     2.718416     2.707236     2.696057
      2.684877     2.673698     2.662519     2.651339     2.640160     2.628980     2.617801     2.606621     2.595442     2.584262
      2.573083     2.561903     2.550724     2.539545     2.528365     2.517186     2.506006     2.494827     2.483647     2.472468
      2.461288     2.450109     2.438930     2.427750     2.416571     2.405391     2.394212     2.383032     2.371853     2.360673
      2.349494     2.338315     2.327135     2.315956     2.304776     2.293597     2.282417     2.271238     2.260058     2.248879
      2.237700     2.226520     2.215341     2.204161     2.192982     2.181802     2.170623     2.159443     2.148264     2.137084
      2.125905     2.114726     2.103546     2.092367     2.081187     2.070008     2.058828     2.047649     2.036469     2.025290
      2.014111     2.002931     1.991752     1.980572     1.969393     1.958213     1.947034     1.935854     1.924675     1.913496
      1.902316     1.891137     1.879957     1.868778     1.857598     1.846419     1.835239     1.824060     1.812881     1.801701
      1.790522     1.779342     1.768163     1.756983     1.745804     1.734624     1.723445     1.712265     1.701086     1.689907
      1.678727     1.667548     1.656368     1.645189     1.634009     1.622830     1.611650     1.600471     1.589292     1.578112
      1.566933     1.555753     1.544574     1.533394     1.522215     1.511035     1.499856     1.488677     1.477497     1.466318
      1.455138     1.443959     1.432779     1.421600     1.410420     1.399241     1.388062     1.376882     1.365703     1.354523
      1.343344     1.332164     1.320985     1.309805     1.298626     1.287446     1.276267     1.265088     1.253908     1.242729
      1.231549     1.220370     1.209190     1.198011     1.186831     1.175652     1.164473     1.153293     1.142114     1.130934
      1.119755     1.108575     1.097396     1.086216     1.075037     1.063858     1.052678     1.041499     1.030319     1.019140
      1.007960     0.996781     0.985601     0.974422     0.963243     0.952063     0.940884     0.929704     0.918525     0.907345
      0.896166     0.884986     0.873807     0.862628     0.851448     0.840269     0.829089     0.817910     0.806730     0.795551
      0.784371     0.773192     0.762012     0.750833     0.739654     0.728474     0.717295     0.706115     0.694936     0.683756
      0.672577     0.661397     0.650218     0.639039     0.627859     0.616680     0.605500     0.594321     0.583141     0.571962
      0.560782     0.549603     0.538424     0.527244     0.516065     0.504885     0.493706     0.482526     0.471347     0.460167
      0.448988     0.437809     0.426629     0.415450     0.404270     0.393091     0.381911     0.370732     0.359552     0.348373
      0.337193     0.326014     0.314835     0.303655     0.292476     0.281296     0.270117     0.258937     0.247758     0.236578
      0.225399     0.214220     0.203040
 NY phased data points follow
   1.03881E-08  1.21438E-08  1.03225E-08  1.18831E-08  1.02854E-08  1.13744E-08  9.17217E-09  1.10306E-08  8.62123E-09  1.06620E-08
   9.17989E-09  1.09551E-08  9.70312E-09  1.09112E-08  9.75541E-09  1.11664E-08  1.07511E-08  1.15280E-08  9.95364E-09  1.13420E-08
   9.62685E-09  1.09185E-08  9.59175E-09  1.17801E-08  9.97648E-09  1.12909E-08  9.98583E-09  1.04737E-08  9.71901E-09  1.13731E-08
   1.12862E-08  1.27587E-08  1.24037E-08  1.39295E-08  1.24739E-08  1.42595E-08  1.14482E-08  1.30296E-08  1.13128E-08  1.26439E-08
   1.09494E-08  1.17552E-08  1.09638E-08  1.18247E-08  1.02783E-08  1.09382E-08  9.47644E-09  1.02761E-08  9.17802E-09  9.82237E-09
   8.81372E-09  9.58312E-09  8.33849E-09  8.95814E-09  7.90470E-09  8.12708E-09  6.52117E-09  7.31393E-09  5.16711E-09  7.52480E-09
   6.25116E-09  9.62951E-09  9.79327E-09  1.19867E-08  1.12699E-08  1.18817E-08  1.09930E-08  1.20004E-08  9.89659E-09  1.06748E-08
   9.34221E-09  9.72353E-09  8.06732E-09  7.61024E-09  6.33043E-09  6.80045E-09  6.74871E-09  9.14536E-09  9.71884E-09  1.27389E-08
   1.30660E-08  1.45079E-08  1.30975E-08  1.43476E-08  1.35148E-08  1.48655E-08  1.32174E-08  1.40409E-08  1.32599E-08  1.41560E-08
   1.31703E-08  1.39390E-08  1.23891E-08  1.24250E-08  1.24099E-08  1.20666E-08  1.16000E-08  1.13938E-08  1.02528E-08  1.13380E-08
   9.97457E-09  1.06442E-08  1.05315E-08  1.04359E-08  9.58263E-09  1.02571E-08  8.75152E-09  8.83675E-09  8.23568E-09  8.10584E-09
   7.43630E-09  8.02930E-09  7.29175E-09  7.96764E-09  7.48213E-09  8.35714E-09  6.95744E-09  8.58800E-09  8.00961E-09  8.69332E-09
   7.60931E-09  8.07165E-09  7.07380E-09  6.85437E-09  5.76599E-09  6.60199E-09  5.65433E-09  6.42594E-09  5.99116E-09  6.13014E-09
   5.77991E-09  5.94961E-09  6.06164E-09  6.38940E-09  5.80117E-09  6.08640E-09  5.42732E-09  6.48419E-09  6.69146E-09  7.93342E-09
   6.98894E-09  8.07542E-09  7.25345E-09  8.57952E-09  8.60226E-09  9.19170E-09  8.62305E-09  9.28826E-09  9.33341E-09  9.30633E-09
   8.78126E-09  9.54456E-09  9.10848E-09  9.11196E-09  8.38568E-09  9.28619E-09  8.59598E-09  9.45837E-09  8.94918E-09  9.31540E-09
   8.34987E-09  8.93922E-09  8.50652E-09  8.03172E-09  7.52669E-09  8.41637E-09  8.54860E-09  1.05895E-08  1.28776E-08  1.58510E-08
   1.76845E-08  1.87476E-08  1.76936E-08  1.75371E-08  1.71231E-08  1.68951E-08  1.52286E-08  1.47738E-08  1.39205E-08  1.32270E-08
   1.20935E-08  1.08775E-08  9.19459E-09  8.06482E-09  5.50044E-09  4.67964E-09  1.86915E-09 -2.49833E-10 -2.79877E-09 -4.68886E-09
  -7.35510E-09 -9.87885E-09 -1.17261E-08 -1.30931E-08 -1.54879E-08 -1.63183E-08 -1.76894E-08 -1.80075E-08 -1.81306E-08 -1.65176E-08
  -1.68060E-08 -1.52099E-08 -1.39127E-08 -1.19271E-08 -1.08442E-08 -8.67923E-09 -8.21929E-09 -6.60187E-09 -5.53582E-09 -4.63303E-09
  -3.89468E-09 -3.69315E-09 -4.12773E-09 -4.10805E-09 -4.33248E-09 -3.45141E-09 -3.81749E-09 -4.19406E-09 -3.85488E-09 -2.72339E-09
  -3.53354E-09 -2.71703E-09 -3.10826E-09 -2.88583E-09 -2.70291E-09 -2.98315E-09 -3.23621E-09 -3.14018E-09 -3.10519E-09 -3.51878E-09
  -2.74665E-09 -2.75587E-09 -2.30769E-09 -2.32061E-09 -2.38984E-09 -2.16236E-09 -2.57431E-09 -2.74539E-09 -3.08153E-09 -2.77089E-09
  -3.13754E-09 -3.19706E-09 -2.47503E-09 -2.31528E-09 -2.52339E-09 -2.02560E-09 -1.75374E-09 -2.04513E-09 -1.96760E-09 -1.55116E-09
  -1.91701E-09 -1.53764E-09 -1.45762E-09 -2.02549E-09 -2.08377E-09 -1.93953E-09 -2.25653E-09 -2.76673E-09 -3.00283E-09 -2.93261E-09
  -3.04648E-09 -3.06149E-09 -2.89755E-09 -2.50486E-09 -2.73006E-09 -2.58257E-09 -2.10839E-09 -1.67080E-09 -1.60146E-09 -1.72420E-09
  -1.12748E-09 -1.65197E-09 -9.21737E-10 -8.18566E-10 -5.23993E-10 -6.29156E-10 -8.17421E-10 -1.44391E-09 -1.14504E-09 -1.12719E-09
  -1.26357E-09 -1.66904E-09 -1.53674E-09 -2.05423E-09 -1.50218E-09 -2.00609E-09 -2.06507E-09 -2.04740E-09 -2.26229E-09 -2.63503E-09
  -1.91174E-09 -2.25528E-09 -2.00683E-09 -2.23342E-09 -2.91801E-09 -2.74145E-09 -2.60363E-09 -2.76018E-09 -2.90917E-09 -3.01707E-09
  -2.86848E-09 -2.55112E-09 -2.74833E-09 -2.48535E-09 -3.17343E-09 -2.98590E-09 -2.79549E-09 -3.08138E-09 -2.58023E-09 -2.65575E-09
  -3.21177E-09 -2.84678E-09 -3.38428E-09 -2.45419E-09 -2.84685E-09 -3.15876E-09 -2.65369E-09 -2.76300E-09 -3.07344E-09 -2.72796E-09
  -2.41524E-09 -2.57867E-09 -2.69422E-09 -2.20747E-09 -2.25713E-09 -2.40999E-09 -2.79153E-09 -2.29406E-09 -2.56540E-09 -2.18904E-09
  -2.07936E-09 -1.95305E-09 -2.47939E-09 -2.39594E-09 -2.31109E-09 -2.02171E-09 -2.11737E-09 -1.90879E-09 -2.05421E-09 -1.90921E-09
  -2.12290E-09 -2.11800E-09 -1.64803E-09 -1.60741E-09 -1.39278E-09 -1.47193E-09 -1.69789E-09 -1.14006E-09 -1.32256E-09 -1.16683E-09
  -1.73028E-09 -9.54829E-10 -1.05184E-09 -9.16814E-10 -1.37535E-09 -1.11715E-09 -1.20609E-09 -1.54158E-10 -1.19148E-09 -4.33584E-10
  -8.96225E-10 -5.65382E-11 -7.47495E-10
 NY points of the fit to the data follow
   9.49904E-09  1.15097E-08  1.18032E-08  1.07245E-08  1.06513E-08  1.13131E-08  1.15207E-08  1.08263E-08  9.88015E-09  9.45464E-09
   9.32783E-09  9.39128E-09  9.54918E-09  9.86501E-09  1.03845E-08  1.07192E-08  1.08231E-08  1.12845E-08  1.17423E-08  1.13584E-08
   1.06491E-08  1.01295E-08  9.73452E-09  9.43425E-09  9.57606E-09  9.98729E-09  1.05549E-08  1.10873E-08  1.13224E-08  1.12738E-08
   1.15061E-08  1.19010E-08  1.25959E-08  1.32211E-08  1.30955E-08  1.23734E-08  1.19916E-08  1.17802E-08  1.16615E-08  1.16064E-08
   1.15584E-08  1.15354E-08  1.12955E-08  1.06377E-08  1.01924E-08  9.97166E-09  9.66873E-09  9.32700E-09  9.02683E-09  8.80791E-09
   8.65925E-09  8.58143E-09  8.55272E-09  8.49148E-09  8.39347E-09  8.37020E-09  8.38326E-09  8.54159E-09  8.88417E-09  9.22961E-09
   9.43866E-09  9.59248E-09  9.79436E-09  9.96072E-09  1.01273E-08  1.03768E-08  1.05646E-08  1.05894E-08  1.04003E-08  1.01247E-08
   9.99897E-09  9.91789E-09  9.72904E-09  9.43940E-09  9.30945E-09  9.06572E-09  8.69535E-09  9.21721E-09  1.03484E-08  1.14928E-08
   1.25185E-08  1.32143E-08  1.35491E-08  1.39456E-08  1.44893E-08  1.49631E-08  1.53151E-08  1.50036E-08  1.35693E-08  1.25026E-08
   1.19608E-08  1.16264E-08  1.14605E-08  1.12452E-08  1.09552E-08  1.08232E-08  1.06683E-08  1.04072E-08  1.02290E-08  1.00822E-08
   9.91779E-09  9.77528E-09  9.65318E-09  9.54671E-09  9.45247E-09  9.36787E-09  9.29099E-09  9.22048E-09  9.15531E-09  9.09465E-09
   9.03773E-09  8.98376E-09  8.93221E-09  8.88262E-09  8.83461E-09  8.78785E-09  8.74201E-09  8.69672E-09  8.65167E-09  8.60662E-09
   8.56128E-09  8.51545E-09  8.46889E-09  8.42138E-09  8.37271E-09  8.32268E-09  8.27108E-09  8.21774E-09  8.16246E-09  8.10507E-09
   8.04538E-09  7.98324E-09  7.91848E-09  7.85091E-09  7.78040E-09  7.70678E-09  7.62991E-09  7.54961E-09  7.46576E-09  7.37822E-09
   7.28683E-09  7.19146E-09  7.09201E-09  6.98835E-09  6.88031E-09  6.76784E-09  6.65082E-09  6.52918E-09  6.40284E-09  6.27176E-09
   6.13588E-09  5.99523E-09  5.84988E-09  5.69989E-09  5.54547E-09  5.38689E-09  5.22475E-09  5.05998E-09  4.89415E-09  4.72942E-09
   4.56909E-09  4.41845E-09  4.28690E-09  4.19284E-09  4.17844E-09  4.36619E-09  5.28902E-09  8.90805E-09  1.34128E-08  1.68101E-08
   1.85879E-08  1.90338E-08  1.88164E-08  1.86556E-08  1.88103E-08  1.86989E-08  1.69042E-08  1.20829E-08  5.36147E-09  2.21446E-09
   1.11812E-09  5.01264E-10  5.73511E-11 -3.04836E-10 -6.21406E-10 -9.09210E-10 -1.17718E-09 -1.43034E-09 -1.67164E-09 -1.90293E-09
  -2.12537E-09 -2.33963E-09 -2.54620E-09 -2.74523E-09 -2.93691E-09 -3.12121E-09 -3.29811E-09 -3.46746E-09 -3.62919E-09 -3.78310E-09
  -3.92903E-09 -4.06680E-09 -4.19619E-09 -4.31701E-09 -4.42905E-09 -4.53211E-09 -4.62594E-09 -4.71041E-09 -4.78535E-09 -4.85105E-09
  -4.90781E-09 -4.95593E-09 -4.99571E-09 -5.02745E-09 -5.05144E-09 -5.06798E-09 -5.07737E-09 -5.07990E-09 -5.07587E-09 -5.06557E-09
  -5.04928E-09 -5.02730E-09 -4.99992E-09 -4.96743E-09 -4.93010E-09 -4.88824E-09 -4.84209E-09 -4.79198E-09 -4.73818E-09 -4.68092E-09
  -4.62052E-09 -4.55724E-09 -4.49134E-09 -4.42310E-09 -4.35277E-09 -4.28063E-09 -4.20693E-09 -4.13190E-09 -4.05581E-09 -3.97892E-09
  -3.90145E-09 -3.82364E-09 -3.74574E-09 -3.66798E-09 -3.59058E-09 -3.51376E-09 -3.43775E-09 -3.36276E-09 -3.28899E-09 -3.21663E-09
  -3.14591E-09 -3.07702E-09 -3.01013E-09 -2.94542E-09 -2.88311E-09 -2.82331E-09 -2.76623E-09 -2.71200E-09 -2.66080E-09 -2.61277E-09
  -2.56792E-09 -2.52616E-09 -2.48739E-09 -2.45149E-09 -2.41835E-09 -2.38788E-09 -2.35995E-09 -2.33447E-09 -2.31133E-09 -2.29042E-09
  -2.27165E-09 -2.25490E-09 -2.24008E-09 -2.22709E-09 -2.21581E-09 -2.20618E-09 -2.19806E-09 -2.19139E-09 -2.18604E-09 -2.18195E-09
  -2.17900E-09 -2.17712E-09 -2.17620E-09 -2.17617E-09 -2.17694E-09 -2.17842E-09 -2.18051E-09 -2.18316E-09 -2.18627E-09 -2.18977E-09
  -2.19358E-09 -2.19761E-09 -2.20180E-09 -2.20609E-09 -2.21039E-09 -2.21465E-09 -2.21879E-09 -2.22275E-09 -2.22646E-09 -2.22989E-09
  -2.23295E-09 -2.23559E-09 -2.23777E-09 -2.23943E-09 -2.24051E-09 -2.24100E-09 -2.24082E-09 -2.23993E-09 -2.23831E-09 -2.23590E-09
  -2.23268E-09 -2.22863E-09 -2.22372E-09 -2.21796E-09 -2.21136E-09 -2.20393E-09 -2.19567E-09 -2.18660E-09 -2.17672E-09 -2.16602E-09
  -2.15453E-09 -2.14224E-09 -2.12917E-09 -2.11531E-09 -2.10068E-09 -2.08528E-09 -2.06911E-09 -2.05218E-09 -2.03450E-09 -2.01607E-09
  -1.99690E-09 -1.97699E-09 -1.95634E-09 -1.93496E-09 -1.91286E-09 -1.89004E-09 -1.86651E-09 -1.84226E-09 -1.81731E-09 -1.79166E-09
  -1.76531E-09 -1.73826E-09 -1.71052E-09 -1.68210E-09 -1.65299E-09 -1.62320E-09 -1.59273E-09 -1.56159E-09 -1.52977E-09 -1.49729E-09
  -1.46414E-09 -1.43033E-09 -1.39586E-09 -1.36073E-09 -1.32494E-09 -1.28850E-09 -1.25141E-09 -1.21366E-09 -1.17527E-09 -1.13622E-09
  -1.09653E-09 -1.05620E-09 -1.01521E-09
 NY background values follow
     1.836E-09    1.929E-09    2.021E-09    2.112E-09    2.203E-09    2.292E-09    2.381E-09    2.468E-09    2.555E-09    2.641E-09
     2.726E-09    2.810E-09    2.894E-09    2.976E-09    3.057E-09    3.138E-09    3.217E-09    3.296E-09    3.374E-09    3.451E-09
     3.527E-09    3.602E-09    3.676E-09    3.749E-09    3.821E-09    3.892E-09    3.962E-09    4.032E-09    4.100E-09    4.168E-09
     4.234E-09    4.300E-09    4.365E-09    4.428E-09    4.491E-09    4.553E-09    4.614E-09    4.674E-09    4.733E-09    4.792E-09
     4.849E-09    4.905E-09    4.961E-09    5.015E-09    5.069E-09    5.121E-09    5.173E-09    5.224E-09    5.274E-09    5.323E-09
     5.371E-09    5.418E-09    5.464E-09    5.510E-09    5.554E-09    5.598E-09    5.641E-09    5.683E-09    5.724E-09    5.764E-09
     5.804E-09    5.842E-09    5.880E-09    5.917E-09    5.953E-09    5.989E-09    6.023E-09    6.057E-09    6.090E-09    6.123E-09
     6.154E-09    6.185E-09    6.216E-09    6.245E-09    6.274E-09    6.302E-09    6.330E-09    6.357E-09    6.383E-09    6.409E-09
     6.434E-09    6.458E-09    6.482E-09    6.505E-09    6.528E-09    6.550E-09    6.572E-09    6.593E-09    6.614E-09    6.634E-09
     6.654E-09    6.673E-09    6.692E-09    6.711E-09    6.729E-09    6.747E-09    6.764E-09    6.781E-09    6.798E-09    6.814E-09
     6.830E-09    6.846E-09    6.862E-09    6.877E-09    6.892E-09    6.907E-09    6.921E-09    6.935E-09    6.948E-09    6.961E-09
     6.972E-09    6.983E-09    6.993E-09    7.002E-09    7.010E-09    7.016E-09    7.021E-09    7.024E-09    7.025E-09    7.025E-09
     7.023E-09    7.018E-09    7.012E-09    7.003E-09    6.992E-09    6.978E-09    6.962E-09    6.943E-09    6.920E-09    6.895E-09
     6.867E-09    6.835E-09    6.800E-09    6.761E-09    6.718E-09    6.672E-09    6.622E-09    6.567E-09    6.508E-09    6.445E-09
     6.378E-09    6.306E-09    6.229E-09    6.147E-09    6.060E-09    5.968E-09    5.871E-09    5.768E-09    5.660E-09    5.546E-09
     5.426E-09    5.301E-09    5.169E-09    5.032E-09    4.888E-09    4.738E-09    4.581E-09    4.418E-09    4.250E-09    4.075E-09
     3.896E-09    3.711E-09    3.521E-09    3.327E-09    3.129E-09    2.928E-09    2.723E-09    2.514E-09    2.303E-09    2.089E-09
     1.874E-09    1.656E-09    1.437E-09    1.217E-09    9.954E-10    7.737E-10    5.518E-10    3.301E-10    1.088E-10   -1.117E-10
    -3.310E-10   -5.489E-10   -7.651E-10   -9.791E-10   -1.191E-09   -1.399E-09   -1.605E-09   -1.808E-09   -2.006E-09   -2.201E-09
    -2.391E-09   -2.577E-09   -2.758E-09   -2.933E-09   -3.103E-09   -3.267E-09   -3.425E-09   -3.576E-09   -3.721E-09   -3.859E-09
    -3.989E-09   -4.112E-09   -4.227E-09   -4.334E-09   -4.433E-09   -4.523E-09   -4.605E-09   -4.677E-09   -4.740E-09   -4.794E-09
    -4.839E-09   -4.876E-09   -4.905E-09   -4.926E-09   -4.940E-09   -4.946E-09   -4.945E-09   -4.938E-09   -4.924E-09   -4.904E-09
    -4.879E-09   -4.847E-09   -4.811E-09   -4.769E-09   -4.723E-09   -4.672E-09   -4.618E-09   -4.559E-09   -4.497E-09   -4.431E-09
    -4.363E-09   -4.291E-09   -4.218E-09   -4.141E-09   -4.063E-09   -3.983E-09   -3.902E-09   -3.820E-09   -3.736E-09   -3.652E-09
    -3.567E-09   -3.482E-09   -3.397E-09   -3.313E-09   -3.228E-09   -3.145E-09   -3.062E-09   -2.980E-09   -2.900E-09   -2.821E-09
    -2.744E-09   -2.669E-09   -2.595E-09   -2.524E-09   -2.456E-09   -2.390E-09   -2.327E-09   -2.267E-09   -2.210E-09   -2.156E-09
    -2.105E-09   -2.058E-09   -2.013E-09   -1.972E-09   -1.933E-09   -1.897E-09   -1.864E-09   -1.833E-09   -1.804E-09   -1.778E-09
    -1.754E-09   -1.732E-09   -1.712E-09   -1.694E-09   -1.678E-09   -1.664E-09   -1.651E-09   -1.639E-09   -1.629E-09   -1.620E-09
    -1.613E-09   -1.606E-09   -1.601E-09   -1.596E-09   -1.592E-09   -1.589E-09   -1.587E-09   -1.585E-09   -1.584E-09   -1.584E-09
    -1.583E-09   -1.583E-09   -1.583E-09   -1.583E-09   -1.584E-09   -1.584E-09   -1.584E-09   -1.584E-09   -1.584E-09   -1.584E-09
    -1.583E-09   -1.582E-09   -1.581E-09   -1.579E-09   -1.576E-09   -1.573E-09   -1.570E-09   -1.565E-09   -1.560E-09   -1.555E-09
    -1.548E-09   -1.541E-09   -1.533E-09   -1.524E-09   -1.514E-09   -1.504E-09   -1.492E-09   -1.480E-09   -1.467E-09   -1.454E-09
    -1.439E-09   -1.424E-09   -1.408E-09   -1.392E-09   -1.374E-09   -1.356E-09   -1.337E-09   -1.318E-09   -1.298E-09   -1.277E-09
    -1.255E-09   -1.232E-09   -1.209E-09   -1.186E-09   -1.161E-09   -1.136E-09   -1.110E-09   -1.084E-09   -1.056E-09   -1.029E-09
    -1.000E-09   -9.710E-10   -9.411E-10   -9.107E-10   -8.795E-10   -8.478E-10   -8.154E-10   -7.823E-10   -7.486E-10   -7.143E-10
    -6.794E-10   -6.438E-10   -6.076E-10   -5.707E-10   -5.333E-10   -4.952E-10   -4.565E-10   -4.172E-10   -3.773E-10   -3.367E-10
    -2.955E-10   -2.538E-10   -2.114E-10
 GABA     Conc. = 7.65E-10
   1.46142E-09  1.54767E-09  1.63274E-09  1.71662E-09  1.79926E-09  1.88063E-09  1.96069E-09  2.03939E-09  2.11667E-09  2.19249E-09
   2.26678E-09  2.33944E-09  2.41043E-09  2.47963E-09  2.54695E-09  2.61229E-09  2.67544E-09  2.73618E-09  2.79437E-09  2.84968E-09
   2.90176E-09  2.95023E-09  2.99453E-09  3.03397E-09  3.06777E-09  3.09474E-09  3.11371E-09  3.12409E-09  3.13156E-09  3.20508E-09
   3.33818E-09  3.42468E-09  3.58832E-09  3.88270E-09  4.17253E-09  4.46916E-09  4.80704E-09  5.15387E-09  5.46599E-09  5.69714E-09
   5.83497E-09  6.01172E-09  6.14664E-09  6.01740E-09  5.91485E-09  5.92956E-09  5.83589E-09  5.71485E-09  5.63803E-09  5.58855E-09
   5.55613E-09  5.53478E-09  5.52058E-09  5.51113E-09  5.50471E-09  5.49975E-09  5.49515E-09  5.49005E-09  5.48400E-09  5.47793E-09
   5.47719E-09  5.51451E-09  5.67113E-09  5.82121E-09  5.95378E-09  6.23419E-09  6.53585E-09  6.77822E-09  7.02311E-09  7.26183E-09
   7.46206E-09  7.58193E-09  7.58787E-09  7.54053E-09  7.57566E-09  7.41909E-09  7.12421E-09  7.05514E-09  6.98390E-09  6.84295E-09
   6.79854E-09  6.76765E-09  6.72959E-09  6.80395E-09  6.90827E-09  6.97905E-09  7.10682E-09  7.26737E-09  7.42191E-09  7.57384E-09
   7.67522E-09  7.76200E-09  7.90468E-09  7.93132E-09  7.84027E-09  7.87656E-09  7.86705E-09  7.73395E-09  7.66990E-09  7.62606E-09
   7.55533E-09  7.49881E-09  7.45628E-09  7.42384E-09  7.39872E-09  7.37892E-09  7.36310E-09  7.35031E-09  7.33988E-09  7.33127E-09
   7.32398E-09  7.31743E-09  7.31128E-09  7.30524E-09  7.29908E-09  7.29258E-09  7.28556E-09  7.27773E-09  7.26888E-09  7.25883E-09
   7.24739E-09  7.23442E-09  7.21973E-09  7.20317E-09  7.18456E-09  7.16377E-09  7.14061E-09  7.11495E-09  7.08663E-09  7.05551E-09
   7.02143E-09  6.98426E-09  6.94386E-09  6.90004E-09  6.85272E-09  6.80172E-09  6.74692E-09  6.68816E-09  6.62531E-09  6.55825E-09
   6.48681E-09  6.41087E-09  6.33033E-09  6.24502E-09  6.15478E-09  6.05953E-09  5.95912E-09  5.85344E-09  5.74236E-09  5.62577E-09
   5.50350E-09  5.37549E-09  5.24164E-09  5.10179E-09  4.95588E-09  4.80379E-09  4.64559E-09  4.48143E-09  4.31176E-09  4.13701E-09
   3.95775E-09  3.77472E-09  3.58905E-09  3.40276E-09  3.22035E-09  3.05541E-09  2.97336E-09  3.14062E-09  3.30698E-09  3.35163E-09
   3.26143E-09  3.07308E-09  2.84717E-09  2.63942E-09  2.45567E-09  2.22735E-09  1.82442E-09  1.15773E-09  4.10404E-10  5.08589E-11
  -2.20334E-10 -4.65070E-10 -6.97757E-10 -9.23149E-10 -1.14318E-09 -1.35856E-09 -1.56964E-09 -1.77650E-09 -1.97899E-09 -2.17698E-09
  -2.37029E-09 -2.55864E-09 -2.74184E-09 -2.91955E-09 -3.09158E-09 -3.25761E-09 -3.41740E-09 -3.57063E-09 -3.71708E-09 -3.85644E-09
  -3.98846E-09 -4.11287E-09 -4.22941E-09 -4.33782E-09 -4.43786E-09 -4.52927E-09 -4.61179E-09 -4.68523E-09 -4.74943E-09 -4.80466E-09
  -4.85117E-09 -4.88927E-09 -4.91923E-09 -4.94135E-09 -4.95590E-09 -4.96318E-09 -4.96346E-09 -4.95704E-09 -4.94421E-09 -4.92525E-09
  -4.90044E-09 -4.87006E-09 -4.83442E-09 -4.79377E-09 -4.74841E-09 -4.69862E-09 -4.64466E-09 -4.58684E-09 -4.52543E-09 -4.46067E-09
  -4.39284E-09 -4.32224E-09 -4.24911E-09 -4.17373E-09 -4.09634E-09 -4.01722E-09 -3.93663E-09 -3.85479E-09 -3.77198E-09 -3.68842E-09
  -3.60437E-09 -3.52006E-09 -3.43573E-09 -3.35161E-09 -3.26791E-09 -3.18487E-09 -3.10271E-09 -3.02164E-09 -2.94184E-09 -2.86353E-09
  -2.78692E-09 -2.71220E-09 -2.63955E-09 -2.56913E-09 -2.50117E-09 -2.43579E-09 -2.37318E-09 -2.31348E-09 -2.25687E-09 -2.20349E-09
  -2.15334E-09 -2.10634E-09 -2.06238E-09 -2.02134E-09 -1.98312E-09 -1.94761E-09 -1.91471E-09 -1.88431E-09 -1.85629E-09 -1.83055E-09
  -1.80701E-09 -1.78554E-09 -1.76605E-09 -1.74843E-09 -1.73258E-09 -1.71841E-09 -1.70582E-09 -1.69471E-09 -1.68498E-09 -1.67654E-09
  -1.66930E-09 -1.66317E-09 -1.65805E-09 -1.65385E-09 -1.65051E-09 -1.64791E-09 -1.64598E-09 -1.64464E-09 -1.64381E-09 -1.64342E-09
  -1.64337E-09 -1.64358E-09 -1.64400E-09 -1.64456E-09 -1.64517E-09 -1.64579E-09 -1.64631E-09 -1.64671E-09 -1.64689E-09 -1.64683E-09
  -1.64644E-09 -1.64567E-09 -1.64449E-09 -1.64281E-09 -1.64061E-09 -1.63784E-09 -1.63444E-09 -1.63037E-09 -1.62562E-09 -1.62010E-09
  -1.61382E-09 -1.60675E-09 -1.59884E-09 -1.59013E-09 -1.58061E-09 -1.57030E-09 -1.55920E-09 -1.54732E-09 -1.53466E-09 -1.52123E-09
  -1.50704E-09 -1.49208E-09 -1.47638E-09 -1.45992E-09 -1.44273E-09 -1.42480E-09 -1.40614E-09 -1.38675E-09 -1.36664E-09 -1.34582E-09
  -1.32429E-09 -1.30205E-09 -1.27912E-09 -1.25548E-09 -1.23116E-09 -1.20615E-09 -1.18046E-09 -1.15409E-09 -1.12704E-09 -1.09933E-09
  -1.07095E-09 -1.04190E-09 -1.01220E-09 -9.81844E-10 -9.50834E-10 -9.19175E-10 -8.86871E-10 -8.53924E-10 -8.20337E-10 -7.86113E-10
  -7.51254E-10 -7.15762E-10 -6.79641E-10 -6.42892E-10 -6.05516E-10 -5.67517E-10 -5.28895E-10 -4.89653E-10 -4.49791E-10 -4.09312E-10
  -3.68215E-10 -3.26503E-10 -2.84176E-10
 Glc      Conc. = 7.88E-10
   8.84964E-10  1.23814E-09  1.53575E-09  1.85374E-09  2.16815E-09  2.49724E-09  2.75431E-09  2.97671E-09  3.10228E-09  3.03615E-09
   2.95508E-09  2.88557E-09  2.81189E-09  2.81536E-09  3.00452E-09  3.34611E-09  3.76258E-09  4.22202E-09  4.62699E-09  4.94858E-09
   5.28212E-09  5.63238E-09  5.96872E-09  6.28583E-09  6.43182E-09  6.30635E-09  6.11856E-09  6.00289E-09  5.96753E-09  5.99212E-09
   6.00523E-09  5.99404E-09  6.01164E-09  6.02431E-09  5.98805E-09  5.96082E-09  5.95938E-09  5.94162E-09  5.90990E-09  5.89137E-09
   5.88431E-09  5.88475E-09  5.89099E-09  5.90158E-09  5.91555E-09  5.93224E-09  5.95110E-09  5.97170E-09  5.99369E-09  6.01681E-09
   6.04077E-09  6.06541E-09  6.09057E-09  6.11611E-09  6.14193E-09  6.16790E-09  6.19395E-09  6.22001E-09  6.24601E-09  6.27189E-09
   6.29762E-09  6.32315E-09  6.34844E-09  6.37346E-09  6.39819E-09  6.42260E-09  6.44667E-09  6.47038E-09  6.49373E-09  6.51669E-09
   6.53927E-09  6.56145E-09  6.58322E-09  6.60458E-09  6.62553E-09  6.64606E-09  6.66619E-09  6.68591E-09  6.70518E-09  6.72407E-09
   6.74255E-09  6.76064E-09  6.77831E-09  6.79560E-09  6.81253E-09  6.82905E-09  6.84522E-09  6.86102E-09  6.87647E-09  6.89158E-09
   6.90635E-09  6.92082E-09  6.93495E-09  6.94880E-09  6.96236E-09  6.97562E-09  6.98862E-09  7.00136E-09  7.01388E-09  7.02616E-09
   7.03825E-09  7.05010E-09  7.06176E-09  7.07327E-09  7.08457E-09  7.09568E-09  7.10648E-09  7.11687E-09  7.12674E-09  7.13600E-09
   7.14452E-09  7.15221E-09  7.15895E-09  7.16463E-09  7.16915E-09  7.17237E-09  7.17419E-09  7.17449E-09  7.17314E-09  7.17003E-09
   7.16502E-09  7.15802E-09  7.14887E-09  7.13747E-09  7.12368E-09  7.10739E-09  7.08844E-09  7.06673E-09  7.04212E-09  7.01448E-09
   6.98368E-09  6.94960E-09  6.91210E-09  6.87104E-09  6.82630E-09  6.77774E-09  6.72525E-09  6.66868E-09  6.60791E-09  6.54282E-09
   6.47325E-09  6.39907E-09  6.32020E-09  6.23648E-09  6.14777E-09  6.05396E-09  5.95494E-09  5.85057E-09  5.74073E-09  5.62533E-09
   5.50421E-09  5.37730E-09  5.24450E-09  5.10566E-09  4.96073E-09  4.80959E-09  4.65230E-09  4.48904E-09  4.32024E-09  4.14636E-09
   3.96797E-09  3.78581E-09  3.60103E-09  3.41561E-09  3.23395E-09  3.06891E-09  2.97982E-09  3.15547E-09  3.33984E-09  3.40061E-09
   3.32050E-09  3.13579E-09  2.90886E-09  2.69930E-09  2.51691E-09  2.29476E-09  1.89891E-09  1.22725E-09  4.43855E-10  6.96451E-11
  -2.04689E-10 -4.50332E-10 -6.83271E-10 -9.08674E-10 -1.12861E-09 -1.34387E-09 -1.55481E-09 -1.76152E-09 -1.96386E-09 -2.16172E-09
  -2.35490E-09 -2.54314E-09 -2.72624E-09 -2.90385E-09 -3.07580E-09 -3.24176E-09 -3.40148E-09 -3.55465E-09 -3.70106E-09 -3.84038E-09
  -3.97237E-09 -4.09676E-09 -4.21328E-09 -4.32169E-09 -4.42173E-09 -4.51315E-09 -4.59567E-09 -4.66914E-09 -4.73336E-09 -4.78862E-09
  -4.83517E-09 -4.87331E-09 -4.90331E-09 -4.92548E-09 -4.94009E-09 -4.94743E-09 -4.94778E-09 -4.94142E-09 -4.92866E-09 -4.90978E-09
  -4.88504E-09 -4.85475E-09 -4.81919E-09 -4.77864E-09 -4.73337E-09 -4.68368E-09 -4.62981E-09 -4.57209E-09 -4.51079E-09 -4.44613E-09
