 LCModel (Version 6.3-1R) Copyright: S.W. Provencher.          Ref.: Magn. Reson. Med. 30:672-679 (1993).                
 onepulse 13x10_ftSpec_smooth_lcm
 26 lines in following concentration table = NCONC+1
    Conc.  %SD   /Cr    Metabolite                                         
    0.000 999%   0.000 Ala                                                 
 1.26E-09  44%   0.000 Asp                                                 
    0.000 999%   0.000 Cr                                                  
 6.52E-10  68%   0.000 GABA                                                
    0.000 999%   0.000 Glc                                                 
 1.69E-09  31%   0.000 Gln                                                 
    0.000 999%   0.000 Glu                                                 
    0.000 999%   0.000 Glyc                                                
    0.000 999%   0.000 GPC                                                 
 1.33E-09  34%   0.000 GSH                                                 
 2.19E-09  17%   0.000 Ins                                                 
    0.000 999%   0.000 Lac                                                 
 3.85E-10  46%   0.000 NAAG                                                
    0.000 999%   0.000 NAA                                                 
    0.000 999%   0.000 PCh                                                 
    0.000 999%   0.000 PCr                                                 
 2.09E-09  31%   0.000 PE                                                  
 4.41E-10  54%   0.000 Scyllo                                              
    0.000 999%   0.000 Ser                                                 
 1.07E-10 746%   0.000 Tau                                                 
    0.000 999%   0.000 GPC+PCh                                             
 3.85E-10  46%   0.000 NAA+NAAG                                            
 2.19E-09  17%   0.000 Ins+Glyc                                            
    0.000 999%   0.000 Cr+PCr                                              
 1.69E-09  31%   0.000 Glu+Gln                                             
   6 lines in following misc. output table
  FWHM = 0.123 ppm    S/N =   4                                            
  Data shift = 0.425 ppm                                                   
  Ph: -21 deg     -53.3 deg/ppm                                            
  alphaB,S = 3.5E-01,   2.0E+01                                            
   10 spline knots.   Ns = 5(1)                                            
  (10) 6 infls.   (11) 3 extrs.                                            
  363 points on ppm-axis = NY
      4.250000     4.238821     4.227641     4.216462     4.205282     4.194103     4.182923     4.171744     4.160564     4.149385
      4.138206     4.127026     4.115847     4.104667     4.093488     4.082308     4.071129     4.059949     4.048770     4.037591
      4.026411     4.015232     4.004052     3.992873     3.981693     3.970514     3.959334     3.948155     3.936975     3.925796
      3.914617     3.903437     3.892258     3.881078     3.869899     3.858719     3.847540     3.836360     3.825181     3.814002
      3.802822     3.791643     3.780463     3.769284     3.758104     3.746925     3.735745     3.724566     3.713387     3.702207
      3.691028     3.679848     3.668669     3.657489     3.646310     3.635130     3.623951     3.612772     3.601592     3.590413
      3.579233     3.568054     3.556874     3.545695     3.534515     3.523336     3.512156     3.500977     3.489798     3.478618
      3.467439     3.456259     3.445080     3.433900     3.422721     3.411541     3.400362     3.389183     3.378003     3.366824
      3.355644     3.344465     3.333285     3.322106     3.310926     3.299747     3.288568     3.277388     3.266209     3.255029
      3.243850     3.232670     3.221491     3.210311     3.199132     3.187953     3.176773     3.165594     3.154414     3.143235
      3.132055     3.120876     3.109696     3.098517     3.087337     3.076158     3.064979     3.053799     3.042620     3.031440
      3.020261     3.009081     2.997902     2.986722     2.975543     2.964364     2.953184     2.942005     2.930825     2.919646
      2.908466     2.897287     2.886107     2.874928     2.863749     2.852569     2.841390     2.830210     2.819031     2.807851
      2.796672     2.785492     2.774313     2.763134     2.751954     2.740775     2.729595     2.718416     2.707236     2.696057
      2.684877     2.673698     2.662519     2.651339     2.640160     2.628980     2.617801     2.606621     2.595442     2.584262
      2.573083     2.561903     2.550724     2.539545     2.528365     2.517186     2.506006     2.494827     2.483647     2.472468
      2.461288     2.450109     2.438930     2.427750     2.416571     2.405391     2.394212     2.383032     2.371853     2.360673
      2.349494     2.338315     2.327135     2.315956     2.304776     2.293597     2.282417     2.271238     2.260058     2.248879
      2.237700     2.226520     2.215341     2.204161     2.192982     2.181802     2.170623     2.159443     2.148264     2.137084
      2.125905     2.114726     2.103546     2.092367     2.081187     2.070008     2.058828     2.047649     2.036469     2.025290
      2.014111     2.002931     1.991752     1.980572     1.969393     1.958213     1.947034     1.935854     1.924675     1.913496
      1.902316     1.891137     1.879957     1.868778     1.857598     1.846419     1.835239     1.824060     1.812881     1.801701
      1.790522     1.779342     1.768163     1.756983     1.745804     1.734624     1.723445     1.712265     1.701086     1.689907
      1.678727     1.667548     1.656368     1.645189     1.634009     1.622830     1.611650     1.600471     1.589292     1.578112
      1.566933     1.555753     1.544574     1.533394     1.522215     1.511035     1.499856     1.488677     1.477497     1.466318
      1.455138     1.443959     1.432779     1.421600     1.410420     1.399241     1.388062     1.376882     1.365703     1.354523
      1.343344     1.332164     1.320985     1.309805     1.298626     1.287446     1.276267     1.265088     1.253908     1.242729
      1.231549     1.220370     1.209190     1.198011     1.186831     1.175652     1.164473     1.153293     1.142114     1.130934
      1.119755     1.108575     1.097396     1.086216     1.075037     1.063858     1.052678     1.041499     1.030319     1.019140
      1.007960     0.996781     0.985601     0.974422     0.963243     0.952063     0.940884     0.929704     0.918525     0.907345
      0.896166     0.884986     0.873807     0.862628     0.851448     0.840269     0.829089     0.817910     0.806730     0.795551
      0.784371     0.773192     0.762012     0.750833     0.739654     0.728474     0.717295     0.706115     0.694936     0.683756
      0.672577     0.661397     0.650218     0.639039     0.627859     0.616680     0.605500     0.594321     0.583141     0.571962
      0.560782     0.549603     0.538424     0.527244     0.516065     0.504885     0.493706     0.482526     0.471347     0.460167
      0.448988     0.437809     0.426629     0.415450     0.404270     0.393091     0.381911     0.370732     0.359552     0.348373
      0.337193     0.326014     0.314835     0.303655     0.292476     0.281296     0.270117     0.258937     0.247758     0.236578
      0.225399     0.214220     0.203040
 NY phased data points follow
   8.74996E-09  8.36917E-09  8.83955E-09  9.16286E-09  9.83262E-09  9.87475E-09  9.86276E-09  1.06705E-08  1.07781E-08  1.06632E-08
   1.07245E-08  1.03213E-08  1.02607E-08  1.02347E-08  9.72446E-09  9.33143E-09  9.88545E-09  9.42920E-09  1.08687E-08  1.06457E-08
   1.05117E-08  9.60754E-09  9.53085E-09  9.08763E-09  1.08524E-08  1.12354E-08  1.22337E-08  1.23693E-08  1.19583E-08  1.07667E-08
   1.03603E-08  9.10765E-09  9.50880E-09  8.80219E-09  9.20413E-09  9.02829E-09  9.19080E-09  8.44995E-09  9.34170E-09  8.16258E-09
   8.39762E-09  7.81057E-09  8.03099E-09  7.72265E-09  8.27206E-09  7.77715E-09  8.60284E-09  7.63935E-09  7.82494E-09  6.77600E-09
   6.86538E-09  6.76685E-09  7.68857E-09  7.36163E-09  8.02772E-09  8.10213E-09  9.98909E-09  1.15547E-08  1.29747E-08  1.18842E-08
   1.14036E-08  1.04798E-08  1.04983E-08  9.28915E-09  9.23204E-09  8.58716E-09  8.32064E-09  7.45942E-09  7.19640E-09  6.91789E-09
   6.39109E-09  6.20929E-09  7.80672E-09  1.15568E-08  1.41373E-08  1.46834E-08  1.38953E-08  1.32625E-08  1.30041E-08  1.26409E-08
   1.20905E-08  1.15106E-08  1.18048E-08  1.14441E-08  1.13931E-08  1.06238E-08  1.14846E-08  1.03535E-08  1.06111E-08  9.99049E-09
   9.93346E-09  9.31394E-09  9.16459E-09  8.07766E-09  8.33978E-09  8.25856E-09  8.82113E-09  8.04479E-09  8.26592E-09  7.98020E-09
   8.38156E-09  8.21064E-09  7.76630E-09  6.65055E-09  7.23822E-09  5.79773E-09  5.99633E-09  6.04636E-09  7.41860E-09  6.28969E-09
   7.06115E-09  6.75682E-09  7.58131E-09  6.43884E-09  7.56366E-09  7.22535E-09  7.37345E-09  6.39041E-09  7.16482E-09  5.94338E-09
   5.40247E-09  5.29790E-09  6.04243E-09  5.18354E-09  5.56376E-09  5.57109E-09  6.42644E-09  6.02206E-09  6.60930E-09  6.28210E-09
   6.22099E-09  6.02140E-09  5.59130E-09  5.81606E-09  7.46986E-09  7.53229E-09  7.86930E-09  7.62012E-09  7.97705E-09  8.43208E-09
   9.29380E-09  8.76676E-09  9.21225E-09  9.40105E-09  9.32103E-09  9.76253E-09  9.19305E-09  9.19319E-09  9.38547E-09  9.08241E-09
   9.12579E-09  9.17326E-09  9.96844E-09  9.43289E-09  9.48206E-09  9.05566E-09  9.55216E-09  9.44349E-09  9.76073E-09  9.02985E-09
   8.92154E-09  9.41743E-09  7.61151E-09  5.62099E-09  7.59190E-09  1.22994E-08  1.62460E-08  1.84260E-08  1.85353E-08  1.95273E-08
   2.01237E-08  1.96367E-08  1.95780E-08  1.94602E-08  1.95002E-08  1.93574E-08  1.82814E-08  1.85066E-08  1.70922E-08  1.64292E-08
   1.51299E-08  1.28341E-08  1.12510E-08  9.04996E-09  6.97442E-09  4.70533E-09  2.27650E-09  2.49124E-10 -1.93986E-09 -3.52305E-09
  -5.74292E-09 -6.53078E-09 -7.12454E-09 -7.74170E-09 -7.87651E-09 -6.83576E-09 -6.64496E-09 -5.81698E-09 -4.98083E-09 -3.98565E-09
  -3.49014E-09 -2.34542E-09 -1.64670E-09 -1.27662E-09 -1.20041E-09 -1.67644E-10 -1.49225E-09 -6.39817E-10 -1.44244E-09 -9.69258E-10
  -1.09149E-09 -1.53600E-09 -7.87696E-10 -8.31287E-10 -8.91303E-10 -4.22428E-10 -4.24583E-10 -2.27466E-11 -4.80384E-10 -1.93049E-10
  -4.83290E-10 -9.31835E-10 -4.57194E-10 -7.62722E-10 -8.24035E-10 -4.27362E-10 -1.08377E-11 -4.62371E-11 -1.89706E-10 -2.95386E-10
  -2.05978E-10 -1.07608E-10  2.84844E-11 -3.02932E-10 -4.15050E-10 -1.04421E-09 -1.14404E-09 -1.02793E-09 -9.06455E-10 -8.76623E-10
  -6.66826E-10 -3.89291E-10 -3.62885E-10 -6.53109E-11 -5.86370E-10 -1.02880E-10 -2.38430E-10 -2.11213E-11 -4.25728E-10 -6.29839E-10
   1.36359E-10 -2.86429E-10 -2.39639E-10 -4.71367E-10  3.29041E-11 -6.13266E-10 -3.88432E-10 -1.16265E-09 -1.08573E-09 -5.96638E-10
  -1.43485E-09 -1.48552E-09 -1.33817E-09 -1.62592E-09 -1.61417E-09 -1.83564E-09 -1.99195E-09 -1.90236E-09 -1.37660E-09 -1.24179E-09
  -1.06950E-09 -6.10881E-10 -6.10178E-10 -5.71837E-10 -3.25066E-11 -6.32754E-10 -1.68945E-10 -1.44479E-10  1.02679E-10  9.08444E-11
   4.61528E-10  2.46690E-10  4.37918E-10  9.79511E-11  1.30229E-10  4.27488E-10  4.91080E-10  4.50629E-10  1.54641E-10  3.81413E-10
   2.72090E-10  5.89851E-10  6.74314E-10  4.02877E-10  6.02633E-10 -7.95409E-11  2.91282E-10  7.86632E-10  2.07471E-10  4.92669E-10
   8.06706E-11  7.87238E-10  2.58174E-10  3.85727E-10  2.46857E-10  1.57236E-10  2.45066E-10  2.81190E-10  8.87026E-11 -2.24161E-10
  -6.91343E-11  2.49476E-10  1.92920E-10 -4.23370E-11 -3.13602E-10  3.93344E-10  4.02465E-10 -1.07271E-10 -3.28240E-10 -1.73429E-10
  -5.50374E-11  3.48213E-10  7.05955E-11 -1.69599E-10  1.91838E-10 -9.53393E-12 -6.76088E-11  2.96648E-10 -2.35889E-10  1.73317E-10
  -9.50324E-11  4.07128E-10 -3.39569E-10 -1.10027E-10 -2.84158E-10  2.57161E-10 -5.48312E-10 -2.01245E-10 -4.08320E-10 -1.96502E-10
  -3.94841E-10 -1.51579E-10 -7.46389E-10 -4.59007E-10 -1.48056E-10 -1.45554E-10 -7.47076E-10 -2.82911E-10 -4.59893E-10 -1.76285E-10
  -5.02112E-10 -1.37219E-10 -6.10661E-10 -1.71970E-10 -4.24593E-10 -2.63499E-10 -4.60899E-10  6.80320E-11 -1.10681E-09 -3.41401E-10
  -8.71745E-10 -1.25344E-10 -6.97082E-10
 NY points of the fit to the data follow
   9.42239E-09  9.35302E-09  9.32320E-09  8.95818E-09  8.70857E-09  9.62419E-09  1.01794E-08  1.03889E-08  1.13952E-08  1.12326E-08
   1.05950E-08  1.04595E-08  9.79768E-09  9.78915E-09  1.01345E-08  9.91754E-09  9.08579E-09  1.00127E-08  1.18607E-08  1.10566E-08
   9.20476E-09  8.76431E-09  9.60113E-09  1.00932E-08  1.04944E-08  1.12418E-08  1.23351E-08  1.27632E-08  1.18070E-08  1.01951E-08
   9.99263E-09  9.95865E-09  9.62972E-09  9.05103E-09  9.18077E-09  8.92738E-09  8.86898E-09  8.60546E-09  8.52016E-09  8.32797E-09
   8.11407E-09  8.19687E-09  8.39341E-09  8.26089E-09  8.15366E-09  7.80148E-09  7.51741E-09  6.65875E-09  6.48670E-09  6.61669E-09
   7.07949E-09  7.65071E-09  7.98188E-09  8.50009E-09  9.26613E-09  9.30242E-09  9.49358E-09  1.04221E-08  1.09394E-08  1.06832E-08
   1.06969E-08  1.05716E-08  1.05254E-08  1.04799E-08  9.89862E-09  9.41066E-09  9.43575E-09  9.04595E-09  8.36874E-09  8.46122E-09
   9.03946E-09  9.30152E-09  9.70698E-09  1.01756E-08  1.09565E-08  1.16911E-08  1.24885E-08  1.30889E-08  1.33185E-08  1.33634E-08
   1.31738E-08  1.26893E-08  1.22818E-08  1.19838E-08  1.16659E-08  1.10417E-08  1.01529E-08  9.05094E-09  8.54271E-09  8.31731E-09
   8.10180E-09  7.96039E-09  7.96698E-09  7.85225E-09  7.62130E-09  7.62270E-09  7.57093E-09  7.39448E-09  7.34426E-09  7.29654E-09
   7.23716E-09  7.21726E-09  7.20769E-09  7.20412E-09  7.21138E-09  7.22620E-09  7.24604E-09  7.26970E-09  7.29561E-09  7.32342E-09
   7.35257E-09  7.38242E-09  7.41264E-09  7.44292E-09  7.47298E-09  7.50269E-09  7.53180E-09  7.56006E-09  7.58728E-09  7.61332E-09
   7.63802E-09  7.66125E-09  7.68289E-09  7.70281E-09  7.72087E-09  7.73697E-09  7.75101E-09  7.76287E-09  7.77246E-09  7.77968E-09
   7.78442E-09  7.78660E-09  7.78614E-09  7.78294E-09  7.77693E-09  7.76802E-09  7.75614E-09  7.74120E-09  7.72314E-09  7.70191E-09
   7.67742E-09  7.64963E-09  7.61850E-09  7.58396E-09  7.54599E-09  7.50455E-09  7.45966E-09  7.41130E-09  7.35952E-09  7.30437E-09
   7.24592E-09  7.18434E-09  7.11983E-09  7.05268E-09  6.98331E-09  6.91233E-09  6.84065E-09  6.76973E-09  6.70180E-09  6.64012E-09
   6.58986E-09  6.55974E-09  6.56582E-09  6.64123E-09  6.86699E-09  7.50065E-09  9.79090E-09  1.62407E-08  2.00947E-08  2.09462E-08
   2.08265E-08  2.04400E-08  1.99680E-08  1.97005E-08  1.98468E-08  2.05233E-08  2.06922E-08  1.72714E-08  9.25685E-09  5.74969E-09
   4.62829E-09  4.05560E-09  3.67498E-09  3.38173E-09  3.13507E-09  2.91621E-09  2.71529E-09  2.52679E-09  2.34747E-09  2.17526E-09
   2.00884E-09  1.84740E-09  1.69036E-09  1.53743E-09  1.38834E-09  1.24301E-09  1.10138E-09  9.63489E-10  8.29345E-10  6.99055E-10
   5.72706E-10  4.50407E-10  3.32295E-10  2.18494E-10  1.09161E-10  4.44061E-12 -9.54785E-11 -1.90490E-10 -2.80438E-10 -3.65451E-10
  -4.45631E-10 -5.21101E-10 -5.91967E-10 -6.58356E-10 -7.20364E-10 -7.78117E-10 -8.31711E-10 -8.81252E-10 -9.26866E-10 -9.68653E-10
  -1.00670E-09 -1.04114E-09 -1.07207E-09 -1.09958E-09 -1.12380E-09 -1.14482E-09 -1.16273E-09 -1.17768E-09 -1.18975E-09 -1.19901E-09
  -1.20560E-09 -1.20962E-09 -1.21116E-09 -1.21035E-09 -1.20726E-09 -1.20202E-09 -1.19473E-09 -1.18547E-09 -1.17436E-09 -1.16150E-09
  -1.14700E-09 -1.13094E-09 -1.11345E-09 -1.09462E-09 -1.07454E-09 -1.05333E-09 -1.03110E-09 -1.00795E-09 -9.83951E-10 -9.59215E-10
  -9.33867E-10 -9.08008E-10 -8.81722E-10 -8.55101E-10 -8.28299E-10 -8.01355E-10 -7.74412E-10 -7.47551E-10 -7.20891E-10 -6.94535E-10
  -6.68517E-10 -6.42861E-10 -6.17574E-10 -5.92657E-10 -5.68119E-10 -5.43968E-10 -5.20205E-10 -4.96840E-10 -4.73875E-10 -4.51319E-10
  -4.29180E-10 -4.07457E-10 -3.86164E-10 -3.65298E-10 -3.44867E-10 -3.24884E-10 -3.05347E-10 -2.86265E-10 -2.67641E-10 -2.49488E-10
  -2.31801E-10 -2.14597E-10 -1.97868E-10 -1.81630E-10 -1.65892E-10 -1.50653E-10 -1.35916E-10 -1.21692E-10 -1.07989E-10 -9.48111E-11
  -8.21601E-11 -7.00407E-11 -5.84608E-11 -4.74355E-11 -3.69543E-11 -2.70385E-11 -1.76802E-11 -8.89105E-12 -6.75071E-13  6.95538E-12
   1.39972E-11  2.04599E-11  2.63134E-11  3.15704E-11  3.62196E-11  4.02471E-11  4.36557E-11  4.64477E-11  4.85949E-11  5.01164E-11
   5.09876E-11  5.12041E-11  5.07910E-11  4.97544E-11  4.81093E-11  4.58697E-11  4.30518E-11  3.96714E-11  3.57429E-11  3.12823E-11
   2.63016E-11  2.08217E-11  1.48538E-11  8.41349E-12  1.51607E-12 -5.82268E-12 -1.35871E-11 -2.17633E-11 -3.03348E-11 -3.92863E-11
  -4.86059E-11 -5.82754E-11 -6.82771E-11 -7.86030E-11 -8.92312E-11 -1.00149E-10 -1.11342E-10 -1.22794E-10 -1.34490E-10 -1.46415E-10
  -1.58554E-10 -1.70892E-10 -1.83413E-10 -1.96102E-10 -2.08943E-10 -2.21923E-10 -2.35028E-10 -2.48238E-10 -2.61542E-10 -2.74920E-10
  -2.88364E-10 -3.01853E-10 -3.15375E-10 -3.28912E-10 -3.42449E-10 -3.55977E-10 -3.69476E-10 -3.82926E-10 -3.96322E-10 -4.09642E-10
  -4.22873E-10 -4.35999E-10 -4.49006E-10
 NY background values follow
    -3.744E-09   -3.634E-09   -3.524E-09   -3.413E-09   -3.303E-09   -3.192E-09   -3.082E-09   -2.971E-09   -2.861E-09   -2.750E-09
    -2.640E-09   -2.529E-09   -2.419E-09   -2.308E-09   -2.198E-09   -2.088E-09   -1.978E-09   -1.868E-09   -1.758E-09   -1.649E-09
    -1.539E-09   -1.430E-09   -1.321E-09   -1.213E-09   -1.104E-09   -9.958E-10   -8.879E-10   -7.802E-10   -6.728E-10   -5.657E-10
    -4.590E-10   -3.526E-10   -2.466E-10   -1.410E-10   -3.571E-11    6.913E-11    1.735E-10    2.775E-10    3.811E-10    4.841E-10
     5.867E-10    6.888E-10    7.903E-10    8.914E-10    9.919E-10    1.092E-09    1.191E-09    1.290E-09    1.388E-09    1.486E-09
     1.583E-09    1.679E-09    1.774E-09    1.869E-09    1.964E-09    2.057E-09    2.150E-09    2.242E-09    2.334E-09    2.425E-09
     2.515E-09    2.604E-09    2.693E-09    2.781E-09    2.868E-09    2.955E-09    3.041E-09    3.126E-09    3.211E-09    3.294E-09
     3.377E-09    3.460E-09    3.541E-09    3.622E-09    3.703E-09    3.782E-09    3.861E-09    3.939E-09    4.016E-09    4.093E-09
     4.169E-09    4.244E-09    4.318E-09    4.392E-09    4.464E-09    4.536E-09    4.608E-09    4.678E-09    4.748E-09    4.817E-09
     4.886E-09    4.953E-09    5.020E-09    5.086E-09    5.151E-09    5.216E-09    5.279E-09    5.342E-09    5.405E-09    5.466E-09
     5.526E-09    5.586E-09    5.645E-09    5.704E-09    5.761E-09    5.818E-09    5.873E-09    5.928E-09    5.982E-09    6.034E-09
     6.085E-09    6.135E-09    6.184E-09    6.231E-09    6.276E-09    6.320E-09    6.362E-09    6.402E-09    6.441E-09    6.477E-09
     6.512E-09    6.544E-09    6.574E-09    6.602E-09    6.628E-09    6.651E-09    6.671E-09    6.689E-09    6.705E-09    6.717E-09
     6.727E-09    6.734E-09    6.737E-09    6.738E-09    6.736E-09    6.730E-09    6.721E-09    6.709E-09    6.693E-09    6.674E-09
     6.651E-09    6.624E-09    6.594E-09    6.559E-09    6.521E-09    6.479E-09    6.432E-09    6.382E-09    6.327E-09    6.268E-09
     6.204E-09    6.136E-09    6.063E-09    5.986E-09    5.903E-09    5.816E-09    5.725E-09    5.628E-09    5.527E-09    5.421E-09
     5.312E-09    5.198E-09    5.080E-09    4.959E-09    4.835E-09    4.707E-09    4.576E-09    4.442E-09    4.306E-09    4.167E-09
     4.026E-09    3.883E-09    3.738E-09    3.591E-09    3.442E-09    3.293E-09    3.142E-09    2.990E-09    2.838E-09    2.685E-09
     2.531E-09    2.377E-09    2.224E-09    2.070E-09    1.917E-09    1.764E-09    1.613E-09    1.462E-09    1.312E-09    1.164E-09
     1.017E-09    8.714E-10    7.281E-10    5.869E-10    4.479E-10    3.114E-10    1.776E-10    4.662E-11   -8.135E-11   -2.061E-10
    -3.274E-10   -4.451E-10   -5.590E-10   -6.690E-10   -7.748E-10   -8.762E-10   -9.730E-10   -1.065E-09   -1.152E-09   -1.235E-09
    -1.313E-09   -1.386E-09   -1.455E-09   -1.519E-09   -1.579E-09   -1.635E-09   -1.687E-09   -1.735E-09   -1.779E-09   -1.819E-09
    -1.855E-09   -1.888E-09   -1.918E-09   -1.944E-09   -1.967E-09   -1.987E-09   -2.003E-09   -2.017E-09   -2.028E-09   -2.036E-09
    -2.042E-09   -2.045E-09   -2.045E-09   -2.043E-09   -2.039E-09   -2.033E-09   -2.025E-09   -2.014E-09   -2.002E-09   -1.989E-09
    -1.973E-09   -1.956E-09   -1.938E-09   -1.918E-09   -1.897E-09   -1.875E-09   -1.852E-09   -1.828E-09   -1.804E-09   -1.778E-09
    -1.752E-09   -1.725E-09   -1.698E-09   -1.671E-09   -1.644E-09   -1.616E-09   -1.588E-09   -1.561E-09   -1.533E-09   -1.506E-09
    -1.480E-09   -1.453E-09   -1.427E-09   -1.402E-09   -1.377E-09   -1.352E-09   -1.328E-09   -1.304E-09   -1.280E-09   -1.257E-09
    -1.234E-09   -1.212E-09   -1.190E-09   -1.169E-09   -1.148E-09   -1.127E-09   -1.107E-09   -1.087E-09   -1.068E-09   -1.049E-09
    -1.031E-09   -1.013E-09   -9.961E-10   -9.794E-10   -9.631E-10   -9.473E-10   -9.321E-10   -9.174E-10   -9.031E-10   -8.895E-10
    -8.763E-10   -8.637E-10   -8.516E-10   -8.401E-10   -8.291E-10   -8.187E-10   -8.089E-10   -7.996E-10   -7.909E-10   -7.828E-10
    -7.753E-10   -7.684E-10   -7.621E-10   -7.563E-10   -7.512E-10   -7.468E-10   -7.429E-10   -7.396E-10   -7.370E-10   -7.351E-10
    -7.337E-10   -7.331E-10   -7.331E-10   -7.336E-10   -7.348E-10   -7.366E-10   -7.390E-10   -7.420E-10   -7.455E-10   -7.495E-10
    -7.540E-10   -7.591E-10   -7.646E-10   -7.706E-10   -7.771E-10   -7.840E-10   -7.914E-10   -7.991E-10   -8.073E-10   -8.158E-10
    -8.247E-10   -8.339E-10   -8.435E-10   -8.534E-10   -8.636E-10   -8.741E-10   -8.849E-10   -8.959E-10   -9.072E-10   -9.187E-10
    -9.305E-10   -9.424E-10   -9.545E-10   -9.668E-10   -9.792E-10   -9.917E-10   -1.004E-09   -1.017E-09   -1.030E-09   -1.043E-09
    -1.056E-09   -1.069E-09   -1.082E-09   -1.095E-09   -1.109E-09   -1.122E-09   -1.135E-09   -1.148E-09   -1.161E-09   -1.174E-09
    -1.186E-09   -1.199E-09   -1.212E-09
 Asp      Conc. = 1.26E-09
  -2.37892E-09 -2.49640E-09 -2.47938E-09 -2.55026E-09 -2.52213E-09 -2.54202E-09 -2.63076E-09 -2.67400E-09 -2.63657E-09 -2.56829E-09
  -2.48552E-09 -2.39466E-09 -2.29776E-09 -2.19491E-09 -2.09097E-09 -1.98606E-09 -1.88016E-09 -1.77340E-09 -1.66596E-09 -1.55792E-09
  -1.44939E-09 -1.34042E-09 -1.23101E-09 -1.12116E-09 -1.01087E-09 -9.00044E-10 -7.88583E-10 -6.76310E-10 -5.62997E-10 -4.48253E-10
  -3.31504E-10 -2.11910E-10 -8.78885E-11  4.33613E-11  1.87923E-10  3.61916E-10  5.96981E-10  7.73877E-10  9.67129E-10  1.07631E-09
   1.16243E-09  1.28484E-09  1.54163E-09  1.87852E-09  2.37233E-09  2.82690E-09  2.91956E-09  2.85601E-09  3.11073E-09  3.25626E-09
   3.44578E-09  3.71576E-09  3.88600E-09  3.82960E-09  3.67109E-09  3.36682E-09  3.18460E-09  3.35342E-09  3.44402E-09  3.22775E-09
   3.20381E-09  3.21345E-09  3.15841E-09  3.22784E-09  3.36208E-09  3.42512E-09  3.40615E-09  3.43031E-09  3.47477E-09  3.52972E-09
   3.59078E-09  3.65569E-09  3.72310E-09  3.79218E-09  3.86236E-09  3.93324E-09  4.00454E-09  4.07603E-09  4.14757E-09  4.21901E-09
   4.29025E-09  4.36121E-09  4.43184E-09  4.50206E-09  4.57182E-09  4.64111E-09  4.70987E-09  4.77809E-09  4.84573E-09  4.91278E-09
   4.97921E-09  5.04500E-09  5.11016E-09  5.17465E-09  5.23847E-09  5.30162E-09  5.36407E-09  5.42582E-09  5.48685E-09  5.54717E-09
   5.60675E-09  5.66562E-09  5.72375E-09  5.78113E-09  5.83777E-09  5.89361E-09  5.94856E-09  6.00255E-09  6.05550E-09  6.10732E-09
   6.15793E-09  6.20726E-09  6.25521E-09  6.30172E-09  6.34669E-09  6.39005E-09  6.43171E-09  6.47160E-09  6.50964E-09  6.54574E-09
   6.57982E-09  6.61181E-09  6.64162E-09  6.66917E-09  6.69439E-09  6.71719E-09  6.73750E-09  6.75523E-09  6.77030E-09  6.78264E-09
   6.79216E-09  6.79879E-09  6.80245E-09  6.80305E-09  6.80052E-09  6.79478E-09  6.78575E-09  6.77336E-09  6.75752E-09  6.73817E-09
   6.71520E-09  6.68857E-09  6.65818E-09  6.62397E-09  6.58586E-09  6.54377E-09  6.49765E-09  6.44740E-09  6.39297E-09  6.33431E-09
   6.27133E-09  6.20401E-09  6.13229E-09  6.05613E-09  5.97552E-09  5.89047E-09  5.80105E-09  5.70755E-09  5.61043E-09  5.51028E-09
   5.40798E-09  5.30488E-09  5.20345E-09  5.10874E-09  5.03346E-09  5.02052E-09  5.29605E-09  6.04408E-09  6.27415E-09  6.19443E-09
   6.04409E-09  5.86780E-09  5.68567E-09  5.53653E-09  5.44458E-09  5.41146E-09  5.24950E-09  4.52924E-09  3.37002E-09  2.97047E-09
   2.72908E-09  2.53246E-09  2.35388E-09  2.18435E-09  2.02013E-09  1.85954E-09  1.70165E-09  1.54604E-09  1.39253E-09  1.24106E-09
   1.09161E-09  9.44300E-10  7.99175E-10  6.56420E-10  5.16121E-10  3.78460E-10  2.43584E-10  1.11685E-10 -1.71046E-11 -1.42577E-10
  -2.64564E-10 -3.82891E-10 -4.97367E-10 -6.07822E-10 -7.14064E-10 -8.15916E-10 -9.13161E-10 -1.00567E-09 -1.09328E-09 -1.17608E-09
  -1.25418E-09 -1.32767E-09 -1.39667E-09 -1.46127E-09 -1.52158E-09 -1.57771E-09 -1.62974E-09 -1.67779E-09 -1.72197E-09 -1.76238E-09
  -1.79910E-09 -1.83225E-09 -1.86193E-09 -1.88825E-09 -1.91130E-09 -1.93119E-09 -1.94800E-09 -1.96187E-09 -1.97290E-09 -1.98115E-09
  -1.98675E-09 -1.98981E-09 -1.99041E-09 -1.98867E-09 -1.98468E-09 -1.97856E-09 -1.97040E-09 -1.96030E-09 -1.94836E-09 -1.93469E-09
  -1.91938E-09 -1.90254E-09 -1.88428E-09 -1.86469E-09 -1.84387E-09 -1.82193E-09 -1.79897E-09 -1.77511E-09 -1.75041E-09 -1.72498E-09
  -1.69896E-09 -1.67243E-09 -1.64548E-09 -1.61821E-09 -1.59076E-09 -1.56318E-09 -1.53561E-09 -1.50813E-09 -1.48086E-09 -1.45389E-09
  -1.42728E-09 -1.40103E-09 -1.37516E-09 -1.34966E-09 -1.32455E-09 -1.29984E-09 -1.27551E-09 -1.25159E-09 -1.22808E-09 -1.20498E-09
  -1.18230E-09 -1.16005E-09 -1.13822E-09 -1.11683E-09 -1.09588E-09 -1.07539E-09 -1.05534E-09 -1.03575E-09 -1.01663E-09 -9.97976E-10
  -9.79795E-10 -9.62103E-10 -9.44888E-10 -9.28168E-10 -9.11951E-10 -8.96238E-10 -8.81029E-10 -8.66336E-10 -8.52168E-10 -8.38529E-10
  -8.25419E-10 -8.12843E-10 -8.00810E-10 -7.89334E-10 -7.78404E-10 -7.68043E-10 -7.58241E-10 -7.49012E-10 -7.40358E-10 -7.32292E-10
  -7.24818E-10 -7.17924E-10 -7.11642E-10 -7.05958E-10 -7.00885E-10 -6.96435E-10 -6.92606E-10 -6.89396E-10 -6.86832E-10 -6.84896E-10
  -6.83611E-10 -6.82983E-10 -6.82987E-10 -6.83615E-10 -6.84853E-10 -6.86687E-10 -6.89100E-10 -6.92077E-10 -6.95604E-10 -6.99665E-10
  -7.04247E-10 -7.09329E-10 -7.14900E-10 -7.20944E-10 -7.27447E-10 -7.34392E-10 -7.41764E-10 -7.49548E-10 -7.57729E-10 -7.66291E-10
  -7.75220E-10 -7.84501E-10 -7.94114E-10 -8.04052E-10 -8.14294E-10 -8.24825E-10 -8.35633E-10 -8.46700E-10 -8.58010E-10 -8.69550E-10
  -8.81305E-10 -8.93259E-10 -9.05396E-10 -9.17702E-10 -9.30160E-10 -9.42755E-10 -9.55477E-10 -9.68303E-10 -9.81223E-10 -9.94218E-10
  -1.00728E-09 -1.02038E-09 -1.03352E-09 -1.04667E-09 -1.05983E-09 -1.07297E-09 -1.08608E-09 -1.09915E-09 -1.11216E-09 -1.12509E-09
  -1.13793E-09 -1.15067E-09 -1.16329E-09
 GABA     Conc. = 6.52E-10
  -3.69984E-09 -3.58903E-09 -3.47809E-09 -3.36703E-09 -3.25584E-09 -3.14455E-09 -3.03315E-09 -2.92166E-09 -2.81007E-09 -2.69835E-09
  -2.58656E-09 -2.47464E-09 -2.36255E-09 -2.25038E-09 -2.13795E-09 -2.02531E-09 -1.91255E-09 -1.79931E-09 -1.68558E-09 -1.57137E-09
  -1.45629E-09 -1.34002E-09 -1.22215E-09 -1.10189E-09 -9.78068E-10 -8.48735E-10 -7.09628E-10 -5.51576E-10 -3.49201E-10 -2.94068E-11
   1.48453E-10  2.97083E-10  7.33939E-10  1.03003E-09  1.13734E-09  1.38170E-09  1.60671E-09  1.76057E-09  1.85927E-09  1.85613E-09
   1.77225E-09  1.91449E-09  1.92831E-09  1.61983E-09  1.61500E-09  1.71261E-09  1.60398E-09  1.58252E-09  1.62232E-09  1.68683E-09
   1.76414E-09  1.84854E-09  1.93769E-09  2.03075E-09  2.12718E-09  2.22688E-09  2.33065E-09  2.43995E-09  2.55781E-09  2.69109E-09
   2.85547E-09  3.10040E-09  3.39056E-09  3.51883E-09  3.75593E-09  4.11565E-09  4.24936E-09  4.33161E-09  4.48520E-09  4.60700E-09
   4.68724E-09  4.70096E-09  4.60218E-09  4.52770E-09  4.61476E-09  4.45068E-09  4.23896E-09  4.32300E-09  4.35392E-09  4.36313E-09
   4.47734E-09  4.51842E-09  4.62113E-09  4.88273E-09  5.00405E-09  5.09547E-09  5.31406E-09  5.46863E-09  5.58621E-09  5.72329E-09
   5.77528E-09  5.81645E-09  5.96746E-09  5.96325E-09  5.83783E-09  5.93158E-09  5.95413E-09  5.83724E-09  5.84125E-09  5.86231E-09
   5.85081E-09  5.86098E-09  5.88517E-09  5.91750E-09  5.95487E-09  5.99525E-09  6.03756E-09  6.08106E-09  6.12520E-09  6.16964E-09
   6.21399E-09  6.25780E-09  6.30088E-09  6.34305E-09  6.38416E-09  6.42413E-09  6.46281E-09  6.50001E-09  6.53560E-09  6.56948E-09
   6.60152E-09  6.63166E-09  6.65978E-09  6.68578E-09  6.70956E-09  6.73104E-09  6.75012E-09  6.76671E-09  6.78072E-09  6.79207E-09
   6.80066E-09  6.80641E-09  6.80924E-09  6.80907E-09  6.80581E-09  6.79938E-09  6.78970E-09  6.77667E-09  6.76022E-09  6.74028E-09
   6.71675E-09  6.68956E-09  6.65864E-09  6.62390E-09  6.58526E-09  6.54263E-09  6.49596E-09  6.44516E-09  6.39016E-09  6.33089E-09
   6.26727E-09  6.19925E-09  6.12675E-09  6.04972E-09  5.96812E-09  5.88190E-09  5.79108E-09  5.69586E-09  5.59656E-09  5.49357E-09
   5.38742E-09  5.27883E-09  5.16905E-09  5.06046E-09  4.95870E-09  4.88137E-09  4.91392E-09  5.27451E-09  5.36320E-09  5.26342E-09
   5.11811E-09  4.95704E-09  4.78928E-09  4.63660E-09  4.51137E-09  4.42391E-09  4.29764E-09  3.90358E-09  3.16544E-09  2.85757E-09
   2.65340E-09  2.47607E-09  2.30904E-09  2.14710E-09  1.98818E-09  1.83147E-09  1.67653E-09  1.52321E-09  1.37154E-09  1.22155E-09
   1.07332E-09  9.27030E-10  7.82766E-10  6.40745E-10  5.01076E-10  3.63960E-10  2.29560E-10  9.80784E-11 -3.03434E-11 -1.55490E-10
  -2.77187E-10 -3.95254E-10 -5.09498E-10 -6.19743E-10 -7.25796E-10 -8.27476E-10 -9.24566E-10 -1.01694E-09 -1.10441E-09 -1.18710E-09
  -1.26508E-09 -1.33848E-09 -1.40738E-09 -1.47190E-09 -1.53213E-09 -1.58818E-09 -1.64015E-09 -1.68814E-09 -1.73226E-09 -1.77261E-09
  -1.80928E-09 -1.84238E-09 -1.87203E-09 -1.89830E-09 -1.92131E-09 -1.94116E-09 -1.95794E-09 -1.97178E-09 -1.98278E-09 -1.99100E-09
