 LCModel (Version 6.3-1R) Copyright: S.W. Provencher.          Ref.: Magn. Reson. Med. 30:672-679 (1993).                
 onepulse 13x18_ftSpec_smooth_lcm
 26 lines in following concentration table = NCONC+1
    Conc.  %SD   /Cr    Metabolite                                         
 4.26E-10  87%   0.000 Ala                                                 
 1.24E-09  86%   0.000 Asp                                                 
    0.000 999%   0.000 Cr                                                  
 2.67E-09  27%   0.000 GABA                                                
 1.19E-09  72%   0.000 Glc                                                 
    0.000 999%   0.000 Gln                                                 
    0.000 999%   0.000 Glu                                                 
    0.000 999%   0.000 Glyc                                                
 4.70E-11 999%   0.000 GPC                                                 
    0.000 999%   0.000 GSH                                                 
 4.70E-10  97%   0.000 Ins                                                 
    0.000 999%   0.000 Lac                                                 
    0.000 999%   0.000 NAAG                                                
 6.73E-10  41%   0.000 NAA                                                 
 4.29E-11 999%   0.000 PCh                                                 
    0.000 999%   0.000 PCr                                                 
 7.52E-11 999%   0.000 PE                                                  
 7.05E-11 333%   0.000 Scyllo                                              
    0.000 999%   0.000 Ser                                                 
    0.000 999%   0.000 Tau                                                 
 8.99E-11 443%   0.000 GPC+PCh                                             
 6.73E-10  41%   0.000 NAA+NAAG                                            
 4.70E-10  97%   0.000 Ins+Glyc                                            
    0.000 999%   0.000 Cr+PCr                                              
    0.000 999%   0.000 Glu+Gln                                             
   6 lines in following misc. output table
  FWHM = 0.078 ppm    S/N =   2                                            
  Data shift = 0.347 ppm                                                   
  Ph:  88 deg      19.0 deg/ppm                                            
  alphaB,S = 6.5E-01,   4.3E+01                                            
    8 spline knots.   Ns = 5(1)                                            
  ( 9) 2 infls.   ( 5) 1 extrs.                                            
  363 points on ppm-axis = NY
      4.250000     4.238821     4.227641     4.216462     4.205282     4.194103     4.182923     4.171744     4.160564     4.149385
      4.138206     4.127026     4.115847     4.104667     4.093488     4.082308     4.071129     4.059949     4.048770     4.037591
      4.026411     4.015232     4.004052     3.992873     3.981693     3.970514     3.959334     3.948155     3.936975     3.925796
      3.914617     3.903437     3.892258     3.881078     3.869899     3.858719     3.847540     3.836360     3.825181     3.814002
      3.802822     3.791643     3.780463     3.769284     3.758104     3.746925     3.735745     3.724566     3.713387     3.702207
      3.691028     3.679848     3.668669     3.657489     3.646310     3.635130     3.623951     3.612772     3.601592     3.590413
      3.579233     3.568054     3.556874     3.545695     3.534515     3.523336     3.512156     3.500977     3.489798     3.478618
      3.467439     3.456259     3.445080     3.433900     3.422721     3.411541     3.400362     3.389183     3.378003     3.366824
      3.355644     3.344465     3.333285     3.322106     3.310926     3.299747     3.288568     3.277388     3.266209     3.255029
      3.243850     3.232670     3.221491     3.210311     3.199132     3.187953     3.176773     3.165594     3.154414     3.143235
      3.132055     3.120876     3.109696     3.098517     3.087337     3.076158     3.064979     3.053799     3.042620     3.031440
      3.020261     3.009081     2.997902     2.986722     2.975543     2.964364     2.953184     2.942005     2.930825     2.919646
      2.908466     2.897287     2.886107     2.874928     2.863749     2.852569     2.841390     2.830210     2.819031     2.807851
      2.796672     2.785492     2.774313     2.763134     2.751954     2.740775     2.729595     2.718416     2.707236     2.696057
      2.684877     2.673698     2.662519     2.651339     2.640160     2.628980     2.617801     2.606621     2.595442     2.584262
      2.573083     2.561903     2.550724     2.539545     2.528365     2.517186     2.506006     2.494827     2.483647     2.472468
      2.461288     2.450109     2.438930     2.427750     2.416571     2.405391     2.394212     2.383032     2.371853     2.360673
      2.349494     2.338315     2.327135     2.315956     2.304776     2.293597     2.282417     2.271238     2.260058     2.248879
      2.237700     2.226520     2.215341     2.204161     2.192982     2.181802     2.170623     2.159443     2.148264     2.137084
      2.125905     2.114726     2.103546     2.092367     2.081187     2.070008     2.058828     2.047649     2.036469     2.025290
      2.014111     2.002931     1.991752     1.980572     1.969393     1.958213     1.947034     1.935854     1.924675     1.913496
      1.902316     1.891137     1.879957     1.868778     1.857598     1.846419     1.835239     1.824060     1.812881     1.801701
      1.790522     1.779342     1.768163     1.756983     1.745804     1.734624     1.723445     1.712265     1.701086     1.689907
      1.678727     1.667548     1.656368     1.645189     1.634009     1.622830     1.611650     1.600471     1.589292     1.578112
      1.566933     1.555753     1.544574     1.533394     1.522215     1.511035     1.499856     1.488677     1.477497     1.466318
      1.455138     1.443959     1.432779     1.421600     1.410420     1.399241     1.388062     1.376882     1.365703     1.354523
      1.343344     1.332164     1.320985     1.309805     1.298626     1.287446     1.276267     1.265088     1.253908     1.242729
      1.231549     1.220370     1.209190     1.198011     1.186831     1.175652     1.164473     1.153293     1.142114     1.130934
      1.119755     1.108575     1.097396     1.086216     1.075037     1.063858     1.052678     1.041499     1.030319     1.019140
      1.007960     0.996781     0.985601     0.974422     0.963243     0.952063     0.940884     0.929704     0.918525     0.907345
      0.896166     0.884986     0.873807     0.862628     0.851448     0.840269     0.829089     0.817910     0.806730     0.795551
      0.784371     0.773192     0.762012     0.750833     0.739654     0.728474     0.717295     0.706115     0.694936     0.683756
      0.672577     0.661397     0.650218     0.639039     0.627859     0.616680     0.605500     0.594321     0.583141     0.571962
      0.560782     0.549603     0.538424     0.527244     0.516065     0.504885     0.493706     0.482526     0.471347     0.460167
      0.448988     0.437809     0.426629     0.415450     0.404270     0.393091     0.381911     0.370732     0.359552     0.348373
      0.337193     0.326014     0.314835     0.303655     0.292476     0.281296     0.270117     0.258937     0.247758     0.236578
      0.225399     0.214220     0.203040
 NY phased data points follow
   8.07327E-09  7.67498E-09  1.06348E-08  1.04021E-08  1.22278E-08  1.02701E-08  1.21220E-08  1.03523E-08  1.14481E-08  9.46562E-09
   1.11353E-08  9.07547E-09  1.12038E-08  9.54311E-09  1.12349E-08  9.88930E-09  1.10111E-08  9.84359E-09  1.13286E-08  1.10654E-08
   1.17897E-08  1.02260E-08  1.17032E-08  9.90866E-09  1.12944E-08  9.72371E-09  1.17940E-08  1.00708E-08  1.16408E-08  1.04767E-08
   1.07610E-08  1.03249E-08  1.15753E-08  1.17337E-08  1.27100E-08  1.27443E-08  1.38398E-08  1.25481E-08  1.41755E-08  1.14050E-08
   1.29518E-08  1.12630E-08  1.25939E-08  1.07192E-08  1.17094E-08  1.09757E-08  1.14856E-08  1.02462E-08  1.04860E-08  9.36468E-09
   1.00744E-08  9.06137E-09  9.67026E-09  8.78642E-09  9.29625E-09  8.26938E-09  9.03267E-09  8.02047E-09  8.23766E-09  6.75062E-09
   7.60073E-09  5.73959E-09  8.11299E-09  7.06588E-09  1.03145E-08  9.99466E-09  1.20952E-08  1.12697E-08  1.18618E-08  1.07658E-08
   1.17818E-08  9.73335E-09  1.06158E-08  9.08909E-09  9.53892E-09  7.83875E-09  7.76387E-09  7.09601E-09  7.62231E-09  8.00552E-09
   1.00202E-08  1.07881E-08  1.31793E-08  1.34028E-08  1.46753E-08  1.32161E-08  1.43784E-08  1.34354E-08  1.46132E-08  1.27404E-08
   1.37248E-08  1.29508E-08  1.36898E-08  1.24867E-08  1.31064E-08  1.16313E-08  1.15707E-08  1.15462E-08  1.10080E-08  1.08295E-08
   1.03556E-08  9.54334E-09  1.05816E-08  9.08001E-09  9.89263E-09  9.47829E-09  9.36013E-09  8.49134E-09  9.10797E-09  7.58368E-09
   7.80482E-09  7.18728E-09  7.03718E-09  6.68708E-09  6.86965E-09  6.49942E-09  6.86709E-09  6.54970E-09  7.59291E-09  6.00450E-09
   7.59161E-09  6.89847E-09  7.62788E-09  6.37192E-09  6.90880E-09  6.04630E-09  5.68085E-09  4.74300E-09  5.69225E-09  4.73922E-09
   5.65448E-09  5.06471E-09  5.31795E-09  4.87273E-09  5.26758E-09  5.25832E-09  5.57223E-09  5.23052E-09  5.35555E-09  4.86194E-09
   5.87137E-09  6.21974E-09  7.16172E-09  6.27543E-09  7.35440E-09  6.54255E-09  8.09989E-09  7.59620E-09  8.16165E-09  7.72736E-09
   8.22297E-09  8.46300E-09  8.11752E-09  7.50377E-09  8.24311E-09  7.47220E-09  7.68598E-09  6.95526E-09  7.86676E-09  7.39591E-09
   7.96258E-09  7.54718E-09  7.88771E-09  6.83754E-09  7.35051E-09  7.04856E-09  6.95160E-09  6.59914E-09  7.90253E-09  8.35855E-09
   1.08196E-08  1.25907E-08  1.44969E-08  1.55330E-08  1.57025E-08  1.42462E-08  1.36447E-08  1.28438E-08  1.23307E-08  1.01378E-08
   9.56598E-09  8.47910E-09  7.49750E-09  6.00011E-09  4.72015E-09  3.01102E-09  1.43031E-09 -8.59734E-10 -1.81656E-09 -4.48051E-09
  -6.31374E-09 -8.60810E-09 -1.05416E-08 -1.29023E-08 -1.48050E-08 -1.62733E-08 -1.76685E-08 -1.92108E-08 -1.97759E-08 -2.07540E-08
  -2.02904E-08 -2.01736E-08 -1.81472E-08 -1.83743E-08 -1.62280E-08 -1.45537E-08 -1.21874E-08 -1.09288E-08 -8.77117E-09 -8.12297E-09
  -5.89985E-09 -5.06002E-09 -4.10479E-09 -2.97087E-09 -2.92153E-09 -3.54710E-09 -3.37195E-09 -3.52222E-09 -2.61920E-09 -3.37025E-09
  -3.63612E-09 -3.31154E-09 -2.19946E-09 -3.21361E-09 -2.09837E-09 -2.85911E-09 -2.40126E-09 -2.40066E-09 -2.43320E-09 -2.80716E-09
  -2.66561E-09 -3.03679E-09 -2.87199E-09 -2.31329E-09 -2.22212E-09 -1.82743E-09 -1.82317E-09 -1.69210E-09 -1.81420E-09 -2.20740E-09
  -2.30161E-09 -2.65781E-09 -2.24302E-09 -2.71343E-09 -2.12061E-09 -1.59700E-09 -1.86735E-09 -1.74947E-09 -1.25048E-09 -1.08768E-09
  -1.30505E-09 -1.39873E-09 -8.30231E-10 -1.39167E-09 -9.43197E-10 -1.11220E-09 -1.66327E-09 -1.47368E-09 -1.58422E-09 -1.91172E-09
  -2.28794E-09 -2.30055E-09 -2.00449E-09 -2.19812E-09 -2.20491E-09 -1.69708E-09 -1.45628E-09 -1.72388E-09 -1.15293E-09 -6.57572E-10
  -5.74641E-10 -5.49389E-10 -5.91355E-10 -2.77391E-10 -6.53851E-10  5.94925E-11 -3.61547E-11  1.35832E-10 -5.43184E-11 -4.28495E-10
  -9.74396E-10 -3.90431E-10 -6.08905E-10 -8.84328E-10 -1.38006E-09 -1.02993E-09 -1.31716E-09 -7.84721E-10 -1.62809E-09 -1.30261E-09
  -1.26851E-09 -1.80842E-09 -1.54060E-09 -8.35942E-10 -1.83779E-09 -1.07865E-09 -1.75671E-09 -2.01296E-09 -1.65504E-09 -1.32340E-09
  -1.87409E-09 -1.64099E-09 -2.01099E-09 -1.26777E-09 -1.22019E-09 -1.37131E-09 -1.20198E-09 -1.67754E-09 -1.41711E-09 -1.16803E-09
  -1.49517E-09 -7.14397E-10 -1.34138E-09 -1.38516E-09 -1.13479E-09 -1.43249E-09 -6.82655E-10 -8.78711E-10 -1.19477E-09 -6.69980E-10
  -8.50473E-10 -7.60888E-10 -6.75949E-10 -3.89578E-10 -4.60371E-10 -2.83277E-10 -1.29674E-10  2.92019E-11 -5.85515E-10 -2.82418E-10
   5.81293E-11 -2.18531E-10  4.24299E-10  3.45747E-10  9.71569E-11  2.73001E-10  5.88922E-11  3.69575E-10  4.17837E-10  4.09032E-10
   4.37665E-10  7.79496E-10  8.36608E-10  3.26818E-10  7.28324E-10  1.26640E-09  8.91057E-10  1.33741E-09  1.02022E-09  1.13773E-09
   1.54827E-09  1.68610E-09  1.27320E-09  1.31442E-09  1.77458E-09  1.76973E-09  1.57379E-09  1.55484E-09  1.59859E-09  2.02890E-09
   2.28958E-09  1.74928E-09  2.10442E-09
 NY points of the fit to the data follow
   9.90410E-09  1.00873E-08  1.02671E-08  1.03742E-08  1.03892E-08  1.02663E-08  1.00112E-08  9.74413E-09  9.56102E-09  9.55548E-09
   9.69284E-09  9.90523E-09  1.01988E-08  1.05573E-08  1.08821E-08  1.11385E-08  1.13844E-08  1.15854E-08  1.15987E-08  1.15186E-08
   1.15100E-08  1.14579E-08  1.12139E-08  1.09038E-08  1.05599E-08  1.03088E-08  1.03221E-08  1.04415E-08  1.06127E-08  1.09432E-08
   1.13016E-08  1.14805E-08  1.16993E-08  1.19244E-08  1.20359E-08  1.24050E-08  1.29193E-08  1.32959E-08  1.34289E-08  1.32565E-08
   1.28591E-08  1.24029E-08  1.16273E-08  1.06182E-08  1.01190E-08  9.87449E-09  9.43562E-09  9.19583E-09  9.27339E-09  9.47416E-09
   9.71753E-09  9.85618E-09  9.83003E-09  9.60774E-09  9.28276E-09  9.02963E-09  8.92359E-09  8.97964E-09  8.92957E-09  8.78905E-09
   8.78278E-09  8.94299E-09  9.37926E-09  9.92060E-09  1.05537E-08  1.13502E-08  1.20456E-08  1.26033E-08  1.30931E-08  1.33968E-08
   1.34141E-08  1.30333E-08  1.23176E-08  1.15277E-08  1.08427E-08  9.85639E-09  9.10881E-09  9.39173E-09  9.78704E-09  1.01618E-08
   1.08322E-08  1.15518E-08  1.22177E-08  1.28885E-08  1.33134E-08  1.32738E-08  1.28235E-08  1.20034E-08  1.11778E-08  1.10903E-08
   1.11309E-08  1.11731E-08  1.11954E-08  1.08795E-08  1.04115E-08  1.02019E-08  9.81493E-09  9.25686E-09  8.96702E-09  8.78354E-09
   8.67125E-09  8.65286E-09  8.69669E-09  8.85576E-09  9.06216E-09  9.25342E-09  9.38549E-09  9.42288E-09  9.32985E-09  9.08658E-09
   8.72937E-09  8.37895E-09  8.13295E-09  7.75077E-09  7.35571E-09  7.17199E-09  7.05514E-09  6.96426E-09  6.88580E-09  6.81389E-09
   6.74553E-09  6.67902E-09  6.61327E-09  6.54755E-09  6.48135E-09  6.41429E-09  6.34609E-09  6.27655E-09  6.20550E-09  6.13278E-09
   6.05827E-09  5.98188E-09  5.90353E-09  5.82313E-09  5.74061E-09  5.65591E-09  5.56900E-09  5.47978E-09  5.38823E-09  5.29432E-09
   5.19802E-09  5.09929E-09  4.99810E-09  4.89443E-09  4.78826E-09  4.67959E-09  4.56847E-09  4.45503E-09  4.33943E-09  4.22184E-09
   4.10244E-09  3.98147E-09  3.85916E-09  3.73583E-09  3.61180E-09  3.48753E-09  3.36356E-09  3.24062E-09  3.11973E-09  3.00228E-09
   2.89039E-09  2.78742E-09  2.69906E-09  2.63598E-09  2.62114E-09  2.71639E-09  3.16748E-09  4.85857E-09  7.11853E-09  9.44907E-09
   1.17081E-08  1.38078E-08  1.55526E-08  1.65960E-08  1.65383E-08  1.49627E-08  1.16369E-08  6.94969E-09  2.57987E-09  1.07367E-09
   4.52785E-10  7.45591E-11 -2.05940E-10 -4.37535E-10 -6.41115E-10 -8.27002E-10 -1.00083E-09 -1.16586E-09 -1.32419E-09 -1.47708E-09
  -1.62537E-09 -1.76965E-09 -1.91029E-09 -2.04754E-09 -2.18154E-09 -2.31242E-09 -2.44023E-09 -2.56495E-09 -2.68659E-09 -2.80515E-09
  -2.92057E-09 -3.03280E-09 -3.14176E-09 -3.24740E-09 -3.34966E-09 -3.44841E-09 -3.54361E-09 -3.63516E-09 -3.72298E-09 -3.80694E-09
  -3.88700E-09 -3.96303E-09 -4.03494E-09 -4.10264E-09 -4.16604E-09 -4.22501E-09 -4.27947E-09 -4.32934E-09 -4.37448E-09 -4.41498E-09
  -4.45091E-09 -4.48237E-09 -4.50944E-09 -4.53224E-09 -4.55082E-09 -4.56531E-09 -4.57578E-09 -4.58233E-09 -4.58504E-09 -4.58401E-09
  -4.57934E-09 -4.57111E-09 -4.55941E-09 -4.54433E-09 -4.52596E-09 -4.50440E-09 -4.47974E-09 -4.45205E-09 -4.42144E-09 -4.38800E-09
  -4.35180E-09 -4.31297E-09 -4.27156E-09 -4.22768E-09 -4.18141E-09 -4.13284E-09 -4.08208E-09 -4.02920E-09 -3.97430E-09 -3.91745E-09
  -3.85878E-09 -3.79833E-09 -3.73625E-09 -3.67256E-09 -3.60738E-09 -3.54084E-09 -3.47298E-09 -3.40390E-09 -3.33369E-09 -3.26245E-09
  -3.19026E-09 -3.11722E-09 -3.04342E-09 -2.96894E-09 -2.89386E-09 -2.81829E-09 -2.74233E-09 -2.66603E-09 -2.58951E-09 -2.51287E-09
  -2.43616E-09 -2.35949E-09 -2.28297E-09 -2.20665E-09 -2.13066E-09 -2.05505E-09 -1.97994E-09 -1.90543E-09 -1.83156E-09 -1.75846E-09
  -1.68621E-09 -1.61490E-09 -1.54463E-09 -1.47546E-09 -1.40751E-09 -1.34086E-09 -1.27560E-09 -1.21179E-09 -1.14957E-09 -1.08901E-09
  -1.03017E-09 -9.73127E-10 -9.17818E-10 -8.64204E-10 -8.12231E-10 -7.61879E-10 -7.13067E-10 -6.65779E-10 -6.19958E-10 -5.75559E-10
  -5.32547E-10 -4.90863E-10 -4.50479E-10 -4.11337E-10 -3.73390E-10 -3.36600E-10 -3.00930E-10 -2.66333E-10 -2.32748E-10 -2.00140E-10
  -1.68470E-10 -1.37681E-10 -1.07751E-10 -7.86060E-11 -5.02239E-11 -2.25465E-11  4.45821E-12  3.08541E-11  5.66678E-11  8.19471E-11
   1.06735E-10  1.31105E-10  1.55058E-10  1.78659E-10  2.01959E-10  2.25012E-10  2.47819E-10  2.70463E-10  2.92968E-10  3.15406E-10
   3.37789E-10  3.60182E-10  3.82636E-10  4.05184E-10  4.27858E-10  4.50722E-10  4.73807E-10  4.97179E-10  5.20846E-10  5.44916E-10
   5.69357E-10  5.94276E-10  6.19671E-10  6.45608E-10  6.72172E-10  6.99319E-10  7.27168E-10  7.55716E-10  7.85052E-10  8.15184E-10
   8.46166E-10  8.78062E-10  9.10893E-10  9.44723E-10  9.79574E-10  1.01552E-09  1.05256E-09  1.09079E-09  1.13024E-09  1.17092E-09
   1.21293E-09  1.25627E-09  1.30099E-09
 NY background values follow
     3.984E-09    4.017E-09    4.050E-09    4.083E-09    4.116E-09    4.150E-09    4.184E-09    4.218E-09    4.253E-09    4.287E-09
     4.322E-09    4.357E-09    4.393E-09    4.428E-09    4.463E-09    4.499E-09    4.535E-09    4.570E-09    4.606E-09    4.642E-09
     4.678E-09    4.714E-09    4.750E-09    4.787E-09    4.823E-09    4.859E-09    4.895E-09    4.931E-09    4.967E-09    5.003E-09
     5.039E-09    5.074E-09    5.110E-09    5.146E-09    5.181E-09    5.216E-09    5.251E-09    5.286E-09    5.321E-09    5.356E-09
     5.390E-09    5.424E-09    5.458E-09    5.491E-09    5.525E-09    5.558E-09    5.591E-09    5.623E-09    5.655E-09    5.687E-09
     5.719E-09    5.750E-09    5.781E-09    5.811E-09    5.841E-09    5.871E-09    5.900E-09    5.929E-09    5.957E-09    5.985E-09
     6.012E-09    6.039E-09    6.065E-09    6.091E-09    6.116E-09    6.141E-09    6.165E-09    6.189E-09    6.212E-09    6.234E-09
     6.256E-09    6.277E-09    6.298E-09    6.318E-09    6.337E-09    6.355E-09    6.373E-09    6.390E-09    6.406E-09    6.422E-09
     6.436E-09    6.450E-09    6.463E-09    6.474E-09    6.485E-09    6.495E-09    6.504E-09    6.511E-09    6.518E-09    6.523E-09
     6.527E-09    6.530E-09    6.532E-09    6.532E-09    6.532E-09    6.529E-09    6.526E-09    6.521E-09    6.515E-09    6.507E-09
     6.497E-09    6.487E-09    6.474E-09    6.460E-09    6.445E-09    6.427E-09    6.408E-09    6.388E-09    6.366E-09    6.341E-09
     6.316E-09    6.288E-09    6.258E-09    6.227E-09    6.193E-09    6.158E-09    6.120E-09    6.081E-09    6.039E-09    5.996E-09
     5.950E-09    5.902E-09    5.852E-09    5.800E-09    5.746E-09    5.689E-09    5.630E-09    5.569E-09    5.505E-09    5.439E-09
     5.370E-09    5.299E-09    5.226E-09    5.150E-09    5.071E-09    4.990E-09    4.906E-09    4.820E-09    4.731E-09    4.639E-09
     4.545E-09    4.447E-09    4.347E-09    4.244E-09    4.138E-09    4.030E-09    3.918E-09    3.804E-09    3.687E-09    3.567E-09
     3.445E-09    3.320E-09    3.193E-09    3.064E-09    2.933E-09    2.800E-09    2.666E-09    2.529E-09    2.391E-09    2.251E-09
     2.110E-09    1.967E-09    1.824E-09    1.679E-09    1.533E-09    1.386E-09    1.238E-09    1.090E-09    9.414E-10    7.921E-10
     6.424E-10    4.924E-10    3.422E-10    1.920E-10    4.185E-11   -1.082E-10   -2.579E-10   -4.073E-10   -5.563E-10   -7.047E-10
    -8.524E-10   -9.993E-10   -1.145E-09   -1.290E-09   -1.434E-09   -1.577E-09   -1.719E-09   -1.859E-09   -1.997E-09   -2.134E-09
    -2.269E-09   -2.403E-09   -2.534E-09   -2.664E-09   -2.791E-09   -2.916E-09   -3.038E-09   -3.159E-09   -3.276E-09   -3.391E-09
    -3.503E-09   -3.613E-09   -3.719E-09   -3.822E-09   -3.922E-09   -4.019E-09   -4.112E-09   -4.202E-09   -4.288E-09   -4.371E-09
    -4.449E-09   -4.524E-09   -4.595E-09   -4.661E-09   -4.723E-09   -4.781E-09   -4.835E-09   -4.884E-09   -4.928E-09   -4.968E-09
    -5.003E-09   -5.033E-09   -5.060E-09   -5.082E-09   -5.100E-09   -5.113E-09   -5.123E-09   -5.129E-09   -5.131E-09   -5.130E-09
    -5.124E-09   -5.116E-09   -5.103E-09   -5.088E-09   -5.069E-09   -5.047E-09   -5.022E-09   -4.994E-09   -4.963E-09   -4.929E-09
    -4.892E-09   -4.853E-09   -4.811E-09   -4.767E-09   -4.720E-09   -4.671E-09   -4.620E-09   -4.567E-09   -4.511E-09   -4.454E-09
    -4.395E-09   -4.334E-09   -4.272E-09   -4.208E-09   -4.142E-09   -4.075E-09   -4.007E-09   -3.938E-09   -3.867E-09   -3.796E-09
    -3.723E-09   -3.650E-09   -3.576E-09   -3.501E-09   -3.426E-09   -3.350E-09   -3.274E-09   -3.197E-09   -3.120E-09   -3.043E-09
    -2.966E-09   -2.889E-09   -2.813E-09   -2.736E-09   -2.660E-09   -2.584E-09   -2.508E-09   -2.434E-09   -2.359E-09   -2.286E-09
    -2.214E-09   -2.142E-09   -2.072E-09   -2.002E-09   -1.934E-09   -1.867E-09   -1.801E-09   -1.737E-09   -1.675E-09   -1.614E-09
    -1.555E-09   -1.498E-09   -1.442E-09   -1.388E-09   -1.336E-09   -1.286E-09   -1.236E-09   -1.189E-09   -1.143E-09   -1.098E-09
    -1.055E-09   -1.013E-09   -9.724E-10   -9.330E-10   -8.949E-10   -8.578E-10   -8.219E-10   -7.871E-10   -7.532E-10   -7.204E-10
    -6.885E-10   -6.575E-10   -6.273E-10   -5.979E-10   -5.693E-10   -5.414E-10   -5.141E-10   -4.875E-10   -4.614E-10   -4.359E-10
    -4.109E-10   -3.863E-10   -3.621E-10   -3.382E-10   -3.147E-10   -2.914E-10   -2.684E-10   -2.455E-10   -2.227E-10   -2.000E-10
    -1.774E-10   -1.548E-10   -1.321E-10   -1.093E-10   -8.637E-11   -6.326E-11   -3.992E-11   -1.630E-11    7.611E-12    3.193E-11
     5.662E-11    8.179E-11    1.074E-10    1.336E-10    1.604E-10    1.878E-10    2.159E-10    2.448E-10    2.743E-10    3.047E-10
     3.360E-10    3.681E-10    4.012E-10    4.353E-10    4.704E-10    5.066E-10    5.439E-10    5.824E-10    6.222E-10    6.631E-10
     7.054E-10    7.490E-10    7.940E-10
 Ala      Conc. = 4.26E-10
   4.27136E-09  4.34051E-09  4.40007E-09  4.45181E-09  4.49543E-09  4.53088E-09  4.55079E-09  4.54757E-09  4.55309E-09  4.56618E-09
   4.54672E-09  4.53488E-09  4.54868E-09  4.55493E-09  4.56317E-09  4.58233E-09  4.60713E-09  4.63518E-09  4.66529E-09  4.69679E-09
   4.72928E-09  4.76250E-09  4.79625E-09  4.83041E-09  4.86488E-09  4.89958E-09  4.93446E-09  4.96947E-09  5.00455E-09  5.03969E-09
   5.07484E-09  5.10998E-09  5.14509E-09  5.18014E-09  5.21511E-09  5.24999E-09  5.28474E-09  5.31936E-09  5.35384E-09  5.38814E-09
   5.42225E-09  5.45617E-09  5.48987E-09  5.52334E-09  5.55656E-09  5.58953E-09  5.62222E-09  5.65462E-09  5.68672E-09  5.71850E-09
   5.74995E-09  5.78106E-09  5.81180E-09  5.84218E-09  5.87217E-09  5.90176E-09  5.93094E-09  5.95971E-09  5.98802E-09  6.01589E-09
   6.04329E-09  6.07022E-09  6.09666E-09  6.12259E-09  6.14802E-09  6.17292E-09  6.19728E-09  6.22108E-09  6.24433E-09  6.26701E-09
   6.28911E-09  6.31060E-09  6.33151E-09  6.35179E-09  6.37144E-09  6.39043E-09  6.40874E-09  6.42635E-09  6.44323E-09  6.45935E-09
   6.47471E-09  6.48929E-09  6.50307E-09  6.51604E-09  6.52821E-09  6.53958E-09  6.55017E-09  6.56000E-09  6.56913E-09  6.57762E-09
   6.58559E-09  6.59322E-09  6.60075E-09  6.60859E-09  6.61735E-09  6.62808E-09  6.64269E-09  6.66492E-09  6.70374E-09  6.78773E-09
   6.97054E-09  7.16258E-09  7.35538E-09  7.62583E-09  7.91889E-09  8.17977E-09  8.36898E-09  8.45386E-09  8.40074E-09  8.19141E-09
   7.86350E-09  7.53895E-09  7.31584E-09  6.95395E-09  6.57687E-09  6.40908E-09  6.30643E-09  6.22842E-09  6.16164E-09  6.10039E-09
   6.04173E-09  5.98407E-09  5.92639E-09  5.86807E-09  5.80867E-09  5.74787E-09  5.68543E-09  5.62122E-09  5.55505E-09  5.48683E-09
   5.41648E-09  5.34389E-09  5.26901E-09  5.19178E-09  5.11214E-09  5.03002E-09  4.94542E-09  4.85824E-09  4.76848E-09  4.67607E-09
   4.58099E-09  4.48319E-09  4.38265E-09  4.27932E-09  4.17318E-09  4.06418E-09  3.95234E-09  3.83774E-09  3.72050E-09  3.60072E-09
   3.47851E-09  3.35398E-09  3.22723E-09  3.09840E-09  2.96759E-09  2.83493E-09  2.70054E-09  2.56458E-09  2.42719E-09  2.28857E-09
   2.14893E-09  2.00860E-09  1.86803E-09  1.72802E-09  1.59023E-09  1.45919E-09  1.35421E-09  1.32611E-09  1.32781E-09  1.33167E-09
   1.33055E-09  1.31882E-09  1.28343E-09  1.20225E-09  1.05026E-09  8.02047E-10  4.45833E-10  1.26716E-11 -3.83537E-10 -6.01433E-10
  -7.75786E-10 -9.36464E-10 -1.09081E-09 -1.24135E-09 -1.38919E-09 -1.53482E-09 -1.67846E-09 -1.82021E-09 -1.96013E-09 -2.09819E-09
  -2.23431E-09 -2.36847E-09 -2.50058E-09 -2.63057E-09 -2.75832E-09 -2.88376E-09 -3.00682E-09 -3.12735E-09 -3.24527E-09 -3.36051E-09
  -3.47294E-09 -3.58247E-09 -3.68899E-09 -3.79240E-09 -3.89261E-09 -3.98948E-09 -4.08295E-09 -4.17289E-09 -4.25922E-09 -4.34179E-09
  -4.42055E-09 -4.49536E-09 -4.56613E-09 -4.63275E-09 -4.69513E-09 -4.75314E-09 -4.80668E-09 -4.85568E-09 -4.90000E-09 -4.93971E-09
  -4.97488E-09 -5.00562E-09 -5.03200E-09 -5.05413E-09 -5.07207E-09 -5.08594E-09 -5.09582E-09 -5.10179E-09 -5.10396E-09 -5.10239E-09
  -5.09720E-09 -5.08846E-09 -5.07627E-09 -5.06072E-09 -5.04189E-09 -5.01988E-09 -4.99478E-09 -4.96666E-09 -4.93564E-09 -4.90179E-09
  -4.86519E-09 -4.82597E-09 -4.78418E-09 -4.73993E-09 -4.69329E-09 -4.64436E-09 -4.59324E-09 -4.54002E-09 -4.48478E-09 -4.42759E-09
  -4.36859E-09 -4.30782E-09 -4.24542E-09 -4.18142E-09 -4.11593E-09 -4.04908E-09 -3.98092E-09 -3.91154E-09 -3.84105E-09 -3.76951E-09
  -3.69703E-09 -3.62371E-09 -3.54963E-09 -3.47487E-09 -3.39952E-09 -3.32368E-09 -3.24745E-09 -3.17089E-09 -3.09411E-09 -3.01720E-09
  -2.94023E-09 -2.86330E-09 -2.78653E-09 -2.70995E-09 -2.63371E-09 -2.55786E-09 -2.48250E-09 -2.40774E-09 -2.33362E-09 -2.26027E-09
  -2.18779E-09 -2.11624E-09 -2.04573E-09 -1.97632E-09 -1.90813E-09 -1.84124E-09 -1.77575E-09 -1.71170E-09 -1.64925E-09 -1.58846E-09
  -1.52939E-09 -1.47212E-09 -1.41658E-09 -1.36273E-09 -1.31053E-09 -1.25995E-09 -1.21091E-09 -1.16340E-09 -1.11735E-09 -1.07273E-09
  -1.02949E-09 -9.87579E-10 -9.46970E-10 -9.07604E-10 -8.69432E-10 -8.32418E-10 -7.96524E-10 -7.61703E-10 -7.27895E-10 -6.95063E-10
  -6.63170E-10 -6.32157E-10 -6.02004E-10 -5.72635E-10 -5.44029E-10 -5.16128E-10 -4.88899E-10 -4.62279E-10 -4.36241E-10 -4.10737E-10
  -3.85725E-10 -3.61129E-10 -3.36951E-10 -3.13126E-10 -2.89600E-10 -2.66320E-10 -2.43287E-10 -2.20416E-10 -1.97684E-10 -1.75017E-10
  -1.52406E-10 -1.29785E-10 -1.07101E-10 -8.43225E-11 -6.14179E-11 -3.83228E-11 -1.50055E-11  8.59833E-12  3.24988E-11  5.68032E-11
   8.14787E-11  1.06633E-10  1.32264E-10  1.58438E-10  1.85239E-10  2.12625E-10  2.40713E-10  2.69502E-10  2.99078E-10  3.29452E-10
   3.60677E-10  3.92817E-10  4.25893E-10  4.59970E-10  4.95067E-10  5.31262E-10  5.68551E-10  6.07033E-10  6.46728E-10  6.87668E-10
   7.29929E-10  7.73530E-10  8.18504E-10
 Asp      Conc. = 1.24E-09
   5.49739E-09  5.35885E-09  5.22864E-09  5.07594E-09  4.92962E-09  4.74844E-09  4.60036E-09  4.49259E-09  4.45975E-09  4.45610E-09
   4.46698E-09  4.48660E-09  4.51214E-09  4.54155E-09  4.57253E-09  4.60460E-09  4.63779E-09  4.67195E-09  4.70695E-09  4.74268E-09
   4.77908E-09  4.81610E-09  4.85371E-09  4.89193E-09  4.93077E-09  4.97029E-09  5.01057E-09  5.05174E-09  5.09397E-09  5.13750E-09
   5.18272E-09  5.23014E-09  5.28063E-09  5.33556E-09  5.39751E-09  5.47205E-09  5.57280E-09  5.68642E-09  5.81974E-09  5.94762E-09
   6.06025E-09  6.15949E-09  6.26117E-09  6.39210E-09  6.55117E-09  6.76638E-09  6.96547E-09  7.14822E-09  7.40817E-09  7.69595E-09
   7.97574E-09  8.13204E-09  8.10859E-09  7.88771E-09  7.54615E-09  7.23978E-09  7.03987E-09  7.00537E-09  6.89230E-09  6.71276E-09
   6.63505E-09  6.60468E-09  6.58710E-09  6.60819E-09  6.62464E-09  6.58573E-09  6.50877E-09  6.47229E-09  6.45597E-09  6.45023E-09
   6.45074E-09  6.45519E-09  6.46225E-09  6.47104E-09  6.48097E-09  6.49160E-09  6.50261E-09  6.51377E-09  6.52487E-09  6.53575E-09
   6.54629E-09  6.55637E-09  6.56590E-09  6.57479E-09  6.58297E-09  6.59038E-09  6.59694E-09  6.60260E-09  6.60732E-09  6.61105E-09
   6.61372E-09  6.61530E-09  6.61574E-09  6.61502E-09  6.61308E-09  6.60988E-09  6.60538E-09  6.59956E-09  6.59237E-09  6.58377E-09
   6.57373E-09  6.56222E-09  6.54919E-09  6.53463E-09  6.51848E-09  6.50072E-09  6.48132E-09  6.46024E-09  6.43745E-09  6.41290E-09
   6.38659E-09  6.35846E-09  6.32848E-09  6.29664E-09  6.26288E-09  6.22718E-09  6.18951E-09  6.14984E-09  6.10812E-09  6.06435E-09
   6.01847E-09  5.97046E-09  5.92028E-09  5.86792E-09  5.81332E-09  5.75647E-09  5.69732E-09  5.63586E-09  5.57205E-09  5.50585E-09
   5.43724E-09  5.36618E-09  5.29265E-09  5.21662E-09  5.13804E-09  5.05690E-09  4.97317E-09  4.88681E-09  4.79779E-09  4.70608E-09
   4.61167E-09  4.51450E-09  4.41457E-09  4.31184E-09  4.20629E-09  4.09789E-09  3.98665E-09  3.87268E-09  3.75609E-09  3.63700E-09
   3.51554E-09  3.39182E-09  3.26598E-09  3.13816E-09  3.00850E-09  2.87718E-09  2.74437E-09  2.61029E-09  2.47521E-09  2.33947E-09
   2.20352E-09  2.06807E-09  1.93423E-09  1.80403E-09  1.68180E-09  1.57920E-09  1.54336E-09  1.73646E-09  2.02636E-09  2.32603E-09
   2.61212E-09  2.86890E-09  3.06011E-09  3.12204E-09  2.98197E-09  2.56432E-09  1.82866E-09  8.50972E-10 -5.43298E-11 -4.27910E-10
  -6.57119E-10 -8.44694E-10 -1.01467E-09 -1.17525E-09 -1.32998E-09 -1.48057E-09 -1.62793E-09 -1.77252E-09 -1.91468E-09 -2.05453E-09
  -2.19211E-09 -2.32749E-09 -2.46061E-09 -2.59145E-09 -2.71992E-09 -2.84599E-09 -2.96959E-09 -3.09059E-09 -3.20893E-09 -3.32453E-09
  -3.43729E-09 -3.54711E-09 -3.65388E-09 -3.75753E-09 -3.85795E-09 -3.95502E-09 -4.04865E-09 -4.13876E-09 -4.22524E-09 -4.30794E-09
  -4.38683E-09 -4.46175E-09 -4.53262E-09 -4.59934E-09 -4.66181E-09 -4.71990E-09 -4.77353E-09 -4.82260E-09 -4.86699E-09 -4.90676E-09
  -4.94199E-09 -4.97279E-09 -4.99923E-09 -5.02141E-09 -5.03940E-09 -5.05332E-09 -5.06324E-09 -5.06926E-09 -5.07146E-09 -5.06993E-09
