 LCModel (Version 6.3-1R) Copyright: S.W. Provencher.          Ref.: Magn. Reson. Med. 30:672-679 (1993).                
 onepulse 13x13_ftSpec_smooth_lcm
 26 lines in following concentration table = NCONC+1
    Conc.  %SD /Cr+PCr  Metabolite                                         
    0.000 999%   0.000 Ala                                                 
 1.33E-09  73%   2.510 Asp                                                 
 5.31E-10  87%   1.000 Cr                                                  
 6.55E-11 999%   0.123 GABA                                                
    0.000 999%   0.000 Glc                                                 
 3.12E-09  27%   5.886 Gln                                                 
    0.000 999%   0.000 Glu                                                 
 4.07E-10 525%   0.767 Glyc                                                
    0.000 999%   0.000 GPC                                                 
 6.30E-10 116%   1.188 GSH                                                 
 1.42E-09 133%   2.678 Ins                                                 
    0.000 999%   0.000 Lac                                                 
 3.56E-10 113%   0.670 NAAG                                                
 1.18E-10 513%   0.222 NAA                                                 
    0.000 999%   0.000 PCh                                                 
    0.000 999%   0.000 PCr                                                 
 1.83E-09  56%   3.443 PE                                                  
 1.46E-10 217%   0.275 Scyllo                                              
 1.80E-10 568%   0.339 Ser                                                 
 1.09E-09  96%   2.060 Tau                                                 
    0.000 999%   0.000 GPC+PCh                                             
 4.73E-10  77%   0.892 NAA+NAAG                                            
 1.83E-09  31%   3.445 Ins+Glyc                                            
 5.31E-10  87%   1.000 Cr+PCr                                              
 3.12E-09  27%   5.886 Glu+Gln                                             
   6 lines in following misc. output table
  FWHM = 0.123 ppm    S/N =   3                                            
  Data shift = 0.402 ppm                                                   
  Ph: -20 deg     -42.6 deg/ppm                                            
  alphaB,S = 3.0E-01,   6.0E+00                                            
   10 spline knots.   Ns = 5(1)                                            
  (12) 8 infls.   (11) 7 extrs.                                            
  363 points on ppm-axis = NY
      4.250000     4.238821     4.227641     4.216462     4.205282     4.194103     4.182923     4.171744     4.160564     4.149385
      4.138206     4.127026     4.115847     4.104667     4.093488     4.082308     4.071129     4.059949     4.048770     4.037591
      4.026411     4.015232     4.004052     3.992873     3.981693     3.970514     3.959334     3.948155     3.936975     3.925796
      3.914617     3.903437     3.892258     3.881078     3.869899     3.858719     3.847540     3.836360     3.825181     3.814002
      3.802822     3.791643     3.780463     3.769284     3.758104     3.746925     3.735745     3.724566     3.713387     3.702207
      3.691028     3.679848     3.668669     3.657489     3.646310     3.635130     3.623951     3.612772     3.601592     3.590413
      3.579233     3.568054     3.556874     3.545695     3.534515     3.523336     3.512156     3.500977     3.489798     3.478618
      3.467439     3.456259     3.445080     3.433900     3.422721     3.411541     3.400362     3.389183     3.378003     3.366824
      3.355644     3.344465     3.333285     3.322106     3.310926     3.299747     3.288568     3.277388     3.266209     3.255029
      3.243850     3.232670     3.221491     3.210311     3.199132     3.187953     3.176773     3.165594     3.154414     3.143235
      3.132055     3.120876     3.109696     3.098517     3.087337     3.076158     3.064979     3.053799     3.042620     3.031440
      3.020261     3.009081     2.997902     2.986722     2.975543     2.964364     2.953184     2.942005     2.930825     2.919646
      2.908466     2.897287     2.886107     2.874928     2.863749     2.852569     2.841390     2.830210     2.819031     2.807851
      2.796672     2.785492     2.774313     2.763134     2.751954     2.740775     2.729595     2.718416     2.707236     2.696057
      2.684877     2.673698     2.662519     2.651339     2.640160     2.628980     2.617801     2.606621     2.595442     2.584262
      2.573083     2.561903     2.550724     2.539545     2.528365     2.517186     2.506006     2.494827     2.483647     2.472468
      2.461288     2.450109     2.438930     2.427750     2.416571     2.405391     2.394212     2.383032     2.371853     2.360673
      2.349494     2.338315     2.327135     2.315956     2.304776     2.293597     2.282417     2.271238     2.260058     2.248879
      2.237700     2.226520     2.215341     2.204161     2.192982     2.181802     2.170623     2.159443     2.148264     2.137084
      2.125905     2.114726     2.103546     2.092367     2.081187     2.070008     2.058828     2.047649     2.036469     2.025290
      2.014111     2.002931     1.991752     1.980572     1.969393     1.958213     1.947034     1.935854     1.924675     1.913496
      1.902316     1.891137     1.879957     1.868778     1.857598     1.846419     1.835239     1.824060     1.812881     1.801701
      1.790522     1.779342     1.768163     1.756983     1.745804     1.734624     1.723445     1.712265     1.701086     1.689907
      1.678727     1.667548     1.656368     1.645189     1.634009     1.622830     1.611650     1.600471     1.589292     1.578112
      1.566933     1.555753     1.544574     1.533394     1.522215     1.511035     1.499856     1.488677     1.477497     1.466318
      1.455138     1.443959     1.432779     1.421600     1.410420     1.399241     1.388062     1.376882     1.365703     1.354523
      1.343344     1.332164     1.320985     1.309805     1.298626     1.287446     1.276267     1.265088     1.253908     1.242729
      1.231549     1.220370     1.209190     1.198011     1.186831     1.175652     1.164473     1.153293     1.142114     1.130934
      1.119755     1.108575     1.097396     1.086216     1.075037     1.063858     1.052678     1.041499     1.030319     1.019140
      1.007960     0.996781     0.985601     0.974422     0.963243     0.952063     0.940884     0.929704     0.918525     0.907345
      0.896166     0.884986     0.873807     0.862628     0.851448     0.840269     0.829089     0.817910     0.806730     0.795551
      0.784371     0.773192     0.762012     0.750833     0.739654     0.728474     0.717295     0.706115     0.694936     0.683756
      0.672577     0.661397     0.650218     0.639039     0.627859     0.616680     0.605500     0.594321     0.583141     0.571962
      0.560782     0.549603     0.538424     0.527244     0.516065     0.504885     0.493706     0.482526     0.471347     0.460167
      0.448988     0.437809     0.426629     0.415450     0.404270     0.393091     0.381911     0.370732     0.359552     0.348373
      0.337193     0.326014     0.314835     0.303655     0.292476     0.281296     0.270117     0.258937     0.247758     0.236578
      0.225399     0.214220     0.203040
 NY phased data points follow
   1.26636E-08  8.81366E-09  1.20094E-08  8.15353E-09  1.19186E-08  8.66010E-09  1.25842E-08  9.35623E-09  1.27264E-08  9.99615E-09
   1.32850E-08  1.04041E-08  1.35448E-08  9.21324E-09  1.25164E-08  9.36798E-09  1.20244E-08  8.80803E-09  1.22561E-08  9.18902E-09
   1.30803E-08  9.81523E-09  1.24686E-08  9.11136E-09  1.13663E-08  9.04988E-09  1.29369E-08  1.12120E-08  1.41502E-08  1.18455E-08
   1.41263E-08  1.01612E-08  1.15371E-08  8.62570E-09  1.05844E-08  7.93255E-09  1.01598E-08  8.30217E-09  9.51373E-09  7.77869E-09
   9.78989E-09  7.24398E-09  9.20674E-09  6.82254E-09  8.20549E-09  7.26125E-09  8.77102E-09  6.89022E-09  8.95812E-09  6.79252E-09
   7.68984E-09  6.06547E-09  7.58924E-09  5.95080E-09  7.96850E-09  6.64610E-09  8.60784E-09  8.45035E-09  1.17739E-08  1.29485E-08
   1.42006E-08  1.25471E-08  1.26363E-08  1.07656E-08  1.12772E-08  9.01325E-09  9.48061E-09  8.22586E-09  8.72527E-09  7.16157E-09
   7.50017E-09  5.98232E-09  6.55476E-09  6.33828E-09  9.52064E-09  1.26805E-08  1.58815E-08  1.63172E-08  1.56213E-08  1.42411E-08
   1.39797E-08  1.33808E-08  1.31810E-08  1.22532E-08  1.24434E-08  1.14707E-08  1.19372E-08  1.11001E-08  1.13805E-08  1.02632E-08
   1.04462E-08  9.55793E-09  9.37396E-09  8.80836E-09  8.67322E-09  7.85718E-09  7.83154E-09  7.77371E-09  8.16464E-09  7.33040E-09
   8.04246E-09  7.41588E-09  8.04918E-09  7.51962E-09  6.72288E-09  6.15667E-09  6.06677E-09  4.95285E-09  5.56337E-09  6.14689E-09
   6.61795E-09  6.41464E-09  6.82944E-09  6.95417E-09  6.90899E-09  6.95200E-09  7.47178E-09  7.54635E-09  6.91672E-09  6.46526E-09
   6.18147E-09  5.56196E-09  4.78586E-09  5.40645E-09  5.86741E-09  5.17919E-09  5.48344E-09  5.68199E-09  6.38072E-09  6.34691E-09
   6.38577E-09  6.80750E-09  6.03644E-09  6.48040E-09  6.02185E-09  6.72568E-09  7.98348E-09  8.50893E-09  8.42458E-09  8.97601E-09
   8.04085E-09  9.50104E-09  9.53051E-09  1.00452E-08  1.01298E-08  1.06317E-08  9.73727E-09  9.99754E-09  9.73597E-09  1.00614E-08
   1.00379E-08  9.57716E-09  9.32048E-09  9.98546E-09  9.61728E-09  1.00477E-08  9.81312E-09  9.86805E-09  9.45813E-09  9.91295E-09
   9.48162E-09  8.75601E-09  8.26430E-09  8.49695E-09  7.20713E-09  7.08144E-09  9.99040E-09  1.64614E-08  1.93943E-08  2.13910E-08
   2.03763E-08  2.12386E-08  2.02908E-08  2.03719E-08  1.93902E-08  1.90460E-08  1.79294E-08  1.75573E-08  1.66320E-08  1.63284E-08
   1.37143E-08  1.32342E-08  1.04914E-08  9.15367E-09  6.28180E-09  4.24791E-09  9.79932E-10 -9.21709E-10 -3.79851E-09 -5.71520E-09
  -8.21407E-09 -9.75754E-09 -1.16787E-08 -1.24151E-08 -1.38327E-08 -1.38449E-08 -1.37779E-08 -1.25612E-08 -1.21170E-08 -1.04954E-08
  -9.91651E-09 -7.49677E-09 -7.23524E-09 -5.20498E-09 -4.33545E-09 -3.68480E-09 -3.47093E-09 -2.24680E-09 -3.82839E-09 -2.33519E-09
  -3.28649E-09 -3.02055E-09 -3.88899E-09 -2.71217E-09 -3.17151E-09 -2.37501E-09 -3.07809E-09 -1.66697E-09 -2.43089E-09 -1.38662E-09
  -2.54357E-09 -1.66099E-09 -2.68566E-09 -1.75581E-09 -3.21631E-09 -2.11080E-09 -2.56473E-09 -1.44652E-09 -2.14047E-09 -1.36162E-09
  -2.22629E-09 -1.09438E-09 -2.23398E-09 -1.13758E-09 -2.36398E-09 -1.60268E-09 -2.75898E-09 -2.34720E-09 -2.58361E-09 -1.58724E-09
  -3.16125E-09 -1.67056E-09 -2.46458E-09 -9.72908E-10 -1.89116E-09 -1.28274E-09 -1.86259E-09 -6.15688E-10 -2.42276E-09 -5.53832E-10
  -1.92188E-09 -8.99336E-10 -2.17702E-09 -1.09441E-09 -2.08083E-09 -1.32055E-09 -2.26341E-09 -1.61052E-09 -2.29610E-09 -2.15999E-09
  -3.31952E-09 -1.95613E-09 -3.32581E-09 -2.43129E-09 -3.47531E-09 -2.24617E-09 -3.13570E-09 -2.09024E-09 -2.94357E-09 -2.03392E-09
  -2.55895E-09 -1.06402E-09 -1.72717E-09 -3.74760E-10 -1.87511E-09 -1.69128E-10 -1.63529E-09 -3.04470E-10 -1.57680E-09 -3.56438E-10
  -1.15516E-09 -4.90137E-10 -9.71200E-10 -6.49555E-10 -1.11569E-09 -4.67671E-10 -1.31422E-09 -5.69140E-10 -1.57324E-09 -5.53476E-10
  -1.78777E-09 -5.48713E-10 -1.95939E-09 -1.05444E-09 -2.07089E-09 -7.16164E-10 -1.69494E-09 -1.48338E-09 -2.00660E-09 -1.28143E-09
  -2.11516E-09 -1.35045E-09 -2.26268E-09 -1.36676E-09 -2.30173E-09 -1.50935E-09 -2.28149E-09 -2.11625E-09 -2.24093E-09 -2.32220E-09
  -2.59415E-09 -2.25870E-09 -2.51270E-09 -2.34373E-09 -2.65339E-09 -2.12542E-09 -2.34976E-09 -2.59422E-09 -2.84967E-09 -2.25595E-09
  -3.26389E-09 -2.91222E-09 -2.91943E-09 -2.34926E-09 -2.84949E-09 -3.03550E-09 -2.61053E-09 -2.95093E-09 -3.35407E-09 -2.56686E-09
  -2.77546E-09 -3.05376E-09 -3.22017E-09 -3.06655E-09 -3.47104E-09 -3.39475E-09 -3.50179E-09 -2.94245E-09 -3.49740E-09 -3.41729E-09
  -3.56823E-09 -3.40415E-09 -3.18736E-09 -3.08056E-09 -4.09424E-09 -3.21154E-09 -3.34124E-09 -3.26438E-09 -3.91483E-09 -3.66087E-09
  -3.42474E-09 -3.39770E-09 -3.72429E-09 -3.73924E-09 -3.98056E-09 -3.40707E-09 -3.79758E-09 -3.86956E-09 -3.59023E-09 -3.64586E-09
  -3.97879E-09 -3.59609E-09 -4.02219E-09
 NY points of the fit to the data follow
   1.16264E-08  1.11139E-08  1.13346E-08  1.00046E-08  9.98105E-09  1.00222E-08  1.00465E-08  1.02001E-08  1.19451E-08  1.20885E-08
   1.21136E-08  1.09338E-08  1.09766E-08  1.09233E-08  1.14149E-08  1.10016E-08  1.05956E-08  1.10683E-08  1.20802E-08  1.01564E-08
   9.27024E-09  9.83253E-09  1.08555E-08  1.12712E-08  1.20522E-08  1.19645E-08  1.26446E-08  1.22686E-08  1.21402E-08  1.12353E-08
   1.13186E-08  1.14249E-08  1.16403E-08  1.06396E-08  1.04331E-08  9.52375E-09  9.20672E-09  8.45989E-09  8.44211E-09  8.09244E-09
   8.11153E-09  8.10480E-09  8.18151E-09  6.88740E-09  6.93497E-09  6.66888E-09  6.83790E-09  6.39050E-09  6.57429E-09  6.67380E-09
   7.05616E-09  7.39264E-09  7.77657E-09  8.12818E-09  8.78466E-09  9.62218E-09  9.65667E-09  1.02870E-08  1.17803E-08  1.20652E-08
   1.20095E-08  1.21381E-08  1.19509E-08  1.19512E-08  1.17184E-08  1.13128E-08  1.00312E-08  9.68428E-09  9.79419E-09  8.57349E-09
   7.97084E-09  8.78202E-09  9.19805E-09  9.41868E-09  1.00496E-08  1.16041E-08  1.27814E-08  1.37205E-08  1.43255E-08  1.47428E-08
   1.44477E-08  1.46037E-08  1.43167E-08  1.31109E-08  1.27779E-08  1.28608E-08  1.11659E-08  9.98591E-09  9.06479E-09  8.28098E-09
   7.85194E-09  7.60604E-09  7.45428E-09  7.36806E-09  7.26902E-09  7.21227E-09  7.18388E-09  7.14403E-09  7.14621E-09  7.12792E-09
   7.11857E-09  7.13750E-09  7.15825E-09  7.17466E-09  7.19634E-09  7.22361E-09  7.25344E-09  7.28579E-09  7.31901E-09  7.35295E-09
   7.38728E-09  7.42163E-09  7.45570E-09  7.48921E-09  7.52192E-09  7.55360E-09  7.58404E-09  7.61305E-09  7.64044E-09  7.66603E-09
   7.68966E-09  7.71118E-09  7.73042E-09  7.74724E-09  7.76149E-09  7.77304E-09  7.78174E-09  7.78748E-09  7.79010E-09  7.78949E-09
   7.78552E-09  7.77807E-09  7.76702E-09  7.75224E-09  7.73362E-09  7.71105E-09  7.68441E-09  7.65359E-09  7.61849E-09  7.57901E-09
   7.53503E-09  7.48648E-09  7.43325E-09  7.37528E-09  7.31246E-09  7.24473E-09  7.17205E-09  7.09437E-09  7.01166E-09  6.92394E-09
   6.83122E-09  6.73359E-09  6.63119E-09  6.52422E-09  6.41303E-09  6.29812E-09  6.18030E-09  6.06099E-09  5.94238E-09  5.82765E-09
   5.72186E-09  5.63354E-09  5.57848E-09  5.58948E-09  5.74693E-09  6.30570E-09  8.49671E-09  1.59429E-08  1.96726E-08  2.13347E-08
   2.08148E-08  2.14702E-08  2.07293E-08  2.07975E-08  1.95756E-08  1.91107E-08  1.86850E-08  1.99133E-08  1.04759E-08  5.01176E-09
   3.38767E-09  2.59491E-09  2.07638E-09  1.67915E-09  1.34601E-09  1.05120E-09  7.81442E-10  5.29345E-10  2.90576E-10  6.24042E-11
  -1.56906E-10 -3.68430E-10 -5.72924E-10 -7.70780E-10 -9.62314E-10 -1.14764E-09 -1.32680E-09 -1.49974E-09 -1.66644E-09 -1.82673E-09
  -1.98048E-09 -2.12751E-09 -2.26764E-09 -2.40067E-09 -2.52636E-09 -2.64452E-09 -2.75485E-09 -2.85719E-09 -2.95135E-09 -3.03755E-09
  -3.11600E-09 -3.18692E-09 -3.25055E-09 -3.30711E-09 -3.35681E-09 -3.39988E-09 -3.43652E-09 -3.46694E-09 -3.49139E-09 -3.51005E-09
  -3.52313E-09 -3.53086E-09 -3.53345E-09 -3.53109E-09 -3.52401E-09 -3.51241E-09 -3.49647E-09 -3.47646E-09 -3.45256E-09 -3.42494E-09
  -3.39385E-09 -3.35949E-09 -3.32205E-09 -3.28176E-09 -3.23880E-09 -3.19341E-09 -3.14578E-09 -3.09610E-09 -3.04459E-09 -2.99146E-09
  -2.93690E-09 -2.88113E-09 -2.82435E-09 -2.76676E-09 -2.70857E-09 -2.64999E-09 -2.59123E-09 -2.53249E-09 -2.47396E-09 -2.41584E-09
  -2.35836E-09 -2.30172E-09 -2.24613E-09 -2.19175E-09 -2.13886E-09 -2.08760E-09 -2.03820E-09 -1.99086E-09 -1.94580E-09 -1.90322E-09
  -1.86318E-09 -1.82567E-09 -1.79065E-09 -1.75805E-09 -1.72785E-09 -1.70001E-09 -1.67446E-09 -1.65118E-09 -1.63011E-09 -1.61121E-09
  -1.59444E-09 -1.57976E-09 -1.56712E-09 -1.55646E-09 -1.54775E-09 -1.54095E-09 -1.53601E-09 -1.53289E-09 -1.53154E-09 -1.53192E-09
  -1.53397E-09 -1.53768E-09 -1.54296E-09 -1.54980E-09 -1.55815E-09 -1.56796E-09 -1.57918E-09 -1.59177E-09 -1.60569E-09 -1.62090E-09
  -1.63735E-09 -1.65498E-09 -1.67376E-09 -1.69366E-09 -1.71460E-09 -1.73658E-09 -1.75952E-09 -1.78338E-09 -1.80812E-09 -1.83371E-09
  -1.86009E-09 -1.88720E-09 -1.91504E-09 -1.94352E-09 -1.97262E-09 -2.00230E-09 -2.03251E-09 -2.06317E-09 -2.09430E-09 -2.12580E-09
  -2.15766E-09 -2.18984E-09 -2.22229E-09 -2.25501E-09 -2.28799E-09 -2.32123E-09 -2.35471E-09 -2.38843E-09 -2.42238E-09 -2.45655E-09
  -2.49093E-09 -2.52550E-09 -2.56027E-09 -2.59521E-09 -2.63033E-09 -2.66561E-09 -2.70105E-09 -2.73663E-09 -2.77234E-09 -2.80817E-09
  -2.84413E-09 -2.88019E-09 -2.91634E-09 -2.95259E-09 -2.98891E-09 -3.02530E-09 -3.06175E-09 -3.09826E-09 -3.13480E-09 -3.17137E-09
  -3.20797E-09 -3.24458E-09 -3.28120E-09 -3.31781E-09 -3.35440E-09 -3.39097E-09 -3.42751E-09 -3.46400E-09 -3.50045E-09 -3.53683E-09
  -3.57314E-09 -3.60936E-09 -3.64551E-09 -3.68155E-09 -3.71748E-09 -3.75330E-09 -3.78899E-09 -3.82454E-09 -3.85995E-09 -3.89520E-09
  -3.93029E-09 -3.96521E-09 -3.99994E-09
 NY background values follow
    -1.862E-09   -1.785E-09   -1.708E-09   -1.631E-09   -1.555E-09   -1.478E-09   -1.402E-09   -1.325E-09   -1.249E-09   -1.173E-09
    -1.097E-09   -1.020E-09   -9.444E-10   -8.684E-10   -7.925E-10   -7.166E-10   -6.408E-10   -5.650E-10   -4.893E-10   -4.135E-10
    -3.379E-10   -2.622E-10   -1.866E-10   -1.110E-10   -3.544E-11    4.012E-11    1.157E-10    1.912E-10    2.667E-10    3.423E-10
     4.178E-10    4.934E-10    5.689E-10    6.445E-10    7.201E-10    7.957E-10    8.713E-10    9.470E-10    1.023E-09    1.098E-09
     1.174E-09    1.250E-09    1.326E-09    1.402E-09    1.478E-09    1.554E-09    1.630E-09    1.706E-09    1.782E-09    1.858E-09
     1.935E-09    2.011E-09    2.088E-09    2.164E-09    2.241E-09    2.318E-09    2.395E-09    2.471E-09    2.548E-09    2.625E-09
     2.702E-09    2.778E-09    2.855E-09    2.931E-09    3.008E-09    3.084E-09    3.160E-09    3.236E-09    3.312E-09    3.388E-09
     3.463E-09    3.538E-09    3.613E-09    3.688E-09    3.763E-09    3.837E-09    3.911E-09    3.984E-09    4.058E-09    4.130E-09
     4.203E-09    4.275E-09    4.347E-09    4.418E-09    4.489E-09    4.560E-09    4.630E-09    4.699E-09    4.768E-09    4.837E-09
     4.905E-09    4.972E-09    5.039E-09    5.105E-09    5.171E-09    5.236E-09    5.300E-09    5.364E-09    5.427E-09    5.490E-09
     5.552E-09    5.613E-09    5.673E-09    5.733E-09    5.791E-09    5.849E-09    5.906E-09    5.962E-09    6.017E-09    6.071E-09
     6.123E-09    6.173E-09    6.222E-09    6.270E-09    6.315E-09    6.358E-09    6.400E-09    6.439E-09    6.476E-09    6.510E-09
     6.542E-09    6.572E-09    6.598E-09    6.622E-09    6.643E-09    6.661E-09    6.675E-09    6.687E-09    6.695E-09    6.699E-09
     6.700E-09    6.696E-09    6.690E-09    6.679E-09    6.664E-09    6.645E-09    6.621E-09    6.593E-09    6.561E-09    6.524E-09
     6.482E-09    6.435E-09    6.383E-09    6.327E-09    6.265E-09    6.197E-09    6.125E-09    6.046E-09    5.963E-09    5.873E-09
     5.777E-09    5.676E-09    5.568E-09    5.454E-09    5.334E-09    5.207E-09    5.074E-09    4.935E-09    4.789E-09    4.638E-09
     4.481E-09    4.319E-09    4.153E-09    3.981E-09    3.805E-09    3.625E-09    3.441E-09    3.254E-09    3.064E-09    2.870E-09
     2.674E-09    2.475E-09    2.275E-09    2.072E-09    1.868E-09    1.663E-09    1.457E-09    1.250E-09    1.042E-09    8.346E-10
     6.271E-10    4.201E-10    2.137E-10    8.315E-12   -1.958E-10   -3.984E-10   -5.992E-10   -7.979E-10   -9.943E-10   -1.188E-09
    -1.379E-09   -1.566E-09   -1.750E-09   -1.930E-09   -2.107E-09   -2.278E-09   -2.446E-09   -2.608E-09   -2.765E-09   -2.917E-09
    -3.063E-09   -3.203E-09   -3.336E-09   -3.463E-09   -3.583E-09   -3.696E-09   -3.802E-09   -3.900E-09   -3.990E-09   -4.072E-09
    -4.147E-09   -4.214E-09   -4.274E-09   -4.328E-09   -4.375E-09   -4.415E-09   -4.449E-09   -4.477E-09   -4.499E-09   -4.515E-09
    -4.526E-09   -4.531E-09   -4.532E-09   -4.528E-09   -4.519E-09   -4.505E-09   -4.487E-09   -4.466E-09   -4.440E-09   -4.411E-09
    -4.378E-09   -4.342E-09   -4.303E-09   -4.262E-09   -4.217E-09   -4.171E-09   -4.122E-09   -4.071E-09   -4.018E-09   -3.964E-09
    -3.908E-09   -3.851E-09   -3.793E-09   -3.734E-09   -3.675E-09   -3.615E-09   -3.555E-09   -3.496E-09   -3.436E-09   -3.377E-09
    -3.318E-09   -3.261E-09   -3.204E-09   -3.149E-09   -3.095E-09   -3.043E-09   -2.993E-09   -2.945E-09   -2.899E-09   -2.855E-09
    -2.814E-09   -2.776E-09   -2.740E-09   -2.707E-09   -2.676E-09   -2.647E-09   -2.621E-09   -2.597E-09   -2.575E-09   -2.555E-09
    -2.538E-09   -2.522E-09   -2.509E-09   -2.498E-09   -2.488E-09   -2.481E-09   -2.475E-09   -2.471E-09   -2.469E-09   -2.469E-09
    -2.470E-09   -2.473E-09   -2.478E-09   -2.484E-09   -2.492E-09   -2.501E-09   -2.511E-09   -2.523E-09   -2.537E-09   -2.551E-09
    -2.567E-09   -2.584E-09   -2.602E-09   -2.622E-09   -2.642E-09   -2.663E-09   -2.686E-09   -2.709E-09   -2.733E-09   -2.758E-09
    -2.784E-09   -2.810E-09   -2.838E-09   -2.865E-09   -2.894E-09   -2.923E-09   -2.953E-09   -2.983E-09   -3.013E-09   -3.044E-09
    -3.076E-09   -3.107E-09   -3.139E-09   -3.171E-09   -3.204E-09   -3.236E-09   -3.269E-09   -3.302E-09   -3.336E-09   -3.369E-09
    -3.403E-09   -3.437E-09   -3.471E-09   -3.506E-09   -3.540E-09   -3.575E-09   -3.610E-09   -3.645E-09   -3.680E-09   -3.715E-09
    -3.751E-09   -3.786E-09   -3.822E-09   -3.858E-09   -3.893E-09   -3.929E-09   -3.965E-09   -4.001E-09   -4.037E-09   -4.073E-09
    -4.109E-09   -4.145E-09   -4.181E-09   -4.217E-09   -4.253E-09   -4.289E-09   -4.325E-09   -4.361E-09   -4.397E-09   -4.433E-09
    -4.469E-09   -4.505E-09   -4.540E-09   -4.576E-09   -4.611E-09   -4.646E-09   -4.681E-09   -4.716E-09   -4.751E-09   -4.786E-09
    -4.820E-09   -4.855E-09   -4.889E-09
 Asp      Conc. = 1.33E-09
  -3.51276E-10 -6.12203E-10 -5.68747E-10 -7.73290E-10 -7.55522E-10 -8.07444E-10 -8.88733E-10 -1.00743E-09 -1.01599E-09 -9.85117E-10
  -9.37163E-10 -8.79811E-10 -8.18353E-10 -7.48973E-10 -6.78131E-10 -6.06507E-10 -5.33867E-10 -4.60289E-10 -3.85923E-10 -3.10835E-10
  -2.35099E-10 -1.58734E-10 -8.17239E-11 -4.04690E-12  7.43480E-11  1.53579E-10  2.33778E-10  3.15159E-10  3.98001E-10  4.82737E-10
   5.70004E-10  6.60742E-10  7.56623E-10  8.60616E-10  9.79032E-10  1.12831E-09  1.34562E-09  1.48066E-09  1.68008E-09  1.73262E-09
   1.82979E-09  1.89799E-09  2.16077E-09  2.45352E-09  2.92596E-09  3.36321E-09  3.49112E-09  3.39113E-09  3.73189E-09  3.78001E-09
   3.91403E-09  4.08055E-09  4.23016E-09  4.16972E-09  4.07961E-09  3.91753E-09  3.43988E-09  3.48537E-09  3.76290E-09  3.48520E-09
   3.38199E-09  3.46277E-09  3.36437E-09  3.35785E-09  3.46098E-09  3.59941E-09  3.54889E-09  3.55387E-09  3.58505E-09  3.62940E-09
   3.68140E-09  3.73829E-09  3.79849E-09  3.86104E-09  3.92528E-09  3.99076E-09  4.05714E-09  4.12419E-09  4.19170E-09  4.25953E-09
   4.32755E-09  4.39566E-09  4.46378E-09  4.53183E-09  4.59975E-09  4.66749E-09  4.73499E-09  4.80222E-09  4.86913E-09  4.93568E-09
   5.00186E-09  5.06760E-09  5.13291E-09  5.19773E-09  5.26206E-09  5.32585E-09  5.38910E-09  5.45177E-09  5.51384E-09  5.57529E-09
   5.63609E-09  5.69624E-09  5.75571E-09  5.81446E-09  5.87251E-09  5.92974E-09  5.98607E-09  6.04137E-09  6.09552E-09  6.14843E-09
   6.19997E-09  6.25003E-09  6.29849E-09  6.34524E-09  6.39017E-09  6.43317E-09  6.47411E-09  6.51290E-09  6.54941E-09  6.58353E-09
   6.61515E-09  6.64416E-09  6.67045E-09  6.69390E-09  6.71439E-09  6.73183E-09  6.74609E-09  6.75706E-09  6.76463E-09  6.76869E-09
   6.76912E-09  6.76582E-09  6.75867E-09  6.74756E-09  6.73238E-09  6.71302E-09  6.68936E-09  6.66130E-09  6.62872E-09  6.59152E-09
   6.54958E-09  6.50279E-09  6.45104E-09  6.39424E-09  6.33226E-09  6.26500E-09  6.19236E-09  6.11422E-09  6.03050E-09  5.94109E-09
   5.84589E-09  5.74483E-09  5.63781E-09  5.52476E-09  5.40562E-09  5.28036E-09  5.14903E-09  5.01194E-09  4.86963E-09  4.72276E-09
   4.57224E-09  4.41944E-09  4.26681E-09  4.11926E-09  3.98910E-09  3.91743E-09  4.12024E-09  4.96041E-09  5.05909E-09  5.05412E-09
   4.76993E-09  4.71752E-09  4.40173E-09  4.26481E-09  3.89402E-09  3.69784E-09  3.48444E-09  3.39720E-09  1.77219E-09  1.20849E-09
   8.82984E-10  6.20216E-10  3.81999E-10  1.56181E-10 -6.21165E-11 -2.75034E-10 -4.83668E-10 -6.88535E-10 -8.89794E-10 -1.08751E-09
  -1.28162E-09 -1.47198E-09 -1.65845E-09 -1.84078E-09 -2.01880E-09 -2.19226E-09 -2.36092E-09 -2.52451E-09 -2.68280E-09 -2.83551E-09
  -2.98237E-09 -3.12313E-09 -3.25751E-09 -3.38524E-09 -3.50605E-09 -3.61966E-09 -3.72578E-09 -3.82419E-09 -3.91467E-09 -3.99741E-09
  -4.07260E-09 -4.14046E-09 -4.20118E-09 -4.25500E-09 -4.30208E-09 -4.34267E-09 -4.37694E-09 -4.40511E-09 -4.42740E-09 -4.44399E-09
  -4.45509E-09 -4.46092E-09 -4.46168E-09 -4.45756E-09 -4.44877E-09 -4.43553E-09 -4.41801E-09 -4.39646E-09 -4.37108E-09 -4.34203E-09
  -4.30954E-09 -4.27383E-09 -4.23507E-09 -4.19350E-09 -4.14930E-09 -4.10269E-09 -4.05388E-09 -4.00304E-09 -3.95041E-09 -3.89618E-09
  -3.84054E-09 -3.78371E-09 -3.72590E-09 -3.66731E-09 -3.60814E-09 -3.54858E-09 -3.48887E-09 -3.42921E-09 -3.36975E-09 -3.31074E-09
  -3.25237E-09 -3.19487E-09 -3.13842E-09 -3.08321E-09 -3.02949E-09 -2.97741E-09 -2.92722E-09 -2.87909E-09 -2.83324E-09 -2.78989E-09
  -2.74910E-09 -2.71084E-09 -2.67508E-09 -2.64176E-09 -2.61084E-09 -2.58228E-09 -2.55603E-09 -2.53206E-09 -2.51030E-09 -2.49072E-09
  -2.47328E-09 -2.45793E-09 -2.44463E-09 -2.43332E-09 -2.42397E-09 -2.41653E-09 -2.41096E-09 -2.40721E-09 -2.40523E-09 -2.40499E-09
  -2.40643E-09 -2.40954E-09 -2.41422E-09 -2.42045E-09 -2.42821E-09 -2.43743E-09 -2.44806E-09 -2.46007E-09 -2.47342E-09 -2.48806E-09
  -2.50393E-09 -2.52100E-09 -2.53921E-09 -2.55855E-09 -2.57894E-09 -2.60036E-09 -2.62274E-09 -2.64605E-09 -2.67025E-09 -2.69529E-09
  -2.72114E-09 -2.74771E-09 -2.77501E-09 -2.80295E-09 -2.83152E-09 -2.86067E-09 -2.89034E-09 -2.92048E-09 -2.95109E-09 -2.98206E-09
  -3.01340E-09 -3.04507E-09 -3.07699E-09 -3.10919E-09 -3.14166E-09 -3.17438E-09 -3.20735E-09 -3.24056E-09 -3.27400E-09 -3.30765E-09
  -3.34152E-09 -3.37558E-09 -3.40984E-09 -3.44428E-09 -3.47889E-09 -3.51366E-09 -3.54859E-09 -3.58366E-09 -3.61887E-09 -3.65420E-09
  -3.68965E-09 -3.72520E-09 -3.76085E-09 -3.79659E-09 -3.83241E-09 -3.86830E-09 -3.90425E-09 -3.94024E-09 -3.97628E-09 -4.01235E-09
  -4.04844E-09 -4.08455E-09 -4.12066E-09 -4.15676E-09 -4.19285E-09 -4.22891E-09 -4.26494E-09 -4.30093E-09 -4.33686E-09 -4.37273E-09
  -4.40853E-09 -4.44424E-09 -4.47987E-09 -4.51540E-09 -4.55082E-09 -4.58612E-09 -4.62129E-09 -4.65632E-09 -4.69121E-09 -4.72595E-09
  -4.76052E-09 -4.79491E-09 -4.82912E-09
 Cr       Conc. = 5.31E-10
  -2.35024E-10 -2.02851E-10  1.17089E-10 -9.41980E-10 -1.24492E-09 -1.27954E-09 -1.25196E-09 -1.20231E-09 -1.14260E-09 -1.07755E-09
  -1.00935E-09 -9.39132E-10 -8.67552E-10 -7.95009E-10 -7.21739E-10 -6.47895E-10 -5.73584E-10 -4.98830E-10 -4.23675E-10 -3.48076E-10
  -2.71992E-10 -1.95312E-10 -1.17852E-10 -3.93385E-11  4.06808E-11  1.23019E-10  2.09102E-10  3.01792E-10  4.07469E-10  5.43431E-10
   7.72830E-10  1.46139E-09  2.60219E-09  2.99500E-09  3.22711E-09  3.25714E-09  3.45029E-09  3.43548E-09  3.54006E-09  3.45780E-09
   3.52999E-09  3.68923E-09  3.56076E-09  2.15826E-09  1.88630E-09  1.83660E-09  1.85034E-09  1.88970E-09  1.94179E-09  2.00108E-09
   2.06489E-09  2.13168E-09  2.20057E-09  2.27099E-09  2.34255E-09  2.41499E-09  2.48809E-09  2.56173E-09  2.63577E-09  2.71013E-09
   2.78473E-09  2.85952E-09  2.93443E-09  3.00943E-09  3.08447E-09  3.15951E-09  3.23454E-09  3.30950E-09  3.38438E-09  3.45915E-09
   3.53379E-09  3.60827E-09  3.68257E-09  3.75667E-09  3.83054E-09  3.90417E-09  3.97753E-09  4.05060E-09  4.12338E-09  4.19584E-09
   4.26795E-09  4.33970E-09  4.41108E-09  4.48205E-09  4.55261E-09  4.62275E-09  4.69243E-09  4.76165E-09  4.83038E-09  4.89860E-09
   4.96631E-09  5.03348E-09  5.10011E-09  5.16615E-09  5.23161E-09  5.29646E-09  5.36069E-09  5.42429E-09  5.48722E-09  5.54948E-09
   5.61105E-09  5.67192E-09  5.73206E-09  5.79146E-09  5.85010E-09  5.90791E-09  5.96478E-09  6.02059E-09  6.07524E-09  6.12861E-09
   6.18059E-09  6.23107E-09  6.27993E-09  6.32707E-09  6.37237E-09  6.41571E-09  6.45700E-09  6.49611E-09  6.53293E-09  6.56735E-09
   6.59926E-09  6.62854E-09  6.65509E-09  6.67879E-09  6.69953E-09  6.71721E-09  6.73169E-09  6.74288E-09  6.75066E-09  6.75493E-09
   6.75555E-09  6.75244E-09  6.74548E-09  6.73454E-09  6.71953E-09  6.70032E-09  6.67681E-09  6.64889E-09  6.61644E-09  6.57936E-09
   6.53753E-09  6.49084E-09  6.43919E-09  6.38246E-09  6.32053E-09  6.25330E-09  6.18067E-09  6.10252E-09  6.01874E-09  5.92924E-09
   5.83390E-09  5.73262E-09  5.62531E-09  5.51186E-09  5.39220E-09  5.26622E-09  5.13393E-09  4.99554E-09  4.85145E-09  4.70207E-09
   4.54794E-09  4.38975E-09  4.22857E-09  4.06634E-09  3.90753E-09  3.76579E-09  3.70711E-09  3.94994E-09  3.88815E-09  3.78140E-09
   3.54222E-09  3.40798E-09  3.15584E-09  2.98498E-09  2.70957E-09  2.50755E-09  2.28269E-09  2.18101E-09  1.38891E-09  1.01249E-09
   7.53686E-10  5.23585E-10  3.04460E-10  9.10751E-11 -1.18520E-10 -3.25027E-10 -5.28755E-10 -7.29751E-10 -9.27886E-10 -1.12303E-09
  -1.31499E-09 -1.50352E-09 -1.68842E-09 -1.86939E-09 -2.04622E-09 -2.21863E-09 -2.38636E-09 -2.54911E-09 -2.70665E-09 -2.85868E-09
  -3.00493E-09 -3.14513E-09 -3.27899E-09 -3.40625E-09 -3.52662E-09 -3.63984E-09 -3.74558E-09 -3.84364E-09 -3.93379E-09 -4.01623E-09
  -4.09113E-09 -4.15872E-09 -4.21920E-09 -4.27277E-09 -4.31963E-09 -4.36001E-09 -4.39408E-09 -4.42206E-09 -4.44416E-09 -4.46059E-09
  -4.47152E-09 -4.47719E-09 -4.47780E-09 -4.47353E-09 -4.46461E-09 -4.45124E-09 -4.43359E-09 -4.41192E-09 -4.38642E-09 -4.35726E-09
