 LCModel (Version 6.3-1R) Copyright: S.W. Provencher.          Ref.: Magn. Reson. Med. 30:672-679 (1993).                
 onepulse 13x14_ftSpec_smooth_lcm
 26 lines in following concentration table = NCONC+1
    Conc.  %SD   /Cr    Metabolite                                         
    0.000 999%   0.000 Ala                                                 
 8.96E-10  99%   0.000 Asp                                                 
    0.000 999%   0.000 Cr                                                  
 5.18E-10 131%   0.000 GABA                                                
 1.82E-10 626%   0.000 Glc                                                 
 2.14E-09  32%   0.000 Gln                                                 
    0.000 999%   0.000 Glu                                                 
 1.60E-09 110%   0.000 Glyc                                                
    0.000 999%   0.000 GPC                                                 
 1.56E-09  41%   0.000 GSH                                                 
 9.08E-10 167%   0.000 Ins                                                 
    0.000 999%   0.000 Lac                                                 
 4.52E-10  83%   0.000 NAAG                                                
 6.38E-11 850%   0.000 NAA                                                 
    0.000 999%   0.000 PCh                                                 
    0.000 999%   0.000 PCr                                                 
 2.59E-09  34%   0.000 PE                                                  
 3.31E-10  87%   0.000 Scyllo                                              
    0.000 999%   0.000 Ser                                                 
 6.60E-10 176%   0.000 Tau                                                 
    0.000 999%   0.000 GPC+PCh                                             
 5.15E-10  65%   0.000 NAA+NAAG                                            
 2.51E-09  26%   0.000 Ins+Glyc                                            
    0.000 999%   0.000 Cr+PCr                                              
 2.14E-09  32%   0.000 Glu+Gln                                             
   6 lines in following misc. output table
  FWHM = 0.123 ppm    S/N =   3                                            
  Data shift = 0.425 ppm                                                   
  Ph: -13 deg     -44.3 deg/ppm                                            
  alphaB,S = 3.2E-01,   1.0E+01                                            
   10 spline knots.   Ns = 5(1)                                            
  (12) 8 infls.   (11) 7 extrs.                                            
  363 points on ppm-axis = NY
      4.250000     4.238821     4.227641     4.216462     4.205282     4.194103     4.182923     4.171744     4.160564     4.149385
      4.138206     4.127026     4.115847     4.104667     4.093488     4.082308     4.071129     4.059949     4.048770     4.037591
      4.026411     4.015232     4.004052     3.992873     3.981693     3.970514     3.959334     3.948155     3.936975     3.925796
      3.914617     3.903437     3.892258     3.881078     3.869899     3.858719     3.847540     3.836360     3.825181     3.814002
      3.802822     3.791643     3.780463     3.769284     3.758104     3.746925     3.735745     3.724566     3.713387     3.702207
      3.691028     3.679848     3.668669     3.657489     3.646310     3.635130     3.623951     3.612772     3.601592     3.590413
      3.579233     3.568054     3.556874     3.545695     3.534515     3.523336     3.512156     3.500977     3.489798     3.478618
      3.467439     3.456259     3.445080     3.433900     3.422721     3.411541     3.400362     3.389183     3.378003     3.366824
      3.355644     3.344465     3.333285     3.322106     3.310926     3.299747     3.288568     3.277388     3.266209     3.255029
      3.243850     3.232670     3.221491     3.210311     3.199132     3.187953     3.176773     3.165594     3.154414     3.143235
      3.132055     3.120876     3.109696     3.098517     3.087337     3.076158     3.064979     3.053799     3.042620     3.031440
      3.020261     3.009081     2.997902     2.986722     2.975543     2.964364     2.953184     2.942005     2.930825     2.919646
      2.908466     2.897287     2.886107     2.874928     2.863749     2.852569     2.841390     2.830210     2.819031     2.807851
      2.796672     2.785492     2.774313     2.763134     2.751954     2.740775     2.729595     2.718416     2.707236     2.696057
      2.684877     2.673698     2.662519     2.651339     2.640160     2.628980     2.617801     2.606621     2.595442     2.584262
      2.573083     2.561903     2.550724     2.539545     2.528365     2.517186     2.506006     2.494827     2.483647     2.472468
      2.461288     2.450109     2.438930     2.427750     2.416571     2.405391     2.394212     2.383032     2.371853     2.360673
      2.349494     2.338315     2.327135     2.315956     2.304776     2.293597     2.282417     2.271238     2.260058     2.248879
      2.237700     2.226520     2.215341     2.204161     2.192982     2.181802     2.170623     2.159443     2.148264     2.137084
      2.125905     2.114726     2.103546     2.092367     2.081187     2.070008     2.058828     2.047649     2.036469     2.025290
      2.014111     2.002931     1.991752     1.980572     1.969393     1.958213     1.947034     1.935854     1.924675     1.913496
      1.902316     1.891137     1.879957     1.868778     1.857598     1.846419     1.835239     1.824060     1.812881     1.801701
      1.790522     1.779342     1.768163     1.756983     1.745804     1.734624     1.723445     1.712265     1.701086     1.689907
      1.678727     1.667548     1.656368     1.645189     1.634009     1.622830     1.611650     1.600471     1.589292     1.578112
      1.566933     1.555753     1.544574     1.533394     1.522215     1.511035     1.499856     1.488677     1.477497     1.466318
      1.455138     1.443959     1.432779     1.421600     1.410420     1.399241     1.388062     1.376882     1.365703     1.354523
      1.343344     1.332164     1.320985     1.309805     1.298626     1.287446     1.276267     1.265088     1.253908     1.242729
      1.231549     1.220370     1.209190     1.198011     1.186831     1.175652     1.164473     1.153293     1.142114     1.130934
      1.119755     1.108575     1.097396     1.086216     1.075037     1.063858     1.052678     1.041499     1.030319     1.019140
      1.007960     0.996781     0.985601     0.974422     0.963243     0.952063     0.940884     0.929704     0.918525     0.907345
      0.896166     0.884986     0.873807     0.862628     0.851448     0.840269     0.829089     0.817910     0.806730     0.795551
      0.784371     0.773192     0.762012     0.750833     0.739654     0.728474     0.717295     0.706115     0.694936     0.683756
      0.672577     0.661397     0.650218     0.639039     0.627859     0.616680     0.605500     0.594321     0.583141     0.571962
      0.560782     0.549603     0.538424     0.527244     0.516065     0.504885     0.493706     0.482526     0.471347     0.460167
      0.448988     0.437809     0.426629     0.415450     0.404270     0.393091     0.381911     0.370732     0.359552     0.348373
      0.337193     0.326014     0.314835     0.303655     0.292476     0.281296     0.270117     0.258937     0.247758     0.236578
      0.225399     0.214220     0.203040
 NY phased data points follow
   1.39032E-08  9.65675E-09  1.35587E-08  9.99271E-09  1.37103E-08  1.06087E-08  1.40995E-08  1.13175E-08  1.45176E-08  1.17418E-08
   1.47790E-08  1.08006E-08  1.38281E-08  1.07221E-08  1.34191E-08  1.03354E-08  1.33602E-08  1.06157E-08  1.42522E-08  1.12833E-08
   1.35598E-08  1.06696E-08  1.26008E-08  1.04502E-08  1.37281E-08  1.24961E-08  1.51490E-08  1.33018E-08  1.55029E-08  1.22367E-08
   1.30610E-08  1.07209E-08  1.18661E-08  9.88213E-09  1.12493E-08  1.00577E-08  1.06520E-08  9.37036E-09  1.08743E-08  8.85242E-09
   1.01592E-08  8.44384E-09  9.09082E-09  8.55242E-09  9.64536E-09  8.11064E-09  9.59702E-09  8.28266E-09  8.44704E-09  7.35208E-09
   8.30228E-09  6.84478E-09  8.04421E-09  7.39323E-09  8.59694E-09  9.06504E-09  1.12304E-08  1.35100E-08  1.44000E-08  1.37674E-08
   1.36101E-08  1.22399E-08  1.23154E-08  1.06112E-08  1.03002E-08  9.62431E-09  9.72251E-09  8.67664E-09  8.21328E-09  6.98046E-09
   6.80533E-09  6.94374E-09  9.13747E-09  1.23342E-08  1.50771E-08  1.69060E-08  1.60795E-08  1.55874E-08  1.48079E-08  1.47774E-08
   1.42787E-08  1.40504E-08  1.33470E-08  1.30445E-08  1.29169E-08  1.28630E-08  1.25377E-08  1.20459E-08  1.14987E-08  1.13609E-08
   1.06759E-08  1.05281E-08  9.85765E-09  9.61007E-09  9.01414E-09  9.25449E-09  9.14048E-09  8.89865E-09  9.05370E-09  8.97549E-09
   8.91039E-09  9.09860E-09  7.63439E-09  7.49605E-09  7.09796E-09  6.53152E-09  6.20016E-09  7.33539E-09  6.95714E-09  7.63399E-09
   7.28271E-09  7.83448E-09  7.16883E-09  8.15523E-09  7.85443E-09  8.54053E-09  7.66240E-09  7.75498E-09  6.63960E-09  6.64108E-09
   5.37661E-09  6.10386E-09  6.07375E-09  6.06810E-09  5.62549E-09  6.10653E-09  6.11991E-09  6.85656E-09  6.23578E-09  7.09844E-09
   5.97525E-09  6.64292E-09  5.86635E-09  6.95267E-09  7.32407E-09  8.77096E-09  7.89043E-09  9.20790E-09  7.70581E-09  9.43124E-09
   9.27109E-09  1.03314E-08  9.75347E-09  1.08965E-08  9.76540E-09  1.03793E-08  9.82932E-09  1.05555E-08  1.03401E-08  1.03293E-08
   9.34342E-09  1.05679E-08  9.46212E-09  1.07500E-08  9.93708E-09  1.06844E-08  9.49196E-09  1.05574E-08  9.79274E-09  9.24931E-09
   8.13906E-09  8.69969E-09  7.25245E-09  7.64138E-09  9.01015E-09  1.54522E-08  1.82420E-08  2.14112E-08  2.07305E-08  2.21288E-08
   2.12776E-08  2.22392E-08  2.11994E-08  2.16716E-08  2.05803E-08  2.09136E-08  2.00201E-08  2.05421E-08  1.80580E-08  1.82820E-08
   1.56301E-08  1.52905E-08  1.23518E-08  1.09417E-08  7.53203E-09  5.98720E-09  2.86136E-09  8.72887E-10 -2.16096E-09 -3.61371E-09
  -6.52475E-09 -7.60904E-09 -1.00828E-08 -1.07430E-08 -1.17944E-08 -1.08396E-08 -1.14431E-08 -9.97701E-09 -1.02984E-08 -7.68507E-09
  -7.93760E-09 -5.61294E-09 -4.91580E-09 -3.66038E-09 -3.87904E-09 -1.79004E-09 -3.28776E-09 -1.89897E-09 -2.48268E-09 -2.18023E-09
  -3.57907E-09 -2.05424E-09 -2.98613E-09 -1.79364E-09 -2.95502E-09 -1.28435E-09 -2.11150E-09 -9.64367E-10 -2.00386E-09 -9.01917E-10
  -2.06054E-09 -1.05189E-09 -2.79885E-09 -1.66018E-09 -2.03639E-09 -1.12555E-09 -2.00295E-09 -1.01172E-09 -1.84686E-09 -3.68443E-10
  -1.83335E-09 -5.16995E-10 -1.73876E-09 -1.05860E-09 -2.23557E-09 -1.55182E-09 -2.09935E-09 -1.11014E-09 -3.01404E-09 -1.26289E-09
  -2.15277E-09 -8.81891E-10 -1.58655E-09 -1.06793E-09 -1.67737E-09 -1.90863E-10 -2.02330E-09 -2.27796E-10 -1.15432E-09 -2.04448E-10
  -1.55161E-09 -4.93588E-10 -1.32259E-09 -5.87570E-10 -1.58003E-09 -1.00629E-09 -1.77280E-09 -1.39917E-09 -2.72175E-09 -1.63893E-09
  -2.70373E-09 -2.07741E-09 -3.23948E-09 -2.09840E-09 -2.72466E-09 -2.01704E-09 -2.46525E-09 -1.96034E-09 -2.51291E-09 -1.11083E-09
  -1.55429E-09 -1.07543E-10 -1.48217E-09 -2.63466E-11 -1.07607E-09 -1.37735E-10 -9.98584E-10 -1.05965E-10 -3.81427E-10 -2.21117E-10
  -3.82721E-10 -1.99033E-10 -4.90939E-10  2.14175E-10 -7.01852E-10 -3.85691E-13 -1.03459E-09 -7.45732E-11 -9.92869E-10  1.55963E-10
  -8.84177E-10 -4.60693E-10 -1.09914E-09 -1.66873E-10 -6.51355E-10 -6.22554E-10 -1.04347E-09 -6.95733E-10 -1.02239E-09 -7.42964E-10
  -1.11767E-09 -8.31545E-10 -1.36085E-09 -9.85411E-10 -1.21017E-09 -1.25307E-09 -1.01507E-09 -1.33982E-09 -1.61798E-09 -1.48096E-09
  -1.24012E-09 -1.58621E-09 -1.77402E-09 -1.16672E-09 -1.19845E-09 -1.94645E-09 -1.84036E-09 -1.18904E-09 -2.05429E-09 -2.07837E-09
  -1.91793E-09 -1.55680E-09 -1.61213E-09 -2.04010E-09 -1.64360E-09 -1.88456E-09 -2.35817E-09 -1.65066E-09 -1.37753E-09 -2.08945E-09
  -2.05905E-09 -2.11809E-09 -2.29096E-09 -2.32204E-09 -2.12192E-09 -1.99294E-09 -2.32080E-09 -2.27005E-09 -2.50589E-09 -2.42699E-09
  -2.23429E-09 -1.86733E-09 -2.78305E-09 -2.21024E-09 -2.14523E-09 -2.12999E-09 -2.50417E-09 -2.73979E-09 -2.37370E-09 -2.28533E-09
  -2.53019E-09 -2.40459E-09 -2.90122E-09 -2.41418E-09 -2.34888E-09 -2.93918E-09 -2.36301E-09 -2.70881E-09 -2.53681E-09 -2.50895E-09
  -2.72215E-09 -2.50024E-09 -2.60083E-09
 NY points of the fit to the data follow
   1.29083E-08  1.26177E-08  1.22117E-08  1.18612E-08  1.16967E-08  1.16798E-08  1.14888E-08  1.22064E-08  1.53451E-08  1.43840E-08
   1.22284E-08  1.18855E-08  1.14389E-08  1.15196E-08  1.19253E-08  1.15742E-08  1.16866E-08  1.29584E-08  1.46982E-08  1.22946E-08
   1.02277E-08  1.06360E-08  1.19253E-08  1.23913E-08  1.33949E-08  1.34595E-08  1.44467E-08  1.44759E-08  1.42193E-08  1.25935E-08
   1.23836E-08  1.20712E-08  1.18779E-08  1.11171E-08  1.12166E-08  1.01871E-08  1.05147E-08  9.75099E-09  9.48395E-09  9.17920E-09
   8.98463E-09  8.94033E-09  9.28129E-09  9.12223E-09  8.84350E-09  8.27002E-09  8.17109E-09  7.17150E-09  7.12245E-09  7.26861E-09
   7.84355E-09  8.29030E-09  8.63197E-09  9.57202E-09  1.06047E-08  1.06011E-08  1.08544E-08  1.20717E-08  1.26271E-08  1.22268E-08
   1.23655E-08  1.21281E-08  1.19347E-08  1.19308E-08  1.12694E-08  1.04738E-08  1.04917E-08  1.02668E-08  9.37315E-09  9.39680E-09
   1.00605E-08  1.04583E-08  1.10916E-08  1.13963E-08  1.24853E-08  1.36474E-08  1.46790E-08  1.52053E-08  1.54529E-08  1.54911E-08
   1.52426E-08  1.48313E-08  1.43257E-08  1.36243E-08  1.33543E-08  1.26683E-08  1.17492E-08  1.03429E-08  9.44061E-09  9.06587E-09
   8.76453E-09  8.53538E-09  8.51211E-09  8.43794E-09  8.17459E-09  8.15234E-09  8.13884E-09  7.96888E-09  7.92925E-09  7.88981E-09
   7.83398E-09  7.82376E-09  7.82222E-09  7.82218E-09  7.83306E-09  7.85204E-09  7.87610E-09  7.90445E-09  7.93503E-09  7.96755E-09
   8.00151E-09  8.03623E-09  8.07136E-09  8.10654E-09  8.14142E-09  8.17582E-09  8.20947E-09  8.24207E-09  8.27343E-09  8.30333E-09
   8.33157E-09  8.35800E-09  8.38244E-09  8.40471E-09  8.42466E-09  8.44213E-09  8.45697E-09  8.46903E-09  8.47817E-09  8.48425E-09
   8.48713E-09  8.48668E-09  8.48278E-09  8.47528E-09  8.46406E-09  8.44900E-09  8.42999E-09  8.40689E-09  8.37959E-09  8.34799E-09
   8.31196E-09  8.27142E-09  8.22626E-09  8.17639E-09  8.12172E-09  8.06217E-09  7.99769E-09  7.92823E-09  7.85376E-09  7.77429E-09
   7.68983E-09  7.60049E-09  7.50640E-09  7.40781E-09  7.30510E-09  7.19882E-09  7.08991E-09  6.97995E-09  6.87145E-09  6.76815E-09
   6.67614E-09  6.60603E-09  6.57814E-09  6.63650E-09  6.89494E-09  7.74146E-09  1.12222E-08  2.09460E-08  2.29803E-08  2.26841E-08
   2.21795E-08  2.26429E-08  2.20224E-08  2.19113E-08  2.11401E-08  2.13720E-08  2.20917E-08  2.08039E-08  1.01439E-08  5.95254E-09
   4.53900E-09  3.79056E-09  3.28286E-09  2.88758E-09  2.55372E-09  2.25740E-09  1.98593E-09  1.73210E-09  1.49160E-09  1.26166E-09
   1.04050E-09  8.26988E-10  6.20317E-10  4.20054E-10  2.25834E-10  3.75169E-11 -1.44989E-10 -3.21657E-10 -4.92476E-10 -6.57323E-10
  -8.16081E-10 -9.68607E-10 -1.11472E-09 -1.25425E-09 -1.38698E-09 -1.51273E-09 -1.63123E-09 -1.74232E-09 -1.84583E-09 -1.94195E-09
  -2.03086E-09 -2.11279E-09 -2.18791E-09 -2.25644E-09 -2.31855E-09 -2.37446E-09 -2.42434E-09 -2.46837E-09 -2.50677E-09 -2.53970E-09
  -2.56734E-09 -2.58990E-09 -2.60755E-09 -2.62047E-09 -2.62884E-09 -2.63286E-09 -2.63267E-09 -2.62850E-09 -2.62053E-09 -2.60889E-09
  -2.59378E-09 -2.57541E-09 -2.55393E-09 -2.52953E-09 -2.50239E-09 -2.47269E-09 -2.44061E-09 -2.40630E-09 -2.36998E-09 -2.33180E-09
  -2.29195E-09 -2.25060E-09 -2.20794E-09 -2.16414E-09 -2.11936E-09 -2.07381E-09 -2.02766E-09 -1.98109E-09 -1.93425E-09 -1.88732E-09
  -1.84050E-09 -1.79398E-09 -1.74790E-09 -1.70244E-09 -1.65783E-09 -1.61417E-09 -1.57169E-09 -1.53055E-09 -1.49093E-09 -1.45301E-09
  -1.41686E-09 -1.38247E-09 -1.34982E-09 -1.31888E-09 -1.28962E-09 -1.26203E-09 -1.23607E-09 -1.21173E-09 -1.18897E-09 -1.16777E-09
  -1.14812E-09 -1.12998E-09 -1.11333E-09 -1.09813E-09 -1.08437E-09 -1.07204E-09 -1.06108E-09 -1.05150E-09 -1.04324E-09 -1.03631E-09
  -1.03065E-09 -1.02627E-09 -1.02312E-09 -1.02118E-09 -1.02043E-09 -1.02086E-09 -1.02240E-09 -1.02507E-09 -1.02883E-09 -1.03365E-09
  -1.03951E-09 -1.04638E-09 -1.05423E-09 -1.06307E-09 -1.07282E-09 -1.08350E-09 -1.09506E-09 -1.10748E-09 -1.12074E-09 -1.13482E-09
  -1.14969E-09 -1.16530E-09 -1.18167E-09 -1.19874E-09 -1.21649E-09 -1.23492E-09 -1.25398E-09 -1.27364E-09 -1.29391E-09 -1.31472E-09
  -1.33608E-09 -1.35796E-09 -1.38032E-09 -1.40316E-09 -1.42646E-09 -1.45020E-09 -1.47438E-09 -1.49898E-09 -1.52397E-09 -1.54936E-09
  -1.57511E-09 -1.60122E-09 -1.62767E-09 -1.65444E-09 -1.68153E-09 -1.70891E-09 -1.73657E-09 -1.76449E-09 -1.79266E-09 -1.82107E-09
  -1.84969E-09 -1.87852E-09 -1.90753E-09 -1.93672E-09 -1.96606E-09 -1.99555E-09 -2.02516E-09 -2.05489E-09 -2.08471E-09 -2.11460E-09
  -2.14457E-09 -2.17459E-09 -2.20464E-09 -2.23471E-09 -2.26478E-09 -2.29485E-09 -2.32489E-09 -2.35488E-09 -2.38482E-09 -2.41469E-09
  -2.44447E-09 -2.47414E-09 -2.50371E-09 -2.53313E-09 -2.56240E-09 -2.59152E-09 -2.62046E-09 -2.64919E-09 -2.67772E-09 -2.70603E-09
  -2.73410E-09 -2.76191E-09 -2.78944E-09
 NY background values follow
    -2.415E-09   -2.321E-09   -2.227E-09   -2.133E-09   -2.039E-09   -1.945E-09   -1.851E-09   -1.757E-09   -1.663E-09   -1.569E-09
    -1.475E-09   -1.381E-09   -1.286E-09   -1.192E-09   -1.098E-09   -1.004E-09   -9.100E-10   -8.161E-10   -7.222E-10   -6.283E-10
    -5.346E-10   -4.409E-10   -3.474E-10   -2.540E-10   -1.607E-10   -6.749E-11    2.553E-11    1.184E-10    2.111E-10    3.036E-10
     3.960E-10    4.881E-10    5.801E-10    6.718E-10    7.634E-10    8.546E-10    9.457E-10    1.036E-09    1.127E-09    1.217E-09
     1.307E-09    1.397E-09    1.486E-09    1.575E-09    1.664E-09    1.753E-09    1.841E-09    1.928E-09    2.016E-09    2.103E-09
     2.189E-09    2.276E-09    2.361E-09    2.447E-09    2.532E-09    2.616E-09    2.701E-09    2.784E-09    2.868E-09    2.951E-09
     3.033E-09    3.115E-09    3.197E-09    3.278E-09    3.359E-09    3.439E-09    3.519E-09    3.599E-09    3.678E-09    3.757E-09
     3.835E-09    3.913E-09    3.990E-09    4.067E-09    4.143E-09    4.219E-09    4.295E-09    4.370E-09    4.444E-09    4.519E-09
     4.592E-09    4.666E-09    4.738E-09    4.811E-09    4.883E-09    4.954E-09    5.025E-09    5.095E-09    5.165E-09    5.235E-09
     5.304E-09    5.373E-09    5.441E-09    5.508E-09    5.575E-09    5.642E-09    5.708E-09    5.774E-09    5.839E-09    5.904E-09
     5.968E-09    6.031E-09    6.095E-09    6.157E-09    6.219E-09    6.281E-09    6.342E-09    6.402E-09    6.461E-09    6.519E-09
     6.576E-09    6.632E-09    6.686E-09    6.739E-09    6.790E-09    6.840E-09    6.887E-09    6.933E-09    6.976E-09    7.017E-09
     7.056E-09    7.093E-09    7.127E-09    7.158E-09    7.186E-09    7.212E-09    7.234E-09    7.253E-09    7.269E-09    7.282E-09
     7.291E-09    7.296E-09    7.298E-09    7.296E-09    7.290E-09    7.279E-09    7.265E-09    7.246E-09    7.222E-09    7.195E-09
     7.162E-09    7.125E-09    7.082E-09    7.035E-09    6.982E-09    6.925E-09    6.861E-09    6.793E-09    6.718E-09    6.638E-09
     6.552E-09    6.460E-09    6.362E-09    6.258E-09    6.147E-09    6.030E-09    5.906E-09    5.776E-09    5.640E-09    5.498E-09
     5.351E-09    5.198E-09    5.040E-09    4.877E-09    4.710E-09    4.539E-09    4.364E-09    4.185E-09    4.003E-09    3.817E-09
     3.629E-09    3.438E-09    3.245E-09    3.050E-09    2.852E-09    2.654E-09    2.454E-09    2.253E-09    2.051E-09    1.849E-09
     1.647E-09    1.445E-09    1.243E-09    1.042E-09    8.415E-10    6.424E-10    4.447E-10    2.487E-10    5.462E-11   -1.372E-10
    -3.265E-10   -5.131E-10   -6.966E-10   -8.768E-10   -1.053E-09   -1.226E-09   -1.395E-09   -1.559E-09   -1.719E-09   -1.873E-09
    -2.023E-09   -2.167E-09   -2.305E-09   -2.438E-09   -2.564E-09   -2.683E-09   -2.796E-09   -2.902E-09   -3.000E-09   -3.091E-09
    -3.176E-09   -3.254E-09   -3.325E-09   -3.389E-09   -3.448E-09   -3.500E-09   -3.547E-09   -3.588E-09   -3.623E-09   -3.653E-09
    -3.678E-09   -3.698E-09   -3.713E-09   -3.723E-09   -3.729E-09   -3.731E-09   -3.729E-09   -3.722E-09   -3.712E-09   -3.698E-09
    -3.681E-09   -3.661E-09   -3.638E-09   -3.612E-09   -3.583E-09   -3.551E-09   -3.517E-09   -3.481E-09   -3.444E-09   -3.404E-09
    -3.362E-09   -3.320E-09   -3.275E-09   -3.230E-09   -3.184E-09   -3.137E-09   -3.090E-09   -3.042E-09   -2.994E-09   -2.945E-09
    -2.897E-09   -2.850E-09   -2.802E-09   -2.756E-09   -2.710E-09   -2.665E-09   -2.622E-09   -2.579E-09   -2.539E-09   -2.500E-09
    -2.462E-09   -2.427E-09   -2.393E-09   -2.361E-09   -2.331E-09   -2.302E-09   -2.275E-09   -2.250E-09   -2.226E-09   -2.204E-09
    -2.184E-09   -2.165E-09   -2.147E-09   -2.131E-09   -2.116E-09   -2.103E-09   -2.091E-09   -2.081E-09   -2.072E-09   -2.064E-09
    -2.057E-09   -2.052E-09   -2.048E-09   -2.045E-09   -2.044E-09   -2.044E-09   -2.044E-09   -2.046E-09   -2.049E-09   -2.053E-09
    -2.058E-09   -2.064E-09   -2.071E-09   -2.079E-09   -2.088E-09   -2.098E-09   -2.109E-09   -2.121E-09   -2.133E-09   -2.147E-09
    -2.161E-09   -2.176E-09   -2.191E-09   -2.208E-09   -2.225E-09   -2.243E-09   -2.261E-09   -2.280E-09   -2.299E-09   -2.319E-09
    -2.340E-09   -2.361E-09   -2.383E-09   -2.405E-09   -2.428E-09   -2.451E-09   -2.474E-09   -2.498E-09   -2.523E-09   -2.547E-09
    -2.572E-09   -2.598E-09   -2.624E-09   -2.650E-09   -2.676E-09   -2.703E-09   -2.730E-09   -2.757E-09   -2.785E-09   -2.812E-09
    -2.840E-09   -2.868E-09   -2.897E-09   -2.925E-09   -2.954E-09   -2.983E-09   -3.012E-09   -3.041E-09   -3.070E-09   -3.099E-09
    -3.129E-09   -3.158E-09   -3.187E-09   -3.217E-09   -3.246E-09   -3.276E-09   -3.305E-09   -3.334E-09   -3.364E-09   -3.393E-09
    -3.422E-09   -3.451E-09   -3.480E-09   -3.509E-09   -3.537E-09   -3.566E-09   -3.594E-09   -3.622E-09   -3.650E-09   -3.678E-09
    -3.705E-09   -3.732E-09   -3.759E-09
 Asp      Conc. = 8.96E-10
  -1.43720E-09 -1.53673E-09 -1.48732E-09 -1.55238E-09 -1.50378E-09 -1.48947E-09 -1.51991E-09 -1.54712E-09 -1.50726E-09 -1.44289E-09
  -1.36756E-09 -1.28640E-09 -1.20174E-09 -1.11215E-09 -1.02171E-09 -9.30692E-10 -8.38993E-10 -7.46678E-10 -6.53874E-10 -5.60626E-10
  -4.67005E-10 -3.73032E-10 -2.78706E-10 -1.84025E-10 -8.89735E-11  6.52842E-12  1.02555E-10  1.99248E-10  2.96787E-10  3.95478E-10
   4.95769E-10  5.98320E-10  7.04378E-10  8.16178E-10  9.38637E-10  1.08502E-09  1.28329E-09  1.40067E-09  1.56758E-09  1.63178E-09
   1.71795E-09  1.82547E-09  2.06196E-09  2.32469E-09  2.70552E-09  3.03663E-09  3.05700E-09  3.00547E-09  3.32032E-09  3.38493E-09
   3.48272E-09  3.66834E-09  3.80426E-09  3.78389E-09  3.76100E-09  3.63839E-09  3.40970E-09  3.51179E-09  3.67351E-09  3.51909E-09
   3.50556E-09  3.56490E-09  3.52904E-09  3.56986E-09  3.68399E-09  3.78134E-09  3.78064E-09  3.81440E-09  3.86424E-09  3.92216E-09
   3.98472E-09  4.05018E-09  4.11753E-09  4.18615E-09  4.25562E-09  4.32566E-09  4.39606E-09  4.46665E-09  4.53734E-09  4.60801E-09
   4.67860E-09  4.74905E-09  4.81932E-09  4.88936E-09  4.95914E-09  5.02863E-09  5.09781E-09  5.16666E-09  5.23516E-09  5.30330E-09
   5.37106E-09  5.43843E-09  5.50540E-09  5.57196E-09  5.63809E-09  5.70381E-09  5.76909E-09  5.83394E-09  5.89833E-09  5.96227E-09
   6.02575E-09  6.08877E-09  6.15133E-09  6.21341E-09  6.27502E-09  6.33608E-09  6.39648E-09  6.45609E-09  6.51479E-09  6.57248E-09
   6.62902E-09  6.68430E-09  6.73821E-09  6.79061E-09  6.84140E-09  6.89045E-09  6.93765E-09  6.98287E-09  7.02601E-09  7.06693E-09
   7.10553E-09  7.14168E-09  7.17526E-09  7.20617E-09  7.23427E-09  7.25946E-09  7.28161E-09  7.30060E-09  7.31632E-09  7.32866E-09
   7.33748E-09  7.34267E-09  7.34413E-09  7.34172E-09  7.33533E-09  7.32484E-09  7.31014E-09  7.29111E-09  7.26763E-09  7.23958E-09
   7.20685E-09  7.16932E-09  7.12688E-09  7.07941E-09  7.02678E-09  6.96890E-09  6.90564E-09  6.83690E-09  6.76255E-09  6.68250E-09
   6.59663E-09  6.50484E-09  6.40704E-09  6.30312E-09  6.19302E-09  6.07665E-09  5.95403E-09  5.82542E-09  5.69128E-09  5.55212E-09
   5.40868E-09  5.26203E-09  5.11407E-09  4.96863E-09  4.83558E-09  4.74910E-09  4.89719E-09  5.50790E-09  5.40401E-09  5.20072E-09
   4.99213E-09  4.85827E-09  4.62345E-09  4.44038E-09  4.19590E-09  4.04415E-09  3.91934E-09  3.58831E-09  2.52126E-09  2.10147E-09
   1.82362E-09  1.58471E-09  1.36147E-09  1.14634E-09  9.36251E-10  7.29922E-10  5.26691E-10  3.26292E-10  1.28717E-10 -6.60092E-11
  -2.57776E-10 -4.46387E-10 -6.31692E-10 -8.13423E-10 -9.91411E-10 -1.16539E-09 -1.33513E-09 -1.50035E-09 -1.66085E-09 -1.81634E-09
  -1.96656E-09 -2.11127E-09 -2.25020E-09 -2.38308E-09 -2.50966E-09 -2.62968E-09 -2.74284E-09 -2.84893E-09 -2.94774E-09 -3.03944E-09
  -3.12418E-09 -3.20217E-09 -3.27355E-09 -3.33854E-09 -3.39728E-09 -3.44997E-09 -3.49678E-09 -3.53788E-09 -3.57347E-09 -3.60371E-09
  -3.62876E-09 -3.64883E-09 -3.66409E-09 -3.67469E-09 -3.68084E-09 -3.68270E-09 -3.68043E-09 -3.67425E-09 -3.66432E-09 -3.65079E-09
  -3.63385E-09 -3.61370E-09 -3.59048E-09 -3.56439E-09 -3.53560E-09 -3.50430E-09 -3.47065E-09 -3.43483E-09 -3.39701E-09 -3.35738E-09
  -3.31611E-09 -3.27337E-09 -3.22934E-09 -3.18421E-09 -3.13813E-09 -3.09130E-09 -3.04390E-09 -2.99610E-09 -2.94804E-09 -2.89993E-09
  -2.85195E-09 -2.80428E-09 -2.75708E-09 -2.71051E-09 -2.66481E-09 -2.62008E-09 -2.57654E-09 -2.53435E-09 -2.49371E-09 -2.45479E-09
  -2.41764E-09 -2.38226E-09 -2.34864E-09 -2.31674E-09 -2.28654E-09 -2.25802E-09 -2.23114E-09 -2.20589E-09 -2.18223E-09 -2.16014E-09
  -2.13961E-09 -2.12060E-09 -2.10309E-09 -2.08704E-09 -2.07244E-09 -2.05927E-09 -2.04749E-09 -2.03709E-09 -2.02802E-09 -2.02029E-09
  -2.01384E-09 -2.00867E-09 -2.00473E-09 -2.00202E-09 -2.00051E-09 -2.00017E-09 -2.00096E-09 -2.00287E-09 -2.00589E-09 -2.00997E-09
  -2.01510E-09 -2.02124E-09 -2.02837E-09 -2.03648E-09 -2.04552E-09 -2.05549E-09 -2.06634E-09 -2.07806E-09 -2.09062E-09 -2.10400E-09
  -2.11818E-09 -2.13310E-09 -2.14879E-09 -2.16517E-09 -2.18225E-09 -2.20001E-09 -2.21840E-09 -2.23739E-09 -2.25699E-09 -2.27714E-09
  -2.29784E-09 -2.31907E-09 -2.34077E-09 -2.36296E-09 -2.38561E-09 -2.40870E-09 -2.43224E-09 -2.45619E-09 -2.48054E-09 -2.50528E-09
  -2.53040E-09 -2.55587E-09 -2.58169E-09 -2.60783E-09 -2.63428E-09 -2.66103E-09 -2.68806E-09 -2.71535E-09 -2.74289E-09 -2.77067E-09
  -2.79867E-09 -2.82687E-09 -2.85526E-09 -2.88382E-09 -2.91254E-09 -2.94140E-09 -2.97040E-09 -2.99950E-09 -3.02870E-09 -3.05798E-09
  -3.08732E-09 -3.11672E-09 -3.14615E-09 -3.17560E-09 -3.20505E-09 -3.23449E-09 -3.26391E-09 -3.29329E-09 -3.32261E-09 -3.35185E-09
  -3.38101E-09 -3.41006E-09 -3.43900E-09 -3.46780E-09 -3.49645E-09 -3.52494E-09 -3.55325E-09 -3.58136E-09 -3.60927E-09 -3.63694E-09
  -3.66438E-09 -3.69156E-09 -3.71846E-09
 GABA     Conc. = 5.18E-10
  -2.37048E-09 -2.27627E-09 -2.18193E-09 -2.08747E-09 -1.99287E-09 -1.89816E-09 -1.80333E-09 -1.70839E-09 -1.61332E-09 -1.51810E-09
  -1.42279E-09 -1.32730E-09 -1.23162E-09 -1.13584E-09 -1.03973E-09 -9.43423E-10 -8.46963E-10 -7.49949E-10 -6.52471E-10 -5.54526E-10
  -4.55691E-10 -3.55740E-10 -2.54269E-10 -1.50618E-10 -4.36085E-11  6.84487E-11  1.89597E-10  3.28800E-10  5.11317E-10  8.06578E-10
   8.88047E-10  1.01934E-09  1.46531E-09  1.64119E-09  1.66964E-09  1.91560E-09  2.08865E-09  2.18584E-09  2.27434E-09  2.31600E-09
   2.18176E-09  2.30847E-09  2.43063E-09  2.14202E-09  2.10855E-09  2.25650E-09  2.17135E-09  2.15994E-09  2.20063E-09  2.26193E-09
   2.33381E-09  2.41132E-09  2.49277E-09  2.57754E-09  2.66519E-09  2.75567E-09  2.84980E-09  2.94895E-09  3.05575E-09  3.17685E-09
   3.32770E-09  3.55776E-09  3.79796E-09  3.85055E-09  4.10286E-09  4.42046E-09  4.46219E-09  4.52448E-09  4.68089E-09  4.77242E-09
   4.83584E-09  4.88462E-09  4.82177E-09  4.72028E-09  4.85971E-09  4.78931E-09  4.57826E-09  4.66077E-09  4.71856E-09  4.75121E-09
   4.86127E-09  4.87024E-09  4.99009E-09  5.25322E-09  5.30755E-09  5.39165E-09  5.61872E-09  5.72797E-09  5.80962E-09  5.95857E-09
   6.01937E-09  6.01752E-09  6.17290E-09  6.23075E-09  6.09309E-09  6.18435E-09  6.26195E-09  6.16495E-09  6.17882E-09  6.22219E-09
   6.22846E-09  6.25227E-09  6.28764E-09  6.32967E-09  6.37591E-09  6.42466E-09  6.47500E-09  6.52627E-09  6.57796E-09  6.62972E-09
   6.68127E-09  6.73215E-09  6.78217E-09  6.83114E-09  6.87883E-09  6.92517E-09  6.96998E-09  7.01305E-09  7.05423E-09  7.09338E-09
   7.13035E-09  7.16502E-09  7.19726E-09  7.22693E-09  7.25389E-09  7.27803E-09  7.29921E-09  7.31731E-09  7.33219E-09  7.34375E-09
   7.35185E-09  7.35637E-09  7.35719E-09  7.35419E-09  7.34726E-09  7.33626E-09  7.32107E-09  7.30158E-09  7.27767E-09  7.24922E-09
   7.21610E-09  7.17820E-09  7.13541E-09  7.08761E-09  7.03467E-09  6.97647E-09  6.91291E-09  6.84386E-09  6.76922E-09  6.68887E-09
   6.60269E-09  6.51057E-09  6.41242E-09  6.30812E-09  6.19758E-09  6.08070E-09  5.95748E-09  5.82810E-09  5.69297E-09  5.55248E-09
   5.40716E-09  5.25772E-09  5.10531E-09  4.95211E-09  4.80337E-09  4.67639E-09  4.66132E-09  4.96927E-09  4.84395E-09  4.64858E-09
   4.44304E-09  4.28883E-09  4.06864E-09  3.88260E-09  3.65411E-09  3.48007E-09  3.32436E-09  3.08640E-09  2.35878E-09  2.01603E-09
   1.76733E-09  1.54318E-09  1.32874E-09  1.11940E-09  9.13404E-10  7.10098E-10  5.09185E-10  3.10613E-10  1.14510E-10 -7.90070E-11
  -2.69766E-10 -4.57528E-10 -6.42108E-10 -8.23215E-10 -1.00066E-09 -1.17416E-09 -1.34349E-09 -1.50834E-09 -1.66851E-09 -1.82371E-09
  -1.97367E-09 -2.11814E-09 -2.25685E-09 -2.38954E-09 -2.51594E-09 -2.63580E-09 -2.74880E-09 -2.85476E-09 -2.95344E-09 -3.04503E-09
  -3.12967E-09 -3.20755E-09 -3.27884E-09 -3.34374E-09 -3.40240E-09 -3.45502E-09 -3.50176E-09 -3.54280E-09 -3.57833E-09 -3.60851E-09
  -3.63351E-09 -3.65353E-09 -3.66874E-09 -3.67930E-09 -3.68541E-09 -3.68723E-09 -3.68492E-09 -3.67870E-09 -3.66875E-09 -3.65518E-09
