 LCModel (Version 6.3-1R) Copyright: S.W. Provencher.          Ref.: Magn. Reson. Med. 30:672-679 (1993).                
 onepulse 13x16_ftSpec_smooth_lcm
 26 lines in following concentration table = NCONC+1
    Conc.  %SD   /Cr    Metabolite                                         
 1.39E-10 284%   0.000 Ala                                                 
    0.000 999%   0.000 Asp                                                 
    0.000 999%   0.000 Cr                                                  
 6.25E-10  88%   0.000 GABA                                                
    0.000 999%   0.000 Glc                                                 
 9.91E-10  77%   0.000 Gln                                                 
    0.000 999%   0.000 Glu                                                 
 1.87E-09  22%   0.000 Glyc                                                
    0.000 999%   0.000 GPC                                                 
    0.000 999%   0.000 GSH                                                 
    0.000 999%   0.000 Ins                                                 
 3.14E-10 120%   0.000 Lac                                                 
 3.48E-10 109%   0.000 NAAG                                                
 5.97E-10  91%   0.000 NAA                                                 
    0.000 999%   0.000 PCh                                                 
    0.000 999%   0.000 PCr                                                 
 2.62E-09  22%   0.000 PE                                                  
    0.000 999%   0.000 Scyllo                                              
 4.88E-09  24%   0.000 Ser                                                 
    0.000 999%   0.000 Tau                                                 
    0.000 999%   0.000 GPC+PCh                                             
 9.45E-10  36%   0.000 NAA+NAAG                                            
 1.87E-09  22%   0.000 Ins+Glyc                                            
    0.000 999%   0.000 Cr+PCr                                              
 9.91E-10  77%   0.000 Glu+Gln                                             
   6 lines in following misc. output table
  FWHM = 0.123 ppm    S/N =   3                                            
  Data shift = 0.425 ppm                                                   
  Ph:  14 deg     -33.5 deg/ppm                                            
  alphaB,S = 1.0E+00,   1.3E+01                                            
    9 spline knots.   Ns = 5(1)                                            
  (12) 6 infls.   (11) 5 extrs.                                            
  363 points on ppm-axis = NY
      4.250000     4.238821     4.227641     4.216462     4.205282     4.194103     4.182923     4.171744     4.160564     4.149385
      4.138206     4.127026     4.115847     4.104667     4.093488     4.082308     4.071129     4.059949     4.048770     4.037591
      4.026411     4.015232     4.004052     3.992873     3.981693     3.970514     3.959334     3.948155     3.936975     3.925796
      3.914617     3.903437     3.892258     3.881078     3.869899     3.858719     3.847540     3.836360     3.825181     3.814002
      3.802822     3.791643     3.780463     3.769284     3.758104     3.746925     3.735745     3.724566     3.713387     3.702207
      3.691028     3.679848     3.668669     3.657489     3.646310     3.635130     3.623951     3.612772     3.601592     3.590413
      3.579233     3.568054     3.556874     3.545695     3.534515     3.523336     3.512156     3.500977     3.489798     3.478618
      3.467439     3.456259     3.445080     3.433900     3.422721     3.411541     3.400362     3.389183     3.378003     3.366824
      3.355644     3.344465     3.333285     3.322106     3.310926     3.299747     3.288568     3.277388     3.266209     3.255029
      3.243850     3.232670     3.221491     3.210311     3.199132     3.187953     3.176773     3.165594     3.154414     3.143235
      3.132055     3.120876     3.109696     3.098517     3.087337     3.076158     3.064979     3.053799     3.042620     3.031440
      3.020261     3.009081     2.997902     2.986722     2.975543     2.964364     2.953184     2.942005     2.930825     2.919646
      2.908466     2.897287     2.886107     2.874928     2.863749     2.852569     2.841390     2.830210     2.819031     2.807851
      2.796672     2.785492     2.774313     2.763134     2.751954     2.740775     2.729595     2.718416     2.707236     2.696057
      2.684877     2.673698     2.662519     2.651339     2.640160     2.628980     2.617801     2.606621     2.595442     2.584262
      2.573083     2.561903     2.550724     2.539545     2.528365     2.517186     2.506006     2.494827     2.483647     2.472468
      2.461288     2.450109     2.438930     2.427750     2.416571     2.405391     2.394212     2.383032     2.371853     2.360673
      2.349494     2.338315     2.327135     2.315956     2.304776     2.293597     2.282417     2.271238     2.260058     2.248879
      2.237700     2.226520     2.215341     2.204161     2.192982     2.181802     2.170623     2.159443     2.148264     2.137084
      2.125905     2.114726     2.103546     2.092367     2.081187     2.070008     2.058828     2.047649     2.036469     2.025290
      2.014111     2.002931     1.991752     1.980572     1.969393     1.958213     1.947034     1.935854     1.924675     1.913496
      1.902316     1.891137     1.879957     1.868778     1.857598     1.846419     1.835239     1.824060     1.812881     1.801701
      1.790522     1.779342     1.768163     1.756983     1.745804     1.734624     1.723445     1.712265     1.701086     1.689907
      1.678727     1.667548     1.656368     1.645189     1.634009     1.622830     1.611650     1.600471     1.589292     1.578112
      1.566933     1.555753     1.544574     1.533394     1.522215     1.511035     1.499856     1.488677     1.477497     1.466318
      1.455138     1.443959     1.432779     1.421600     1.410420     1.399241     1.388062     1.376882     1.365703     1.354523
      1.343344     1.332164     1.320985     1.309805     1.298626     1.287446     1.276267     1.265088     1.253908     1.242729
      1.231549     1.220370     1.209190     1.198011     1.186831     1.175652     1.164473     1.153293     1.142114     1.130934
      1.119755     1.108575     1.097396     1.086216     1.075037     1.063858     1.052678     1.041499     1.030319     1.019140
      1.007960     0.996781     0.985601     0.974422     0.963243     0.952063     0.940884     0.929704     0.918525     0.907345
      0.896166     0.884986     0.873807     0.862628     0.851448     0.840269     0.829089     0.817910     0.806730     0.795551
      0.784371     0.773192     0.762012     0.750833     0.739654     0.728474     0.717295     0.706115     0.694936     0.683756
      0.672577     0.661397     0.650218     0.639039     0.627859     0.616680     0.605500     0.594321     0.583141     0.571962
      0.560782     0.549603     0.538424     0.527244     0.516065     0.504885     0.493706     0.482526     0.471347     0.460167
      0.448988     0.437809     0.426629     0.415450     0.404270     0.393091     0.381911     0.370732     0.359552     0.348373
      0.337193     0.326014     0.314835     0.303655     0.292476     0.281296     0.270117     0.258937     0.247758     0.236578
      0.225399     0.214220     0.203040
 NY phased data points follow
  -6.52899E-09 -3.66761E-09 -6.47119E-09 -3.88324E-09 -6.30130E-09 -4.66012E-09 -6.52405E-09 -4.55633E-09 -5.99226E-09 -4.08438E-09
  -5.55765E-09 -3.52555E-09 -4.85683E-09 -2.45315E-09 -4.48793E-09 -2.28046E-09 -4.34127E-09 -2.55799E-09 -4.91623E-09 -2.04411E-09
  -3.46127E-09 -1.68693E-09 -3.32310E-09 -2.02989E-09 -4.49278E-09 -2.71571E-09 -3.99390E-09 -1.45505E-09 -2.52301E-09  8.04170E-10
  -6.66188E-10  2.24971E-09  5.30457E-10  2.08926E-09  8.05964E-10  2.30342E-09  1.39052E-09  2.34441E-09  1.26669E-09  3.18988E-09
   1.67357E-09  3.20837E-09  1.68141E-09  2.59701E-09  1.44688E-09  2.71146E-09  1.14124E-09  2.80286E-09  1.47645E-09  2.47770E-09
   1.05632E-09  2.26342E-09 -2.72042E-10  9.02743E-10 -2.30493E-09 -1.16627E-09 -3.54324E-09 -2.11534E-09 -1.36790E-09  1.02962E-09
   1.47896E-09  3.02529E-09  2.50070E-09  4.49792E-09  3.16896E-09  3.93963E-09  3.04649E-09  4.06333E-09  2.78762E-09  2.79587E-09
   1.04597E-10 -2.97103E-10 -2.87341E-09 -1.44230E-09 -2.15760E-09  1.05145E-09  2.09257E-09  4.55877E-09  4.05502E-09  5.61797E-09
   5.25527E-09  7.12566E-09  6.64125E-09  7.42590E-09  6.95008E-09  8.15626E-09  7.81708E-09  9.19560E-09  8.43725E-09  8.66321E-09
   8.61283E-09  9.26826E-09  8.53649E-09  9.21917E-09  7.79628E-09  8.75724E-09  7.86783E-09  8.26052E-09  8.11920E-09  9.00113E-09
   7.91716E-09  9.29778E-09  8.18079E-09  8.20938E-09  7.36886E-09  7.81508E-09  6.16591E-09  7.19214E-09  6.02281E-09  6.91123E-09
   6.22198E-09  7.22659E-09  5.72806E-09  7.05185E-09  6.87918E-09  7.83328E-09  7.20095E-09  7.97442E-09  7.08081E-09  7.16730E-09
   5.78711E-09  6.22354E-09  5.42974E-09  5.81031E-09  5.32775E-09  5.47776E-09  4.86905E-09  5.27689E-09  4.80484E-09  5.67007E-09
   4.59366E-09  5.11248E-09  3.80621E-09  4.76802E-09  4.36844E-09  6.15011E-09  5.22288E-09  6.40706E-09  5.50654E-09  6.33283E-09
   6.70825E-09  7.90742E-09  7.30722E-09  8.23348E-09  8.14133E-09  8.60526E-09  8.15201E-09  8.97287E-09  8.95907E-09  9.39434E-09
   8.25693E-09  9.45689E-09  8.45402E-09  9.59505E-09  9.22931E-09  9.88769E-09  8.90342E-09  9.54819E-09  9.37297E-09  8.67702E-09
   7.48071E-09  7.81239E-09  6.89021E-09  7.65286E-09  8.90025E-09  1.30726E-08  1.60601E-08  1.92870E-08  1.95935E-08  2.06223E-08
   2.08860E-08  2.18522E-08  2.11342E-08  2.15041E-08  2.11745E-08  2.13969E-08  2.09332E-08  2.08903E-08  1.92756E-08  1.92943E-08
   1.69395E-08  1.66059E-08  1.41911E-08  1.22296E-08  9.37268E-09  7.49359E-09  4.68380E-09  1.72514E-09 -1.17110E-09 -2.76029E-09
  -6.18720E-09 -7.94089E-09 -1.02841E-08 -1.18033E-08 -1.30605E-08 -1.23155E-08 -1.32170E-08 -1.23979E-08 -1.20854E-08 -1.03126E-08
  -1.00010E-08 -7.77416E-09 -7.23302E-09 -6.11990E-09 -5.32291E-09 -3.92541E-09 -3.88081E-09 -3.33644E-09 -3.56825E-09 -3.60069E-09
  -4.25527E-09 -3.25392E-09 -3.63076E-09 -3.61086E-09 -3.84389E-09 -2.52389E-09 -3.19429E-09 -2.52809E-09 -2.83809E-09 -2.48286E-09
  -2.61455E-09 -2.72136E-09 -3.32303E-09 -2.90548E-09 -2.78290E-09 -3.16963E-09 -2.91685E-09 -2.54758E-09 -2.44350E-09 -2.00450E-09
  -2.71686E-09 -1.98824E-09 -2.67358E-09 -2.61151E-09 -3.15633E-09 -2.65478E-09 -3.03468E-09 -3.29088E-09 -3.27931E-09 -2.20920E-09
  -2.84362E-09 -2.17502E-09 -2.17871E-09 -2.25826E-09 -2.22940E-09 -1.70328E-09 -2.33765E-09 -1.47786E-09 -1.77573E-09 -1.80693E-09
  -2.50434E-09 -1.83696E-09 -2.48868E-09 -2.52815E-09 -3.31064E-09 -3.03248E-09 -3.53237E-09 -3.22607E-09 -3.63286E-09 -2.91991E-09
  -3.34793E-09 -3.04617E-09 -3.15974E-09 -2.10336E-09 -2.38751E-09 -2.10323E-09 -1.82176E-09 -1.92989E-09 -1.54548E-09 -9.68677E-10
  -9.26790E-10 -6.94125E-10 -1.30066E-09 -1.19353E-09 -1.68065E-09 -1.20393E-09 -1.63442E-09 -1.40173E-09 -1.83060E-09 -2.00353E-09
  -1.93176E-09 -1.97210E-09 -2.24517E-09 -2.23920E-09 -2.59069E-09 -2.68122E-09 -2.66775E-09 -2.18732E-09 -2.50291E-09 -2.19135E-09
  -3.28554E-09 -2.76913E-09 -3.19630E-09 -2.71777E-09 -3.43433E-09 -3.08962E-09 -3.48989E-09 -2.89872E-09 -3.35927E-09 -2.81704E-09
  -3.72602E-09 -3.32036E-09 -3.50451E-09 -3.23079E-09 -3.32194E-09 -2.88224E-09 -3.76574E-09 -3.30841E-09 -3.91299E-09 -2.71958E-09
  -3.59054E-09 -3.50793E-09 -3.15054E-09 -3.01024E-09 -3.81800E-09 -3.06981E-09 -2.81967E-09 -3.01382E-09 -3.41397E-09 -2.49795E-09
  -2.87637E-09 -2.56541E-09 -3.29400E-09 -2.68972E-09 -3.01091E-09 -2.60988E-09 -2.66808E-09 -2.08337E-09 -3.23404E-09 -2.71257E-09
  -2.76438E-09 -2.32315E-09 -2.48180E-09 -1.93149E-09 -2.47943E-09 -2.36115E-09 -2.35895E-09 -2.23491E-09 -2.06201E-09 -1.61561E-09
  -1.63433E-09 -1.68972E-09 -1.84774E-09 -1.18812E-09 -1.73689E-09 -1.30778E-09 -1.98149E-09 -9.52929E-10 -1.24448E-09 -9.89592E-10
  -1.39570E-09 -1.06734E-09 -1.20684E-09 -2.54515E-11 -1.36418E-09 -1.34457E-10 -9.17394E-10  7.87695E-11 -6.73983E-10 -4.73503E-10
  -4.44285E-10  1.82687E-11 -3.96251E-10
 NY points of the fit to the data follow
  -1.25888E-08 -8.31148E-09 -5.03329E-09 -4.91966E-09 -4.92783E-09 -3.98374E-09 -3.16085E-09 -3.46409E-09 -6.06141E-09 -5.91607E-09
  -4.64699E-09 -4.33933E-09 -4.17752E-09 -3.92822E-09 -3.87313E-09 -3.94731E-09 -4.11878E-09 -3.96967E-09 -2.93487E-09 -7.84226E-10
  -1.87045E-09 -2.83598E-09 -3.62991E-09 -3.90708E-09 -3.91663E-09 -3.43793E-09 -2.74800E-09 -2.18454E-09 -1.76707E-09 -1.16682E-09
  -7.65408E-11  1.08217E-09  1.41156E-09  2.42137E-09  2.85112E-09  3.02659E-09  2.88624E-09  2.58984E-09  2.35125E-09  2.20192E-09
   2.04881E-09  1.82475E-09  1.85916E-09  1.96251E-09  1.65659E-09  1.57303E-09  1.51940E-09  1.29960E-09  1.02528E-09  9.41842E-10
   8.11191E-10  8.06360E-10  7.57748E-10  6.78219E-10  4.70793E-10  5.75836E-10  4.92713E-10  5.30860E-10  1.02943E-09  1.49009E-09
   1.47052E-09  1.63217E-09  2.01003E-09  2.22380E-09  2.27043E-09  2.75880E-09  3.03162E-09  3.15725E-09  3.25179E-09  3.03828E-09
   2.77266E-09  2.95095E-09  3.17172E-09  2.74080E-09  2.43561E-09  2.37778E-09  2.63736E-09  3.66058E-09  5.43762E-09  6.43146E-09
   7.20684E-09  7.94118E-09  8.21727E-09  8.56739E-09  9.34327E-09  1.01044E-08  1.11243E-08  1.14881E-08  1.09319E-08  9.87114E-09
   9.30351E-09  8.82897E-09  8.60709E-09  8.52137E-09  8.20855E-09  7.99719E-09  7.94796E-09  7.72528E-09  7.51440E-09  7.38425E-09
   7.38120E-09  7.28595E-09  7.10023E-09  7.11665E-09  7.12312E-09  7.04999E-09  7.02136E-09  7.39515E-09  7.47988E-09  7.45097E-09
   7.83667E-09  7.94604E-09  8.01172E-09  8.13496E-09  8.09128E-09  8.10335E-09  8.16691E-09  8.14795E-09  7.80942E-09  7.81178E-09
   7.81519E-09  7.43967E-09  7.21103E-09  7.05062E-09  6.92297E-09  6.81365E-09  6.71553E-09  6.62463E-09  6.53849E-09  6.45550E-09
   6.37452E-09  6.29473E-09  6.21552E-09  6.13643E-09  6.05710E-09  5.97722E-09  5.89656E-09  5.81493E-09  5.73216E-09  5.64811E-09
   5.56268E-09  5.47576E-09  5.38728E-09  5.29719E-09  5.20536E-09  5.11177E-09  5.01638E-09  4.91915E-09  4.82004E-09  4.71903E-09
   4.61612E-09  4.51126E-09  4.40450E-09  4.29590E-09  4.18552E-09  4.07355E-09  3.96032E-09  3.84634E-09  3.73257E-09  3.62078E-09
   3.51419E-09  3.41935E-09  3.35033E-09  3.34144E-09  3.49246E-09  4.19563E-09  7.81626E-09  1.81682E-08  2.20631E-08  2.16988E-08
   2.15310E-08  2.17388E-08  2.12692E-08  2.10118E-08  2.12799E-08  2.24763E-08  2.32752E-08  1.98689E-08  9.66168E-09  5.62116E-09
   4.20620E-09  3.46127E-09  2.97269E-09  2.60887E-09  2.31541E-09  2.06582E-09  1.84560E-09  1.64615E-09  1.46204E-09  1.28969E-09
   1.12661E-09  9.71068E-10  8.21778E-10  6.77821E-10  5.38474E-10  4.03192E-10  2.71581E-10  1.43315E-10  1.81305E-11 -1.04152E-10
  -2.23687E-10 -3.40608E-10 -4.54992E-10 -5.66902E-10 -6.76405E-10 -7.83534E-10 -8.88317E-10 -9.90747E-10 -1.09087E-09 -1.18867E-09
  -1.28415E-09 -1.37729E-09 -1.46809E-09 -1.55654E-09 -1.64263E-09 -1.72634E-09 -1.80764E-09 -1.88654E-09 -1.96301E-09 -2.03702E-09
  -2.10855E-09 -2.17760E-09 -2.24415E-09 -2.30819E-09 -2.36971E-09 -2.42866E-09 -2.48506E-09 -2.53890E-09 -2.59015E-09 -2.63881E-09
  -2.68488E-09 -2.72834E-09 -2.76920E-09 -2.80746E-09 -2.84311E-09 -2.87616E-09 -2.90661E-09 -2.93447E-09 -2.95975E-09 -2.98244E-09
  -3.00258E-09 -3.02017E-09 -3.03524E-09 -3.04782E-09 -3.05797E-09 -3.06577E-09 -3.07127E-09 -3.07452E-09 -3.07561E-09 -3.07457E-09
  -3.07149E-09 -3.06642E-09 -3.05942E-09 -3.05056E-09 -3.03990E-09 -3.02750E-09 -3.01342E-09 -2.99773E-09 -2.98048E-09 -2.96174E-09
  -2.94157E-09 -2.92003E-09 -2.89718E-09 -2.87308E-09 -2.84779E-09 -2.82137E-09 -2.79388E-09 -2.76537E-09 -2.73591E-09 -2.70554E-09
  -2.67433E-09 -2.64233E-09 -2.60960E-09 -2.57618E-09 -2.54213E-09 -2.50751E-09 -2.47236E-09 -2.43673E-09 -2.40068E-09 -2.36424E-09
  -2.32747E-09 -2.29042E-09 -2.25313E-09 -2.21563E-09 -2.17798E-09 -2.14022E-09 -2.10238E-09 -2.06450E-09 -2.02662E-09 -1.98879E-09
  -1.95102E-09 -1.91336E-09 -1.87584E-09 -1.83849E-09 -1.80134E-09 -1.76441E-09 -1.72774E-09 -1.69135E-09 -1.65526E-09 -1.61949E-09
  -1.58407E-09 -1.54902E-09 -1.51435E-09 -1.48007E-09 -1.44621E-09 -1.41278E-09 -1.37979E-09 -1.34724E-09 -1.31516E-09 -1.28356E-09
  -1.25244E-09 -1.22182E-09 -1.19172E-09 -1.16213E-09 -1.13307E-09 -1.10455E-09 -1.07658E-09 -1.04917E-09 -1.02233E-09 -9.96060E-10
  -9.70377E-10 -9.45285E-10 -9.20792E-10 -8.96904E-10 -8.73629E-10 -8.50972E-10 -8.28940E-10 -8.07537E-10 -7.86767E-10 -7.66639E-10
  -7.47152E-10 -7.28311E-10 -7.10124E-10 -6.92590E-10 -6.75709E-10 -6.59490E-10 -6.43933E-10 -6.29035E-10 -6.14802E-10 -6.01235E-10
  -5.88329E-10 -5.76093E-10 -5.64517E-10 -5.53606E-10 -5.43356E-10 -5.33768E-10 -5.24841E-10 -5.16570E-10 -5.08953E-10 -5.01990E-10
  -4.95674E-10 -4.90003E-10 -4.84973E-10 -4.80578E-10 -4.76821E-10 -4.73688E-10 -4.71174E-10 -4.69279E-10 -4.67993E-10 -4.67306E-10
  -4.67225E-10 -4.67728E-10 -4.68820E-10
 NY background values follow
    -5.718E-09   -5.622E-09   -5.525E-09   -5.428E-09   -5.330E-09   -5.231E-09   -5.131E-09   -5.031E-09   -4.931E-09   -4.829E-09
    -4.728E-09   -4.625E-09   -4.522E-09   -4.419E-09   -4.315E-09   -4.211E-09   -4.107E-09   -4.002E-09   -3.897E-09   -3.791E-09
    -3.685E-09   -3.579E-09   -3.472E-09   -3.365E-09   -3.258E-09   -3.151E-09   -3.043E-09   -2.936E-09   -2.828E-09   -2.720E-09
    -2.612E-09   -2.504E-09   -2.396E-09   -2.287E-09   -2.179E-09   -2.071E-09   -1.962E-09   -1.854E-09   -1.746E-09   -1.637E-09
    -1.529E-09   -1.421E-09   -1.313E-09   -1.206E-09   -1.098E-09   -9.905E-10   -8.832E-10   -7.762E-10   -6.694E-10   -5.628E-10
    -4.565E-10   -3.505E-10   -2.448E-10   -1.394E-10   -3.430E-11    7.042E-11    1.748E-10    2.788E-10    3.823E-10    4.855E-10
     5.882E-10    6.905E-10    7.924E-10    8.937E-10    9.946E-10    1.095E-09    1.195E-09    1.294E-09    1.393E-09    1.491E-09
     1.588E-09    1.685E-09    1.781E-09    1.876E-09    1.971E-09    2.065E-09    2.158E-09    2.250E-09    2.341E-09    2.432E-09
     2.521E-09    2.610E-09    2.697E-09    2.784E-09    2.869E-09    2.953E-09    3.036E-09    3.118E-09    3.199E-09    3.279E-09
     3.357E-09    3.434E-09    3.509E-09    3.583E-09    3.655E-09    3.726E-09    3.796E-09    3.863E-09    3.930E-09    3.994E-09
     4.057E-09    4.118E-09    4.177E-09    4.234E-09    4.289E-09    4.342E-09    4.394E-09    4.443E-09    4.490E-09    4.535E-09
     4.578E-09    4.618E-09    4.656E-09    4.692E-09    4.726E-09    4.757E-09    4.785E-09    4.812E-09    4.835E-09    4.856E-09
     4.874E-09    4.890E-09    4.903E-09    4.913E-09    4.920E-09    4.925E-09    4.927E-09    4.926E-09    4.923E-09    4.917E-09
     4.908E-09    4.896E-09    4.882E-09    4.865E-09    4.846E-09    4.823E-09    4.799E-09    4.771E-09    4.741E-09    4.709E-09
     4.674E-09    4.637E-09    4.597E-09    4.555E-09    4.510E-09    4.463E-09    4.414E-09    4.362E-09    4.309E-09    4.253E-09
     4.195E-09    4.135E-09    4.073E-09    4.009E-09    3.943E-09    3.875E-09    3.805E-09    3.734E-09    3.661E-09    3.586E-09
     3.509E-09    3.431E-09    3.352E-09    3.271E-09    3.189E-09    3.105E-09    3.020E-09    2.934E-09    2.847E-09    2.759E-09
     2.670E-09    2.580E-09    2.489E-09    2.397E-09    2.305E-09    2.212E-09    2.118E-09    2.024E-09    1.930E-09    1.835E-09
     1.739E-09    1.644E-09    1.548E-09    1.452E-09    1.356E-09    1.260E-09    1.165E-09    1.069E-09    9.740E-10    8.791E-10
     7.845E-10    6.905E-10    5.969E-10    5.040E-10    4.118E-10    3.203E-10    2.296E-10    1.398E-10    5.096E-11   -3.689E-11
    -1.237E-10   -2.093E-10   -2.937E-10   -3.769E-10   -4.588E-10   -5.393E-10   -6.184E-10   -6.959E-10   -7.720E-10   -8.464E-10
    -9.192E-10   -9.903E-10   -1.060E-09   -1.127E-09   -1.193E-09   -1.257E-09   -1.319E-09   -1.379E-09   -1.437E-09   -1.492E-09
    -1.546E-09   -1.598E-09   -1.648E-09   -1.695E-09   -1.740E-09   -1.783E-09   -1.824E-09   -1.862E-09   -1.899E-09   -1.932E-09
    -1.964E-09   -1.993E-09   -2.020E-09   -2.045E-09   -2.067E-09   -2.087E-09   -2.104E-09   -2.119E-09   -2.132E-09   -2.143E-09
    -2.151E-09   -2.156E-09   -2.160E-09   -2.161E-09   -2.160E-09   -2.157E-09   -2.151E-09   -2.144E-09   -2.135E-09   -2.124E-09
    -2.110E-09   -2.095E-09   -2.079E-09   -2.061E-09   -2.041E-09   -2.019E-09   -1.996E-09   -1.972E-09   -1.946E-09   -1.919E-09
    -1.890E-09   -1.860E-09   -1.830E-09   -1.798E-09   -1.765E-09   -1.731E-09   -1.696E-09   -1.661E-09   -1.624E-09   -1.587E-09
    -1.549E-09   -1.511E-09   -1.472E-09   -1.432E-09   -1.392E-09   -1.351E-09   -1.311E-09   -1.269E-09   -1.228E-09   -1.186E-09
    -1.144E-09   -1.102E-09   -1.060E-09   -1.018E-09   -9.753E-10   -9.331E-10   -8.909E-10   -8.488E-10   -8.069E-10   -7.651E-10
    -7.235E-10   -6.822E-10   -6.412E-10   -6.004E-10   -5.600E-10   -5.199E-10   -4.803E-10   -4.410E-10   -4.021E-10   -3.637E-10
    -3.258E-10   -2.884E-10   -2.515E-10   -2.151E-10   -1.792E-10   -1.439E-10   -1.091E-10   -7.496E-11   -4.137E-11   -8.365E-12
     2.403E-11    5.581E-11    8.696E-11    1.175E-10    1.473E-10    1.766E-10    2.051E-10    2.330E-10    2.602E-10    2.867E-10
     3.125E-10    3.376E-10    3.620E-10    3.857E-10    4.086E-10    4.308E-10    4.523E-10    4.731E-10    4.931E-10    5.124E-10
     5.309E-10    5.487E-10    5.657E-10    5.820E-10    5.975E-10    6.122E-10    6.262E-10    6.394E-10    6.518E-10    6.635E-10
     6.745E-10    6.846E-10    6.940E-10    7.026E-10    7.105E-10    7.176E-10    7.240E-10    7.296E-10    7.345E-10    7.386E-10
     7.420E-10    7.446E-10    7.465E-10    7.477E-10    7.482E-10    7.479E-10    7.469E-10    7.453E-10    7.429E-10    7.398E-10
     7.361E-10    7.317E-10    7.266E-10
 Ala      Conc. = 1.39E-10
  -5.84211E-09 -5.72408E-09 -5.62545E-09 -5.52170E-09 -5.40787E-09 -5.30195E-09 -5.18758E-09 -5.05688E-09 -4.96058E-09 -4.85954E-09
  -4.72356E-09 -4.61987E-09 -4.52403E-09 -4.41109E-09 -4.30537E-09 -4.20277E-09 -4.10042E-09 -3.99774E-09 -3.89459E-09 -3.79096E-09
  -3.68687E-09 -3.58233E-09 -3.47740E-09 -3.37211E-09 -3.26649E-09 -3.16058E-09 -3.05439E-09 -2.94797E-09 -2.84134E-09 -2.73453E-09
  -2.62756E-09 -2.52046E-09 -2.41326E-09 -2.30598E-09 -2.19864E-09 -2.09126E-09 -1.98387E-09 -1.87649E-09 -1.76914E-09 -1.66185E-09
  -1.55463E-09 -1.44750E-09 -1.34049E-09 -1.23362E-09 -1.12691E-09 -1.02037E-09 -9.14027E-10 -8.07901E-10 -7.02013E-10 -5.96380E-10
  -4.91020E-10 -3.85952E-10 -2.81197E-10 -1.76772E-10 -7.26955E-11  3.10138E-11  1.34338E-10  2.37258E-10  3.39757E-10  4.41818E-10
   5.43421E-10  6.44549E-10  7.45182E-10  8.45301E-10  9.44881E-10  1.04390E-09  1.14233E-09  1.24015E-09  1.33734E-09  1.43385E-09
   1.52966E-09  1.62474E-09  1.71906E-09  1.81257E-09  1.90525E-09  1.99705E-09  2.08793E-09  2.17786E-09  2.26677E-09  2.35463E-09
   2.44137E-09  2.52695E-09  2.61130E-09  2.69436E-09  2.77606E-09  2.85630E-09  2.93502E-09  3.01209E-09  3.08740E-09  3.16083E-09
   3.23219E-09  3.30130E-09  3.36789E-09  3.43165E-09  3.49217E-09  3.54887E-09  3.60102E-09  3.64782E-09  3.68973E-09  3.74369E-09
   3.96628E-09  4.08135E-09  4.08456E-09  4.29192E-09  4.48568E-09  4.59355E-09  4.68659E-09  4.79220E-09  4.90292E-09  5.02108E-09
   5.09905E-09  5.01682E-09  5.06792E-09  5.17652E-09  5.08688E-09  5.03437E-09  5.01279E-09  5.00477E-09  5.00322E-09  5.00475E-09
   5.00742E-09  5.01016E-09  5.01222E-09  5.01313E-09  5.01253E-09  5.01020E-09  5.00594E-09  4.99963E-09  4.99116E-09  4.98046E-09
   4.96746E-09  4.95212E-09  4.93441E-09  4.91431E-09  4.89179E-09  4.86686E-09  4.83951E-09  4.80974E-09  4.77757E-09  4.74299E-09
   4.70605E-09  4.66673E-09  4.62508E-09  4.58113E-09  4.53487E-09  4.48635E-09  4.43560E-09  4.38267E-09  4.32757E-09  4.27037E-09
   4.21110E-09  4.14976E-09  4.08644E-09  4.02119E-09  3.95402E-09  3.88500E-09  3.81418E-09  3.74162E-09  3.66736E-09  3.59151E-09
   3.51409E-09  3.43527E-09  3.35522E-09  3.27436E-09  3.19375E-09  3.11741E-09  3.06967E-09  3.12271E-09  3.07259E-09  2.97587E-09
   2.88632E-09  2.80097E-09  2.70426E-09  2.61084E-09  2.52240E-09  2.44585E-09  2.36517E-09  2.23637E-09  2.00954E-09  1.87756E-09
   1.76852E-09  1.66573E-09  1.56543E-09  1.46637E-09  1.36806E-09  1.27028E-09  1.17297E-09  1.07607E-09  9.79613E-10  8.83628E-10
   7.88140E-10  6.93221E-10  5.98904E-10  5.05269E-10  4.12360E-10  3.20228E-10  2.28957E-10  1.38601E-10  4.92112E-11 -3.91344E-11
  -1.26381E-10 -2.12483E-10 -2.97366E-10 -3.80966E-10 -4.63239E-10 -5.44123E-10 -6.23565E-10 -7.01486E-10 -7.77867E-10 -8.52644E-10
  -9.25764E-10 -9.97168E-10 -1.06682E-09 -1.13466E-09 -1.20067E-09 -1.26478E-09 -1.32696E-09 -1.38716E-09 -1.44537E-09 -1.50152E-09
  -1.55558E-09 -1.60752E-09 -1.65732E-09 -1.70495E-09 -1.75039E-09 -1.79358E-09 -1.83454E-09 -1.87323E-09 -1.90961E-09 -1.94369E-09
  -1.97545E-09 -2.00487E-09 -2.03195E-09 -2.05668E-09 -2.07905E-09 -2.09906E-09 -2.11671E-09 -2.13199E-09 -2.14492E-09 -2.15549E-09
  -2.16373E-09 -2.16963E-09 -2.17321E-09 -2.17452E-09 -2.17360E-09 -2.17053E-09 -2.16535E-09 -2.15813E-09 -2.14892E-09 -2.13779E-09
  -2.12480E-09 -2.11000E-09 -2.09345E-09 -2.07522E-09 -2.05537E-09 -2.03395E-09 -2.01103E-09 -1.98666E-09 -1.96091E-09 -1.93383E-09
  -1.90550E-09 -1.87595E-09 -1.84526E-09 -1.81348E-09 -1.78067E-09 -1.74689E-09 -1.71219E-09 -1.67663E-09 -1.64027E-09 -1.60316E-09
  -1.56536E-09 -1.52692E-09 -1.48790E-09 -1.44834E-09 -1.40829E-09 -1.36782E-09 -1.32697E-09 -1.28578E-09 -1.24431E-09 -1.20260E-09
  -1.16069E-09 -1.11865E-09 -1.07650E-09 -1.03428E-09 -9.92052E-10 -9.49843E-10 -9.07694E-10 -8.65643E-10 -8.23728E-10 -7.81984E-10
  -7.40444E-10 -6.99141E-10 -6.58108E-10 -6.17373E-10 -5.76967E-10 -5.36916E-10 -4.97246E-10 -4.57982E-10 -4.19146E-10 -3.80760E-10
  -3.42845E-10 -3.05419E-10 -2.68499E-10 -2.32101E-10 -1.96237E-10 -1.60919E-10 -1.26161E-10 -9.19737E-11 -5.83691E-11 -2.53584E-11
   7.04749E-12  3.88380E-11  7.00027E-11  1.00532E-10  1.30416E-10  1.59646E-10  1.88213E-10  2.16108E-10  2.43324E-10  2.69852E-10
   2.95685E-10  3.20817E-10  3.45240E-10  3.68949E-10  3.91937E-10  4.14199E-10  4.35729E-10  4.56524E-10  4.76580E-10  4.95889E-10
   5.14452E-10  5.32265E-10  5.49322E-10  5.65623E-10  5.81169E-10  5.95951E-10  6.09971E-10  6.23232E-10  6.35729E-10  6.47461E-10
   6.58435E-10  6.68641E-10  6.78090E-10  6.86777E-10  6.94709E-10  7.01883E-10  7.08302E-10  7.13972E-10  7.18894E-10  7.23070E-10
   7.26508E-10  7.29210E-10  7.31181E-10  7.32426E-10  7.32946E-10  7.32753E-10  7.31853E-10  7.30247E-10  7.27947E-10  7.24961E-10
   7.21286E-10  7.16941E-10  7.11924E-10
 GABA     Conc. = 6.25E-10
  -6.01131E-09 -5.92278E-09 -5.83389E-09 -5.74468E-09 -5.65520E-09 -5.56551E-09 -5.47569E-09 -5.38578E-09 -5.29590E-09 -5.20612E-09
  -5.11649E-09 -5.02722E-09 -4.93832E-09 -4.84995E-09 -4.76237E-09 -4.67558E-09 -4.58989E-09 -4.50581E-09 -4.42336E-09 -4.34302E-09
  -4.26553E-09 -4.19144E-09 -4.12171E-09 -4.05770E-09 -4.00119E-09 -3.95499E-09 -3.92380E-09 -3.91486E-09 -3.93787E-09 -3.92622E-09
  -3.69728E-09 -3.70777E-09 -3.75000E-09 -3.34789E-09 -3.07455E-09 -3.00198E-09 -2.71762E-09 -2.38166E-09 -2.07339E-09 -1.74707E-09
  -1.48383E-09 -1.37646E-09 -1.00849E-09 -7.16144E-10 -7.85543E-10 -6.81993E-10 -4.99596E-10 -4.85078E-10 -4.67441E-10 -4.38197E-10
  -3.99750E-10 -3.54718E-10 -3.06412E-10 -2.56440E-10 -2.05981E-10 -1.56837E-10 -1.10790E-10 -6.96647E-11 -3.61603E-11 -1.34275E-11
  -2.45742E-12  2.42208E-11  2.88369E-10  4.23517E-10  3.87923E-10  8.18124E-10  1.18722E-09  1.27946E-09  1.50568E-09  1.79821E-09
   2.05383E-09  2.31143E-09  2.52721E-09  2.52864E-09  2.71530E-09  2.97065E-09  2.77668E-09  2.72725E-09  2.79887E-09  2.74033E-09
   2.80920E-09  2.81676E-09  2.72003E-09  2.91231E-09  3.09933E-09  3.07892E-09  3.24933E-09  3.48360E-09  3.60135E-09  3.79017E-09
   3.98734E-09  4.06334E-09  4.24649E-09  4.48858E-09  4.45909E-09  4.51204E-09  4.70069E-09  4.68850E-09  4.67281E-09  4.72563E-09
   4.73672E-09  4.74236E-09  4.75403E-09  4.77079E-09  4.79125E-09  4.81404E-09  4.83822E-09  4.86312E-09  4.88827E-09  4.91323E-09
   4.93790E-09  4.96171E-09  4.98446E-09  5.00593E-09  5.02593E-09  5.04433E-09  5.06111E-09  5.07607E-09  5.08907E-09  5.10006E-09
   5.10884E-09  5.11541E-09  5.11968E-09  5.12162E-09  5.12118E-09  5.11834E-09  5.11307E-09  5.10535E-09  5.09518E-09  5.08254E-09
   5.06741E-09  5.04980E-09  5.02970E-09  5.00712E-09  4.98207E-09  4.95456E-09  4.92459E-09  4.89218E-09  4.85734E-09  4.82008E-09
   4.78045E-09  4.73845E-09  4.69411E-09  4.64747E-09  4.59853E-09  4.54733E-09  4.49390E-09  4.43830E-09  4.38052E-09  4.32065E-09
   4.25870E-09  4.19469E-09  4.12870E-09  4.06076E-09  3.99091E-09  3.91919E-09  3.84569E-09  3.77046E-09  3.69358E-09  3.61520E-09
   3.53545E-09  3.45472E-09  3.37364E-09  3.29381E-09  3.21962E-09  3.16753E-09  3.23345E-09  3.77355E-09  3.86996E-09  3.74625E-09
   3.65303E-09  3.58487E-09  3.46817E-09  3.36755E-09  3.29042E-09  3.26984E-09  3.23858E-09  3.00875E-09  2.31281E-09  2.03905E-09
   1.87965E-09  1.75105E-09  1.63467E-09  1.52437E-09  1.41758E-09  1.31307E-09  1.21019E-09  1.10856E-09  1.00799E-09  9.08359E-10
   8.09593E-10  7.11690E-10  6.14630E-10  5.18453E-10  4.23169E-10  3.28807E-10  2.35430E-10  1.43076E-10  5.17840E-11 -3.83793E-11
  -1.27368E-10 -2.15143E-10 -3.01639E-10 -3.86794E-10 -4.70571E-10 -5.52910E-10 -6.33765E-10 -7.13057E-10 -7.90769E-10 -8.66843E-10
  -9.41225E-10 -1.01386E-09 -1.08471E-09 -1.15372E-09 -1.22088E-09 -1.28611E-09 -1.34937E-09 -1.41065E-09 -1.46990E-09 -1.52707E-09
  -1.58213E-09 -1.63506E-09 -1.68582E-09 -1.73440E-09 -1.78076E-09 -1.82486E-09 -1.86670E-09 -1.90626E-09 -1.94350E-09 -1.97842E-09
