 LCModel (Version 6.3-1R) Copyright: S.W. Provencher.          Ref.: Magn. Reson. Med. 30:672-679 (1993).                
 onepulse 13x12_ftSpec_smooth_lcm
 26 lines in following concentration table = NCONC+1
    Conc.  %SD   /Cr    Metabolite                                         
    0.000 999%   0.000 Ala                                                 
 1.11E-09  72%   0.000 Asp                                                 
    0.000 999%   0.000 Cr                                                  
 4.86E-10 116%   0.000 GABA                                                
    0.000 999%   0.000 Glc                                                 
 2.03E-09  30%   0.000 Gln                                                 
    0.000 999%   0.000 Glu                                                 
 1.61E-09  98%   0.000 Glyc                                                
    0.000 999%   0.000 GPC                                                 
 1.59E-09  35%   0.000 GSH                                                 
 9.18E-10 149%   0.000 Ins                                                 
    0.000 999%   0.000 Lac                                                 
 4.46E-10  49%   0.000 NAAG                                                
    0.000 999%   0.000 NAA                                                 
    0.000 999%   0.000 PCh                                                 
    0.000 999%   0.000 PCr                                                 
 2.41E-09  33%   0.000 PE                                                  
 3.64E-10  76%   0.000 Scyllo                                              
    0.000 999%   0.000 Ser                                                 
 7.32E-10 124%   0.000 Tau                                                 
    0.000 999%   0.000 GPC+PCh                                             
 4.46E-10  49%   0.000 NAA+NAAG                                            
 2.53E-09  21%   0.000 Ins+Glyc                                            
    0.000 999%   0.000 Cr+PCr                                              
 2.03E-09  30%   0.000 Glu+Gln                                             
   6 lines in following misc. output table
  FWHM = 0.123 ppm    S/N =   3                                            
  Data shift = 0.425 ppm                                                   
  Ph: -16 deg     -49.2 deg/ppm                                            
  alphaB,S = 3.6E-01,   9.8E+00                                            
   10 spline knots.   Ns = 5(1)                                            
  (11) 8 infls.   (11) 7 extrs.                                            
  363 points on ppm-axis = NY
      4.250000     4.238821     4.227641     4.216462     4.205282     4.194103     4.182923     4.171744     4.160564     4.149385
      4.138206     4.127026     4.115847     4.104667     4.093488     4.082308     4.071129     4.059949     4.048770     4.037591
      4.026411     4.015232     4.004052     3.992873     3.981693     3.970514     3.959334     3.948155     3.936975     3.925796
      3.914617     3.903437     3.892258     3.881078     3.869899     3.858719     3.847540     3.836360     3.825181     3.814002
      3.802822     3.791643     3.780463     3.769284     3.758104     3.746925     3.735745     3.724566     3.713387     3.702207
      3.691028     3.679848     3.668669     3.657489     3.646310     3.635130     3.623951     3.612772     3.601592     3.590413
      3.579233     3.568054     3.556874     3.545695     3.534515     3.523336     3.512156     3.500977     3.489798     3.478618
      3.467439     3.456259     3.445080     3.433900     3.422721     3.411541     3.400362     3.389183     3.378003     3.366824
      3.355644     3.344465     3.333285     3.322106     3.310926     3.299747     3.288568     3.277388     3.266209     3.255029
      3.243850     3.232670     3.221491     3.210311     3.199132     3.187953     3.176773     3.165594     3.154414     3.143235
      3.132055     3.120876     3.109696     3.098517     3.087337     3.076158     3.064979     3.053799     3.042620     3.031440
      3.020261     3.009081     2.997902     2.986722     2.975543     2.964364     2.953184     2.942005     2.930825     2.919646
      2.908466     2.897287     2.886107     2.874928     2.863749     2.852569     2.841390     2.830210     2.819031     2.807851
      2.796672     2.785492     2.774313     2.763134     2.751954     2.740775     2.729595     2.718416     2.707236     2.696057
      2.684877     2.673698     2.662519     2.651339     2.640160     2.628980     2.617801     2.606621     2.595442     2.584262
      2.573083     2.561903     2.550724     2.539545     2.528365     2.517186     2.506006     2.494827     2.483647     2.472468
      2.461288     2.450109     2.438930     2.427750     2.416571     2.405391     2.394212     2.383032     2.371853     2.360673
      2.349494     2.338315     2.327135     2.315956     2.304776     2.293597     2.282417     2.271238     2.260058     2.248879
      2.237700     2.226520     2.215341     2.204161     2.192982     2.181802     2.170623     2.159443     2.148264     2.137084
      2.125905     2.114726     2.103546     2.092367     2.081187     2.070008     2.058828     2.047649     2.036469     2.025290
      2.014111     2.002931     1.991752     1.980572     1.969393     1.958213     1.947034     1.935854     1.924675     1.913496
      1.902316     1.891137     1.879957     1.868778     1.857598     1.846419     1.835239     1.824060     1.812881     1.801701
      1.790522     1.779342     1.768163     1.756983     1.745804     1.734624     1.723445     1.712265     1.701086     1.689907
      1.678727     1.667548     1.656368     1.645189     1.634009     1.622830     1.611650     1.600471     1.589292     1.578112
      1.566933     1.555753     1.544574     1.533394     1.522215     1.511035     1.499856     1.488677     1.477497     1.466318
      1.455138     1.443959     1.432779     1.421600     1.410420     1.399241     1.388062     1.376882     1.365703     1.354523
      1.343344     1.332164     1.320985     1.309805     1.298626     1.287446     1.276267     1.265088     1.253908     1.242729
      1.231549     1.220370     1.209190     1.198011     1.186831     1.175652     1.164473     1.153293     1.142114     1.130934
      1.119755     1.108575     1.097396     1.086216     1.075037     1.063858     1.052678     1.041499     1.030319     1.019140
      1.007960     0.996781     0.985601     0.974422     0.963243     0.952063     0.940884     0.929704     0.918525     0.907345
      0.896166     0.884986     0.873807     0.862628     0.851448     0.840269     0.829089     0.817910     0.806730     0.795551
      0.784371     0.773192     0.762012     0.750833     0.739654     0.728474     0.717295     0.706115     0.694936     0.683756
      0.672577     0.661397     0.650218     0.639039     0.627859     0.616680     0.605500     0.594321     0.583141     0.571962
      0.560782     0.549603     0.538424     0.527244     0.516065     0.504885     0.493706     0.482526     0.471347     0.460167
      0.448988     0.437809     0.426629     0.415450     0.404270     0.393091     0.381911     0.370732     0.359552     0.348373
      0.337193     0.326014     0.314835     0.303655     0.292476     0.281296     0.270117     0.258937     0.247758     0.236578
      0.225399     0.214220     0.203040
 NY phased data points follow
   1.14155E-08  8.56372E-09  1.13440E-08  9.17824E-09  1.23158E-08  9.96706E-09  1.23150E-08  1.05337E-08  1.30996E-08  1.08765E-08
   1.34002E-08  9.95347E-09  1.23829E-08  1.01388E-08  1.18629E-08  9.28529E-09  1.22372E-08  9.63510E-09  1.30036E-08  1.05839E-08
   1.25195E-08  9.69634E-09  1.13400E-08  9.48079E-09  1.29694E-08  1.17548E-08  1.42553E-08  1.26708E-08  1.42185E-08  1.09547E-08
   1.19408E-08  9.26223E-09  1.09436E-08  8.72961E-09  1.05761E-08  9.09726E-09  1.00766E-08  8.50187E-09  1.03647E-08  8.04075E-09
   9.65910E-09  7.62925E-09  8.63968E-09  7.90709E-09  9.19797E-09  7.66017E-09  9.47413E-09  7.44048E-09  8.22241E-09  6.59369E-09
   7.69214E-09  6.52850E-09  8.31739E-09  7.00537E-09  8.59275E-09  8.34445E-09  1.15321E-08  1.28034E-08  1.44592E-08  1.28968E-08
   1.28028E-08  1.13096E-08  1.16842E-08  9.74158E-09  9.99735E-09  8.88915E-09  8.98128E-09  7.60051E-09  7.75297E-09  6.54871E-09
   6.60133E-09  6.15661E-09  8.67472E-09  1.22424E-08  1.55448E-08  1.62700E-08  1.57586E-08  1.45221E-08  1.43137E-08  1.38895E-08
   1.35708E-08  1.26775E-08  1.31471E-08  1.22326E-08  1.26600E-08  1.17253E-08  1.22449E-08  1.12346E-08  1.13444E-08  1.05821E-08
   1.03400E-08  9.88001E-09  9.69329E-09  8.77508E-09  8.63356E-09  8.67777E-09  9.04173E-09  8.26810E-09  8.80693E-09  8.28323E-09
   8.80215E-09  8.58651E-09  7.86154E-09  7.20182E-09  6.98694E-09  5.71183E-09  6.03111E-09  6.52599E-09  7.28035E-09  6.81091E-09
   7.28159E-09  7.49207E-09  7.61637E-09  7.21987E-09  7.94238E-09  8.10603E-09  7.45371E-09  7.01283E-09  7.03631E-09  6.29130E-09
   5.26485E-09  5.85277E-09  6.24483E-09  5.49700E-09  5.64733E-09  5.95759E-09  6.57047E-09  6.43347E-09  6.53720E-09  7.06003E-09
   6.14082E-09  6.61534E-09  5.81237E-09  6.29708E-09  7.65384E-09  8.16330E-09  8.19371E-09  8.72482E-09  7.92141E-09  9.19130E-09
   9.41208E-09  9.76688E-09  1.00191E-08  1.06515E-08  9.82784E-09  1.02318E-08  9.78550E-09  1.01495E-08  1.00430E-08  9.77439E-09
   9.53882E-09  1.01530E-08  1.01662E-08  1.02061E-08  1.01591E-08  1.00668E-08  9.88643E-09  1.02565E-08  9.97708E-09  9.49254E-09
   8.78710E-09  9.27191E-09  7.23947E-09  5.95879E-09  7.74638E-09  1.40195E-08  1.78466E-08  2.07802E-08  2.02801E-08  2.18138E-08
   2.16701E-08  2.18771E-08  2.14270E-08  2.15421E-08  2.08269E-08  2.08952E-08  2.00328E-08  2.04673E-08  1.82946E-08  1.82364E-08
   1.60690E-08  1.45645E-08  1.22571E-08  1.02693E-08  7.29051E-09  5.27767E-09  2.33956E-09  3.37541E-10 -2.38787E-09 -4.21269E-09
  -6.63487E-09 -7.60115E-09 -9.24400E-09 -9.71415E-09 -1.02931E-08 -9.33901E-09 -9.43453E-09 -8.07029E-09 -7.77096E-09 -5.89278E-09
  -5.62675E-09 -3.99626E-09 -3.11233E-09 -2.49534E-09 -2.31889E-09 -9.23517E-10 -2.65722E-09 -1.17794E-09 -2.27941E-09 -1.76545E-09
  -2.50608E-09 -1.90982E-09 -1.93325E-09 -1.51052E-09 -2.02744E-09 -8.20067E-10 -1.43710E-09 -3.60769E-10 -1.43708E-09 -7.74286E-10
  -1.58546E-09 -9.48854E-10 -1.79492E-09 -1.36195E-09 -1.82946E-09 -7.86046E-10 -1.01784E-09 -4.00338E-10 -1.21974E-09 -5.21641E-10
  -1.13311E-09 -3.77501E-10 -1.16555E-09 -6.17344E-10 -1.41625E-09 -1.66263E-09 -1.91039E-09 -9.19853E-10 -1.95331E-09 -1.22624E-09
  -1.75623E-09 -4.68508E-10 -9.81638E-10 -4.71702E-10 -1.14995E-09  4.34137E-11 -1.34340E-09 -1.23261E-11 -1.07386E-09 -4.28270E-10
  -9.59336E-10 -4.30804E-10 -9.51925E-10 -6.19819E-10 -9.96789E-10 -7.86344E-10 -9.63075E-10 -1.14429E-09 -2.14869E-09 -9.55394E-10
  -2.14261E-09 -1.61369E-09 -2.27991E-09 -1.69900E-09 -2.30468E-09 -1.65324E-09 -2.41284E-09 -1.75961E-09 -2.08343E-09 -1.02627E-09
  -1.35440E-09 -2.62520E-10 -1.18662E-09 -4.58917E-11 -7.56682E-10 -1.26389E-10 -5.97737E-10 -7.57119E-11 -3.09599E-10  6.00828E-11
   8.79097E-11  1.53039E-10  3.30314E-12  2.03162E-10 -9.89612E-11  4.20761E-10 -1.08226E-10  5.74976E-10 -2.84405E-10  4.55311E-10
  -3.68155E-10  2.91242E-10 -4.45852E-10  2.44065E-10  1.63459E-10 -2.78063E-10 -3.68967E-10  2.69625E-10 -4.59768E-10  1.89835E-10
  -4.72740E-10  2.49787E-10 -2.29299E-10  1.06245E-10 -1.21058E-10 -4.53728E-10 -2.63234E-10 -5.26868E-10 -5.43406E-10 -5.49541E-10
  -6.78175E-10 -4.98436E-10 -5.02307E-10 -5.80458E-10 -4.53324E-10 -2.95603E-10 -5.90656E-10 -4.27617E-10 -9.36163E-10 -1.00371E-09
  -7.70830E-10 -4.21030E-10 -4.76058E-10 -1.06338E-09 -3.98308E-10 -6.77294E-10 -9.47172E-10 -5.87796E-10 -6.68054E-10 -6.33792E-10
  -8.21942E-10 -5.96780E-10 -1.00910E-09 -1.07689E-09 -1.26038E-09 -6.60503E-10 -9.64594E-10 -1.18820E-09 -1.08335E-09 -1.20152E-09
  -8.38677E-10 -6.73835E-10 -1.58601E-09 -1.19110E-09 -8.09369E-10 -8.13635E-10 -1.26017E-09 -1.26547E-09 -8.72803E-10 -9.61184E-10
  -9.91893E-10 -1.28777E-09 -1.32890E-09 -1.07786E-09 -1.16892E-09 -1.28715E-09 -1.02018E-09 -8.19780E-10 -1.53053E-09 -1.02950E-09
  -1.36483E-09 -1.02212E-09 -1.34029E-09
 NY points of the fit to the data follow
   1.14732E-08  1.11210E-08  1.08248E-08  1.05293E-08  1.04219E-08  1.04077E-08  1.03311E-08  1.11177E-08  1.39963E-08  1.30448E-08
   1.11061E-08  1.07681E-08  1.05227E-08  1.04502E-08  1.07785E-08  1.04311E-08  1.06289E-08  1.19769E-08  1.37693E-08  1.14368E-08
   9.31346E-09  9.75052E-09  1.09067E-08  1.13586E-08  1.23954E-08  1.25440E-08  1.35023E-08  1.35530E-08  1.32853E-08  1.14528E-08
   1.12214E-08  1.09402E-08  1.07123E-08  9.91180E-09  1.01385E-08  9.16844E-09  9.55790E-09  8.88592E-09  8.73956E-09  8.53098E-09
   8.37625E-09  8.37111E-09  8.77582E-09  8.67051E-09  8.55572E-09  7.87805E-09  7.85864E-09  6.84677E-09  6.81422E-09  6.93104E-09
   7.52714E-09  8.01466E-09  8.36364E-09  9.16079E-09  1.01000E-08  1.02197E-08  1.03290E-08  1.13289E-08  1.20216E-08  1.17323E-08
   1.17481E-08  1.15483E-08  1.12733E-08  1.13929E-08  1.08491E-08  1.00950E-08  9.80145E-09  9.77249E-09  9.11680E-09  9.00741E-09
   9.42424E-09  9.97963E-09  1.06667E-08  1.08701E-08  1.18659E-08  1.31717E-08  1.40054E-08  1.43829E-08  1.46925E-08  1.48221E-08
   1.44421E-08  1.41715E-08  1.37733E-08  1.28317E-08  1.26674E-08  1.21756E-08  1.09690E-08  9.63263E-09  8.95888E-09  8.63369E-09
   8.35304E-09  8.14401E-09  8.13316E-09  8.07791E-09  7.82913E-09  7.82060E-09  7.82004E-09  7.66168E-09  7.63513E-09  7.60413E-09
   7.55714E-09  7.55581E-09  7.56102E-09  7.56640E-09  7.58163E-09  7.60422E-09  7.63099E-09  7.66128E-09  7.69308E-09  7.72618E-09
   7.76013E-09  7.79434E-09  7.82851E-09  7.86231E-09  7.89545E-09  7.92782E-09  7.95917E-09  7.98926E-09  8.01793E-09  8.04502E-09
   8.07035E-09  8.09382E-09  8.11529E-09  8.13463E-09  8.15170E-09  8.16641E-09  8.17864E-09  8.18827E-09  8.19521E-09  8.19935E-09
   8.20058E-09  8.19882E-09  8.19398E-09  8.18596E-09  8.17468E-09  8.16004E-09  8.14198E-09  8.12041E-09  8.09526E-09  8.06646E-09
   8.03393E-09  7.99763E-09  7.95751E-09  7.91352E-09  7.86562E-09  7.81378E-09  7.75802E-09  7.69833E-09  7.63475E-09  7.56737E-09
   7.49628E-09  7.42166E-09  7.34375E-09  7.26290E-09  7.17962E-09  7.09460E-09  7.00896E-09  6.92441E-09  6.84360E-09  6.77049E-09
   6.71136E-09  6.67695E-09  6.68735E-09  6.78481E-09  7.07491E-09  7.90222E-09  1.09893E-08  2.01407E-08  2.21731E-08  2.24786E-08
   2.22744E-08  2.25509E-08  2.19106E-08  2.18573E-08  2.11593E-08  2.12812E-08  2.19567E-08  2.13075E-08  1.02907E-08  5.91577E-09
   4.54467E-09  3.85628E-09  3.40528E-09  3.06144E-09  2.77443E-09  2.52121E-09  2.28978E-09  2.07346E-09  1.86831E-09  1.67183E-09
   1.48246E-09  1.29919E-09  1.12132E-09  9.48509E-10  7.80425E-10  6.16961E-10  4.58048E-10  3.03715E-10  1.53973E-10  8.93630E-12
  -1.31296E-10 -2.66597E-10 -3.96814E-10 -5.21800E-10 -6.41377E-10 -7.55378E-10 -8.63587E-10 -9.65875E-10 -1.06207E-09 -1.15234E-09
  -1.23680E-09 -1.31562E-09 -1.38892E-09 -1.45688E-09 -1.51961E-09 -1.57727E-09 -1.62999E-09 -1.67791E-09 -1.72117E-09 -1.75992E-09
  -1.79426E-09 -1.82436E-09 -1.85034E-09 -1.87234E-09 -1.89049E-09 -1.90493E-09 -1.91577E-09 -1.92318E-09 -1.92729E-09 -1.92820E-09
  -1.92605E-09 -1.92100E-09 -1.91316E-09 -1.90267E-09 -1.88965E-09 -1.87426E-09 -1.85662E-09 -1.83684E-09 -1.81507E-09 -1.79145E-09
  -1.76609E-09 -1.73912E-09 -1.71070E-09 -1.68094E-09 -1.64997E-09 -1.61793E-09 -1.58496E-09 -1.55119E-09 -1.51672E-09 -1.48168E-09
  -1.44625E-09 -1.41053E-09 -1.37466E-09 -1.33874E-09 -1.30296E-09 -1.26739E-09 -1.23220E-09 -1.19750E-09 -1.16344E-09 -1.13015E-09
  -1.09768E-09 -1.06603E-09 -1.03522E-09 -1.00523E-09 -9.76056E-10 -9.47706E-10 -9.20170E-10 -8.93448E-10 -8.67533E-10 -8.42426E-10
  -8.18125E-10 -7.94620E-10 -7.71917E-10 -7.50003E-10 -7.28877E-10 -7.08546E-10 -6.88994E-10 -6.70227E-10 -6.52233E-10 -6.35021E-10
  -6.18572E-10 -6.02903E-10 -5.87986E-10 -5.73833E-10 -5.60447E-10 -5.47816E-10 -5.35930E-10 -5.24796E-10 -5.14413E-10 -5.04777E-10
  -4.95876E-10 -4.87708E-10 -4.80272E-10 -4.73578E-10 -4.67600E-10 -4.62357E-10 -4.57826E-10 -4.54014E-10 -4.50913E-10 -4.48531E-10
  -4.46861E-10 -4.45877E-10 -4.45611E-10 -4.46034E-10 -4.47150E-10 -4.48969E-10 -4.51475E-10 -4.54653E-10 -4.58531E-10 -4.63073E-10
  -4.68301E-10 -4.74211E-10 -4.80766E-10 -4.87962E-10 -4.95782E-10 -5.04208E-10 -5.13223E-10 -5.22809E-10 -5.32949E-10 -5.43623E-10
  -5.54819E-10 -5.66511E-10 -5.78688E-10 -5.91331E-10 -6.04422E-10 -6.17944E-10 -6.31877E-10 -6.46206E-10 -6.60912E-10 -6.75977E-10
  -6.91388E-10 -7.07122E-10 -7.23160E-10 -7.39494E-10 -7.56096E-10 -7.72952E-10 -7.90047E-10 -8.07361E-10 -8.24875E-10 -8.42573E-10
  -8.60439E-10 -8.78455E-10 -8.96601E-10 -9.14861E-10 -9.33215E-10 -9.51649E-10 -9.70147E-10 -9.88685E-10 -1.00725E-09 -1.02582E-09
  -1.04439E-09 -1.06292E-09 -1.08142E-09 -1.09985E-09 -1.11819E-09 -1.13645E-09 -1.15459E-09 -1.17259E-09 -1.19045E-09 -1.20814E-09
  -1.22564E-09 -1.24294E-09 -1.26002E-09
 NY background values follow
    -3.521E-09   -3.411E-09   -3.300E-09   -3.190E-09   -3.079E-09   -2.969E-09   -2.858E-09   -2.747E-09   -2.637E-09   -2.526E-09
    -2.416E-09   -2.306E-09   -2.195E-09   -2.085E-09   -1.975E-09   -1.865E-09   -1.755E-09   -1.645E-09   -1.536E-09   -1.426E-09
    -1.317E-09   -1.208E-09   -1.099E-09   -9.899E-10   -8.814E-10   -7.731E-10   -6.650E-10   -5.572E-10   -4.496E-10   -3.423E-10
    -2.353E-10   -1.286E-10   -2.212E-11    8.399E-11    1.898E-10    2.952E-10    4.003E-10    5.051E-10    6.095E-10    7.134E-10
     8.170E-10    9.202E-10    1.023E-09    1.125E-09    1.227E-09    1.329E-09    1.430E-09    1.530E-09    1.630E-09    1.730E-09
     1.829E-09    1.927E-09    2.025E-09    2.123E-09    2.220E-09    2.316E-09    2.412E-09    2.507E-09    2.601E-09    2.695E-09
     2.789E-09    2.882E-09    2.974E-09    3.065E-09    3.156E-09    3.247E-09    3.336E-09    3.425E-09    3.513E-09    3.601E-09
     3.688E-09    3.774E-09    3.860E-09    3.945E-09    4.029E-09    4.112E-09    4.195E-09    4.277E-09    4.358E-09    4.438E-09
     4.518E-09    4.597E-09    4.675E-09    4.752E-09    4.829E-09    4.904E-09    4.979E-09    5.053E-09    5.126E-09    5.199E-09
     5.270E-09    5.341E-09    5.411E-09    5.480E-09    5.548E-09    5.615E-09    5.681E-09    5.746E-09    5.811E-09    5.874E-09
     5.937E-09    5.999E-09    6.059E-09    6.119E-09    6.178E-09    6.235E-09    6.292E-09    6.347E-09    6.401E-09    6.454E-09
     6.506E-09    6.555E-09    6.603E-09    6.650E-09    6.694E-09    6.737E-09    6.778E-09    6.816E-09    6.853E-09    6.887E-09
     6.919E-09    6.949E-09    6.976E-09    7.000E-09    7.022E-09    7.041E-09    7.057E-09    7.070E-09    7.080E-09    7.087E-09
     7.091E-09    7.091E-09    7.088E-09    7.082E-09    7.072E-09    7.059E-09    7.041E-09    7.020E-09    6.995E-09    6.966E-09
     6.933E-09    6.896E-09    6.855E-09    6.809E-09    6.758E-09    6.704E-09    6.644E-09    6.580E-09    6.511E-09    6.438E-09
     6.359E-09    6.275E-09    6.187E-09    6.093E-09    5.993E-09    5.888E-09    5.778E-09    5.663E-09    5.542E-09    5.417E-09
     5.287E-09    5.152E-09    5.014E-09    4.871E-09    4.724E-09    4.575E-09    4.421E-09    4.265E-09    4.106E-09    3.944E-09
     3.779E-09    3.613E-09    3.444E-09    3.274E-09    3.102E-09    2.929E-09    2.755E-09    2.579E-09    2.403E-09    2.227E-09
     2.051E-09    1.874E-09    1.698E-09    1.522E-09    1.346E-09    1.172E-09    9.987E-10    8.266E-10    6.562E-10    4.874E-10
     3.207E-10    1.561E-10   -6.034E-12   -1.655E-10   -3.222E-10   -4.758E-10   -6.261E-10   -7.728E-10   -9.159E-10   -1.055E-09
    -1.190E-09   -1.320E-09   -1.446E-09   -1.567E-09   -1.683E-09   -1.794E-09   -1.899E-09   -1.999E-09   -2.092E-09   -2.180E-09
    -2.262E-09   -2.339E-09   -2.410E-09   -2.477E-09   -2.538E-09   -2.594E-09   -2.645E-09   -2.691E-09   -2.733E-09   -2.771E-09
    -2.804E-09   -2.833E-09   -2.858E-09   -2.878E-09   -2.896E-09   -2.909E-09   -2.919E-09   -2.925E-09   -2.929E-09   -2.929E-09
    -2.926E-09   -2.920E-09   -2.911E-09   -2.900E-09   -2.886E-09   -2.870E-09   -2.852E-09   -2.831E-09   -2.809E-09   -2.785E-09
    -2.759E-09   -2.731E-09   -2.702E-09   -2.672E-09   -2.640E-09   -2.608E-09   -2.574E-09   -2.540E-09   -2.505E-09   -2.469E-09
    -2.434E-09   -2.397E-09   -2.361E-09   -2.325E-09   -2.288E-09   -2.252E-09   -2.217E-09   -2.182E-09   -2.147E-09   -2.113E-09
    -2.080E-09   -2.048E-09   -2.017E-09   -1.987E-09   -1.957E-09   -1.928E-09   -1.900E-09   -1.873E-09   -1.847E-09   -1.821E-09
    -1.797E-09   -1.773E-09   -1.750E-09   -1.727E-09   -1.706E-09   -1.685E-09   -1.665E-09   -1.646E-09   -1.628E-09   -1.610E-09
    -1.593E-09   -1.577E-09   -1.562E-09   -1.547E-09   -1.534E-09   -1.521E-09   -1.508E-09   -1.497E-09   -1.486E-09   -1.476E-09
    -1.467E-09   -1.458E-09   -1.450E-09   -1.443E-09   -1.437E-09   -1.431E-09   -1.427E-09   -1.422E-09   -1.419E-09   -1.416E-09
    -1.414E-09   -1.413E-09   -1.412E-09   -1.412E-09   -1.413E-09   -1.414E-09   -1.416E-09   -1.419E-09   -1.423E-09   -1.427E-09
    -1.432E-09   -1.437E-09   -1.443E-09   -1.450E-09   -1.458E-09   -1.466E-09   -1.474E-09   -1.484E-09   -1.493E-09   -1.504E-09
    -1.514E-09   -1.526E-09   -1.538E-09   -1.550E-09   -1.563E-09   -1.576E-09   -1.589E-09   -1.603E-09   -1.617E-09   -1.632E-09
    -1.647E-09   -1.662E-09   -1.678E-09   -1.694E-09   -1.710E-09   -1.727E-09   -1.743E-09   -1.760E-09   -1.777E-09   -1.795E-09
    -1.812E-09   -1.830E-09   -1.847E-09   -1.865E-09   -1.883E-09   -1.901E-09   -1.919E-09   -1.937E-09   -1.955E-09   -1.974E-09
    -1.992E-09   -2.010E-09   -2.028E-09   -2.046E-09   -2.064E-09   -2.082E-09   -2.099E-09   -2.117E-09   -2.134E-09   -2.151E-09
    -2.168E-09   -2.185E-09   -2.202E-09
 Asp      Conc. = 1.11E-09
  -2.30637E-09 -2.46240E-09 -2.39363E-09 -2.47990E-09 -2.44560E-09 -2.40928E-09 -2.47959E-09 -2.51034E-09 -2.46124E-09 -2.38354E-09
  -2.29322E-09 -2.19630E-09 -2.09556E-09 -1.98872E-09 -1.88147E-09 -1.77368E-09 -1.66523E-09 -1.55616E-09 -1.44662E-09 -1.33663E-09
  -1.22627E-09 -1.11556E-09 -1.00448E-09 -8.93009E-10 -7.81119E-10 -6.68698E-10 -5.55640E-10 -4.41754E-10 -3.26800E-10 -2.10382E-10
  -9.19169E-11  2.94365E-11  1.55261E-10  2.88368E-10  4.34905E-10  6.11268E-10  8.43802E-10  9.84172E-10  1.17611E-09  1.25400E-09
   1.36243E-09  1.49808E-09  1.79122E-09  2.07898E-09  2.56403E-09  2.90291E-09  2.93375E-09  2.88383E-09  3.25314E-09  3.28766E-09
   3.42880E-09  3.65705E-09  3.80361E-09  3.73720E-09  3.74822E-09  3.50889E-09  3.24116E-09  3.37727E-09  3.58238E-09  3.35672E-09
   3.34057E-09  3.41154E-09  3.34890E-09  3.39858E-09  3.54142E-09  3.63720E-09  3.62861E-09  3.66345E-09  3.71761E-09  3.78133E-09
   3.85043E-09  3.92279E-09  3.99720E-09  4.07290E-09  4.14939E-09  4.22633E-09  4.30346E-09  4.38059E-09  4.45760E-09  4.53433E-09
   4.61073E-09  4.68671E-09  4.76221E-09  4.83718E-09  4.91157E-09  4.98536E-09  5.05849E-09  5.13096E-09  5.20272E-09  5.27376E-09
   5.34406E-09  5.41359E-09  5.48234E-09  5.55029E-09  5.61742E-09  5.68373E-09  5.74920E-09  5.81380E-09  5.87754E-09  5.94039E-09
   6.00234E-09  6.06340E-09  6.12354E-09  6.18274E-09  6.24102E-09  6.29830E-09  6.35449E-09  6.40950E-09  6.46326E-09  6.51567E-09
   6.56664E-09  6.61608E-09  6.66391E-09  6.71003E-09  6.75437E-09  6.79682E-09  6.83730E-09  6.87573E-09  6.91201E-09  6.94606E-09
   6.97779E-09  7.00712E-09  7.03395E-09  7.05819E-09  7.07977E-09  7.09859E-09  7.11456E-09  7.12760E-09  7.13762E-09  7.14453E-09
   7.14825E-09  7.14869E-09  7.14576E-09  7.13938E-09  7.12945E-09  7.11589E-09  7.09863E-09  7.07756E-09  7.05260E-09  7.02368E-09
   6.99070E-09  6.95357E-09  6.91222E-09  6.86657E-09  6.81652E-09  6.76200E-09  6.70293E-09  6.63922E-09  6.57080E-09  6.49761E-09
   6.41956E-09  6.33660E-09  6.24868E-09  6.15573E-09  6.05773E-09  5.95467E-09  5.84661E-09  5.73384E-09  5.61683E-09  5.49616E-09
   5.37270E-09  5.24776E-09  5.12375E-09  5.00565E-09  4.90633E-09  4.87077E-09  5.14702E-09  5.84562E-09  5.77162E-09  5.64509E-09
   5.48269E-09  5.35358E-09  5.13996E-09  4.98233E-09  4.76383E-09  4.64019E-09  4.55804E-09  4.16844E-09  2.93088E-09  2.50360E-09
   2.24063E-09  2.02273E-09  1.82271E-09  1.63167E-09  1.44598E-09  1.26405E-09  1.08507E-09  9.08630E-10  7.34649E-10  5.63079E-10
   3.93963E-10  2.27440E-10  6.36058E-11 -9.73212E-11 -2.55227E-10 -4.09892E-10 -5.61138E-10 -7.08741E-10 -8.52536E-10 -9.92286E-10
  -1.12779E-09 -1.25884E-09 -1.38521E-09 -1.50671E-09 -1.62312E-09 -1.73421E-09 -1.83975E-09 -1.93958E-09 -2.03351E-09 -2.12166E-09
  -2.20416E-09 -2.28115E-09 -2.35274E-09 -2.41909E-09 -2.48032E-09 -2.53656E-09 -2.58794E-09 -2.63459E-09 -2.67665E-09 -2.71425E-09
  -2.74751E-09 -2.77657E-09 -2.80156E-09 -2.82262E-09 -2.83986E-09 -2.85343E-09 -2.86343E-09 -2.87004E-09 -2.87338E-09 -2.87354E-09
  -2.87067E-09 -2.86492E-09 -2.85640E-09 -2.84526E-09 -2.83161E-09 -2.81560E-09 -2.79736E-09 -2.77699E-09 -2.75466E-09 -2.73047E-09
  -2.70457E-09 -2.67708E-09 -2.64813E-09 -2.61787E-09 -2.58640E-09 -2.55387E-09 -2.52042E-09 -2.48618E-09 -2.45124E-09 -2.41576E-09
  -2.37987E-09 -2.34372E-09 -2.30741E-09 -2.27107E-09 -2.23487E-09 -2.19888E-09 -2.16328E-09 -2.12818E-09 -2.09371E-09 -2.06003E-09
  -2.02716E-09 -1.99512E-09 -1.96393E-09 -1.93355E-09 -1.90400E-09 -1.87528E-09 -1.84737E-09 -1.82028E-09 -1.79400E-09 -1.76852E-09
  -1.74386E-09 -1.72000E-09 -1.69694E-09 -1.67467E-09 -1.65319E-09 -1.63250E-09 -1.61260E-09 -1.59348E-09 -1.57514E-09 -1.55758E-09
  -1.54079E-09 -1.52477E-09 -1.50951E-09 -1.49501E-09 -1.48129E-09 -1.46831E-09 -1.45609E-09 -1.44461E-09 -1.43389E-09 -1.42391E-09
  -1.41467E-09 -1.40616E-09 -1.39839E-09 -1.39135E-09 -1.38504E-09 -1.37945E-09 -1.37458E-09 -1.37043E-09 -1.36699E-09 -1.36427E-09
  -1.36226E-09 -1.36093E-09 -1.36032E-09 -1.36040E-09 -1.36118E-09 -1.36265E-09 -1.36482E-09 -1.36765E-09 -1.37118E-09 -1.37538E-09
  -1.38026E-09 -1.38582E-09 -1.39203E-09 -1.39887E-09 -1.40634E-09 -1.41442E-09 -1.42308E-09 -1.43231E-09 -1.44209E-09 -1.45241E-09
  -1.46325E-09 -1.47458E-09 -1.48640E-09 -1.49868E-09 -1.51141E-09 -1.52456E-09 -1.53813E-09 -1.55209E-09 -1.56643E-09 -1.58113E-09
  -1.59616E-09 -1.61152E-09 -1.62719E-09 -1.64314E-09 -1.65936E-09 -1.67584E-09 -1.69255E-09 -1.70948E-09 -1.72661E-09 -1.74392E-09
  -1.76139E-09 -1.77901E-09 -1.79677E-09 -1.81463E-09 -1.83258E-09 -1.85062E-09 -1.86871E-09 -1.88684E-09 -1.90500E-09 -1.92316E-09
  -1.94131E-09 -1.95943E-09 -1.97751E-09 -1.99552E-09 -2.01344E-09 -2.03127E-09 -2.04898E-09 -2.06655E-09 -2.08398E-09 -2.10123E-09
  -2.11829E-09 -2.13515E-09 -2.15179E-09
 GABA     Conc. = 4.86E-10
  -3.46706E-09 -3.35586E-09 -3.24457E-09 -3.13319E-09 -3.02172E-09 -2.91019E-09 -2.79859E-09 -2.68691E-09 -2.57516E-09 -2.46330E-09
  -2.35140E-09 -2.23937E-09 -2.12720E-09 -2.01497E-09 -1.90247E-09 -1.78983E-09 -1.67706E-09 -1.56380E-09 -1.45014E-09 -1.33604E-09
  -1.22112E-09 -1.10515E-09 -9.87730E-10 -8.68240E-10 -7.45552E-10 -6.18089E-10 -4.82104E-10 -3.29412E-10 -1.37576E-10  1.51532E-10
   2.49032E-10  4.08842E-10  8.30542E-10  9.95273E-10  1.06440E-09  1.31964E-09  1.48137E-09  1.59155E-09  1.69993E-09  1.76005E-09
   1.63477E-09  1.77396E-09  1.91883E-09  1.64549E-09  1.63195E-09  1.80061E-09  1.73128E-09  1.73936E-09  1.79770E-09  1.87533E-09
   1.96257E-09  2.05480E-09  2.15050E-09  2.24905E-09  2.35009E-09  2.45361E-09  2.56039E-09  2.67171E-09  2.79000E-09  2.92139E-09
   3.07973E-09  3.30815E-09  3.53892E-09  3.61372E-09  3.87302E-09  4.16144E-09  4.21552E-09  4.30939E-09  4.46317E-09  4.55146E-09
   4.62689E-09  4.68952E-09  4.63869E-09  4.54574E-09  4.69739E-09  4.63865E-09  4.44348E-09  4.53935E-09  4.60846E-09  4.64837E-09
   4.75710E-09  4.78240E-09  4.91397E-09  5.15599E-09  5.21381E-09  5.31842E-09  5.53318E-09  5.63305E-09  5.72529E-09  5.87652E-09
   5.93561E-09  5.93384E-09  6.09122E-09  6.15352E-09  6.01765E-09  6.11127E-09  6.19135E-09  6.09712E-09  6.11411E-09  6.15876E-09
   6.16618E-09  6.19061E-09  6.22571E-09  6.26665E-09  6.31107E-09  6.35733E-09  6.40460E-09  6.45226E-09  6.49986E-09  6.54711E-09
   6.59378E-09  6.63943E-09  6.68394E-09  6.72713E-09  6.76882E-09  6.80899E-09  6.84747E-09  6.88409E-09  6.91875E-09  6.95133E-09
   6.98170E-09  7.00980E-09  7.03552E-09  7.05875E-09  7.07938E-09  7.09733E-09  7.11251E-09  7.12480E-09  7.13413E-09  7.14041E-09
   7.14351E-09  7.14338E-09  7.13992E-09  7.13303E-09  7.12263E-09  7.10862E-09  7.09092E-09  7.06943E-09  7.04407E-09  7.01476E-09
   6.98139E-09  6.94388E-09  6.90217E-09  6.85614E-09  6.80571E-09  6.75079E-09  6.69132E-09  6.62718E-09  6.55832E-09  6.48464E-09
   6.40606E-09  6.32251E-09  6.23392E-09  6.14019E-09  6.04129E-09  5.93715E-09  5.82777E-09  5.71333E-09  5.59419E-09  5.47070E-09
   5.34334E-09  5.21278E-09  5.08008E-09  4.94731E-09  4.81934E-09  4.71201E-09  4.70606E-09  4.97729E-09  4.86692E-09  4.72325E-09
   4.55478E-09  4.41068E-09  4.21687E-09  4.05636E-09  3.85833E-09  3.70368E-09  3.56923E-09  3.36978E-09  2.67734E-09  2.36862E-09
   2.14996E-09  1.95411E-09  1.76699E-09  1.58430E-09  1.40441E-09  1.22671E-09  1.05091E-09  8.76966E-10  7.04967E-10  5.35006E-10
   3.67219E-10  2.01808E-10  3.89142E-11 -1.21209E-10 -2.78421E-10 -4.32483E-10 -5.83200E-10 -7.30337E-10 -8.73721E-10 -1.01310E-09
  -1.14828E-09 -1.27903E-09 -1.40514E-09 -1.52640E-09 -1.64258E-09 -1.75347E-09 -1.85883E-09 -1.95849E-09 -2.05226E-09 -2.14027E-09
  -2.22264E-09 -2.29950E-09 -2.37099E-09 -2.43723E-09 -2.49836E-09 -2.55451E-09 -2.60580E-09 -2.65237E-09 -2.69435E-09 -2.73188E-09
  -2.76507E-09 -2.79407E-09 -2.81901E-09 -2.84000E-09 -2.85719E-09 -2.87071E-09 -2.88067E-09 -2.88723E-09 -2.89052E-09 -2.89064E-09
