 LCModel (Version 6.3-1R) Copyright: S.W. Provencher.          Ref.: Magn. Reson. Med. 30:672-679 (1993).                
 onepulse 13x11_ftSpec_smooth_lcm
 26 lines in following concentration table = NCONC+1
    Conc.  %SD /Cr+PCr  Metabolite                                         
    0.000 999%   0.000 Ala                                                 
 1.63E-12 999% 4.8E-03 Asp                                                 
    0.000 999%   0.000 Cr                                                  
 5.62E-11 999%   0.167 GABA                                                
    0.000 999%   0.000 Glc                                                 
 2.02E-09  38%   6.020 Gln                                                 
    0.000 999%   0.000 Glu                                                 
    0.000 999%   0.000 Glyc                                                
    0.000 999%   0.000 GPC                                                 
 4.17E-10 115%   1.240 GSH                                                 
 1.83E-09  24%   5.444 Ins                                                 
    0.000 999%   0.000 Lac                                                 
 8.50E-11 444%   0.253 NAAG                                                
 3.75E-10 141%   1.116 NAA                                                 
    0.000 999%   0.000 PCh                                                 
 3.36E-10 110%   1.000 PCr                                                 
 1.43E-09  61%   4.243 PE                                                  
 1.19E-10 253%   0.355 Scyllo                                              
 2.87E-09  31%   8.538 Ser                                                 
 6.20E-10 169%   1.843 Tau                                                 
    0.000 999%   0.000 GPC+PCh                                             
 4.60E-10  66%   1.368 NAA+NAAG                                            
 1.83E-09  24%   5.444 Ins+Glyc                                            
 3.36E-10 110%   1.000 Cr+PCr                                              
 2.02E-09  38%   6.020 Glu+Gln                                             
   6 lines in following misc. output table
  FWHM = 0.112 ppm    S/N =   3                                            
  Data shift = 0.402 ppm                                                   
  Ph:  -5 deg     -40.7 deg/ppm                                            
  alphaB,S = 3.9E-01,   2.7E+01                                            
   11 spline knots.   Ns = 5(1)                                            
  (12) 4 infls.   ( 9) 3 extrs.                                            
  363 points on ppm-axis = NY
      4.250000     4.238821     4.227641     4.216462     4.205282     4.194103     4.182923     4.171744     4.160564     4.149385
      4.138206     4.127026     4.115847     4.104667     4.093488     4.082308     4.071129     4.059949     4.048770     4.037591
      4.026411     4.015232     4.004052     3.992873     3.981693     3.970514     3.959334     3.948155     3.936975     3.925796
      3.914617     3.903437     3.892258     3.881078     3.869899     3.858719     3.847540     3.836360     3.825181     3.814002
      3.802822     3.791643     3.780463     3.769284     3.758104     3.746925     3.735745     3.724566     3.713387     3.702207
      3.691028     3.679848     3.668669     3.657489     3.646310     3.635130     3.623951     3.612772     3.601592     3.590413
      3.579233     3.568054     3.556874     3.545695     3.534515     3.523336     3.512156     3.500977     3.489798     3.478618
      3.467439     3.456259     3.445080     3.433900     3.422721     3.411541     3.400362     3.389183     3.378003     3.366824
      3.355644     3.344465     3.333285     3.322106     3.310926     3.299747     3.288568     3.277388     3.266209     3.255029
      3.243850     3.232670     3.221491     3.210311     3.199132     3.187953     3.176773     3.165594     3.154414     3.143235
      3.132055     3.120876     3.109696     3.098517     3.087337     3.076158     3.064979     3.053799     3.042620     3.031440
      3.020261     3.009081     2.997902     2.986722     2.975543     2.964364     2.953184     2.942005     2.930825     2.919646
      2.908466     2.897287     2.886107     2.874928     2.863749     2.852569     2.841390     2.830210     2.819031     2.807851
      2.796672     2.785492     2.774313     2.763134     2.751954     2.740775     2.729595     2.718416     2.707236     2.696057
      2.684877     2.673698     2.662519     2.651339     2.640160     2.628980     2.617801     2.606621     2.595442     2.584262
      2.573083     2.561903     2.550724     2.539545     2.528365     2.517186     2.506006     2.494827     2.483647     2.472468
      2.461288     2.450109     2.438930     2.427750     2.416571     2.405391     2.394212     2.383032     2.371853     2.360673
      2.349494     2.338315     2.327135     2.315956     2.304776     2.293597     2.282417     2.271238     2.260058     2.248879
      2.237700     2.226520     2.215341     2.204161     2.192982     2.181802     2.170623     2.159443     2.148264     2.137084
      2.125905     2.114726     2.103546     2.092367     2.081187     2.070008     2.058828     2.047649     2.036469     2.025290
      2.014111     2.002931     1.991752     1.980572     1.969393     1.958213     1.947034     1.935854     1.924675     1.913496
      1.902316     1.891137     1.879957     1.868778     1.857598     1.846419     1.835239     1.824060     1.812881     1.801701
      1.790522     1.779342     1.768163     1.756983     1.745804     1.734624     1.723445     1.712265     1.701086     1.689907
      1.678727     1.667548     1.656368     1.645189     1.634009     1.622830     1.611650     1.600471     1.589292     1.578112
      1.566933     1.555753     1.544574     1.533394     1.522215     1.511035     1.499856     1.488677     1.477497     1.466318
      1.455138     1.443959     1.432779     1.421600     1.410420     1.399241     1.388062     1.376882     1.365703     1.354523
      1.343344     1.332164     1.320985     1.309805     1.298626     1.287446     1.276267     1.265088     1.253908     1.242729
      1.231549     1.220370     1.209190     1.198011     1.186831     1.175652     1.164473     1.153293     1.142114     1.130934
      1.119755     1.108575     1.097396     1.086216     1.075037     1.063858     1.052678     1.041499     1.030319     1.019140
      1.007960     0.996781     0.985601     0.974422     0.963243     0.952063     0.940884     0.929704     0.918525     0.907345
      0.896166     0.884986     0.873807     0.862628     0.851448     0.840269     0.829089     0.817910     0.806730     0.795551
      0.784371     0.773192     0.762012     0.750833     0.739654     0.728474     0.717295     0.706115     0.694936     0.683756
      0.672577     0.661397     0.650218     0.639039     0.627859     0.616680     0.605500     0.594321     0.583141     0.571962
      0.560782     0.549603     0.538424     0.527244     0.516065     0.504885     0.493706     0.482526     0.471347     0.460167
      0.448988     0.437809     0.426629     0.415450     0.404270     0.393091     0.381911     0.370732     0.359552     0.348373
      0.337193     0.326014     0.314835     0.303655     0.292476     0.281296     0.270117     0.258937     0.247758     0.236578
      0.225399     0.214220     0.203040
 NY phased data points follow
   1.30157E-08  1.06382E-08  1.19102E-08  9.43801E-09  1.04343E-08  8.80578E-09  1.04060E-08  9.53720E-09  1.04989E-08  9.46334E-09
   1.14000E-08  1.02641E-08  1.20966E-08  1.08117E-08  1.16034E-08  1.07360E-08  1.18076E-08  9.65939E-09  1.11576E-08  9.54190E-09
   1.09901E-08  1.09187E-08  1.18773E-08  1.06592E-08  1.07887E-08  9.05696E-09  1.02445E-08  1.05412E-08  1.19841E-08  1.26349E-08
   1.40854E-08  1.31038E-08  1.34288E-08  1.18314E-08  1.20161E-08  1.10686E-08  1.12813E-08  1.09713E-08  1.13568E-08  1.02159E-08
   1.12654E-08  1.03420E-08  1.04080E-08  9.79743E-09  9.42132E-09  8.96374E-09  9.53654E-09  8.73125E-09  9.61154E-09  8.97022E-09
   8.80447E-09  7.85197E-09  7.29335E-09  6.52083E-09  7.02075E-09  6.42666E-09  6.32463E-09  5.91521E-09  7.01038E-09  9.08168E-09
   1.14117E-08  1.19794E-08  1.17081E-08  1.13633E-08  1.14005E-08  1.06749E-08  1.00685E-08  9.78949E-09  9.12176E-09  8.36639E-09
   7.41649E-09  6.83698E-09  5.53842E-09  4.36943E-09  4.12408E-09  7.20156E-09  1.07279E-08  1.31421E-08  1.35434E-08  1.32916E-08
   1.31981E-08  1.32965E-08  1.31491E-08  1.24358E-08  1.28748E-08  1.25216E-08  1.28074E-08  1.20738E-08  1.26642E-08  1.21978E-08
   1.20265E-08  1.17662E-08  1.14094E-08  1.11548E-08  1.08865E-08  1.00127E-08  9.54120E-09  9.53069E-09  9.89392E-09  9.32021E-09
   9.43588E-09  9.20043E-09  9.37458E-09  9.60619E-09  9.08781E-09  8.17367E-09  8.17246E-09  6.79579E-09  6.45615E-09  6.58337E-09
   7.61338E-09  7.00518E-09  7.31030E-09  7.45290E-09  7.88188E-09  7.19290E-09  7.82974E-09  8.12839E-09  7.72691E-09  7.17954E-09
   7.46481E-09  6.74845E-09  5.53737E-09  5.79245E-09  6.21442E-09  5.48103E-09  5.47319E-09  5.70972E-09  6.32672E-09  6.09869E-09
   6.33884E-09  6.69440E-09  6.01131E-09  6.26311E-09  5.44787E-09  5.66838E-09  7.13936E-09  7.56276E-09  7.75176E-09  7.98737E-09
   7.73946E-09  8.61518E-09  9.24607E-09  9.19966E-09  9.57470E-09  1.00707E-08  9.54909E-09  1.00558E-08  9.52551E-09  9.73536E-09
   9.73955E-09  9.40348E-09  9.42284E-09  9.71604E-09  1.02531E-08  9.83285E-09  9.94123E-09  9.54945E-09  9.80493E-09  9.84536E-09
   9.93003E-09  9.21227E-09  8.95682E-09  9.39652E-09  7.37453E-09  5.84542E-09  8.37566E-09  1.40263E-08  1.79785E-08  2.01100E-08
   1.96553E-08  2.06780E-08  2.06613E-08  2.00003E-08  1.95762E-08  1.91277E-08  1.85690E-08  1.79204E-08  1.67287E-08  1.64256E-08
   1.42147E-08  1.34059E-08  1.10712E-08  8.56934E-09  6.37385E-09  3.69068E-09  1.13771E-09 -1.35526E-09 -3.90841E-09 -6.02079E-09
  -8.09718E-09 -9.73094E-09 -1.14096E-08 -1.18256E-08 -1.21860E-08 -1.22496E-08 -1.16618E-08 -1.03109E-08 -9.66760E-09 -8.24651E-09
  -7.15670E-09 -5.83193E-09 -5.08204E-09 -3.82292E-09 -2.98600E-09 -3.02786E-09 -2.40372E-09 -2.05820E-09 -3.33174E-09 -2.28526E-09
  -3.36469E-09 -2.64058E-09 -3.11663E-09 -2.89152E-09 -2.30829E-09 -2.53483E-09 -2.30599E-09 -1.80771E-09 -1.93869E-09 -1.58515E-09
  -2.30913E-09 -1.96501E-09 -2.48406E-09 -2.33786E-09 -2.30575E-09 -2.44953E-09 -2.29184E-09 -1.66229E-09 -1.50283E-09 -1.64355E-09
  -2.00418E-09 -1.92076E-09 -1.90828E-09 -1.82926E-09 -2.07803E-09 -2.15966E-09 -2.58666E-09 -3.07042E-09 -2.52756E-09 -2.30996E-09
  -2.30679E-09 -2.22400E-09 -1.88452E-09 -1.48963E-09 -1.63703E-09 -1.72391E-09 -1.92461E-09 -1.52497E-09 -2.08482E-09 -1.54962E-09
  -2.49466E-09 -1.85889E-09 -1.96204E-09 -2.02759E-09 -2.31533E-09 -2.22649E-09 -2.30063E-09 -2.61756E-09 -2.52621E-09 -3.37722E-09
  -2.85115E-09 -2.66655E-09 -3.41530E-09 -2.92574E-09 -3.07263E-09 -2.95109E-09 -2.92262E-09 -2.76784E-09 -2.81670E-09 -2.19079E-09
  -1.90720E-09 -1.52967E-09 -1.43945E-09 -1.18618E-09 -1.61704E-09 -1.06203E-09 -1.56274E-09 -1.44664E-09 -1.44275E-09 -1.33766E-09
  -1.44460E-09 -1.28867E-09 -1.41879E-09 -1.68278E-09 -1.68852E-09 -2.08818E-09 -1.73884E-09 -1.90552E-09 -1.92292E-09 -2.19733E-09
  -2.39879E-09 -2.28915E-09 -2.52778E-09 -2.22673E-09 -2.87920E-09 -2.43653E-09 -2.89950E-09 -3.28335E-09 -2.51825E-09 -2.91229E-09
  -3.20034E-09 -2.99932E-09 -3.27540E-09 -2.85889E-09 -3.68437E-09 -3.19588E-09 -3.94179E-09 -3.59666E-09 -3.83253E-09 -3.83707E-09
  -4.06104E-09 -3.97305E-09 -3.90815E-09 -3.68526E-09 -4.08781E-09 -4.14364E-09 -3.91623E-09 -3.78017E-09 -4.39918E-09 -4.47475E-09
  -4.56986E-09 -4.11430E-09 -4.10578E-09 -4.07565E-09 -4.72071E-09 -4.43302E-09 -4.27517E-09 -4.77949E-09 -4.43163E-09 -4.74144E-09
  -4.70133E-09 -4.70066E-09 -4.79707E-09 -4.94248E-09 -5.29246E-09 -4.93846E-09 -4.91167E-09 -4.85650E-09 -5.45328E-09 -4.91446E-09
  -5.16580E-09 -4.91372E-09 -4.97359E-09 -5.29991E-09 -5.41159E-09 -4.58605E-09 -4.97405E-09 -5.23845E-09 -5.36419E-09 -4.86314E-09
  -5.19927E-09 -5.14267E-09 -5.35024E-09 -5.27682E-09 -5.21420E-09 -5.09299E-09 -5.28841E-09 -5.11434E-09 -5.08339E-09 -5.63396E-09
  -5.54955E-09 -4.99077E-09 -5.47382E-09
 NY points of the fit to the data follow
   1.21494E-08  1.26463E-08  1.18532E-08  1.06765E-08  1.02248E-08  1.04514E-08  1.03363E-08  9.70306E-09  9.39485E-09  9.81388E-09
   1.01260E-08  1.02450E-08  1.03806E-08  1.06312E-08  1.11952E-08  1.14570E-08  1.13037E-08  1.17960E-08  1.23649E-08  1.16335E-08
   1.03744E-08  9.65805E-09  9.76194E-09  1.00626E-08  1.03388E-08  1.07372E-08  1.14717E-08  1.20973E-08  1.24228E-08  1.24159E-08
   1.26367E-08  1.27618E-08  1.28321E-08  1.26049E-08  1.25338E-08  1.22064E-08  1.16200E-08  1.10564E-08  1.07838E-08  1.06923E-08
   1.07152E-08  1.07019E-08  1.03284E-08  9.59270E-09  9.11891E-09  8.65475E-09  8.32188E-09  7.91745E-09  7.50157E-09  7.23147E-09
   7.07364E-09  7.01779E-09  6.98295E-09  6.95449E-09  7.10656E-09  7.54382E-09  7.93910E-09  8.37574E-09  9.13962E-09  9.92541E-09
   1.03989E-08  1.07372E-08  1.10669E-08  1.13421E-08  1.13391E-08  1.10192E-08  1.06806E-08  1.04805E-08  9.86610E-09  9.04332E-09
   8.64716E-09  8.53030E-09  8.47756E-09  8.53274E-09  8.72692E-09  9.19399E-09  9.78005E-09  1.07756E-08  1.19535E-08  1.29376E-08
   1.35833E-08  1.39573E-08  1.40060E-08  1.39611E-08  1.40555E-08  1.39001E-08  1.34612E-08  1.28238E-08  1.16547E-08  1.07963E-08
   1.03004E-08  9.96077E-09  9.71458E-09  9.51537E-09  9.34124E-09  9.20502E-09  9.08780E-09  8.97789E-09  8.88619E-09  8.80430E-09
   8.73074E-09  8.66787E-09  8.61148E-09  8.55938E-09  8.51242E-09  8.46987E-09  8.43073E-09  8.39434E-09  8.36008E-09  8.32753E-09
   8.29629E-09  8.26600E-09  8.23636E-09  8.20707E-09  8.17786E-09  8.14852E-09  8.11882E-09  8.08856E-09  8.05752E-09  8.02554E-09
   7.99245E-09  7.95808E-09  7.92228E-09  7.88489E-09  7.84581E-09  7.80485E-09  7.76192E-09  7.71687E-09  7.66960E-09  7.61995E-09
   7.56785E-09  7.51316E-09  7.45579E-09  7.39562E-09  7.33255E-09  7.26651E-09  7.19735E-09  7.12506E-09  7.04970E-09  6.97133E-09
   6.89003E-09  6.80590E-09  6.71901E-09  6.62945E-09  6.53734E-09  6.44278E-09  6.34591E-09  6.24684E-09  6.14573E-09  6.04275E-09
   5.93811E-09  5.83201E-09  5.72476E-09  5.61668E-09  5.50819E-09  5.39988E-09  5.29248E-09  5.18702E-09  5.08500E-09  4.98864E-09
   4.90154E-09  4.82962E-09  4.78378E-09  4.78602E-09  4.88798E-09  5.24256E-09  6.52073E-09  1.16688E-08  1.69787E-08  1.99402E-08
   2.07695E-08  2.07205E-08  2.04519E-08  2.03082E-08  2.05524E-08  2.08681E-08  1.97683E-08  1.50605E-08  7.35725E-09  4.40958E-09
   3.39970E-09  2.86254E-09  2.50133E-09  2.22382E-09  1.99260E-09  1.78976E-09  1.60570E-09  1.43482E-09  1.27370E-09  1.12008E-09
   9.72492E-10  8.29865E-10  6.91512E-10  5.56871E-10  4.25575E-10  2.97338E-10  1.71966E-10  4.92964E-11 -7.07739E-11 -1.88334E-10
  -3.03430E-10 -4.16097E-10 -5.26363E-10 -6.34226E-10 -7.39695E-10 -8.42772E-10 -9.43432E-10 -1.04166E-09 -1.13744E-09 -1.23073E-09
  -1.32151E-09 -1.40975E-09 -1.49544E-09 -1.57854E-09 -1.65899E-09 -1.73677E-09 -1.81185E-09 -1.88420E-09 -1.95378E-09 -2.02054E-09
  -2.08449E-09 -2.14553E-09 -2.20367E-09 -2.25887E-09 -2.31111E-09 -2.36030E-09 -2.40648E-09 -2.44959E-09 -2.48970E-09 -2.52693E-09
  -2.56138E-09 -2.59317E-09 -2.62241E-09 -2.64921E-09 -2.67369E-09 -2.69595E-09 -2.71609E-09 -2.73424E-09 -2.75050E-09 -2.76498E-09
  -2.77778E-09 -2.78900E-09 -2.79877E-09 -2.80717E-09 -2.81432E-09 -2.82031E-09 -2.82525E-09 -2.82925E-09 -2.83239E-09 -2.83479E-09
  -2.83654E-09 -2.83773E-09 -2.83847E-09 -2.83885E-09 -2.83896E-09 -2.83890E-09 -2.83877E-09 -2.83864E-09 -2.83861E-09 -2.83877E-09
  -2.83921E-09 -2.84001E-09 -2.84126E-09 -2.84304E-09 -2.84542E-09 -2.84850E-09 -2.85235E-09 -2.85706E-09 -2.86268E-09 -2.86930E-09
  -2.87699E-09 -2.88582E-09 -2.89586E-09 -2.90713E-09 -2.91957E-09 -2.93317E-09 -2.94788E-09 -2.96365E-09 -2.98045E-09 -2.99825E-09
  -3.01700E-09 -3.03666E-09 -3.05720E-09 -3.07858E-09 -3.10075E-09 -3.12369E-09 -3.14734E-09 -3.17168E-09 -3.19666E-09 -3.22226E-09
  -3.24842E-09 -3.27511E-09 -3.30229E-09 -3.32994E-09 -3.35800E-09 -3.38644E-09 -3.41523E-09 -3.44433E-09 -3.47371E-09 -3.50332E-09
  -3.53313E-09 -3.56310E-09 -3.59320E-09 -3.62340E-09 -3.65366E-09 -3.68394E-09 -3.71421E-09 -3.74444E-09 -3.77459E-09 -3.80464E-09
  -3.83453E-09 -3.86425E-09 -3.89376E-09 -3.92303E-09 -3.95203E-09 -3.98072E-09 -4.00908E-09 -4.03706E-09 -4.06465E-09 -4.09182E-09
  -4.11854E-09 -4.14479E-09 -4.17053E-09 -4.19574E-09 -4.22040E-09 -4.24448E-09 -4.26796E-09 -4.29081E-09 -4.31301E-09 -4.33454E-09
  -4.35536E-09 -4.37547E-09 -4.39483E-09 -4.41342E-09 -4.43122E-09 -4.44822E-09 -4.46438E-09 -4.47970E-09 -4.49414E-09 -4.50770E-09
  -4.52034E-09 -4.53206E-09 -4.54282E-09 -4.55262E-09 -4.56144E-09 -4.56927E-09 -4.57607E-09 -4.58184E-09 -4.58657E-09 -4.59023E-09
  -4.59281E-09 -4.59430E-09 -4.59468E-09 -4.59395E-09 -4.59208E-09 -4.58907E-09 -4.58490E-09 -4.57957E-09 -4.57306E-09 -4.56536E-09
  -4.55646E-09 -4.54635E-09 -4.53502E-09
 NY background values follow
     1.749E-09    1.786E-09    1.823E-09    1.861E-09    1.899E-09    1.937E-09    1.976E-09    2.014E-09    2.054E-09    2.093E-09
     2.133E-09    2.173E-09    2.213E-09    2.253E-09    2.294E-09    2.335E-09    2.377E-09    2.418E-09    2.460E-09    2.502E-09
     2.544E-09    2.587E-09    2.629E-09    2.672E-09    2.715E-09    2.759E-09    2.802E-09    2.846E-09    2.890E-09    2.934E-09
     2.978E-09    3.022E-09    3.067E-09    3.112E-09    3.156E-09    3.201E-09    3.246E-09    3.292E-09    3.337E-09    3.382E-09
     3.428E-09    3.473E-09    3.519E-09    3.565E-09    3.611E-09    3.656E-09    3.702E-09    3.748E-09    3.794E-09    3.840E-09
     3.886E-09    3.932E-09    3.978E-09    4.024E-09    4.070E-09    4.116E-09    4.162E-09    4.208E-09    4.254E-09    4.300E-09
     4.346E-09    4.392E-09    4.437E-09    4.483E-09    4.529E-09    4.574E-09    4.619E-09    4.665E-09    4.710E-09    4.755E-09
     4.800E-09    4.845E-09    4.890E-09    4.934E-09    4.979E-09    5.023E-09    5.067E-09    5.111E-09    5.155E-09    5.199E-09
     5.242E-09    5.285E-09    5.328E-09    5.371E-09    5.414E-09    5.456E-09    5.499E-09    5.541E-09    5.582E-09    5.624E-09
     5.665E-09    5.706E-09    5.747E-09    5.787E-09    5.827E-09    5.867E-09    5.906E-09    5.944E-09    5.981E-09    6.018E-09
     6.054E-09    6.089E-09    6.123E-09    6.156E-09    6.187E-09    6.218E-09    6.247E-09    6.275E-09    6.301E-09    6.326E-09
     6.349E-09    6.371E-09    6.391E-09    6.408E-09    6.424E-09    6.438E-09    6.450E-09    6.460E-09    6.467E-09    6.473E-09
     6.475E-09    6.475E-09    6.473E-09    6.468E-09    6.460E-09    6.450E-09    6.436E-09    6.420E-09    6.401E-09    6.378E-09
     6.352E-09    6.323E-09    6.290E-09    6.254E-09    6.215E-09    6.172E-09    6.125E-09    6.074E-09    6.020E-09    5.962E-09
     5.901E-09    5.836E-09    5.768E-09    5.697E-09    5.622E-09    5.545E-09    5.464E-09    5.381E-09    5.295E-09    5.206E-09
     5.114E-09    5.020E-09    4.923E-09    4.825E-09    4.724E-09    4.620E-09    4.515E-09    4.408E-09    4.299E-09    4.188E-09
     4.075E-09    3.961E-09    3.846E-09    3.729E-09    3.611E-09    3.492E-09    3.372E-09    3.251E-09    3.129E-09    3.006E-09
     2.883E-09    2.759E-09    2.634E-09    2.510E-09    2.385E-09    2.260E-09    2.135E-09    2.011E-09    1.886E-09    1.762E-09
     1.638E-09    1.515E-09    1.393E-09    1.271E-09    1.150E-09    1.029E-09    9.099E-10    7.914E-10    6.740E-10    5.576E-10
     4.423E-10    3.282E-10    2.154E-10    1.039E-10   -6.228E-12   -1.150E-10   -2.222E-10   -3.279E-10   -4.320E-10   -5.345E-10
    -6.352E-10   -7.342E-10   -8.314E-10   -9.267E-10   -1.020E-09   -1.111E-09   -1.201E-09   -1.288E-09   -1.373E-09   -1.456E-09
    -1.537E-09   -1.615E-09   -1.691E-09   -1.765E-09   -1.836E-09   -1.905E-09   -1.972E-09   -2.035E-09   -2.096E-09   -2.155E-09
    -2.211E-09   -2.264E-09   -2.314E-09   -2.361E-09   -2.406E-09   -2.448E-09   -2.486E-09   -2.522E-09   -2.555E-09   -2.585E-09
    -2.613E-09   -2.638E-09   -2.660E-09   -2.680E-09   -2.698E-09   -2.713E-09   -2.727E-09   -2.739E-09   -2.749E-09   -2.757E-09
    -2.764E-09   -2.769E-09   -2.772E-09   -2.775E-09   -2.776E-09   -2.776E-09   -2.775E-09   -2.773E-09   -2.771E-09   -2.768E-09
    -2.764E-09   -2.760E-09   -2.755E-09   -2.750E-09   -2.745E-09   -2.739E-09   -2.734E-09   -2.729E-09   -2.723E-09   -2.718E-09
    -2.714E-09   -2.710E-09   -2.706E-09   -2.703E-09   -2.700E-09   -2.698E-09   -2.698E-09   -2.697E-09   -2.698E-09   -2.700E-09
    -2.703E-09   -2.708E-09   -2.713E-09   -2.720E-09   -2.728E-09   -2.737E-09   -2.747E-09   -2.759E-09   -2.771E-09   -2.785E-09
    -2.799E-09   -2.815E-09   -2.831E-09   -2.848E-09   -2.867E-09   -2.885E-09   -2.905E-09   -2.925E-09   -2.946E-09   -2.968E-09
    -2.990E-09   -3.013E-09   -3.036E-09   -3.060E-09   -3.085E-09   -3.109E-09   -3.134E-09   -3.160E-09   -3.185E-09   -3.211E-09
    -3.238E-09   -3.264E-09   -3.291E-09   -3.317E-09   -3.344E-09   -3.371E-09   -3.398E-09   -3.424E-09   -3.451E-09   -3.478E-09
    -3.504E-09   -3.531E-09   -3.557E-09   -3.583E-09   -3.609E-09   -3.634E-09   -3.660E-09   -3.684E-09   -3.709E-09   -3.733E-09
    -3.757E-09   -3.780E-09   -3.802E-09   -3.825E-09   -3.846E-09   -3.867E-09   -3.888E-09   -3.908E-09   -3.927E-09   -3.946E-09
    -3.964E-09   -3.981E-09   -3.998E-09   -4.013E-09   -4.028E-09   -4.043E-09   -4.056E-09   -4.069E-09   -4.081E-09   -4.091E-09
    -4.101E-09   -4.111E-09   -4.119E-09   -4.126E-09   -4.132E-09   -4.137E-09   -4.142E-09   -4.145E-09   -4.147E-09   -4.148E-09
    -4.149E-09   -4.148E-09   -4.146E-09   -4.143E-09   -4.138E-09   -4.133E-09   -4.126E-09   -4.119E-09   -4.110E-09   -4.100E-09
    -4.089E-09   -4.077E-09   -4.063E-09
 Asp      Conc. = 1.63E-12
   1.75042E-09  1.78741E-09  1.82463E-09  1.86218E-09  1.90006E-09  1.93817E-09  1.97659E-09  2.01518E-09  2.05412E-09  2.09340E-09
   2.13300E-09  2.17289E-09  2.21308E-09  2.25354E-09  2.29428E-09  2.33528E-09  2.37654E-09  2.41806E-09  2.45981E-09  2.50181E-09
   2.54404E-09  2.58650E-09  2.62917E-09  2.67206E-09  2.71516E-09  2.75845E-09  2.80194E-09  2.84562E-09  2.88947E-09  2.93350E-09
   2.97769E-09  3.02204E-09  3.06654E-09  3.11119E-09  3.15598E-09  3.20090E-09  3.24602E-09  3.29127E-09  3.33669E-09  3.38216E-09
   3.42765E-09  3.47316E-09  3.51875E-09  3.56459E-09  3.61060E-09  3.65698E-09  3.70334E-09  3.74941E-09  3.79547E-09  3.84161E-09
   3.88792E-09  3.93430E-09  3.98071E-09  4.02694E-09  4.07279E-09  4.11852E-09  4.16405E-09  4.21001E-09  4.25597E-09  4.30165E-09
   4.34729E-09  4.39294E-09  4.43850E-09  4.48405E-09  4.52965E-09  4.57515E-09  4.62042E-09  4.66563E-09  4.71075E-09  4.75579E-09
   4.80072E-09  4.84554E-09  4.89023E-09  4.93479E-09  4.97921E-09  5.02349E-09  5.06762E-09  5.11159E-09  5.15539E-09  5.19901E-09
   5.24246E-09  5.28572E-09  5.32878E-09  5.37164E-09  5.41429E-09  5.45673E-09  5.49894E-09  5.54093E-09  5.58268E-09  5.62420E-09
   5.66546E-09  5.70646E-09  5.74717E-09  5.78753E-09  5.82745E-09  5.86688E-09  5.90574E-09  5.94396E-09  5.98147E-09  6.01820E-09
   6.05408E-09  6.08903E-09  6.12298E-09  6.15585E-09  6.18757E-09  6.21807E-09  6.24726E-09  6.27507E-09  6.30142E-09  6.32624E-09
   6.34945E-09  6.37096E-09  6.39071E-09  6.40860E-09  6.42456E-09  6.43852E-09  6.45040E-09  6.46010E-09  6.46755E-09  6.47267E-09
   6.47539E-09  6.47561E-09  6.47326E-09  6.46824E-09  6.46051E-09  6.44995E-09  6.43650E-09  6.42008E-09  6.40060E-09  6.37796E-09
   6.35211E-09  6.32297E-09  6.29044E-09  6.25445E-09  6.21491E-09  6.17177E-09  6.12492E-09  6.07433E-09  6.02009E-09  5.96227E-09
   5.90094E-09  5.83621E-09  5.76814E-09  5.69682E-09  5.62234E-09  5.54479E-09  5.46426E-09  5.38083E-09  5.29460E-09  5.20566E-09
   5.11411E-09  5.02002E-09  4.92351E-09  4.82466E-09  4.72356E-09  4.62033E-09  4.51506E-09  4.40783E-09  4.29877E-09  4.18794E-09
   4.07550E-09  3.96149E-09  3.84604E-09  3.72925E-09  3.61125E-09  3.49214E-09  3.37223E-09  3.25203E-09  3.13089E-09  3.00861E-09
   2.88541E-09  2.76157E-09  2.63729E-09  2.51277E-09  2.38809E-09  2.26329E-09  2.13824E-09  2.01265E-09  1.88695E-09  1.76246E-09
   1.63859E-09  1.51531E-09  1.39269E-09  1.27079E-09  1.14966E-09  1.02935E-09  9.09946E-10  7.91472E-10  6.74020E-10  5.57626E-10
   4.42375E-10  3.28292E-10  2.15481E-10  1.03961E-10 -6.19042E-12 -1.14924E-10 -2.22169E-10 -3.27880E-10 -4.31993E-10 -5.34460E-10
  -6.35217E-10 -7.34208E-10 -8.31385E-10 -9.26683E-10 -1.02005E-09 -1.11145E-09 -1.20082E-09 -1.28811E-09 -1.37326E-09 -1.45621E-09
  -1.53693E-09 -1.61537E-09 -1.69147E-09 -1.76521E-09 -1.83650E-09 -1.90531E-09 -1.97160E-09 -2.03534E-09 -2.09646E-09 -2.15491E-09
  -2.21070E-09 -2.26372E-09 -2.31396E-09 -2.36140E-09 -2.40600E-09 -2.44765E-09 -2.48642E-09 -2.52222E-09 -2.55512E-09 -2.58523E-09
  -2.61267E-09 -2.63754E-09 -2.65995E-09 -2.68001E-09 -2.69782E-09 -2.71350E-09 -2.72715E-09 -2.73888E-09 -2.74880E-09 -2.75700E-09
  -2.76359E-09 -2.76869E-09 -2.77239E-09 -2.77479E-09 -2.77601E-09 -2.77613E-09 -2.77527E-09 -2.77352E-09 -2.77098E-09 -2.76774E-09
  -2.76392E-09 -2.75960E-09 -2.75488E-09 -2.74985E-09 -2.74461E-09 -2.73925E-09 -2.73386E-09 -2.72853E-09 -2.72335E-09 -2.71841E-09
  -2.71379E-09 -2.70958E-09 -2.70587E-09 -2.70273E-09 -2.70024E-09 -2.69850E-09 -2.69756E-09 -2.69752E-09 -2.69844E-09 -2.70040E-09
  -2.70347E-09 -2.70773E-09 -2.71323E-09 -2.71999E-09 -2.72798E-09 -2.73715E-09 -2.74747E-09 -2.75890E-09 -2.77139E-09 -2.78491E-09
  -2.79943E-09 -2.81488E-09 -2.83126E-09 -2.84850E-09 -2.86657E-09 -2.88544E-09 -2.90506E-09 -2.92540E-09 -2.94641E-09 -2.96807E-09
  -2.99032E-09 -3.01314E-09 -3.03648E-09 -3.06032E-09 -3.08460E-09 -3.10929E-09 -3.13436E-09 -3.15977E-09 -3.18548E-09 -3.21145E-09
  -3.23766E-09 -3.26406E-09 -3.29061E-09 -3.31729E-09 -3.34405E-09 -3.37087E-09 -3.39770E-09 -3.42452E-09 -3.45128E-09 -3.47797E-09
  -3.50453E-09 -3.53094E-09 -3.55717E-09 -3.58319E-09 -3.60895E-09 -3.63443E-09 -3.65961E-09 -3.68443E-09 -3.70890E-09 -3.73296E-09
  -3.75660E-09 -3.77978E-09 -3.80248E-09 -3.82468E-09 -3.84636E-09 -3.86747E-09 -3.88800E-09 -3.90793E-09 -3.92723E-09 -3.94588E-09
  -3.96385E-09 -3.98112E-09 -3.99767E-09 -4.01347E-09 -4.02851E-09 -4.04276E-09 -4.05620E-09 -4.06881E-09 -4.08057E-09 -4.09147E-09
  -4.10147E-09 -4.11056E-09 -4.11873E-09 -4.12595E-09 -4.13221E-09 -4.13749E-09 -4.14178E-09 -4.14505E-09 -4.14730E-09 -4.14850E-09
  -4.14864E-09 -4.14771E-09 -4.14569E-09 -4.14258E-09 -4.13835E-09 -4.13299E-09 -4.12650E-09 -4.11886E-09 -4.11006E-09 -4.10009E-09
  -4.08893E-09 -4.07660E-09 -4.06305E-09
 GABA     Conc. = 5.62E-11
   1.72653E-09  1.76309E-09  1.79996E-09  1.83713E-09  1.87459E-09  1.91235E-09  1.95038E-09  1.98868E-09  2.02725E-09  2.06609E-09
   2.10517E-09  2.14449E-09  2.18405E-09  2.22383E-09  2.26383E-09  2.30403E-09  2.34441E-09  2.38496E-09  2.42567E-09  2.46651E-09
   2.50747E-09  2.54852E-09  2.58963E-09  2.63077E-09  2.67192E-09  2.71303E-09  2.75413E-09  2.79537E-09  2.83772E-09  2.88767E-09
   2.94062E-09  2.98768E-09  3.04417E-09  3.11095E-09  3.17275E-09  3.23285E-09  3.29617E-09  3.36029E-09  3.42016E-09  3.47204E-09
   3.51692E-09  3.56864E-09  3.61648E-09  3.64265E-09  3.67565E-09  3.71844E-09  3.75150E-09  3.78441E-09  3.82140E-09  3.86069E-09
   3.90139E-09  3.94302E-09  3.98526E-09  4.02794E-09  4.07094E-09  4.11417E-09  4.15755E-09  4.20106E-09  4.24474E-09  4.28878E-09
   4.33384E-09  4.38311E-09  4.44208E-09  4.49726E-09  4.55030E-09  4.61651E-09  4.68187E-09  4.73868E-09  4.79473E-09  4.85186E-09
   4.90667E-09  4.95445E-09  4.99287E-09  5.02873E-09  5.07343E-09  5.10247E-09  5.12147E-09  5.15965E-09  5.19692E-09  5.22919E-09
   5.26993E-09  5.31020E-09  5.34933E-09  5.39891E-09  5.44960E-09  5.49526E-09  5.54532E-09  5.59802E-09  5.64916E-09  5.69883E-09
   5.74388E-09  5.78804E-09  5.83729E-09  5.87645E-09  5.90583E-09  5.94655E-09  5.98312E-09  6.00907E-09  6.04058E-09  6.07304E-09
   6.10248E-09  6.13225E-09  6.16213E-09  6.19171E-09  6.22070E-09  6.24886E-09  6.27604E-09  6.30208E-09  6.32687E-09  6.35030E-09
   6.37226E-09  6.39264E-09  6.41135E-09  6.42829E-09  6.44337E-09  6.45651E-09  6.46764E-09  6.47665E-09  6.48344E-09  6.48795E-09
   6.49009E-09  6.48976E-09  6.48690E-09  6.48140E-09  6.47321E-09  6.46221E-09  6.44834E-09  6.43152E-09  6.41166E-09  6.38866E-09
   6.36247E-09  6.33299E-09  6.30014E-09  6.26385E-09  6.22402E-09  6.18059E-09  6.13347E-09  6.08262E-09  6.02812E-09  5.97006E-09
   5.90849E-09  5.84353E-09  5.77524E-09  5.70371E-09  5.62903E-09  5.55128E-09  5.47055E-09  5.38694E-09  5.30053E-09  5.21142E-09
   5.11970E-09  5.02546E-09  4.92880E-09  4.82981E-09  4.72858E-09  4.62523E-09  4.51986E-09  4.41255E-09  4.30343E-09  4.19259E-09
   4.08018E-09  3.96630E-09  3.85113E-09  3.73490E-09  3.61807E-09  3.50180E-09  3.39176E-09  3.30314E-09  3.21015E-09  3.10213E-09
   2.98259E-09  2.85881E-09  2.73387E-09  2.60971E-09  2.48759E-09  2.36488E-09  2.23211E-09  2.07780E-09  1.91167E-09  1.77631E-09
   1.64844E-09  1.52311E-09  1.39923E-09  1.27646E-09  1.15469E-09  1.03389E-09  9.14091E-10  7.95289E-10  6.77558E-10  5.60921E-10
   4.45456E-10  3.31182E-10  2.18197E-10  1.06519E-10 -3.77856E-12 -1.12648E-10 -2.20020E-10 -3.25850E-10 -4.30075E-10 -5.32650E-10
  -6.33508E-10 -7.32596E-10 -8.29866E-10 -9.25253E-10 -1.01871E-09 -1.11019E-09 -1.19964E-09 -1.28700E-09 -1.37223E-09 -1.45526E-09
  -1.53605E-09 -1.61455E-09 -1.69072E-09 -1.76453E-09 -1.83587E-09 -1.90475E-09 -1.97111E-09 -2.03490E-09 -2.09608E-09 -2.15459E-09
  -2.21043E-09 -2.26351E-09 -2.31380E-09 -2.36130E-09 -2.40594E-09 -2.44765E-09 -2.48646E-09 -2.52231E-09 -2.55526E-09 -2.58542E-09
