 LCModel (Version 6.3-1R) Copyright: S.W. Provencher.          Ref.: Magn. Reson. Med. 30:672-679 (1993).                
 onepulse 13x19_ftSpec_smooth_lcm
 26 lines in following concentration table = NCONC+1
    Conc.  %SD   /Cr    Metabolite                                         
    0.000 999%   0.000 Ala                                                 
    0.000 999%   0.000 Asp                                                 
    0.000 999%   0.000 Cr                                                  
    0.000 999%   0.000 GABA                                                
    0.000 999%   0.000 Glc                                                 
 1.13E-09  69%   0.000 Gln                                                 
    0.000 999%   0.000 Glu                                                 
    0.000 999%   0.000 Glyc                                                
 2.76E-11 893%   0.000 GPC                                                 
 1.03E-10 421%   0.000 GSH                                                 
 1.65E-09  20%   0.000 Ins                                                 
    0.000 999%   0.000 Lac                                                 
 5.03E-10  48%   0.000 NAAG                                                
    0.000 999%   0.000 NAA                                                 
    0.000 999%   0.000 PCh                                                 
    0.000 999%   0.000 PCr                                                 
 8.06E-10 195%   0.000 PE                                                  
 2.30E-10  81%   0.000 Scyllo                                              
 6.48E-09  25%   0.000 Ser                                                 
    0.000 999%   0.000 Tau                                                 
 2.76E-11 893%   0.000 GPC+PCh                                             
 5.03E-10  48%   0.000 NAA+NAAG                                            
 1.65E-09  20%   0.000 Ins+Glyc                                            
    0.000 999%   0.000 Cr+PCr                                              
 1.13E-09  69%   0.000 Glu+Gln                                             
   6 lines in following misc. output table
  FWHM = 0.123 ppm    S/N =   3                                            
  Data shift = 0.436 ppm                                                   
  Ph: -17 deg     -41.6 deg/ppm                                            
  alphaB,S = 1.2E+00,   1.5E+01                                            
    9 spline knots.   Ns = 5(1)                                            
  (12) 4 infls.   (11) 3 extrs.                                            
  363 points on ppm-axis = NY
      4.250000     4.238821     4.227641     4.216462     4.205282     4.194103     4.182923     4.171744     4.160564     4.149385
      4.138206     4.127026     4.115847     4.104667     4.093488     4.082308     4.071129     4.059949     4.048770     4.037591
      4.026411     4.015232     4.004052     3.992873     3.981693     3.970514     3.959334     3.948155     3.936975     3.925796
      3.914617     3.903437     3.892258     3.881078     3.869899     3.858719     3.847540     3.836360     3.825181     3.814002
      3.802822     3.791643     3.780463     3.769284     3.758104     3.746925     3.735745     3.724566     3.713387     3.702207
      3.691028     3.679848     3.668669     3.657489     3.646310     3.635130     3.623951     3.612772     3.601592     3.590413
      3.579233     3.568054     3.556874     3.545695     3.534515     3.523336     3.512156     3.500977     3.489798     3.478618
      3.467439     3.456259     3.445080     3.433900     3.422721     3.411541     3.400362     3.389183     3.378003     3.366824
      3.355644     3.344465     3.333285     3.322106     3.310926     3.299747     3.288568     3.277388     3.266209     3.255029
      3.243850     3.232670     3.221491     3.210311     3.199132     3.187953     3.176773     3.165594     3.154414     3.143235
      3.132055     3.120876     3.109696     3.098517     3.087337     3.076158     3.064979     3.053799     3.042620     3.031440
      3.020261     3.009081     2.997902     2.986722     2.975543     2.964364     2.953184     2.942005     2.930825     2.919646
      2.908466     2.897287     2.886107     2.874928     2.863749     2.852569     2.841390     2.830210     2.819031     2.807851
      2.796672     2.785492     2.774313     2.763134     2.751954     2.740775     2.729595     2.718416     2.707236     2.696057
      2.684877     2.673698     2.662519     2.651339     2.640160     2.628980     2.617801     2.606621     2.595442     2.584262
      2.573083     2.561903     2.550724     2.539545     2.528365     2.517186     2.506006     2.494827     2.483647     2.472468
      2.461288     2.450109     2.438930     2.427750     2.416571     2.405391     2.394212     2.383032     2.371853     2.360673
      2.349494     2.338315     2.327135     2.315956     2.304776     2.293597     2.282417     2.271238     2.260058     2.248879
      2.237700     2.226520     2.215341     2.204161     2.192982     2.181802     2.170623     2.159443     2.148264     2.137084
      2.125905     2.114726     2.103546     2.092367     2.081187     2.070008     2.058828     2.047649     2.036469     2.025290
      2.014111     2.002931     1.991752     1.980572     1.969393     1.958213     1.947034     1.935854     1.924675     1.913496
      1.902316     1.891137     1.879957     1.868778     1.857598     1.846419     1.835239     1.824060     1.812881     1.801701
      1.790522     1.779342     1.768163     1.756983     1.745804     1.734624     1.723445     1.712265     1.701086     1.689907
      1.678727     1.667548     1.656368     1.645189     1.634009     1.622830     1.611650     1.600471     1.589292     1.578112
      1.566933     1.555753     1.544574     1.533394     1.522215     1.511035     1.499856     1.488677     1.477497     1.466318
      1.455138     1.443959     1.432779     1.421600     1.410420     1.399241     1.388062     1.376882     1.365703     1.354523
      1.343344     1.332164     1.320985     1.309805     1.298626     1.287446     1.276267     1.265088     1.253908     1.242729
      1.231549     1.220370     1.209190     1.198011     1.186831     1.175652     1.164473     1.153293     1.142114     1.130934
      1.119755     1.108575     1.097396     1.086216     1.075037     1.063858     1.052678     1.041499     1.030319     1.019140
      1.007960     0.996781     0.985601     0.974422     0.963243     0.952063     0.940884     0.929704     0.918525     0.907345
      0.896166     0.884986     0.873807     0.862628     0.851448     0.840269     0.829089     0.817910     0.806730     0.795551
      0.784371     0.773192     0.762012     0.750833     0.739654     0.728474     0.717295     0.706115     0.694936     0.683756
      0.672577     0.661397     0.650218     0.639039     0.627859     0.616680     0.605500     0.594321     0.583141     0.571962
      0.560782     0.549603     0.538424     0.527244     0.516065     0.504885     0.493706     0.482526     0.471347     0.460167
      0.448988     0.437809     0.426629     0.415450     0.404270     0.393091     0.381911     0.370732     0.359552     0.348373
      0.337193     0.326014     0.314835     0.303655     0.292476     0.281296     0.270117     0.258937     0.247758     0.236578
      0.225399     0.214220     0.203040
 NY phased data points follow
   6.89862E-09  5.42463E-09  6.55425E-09  5.11409E-09  6.85952E-09  5.47504E-09  6.66378E-09  5.71232E-09  6.48466E-09  5.57112E-09
   6.65016E-09  6.47328E-09  7.55880E-09  6.23484E-09  7.64511E-09  6.11792E-09  7.19404E-09  5.60370E-09  7.21559E-09  6.08606E-09
   7.11218E-09  6.96163E-09  6.63352E-09  6.17037E-09  6.75647E-09  7.19645E-09  7.89184E-09  8.31091E-09  9.84041E-09  8.59052E-09
   1.04455E-08  8.61404E-09  9.46382E-09  8.40452E-09  9.43798E-09  8.25710E-09  8.56344E-09  8.67390E-09  8.58342E-09  8.16890E-09
   7.93918E-09  7.08319E-09  7.41434E-09  6.77186E-09  7.22661E-09  6.50258E-09  6.87784E-09  5.84760E-09  6.72453E-09  5.87413E-09
   6.18141E-09  4.37450E-09  5.01876E-09  3.05744E-09  4.33849E-09  3.18050E-09  5.26795E-09  5.55436E-09  6.96333E-09  7.43022E-09
   8.13068E-09  7.58704E-09  8.36719E-09  7.45144E-09  7.62590E-09  6.95146E-09  6.82954E-09  5.81184E-09  4.84960E-09  4.54246E-09
   3.88700E-09  3.89442E-09  4.70071E-09  5.41238E-09  7.41046E-09  8.24479E-09  9.90385E-09  9.52099E-09  1.05062E-08  1.03900E-08
   1.14141E-08  1.06833E-08  1.08244E-08  1.11933E-08  1.14773E-08  1.13878E-08  1.14575E-08  1.13170E-08  1.05529E-08  1.10937E-08
   1.05246E-08  1.06575E-08  1.03947E-08  9.66175E-09  1.05548E-08  9.68780E-09  9.87721E-09  9.87399E-09  9.89976E-09  9.30913E-09
   9.71981E-09  9.11538E-09  8.56460E-09  8.50902E-09  7.86187E-09  7.83411E-09  7.46517E-09  7.08849E-09  7.33381E-09  6.68101E-09
   7.95696E-09  6.75013E-09  7.21393E-09  7.37079E-09  7.82550E-09  7.48718E-09  7.41304E-09  7.62813E-09  6.98351E-09  6.07043E-09
   6.17203E-09  5.91989E-09  5.81998E-09  5.88166E-09  5.44482E-09  5.22787E-09  5.20120E-09  5.31495E-09  5.09068E-09  5.37036E-09
   5.04810E-09  4.50142E-09  4.52042E-09  5.03150E-09  5.71580E-09  5.31684E-09  5.87230E-09  5.50942E-09  6.18842E-09  6.78729E-09
   6.62816E-09  7.28273E-09  6.97559E-09  8.06388E-09  8.08858E-09  7.65688E-09  8.03547E-09  7.91243E-09  7.83212E-09  7.59954E-09
   7.53788E-09  8.05697E-09  7.96303E-09  8.29689E-09  8.60703E-09  8.29749E-09  7.73133E-09  8.01048E-09  7.64486E-09  7.03358E-09
   7.05474E-09  7.45204E-09  8.45477E-09  1.07080E-08  1.23451E-08  1.49578E-08  1.69407E-08  1.80114E-08  1.83855E-08  1.88728E-08
   1.98626E-08  1.96887E-08  1.92017E-08  1.99088E-08  1.97759E-08  1.98926E-08  1.94770E-08  1.96217E-08  1.88949E-08  1.80772E-08
   1.75045E-08  1.69228E-08  1.54461E-08  1.45790E-08  1.25095E-08  1.09255E-08  8.56467E-09  6.85707E-09  4.28745E-09  1.80348E-09
  -4.03904E-10 -3.47983E-09 -5.42274E-09 -7.91595E-09 -8.91271E-09 -1.05537E-08 -1.23565E-08 -1.25663E-08 -1.23717E-08 -1.20834E-08
  -1.16003E-08 -1.08889E-08 -1.00758E-08 -8.22625E-09 -7.95820E-09 -5.97917E-09 -4.64220E-09 -4.06515E-09 -3.89705E-09 -3.86557E-09
  -3.04368E-09 -2.60166E-09 -3.12446E-09 -3.51577E-09 -2.78266E-09 -2.77662E-09 -2.75640E-09 -2.14138E-09 -2.75326E-09 -1.92750E-09
  -2.30200E-09 -1.78270E-09 -2.22786E-09 -2.13943E-09 -3.09702E-09 -2.34004E-09 -2.91086E-09 -2.10627E-09 -2.33570E-09 -1.51004E-09
  -1.70130E-09 -1.55903E-09 -1.89233E-09 -1.95460E-09 -2.29056E-09 -2.25054E-09 -2.93630E-09 -1.84658E-09 -2.54109E-09 -2.23675E-09
  -2.42116E-09 -1.71322E-09 -1.78969E-09 -1.79582E-09 -1.74691E-09 -1.29193E-09 -1.71130E-09 -7.33350E-10 -1.60475E-09 -1.17457E-09
  -1.46810E-09 -1.36627E-09 -1.88481E-09 -2.03702E-09 -2.35912E-09 -1.89651E-09 -3.04101E-09 -2.60834E-09 -2.68882E-09 -2.62387E-09
  -3.05798E-09 -1.98868E-09 -2.33086E-09 -1.81556E-09 -2.20791E-09 -1.69699E-09 -2.14452E-09 -1.59147E-09 -1.57174E-09 -1.03871E-09
  -1.03849E-09 -6.49162E-10 -1.48975E-09 -1.01183E-09 -1.06009E-09 -6.84545E-10 -1.65948E-09 -1.38977E-09 -1.71499E-09 -9.46480E-10
  -1.53218E-09 -1.74788E-09 -1.32630E-09 -1.75015E-09 -2.62371E-09 -1.11902E-09 -2.16331E-09 -1.94548E-09 -1.77999E-09 -2.41658E-09
  -2.71194E-09 -1.94002E-09 -2.37900E-09 -2.29269E-09 -2.88007E-09 -3.07859E-09 -2.51123E-09 -2.86193E-09 -2.69622E-09 -2.62437E-09
  -3.20311E-09 -2.78800E-09 -3.22978E-09 -2.79498E-09 -2.65831E-09 -3.22673E-09 -3.06079E-09 -3.26882E-09 -3.57820E-09 -2.96766E-09
  -3.44756E-09 -3.31155E-09 -3.38471E-09 -3.23150E-09 -3.48024E-09 -3.48446E-09 -3.59124E-09 -3.38005E-09 -3.54186E-09 -3.06534E-09
  -3.30585E-09 -3.81013E-09 -3.23406E-09 -3.76236E-09 -3.63596E-09 -2.98180E-09 -3.70432E-09 -3.33937E-09 -3.35769E-09 -3.45626E-09
  -3.36149E-09 -3.47515E-09 -3.61877E-09 -3.69747E-09 -2.96262E-09 -3.40178E-09 -4.01977E-09 -3.25812E-09 -3.44053E-09 -3.45846E-09
  -3.38671E-09 -3.74820E-09 -3.73426E-09 -3.01520E-09 -3.08782E-09 -3.55095E-09 -3.28100E-09 -3.06638E-09 -3.23473E-09 -3.22350E-09
  -3.31063E-09 -3.46569E-09 -2.81775E-09 -3.06737E-09 -3.11957E-09 -3.16180E-09 -2.70369E-09 -2.96405E-09 -3.11101E-09 -2.97970E-09
  -2.86771E-09 -3.00928E-09 -2.70585E-09
 NY points of the fit to the data follow
   5.60036E-09  7.73622E-09  6.42517E-09  6.02735E-09  6.58834E-09  7.81842E-09  7.88366E-09  6.16221E-09  5.05950E-09  5.22591E-09
   5.81800E-09  5.91241E-09  5.81869E-09  5.85714E-09  6.32973E-09  6.63506E-09  5.98621E-09  5.80252E-09  7.46518E-09  8.30457E-09
   7.58097E-09  6.71535E-09  6.69268E-09  6.62807E-09  6.56282E-09  6.75074E-09  7.45649E-09  8.51022E-09  9.35100E-09  8.92320E-09
   8.80656E-09  9.09548E-09  9.26398E-09  9.10135E-09  9.11275E-09  8.93459E-09  8.61059E-09  8.14608E-09  7.77649E-09  7.47635E-09
   7.24219E-09  7.08778E-09  6.94868E-09  6.87244E-09  6.76358E-09  6.57121E-09  6.41440E-09  6.29498E-09  6.14300E-09  6.06572E-09
   5.99812E-09  5.95424E-09  5.79942E-09  5.58564E-09  5.55512E-09  5.85793E-09  5.94262E-09  6.16653E-09  6.66251E-09  7.00737E-09
   7.09063E-09  7.28765E-09  7.45984E-09  7.70194E-09  7.89514E-09  7.82865E-09  7.70384E-09  7.79251E-09  7.53392E-09  7.15130E-09
   6.94740E-09  7.06967E-09  7.21063E-09  7.11530E-09  7.04775E-09  7.25955E-09  8.58740E-09  9.77775E-09  1.05419E-08  1.10825E-08
   1.15491E-08  1.18977E-08  1.18980E-08  1.19906E-08  1.25459E-08  1.30748E-08  1.30264E-08  1.19094E-08  1.12140E-08  1.07665E-08
   1.04094E-08  1.01147E-08  9.88917E-09  9.70423E-09  9.53542E-09  9.36987E-09  9.22601E-09  9.10866E-09  9.00065E-09  8.87823E-09
   8.75806E-09  8.66395E-09  8.58138E-09  8.49026E-09  8.40291E-09  8.32052E-09  8.24219E-09  8.16744E-09  8.09494E-09  8.02427E-09
   7.95518E-09  7.88730E-09  7.82041E-09  7.75419E-09  7.68848E-09  7.62305E-09  7.55773E-09  7.49236E-09  7.42681E-09  7.36099E-09
   7.29466E-09  7.22782E-09  7.16035E-09  7.09219E-09  7.02326E-09  6.95351E-09  6.88288E-09  6.81132E-09  6.73879E-09  6.66525E-09
   6.59064E-09  6.51496E-09  6.43814E-09  6.36017E-09  6.28099E-09  6.20060E-09  6.11894E-09  6.03599E-09  5.95173E-09  5.86609E-09
   5.77907E-09  5.69060E-09  5.60065E-09  5.50920E-09  5.41615E-09  5.32145E-09  5.22505E-09  5.12690E-09  5.02686E-09  4.92490E-09
   4.82091E-09  4.71472E-09  4.60625E-09  4.49540E-09  4.38197E-09  4.26587E-09  4.14707E-09  4.02556E-09  3.90165E-09  3.77618E-09
   3.65108E-09  3.53115E-09  3.42800E-09  3.37331E-09  3.46938E-09  4.16594E-09  8.40681E-09  1.65368E-08  2.00256E-08  2.02470E-08
   1.98354E-08  1.94289E-08  1.91736E-08  1.94639E-08  2.04771E-08  2.19991E-08  2.18467E-08  1.63477E-08  8.74556E-09  6.25008E-09
   5.15453E-09  4.50479E-09  4.05218E-09  3.70491E-09  3.42104E-09  3.17858E-09  2.96483E-09  2.77189E-09  2.59459E-09  2.42939E-09
   2.27379E-09  2.12597E-09  1.98456E-09  1.84856E-09  1.71713E-09  1.58966E-09  1.46567E-09  1.34475E-09  1.22657E-09  1.11088E-09
   9.97473E-10  8.86148E-10  7.76775E-10  6.69238E-10  5.63423E-10  4.59253E-10  3.56654E-10  2.55595E-10  1.55994E-10  5.78221E-11
  -3.89486E-11 -1.34335E-10 -2.28369E-10 -3.21056E-10 -4.12433E-10 -5.02488E-10 -5.91219E-10 -6.78646E-10 -7.64778E-10 -8.49593E-10
  -9.33090E-10 -1.01527E-09 -1.09614E-09 -1.17569E-09 -1.25392E-09 -1.33079E-09 -1.40633E-09 -1.48052E-09 -1.55333E-09 -1.62478E-09
  -1.69485E-09 -1.76353E-09 -1.83081E-09 -1.89669E-09 -1.96115E-09 -2.02418E-09 -2.08578E-09 -2.14594E-09 -2.20464E-09 -2.26188E-09
  -2.31766E-09 -2.37195E-09 -2.42477E-09 -2.47610E-09 -2.52598E-09 -2.57443E-09 -2.62145E-09 -2.66706E-09 -2.71129E-09 -2.75416E-09
  -2.79567E-09 -2.83585E-09 -2.87471E-09 -2.91227E-09 -2.94855E-09 -2.98357E-09 -3.01734E-09 -3.04987E-09 -3.08119E-09 -3.11131E-09
  -3.14025E-09 -3.16802E-09 -3.19463E-09 -3.22011E-09 -3.24447E-09 -3.26773E-09 -3.28989E-09 -3.31097E-09 -3.33099E-09 -3.34996E-09
  -3.36790E-09 -3.38482E-09 -3.40073E-09 -3.41564E-09 -3.42957E-09 -3.44253E-09 -3.45453E-09 -3.46559E-09 -3.47570E-09 -3.48490E-09
  -3.49318E-09 -3.50055E-09 -3.50704E-09 -3.51263E-09 -3.51735E-09 -3.52120E-09 -3.52420E-09 -3.52634E-09 -3.52764E-09 -3.52810E-09
  -3.52773E-09 -3.52653E-09 -3.52451E-09 -3.52168E-09 -3.51804E-09 -3.51360E-09 -3.50835E-09 -3.50230E-09 -3.49545E-09 -3.48781E-09
  -3.47938E-09 -3.47015E-09 -3.46013E-09 -3.44931E-09 -3.43768E-09 -3.42523E-09 -3.41194E-09 -3.39779E-09 -3.38278E-09 -3.36688E-09
  -3.35010E-09 -3.33241E-09 -3.31381E-09 -3.29428E-09 -3.27381E-09 -3.25239E-09 -3.23001E-09 -3.20665E-09 -3.18232E-09 -3.15700E-09
  -3.13068E-09 -3.10334E-09 -3.07500E-09 -3.04562E-09 -3.01522E-09 -2.98378E-09 -2.95128E-09 -2.91774E-09 -2.88314E-09 -2.84747E-09
  -2.81074E-09 -2.77293E-09 -2.73404E-09 -2.69407E-09 -2.65301E-09 -2.61086E-09 -2.56762E-09 -2.52328E-09 -2.47785E-09 -2.43132E-09
  -2.38369E-09 -2.33497E-09 -2.28514E-09 -2.23422E-09 -2.18219E-09 -2.12907E-09 -2.07486E-09 -2.01955E-09 -1.96315E-09 -1.90567E-09
  -1.84710E-09 -1.78745E-09 -1.72673E-09 -1.66493E-09 -1.60207E-09 -1.53816E-09 -1.47318E-09 -1.40717E-09 -1.34011E-09 -1.27203E-09
  -1.20292E-09 -1.13279E-09 -1.06166E-09
 NY background values follow
    -2.461E-09   -2.319E-09   -2.178E-09   -2.038E-09   -1.899E-09   -1.761E-09   -1.624E-09   -1.487E-09   -1.352E-09   -1.218E-09
    -1.085E-09   -9.529E-10   -8.219E-10   -6.920E-10   -5.631E-10   -4.354E-10   -3.087E-10   -1.832E-10   -5.883E-11    6.442E-11
     1.865E-10    3.074E-10    4.272E-10    5.458E-10    6.632E-10    7.794E-10    8.944E-10    1.008E-09    1.121E-09    1.232E-09
     1.342E-09    1.451E-09    1.559E-09    1.665E-09    1.770E-09    1.874E-09    1.976E-09    2.078E-09    2.178E-09    2.276E-09
     2.374E-09    2.470E-09    2.564E-09    2.658E-09    2.750E-09    2.841E-09    2.931E-09    3.019E-09    3.106E-09    3.191E-09
     3.276E-09    3.359E-09    3.440E-09    3.520E-09    3.599E-09    3.677E-09    3.753E-09    3.828E-09    3.902E-09    3.975E-09
     4.046E-09    4.115E-09    4.184E-09    4.251E-09    4.317E-09    4.381E-09    4.444E-09    4.506E-09    4.566E-09    4.625E-09
     4.683E-09    4.739E-09    4.794E-09    4.848E-09    4.900E-09    4.951E-09    5.001E-09    5.049E-09    5.096E-09    5.141E-09
     5.185E-09    5.227E-09    5.268E-09    5.308E-09    5.346E-09    5.383E-09    5.418E-09    5.452E-09    5.484E-09    5.515E-09
     5.544E-09    5.572E-09    5.599E-09    5.623E-09    5.647E-09    5.669E-09    5.689E-09    5.708E-09    5.725E-09    5.741E-09
     5.755E-09    5.767E-09    5.778E-09    5.788E-09    5.795E-09    5.802E-09    5.806E-09    5.809E-09    5.810E-09    5.810E-09
     5.808E-09    5.805E-09    5.799E-09    5.792E-09    5.784E-09    5.773E-09    5.761E-09    5.748E-09    5.732E-09    5.715E-09
     5.696E-09    5.676E-09    5.654E-09    5.630E-09    5.604E-09    5.577E-09    5.547E-09    5.517E-09    5.484E-09    5.450E-09
     5.415E-09    5.378E-09    5.339E-09    5.299E-09    5.257E-09    5.214E-09    5.169E-09    5.122E-09    5.075E-09    5.025E-09
     4.975E-09    4.923E-09    4.870E-09    4.815E-09    4.759E-09    4.702E-09    4.643E-09    4.584E-09    4.523E-09    4.460E-09
     4.397E-09    4.333E-09    4.267E-09    4.201E-09    4.133E-09    4.065E-09    3.995E-09    3.924E-09    3.853E-09    3.781E-09
     3.707E-09    3.633E-09    3.559E-09    3.483E-09    3.407E-09    3.330E-09    3.252E-09    3.173E-09    3.094E-09    3.015E-09
     2.935E-09    2.854E-09    2.773E-09    2.692E-09    2.610E-09    2.528E-09    2.445E-09    2.362E-09    2.279E-09    2.195E-09
     2.112E-09    2.028E-09    1.944E-09    1.860E-09    1.776E-09    1.692E-09    1.607E-09    1.523E-09    1.439E-09    1.355E-09
     1.271E-09    1.187E-09    1.104E-09    1.020E-09    9.369E-10    8.539E-10    7.713E-10    6.889E-10    6.069E-10    5.253E-10
     4.441E-10    3.634E-10    2.831E-10    2.033E-10    1.240E-10    4.532E-11   -3.283E-11   -1.103E-10   -1.872E-10   -2.635E-10
    -3.390E-10   -4.138E-10   -4.879E-10   -5.612E-10   -6.338E-10   -7.055E-10   -7.764E-10   -8.464E-10   -9.155E-10   -9.837E-10
    -1.051E-09   -1.117E-09   -1.183E-09   -1.247E-09   -1.310E-09   -1.372E-09   -1.434E-09   -1.494E-09   -1.553E-09   -1.611E-09
    -1.667E-09   -1.723E-09   -1.777E-09   -1.830E-09   -1.882E-09   -1.933E-09   -1.983E-09   -2.031E-09   -2.078E-09   -2.124E-09
    -2.168E-09   -2.211E-09   -2.253E-09   -2.293E-09   -2.332E-09   -2.370E-09   -2.407E-09   -2.442E-09   -2.476E-09   -2.509E-09
    -2.540E-09   -2.571E-09   -2.600E-09   -2.628E-09   -2.655E-09   -2.681E-09   -2.705E-09   -2.729E-09   -2.751E-09   -2.772E-09
    -2.792E-09   -2.811E-09   -2.829E-09   -2.847E-09   -2.863E-09   -2.878E-09   -2.892E-09   -2.905E-09   -2.917E-09   -2.928E-09
    -2.938E-09   -2.947E-09   -2.955E-09   -2.963E-09   -2.969E-09   -2.975E-09   -2.980E-09   -2.984E-09   -2.987E-09   -2.989E-09
    -2.990E-09   -2.991E-09   -2.990E-09   -2.989E-09   -2.987E-09   -2.985E-09   -2.981E-09   -2.977E-09   -2.972E-09   -2.966E-09
    -2.960E-09   -2.952E-09   -2.944E-09   -2.935E-09   -2.926E-09   -2.916E-09   -2.905E-09   -2.893E-09   -2.881E-09   -2.867E-09
    -2.853E-09   -2.839E-09   -2.823E-09   -2.807E-09   -2.790E-09   -2.773E-09   -2.754E-09   -2.735E-09   -2.715E-09   -2.695E-09
    -2.673E-09   -2.650E-09   -2.627E-09   -2.603E-09   -2.578E-09   -2.552E-09   -2.525E-09   -2.497E-09   -2.469E-09   -2.439E-09
    -2.408E-09   -2.377E-09   -2.344E-09   -2.311E-09   -2.276E-09   -2.241E-09   -2.205E-09   -2.167E-09   -2.129E-09   -2.090E-09
    -2.049E-09   -2.008E-09   -1.965E-09   -1.922E-09   -1.877E-09   -1.832E-09   -1.785E-09   -1.737E-09   -1.689E-09   -1.639E-09
    -1.588E-09   -1.536E-09   -1.483E-09   -1.430E-09   -1.375E-09   -1.319E-09   -1.262E-09   -1.203E-09   -1.144E-09   -1.084E-09
    -1.023E-09   -9.606E-10   -8.974E-10   -8.331E-10   -7.678E-10   -7.015E-10   -6.342E-10   -5.659E-10   -4.966E-10   -4.263E-10
    -3.550E-10   -2.828E-10   -2.096E-10
 Gln      Conc. = 1.13E-09
  -3.61709E-09 -3.39525E-09 -3.09821E-09 -2.74572E-09 -2.41456E-09 -2.09592E-09 -1.75052E-09 -1.43496E-09 -1.22061E-09 -8.48897E-10
  -5.51139E-10 -4.82849E-10 -2.70447E-10 -2.32685E-10 -2.09282E-10 -1.65677E-10 -1.06759E-10 -3.77225E-11  3.83175E-11  1.19357E-10
   2.03903E-10  2.90873E-10  3.79384E-10  4.68664E-10  5.58361E-10  6.48575E-10  7.38517E-10  8.27983E-10  9.17048E-10  1.00532E-09
   1.09258E-09  1.17865E-09  1.26338E-09  1.34662E-09  1.42822E-09  1.50801E-09  1.58584E-09  1.66153E-09  1.73480E-09  1.80552E-09
   1.87348E-09  1.93835E-09  2.00003E-09  2.05815E-09  2.11195E-09  2.16122E-09  2.20523E-09  2.24178E-09  2.27153E-09  2.29445E-09
   2.30500E-09  2.30275E-09  2.28861E-09  2.27332E-09  2.39988E-09  2.76056E-09  2.89133E-09  3.10445E-09  3.64174E-09  4.09732E-09
   4.34270E-09  4.68077E-09  5.03425E-09  5.36439E-09  5.63311E-09  5.68095E-09  5.63699E-09  5.82797E-09  5.73462E-09  5.41036E-09
   5.17615E-09  5.19081E-09  5.23489E-09  5.16729E-09  5.29545E-09  5.64276E-09  5.85440E-09  6.10408E-09  6.39701E-09  6.64406E-09
   6.90462E-09  7.18563E-09  7.24298E-09  7.30199E-09  7.48303E-09  7.38664E-09  7.22344E-09  7.19891E-09  7.06265E-09  6.92159E-09
   6.81648E-09  6.73622E-09  6.67447E-09  6.62608E-09  6.58544E-09  6.55111E-09  6.52211E-09  6.49666E-09  6.47407E-09  6.45397E-09
   6.43561E-09  6.41827E-09  6.40161E-09  6.38532E-09  6.36931E-09  6.35338E-09  6.33724E-09  6.32076E-09  6.30382E-09  6.28624E-09
   6.26798E-09  6.24889E-09  6.22894E-09  6.20800E-09  6.18606E-09  6.16302E-09  6.13886E-09  6.11350E-09  6.08691E-09  6.05909E-09
   6.02988E-09  5.99934E-09  5.96743E-09  5.93413E-09  5.89944E-09  5.86334E-09  5.82583E-09  5.78691E-09  5.74659E-09  5.70485E-09
   5.66170E-09  5.61716E-09  5.57121E-09  5.52387E-09  5.47515E-09  5.42505E-09  5.37358E-09  5.32076E-09  5.26660E-09  5.21110E-09
   5.15429E-09  5.09616E-09  5.03673E-09  4.97605E-09  4.91408E-09  4.85083E-09  4.78636E-09  4.72066E-09  4.65373E-09  4.58560E-09
   4.51629E-09  4.44576E-09  4.37407E-09  4.30122E-09  4.22719E-09  4.15199E-09  4.07566E-09  3.99819E-09  3.91960E-09  3.84000E-09
   3.75947E-09  3.67840E-09  3.59754E-09  3.51900E-09  3.44904E-09  3.41200E-09  3.55277E-09  4.47243E-09  4.91739E-09  4.90373E-09
   4.78460E-09  4.66664E-09  4.54961E-09  4.48615E-09  4.49304E-09  4.58949E-09  4.63689E-09  4.19916E-09  3.10882E-09  2.69528E-09
   2.48545E-09  2.33422E-09  2.20733E-09  2.09297E-09  1.98593E-09  1.88361E-09  1.78453E-09  1.68781E-09  1.59288E-09  1.49937E-09
   1.40701E-09  1.31565E-09  1.22514E-09  1.13543E-09  1.04642E-09  9.58074E-10  8.70382E-10  7.83320E-10  6.96870E-10  6.11044E-10
   5.25840E-10  4.41250E-10  3.57296E-10  2.73998E-10  1.91354E-10  1.09388E-10  2.81096E-11 -5.24345E-11 -1.32261E-10 -2.11340E-10
  -2.89647E-10 -3.67153E-10 -4.43847E-10 -5.19699E-10 -5.94713E-10 -6.68845E-10 -7.42069E-10 -8.14377E-10 -8.85757E-10 -9.56165E-10
  -1.02559E-09 -1.09400E-09 -1.16140E-09 -1.22776E-09 -1.29307E-09 -1.35727E-09 -1.42039E-09 -1.48239E-09 -1.54324E-09 -1.60294E-09
  -1.66147E-09 -1.71880E-09 -1.77493E-09 -1.82984E-09 -1.88351E-09 -1.93592E-09 -1.98706E-09 -2.03693E-09 -2.08550E-09 -2.13275E-09
  -2.17869E-09 -2.22329E-09 -2.26655E-09 -2.30846E-09 -2.34905E-09 -2.38833E-09 -2.42632E-09 -2.46302E-09 -2.49845E-09 -2.53263E-09
  -2.56557E-09 -2.59729E-09 -2.62781E-09 -2.65713E-09 -2.68527E-09 -2.71225E-09 -2.73808E-09 -2.76277E-09 -2.78635E-09 -2.80882E-09
  -2.83020E-09 -2.85050E-09 -2.86975E-09 -2.88794E-09 -2.90510E-09 -2.92124E-09 -2.93637E-09 -2.95050E-09 -2.96366E-09 -2.97585E-09
  -2.98708E-09 -2.99737E-09 -3.00673E-09 -3.01516E-09 -3.02269E-09 -3.02933E-09 -3.03508E-09 -3.03995E-09 -3.04396E-09 -3.04712E-09
  -3.04943E-09 -3.05090E-09 -3.05155E-09 -3.05139E-09 -3.05041E-09 -3.04863E-09 -3.04606E-09 -3.04270E-09 -3.03856E-09 -3.03365E-09
  -3.02797E-09 -3.02152E-09 -3.01432E-09 -3.00636E-09 -2.99766E-09 -2.98821E-09 -2.97801E-09 -2.96708E-09 -2.95540E-09 -2.94299E-09
  -2.92985E-09 -2.91597E-09 -2.90135E-09 -2.88599E-09 -2.86988E-09 -2.85299E-09 -2.83532E-09 -2.81686E-09 -2.79758E-09 -2.77747E-09
  -2.75653E-09 -2.73474E-09 -2.71208E-09 -2.68855E-09 -2.66413E-09 -2.63881E-09 -2.61259E-09 -2.58544E-09 -2.55737E-09 -2.52835E-09
  -2.49839E-09 -2.46747E-09 -2.43558E-09 -2.40271E-09 -2.36886E-09 -2.33403E-09 -2.29819E-09 -2.26135E-09 -2.22350E-09 -2.18463E-09
  -2.14474E-09 -2.10382E-09 -2.06187E-09 -2.01888E-09 -1.97486E-09 -1.92979E-09 -1.88367E-09 -1.83651E-09 -1.78830E-09 -1.73903E-09
  -1.68871E-09 -1.63734E-09 -1.58491E-09 -1.53143E-09 -1.47689E-09 -1.42130E-09 -1.36466E-09 -1.30698E-09 -1.24824E-09 -1.18846E-09
  -1.12765E-09 -1.06579E-09 -1.00291E-09 -9.38992E-10 -8.74056E-10 -8.08103E-10 -7.41141E-10 -6.73174E-10 -6.04211E-10 -5.34258E-10
  -4.63324E-10 -3.91416E-10 -3.18545E-10
 GPC      Conc. = 2.76E-11
  -2.56233E-09 -2.41213E-09 -2.25955E-09 -2.12303E-09 -1.98340E-09 -1.84318E-09 -1.69051E-09 -1.53935E-09 -1.39425E-09 -1.25412E-09
  -1.11545E-09 -9.74001E-10 -8.28812E-10 -6.85307E-10 -5.40264E-10 -4.16857E-10 -3.07383E-10 -2.12268E-10 -1.18499E-10 -2.75554E-11
   5.62016E-11  1.25294E-10  1.65327E-10  2.21439E-10  4.67614E-10  7.12118E-10  8.99401E-10  1.05772E-09  1.20285E-09  1.33714E-09
   1.47366E-09  1.62793E-09  1.82848E-09  2.07144E-09  2.23488E-09  2.22472E-09  2.26044E-09  2.31985E-09  2.39061E-09  2.46742E-09
   2.54765E-09  2.62981E-09  2.71301E-09  2.79666E-09  2.88035E-09  2.96381E-09  3.04682E-09  3.12922E-09  3.21091E-09  3.29179E-09
   3.37177E-09  3.45079E-09  3.52881E-09  3.60579E-09  3.68168E-09  3.75646E-09  3.83012E-09  3.90264E-09  3.97398E-09  4.04416E-09
   4.11314E-09  4.18090E-09  4.24745E-09  4.31279E-09  4.37688E-09  4.43972E-09  4.50131E-09  4.56163E-09  4.62067E-09  4.67841E-09
   4.73486E-09  4.79001E-09  4.84384E-09  4.89634E-09  4.94752E-09  4.99736E-09  5.04583E-09  5.09297E-09  5.13872E-09  5.18312E-09
   5.22612E-09  5.26774E-09  5.30794E-09  5.34676E-09  5.38416E-09  5.42012E-09  5.45467E-09  5.48777E-09  5.51942E-09  5.54961E-09
   5.57833E-09  5.60560E-09  5.63137E-09  5.65565E-09  5.67844E-09  5.69971E-09  5.71947E-09  5.73770E-09  5.75439E-09  5.76956E-09
   5.78316E-09  5.79520E-09  5.80568E-09  5.81458E-09  5.82189E-09  5.82761E-09  5.83171E-09  5.83422E-09  5.83512E-09  5.83437E-09
   5.83201E-09  5.82797E-09  5.82230E-09  5.81495E-09  5.80595E-09  5.79527E-09  5.78291E-09  5.76886E-09  5.75310E-09  5.73570E-09
   5.71649E-09  5.69560E-09  5.67298E-09  5.64866E-09  5.62264E-09  5.59494E-09  5.56557E-09  5.53455E-09  5.50190E-09  5.46762E-09
   5.43174E-09  5.39428E-09  5.35524E-09  5.31466E-09  5.27255E-09  5.22893E-09  5.18381E-09  5.13723E-09  5.08921E-09  5.03976E-09
   4.98891E-09  4.93667E-09  4.88308E-09  4.82819E-09  4.77195E-09  4.71443E-09  4.65566E-09  4.59567E-09  4.53445E-09  4.47206E-09
   4.40854E-09  4.34386E-09  4.27809E-09  4.21128E-09  4.14340E-09  4.07449E-09  4.00463E-09  3.93380E-09  3.86203E-09  3.78940E-09
   3.71586E-09  3.64153E-09  3.56641E-09  3.49062E-09  3.41431E-09  3.33817E-09  3.26627E-09  3.21242E-09  3.14550E-09  3.06715E-09
   2.98600E-09  2.90443E-09  2.82246E-09  2.74138E-09  2.66166E-09  2.58374E-09  2.50392E-09  2.41149E-09  2.30381E-09  2.21279E-09
   2.12610E-09  2.04056E-09  1.95547E-09  1.87058E-09  1.78577E-09  1.70105E-09  1.61639E-09  1.53180E-09  1.44730E-09  1.36292E-09
   1.27866E-09  1.19457E-09  1.11067E-09  1.02699E-09  9.43550E-10  8.60373E-10  7.77506E-10  6.94971E-10  6.12788E-10  5.30999E-10
   4.49629E-10  3.68690E-10  2.88225E-10  2.08269E-10  1.28833E-10  4.99533E-11 -2.83486E-11 -1.06019E-10 -1.83065E-10 -2.59451E-10
  -3.35145E-10 -4.10114E-10 -4.84340E-10 -5.57791E-10 -6.30465E-10 -7.02315E-10 -7.73310E-10 -8.43442E-10 -9.12695E-10 -9.81022E-10
  -1.04841E-09 -1.11483E-09 -1.18027E-09 -1.24471E-09 -1.30814E-09 -1.37050E-09 -1.43180E-09 -1.49203E-09 -1.55113E-09 -1.60911E-09
