 LCModel (Version 6.3-1R) Copyright: S.W. Provencher.          Ref.: Magn. Reson. Med. 30:672-679 (1993).                
 onepulse 13x15_ftSpec_smooth_lcm
 26 lines in following concentration table = NCONC+1
    Conc.  %SD   /Cr    Metabolite                                         
    0.000 999%   0.000 Ala                                                 
 7.13E-10 111%   0.000 Asp                                                 
    0.000 999%   0.000 Cr                                                  
 5.91E-10 115%   0.000 GABA                                                
    0.000 999%   0.000 Glc                                                 
 1.96E-09  36%   0.000 Gln                                                 
    0.000 999%   0.000 Glu                                                 
    0.000 999%   0.000 Glyc                                                
    0.000 999%   0.000 GPC                                                 
 1.58E-09  37%   0.000 GSH                                                 
 2.54E-09  19%   0.000 Ins                                                 
    0.000 999%   0.000 Lac                                                 
 4.10E-10  87%   0.000 NAAG                                                
 1.15E-10 463%   0.000 NAA                                                 
    0.000 999%   0.000 PCh                                                 
    0.000 999%   0.000 PCr                                                 
 2.74E-09  37%   0.000 PE                                                  
 3.14E-10  87%   0.000 Scyllo                                              
 6.54E-10 154%   0.000 Ser                                                 
 2.48E-10 403%   0.000 Tau                                                 
    0.000 999%   0.000 GPC+PCh                                             
 5.25E-10  65%   0.000 NAA+NAAG                                            
 2.54E-09  19%   0.000 Ins+Glyc                                            
    0.000 999%   0.000 Cr+PCr                                              
 1.96E-09  36%   0.000 Glu+Gln                                             
   6 lines in following misc. output table
  FWHM = 0.123 ppm    S/N =   3                                            
  Data shift = 0.425 ppm                                                   
  Ph: -12 deg     -43.1 deg/ppm                                            
  alphaB,S = 3.2E-01,   1.1E+01                                            
   10 spline knots.   Ns = 5(1)                                            
  (11) 6 infls.   (11) 5 extrs.                                            
  363 points on ppm-axis = NY
      4.250000     4.238821     4.227641     4.216462     4.205282     4.194103     4.182923     4.171744     4.160564     4.149385
      4.138206     4.127026     4.115847     4.104667     4.093488     4.082308     4.071129     4.059949     4.048770     4.037591
      4.026411     4.015232     4.004052     3.992873     3.981693     3.970514     3.959334     3.948155     3.936975     3.925796
      3.914617     3.903437     3.892258     3.881078     3.869899     3.858719     3.847540     3.836360     3.825181     3.814002
      3.802822     3.791643     3.780463     3.769284     3.758104     3.746925     3.735745     3.724566     3.713387     3.702207
      3.691028     3.679848     3.668669     3.657489     3.646310     3.635130     3.623951     3.612772     3.601592     3.590413
      3.579233     3.568054     3.556874     3.545695     3.534515     3.523336     3.512156     3.500977     3.489798     3.478618
      3.467439     3.456259     3.445080     3.433900     3.422721     3.411541     3.400362     3.389183     3.378003     3.366824
      3.355644     3.344465     3.333285     3.322106     3.310926     3.299747     3.288568     3.277388     3.266209     3.255029
      3.243850     3.232670     3.221491     3.210311     3.199132     3.187953     3.176773     3.165594     3.154414     3.143235
      3.132055     3.120876     3.109696     3.098517     3.087337     3.076158     3.064979     3.053799     3.042620     3.031440
      3.020261     3.009081     2.997902     2.986722     2.975543     2.964364     2.953184     2.942005     2.930825     2.919646
      2.908466     2.897287     2.886107     2.874928     2.863749     2.852569     2.841390     2.830210     2.819031     2.807851
      2.796672     2.785492     2.774313     2.763134     2.751954     2.740775     2.729595     2.718416     2.707236     2.696057
      2.684877     2.673698     2.662519     2.651339     2.640160     2.628980     2.617801     2.606621     2.595442     2.584262
      2.573083     2.561903     2.550724     2.539545     2.528365     2.517186     2.506006     2.494827     2.483647     2.472468
      2.461288     2.450109     2.438930     2.427750     2.416571     2.405391     2.394212     2.383032     2.371853     2.360673
      2.349494     2.338315     2.327135     2.315956     2.304776     2.293597     2.282417     2.271238     2.260058     2.248879
      2.237700     2.226520     2.215341     2.204161     2.192982     2.181802     2.170623     2.159443     2.148264     2.137084
      2.125905     2.114726     2.103546     2.092367     2.081187     2.070008     2.058828     2.047649     2.036469     2.025290
      2.014111     2.002931     1.991752     1.980572     1.969393     1.958213     1.947034     1.935854     1.924675     1.913496
      1.902316     1.891137     1.879957     1.868778     1.857598     1.846419     1.835239     1.824060     1.812881     1.801701
      1.790522     1.779342     1.768163     1.756983     1.745804     1.734624     1.723445     1.712265     1.701086     1.689907
      1.678727     1.667548     1.656368     1.645189     1.634009     1.622830     1.611650     1.600471     1.589292     1.578112
      1.566933     1.555753     1.544574     1.533394     1.522215     1.511035     1.499856     1.488677     1.477497     1.466318
      1.455138     1.443959     1.432779     1.421600     1.410420     1.399241     1.388062     1.376882     1.365703     1.354523
      1.343344     1.332164     1.320985     1.309805     1.298626     1.287446     1.276267     1.265088     1.253908     1.242729
      1.231549     1.220370     1.209190     1.198011     1.186831     1.175652     1.164473     1.153293     1.142114     1.130934
      1.119755     1.108575     1.097396     1.086216     1.075037     1.063858     1.052678     1.041499     1.030319     1.019140
      1.007960     0.996781     0.985601     0.974422     0.963243     0.952063     0.940884     0.929704     0.918525     0.907345
      0.896166     0.884986     0.873807     0.862628     0.851448     0.840269     0.829089     0.817910     0.806730     0.795551
      0.784371     0.773192     0.762012     0.750833     0.739654     0.728474     0.717295     0.706115     0.694936     0.683756
      0.672577     0.661397     0.650218     0.639039     0.627859     0.616680     0.605500     0.594321     0.583141     0.571962
      0.560782     0.549603     0.538424     0.527244     0.516065     0.504885     0.493706     0.482526     0.471347     0.460167
      0.448988     0.437809     0.426629     0.415450     0.404270     0.393091     0.381911     0.370732     0.359552     0.348373
      0.337193     0.326014     0.314835     0.303655     0.292476     0.281296     0.270117     0.258937     0.247758     0.236578
      0.225399     0.214220     0.203040
 NY phased data points follow
   1.46651E-08  1.11321E-08  1.40659E-08  1.13797E-08  1.38027E-08  1.19003E-08  1.44142E-08  1.25552E-08  1.46804E-08  1.27828E-08
   1.48307E-08  1.22527E-08  1.42218E-08  1.18438E-08  1.37605E-08  1.15648E-08  1.35303E-08  1.17063E-08  1.44400E-08  1.25198E-08
   1.36196E-08  1.18110E-08  1.29644E-08  1.15656E-08  1.38181E-08  1.34445E-08  1.52621E-08  1.42431E-08  1.56640E-08  1.35741E-08
   1.37025E-08  1.22040E-08  1.21729E-08  1.13481E-08  1.15862E-08  1.12023E-08  1.10604E-08  1.04064E-08  1.12265E-08  9.93870E-09
   1.03319E-08  9.49096E-09  9.34991E-09  9.28600E-09  9.77671E-09  8.88215E-09  9.57957E-09  9.09359E-09  8.67851E-09  8.15431E-09
   8.45601E-09  7.42435E-09  7.84883E-09  7.72218E-09  8.28410E-09  9.45024E-09  1.04377E-08  1.34521E-08  1.39681E-08  1.41514E-08
   1.35846E-08  1.28266E-08  1.24848E-08  1.14821E-08  1.04234E-08  1.03188E-08  9.93580E-09  9.42965E-09  8.39971E-09  7.54189E-09
   6.96982E-09  7.58522E-09  9.10886E-09  1.21015E-08  1.40213E-08  1.66461E-08  1.58077E-08  1.59342E-08  1.47770E-08  1.52486E-08
   1.44374E-08  1.48557E-08  1.34725E-08  1.36877E-08  1.30821E-08  1.35323E-08  1.28287E-08  1.28851E-08  1.15983E-08  1.20232E-08
   1.12037E-08  1.12236E-08  1.02858E-08  1.02935E-08  9.40481E-09  9.96573E-09  9.28828E-09  9.64956E-09  9.47766E-09  9.59798E-09
   9.04986E-09  9.63184E-09  7.87842E-09  7.99336E-09  7.44499E-09  7.31279E-09  6.51194E-09  7.81940E-09  6.94771E-09  8.08547E-09
   7.41683E-09  8.05001E-09  7.09592E-09  8.67047E-09  7.95378E-09  8.74710E-09  7.75208E-09  8.19538E-09  6.70643E-09  6.91899E-09
   5.61165E-09  6.45692E-09  5.92327E-09  6.43999E-09  5.72525E-09  6.24516E-09  5.89433E-09  6.74993E-09  6.17563E-09  6.97665E-09
   5.85604E-09  6.53828E-09  5.67371E-09  7.08182E-09  6.97305E-09  8.70355E-09  7.48984E-09  8.99465E-09  7.51074E-09  9.15395E-09
   9.09137E-09  1.02772E-08  9.29839E-09  1.05943E-08  9.56325E-09  1.02572E-08  9.61037E-09  1.04944E-08  1.01817E-08  1.03499E-08
   9.16689E-09  1.05471E-08  9.16482E-09  1.07492E-08  9.78716E-09  1.06869E-08  9.24540E-09  1.04604E-08  9.64282E-09  9.06286E-09
   7.88905E-09  8.58868E-09  7.39720E-09  8.48015E-09  9.72678E-09  1.53370E-08  1.78316E-08  2.09974E-08  2.03893E-08  2.16509E-08
   2.09833E-08  2.19966E-08  2.08252E-08  2.14665E-08  2.05144E-08  2.09450E-08  2.00929E-08  2.05023E-08  1.82955E-08  1.86703E-08
   1.60507E-08  1.60641E-08  1.32461E-08  1.18880E-08  8.69953E-09  7.32912E-09  4.35855E-09  2.16977E-09 -8.52263E-10 -2.01782E-09
  -5.33762E-09 -6.55847E-09 -9.11852E-09 -1.01484E-08 -1.15282E-08 -1.05775E-08 -1.16173E-08 -1.03776E-08 -1.07914E-08 -8.44437E-09
  -8.77467E-09 -6.35499E-09 -5.83213E-09 -4.51597E-09 -4.53068E-09 -2.40374E-09 -3.28235E-09 -2.23299E-09 -2.57879E-09 -2.25117E-09
  -3.60816E-09 -2.15779E-09 -3.01147E-09 -2.12859E-09 -3.15148E-09 -1.53432E-09 -2.27178E-09 -1.32083E-09 -2.01887E-09 -1.08512E-09
  -1.87047E-09 -1.24255E-09 -2.65615E-09 -1.80010E-09 -1.92333E-09 -1.52359E-09 -2.24408E-09 -1.29531E-09 -1.89281E-09 -5.07200E-10
  -1.91540E-09 -6.73534E-10 -1.67102E-09 -1.17671E-09 -2.21950E-09 -1.45610E-09 -1.98427E-09 -1.50683E-09 -3.09546E-09 -1.36627E-09
  -2.18453E-09 -1.28052E-09 -1.67347E-09 -1.28995E-09 -1.85761E-09 -5.11801E-10 -1.99026E-09 -4.84044E-10 -1.08814E-09 -2.19891E-10
  -1.51866E-09 -4.84897E-10 -1.19777E-09 -5.62921E-10 -1.62998E-09 -1.16959E-09 -2.02827E-09 -1.59493E-09 -2.73551E-09 -1.94643E-09
  -2.72334E-09 -2.27554E-09 -3.35387E-09 -2.33082E-09 -2.64258E-09 -2.26804E-09 -2.38732E-09 -2.05626E-09 -2.56245E-09 -1.33607E-09
  -1.60452E-09 -2.75545E-10 -1.31394E-09 -2.49292E-10 -1.08510E-09 -4.08066E-10 -9.69701E-10 -2.46172E-10 -4.48140E-10 -3.89979E-10
  -6.57808E-10 -2.88790E-10 -6.64234E-10 -4.55261E-13 -9.25406E-10 -2.82288E-10 -1.39966E-09 -4.07471E-10 -1.15658E-09  4.81762E-12
  -9.63068E-10 -5.92647E-10 -1.22040E-09 -4.69298E-10 -9.49803E-10 -7.95800E-10 -1.34111E-09 -9.94219E-10 -1.33676E-09 -9.69820E-10
  -1.27757E-09 -1.22906E-09 -1.72806E-09 -1.37100E-09 -1.72528E-09 -1.30589E-09 -1.37850E-09 -1.48607E-09 -2.06110E-09 -1.82224E-09
  -1.46805E-09 -1.99628E-09 -2.24301E-09 -1.46083E-09 -1.80362E-09 -2.47936E-09 -2.26232E-09 -1.55259E-09 -2.52583E-09 -2.39711E-09
  -2.33629E-09 -1.94172E-09 -2.06543E-09 -2.32201E-09 -2.25725E-09 -2.30347E-09 -2.76860E-09 -2.04221E-09 -1.82494E-09 -2.57981E-09
  -2.58585E-09 -2.63757E-09 -2.82057E-09 -2.71455E-09 -2.34500E-09 -2.50203E-09 -2.85174E-09 -2.66709E-09 -3.13621E-09 -2.95580E-09
  -2.91444E-09 -2.42463E-09 -3.25131E-09 -2.70359E-09 -2.76233E-09 -2.63005E-09 -2.95590E-09 -3.27762E-09 -3.01733E-09 -2.83504E-09
  -3.10098E-09 -2.82151E-09 -3.54993E-09 -3.11535E-09 -2.84039E-09 -3.54354E-09 -2.91268E-09 -3.44345E-09 -2.89754E-09 -3.04441E-09
  -3.31770E-09 -3.07079E-09 -3.14797E-09
 NY points of the fit to the data follow
   1.39484E-08  1.31371E-08  1.30114E-08  1.20606E-08  1.18147E-08  1.29928E-08  1.34635E-08  1.33464E-08  1.48848E-08  1.48186E-08
   1.39925E-08  1.34469E-08  1.27035E-08  1.25131E-08  1.31057E-08  1.31541E-08  1.18979E-08  1.23229E-08  1.44936E-08  1.39166E-08
   1.16662E-08  1.13624E-08  1.24763E-08  1.32925E-08  1.30991E-08  1.40173E-08  1.48414E-08  1.51698E-08  1.46740E-08  1.35222E-08
   1.33254E-08  1.31754E-08  1.25143E-08  1.18338E-08  1.14620E-08  1.13577E-08  1.07901E-08  1.05195E-08  1.02553E-08  9.96972E-09
   9.70217E-09  9.72092E-09  9.97972E-09  9.83780E-09  9.44987E-09  8.85331E-09  8.67654E-09  7.63161E-09  7.37879E-09  7.46299E-09
   7.93889E-09  8.37834E-09  8.60787E-09  9.45092E-09  1.04695E-08  1.06160E-08  1.07238E-08  1.18595E-08  1.25642E-08  1.22991E-08
   1.23368E-08  1.21957E-08  1.21384E-08  1.21581E-08  1.15174E-08  1.08952E-08  1.08248E-08  1.06072E-08  9.76791E-09  9.73477E-09
   1.02425E-08  1.05876E-08  1.12089E-08  1.14427E-08  1.23572E-08  1.35066E-08  1.44703E-08  1.52118E-08  1.55291E-08  1.56435E-08
   1.54436E-08  1.51815E-08  1.47382E-08  1.41208E-08  1.39622E-08  1.34021E-08  1.25277E-08  1.12318E-08  1.01834E-08  9.72786E-09
   9.38530E-09  9.12081E-09  9.09376E-09  8.98708E-09  8.68272E-09  8.65480E-09  8.61848E-09  8.41350E-09  8.34809E-09  8.28934E-09
   8.21024E-09  8.17655E-09  8.15506E-09  8.13728E-09  8.13133E-09  8.13430E-09  8.14328E-09  8.15721E-09  8.17410E-09  8.19356E-09
   8.21500E-09  8.23770E-09  8.26127E-09  8.28529E-09  8.30939E-09  8.33341E-09  8.35703E-09  8.37993E-09  8.40190E-09  8.42271E-09
   8.44213E-09  8.46002E-09  8.47617E-09  8.49041E-09  8.50255E-09  8.51245E-09  8.51995E-09  8.52487E-09  8.52708E-09  8.52643E-09
   8.52277E-09  8.51596E-09  8.50587E-09  8.49235E-09  8.47528E-09  8.45452E-09  8.42994E-09  8.40142E-09  8.36882E-09  8.33204E-09
   8.29094E-09  8.24541E-09  8.19535E-09  8.14064E-09  8.08118E-09  8.01686E-09  7.94762E-09  7.87337E-09  7.79406E-09  7.70965E-09
   7.62012E-09  7.52551E-09  7.42590E-09  7.32145E-09  7.21243E-09  7.09928E-09  6.98277E-09  6.86425E-09  6.74594E-09  6.63117E-09
   6.52553E-09  6.43890E-09  6.39072E-09  6.42427E-09  6.65555E-09  7.50068E-09  1.12760E-08  2.00941E-08  2.29362E-08  2.21646E-08
   2.18956E-08  2.21632E-08  2.18665E-08  2.14565E-08  2.11352E-08  2.17008E-08  2.29400E-08  2.04259E-08  1.07953E-08  6.37556E-09
   4.87323E-09  4.08152E-09  3.54566E-09  3.12999E-09  2.78057E-09  2.47196E-09  2.19056E-09  1.92852E-09  1.68113E-09  1.44532E-09
   1.21909E-09  1.00112E-09  7.90486E-10  5.86641E-10  3.89134E-10  1.97753E-10  1.23491E-11 -1.67107E-10 -3.40648E-10 -5.08188E-10
  -6.69642E-10 -8.24900E-10 -9.73809E-10 -1.11622E-09 -1.25195E-09 -1.38082E-09 -1.50259E-09 -1.61713E-09 -1.72426E-09 -1.82418E-09
  -1.91708E-09 -2.00316E-09 -2.08262E-09 -2.15565E-09 -2.22243E-09 -2.28317E-09 -2.33803E-09 -2.38720E-09 -2.43087E-09 -2.46923E-09
  -2.50242E-09 -2.53065E-09 -2.55409E-09 -2.57292E-09 -2.58731E-09 -2.59744E-09 -2.60346E-09 -2.60559E-09 -2.60398E-09 -2.59879E-09
  -2.59019E-09 -2.57839E-09 -2.56351E-09 -2.54578E-09 -2.52532E-09 -2.50233E-09 -2.47699E-09 -2.44943E-09 -2.41986E-09 -2.38843E-09
  -2.35531E-09 -2.32067E-09 -2.28469E-09 -2.24755E-09 -2.20938E-09 -2.17039E-09 -2.13074E-09 -2.09060E-09 -2.05011E-09 -2.00945E-09
  -1.96882E-09 -1.92838E-09 -1.88829E-09 -1.84869E-09 -1.80981E-09 -1.77176E-09 -1.73475E-09 -1.69893E-09 -1.66447E-09 -1.63156E-09
  -1.60025E-09 -1.57053E-09 -1.54240E-09 -1.51583E-09 -1.49081E-09 -1.46731E-09 -1.44531E-09 -1.42481E-09 -1.40576E-09 -1.38817E-09
  -1.37201E-09 -1.35725E-09 -1.34390E-09 -1.33190E-09 -1.32126E-09 -1.31196E-09 -1.30396E-09 -1.29727E-09 -1.29184E-09 -1.28767E-09
  -1.28473E-09 -1.28303E-09 -1.28250E-09 -1.28315E-09 -1.28497E-09 -1.28793E-09 -1.29200E-09 -1.29717E-09 -1.30343E-09 -1.31075E-09
  -1.31911E-09 -1.32848E-09 -1.33886E-09 -1.35023E-09 -1.36256E-09 -1.37584E-09 -1.39004E-09 -1.40514E-09 -1.42112E-09 -1.43798E-09
  -1.45569E-09 -1.47420E-09 -1.49354E-09 -1.51365E-09 -1.53454E-09 -1.55618E-09 -1.57855E-09 -1.60161E-09 -1.62538E-09 -1.64981E-09
  -1.67490E-09 -1.70063E-09 -1.72695E-09 -1.75387E-09 -1.78136E-09 -1.80940E-09 -1.83798E-09 -1.86707E-09 -1.89666E-09 -1.92672E-09
  -1.95725E-09 -1.98821E-09 -2.01959E-09 -2.05137E-09 -2.08353E-09 -2.11606E-09 -2.14892E-09 -2.18211E-09 -2.21561E-09 -2.24938E-09
  -2.28343E-09 -2.31772E-09 -2.35224E-09 -2.38697E-09 -2.42188E-09 -2.45697E-09 -2.49221E-09 -2.52758E-09 -2.56306E-09 -2.59863E-09
  -2.63428E-09 -2.66998E-09 -2.70572E-09 -2.74147E-09 -2.77722E-09 -2.81295E-09 -2.84864E-09 -2.88427E-09 -2.91982E-09 -2.95526E-09
  -2.99060E-09 -3.02579E-09 -3.06083E-09 -3.09569E-09 -3.13036E-09 -3.16482E-09 -3.19904E-09 -3.23300E-09 -3.26671E-09 -3.30011E-09
  -3.33321E-09 -3.36598E-09 -3.39841E-09
 NY background values follow
    -2.555E-09   -2.457E-09   -2.357E-09   -2.258E-09   -2.159E-09   -2.059E-09   -1.960E-09   -1.860E-09   -1.760E-09   -1.661E-09
    -1.561E-09   -1.461E-09   -1.361E-09   -1.261E-09   -1.161E-09   -1.061E-09   -9.616E-10   -8.618E-10   -7.622E-10   -6.626E-10
    -5.632E-10   -4.639E-10   -3.648E-10   -2.658E-10   -1.670E-10   -6.843E-11    2.995E-11    1.281E-10    2.260E-10    3.236E-10
     4.210E-10    5.180E-10    6.148E-10    7.112E-10    8.073E-10    9.030E-10    9.983E-10    1.093E-09    1.188E-09    1.282E-09
     1.375E-09    1.469E-09    1.561E-09    1.654E-09    1.745E-09    1.836E-09    1.927E-09    2.017E-09    2.107E-09    2.196E-09
     2.284E-09    2.372E-09    2.459E-09    2.545E-09    2.631E-09    2.716E-09    2.800E-09    2.884E-09    2.967E-09    3.050E-09
     3.132E-09    3.213E-09    3.294E-09    3.374E-09    3.453E-09    3.532E-09    3.610E-09    3.688E-09    3.765E-09    3.842E-09
     3.918E-09    3.993E-09    4.068E-09    4.142E-09    4.215E-09    4.288E-09    4.361E-09    4.433E-09    4.504E-09    4.575E-09
     4.645E-09    4.715E-09    4.784E-09    4.853E-09    4.921E-09    4.989E-09    5.056E-09    5.123E-09    5.189E-09    5.254E-09
     5.319E-09    5.384E-09    5.448E-09    5.512E-09    5.575E-09    5.638E-09    5.700E-09    5.762E-09    5.823E-09    5.884E-09
     5.944E-09    6.004E-09    6.063E-09    6.122E-09    6.181E-09    6.239E-09    6.296E-09    6.353E-09    6.409E-09    6.463E-09
     6.517E-09    6.570E-09    6.621E-09    6.671E-09    6.719E-09    6.766E-09    6.810E-09    6.853E-09    6.894E-09    6.933E-09
     6.970E-09    7.004E-09    7.036E-09    7.065E-09    7.091E-09    7.115E-09    7.135E-09    7.153E-09    7.168E-09    7.179E-09
     7.187E-09    7.191E-09    7.192E-09    7.188E-09    7.181E-09    7.171E-09    7.156E-09    7.136E-09    7.113E-09    7.085E-09
     7.052E-09    7.015E-09    6.973E-09    6.926E-09    6.874E-09    6.817E-09    6.755E-09    6.687E-09    6.614E-09    6.535E-09
     6.451E-09    6.361E-09    6.264E-09    6.162E-09    6.054E-09    5.939E-09    5.818E-09    5.690E-09    5.557E-09    5.418E-09
     5.274E-09    5.124E-09    4.970E-09    4.810E-09    4.647E-09    4.479E-09    4.308E-09    4.133E-09    3.954E-09    3.772E-09
     3.588E-09    3.401E-09    3.212E-09    3.020E-09    2.827E-09    2.633E-09    2.437E-09    2.240E-09    2.042E-09    1.844E-09
     1.645E-09    1.447E-09    1.249E-09    1.051E-09    8.542E-10    6.585E-10    4.641E-10    2.712E-10    8.025E-11   -1.086E-10
    -2.951E-10   -4.790E-10   -6.600E-10   -8.378E-10   -1.012E-09   -1.183E-09   -1.350E-09   -1.513E-09   -1.671E-09   -1.824E-09
    -1.973E-09   -2.116E-09   -2.254E-09   -2.386E-09   -2.512E-09   -2.632E-09   -2.745E-09   -2.852E-09   -2.951E-09   -3.044E-09
    -3.130E-09   -3.209E-09   -3.283E-09   -3.350E-09   -3.411E-09   -3.466E-09   -3.516E-09   -3.560E-09   -3.599E-09   -3.632E-09
    -3.661E-09   -3.685E-09   -3.704E-09   -3.719E-09   -3.729E-09   -3.735E-09   -3.738E-09   -3.736E-09   -3.731E-09   -3.723E-09
    -3.711E-09   -3.696E-09   -3.677E-09   -3.657E-09   -3.633E-09   -3.607E-09   -3.579E-09   -3.549E-09   -3.516E-09   -3.482E-09
    -3.446E-09   -3.409E-09   -3.371E-09   -3.331E-09   -3.290E-09   -3.249E-09   -3.207E-09   -3.165E-09   -3.122E-09   -3.079E-09
    -3.036E-09   -2.994E-09   -2.951E-09   -2.910E-09   -2.869E-09   -2.829E-09   -2.790E-09   -2.752E-09   -2.716E-09   -2.681E-09
    -2.648E-09   -2.616E-09   -2.586E-09   -2.558E-09   -2.531E-09   -2.506E-09   -2.482E-09   -2.460E-09   -2.439E-09   -2.420E-09
    -2.402E-09   -2.386E-09   -2.371E-09   -2.357E-09   -2.345E-09   -2.334E-09   -2.325E-09   -2.317E-09   -2.310E-09   -2.304E-09
    -2.300E-09   -2.297E-09   -2.295E-09   -2.294E-09   -2.294E-09   -2.296E-09   -2.299E-09   -2.302E-09   -2.307E-09   -2.313E-09
    -2.320E-09   -2.328E-09   -2.338E-09   -2.348E-09   -2.359E-09   -2.371E-09   -2.384E-09   -2.398E-09   -2.412E-09   -2.428E-09
    -2.445E-09   -2.462E-09   -2.480E-09   -2.499E-09   -2.519E-09   -2.539E-09   -2.561E-09   -2.582E-09   -2.605E-09   -2.628E-09
    -2.652E-09   -2.677E-09   -2.702E-09   -2.728E-09   -2.755E-09   -2.782E-09   -2.809E-09   -2.837E-09   -2.866E-09   -2.895E-09
    -2.924E-09   -2.954E-09   -2.985E-09   -3.015E-09   -3.046E-09   -3.078E-09   -3.110E-09   -3.142E-09   -3.175E-09   -3.207E-09
    -3.241E-09   -3.274E-09   -3.307E-09   -3.341E-09   -3.375E-09   -3.409E-09   -3.444E-09   -3.478E-09   -3.513E-09   -3.547E-09
    -3.582E-09   -3.617E-09   -3.652E-09   -3.687E-09   -3.721E-09   -3.756E-09   -3.791E-09   -3.826E-09   -3.860E-09   -3.895E-09
    -3.929E-09   -3.964E-09   -3.998E-09   -4.032E-09   -4.066E-09   -4.099E-09   -4.133E-09   -4.166E-09   -4.199E-09   -4.231E-09
    -4.263E-09   -4.295E-09   -4.327E-09
 Asp      Conc. = 7.13E-10
  -1.77557E-09 -1.79985E-09 -1.74980E-09 -1.76606E-09 -1.69227E-09 -1.66664E-09 -1.65386E-09 -1.66116E-09 -1.61241E-09 -1.54217E-09
  -1.46188E-09 -1.37623E-09 -1.28706E-09 -1.19370E-09 -1.09911E-09 -1.00384E-09 -9.07890E-10 -8.11337E-10 -7.14334E-10 -6.16941E-10
  -5.19253E-10 -4.21313E-10 -3.23144E-10 -2.24774E-10 -1.26222E-10 -2.74456E-11  7.15800E-11  1.70938E-10  2.70730E-10  3.71157E-10
   4.72523E-10  5.75266E-10  6.80286E-10  7.89192E-10  9.05613E-10  1.03959E-09  1.21746E-09  1.33845E-09  1.49174E-09  1.57417E-09
   1.64975E-09  1.75386E-09  1.94017E-09  2.19001E-09  2.48934E-09  2.82459E-09  2.87926E-09  2.84682E-09  3.10217E-09  3.20563E-09
   3.29339E-09  3.46909E-09  3.62720E-09  3.66521E-09  3.64549E-09  3.58997E-09  3.41073E-09  3.50969E-09  3.64836E-09  3.55283E-09
   3.55582E-09  3.60828E-09  3.59765E-09  3.63810E-09  3.74498E-09  3.84384E-09  3.85569E-09  3.89371E-09  3.94479E-09  4.00247E-09
   4.06393E-09  4.12770E-09  4.19296E-09  4.25917E-09  4.32597E-09  4.39314E-09  4.46048E-09  4.52788E-09  4.59523E-09  4.66245E-09
   4.72949E-09  4.79629E-09  4.86283E-09  4.92906E-09  4.99496E-09  5.06053E-09  5.12573E-09  5.19056E-09  5.25500E-09  5.31905E-09
   5.38270E-09  5.44594E-09  5.50877E-09  5.57119E-09  5.63318E-09  5.69477E-09  5.75593E-09  5.81668E-09  5.87700E-09  5.93691E-09
   5.99638E-09  6.05546E-09  6.11411E-09  6.17234E-09  6.23017E-09  6.28751E-09  6.34426E-09  6.40029E-09  6.45549E-09  6.50975E-09
   6.56294E-09  6.61495E-09  6.66566E-09  6.71496E-09  6.76273E-09  6.80885E-09  6.85321E-09  6.89569E-09  6.93617E-09  6.97454E-09
   7.01068E-09  7.04447E-09  7.07581E-09  7.10457E-09  7.13063E-09  7.15389E-09  7.17421E-09  7.19150E-09  7.20562E-09  7.21648E-09
   7.22393E-09  7.22789E-09  7.22822E-09  7.22481E-09  7.21755E-09  7.20631E-09  7.19099E-09  7.17147E-09  7.14762E-09  7.11935E-09
   7.08652E-09  7.04902E-09  7.00675E-09  6.95958E-09  6.90739E-09  6.85008E-09  6.78754E-09  6.71963E-09  6.64626E-09  6.56732E-09
   6.48268E-09  6.39225E-09  6.29593E-09  6.19360E-09  6.08518E-09  5.97057E-09  5.84978E-09  5.72300E-09  5.59064E-09  5.45312E-09
   5.31102E-09  5.16517E-09  5.01698E-09  4.86926E-09  4.72916E-09  4.62127E-09  4.68002E-09  5.15923E-09  5.09578E-09  4.84676E-09
   4.66515E-09  4.51504E-09  4.31112E-09  4.10776E-09  3.90363E-09  3.76060E-09  3.67270E-09  3.34680E-09  2.44623E-09  2.06225E-09
   1.79892E-09  1.56866E-09  1.35175E-09  1.14182E-09  9.36277E-10  7.34061E-10  5.34631E-10  3.37783E-10  1.43542E-10 -4.80446E-11
  -2.36857E-10 -4.22697E-10 -6.05411E-10 -7.84733E-10 -9.60499E-10 -1.13245E-09 -1.30035E-09 -1.46395E-09 -1.62303E-09 -1.77732E-09
  -1.92657E-09 -2.07053E-09 -2.20895E-09 -2.34159E-09 -2.46817E-09 -2.58846E-09 -2.70215E-09 -2.80906E-09 -2.90898E-09 -3.00206E-09
  -3.08846E-09 -3.16835E-09 -3.24189E-09 -3.30928E-09 -3.37065E-09 -3.42621E-09 -3.47609E-09 -3.52047E-09 -3.55953E-09 -3.59343E-09
  -3.62233E-09 -3.64641E-09 -3.66585E-09 -3.68079E-09 -3.69141E-09 -3.69789E-09 -3.70036E-09 -3.69904E-09 -3.69408E-09 -3.68562E-09
  -3.67385E-09 -3.65895E-09 -3.64106E-09 -3.62037E-09 -3.59704E-09 -3.57124E-09 -3.54315E-09 -3.51291E-09 -3.48070E-09 -3.44670E-09
  -3.41107E-09 -3.37396E-09 -3.33557E-09 -3.29605E-09 -3.25556E-09 -3.21428E-09 -3.17239E-09 -3.13005E-09 -3.08740E-09 -3.04462E-09
  -3.00191E-09 -2.95942E-09 -2.91730E-09 -2.87572E-09 -2.83489E-09 -2.79492E-09 -2.75601E-09 -2.71832E-09 -2.68203E-09 -2.64731E-09
  -2.61421E-09 -2.58274E-09 -2.55288E-09 -2.52460E-09 -2.49789E-09 -2.47273E-09 -2.44909E-09 -2.42697E-09 -2.40632E-09 -2.38715E-09
  -2.36943E-09 -2.35314E-09 -2.33826E-09 -2.32477E-09 -2.31264E-09 -2.30187E-09 -2.29243E-09 -2.28430E-09 -2.27745E-09 -2.27188E-09
  -2.26756E-09 -2.26448E-09 -2.26260E-09 -2.26191E-09 -2.26240E-09 -2.26405E-09 -2.26681E-09 -2.27070E-09 -2.27568E-09 -2.28174E-09
  -2.28885E-09 -2.29699E-09 -2.30614E-09 -2.31629E-09 -2.32741E-09 -2.33950E-09 -2.35251E-09 -2.36644E-09 -2.38126E-09 -2.39697E-09
  -2.41353E-09 -2.43091E-09 -2.44913E-09 -2.46813E-09 -2.48791E-09 -2.50846E-09 -2.52974E-09 -2.55172E-09 -2.57443E-09 -2.59779E-09
  -2.62182E-09 -2.64651E-09 -2.67179E-09 -2.69768E-09 -2.72414E-09 -2.75117E-09 -2.77873E-09 -2.80682E-09 -2.83541E-09 -2.86449E-09
  -2.89403E-09 -2.92401E-09 -2.95442E-09 -2.98523E-09 -3.01644E-09 -3.04801E-09 -3.07993E-09 -3.11217E-09 -3.14473E-09 -3.17758E-09
  -3.21070E-09 -3.24407E-09 -3.27766E-09 -3.31148E-09 -3.34549E-09 -3.37967E-09 -3.41401E-09 -3.44849E-09 -3.48308E-09 -3.51777E-09
  -3.55254E-09 -3.58736E-09 -3.62223E-09 -3.65711E-09 -3.69200E-09 -3.72686E-09 -3.76170E-09 -3.79647E-09 -3.83117E-09 -3.86576E-09
  -3.90025E-09 -3.93460E-09 -3.96880E-09 -4.00283E-09 -4.03666E-09 -4.07029E-09 -4.10368E-09 -4.13682E-09 -4.16970E-09 -4.20229E-09
  -4.23457E-09 -4.26652E-09 -4.29813E-09
 GABA     Conc. = 5.91E-10
  -2.53965E-09 -2.44076E-09 -2.34167E-09 -2.24240E-09 -2.14295E-09 -2.04336E-09 -1.94361E-09 -1.84373E-09 -1.74372E-09 -1.64355E-09
  -1.54331E-09 -1.44291E-09 -1.34234E-09 -1.24172E-09 -1.14083E-09 -1.03979E-09 -9.38723E-10 -8.37197E-10 -7.35284E-10 -6.33085E-10
  -5.30160E-10 -4.26261E-10 -3.21065E-10 -2.13880E-10 -1.03546E-10  1.16671E-11  1.36045E-10  2.79306E-10  4.69914E-10  7.95366E-10
   9.03280E-10  1.00848E-09  1.51028E-09  1.75508E-09  1.76177E-09  2.02581E-09  2.25563E-09  2.37354E-09  2.48149E-09  2.52000E-09
   2.38705E-09  2.54478E-09  2.66671E-09  2.33623E-09  2.29809E-09  2.44200E-09  2.33784E-09  2.30663E-09  2.33499E-09  2.38779E-09
   2.45343E-09  2.52600E-09  2.60318E-09  2.68424E-09  2.76851E-09  2.85576E-09  2.94680E-09  3.04300E-09  3.14716E-09  3.26651E-09
   3.41824E-09  3.66012E-09  3.93453E-09  3.98542E-09  4.22659E-09  4.61565E-09  4.66897E-09  4.70537E-09  4.88464E-09  5.00278E-09
   5.07319E-09  5.12295E-09  5.04098E-09  4.93127E-09  5.08295E-09  4.97818E-09  4.72214E-09  4.79823E-09  4.84144E-09  4.85370E-09
   4.96617E-09  4.96044E-09  5.05627E-09  5.35185E-09  5.41689E-09  5.46969E-09  5.71958E-09  5.84934E-09  5.92476E-09  6.08139E-09
   6.14102E-09  6.13877E-09  6.31259E-09  6.35745E-09  6.19711E-09  6.29772E-09  6.36695E-09  6.24582E-09  6.24926E-09  6.28311E-09
   6.27597E-09  6.28819E-09  6.31372E-09  6.34719E-09  6.38579E-09  6.42756E-09  6.47147E-09  6.51674E-09  6.56279E-09  6.60926E-09
   6.65581E-09  6.70192E-09  6.74741E-09  6.79203E-09  6.83555E-09  6.87792E-09  6.91894E-09  6.95838E-09  6.99610E-09  7.03193E-09
   7.06573E-09  7.09738E-09  7.12674E-09  7.15367E-09  7.17804E-09  7.19972E-09  7.21859E-09  7.23450E-09  7.24735E-09  7.25701E-09
   7.26334E-09  7.26624E-09  7.26558E-09  7.26124E-09  7.25310E-09  7.24104E-09  7.22494E-09  7.20467E-09  7.18013E-09  7.15119E-09
   7.11773E-09  7.07963E-09  7.03680E-09  6.98910E-09  6.93640E-09  6.87860E-09  6.81558E-09  6.74723E-09  6.67344E-09  6.59409E-09
   6.50907E-09  6.41826E-09  6.32157E-09  6.21888E-09  6.11011E-09  5.99514E-09  5.87398E-09  5.74681E-09  5.61401E-09  5.47597E-09
   5.33322E-09  5.18647E-09  5.03691E-09  4.88684E-09  4.74193E-09  4.62119E-09  4.62557E-09  5.00581E-09  4.93318E-09  4.69416E-09
   4.50938E-09  4.35368E-09  4.15198E-09  3.95021E-09  3.74597E-09  3.59110E-09  3.48776E-09  3.20356E-09  2.41062E-09  2.04911E-09
   1.79505E-09  1.56967E-09  1.35572E-09  1.14775E-09  9.43586E-10  7.42383E-10  5.43719E-10  3.47464E-10  1.53689E-10 -3.75259E-11
  -2.26039E-10 -4.11636E-10 -5.94153E-10 -7.73314E-10 -9.48948E-10 -1.12079E-09 -1.28861E-09 -1.45213E-09 -1.61116E-09 -1.76540E-09
  -1.91462E-09 -2.05856E-09 -2.19696E-09 -2.32958E-09 -2.45616E-09 -2.57645E-09 -2.69015E-09 -2.79707E-09 -2.89699E-09 -2.99008E-09
  -3.07650E-09 -3.15641E-09 -3.22997E-09 -3.29738E-09 -3.35878E-09 -3.41435E-09 -3.46426E-09 -3.50866E-09 -3.54775E-09 -3.58168E-09
  -3.61061E-09 -3.63472E-09 -3.65418E-09 -3.66915E-09 -3.67981E-09 -3.68631E-09 -3.68881E-09 -3.68752E-09 -3.68260E-09 -3.67417E-09
