 LCModel (Version 6.3-1R) Copyright: S.W. Provencher.          Ref.: Magn. Reson. Med. 30:672-679 (1993).                
 onepulse 13x24_ftSpec_smooth_lcm
 26 lines in following concentration table = NCONC+1
    Conc.  %SD   /Cr    Metabolite                                         
 7.74E-11 648%   0.000 Ala                                                 
 6.17E-10 184%   0.000 Asp                                                 
    0.000 999%   0.000 Cr                                                  
 2.33E-09  32%   0.000 GABA                                                
 1.42E-09  92%   0.000 Glc                                                 
    0.000 999%   0.000 Gln                                                 
    0.000 999%   0.000 Glu                                                 
    0.000 999%   0.000 Glyc                                                
    0.000 999%   0.000 GPC                                                 
    0.000 999%   0.000 GSH                                                 
 7.00E-10 109%   0.000 Ins                                                 
    0.000 999%   0.000 Lac                                                 
    0.000 999%   0.000 NAAG                                                
 9.62E-10  38%   0.000 NAA                                                 
    0.000 999%   0.000 PCh                                                 
    0.000 999%   0.000 PCr                                                 
 8.48E-10 105%   0.000 PE                                                  
 2.70E-11 999%   0.000 Scyllo                                              
 1.18E-09 136%   0.000 Ser                                                 
    0.000 999%   0.000 Tau                                                 
    0.000 999%   0.000 GPC+PCh                                             
 9.62E-10  38%   0.000 NAA+NAAG                                            
 7.00E-10 109%   0.000 Ins+Glyc                                            
    0.000 999%   0.000 Cr+PCr                                              
    0.000 999%   0.000 Glu+Gln                                             
   6 lines in following misc. output table
  FWHM = 0.089 ppm    S/N =   2                                            
  Data shift = 0.335 ppm                                                   
  Ph:  26 deg       6.1 deg/ppm                                            
  alphaB,S = 6.2E-01,   4.5E+01                                            
    9 spline knots.   Ns = 5(1)                                            
  ( 6) 2 infls.   ( 5) 1 extrs.                                            
  363 points on ppm-axis = NY
      4.250000     4.238821     4.227641     4.216462     4.205282     4.194103     4.182923     4.171744     4.160564     4.149385
      4.138206     4.127026     4.115847     4.104667     4.093488     4.082308     4.071129     4.059949     4.048770     4.037591
      4.026411     4.015232     4.004052     3.992873     3.981693     3.970514     3.959334     3.948155     3.936975     3.925796
      3.914617     3.903437     3.892258     3.881078     3.869899     3.858719     3.847540     3.836360     3.825181     3.814002
      3.802822     3.791643     3.780463     3.769284     3.758104     3.746925     3.735745     3.724566     3.713387     3.702207
      3.691028     3.679848     3.668669     3.657489     3.646310     3.635130     3.623951     3.612772     3.601592     3.590413
      3.579233     3.568054     3.556874     3.545695     3.534515     3.523336     3.512156     3.500977     3.489798     3.478618
      3.467439     3.456259     3.445080     3.433900     3.422721     3.411541     3.400362     3.389183     3.378003     3.366824
      3.355644     3.344465     3.333285     3.322106     3.310926     3.299747     3.288568     3.277388     3.266209     3.255029
      3.243850     3.232670     3.221491     3.210311     3.199132     3.187953     3.176773     3.165594     3.154414     3.143235
      3.132055     3.120876     3.109696     3.098517     3.087337     3.076158     3.064979     3.053799     3.042620     3.031440
      3.020261     3.009081     2.997902     2.986722     2.975543     2.964364     2.953184     2.942005     2.930825     2.919646
      2.908466     2.897287     2.886107     2.874928     2.863749     2.852569     2.841390     2.830210     2.819031     2.807851
      2.796672     2.785492     2.774313     2.763134     2.751954     2.740775     2.729595     2.718416     2.707236     2.696057
      2.684877     2.673698     2.662519     2.651339     2.640160     2.628980     2.617801     2.606621     2.595442     2.584262
      2.573083     2.561903     2.550724     2.539545     2.528365     2.517186     2.506006     2.494827     2.483647     2.472468
      2.461288     2.450109     2.438930     2.427750     2.416571     2.405391     2.394212     2.383032     2.371853     2.360673
      2.349494     2.338315     2.327135     2.315956     2.304776     2.293597     2.282417     2.271238     2.260058     2.248879
      2.237700     2.226520     2.215341     2.204161     2.192982     2.181802     2.170623     2.159443     2.148264     2.137084
      2.125905     2.114726     2.103546     2.092367     2.081187     2.070008     2.058828     2.047649     2.036469     2.025290
      2.014111     2.002931     1.991752     1.980572     1.969393     1.958213     1.947034     1.935854     1.924675     1.913496
      1.902316     1.891137     1.879957     1.868778     1.857598     1.846419     1.835239     1.824060     1.812881     1.801701
      1.790522     1.779342     1.768163     1.756983     1.745804     1.734624     1.723445     1.712265     1.701086     1.689907
      1.678727     1.667548     1.656368     1.645189     1.634009     1.622830     1.611650     1.600471     1.589292     1.578112
      1.566933     1.555753     1.544574     1.533394     1.522215     1.511035     1.499856     1.488677     1.477497     1.466318
      1.455138     1.443959     1.432779     1.421600     1.410420     1.399241     1.388062     1.376882     1.365703     1.354523
      1.343344     1.332164     1.320985     1.309805     1.298626     1.287446     1.276267     1.265088     1.253908     1.242729
      1.231549     1.220370     1.209190     1.198011     1.186831     1.175652     1.164473     1.153293     1.142114     1.130934
      1.119755     1.108575     1.097396     1.086216     1.075037     1.063858     1.052678     1.041499     1.030319     1.019140
      1.007960     0.996781     0.985601     0.974422     0.963243     0.952063     0.940884     0.929704     0.918525     0.907345
      0.896166     0.884986     0.873807     0.862628     0.851448     0.840269     0.829089     0.817910     0.806730     0.795551
      0.784371     0.773192     0.762012     0.750833     0.739654     0.728474     0.717295     0.706115     0.694936     0.683756
      0.672577     0.661397     0.650218     0.639039     0.627859     0.616680     0.605500     0.594321     0.583141     0.571962
      0.560782     0.549603     0.538424     0.527244     0.516065     0.504885     0.493706     0.482526     0.471347     0.460167
      0.448988     0.437809     0.426629     0.415450     0.404270     0.393091     0.381911     0.370732     0.359552     0.348373
      0.337193     0.326014     0.314835     0.303655     0.292476     0.281296     0.270117     0.258937     0.247758     0.236578
      0.225399     0.214220     0.203040
 NY phased data points follow
   1.30935E-08  1.51382E-08  1.65893E-08  1.68560E-08  1.65387E-08  1.63022E-08  1.54687E-08  1.40641E-08  1.41732E-08  1.36351E-08
   1.36078E-08  1.37449E-08  1.31558E-08  1.34659E-08  1.37108E-08  1.37160E-08  1.40196E-08  1.44918E-08  1.40105E-08  1.39494E-08
   1.34791E-08  1.35810E-08  1.33229E-08  1.32928E-08  1.24358E-08  1.29764E-08  1.27377E-08  1.34827E-08  1.27348E-08  1.30573E-08
   1.20572E-08  1.21046E-08  1.24328E-08  1.32221E-08  1.37388E-08  1.44230E-08  1.45958E-08  1.32646E-08  1.26336E-08  1.22048E-08
   1.13607E-08  1.14489E-08  1.07816E-08  1.09302E-08  1.02367E-08  9.77037E-09  9.90711E-09  9.46024E-09  9.14751E-09  8.87661E-09
   8.14517E-09  8.31607E-09  8.56238E-09  8.47406E-09  8.52115E-09  7.84866E-09  7.77026E-09  7.67575E-09  8.01341E-09  7.66832E-09
   7.85165E-09  8.36305E-09  8.43213E-09  8.68670E-09  1.00751E-08  1.08812E-08  1.14098E-08  1.17179E-08  1.12553E-08  1.06513E-08
   9.76410E-09  9.24302E-09  8.38650E-09  8.28444E-09  7.44046E-09  7.74816E-09  6.70340E-09  7.19401E-09  7.41682E-09  8.31671E-09
   9.98092E-09  1.18780E-08  1.42910E-08  1.48945E-08  1.45334E-08  1.38364E-08  1.33608E-08  1.21803E-08  1.19780E-08  1.14018E-08
   1.06524E-08  1.09289E-08  1.00889E-08  9.93144E-09  9.56593E-09  8.44087E-09  8.58595E-09  8.23515E-09  8.04594E-09  7.68167E-09
   7.01251E-09  6.59452E-09  6.85682E-09  6.37071E-09  6.21146E-09  6.68042E-09  5.90338E-09  6.19667E-09  5.53609E-09  4.94861E-09
   4.47846E-09  4.33013E-09  3.60898E-09  3.40568E-09  3.43116E-09  3.41445E-09  3.76639E-09  3.79399E-09  3.49647E-09  3.90643E-09
   3.54389E-09  3.66808E-09  4.01873E-09  3.91188E-09  3.51336E-09  3.47992E-09  2.45230E-09  2.70975E-09  2.53669E-09  2.62718E-09
   3.46446E-09  3.00504E-09  3.25892E-09  3.30638E-09  3.68567E-09  3.98479E-09  3.91227E-09  4.06828E-09  4.30831E-09  4.27107E-09
   4.73244E-09  5.17620E-09  6.51108E-09  6.58401E-09  6.92127E-09  7.34210E-09  7.46235E-09  7.90007E-09  8.17674E-09  8.23321E-09
   8.05847E-09  8.69511E-09  8.03468E-09  7.92576E-09  8.25028E-09  8.01930E-09  7.73323E-09  7.59225E-09  8.17994E-09  7.64810E-09
   7.87329E-09  8.00028E-09  8.34618E-09  8.33584E-09  7.72800E-09  8.20576E-09  8.34732E-09  8.42765E-09  8.98706E-09  9.80360E-09
   1.12255E-08  1.22902E-08  1.46107E-08  1.66069E-08  1.65916E-08  1.53952E-08  1.40040E-08  1.27548E-08  1.09441E-08  9.65004E-09
   8.68589E-09  7.64983E-09  6.49533E-09  6.03427E-09  4.07344E-09  3.05094E-09  1.91042E-09  4.85024E-10 -1.28379E-09 -2.67346E-09
  -4.62185E-09 -5.86588E-09 -8.39722E-09 -1.07176E-08 -1.26813E-08 -1.57852E-08 -1.77689E-08 -2.01420E-08 -2.23298E-08 -2.47220E-08
  -2.62167E-08 -2.72240E-08 -2.81524E-08 -2.83793E-08 -2.75129E-08 -2.75936E-08 -2.54596E-08 -2.33042E-08 -2.06778E-08 -1.74279E-08
  -1.43639E-08 -1.17908E-08 -8.72585E-09 -6.40769E-09 -4.07184E-09 -2.54231E-09 -1.40202E-09 -5.49993E-10 -1.12996E-09 -5.82776E-10
  -1.25414E-09 -1.97794E-09 -2.37384E-09 -2.25201E-09 -2.14279E-09 -2.33992E-09 -1.94647E-09 -1.61375E-09 -1.56746E-09 -1.15778E-09
  -1.77932E-09 -1.33650E-09 -2.02940E-09 -2.52808E-09 -2.35178E-09 -2.21853E-09 -1.77280E-09 -1.68644E-09 -1.37244E-09 -1.19400E-09
  -1.10745E-09 -1.07481E-09 -9.30646E-10 -1.67358E-09 -1.51091E-09 -1.56992E-09 -2.05763E-09 -1.65960E-09 -2.01491E-09 -1.17743E-09
  -1.05452E-09 -3.93993E-10 -3.43002E-10  1.31067E-11  8.37291E-12 -4.29548E-10 -8.20392E-10 -5.06572E-10 -9.91824E-10 -8.62038E-10
  -9.05914E-10 -1.58064E-09 -9.74903E-10 -1.44183E-09 -1.82369E-09 -1.59338E-09 -1.48307E-09 -9.10527E-10 -8.89593E-10 -2.72310E-10
  -2.89811E-10 -1.39954E-10  1.96118E-10  5.33559E-10  4.10266E-10  9.43213E-10  4.51025E-10  1.16025E-09  6.15492E-10  3.77450E-10
   2.49233E-10 -8.40522E-11  2.49601E-10  1.26457E-10 -2.67228E-10 -4.22497E-10 -7.30673E-10  8.62091E-11 -7.02420E-10 -4.30898E-10
  -8.27615E-10 -1.33741E-09 -1.08022E-09 -7.65194E-10 -8.18955E-10 -1.15881E-09 -4.72868E-10 -6.07704E-10 -8.21298E-10 -1.21448E-09
  -9.35723E-10 -1.18058E-09 -6.41850E-10 -3.03994E-10 -8.64997E-10 -5.70309E-10 -8.65205E-10 -4.44218E-10 -1.11697E-09 -9.55205E-11
  -3.61528E-10 -9.50962E-12 -3.44865E-10 -3.80566E-10 -3.52638E-10 -2.80445E-10  2.54854E-10  5.18048E-10 -2.81186E-10  5.29512E-10
   1.26591E-10  5.29294E-10  4.49169E-10  3.96257E-10  3.77245E-10  6.80306E-10  9.96243E-10  6.78370E-10  3.14133E-10  4.77240E-10
   5.25716E-10  7.92411E-10  1.17558E-09  8.47712E-10  1.35641E-09  7.01096E-10  1.40443E-09  1.22493E-09  8.13568E-10  1.41196E-09
   1.51382E-09  1.19049E-09  1.30446E-09  1.77414E-09  1.49076E-09  1.81483E-09  1.67440E-09  1.73739E-09  1.80282E-09  1.83758E-09
   1.55789E-09  1.77055E-09  1.54819E-09  1.90941E-09  2.15718E-09  2.02855E-09  1.63083E-09  1.70515E-09  1.91740E-09  2.24034E-09
   2.38116E-09  2.30163E-09  2.10725E-09
 NY points of the fit to the data follow
   1.75619E-08  1.68096E-08  1.62540E-08  1.58076E-08  1.52199E-08  1.44788E-08  1.36636E-08  1.30269E-08  1.26878E-08  1.26879E-08
   1.29324E-08  1.32679E-08  1.36710E-08  1.41448E-08  1.45888E-08  1.49119E-08  1.51178E-08  1.51285E-08  1.48342E-08  1.44413E-08
   1.41699E-08  1.39435E-08  1.35560E-08  1.30955E-08  1.26448E-08  1.24141E-08  1.25237E-08  1.27434E-08  1.29591E-08  1.32067E-08
   1.32705E-08  1.31200E-08  1.31465E-08  1.33018E-08  1.33119E-08  1.33851E-08  1.34543E-08  1.34518E-08  1.32922E-08  1.29176E-08
   1.23966E-08  1.18390E-08  1.10184E-08  1.01766E-08  9.79782E-09  9.48372E-09  9.06287E-09  8.86337E-09  8.85314E-09  8.91509E-09
   9.00080E-09  9.03149E-09  8.99024E-09  8.85598E-09  8.68981E-09  8.58233E-09  8.57692E-09  8.61052E-09  8.57346E-09  8.48011E-09
   8.46308E-09  8.61122E-09  9.02963E-09  9.50389E-09  1.00843E-08  1.07850E-08  1.13343E-08  1.17091E-08  1.19868E-08  1.20697E-08
   1.19057E-08  1.14268E-08  1.07105E-08  9.97048E-09  9.29133E-09  8.51907E-09  8.15985E-09  8.79510E-09  9.64228E-09  1.05275E-08
   1.15227E-08  1.24037E-08  1.31387E-08  1.37620E-08  1.39365E-08  1.34707E-08  1.24772E-08  1.11102E-08  9.88746E-09  9.58122E-09
   9.49083E-09  9.42267E-09  9.29743E-09  8.92786E-09  8.51432E-09  8.24398E-09  7.81459E-09  7.34050E-09  7.05533E-09  6.80171E-09
   6.57430E-09  6.41560E-09  6.29768E-09  6.22048E-09  6.16363E-09  6.11030E-09  6.04903E-09  5.97205E-09  5.87482E-09  5.75683E-09
   5.62489E-09  5.49536E-09  5.37954E-09  5.24649E-09  5.11667E-09  5.01905E-09  4.93120E-09  4.84660E-09  4.76298E-09  4.67930E-09
   4.59491E-09  4.50950E-09  4.42280E-09  4.33471E-09  4.24517E-09  4.15416E-09  4.06166E-09  3.96770E-09  3.87231E-09  3.77551E-09
   3.67734E-09  3.57785E-09  3.47708E-09  3.37510E-09  3.27195E-09  3.16771E-09  3.06243E-09  2.95616E-09  2.84900E-09  2.74101E-09
   2.63228E-09  2.52288E-09  2.41289E-09  2.30242E-09  2.19153E-09  2.08034E-09  1.96898E-09  1.85757E-09  1.74623E-09  1.63513E-09
   1.52444E-09  1.41435E-09  1.30512E-09  1.19706E-09  1.09053E-09  9.85994E-10  8.84107E-10  7.85703E-10  6.91975E-10  6.04702E-10
   5.26539E-10  4.61892E-10  4.18375E-10  4.10749E-10  4.71923E-10  6.94802E-10  1.47293E-09  4.03055E-09  7.22516E-09  1.02764E-08
   1.29426E-08  1.51741E-08  1.68333E-08  1.75632E-08  1.68834E-08  1.44340E-08  1.02570E-08  5.14621E-09  9.30440E-10 -3.80611E-10
  -9.35436E-10 -1.26369E-09 -1.49487E-09 -1.67525E-09 -1.82545E-09 -1.95602E-09 -2.07289E-09 -2.17965E-09 -2.27861E-09 -2.37129E-09
  -2.45874E-09 -2.54169E-09 -2.62072E-09 -2.69621E-09 -2.76847E-09 -2.83774E-09 -2.90421E-09 -2.96801E-09 -3.02928E-09 -3.08809E-09
  -3.14454E-09 -3.19869E-09 -3.25059E-09 -3.30027E-09 -3.34780E-09 -3.39319E-09 -3.43648E-09 -3.47768E-09 -3.51682E-09 -3.55392E-09
  -3.58900E-09 -3.62206E-09 -3.65312E-09 -3.68219E-09 -3.70930E-09 -3.73443E-09 -3.75760E-09 -3.77882E-09 -3.79811E-09 -3.81545E-09
  -3.83085E-09 -3.84433E-09 -3.85588E-09 -3.86553E-09 -3.87328E-09 -3.87909E-09 -3.88302E-09 -3.88505E-09 -3.88517E-09 -3.88341E-09
  -3.87976E-09 -3.87422E-09 -3.86680E-09 -3.85750E-09 -3.84632E-09 -3.83327E-09 -3.81835E-09 -3.80157E-09 -3.78292E-09 -3.76240E-09
  -3.74002E-09 -3.71579E-09 -3.68970E-09 -3.66179E-09 -3.63210E-09 -3.60067E-09 -3.56755E-09 -3.53278E-09 -3.49641E-09 -3.45848E-09
  -3.41904E-09 -3.37812E-09 -3.33578E-09 -3.29206E-09 -3.24700E-09 -3.20065E-09 -3.15305E-09 -3.10425E-09 -3.05428E-09 -3.00320E-09
  -2.95105E-09 -2.89787E-09 -2.84370E-09 -2.78860E-09 -2.73259E-09 -2.67574E-09 -2.61808E-09 -2.55966E-09 -2.50052E-09 -2.44070E-09
  -2.38025E-09 -2.31922E-09 -2.25764E-09 -2.19556E-09 -2.13303E-09 -2.07008E-09 -2.00677E-09 -1.94314E-09 -1.87923E-09 -1.81508E-09
  -1.75075E-09 -1.68626E-09 -1.62167E-09 -1.55702E-09 -1.49237E-09 -1.42773E-09 -1.36318E-09 -1.29874E-09 -1.23445E-09 -1.17038E-09
  -1.10655E-09 -1.04302E-09 -9.79824E-10 -9.17015E-10 -8.54623E-10 -7.92697E-10 -7.31289E-10 -6.70442E-10 -6.10197E-10 -5.50595E-10
  -4.91675E-10 -4.33481E-10 -3.76083E-10 -3.19472E-10 -2.63645E-10 -2.08576E-10 -1.54246E-10 -1.00642E-10 -4.77329E-11  4.48636E-12
   5.60423E-11  1.06957E-10  1.57249E-10  2.06928E-10  2.56028E-10  3.04561E-10  3.52551E-10  4.00009E-10  4.46964E-10  4.93425E-10
   5.39423E-10  5.84973E-10  6.30088E-10  6.74793E-10  7.19107E-10  7.63055E-10  8.06655E-10  8.49919E-10  8.92863E-10  9.35528E-10
   9.77908E-10  1.02003E-09  1.06193E-09  1.10361E-09  1.14508E-09  1.18639E-09  1.22755E-09  1.26856E-09  1.30945E-09  1.35025E-09
   1.39096E-09  1.43163E-09  1.47225E-09  1.51285E-09  1.55344E-09  1.59405E-09  1.63471E-09  1.67542E-09  1.71621E-09  1.75710E-09
   1.79810E-09  1.83924E-09  1.88053E-09  1.92199E-09  1.96367E-09  2.00554E-09  2.04765E-09  2.09001E-09  2.13264E-09  2.17555E-09
   2.21880E-09  2.26236E-09  2.30628E-09
 NY background values follow
     6.601E-09    6.586E-09    6.571E-09    6.556E-09    6.540E-09    6.525E-09    6.509E-09    6.494E-09    6.478E-09    6.462E-09
     6.446E-09    6.430E-09    6.414E-09    6.398E-09    6.382E-09    6.365E-09    6.349E-09    6.333E-09    6.316E-09    6.300E-09
     6.283E-09    6.267E-09    6.250E-09    6.234E-09    6.217E-09    6.201E-09    6.184E-09    6.168E-09    6.151E-09    6.135E-09
     6.118E-09    6.102E-09    6.085E-09    6.069E-09    6.053E-09    6.037E-09    6.020E-09    6.004E-09    5.988E-09    5.972E-09
     5.957E-09    5.941E-09    5.925E-09    5.910E-09    5.894E-09    5.879E-09    5.864E-09    5.849E-09    5.834E-09    5.819E-09
     5.805E-09    5.790E-09    5.776E-09    5.762E-09    5.748E-09    5.734E-09    5.720E-09    5.707E-09    5.694E-09    5.681E-09
     5.668E-09    5.655E-09    5.643E-09    5.631E-09    5.619E-09    5.606E-09    5.594E-09    5.582E-09    5.570E-09    5.558E-09
     5.545E-09    5.533E-09    5.520E-09    5.507E-09    5.493E-09    5.479E-09    5.465E-09    5.450E-09    5.435E-09    5.420E-09
     5.403E-09    5.386E-09    5.369E-09    5.351E-09    5.332E-09    5.312E-09    5.291E-09    5.270E-09    5.247E-09    5.224E-09
     5.200E-09    5.174E-09    5.148E-09    5.120E-09    5.092E-09    5.062E-09    5.031E-09    4.998E-09    4.964E-09    4.929E-09
     4.893E-09    4.855E-09    4.815E-09    4.774E-09    4.731E-09    4.687E-09    4.641E-09    4.593E-09    4.544E-09    4.493E-09
     4.440E-09    4.385E-09    4.328E-09    4.269E-09    4.208E-09    4.146E-09    4.081E-09    4.014E-09    3.944E-09    3.873E-09
     3.799E-09    3.723E-09    3.645E-09    3.564E-09    3.482E-09    3.397E-09    3.310E-09    3.221E-09    3.131E-09    3.038E-09
     2.944E-09    2.848E-09    2.751E-09    2.652E-09    2.551E-09    2.449E-09    2.346E-09    2.242E-09    2.136E-09    2.030E-09
     1.922E-09    1.813E-09    1.704E-09    1.593E-09    1.482E-09    1.371E-09    1.258E-09    1.145E-09    1.032E-09    9.183E-10
     8.042E-10    6.899E-10    5.754E-10    4.608E-10    3.461E-10    2.315E-10    1.170E-10    2.649E-12   -1.114E-10   -2.252E-10
    -3.386E-10   -4.515E-10   -5.639E-10   -6.757E-10   -7.869E-10   -8.973E-10   -1.007E-09   -1.116E-09   -1.223E-09   -1.330E-09
    -1.436E-09   -1.540E-09   -1.643E-09   -1.745E-09   -1.846E-09   -1.945E-09   -2.042E-09   -2.138E-09   -2.233E-09   -2.325E-09
    -2.416E-09   -2.505E-09   -2.592E-09   -2.677E-09   -2.760E-09   -2.841E-09   -2.920E-09   -2.998E-09   -3.073E-09   -3.146E-09
    -3.218E-09   -3.287E-09   -3.355E-09   -3.421E-09   -3.485E-09   -3.546E-09   -3.606E-09   -3.664E-09   -3.720E-09   -3.775E-09
    -3.827E-09   -3.877E-09   -3.926E-09   -3.972E-09   -4.017E-09   -4.059E-09   -4.100E-09   -4.139E-09   -4.176E-09   -4.211E-09
    -4.244E-09   -4.276E-09   -4.305E-09   -4.333E-09   -4.358E-09   -4.382E-09   -4.404E-09   -4.424E-09   -4.442E-09   -4.458E-09
    -4.472E-09   -4.485E-09   -4.495E-09   -4.504E-09   -4.511E-09   -4.516E-09   -4.519E-09   -4.520E-09   -4.520E-09   -4.517E-09
    -4.513E-09   -4.506E-09   -4.498E-09   -4.488E-09   -4.476E-09   -4.463E-09   -4.447E-09   -4.430E-09   -4.411E-09   -4.390E-09
    -4.367E-09   -4.342E-09   -4.315E-09   -4.287E-09   -4.257E-09   -4.225E-09   -4.191E-09   -4.156E-09   -4.119E-09   -4.081E-09
    -4.041E-09   -3.999E-09   -3.957E-09   -3.912E-09   -3.867E-09   -3.820E-09   -3.772E-09   -3.723E-09   -3.673E-09   -3.621E-09
    -3.569E-09   -3.515E-09   -3.460E-09   -3.405E-09   -3.349E-09   -3.291E-09   -3.233E-09   -3.175E-09   -3.115E-09   -3.055E-09
    -2.994E-09   -2.933E-09   -2.871E-09   -2.808E-09   -2.746E-09   -2.682E-09   -2.619E-09   -2.555E-09   -2.491E-09   -2.426E-09
    -2.361E-09   -2.297E-09   -2.232E-09   -2.167E-09   -2.102E-09   -2.037E-09   -1.972E-09   -1.907E-09   -1.843E-09   -1.778E-09
    -1.714E-09   -1.650E-09   -1.587E-09   -1.524E-09   -1.461E-09   -1.399E-09   -1.337E-09   -1.276E-09   -1.215E-09   -1.156E-09
    -1.096E-09   -1.038E-09   -9.802E-10   -9.233E-10   -8.672E-10   -8.118E-10   -7.572E-10   -7.033E-10   -6.501E-10   -5.976E-10
    -5.458E-10   -4.946E-10   -4.440E-10   -3.940E-10   -3.447E-10   -2.958E-10   -2.476E-10   -1.998E-10   -1.526E-10   -1.058E-10
    -5.956E-11   -1.373E-11    3.167E-11    7.666E-11    1.213E-10    1.655E-10    2.094E-10    2.529E-10    2.962E-10    3.391E-10
     3.818E-10    4.242E-10    4.664E-10    5.083E-10    5.501E-10    5.917E-10    6.332E-10    6.744E-10    7.156E-10    7.567E-10
     7.977E-10    8.387E-10    8.796E-10    9.205E-10    9.614E-10    1.002E-09    1.043E-09    1.084E-09    1.125E-09    1.167E-09
     1.208E-09    1.249E-09    1.291E-09    1.333E-09    1.375E-09    1.417E-09    1.459E-09    1.502E-09    1.545E-09    1.588E-09
     1.632E-09    1.676E-09    1.720E-09
 Ala      Conc. = 7.74E-11
   6.65504E-09  6.64645E-09  6.63577E-09  6.62344E-09  6.60926E-09  6.59321E-09  6.57440E-09  6.55212E-09  6.53080E-09  6.50999E-09
   6.48476E-09  6.46102E-09  6.44082E-09  6.41960E-09  6.39892E-09  6.37990E-09  6.36173E-09  6.34403E-09  6.32662E-09  6.30941E-09
   6.29231E-09  6.27531E-09  6.25838E-09  6.24151E-09  6.22469E-09  6.20792E-09  6.19117E-09  6.17447E-09  6.15783E-09  6.14121E-09
   6.12465E-09  6.10814E-09  6.09167E-09  6.07528E-09  6.05894E-09  6.04267E-09  6.02647E-09  6.01036E-09  5.99432E-09  5.97838E-09
   5.96252E-09  5.94676E-09  5.93111E-09  5.91558E-09  5.90015E-09  5.88485E-09  5.86967E-09  5.85462E-09  5.83972E-09  5.82497E-09
   5.81036E-09  5.79589E-09  5.78160E-09  5.76748E-09  5.75352E-09  5.73973E-09  5.72614E-09  5.71274E-09  5.69953E-09  5.68654E-09
   5.67375E-09  5.66116E-09  5.64877E-09  5.63652E-09  5.62438E-09  5.61229E-09  5.60023E-09  5.58815E-09  5.57601E-09  5.56376E-09
   5.55136E-09  5.53878E-09  5.52597E-09  5.51288E-09  5.49949E-09  5.48574E-09  5.47159E-09  5.45703E-09  5.44197E-09  5.42641E-09
   5.41029E-09  5.39357E-09  5.37621E-09  5.35820E-09  5.33948E-09  5.32001E-09  5.29977E-09  5.27872E-09  5.25684E-09  5.23412E-09
   5.21051E-09  5.18605E-09  5.16073E-09  5.13460E-09  5.10775E-09  5.08034E-09  5.05275E-09  5.02570E-09  5.00106E-09  4.98494E-09
   4.98859E-09  4.99129E-09  4.99017E-09  5.00181E-09  5.01504E-09  5.01861E-09  5.00438E-09  4.96676E-09  4.90284E-09  4.81338E-09
   4.70629E-09  4.59874E-09  4.50241E-09  4.38664E-09  4.27218E-09  4.18821E-09  4.11263E-09  4.03917E-09  3.96569E-09  3.89126E-09
   3.81532E-09  3.73762E-09  3.65798E-09  3.57638E-09  3.49281E-09  3.40730E-09  3.31988E-09  3.23061E-09  3.13953E-09  3.04670E-09
   2.95219E-09  2.85605E-09  2.75834E-09  2.65915E-09  2.55852E-09  2.45653E-09  2.35324E-09  2.24873E-09  2.14307E-09  2.03632E-09
   1.92855E-09  1.81983E-09  1.71023E-09  1.59984E-09  1.48870E-09  1.37689E-09  1.26448E-09  1.15156E-09  1.03816E-09  9.24399E-10
   8.10331E-10  6.96003E-10  5.81513E-10  4.66942E-10  3.52335E-10  2.37775E-10  1.23356E-10  9.14161E-12 -1.04794E-10 -2.18340E-10
  -3.31435E-10 -4.43934E-10 -5.55715E-10 -6.66549E-10 -7.76051E-10 -8.83207E-10 -9.83772E-10 -1.06679E-09 -1.14329E-09 -1.22029E-09
  -1.29985E-09 -1.38238E-09 -1.46918E-09 -1.56367E-09 -1.67030E-09 -1.79230E-09 -1.92894E-09 -2.07221E-09 -2.20432E-09 -2.30772E-09
  -2.40275E-09 -2.49391E-09 -2.58227E-09 -2.66821E-09 -2.75195E-09 -2.83359E-09 -2.91317E-09 -2.99073E-09 -3.06631E-09 -3.13991E-09
  -3.21155E-09 -3.28123E-09 -3.34897E-09 -3.41476E-09 -3.47861E-09 -3.54054E-09 -3.60053E-09 -3.65859E-09 -3.71473E-09 -3.76895E-09
  -3.82124E-09 -3.87163E-09 -3.92010E-09 -3.96665E-09 -4.01130E-09 -4.05404E-09 -4.09488E-09 -4.13379E-09 -4.17082E-09 -4.20595E-09
  -4.23918E-09 -4.27050E-09 -4.29993E-09 -4.32747E-09 -4.35312E-09 -4.37688E-09 -4.39875E-09 -4.41873E-09 -4.43684E-09 -4.45306E-09
  -4.46739E-09 -4.47984E-09 -4.49041E-09 -4.49912E-09 -4.50596E-09 -4.51090E-09 -4.51399E-09 -4.51522E-09 -4.51456E-09 -4.51204E-09
  -4.50766E-09 -4.50142E-09 -4.49332E-09 -4.48336E-09 -4.47154E-09 -4.45786E-09 -4.44233E-09 -4.42496E-09 -4.40573E-09 -4.38465E-09
  -4.36173E-09 -4.33696E-09 -4.31035E-09 -4.28193E-09 -4.25173E-09 -4.21981E-09 -4.18621E-09 -4.15097E-09 -4.11414E-09 -4.07576E-09
  -4.03587E-09 -3.99452E-09 -3.95175E-09 -3.90761E-09 -3.86213E-09 -3.81537E-09 -3.76737E-09 -3.71817E-09 -3.66781E-09 -3.61635E-09
  -3.56381E-09 -3.51026E-09 -3.45572E-09 -3.40025E-09 -3.34389E-09 -3.28667E-09 -3.22866E-09 -3.16989E-09 -3.11040E-09 -3.05024E-09
  -2.98945E-09 -2.92808E-09 -2.86617E-09 -2.80377E-09 -2.74090E-09 -2.67764E-09 -2.61400E-09 -2.55005E-09 -2.48582E-09 -2.42136E-09
  -2.35672E-09 -2.29191E-09 -2.22702E-09 -2.16206E-09 -2.09710E-09 -2.03216E-09 -1.96731E-09 -1.90257E-09 -1.83798E-09 -1.77362E-09
  -1.70949E-09 -1.64567E-09 -1.58218E-09 -1.51908E-09 -1.45639E-09 -1.39418E-09 -1.33248E-09 -1.27134E-09 -1.21081E-09 -1.15092E-09
  -1.09172E-09 -1.03324E-09 -9.75557E-10 -9.18662E-10 -8.62552E-10 -8.07200E-10 -7.52587E-10 -6.98701E-10 -6.45511E-10 -5.93010E-10
  -5.41173E-10 -4.89977E-10 -4.39405E-10 -3.89444E-10 -3.40065E-10 -2.91251E-10 -2.42981E-10 -1.95242E-10 -1.48006E-10 -1.01264E-10
  -5.49853E-11 -9.15472E-12  3.62422E-11  8.12282E-11  1.25823E-10  1.70054E-10  2.13936E-10  2.57482E-10  3.00710E-10  3.43658E-10
   3.86323E-10  4.28726E-10  4.70913E-10  5.12880E-10  5.54636E-10  5.96235E-10  6.37681E-10  6.78976E-10  7.20158E-10  7.61251E-10
   8.02250E-10  8.43211E-10  8.84118E-10  9.25011E-10  9.65895E-10  1.00681E-09  1.04776E-09  1.08877E-09  1.12985E-09  1.17105E-09
   1.21235E-09  1.25379E-09  1.29538E-09  1.33715E-09  1.37912E-09  1.42131E-09  1.46372E-09  1.50639E-09  1.54933E-09  1.59256E-09
   1.63611E-09  1.67998E-09  1.72422E-09
 Asp      Conc. = 6.17E-10
   7.32471E-09  7.22145E-09  7.12313E-09  7.01179E-09  6.90491E-09  6.78891E-09  6.68987E-09  6.61649E-09  6.57249E-09  6.54024E-09
   6.51400E-09  6.49138E-09  6.47117E-09  6.45241E-09  6.43417E-09  6.41634E-09  6.39894E-09  6.38189E-09  6.36517E-09  6.34873E-09
   6.33255E-09  6.31663E-09  6.30097E-09  6.28559E-09  6.27054E-09  6.25584E-09  6.24154E-09  6.22774E-09  6.21456E-09  6.20212E-09
   6.19067E-09  6.18049E-09  6.17210E-09  6.16632E-09  6.16466E-09  6.17054E-09  6.19212E-09  6.21948E-09  6.25582E-09  6.28567E-09
   6.30424E-09  6.31454E-09  6.32982E-09  6.36380E-09  6.42233E-09  6.51305E-09  6.59120E-09  6.65341E-09  6.75048E-09  6.85385E-09
   6.93801E-09  6.95678E-09  6.88849E-09  6.73587E-09  6.54489E-09  6.38168E-09  6.27632E-09  6.22321E-09  6.13534E-09  6.02883E-09
   5.97056E-09  5.93091E-09  5.89852E-09  5.88120E-09  5.85649E-09  5.80985E-09  5.75413E-09  5.71577E-09  5.68600E-09  5.66093E-09
   5.63871E-09  5.61834E-09  5.59919E-09  5.58083E-09  5.56299E-09  5.54544E-09  5.52799E-09  5.51054E-09  5.49292E-09  5.47508E-09
   5.45690E-09  5.43831E-09  5.41923E-09  5.39961E-09  5.37939E-09  5.35849E-09  5.33687E-09  5.31447E-09  5.29123E-09  5.26712E-09
   5.24206E-09  5.21604E-09  5.18899E-09  5.16086E-09  5.13161E-09  5.10119E-09  5.06955E-09  5.03666E-09  5.00246E-09  4.96693E-09
   4.93000E-09  4.89163E-09  4.85178E-09  4.81041E-09  4.76747E-09  4.72293E-09  4.67672E-09  4.62883E-09  4.57920E-09  4.52778E-09
   4.47455E-09  4.41944E-09  4.36242E-09  4.30344E-09  4.24248E-09  4.17947E-09  4.11439E-09  4.04718E-09  3.97781E-09  3.90626E-09
   3.83241E-09  3.75629E-09  3.67787E-09  3.59723E-09  3.51443E-09  3.42955E-09  3.34265E-09  3.25381E-09  3.16310E-09  3.07058E-09
   2.97634E-09  2.88044E-09  2.78294E-09  2.68393E-09  2.58347E-09  2.48164E-09  2.37850E-09  2.27413E-09  2.16860E-09  2.06198E-09
   1.95434E-09  1.84576E-09  1.73631E-09  1.62607E-09  1.51508E-09  1.40345E-09  1.29123E-09  1.17852E-09  1.06537E-09  9.51876E-10
   8.38120E-10  7.24154E-10  6.10087E-10  4.96015E-10  3.82004E-10  2.68162E-10  1.54621E-10  4.14945E-11 -7.10674E-11 -1.82843E-10
  -2.93599E-10 -4.02905E-10 -5.10135E-10 -6.14080E-10 -7.12141E-10 -7.96986E-10 -8.37106E-10 -7.42236E-10 -6.00240E-10 -4.68851E-10
  -3.65568E-10 -2.94039E-10 -2.64950E-10 -3.05592E-10 -4.52225E-10 -7.31556E-10 -1.13934E-09 -1.61382E-09 -2.01503E-09 -2.19642E-09
  -2.32166E-09 -2.42854E-09 -2.52642E-09 -2.61869E-09 -2.70689E-09 -2.79182E-09 -2.87391E-09 -2.95345E-09 -3.03060E-09 -3.10549E-09
  -3.17820E-09 -3.24877E-09 -3.31727E-09 -3.38371E-09 -3.44813E-09 -3.51055E-09 -3.57097E-09 -3.62942E-09 -3.68590E-09 -3.74042E-09
  -3.79299E-09 -3.84362E-09 -3.89232E-09 -3.93907E-09 -3.98391E-09 -4.02682E-09 -4.06782E-09 -4.10688E-09 -4.14404E-09 -4.17930E-09
  -4.21265E-09 -4.24408E-09 -4.27362E-09 -4.30124E-09 -4.32699E-09 -4.35084E-09 -4.37278E-09 -4.39284E-09 -4.41102E-09 -4.42731E-09
  -4.44170E-09 -4.45422E-09 -4.46485E-09 -4.47361E-09 -4.48051E-09 -4.48550E-09 -4.48864E-09 -4.48991E-09 -4.48930E-09 -4.48683E-09
