 LCModel (Version 6.3-1R) Copyright: S.W. Provencher.          Ref.: Magn. Reson. Med. 30:672-679 (1993).                
 onepulse 13x26_ftSpec_smooth_lcm
 26 lines in following concentration table = NCONC+1
    Conc.  %SD /Cr+PCr  Metabolite                                         
 2.94E-10 184%   0.400 Ala                                                 
 3.13E-09  55%   4.257 Asp                                                 
 1.74E-10 999%   0.237 Cr                                                  
 1.14E-09 108%   1.549 GABA                                                
 1.50E-09 104%   2.038 Glc                                                 
 3.35E-10 388%   0.455 Gln                                                 
    0.000 999%   0.000 Glu                                                 
    0.000 999%   0.000 Glyc                                                
    0.000 999%   0.000 GPC                                                 
 5.04E-10 164%   0.686 GSH                                                 
 1.69E-09  59%   2.300 Ins                                                 
    0.000 999%   0.000 Lac                                                 
    0.000 999%   0.000 NAAG                                                
 6.31E-10  73%   0.858 NAA                                                 
    0.000 999%   0.000 PCh                                                 
 5.61E-10 999%   0.763 PCr                                                 
 2.14E-09  46%   2.911 PE                                                  
 1.07E-10 376%   0.145 Scyllo                                              
 6.15E-10 517%   0.836 Ser                                                 
    0.000 999%   0.000 Tau                                                 
    0.000 999%   0.000 GPC+PCh                                             
 6.31E-10  73%   0.858 NAA+NAAG                                            
 1.69E-09  59%   2.300 Ins+Glyc                                            
 7.35E-10  81%   1.000 Cr+PCr                                              
 3.35E-10 388%   0.455 Glu+Gln                                             
   6 lines in following misc. output table
  FWHM = 0.112 ppm    S/N =   2                                            
  Data shift = 0.436 ppm                                                   
  Ph: 156 deg      34.6 deg/ppm                                            
  alphaB,S = 2.7E+01,   3.3E+01                                            
    9 spline knots.   Ns = 5(1)                                            
  (12) 4 infls.   ( 9) 3 extrs.                                            
  363 points on ppm-axis = NY
      4.250000     4.238821     4.227641     4.216462     4.205282     4.194103     4.182923     4.171744     4.160564     4.149385
      4.138206     4.127026     4.115847     4.104667     4.093488     4.082308     4.071129     4.059949     4.048770     4.037591
      4.026411     4.015232     4.004052     3.992873     3.981693     3.970514     3.959334     3.948155     3.936975     3.925796
      3.914617     3.903437     3.892258     3.881078     3.869899     3.858719     3.847540     3.836360     3.825181     3.814002
      3.802822     3.791643     3.780463     3.769284     3.758104     3.746925     3.735745     3.724566     3.713387     3.702207
      3.691028     3.679848     3.668669     3.657489     3.646310     3.635130     3.623951     3.612772     3.601592     3.590413
      3.579233     3.568054     3.556874     3.545695     3.534515     3.523336     3.512156     3.500977     3.489798     3.478618
      3.467439     3.456259     3.445080     3.433900     3.422721     3.411541     3.400362     3.389183     3.378003     3.366824
      3.355644     3.344465     3.333285     3.322106     3.310926     3.299747     3.288568     3.277388     3.266209     3.255029
      3.243850     3.232670     3.221491     3.210311     3.199132     3.187953     3.176773     3.165594     3.154414     3.143235
      3.132055     3.120876     3.109696     3.098517     3.087337     3.076158     3.064979     3.053799     3.042620     3.031440
      3.020261     3.009081     2.997902     2.986722     2.975543     2.964364     2.953184     2.942005     2.930825     2.919646
      2.908466     2.897287     2.886107     2.874928     2.863749     2.852569     2.841390     2.830210     2.819031     2.807851
      2.796672     2.785492     2.774313     2.763134     2.751954     2.740775     2.729595     2.718416     2.707236     2.696057
      2.684877     2.673698     2.662519     2.651339     2.640160     2.628980     2.617801     2.606621     2.595442     2.584262
      2.573083     2.561903     2.550724     2.539545     2.528365     2.517186     2.506006     2.494827     2.483647     2.472468
      2.461288     2.450109     2.438930     2.427750     2.416571     2.405391     2.394212     2.383032     2.371853     2.360673
      2.349494     2.338315     2.327135     2.315956     2.304776     2.293597     2.282417     2.271238     2.260058     2.248879
      2.237700     2.226520     2.215341     2.204161     2.192982     2.181802     2.170623     2.159443     2.148264     2.137084
      2.125905     2.114726     2.103546     2.092367     2.081187     2.070008     2.058828     2.047649     2.036469     2.025290
      2.014111     2.002931     1.991752     1.980572     1.969393     1.958213     1.947034     1.935854     1.924675     1.913496
      1.902316     1.891137     1.879957     1.868778     1.857598     1.846419     1.835239     1.824060     1.812881     1.801701
      1.790522     1.779342     1.768163     1.756983     1.745804     1.734624     1.723445     1.712265     1.701086     1.689907
      1.678727     1.667548     1.656368     1.645189     1.634009     1.622830     1.611650     1.600471     1.589292     1.578112
      1.566933     1.555753     1.544574     1.533394     1.522215     1.511035     1.499856     1.488677     1.477497     1.466318
      1.455138     1.443959     1.432779     1.421600     1.410420     1.399241     1.388062     1.376882     1.365703     1.354523
      1.343344     1.332164     1.320985     1.309805     1.298626     1.287446     1.276267     1.265088     1.253908     1.242729
      1.231549     1.220370     1.209190     1.198011     1.186831     1.175652     1.164473     1.153293     1.142114     1.130934
      1.119755     1.108575     1.097396     1.086216     1.075037     1.063858     1.052678     1.041499     1.030319     1.019140
      1.007960     0.996781     0.985601     0.974422     0.963243     0.952063     0.940884     0.929704     0.918525     0.907345
      0.896166     0.884986     0.873807     0.862628     0.851448     0.840269     0.829089     0.817910     0.806730     0.795551
      0.784371     0.773192     0.762012     0.750833     0.739654     0.728474     0.717295     0.706115     0.694936     0.683756
      0.672577     0.661397     0.650218     0.639039     0.627859     0.616680     0.605500     0.594321     0.583141     0.571962
      0.560782     0.549603     0.538424     0.527244     0.516065     0.504885     0.493706     0.482526     0.471347     0.460167
      0.448988     0.437809     0.426629     0.415450     0.404270     0.393091     0.381911     0.370732     0.359552     0.348373
      0.337193     0.326014     0.314835     0.303655     0.292476     0.281296     0.270117     0.258937     0.247758     0.236578
      0.225399     0.214220     0.203040
 NY phased data points follow
   1.11346E-08  9.75022E-09  1.12018E-08  9.76437E-09  1.07224E-08  9.81577E-09  1.12076E-08  1.04557E-08  1.21786E-08  1.13163E-08
   1.18931E-08  1.10087E-08  1.17186E-08  1.08991E-08  1.19303E-08  1.02350E-08  1.09776E-08  1.04127E-08  1.17401E-08  1.10062E-08
   1.16738E-08  1.05161E-08  1.02355E-08  9.82950E-09  1.10020E-08  1.13162E-08  1.27124E-08  1.32436E-08  1.29825E-08  1.20561E-08
   1.23903E-08  1.13184E-08  1.18221E-08  1.10982E-08  1.15350E-08  1.12177E-08  1.07949E-08  1.03905E-08  1.09966E-08  9.88716E-09
   1.02442E-08  9.35633E-09  9.14518E-09  9.09766E-09  9.50857E-09  9.25645E-09  9.42054E-09  8.39556E-09  8.21401E-09  7.76082E-09
   8.14419E-09  7.23554E-09  8.04887E-09  7.43586E-09  7.37207E-09  8.05534E-09  9.06623E-09  9.79301E-09  1.09136E-08  1.08412E-08
   1.10611E-08  9.95390E-09  9.80531E-09  9.16904E-09  9.06950E-09  8.17085E-09  8.32605E-09  6.95878E-09  6.48229E-09  5.69158E-09
   4.77085E-09  5.94126E-09  7.69436E-09  1.03380E-08  1.26835E-08  1.27320E-08  1.31025E-08  1.34676E-08  1.30724E-08  1.28338E-08
   1.27583E-08  1.21084E-08  1.24879E-08  1.29542E-08  1.24898E-08  1.24814E-08  1.17764E-08  1.17178E-08  1.18929E-08  1.12231E-08
   1.13921E-08  1.12026E-08  1.07297E-08  1.05413E-08  1.04730E-08  1.01738E-08  1.06627E-08  1.03225E-08  1.02767E-08  1.04064E-08
   1.01025E-08  9.37768E-09  9.27264E-09  8.54490E-09  7.90090E-09  7.57005E-09  7.37959E-09  7.71022E-09  7.34639E-09  6.78391E-09
   7.36892E-09  7.12585E-09  7.03084E-09  7.05697E-09  7.15716E-09  7.22480E-09  7.06379E-09  6.47833E-09  5.23313E-09  5.62035E-09
   4.76663E-09  5.32256E-09  4.97737E-09  4.78062E-09  4.51956E-09  4.88533E-09  4.65972E-09  4.49219E-09  4.29841E-09  4.02575E-09
   3.74266E-09  3.81516E-09  3.66919E-09  4.81795E-09  5.48797E-09  5.88590E-09  6.34468E-09  6.46971E-09  7.19632E-09  8.02839E-09
   8.21229E-09  8.68354E-09  9.13675E-09  9.72272E-09  9.18988E-09  9.67520E-09  9.59310E-09  9.95955E-09  9.42710E-09  9.94280E-09
   1.02567E-08  1.01872E-08  1.05536E-08  1.05230E-08  1.12479E-08  1.09680E-08  1.03591E-08  1.09983E-08  1.07414E-08  1.10332E-08
   1.08412E-08  1.13178E-08  1.11666E-08  1.38595E-08  1.74516E-08  2.09501E-08  2.22558E-08  2.25674E-08  2.29127E-08  2.33405E-08
   2.26342E-08  2.31219E-08  2.37131E-08  2.33816E-08  2.35743E-08  2.37967E-08  2.33835E-08  2.39549E-08  2.34294E-08  2.29342E-08
   2.19272E-08  2.16686E-08  2.09041E-08  2.03951E-08  1.81096E-08  1.65010E-08  1.40733E-08  1.15550E-08  8.62139E-09  6.13663E-09
   2.68029E-09 -8.38323E-10 -4.48703E-09 -7.31062E-09 -1.05809E-08 -1.28778E-08 -1.56082E-08 -1.71976E-08 -1.80001E-08 -1.81764E-08
  -1.77983E-08 -1.59431E-08 -1.41280E-08 -1.18924E-08 -9.63040E-09 -7.95222E-09 -5.33324E-09 -4.68510E-09 -3.24969E-09 -3.10741E-09
  -2.54748E-09 -2.25704E-09 -3.07401E-09 -2.75935E-09 -2.65993E-09 -2.32354E-09 -1.89147E-09 -1.94205E-09 -1.54486E-09 -1.89719E-09
  -1.58813E-09 -1.61253E-09 -1.68579E-09 -1.04046E-09 -1.73100E-09 -1.65803E-09 -1.86757E-09 -1.77032E-09 -1.85556E-09 -1.70619E-09
  -1.61078E-09 -1.28071E-09 -1.37662E-09 -9.13142E-10 -1.26440E-09 -1.44667E-09 -1.30532E-09 -1.99682E-09 -2.04514E-09 -2.41677E-09
  -2.25405E-09 -1.83711E-09 -2.08053E-09 -1.25894E-09 -1.05412E-09 -6.24352E-10 -9.49296E-10 -1.10231E-09 -1.03638E-09 -1.02799E-09
  -1.41521E-09 -1.02726E-09 -1.74784E-09 -1.50734E-09 -1.39912E-09 -1.99846E-09 -1.99783E-09 -2.59938E-09 -2.15688E-09 -2.09835E-09
  -2.29341E-09 -2.07125E-09 -1.83802E-09 -1.69443E-09 -1.41276E-09 -1.16826E-09 -1.24202E-09 -6.36046E-10 -8.43617E-10  2.05569E-10
  -2.05260E-10 -2.53919E-10 -8.47465E-10 -2.71319E-10 -4.39577E-10 -5.64599E-10 -4.16163E-10 -1.05982E-09 -7.92021E-10 -3.49967E-10
  -8.98506E-10 -5.38271E-10 -1.38397E-09 -1.44005E-09 -1.50158E-09 -9.99285E-10 -1.84765E-09 -1.49139E-09 -1.41094E-09 -1.45836E-09
  -1.69918E-09 -2.11245E-09 -1.93567E-09 -2.21993E-09 -2.05480E-09 -1.91921E-09 -1.96056E-09 -1.89311E-09 -2.20970E-09 -2.38938E-09
  -2.89179E-09 -1.94900E-09 -2.39381E-09 -2.01089E-09 -2.74052E-09 -2.42610E-09 -2.77475E-09 -2.43894E-09 -2.32590E-09 -2.37675E-09
  -2.68157E-09 -2.42045E-09 -2.76115E-09 -2.10342E-09 -2.86368E-09 -2.26723E-09 -3.00909E-09 -2.46993E-09 -2.60880E-09 -2.10756E-09
  -2.75619E-09 -2.36447E-09 -3.14222E-09 -2.45444E-09 -3.13302E-09 -2.22066E-09 -2.69514E-09 -2.45231E-09 -2.21951E-09 -2.74123E-09
  -3.15576E-09 -2.53123E-09 -2.65489E-09 -2.80394E-09 -2.89968E-09 -2.49256E-09 -2.73118E-09 -2.54074E-09 -2.92347E-09 -2.82205E-09
  -2.74840E-09 -2.77608E-09 -2.59074E-09 -2.96835E-09 -3.27522E-09 -2.76773E-09 -2.87571E-09 -2.42232E-09 -2.80869E-09 -2.76415E-09
  -2.95873E-09 -2.58950E-09 -2.70225E-09 -2.46266E-09 -2.82902E-09 -2.57388E-09 -2.43376E-09 -2.54388E-09 -2.80695E-09 -2.22199E-09
  -2.55387E-09 -2.05915E-09 -2.70553E-09
 NY points of the fit to the data follow
   1.18157E-08  1.01098E-08  9.44529E-09  9.68852E-09  1.03490E-08  1.04805E-08  1.03374E-08  1.08019E-08  1.11737E-08  1.12653E-08
   1.14389E-08  1.16424E-08  1.20857E-08  1.23933E-08  1.21835E-08  1.16773E-08  1.13114E-08  1.05664E-08  9.59300E-09  9.50256E-09
   1.02830E-08  1.12288E-08  1.15393E-08  1.15825E-08  1.15376E-08  1.17691E-08  1.19328E-08  1.18385E-08  1.17555E-08  1.19224E-08
   1.19113E-08  1.23048E-08  1.23582E-08  1.18930E-08  1.10341E-08  1.05989E-08  1.04538E-08  1.05417E-08  1.03437E-08  9.77684E-09
   8.95359E-09  8.04197E-09  7.45815E-09  7.96294E-09  9.00789E-09  9.16054E-09  8.72650E-09  8.68701E-09  9.36158E-09  1.00348E-08
   1.04903E-08  1.05394E-08  1.00360E-08  9.28695E-09  8.87060E-09  8.67673E-09  9.26010E-09  9.58331E-09  9.38750E-09  9.07701E-09
   9.11620E-09  9.26847E-09  9.48090E-09  9.64914E-09  9.83863E-09  9.85811E-09  9.71924E-09  9.59728E-09  9.61709E-09  9.77209E-09
   9.85165E-09  9.78747E-09  9.79771E-09  9.93752E-09  1.00460E-08  1.01578E-08  1.08313E-08  1.20385E-08  1.24881E-08  1.23904E-08
   1.20657E-08  1.17380E-08  1.16051E-08  1.15967E-08  1.14738E-08  1.11271E-08  1.04720E-08  9.39799E-09  8.47442E-09  8.51551E-09
   8.60850E-09  8.71059E-09  8.73942E-09  8.60996E-09  8.56359E-09  8.61018E-09  8.51140E-09  8.45753E-09  8.55278E-09  8.69458E-09
   8.87363E-09  8.93960E-09  9.00531E-09  9.15200E-09  9.24183E-09  9.25030E-09  9.20843E-09  9.13659E-09  9.01995E-09  8.83853E-09
   8.62128E-09  8.47266E-09  8.39962E-09  8.19789E-09  8.01400E-09  7.97457E-09  7.95989E-09  7.94919E-09  7.93761E-09  7.92380E-09
   7.90713E-09  7.88772E-09  7.86554E-09  7.84070E-09  7.81329E-09  7.78344E-09  7.75123E-09  7.71677E-09  7.68017E-09  7.64150E-09
   7.60084E-09  7.55829E-09  7.51389E-09  7.46776E-09  7.41992E-09  7.37048E-09  7.31945E-09  7.26693E-09  7.21299E-09  7.15768E-09
   7.10110E-09  7.04328E-09  6.98432E-09  6.92433E-09  6.86331E-09  6.80140E-09  6.73875E-09  6.67548E-09  6.61169E-09  6.54763E-09
   6.48351E-09  6.41955E-09  6.35616E-09  6.29381E-09  6.23305E-09  6.17471E-09  6.12000E-09  6.07050E-09  6.02864E-09  5.99825E-09
   5.98530E-09  6.00041E-09  6.06312E-09  6.21447E-09  6.55528E-09  7.40785E-09  1.03455E-08  1.80030E-08  2.37790E-08  2.59430E-08
   2.58523E-08  2.52956E-08  2.52456E-08  2.58947E-08  2.68159E-08  2.67385E-08  2.37330E-08  1.67535E-08  8.85623E-09  6.54904E-09
   5.60579E-09  5.07340E-09  4.71471E-09  4.44501E-09  4.22669E-09  4.04060E-09  3.87595E-09  3.72623E-09  3.58729E-09  3.45637E-09
   3.33156E-09  3.21151E-09  3.09522E-09  2.98200E-09  2.87127E-09  2.76259E-09  2.65568E-09  2.55027E-09  2.44614E-09  2.34315E-09
   2.24118E-09  2.14010E-09  2.03985E-09  1.94036E-09  1.84158E-09  1.74346E-09  1.64598E-09  1.54912E-09  1.45284E-09  1.35713E-09
   1.26198E-09  1.16741E-09  1.07338E-09  9.79925E-10  8.87004E-10  7.94647E-10  7.02869E-10  6.11659E-10  5.21013E-10  4.30966E-10
   3.41524E-10  2.52691E-10  1.64475E-10  7.68823E-11 -1.00797E-11 -9.63567E-11 -1.81988E-10 -2.66941E-10 -3.51183E-10 -4.34719E-10
  -5.17536E-10 -5.99613E-10 -6.80934E-10 -7.61498E-10 -8.41277E-10 -9.20257E-10 -9.98433E-10 -1.07579E-09 -1.15230E-09 -1.22795E-09
  -1.30274E-09 -1.37665E-09 -1.44965E-09 -1.52174E-09 -1.59291E-09 -1.66313E-09 -1.73239E-09 -1.80069E-09 -1.86799E-09 -1.93430E-09
  -1.99959E-09 -2.06385E-09 -2.12707E-09 -2.18923E-09 -2.25032E-09 -2.31033E-09 -2.36923E-09 -2.42703E-09 -2.48370E-09 -2.53923E-09
  -2.59360E-09 -2.64681E-09 -2.69884E-09 -2.74968E-09 -2.79931E-09 -2.84773E-09 -2.89491E-09 -2.94086E-09 -2.98555E-09 -3.02897E-09
  -3.07111E-09 -3.11196E-09 -3.15150E-09 -3.18974E-09 -3.22664E-09 -3.26221E-09 -3.29643E-09 -3.32929E-09 -3.36078E-09 -3.39088E-09
  -3.41960E-09 -3.44691E-09 -3.47281E-09 -3.49729E-09 -3.52033E-09 -3.54193E-09 -3.56208E-09 -3.58076E-09 -3.59798E-09 -3.61371E-09
  -3.62796E-09 -3.64070E-09 -3.65194E-09 -3.66166E-09 -3.66986E-09 -3.67653E-09 -3.68165E-09 -3.68523E-09 -3.68725E-09 -3.68771E-09
  -3.68660E-09 -3.68391E-09 -3.67963E-09 -3.67377E-09 -3.66630E-09 -3.65723E-09 -3.64655E-09 -3.63426E-09 -3.62034E-09 -3.60479E-09
  -3.58760E-09 -3.56878E-09 -3.54831E-09 -3.52620E-09 -3.50242E-09 -3.47699E-09 -3.44990E-09 -3.42114E-09 -3.39070E-09 -3.35859E-09
  -3.32480E-09 -3.28932E-09 -3.25216E-09 -3.21332E-09 -3.17277E-09 -3.13054E-09 -3.08660E-09 -3.04096E-09 -2.99363E-09 -2.94458E-09
  -2.89384E-09 -2.84138E-09 -2.78722E-09 -2.73134E-09 -2.67376E-09 -2.61446E-09 -2.55345E-09 -2.49073E-09 -2.42629E-09 -2.36014E-09
  -2.29228E-09 -2.22270E-09 -2.15142E-09 -2.07842E-09 -2.00371E-09 -1.92729E-09 -1.84916E-09 -1.76933E-09 -1.68779E-09 -1.60456E-09
  -1.51962E-09 -1.43298E-09 -1.34464E-09 -1.25462E-09 -1.16290E-09 -1.06950E-09 -9.74414E-10 -8.77648E-10 -7.79206E-10 -6.79093E-10
  -5.77310E-10 -4.73864E-10 -3.68757E-10
 NY background values follow
     5.407E-09    5.536E-09    5.662E-09    5.786E-09    5.909E-09    6.030E-09    6.149E-09    6.265E-09    6.381E-09    6.494E-09
     6.605E-09    6.714E-09    6.822E-09    6.927E-09    7.031E-09    7.132E-09    7.232E-09    7.330E-09    7.426E-09    7.520E-09
     7.612E-09    7.702E-09    7.790E-09    7.877E-09    7.961E-09    8.044E-09    8.124E-09    8.203E-09    8.280E-09    8.354E-09
     8.427E-09    8.498E-09    8.567E-09    8.635E-09    8.700E-09    8.763E-09    8.825E-09    8.884E-09    8.942E-09    8.998E-09
     9.052E-09    9.104E-09    9.154E-09    9.202E-09    9.248E-09    9.293E-09    9.335E-09    9.376E-09    9.415E-09    9.452E-09
     9.487E-09    9.521E-09    9.552E-09    9.582E-09    9.610E-09    9.636E-09    9.660E-09    9.682E-09    9.703E-09    9.722E-09
     9.739E-09    9.754E-09    9.768E-09    9.779E-09    9.789E-09    9.798E-09    9.804E-09    9.809E-09    9.812E-09    9.813E-09
     9.813E-09    9.811E-09    9.807E-09    9.801E-09    9.794E-09    9.785E-09    9.775E-09    9.763E-09    9.749E-09    9.734E-09
     9.717E-09    9.698E-09    9.678E-09    9.656E-09    9.633E-09    9.608E-09    9.581E-09    9.553E-09    9.524E-09    9.493E-09
     9.460E-09    9.426E-09    9.391E-09    9.354E-09    9.316E-09    9.276E-09    9.235E-09    9.192E-09    9.148E-09    9.102E-09
     9.056E-09    9.007E-09    8.958E-09    8.907E-09    8.855E-09    8.801E-09    8.747E-09    8.690E-09    8.633E-09    8.575E-09
     8.515E-09    8.454E-09    8.391E-09    8.328E-09    8.263E-09    8.198E-09    8.131E-09    8.063E-09    7.993E-09    7.923E-09
     7.852E-09    7.779E-09    7.706E-09    7.631E-09    7.556E-09    7.479E-09    7.402E-09    7.323E-09    7.244E-09    7.163E-09
     7.082E-09    7.000E-09    6.917E-09    6.833E-09    6.748E-09    6.662E-09    6.576E-09    6.488E-09    6.400E-09    6.311E-09
     6.222E-09    6.131E-09    6.040E-09    5.948E-09    5.856E-09    5.763E-09    5.669E-09    5.574E-09    5.479E-09    5.384E-09
     5.287E-09    5.191E-09    5.093E-09    4.995E-09    4.897E-09    4.798E-09    4.699E-09    4.599E-09    4.499E-09    4.398E-09
     4.297E-09    4.196E-09    4.094E-09    3.992E-09    3.889E-09    3.787E-09    3.684E-09    3.580E-09    3.477E-09    3.373E-09
     3.269E-09    3.165E-09    3.060E-09    2.956E-09    2.851E-09    2.746E-09    2.642E-09    2.537E-09    2.432E-09    2.327E-09
     2.221E-09    2.116E-09    2.011E-09    1.906E-09    1.801E-09    1.696E-09    1.591E-09    1.486E-09    1.382E-09    1.277E-09
     1.173E-09    1.069E-09    9.647E-10    8.609E-10    7.574E-10    6.541E-10    5.510E-10    4.483E-10    3.458E-10    2.437E-10
     1.419E-10    4.051E-11   -6.054E-11   -1.612E-10   -2.614E-10   -3.612E-10   -4.606E-10   -5.595E-10   -6.579E-10   -7.558E-10
    -8.532E-10   -9.501E-10   -1.046E-09   -1.142E-09   -1.237E-09   -1.332E-09   -1.426E-09   -1.519E-09   -1.612E-09   -1.704E-09
    -1.795E-09   -1.885E-09   -1.975E-09   -2.064E-09   -2.153E-09   -2.240E-09   -2.327E-09   -2.413E-09   -2.498E-09   -2.582E-09
    -2.666E-09   -2.748E-09   -2.830E-09   -2.911E-09   -2.990E-09   -3.069E-09   -3.147E-09   -3.224E-09   -3.300E-09   -3.375E-09
    -3.449E-09   -3.522E-09   -3.594E-09   -3.665E-09   -3.735E-09   -3.803E-09   -3.871E-09   -3.938E-09   -4.003E-09   -4.067E-09
    -4.130E-09   -4.192E-09   -4.253E-09   -4.312E-09   -4.371E-09   -4.428E-09   -4.484E-09   -4.538E-09   -4.591E-09   -4.644E-09
    -4.694E-09   -4.744E-09   -4.792E-09   -4.839E-09   -4.884E-09   -4.928E-09   -4.971E-09   -5.012E-09   -5.052E-09   -5.091E-09
    -5.128E-09   -5.164E-09   -5.198E-09   -5.231E-09   -5.263E-09   -5.293E-09   -5.321E-09   -5.348E-09   -5.374E-09   -5.398E-09
    -5.421E-09   -5.442E-09   -5.461E-09   -5.479E-09   -5.495E-09   -5.510E-09   -5.524E-09   -5.535E-09   -5.545E-09   -5.554E-09
    -5.561E-09   -5.566E-09   -5.570E-09   -5.572E-09   -5.573E-09   -5.571E-09   -5.569E-09   -5.564E-09   -5.558E-09   -5.550E-09
    -5.541E-09   -5.530E-09   -5.517E-09   -5.502E-09   -5.486E-09   -5.468E-09   -5.449E-09   -5.427E-09   -5.404E-09   -5.380E-09
    -5.353E-09   -5.325E-09   -5.295E-09   -5.263E-09   -5.230E-09   -5.195E-09   -5.158E-09   -5.119E-09   -5.079E-09   -5.037E-09
    -4.993E-09   -4.947E-09   -4.900E-09   -4.851E-09   -4.800E-09   -4.747E-09   -4.693E-09   -4.636E-09   -4.578E-09   -4.519E-09
    -4.457E-09   -4.394E-09   -4.329E-09   -4.262E-09   -4.193E-09   -4.123E-09   -4.050E-09   -3.976E-09   -3.901E-09   -3.823E-09
    -3.744E-09   -3.663E-09   -3.580E-09   -3.495E-09   -3.409E-09   -3.321E-09   -3.231E-09   -3.139E-09   -3.046E-09   -2.951E-09
    -2.854E-09   -2.755E-09   -2.655E-09   -2.553E-09   -2.449E-09   -2.343E-09   -2.236E-09   -2.127E-09   -2.016E-09   -1.904E-09
    -1.790E-09   -1.674E-09   -1.556E-09
 Ala      Conc. = 2.94E-10
   5.62032E-09  5.71937E-09  5.82199E-09  5.92403E-09  6.02263E-09  6.11587E-09  6.19403E-09  6.28240E-09  6.39916E-09  6.48530E-09
   6.56282E-09  6.68278E-09  6.79322E-09  6.88964E-09  6.99738E-09  7.10639E-09  7.21338E-09  7.31782E-09  7.41968E-09  7.51901E-09
   7.61590E-09  7.71043E-09  7.80265E-09  7.89264E-09  7.98044E-09  8.06608E-09  8.14958E-09  8.23099E-09  8.31034E-09  8.38762E-09
   8.46289E-09  8.53611E-09  8.60732E-09  8.67658E-09  8.74382E-09  8.80909E-09  8.87242E-09  8.93380E-09  8.99322E-09  9.05073E-09
   9.10628E-09  9.15993E-09  9.21167E-09  9.26153E-09  9.30946E-09  9.35553E-09  9.39971E-09  9.44200E-09  9.48247E-09  9.52108E-09
   9.55783E-09  9.59272E-09  9.62581E-09  9.65709E-09  9.68652E-09  9.71414E-09  9.73998E-09  9.76406E-09  9.78633E-09  9.80690E-09
   9.82568E-09  9.84271E-09  9.85801E-09  9.87161E-09  9.88349E-09  9.89368E-09  9.90220E-09  9.90907E-09  9.91428E-09  9.91785E-09
   9.91982E-09  9.92020E-09  9.91901E-09  9.91626E-09  9.91199E-09  9.90623E-09  9.89898E-09  9.89032E-09  9.88022E-09  9.86880E-09
   9.85603E-09  9.84200E-09  9.82674E-09  9.81038E-09  9.79297E-09  9.77456E-09  9.75536E-09  9.73545E-09  9.71504E-09  9.69438E-09
   9.67375E-09  9.65364E-09  9.63458E-09  9.61741E-09  9.60343E-09  9.59466E-09  9.59463E-09  9.61014E-09  9.65680E-09  9.77837E-09
   9.93580E-09  9.94821E-09  9.94835E-09  1.00252E-08  1.00443E-08  9.98270E-09  9.87202E-09  9.73283E-09  9.55045E-09  9.30500E-09
   9.02563E-09  8.81682E-09  8.68537E-09  8.42689E-09  8.18781E-09  8.09460E-09  8.02762E-09  7.96606E-09  7.90498E-09  7.84297E-09
   7.77933E-09  7.71411E-09  7.64724E-09  7.57879E-09  7.50880E-09  7.43735E-09  7.36449E-09  7.29030E-09  7.21483E-09  7.13812E-09
   7.06022E-09  6.98119E-09  6.90105E-09  6.81985E-09  6.73761E-09  6.65439E-09  6.57019E-09  6.48505E-09  6.39902E-09  6.31210E-09
   6.22434E-09  6.13574E-09  6.04633E-09  5.95620E-09  5.86526E-09  5.77359E-09  5.68122E-09  5.58819E-09  5.49448E-09  5.40015E-09
   5.30524E-09  5.20971E-09  5.11363E-09  5.01708E-09  4.91999E-09  4.82244E-09  4.72452E-09  4.62624E-09  4.52767E-09  4.42896E-09
   4.33018E-09  4.23168E-09  4.13385E-09  4.03767E-09  3.94535E-09  3.86402E-09  3.82834E-09  3.90567E-09  3.93999E-09  3.88982E-09
   3.78645E-09  3.67172E-09  3.56850E-09  3.48148E-09  3.40126E-09  3.29881E-09  3.12917E-09  2.86633E-09  2.57819E-09  2.42210E-09
   2.29774E-09  2.18283E-09  2.07195E-09  1.96315E-09  1.85557E-09  1.74880E-09  1.64260E-09  1.53684E-09  1.43144E-09  1.32636E-09
   1.22156E-09  1.11705E-09  1.01280E-09  9.08842E-10  8.05162E-10  7.01756E-10  5.98662E-10  4.95881E-10  3.93417E-10  2.91302E-10
   1.89542E-10  8.81390E-11 -1.28773E-11 -1.13484E-10 -2.13681E-10 -3.13444E-10 -4.12762E-10 -5.11590E-10 -6.09949E-10 -7.07810E-10
  -8.05153E-10 -9.01952E-10 -9.98198E-10 -1.09387E-09 -1.18897E-09 -1.28346E-09 -1.37732E-09 -1.47054E-09 -1.56313E-09 -1.65503E-09
  -1.74624E-09 -1.83673E-09 -1.92651E-09 -2.01556E-09 -2.10387E-09 -2.19137E-09 -2.27810E-09 -2.36404E-09 -2.44914E-09 -2.53340E-09
  -2.61682E-09 -2.69936E-09 -2.78101E-09 -2.86178E-09 -2.94162E-09 -3.02052E-09 -3.09848E-09 -3.17548E-09 -3.25150E-09 -3.32652E-09
  -3.40054E-09 -3.47354E-09 -3.54549E-09 -3.61639E-09 -3.68622E-09 -3.75497E-09 -3.82262E-09 -3.88916E-09 -3.95458E-09 -4.01885E-09
  -4.08197E-09 -4.14392E-09 -4.20470E-09 -4.26427E-09 -4.32264E-09 -4.37979E-09 -4.43571E-09 -4.49037E-09 -4.54378E-09 -4.59591E-09
  -4.64675E-09 -4.69630E-09 -4.74454E-09 -4.79145E-09 -4.83703E-09 -4.88126E-09 -4.92413E-09 -4.96564E-09 -5.00576E-09 -5.04448E-09
  -5.08181E-09 -5.11771E-09 -5.15219E-09 -5.18523E-09 -5.21682E-09 -5.24696E-09 -5.27563E-09 -5.30281E-09 -5.32851E-09 -5.35271E-09
  -5.37540E-09 -5.39657E-09 -5.41622E-09 -5.43432E-09 -5.45088E-09 -5.46589E-09 -5.47933E-09 -5.49120E-09 -5.50150E-09 -5.51020E-09
  -5.51731E-09 -5.52281E-09 -5.52669E-09 -5.52896E-09 -5.52961E-09 -5.52862E-09 -5.52598E-09 -5.52170E-09 -5.51576E-09 -5.50816E-09
  -5.49890E-09 -5.48796E-09 -5.47534E-09 -5.46103E-09 -5.44503E-09 -5.42734E-09 -5.40794E-09 -5.38684E-09 -5.36402E-09 -5.33949E-09
  -5.31324E-09 -5.28526E-09 -5.25555E-09 -5.22411E-09 -5.19093E-09 -5.15601E-09 -5.11934E-09 -5.08093E-09 -5.04076E-09 -4.99885E-09
  -4.95517E-09 -4.90974E-09 -4.86254E-09 -4.81358E-09 -4.76286E-09 -4.71037E-09 -4.65611E-09 -4.60008E-09 -4.54229E-09 -4.48272E-09
  -4.42137E-09 -4.35826E-09 -4.29337E-09 -4.22671E-09 -4.15827E-09 -4.08807E-09 -4.01608E-09 -3.94233E-09 -3.86681E-09 -3.78951E-09
  -3.71045E-09 -3.62962E-09 -3.54702E-09 -3.46266E-09 -3.37654E-09 -3.28866E-09 -3.19902E-09 -3.10762E-09 -3.01448E-09 -2.91958E-09
  -2.82294E-09 -2.72456E-09 -2.62444E-09 -2.52258E-09 -2.41899E-09 -2.31368E-09 -2.20664E-09 -2.09789E-09 -1.98742E-09 -1.87525E-09
  -1.76137E-09 -1.64579E-09 -1.52852E-09
 Asp      Conc. = 3.13E-09
   5.45750E-09  5.21453E-09  5.15952E-09  5.07587E-09  4.99270E-09  5.03346E-09  5.07935E-09  5.40080E-09  5.71348E-09  5.99355E-09
   6.24742E-09  6.48186E-09  6.70083E-09  6.90485E-09  7.09514E-09  7.27691E-09  7.45189E-09  7.62130E-09  7.78616E-09  7.94734E-09
   8.10560E-09  8.26168E-09  8.41629E-09  8.57015E-09  8.72403E-09  8.87875E-09  9.03523E-09  9.19461E-09  9.35828E-09  9.52790E-09
   9.70581E-09  9.89507E-09  1.01002E-08  1.03281E-08  1.05901E-08  1.09028E-08  1.12027E-08  1.14220E-08  1.15104E-08  1.15307E-08
   1.16383E-08  1.19475E-08  1.25591E-08  1.30577E-08  1.36559E-08  1.35674E-08  1.29669E-08  1.25706E-08  1.26771E-08  1.27858E-08
   1.26818E-08  1.22998E-08  1.14753E-08  1.04021E-08  9.69180E-09  9.25523E-09  9.52821E-09  9.56744E-09  9.22913E-09  8.91812E-09
   8.93161E-09  8.92830E-09  8.97078E-09  9.12709E-09  9.12508E-09  8.96222E-09  8.91118E-09  8.93441E-09  8.97544E-09  9.02003E-09
   9.06349E-09  9.10403E-09  9.14099E-09  9.17411E-09  9.20343E-09  9.22903E-09  9.25099E-09  9.26953E-09  9.28470E-09  9.29673E-09
   9.30569E-09  9.31171E-09  9.31491E-09  9.31541E-09  9.31331E-09  9.30864E-09  9.30155E-09  9.29206E-09  9.28027E-09  9.26625E-09
   9.25002E-09  9.23170E-09  9.21129E-09  9.18885E-09  9.16443E-09  9.13808E-09  9.10983E-09  9.07971E-09  9.04777E-09  9.01407E-09
   8.97860E-09  8.94142E-09  8.90256E-09  8.86202E-09  8.81987E-09  8.77613E-09  8.73078E-09  8.68392E-09  8.63556E-09  8.58568E-09
   8.53436E-09  8.48154E-09  8.42735E-09  8.37172E-09  8.31475E-09  8.25641E-09  8.19676E-09  8.13581E-09  8.07356E-09  8.01014E-09
   7.94534E-09  7.87937E-09  7.81220E-09  7.74387E-09  7.67438E-09  7.60375E-09  7.53201E-09  7.45917E-09  7.38527E-09  7.31032E-09
   7.23433E-09  7.15736E-09  7.07938E-09  7.00045E-09  6.92057E-09  6.83978E-09  6.75808E-09  6.67551E-09  6.59210E-09  6.50786E-09
   6.42284E-09  6.33703E-09  6.25048E-09  6.16325E-09  6.07531E-09  5.98671E-09  5.89751E-09  5.80777E-09  5.71748E-09  5.62677E-09
   5.53569E-09  5.44425E-09  5.35263E-09  5.26098E-09  5.16938E-09  5.07809E-09  4.98746E-09  4.89790E-09  4.81004E-09  4.72494E-09
   4.64415E-09  4.57058E-09  4.50953E-09  4.47239E-09  4.48779E-09  4.65127E-09  5.45348E-09  7.17531E-09  8.35969E-09  8.71403E-09
   8.58955E-09  8.38987E-09  8.32083E-09  8.40985E-09  8.53026E-09  8.35357E-09  7.42838E-09  5.60494E-09  3.80112E-09  3.22819E-09
   2.93361E-09  2.72840E-09  2.56236E-09  2.41684E-09  2.28335E-09  2.15753E-09  2.03688E-09  1.91990E-09  1.80562E-09  1.69340E-09
   1.58280E-09  1.47351E-09  1.36530E-09  1.25804E-09  1.15158E-09  1.04582E-09  9.40732E-10  8.36251E-10  7.32334E-10  6.28972E-10
   5.26142E-10  4.23816E-10  3.22001E-10  2.20704E-10  1.19906E-10  1.96203E-11 -8.01546E-11 -1.79383E-10 -2.78094E-10 -3.76269E-10
  -4.73891E-10 -5.70939E-10 -6.67411E-10 -7.63287E-10 -8.58580E-10 -9.53252E-10 -1.04728E-09 -1.14067E-09 -1.23342E-09 -1.32548E-09
  -1.41684E-09 -1.50750E-09 -1.59744E-09 -1.68666E-09 -1.77514E-09 -1.86282E-09 -1.94975E-09 -2.03588E-09 -2.12119E-09 -2.20567E-09
