 LCModel (Version 6.3-1R) Copyright: S.W. Provencher.          Ref.: Magn. Reson. Med. 30:672-679 (1993).                
 onepulse 13x25_ftSpec_smooth_lcm
 26 lines in following concentration table = NCONC+1
    Conc.  %SD /Cr+PCr  Metabolite                                         
 3.87E-10 127%   1.123 Ala                                                 
 1.77E-09  84%   5.142 Asp                                                 
    0.000 999%   0.000 Cr                                                  
 1.57E-09  72%   4.539 GABA                                                
    0.000 999%   0.000 Glc                                                 
 1.07E-09 124%   3.104 Gln                                                 
    0.000 999%   0.000 Glu                                                 
 1.57E-09 229%   4.566 Glyc                                                
    0.000 999%   0.000 GPC                                                 
 4.01E-10 288%   1.163 GSH                                                 
 6.93E-10 444%   2.011 Ins                                                 
    0.000 999%   0.000 Lac                                                 
 8.21E-11 769%   0.238 NAAG                                                
 8.04E-10 103%   2.332 NAA                                                 
    0.000 999%   0.000 PCh                                                 
 3.45E-10 199%   1.000 PCr                                                 
 2.37E-09  74%   6.865 PE                                                  
 2.57E-10 193%   0.746 Scyllo                                              
 9.79E-10 149%   2.837 Ser                                                 
 2.41E-10 706%   0.700 Tau                                                 
    0.000 999%   0.000 GPC+PCh                                             
 8.86E-10  55%   2.570 NAA+NAAG                                            
 2.27E-09  44%   6.577 Ins+Glyc                                            
 3.45E-10 199%   1.000 Cr+PCr                                              
 1.07E-09 124%   3.104 Glu+Gln                                             
   6 lines in following misc. output table
  FWHM = 0.123 ppm    S/N =   2                                            
  Data shift = 0.436 ppm                                                   
  Ph:  87 deg       7.3 deg/ppm                                            
  alphaB,S = 8.6E-01,   2.6E+01                                            
    8 spline knots.   Ns = 5(1)                                            
  (10) 4 infls.   ( 9) 3 extrs.                                            
  363 points on ppm-axis = NY
      4.250000     4.238821     4.227641     4.216462     4.205282     4.194103     4.182923     4.171744     4.160564     4.149385
      4.138206     4.127026     4.115847     4.104667     4.093488     4.082308     4.071129     4.059949     4.048770     4.037591
      4.026411     4.015232     4.004052     3.992873     3.981693     3.970514     3.959334     3.948155     3.936975     3.925796
      3.914617     3.903437     3.892258     3.881078     3.869899     3.858719     3.847540     3.836360     3.825181     3.814002
      3.802822     3.791643     3.780463     3.769284     3.758104     3.746925     3.735745     3.724566     3.713387     3.702207
      3.691028     3.679848     3.668669     3.657489     3.646310     3.635130     3.623951     3.612772     3.601592     3.590413
      3.579233     3.568054     3.556874     3.545695     3.534515     3.523336     3.512156     3.500977     3.489798     3.478618
      3.467439     3.456259     3.445080     3.433900     3.422721     3.411541     3.400362     3.389183     3.378003     3.366824
      3.355644     3.344465     3.333285     3.322106     3.310926     3.299747     3.288568     3.277388     3.266209     3.255029
      3.243850     3.232670     3.221491     3.210311     3.199132     3.187953     3.176773     3.165594     3.154414     3.143235
      3.132055     3.120876     3.109696     3.098517     3.087337     3.076158     3.064979     3.053799     3.042620     3.031440
      3.020261     3.009081     2.997902     2.986722     2.975543     2.964364     2.953184     2.942005     2.930825     2.919646
      2.908466     2.897287     2.886107     2.874928     2.863749     2.852569     2.841390     2.830210     2.819031     2.807851
      2.796672     2.785492     2.774313     2.763134     2.751954     2.740775     2.729595     2.718416     2.707236     2.696057
      2.684877     2.673698     2.662519     2.651339     2.640160     2.628980     2.617801     2.606621     2.595442     2.584262
      2.573083     2.561903     2.550724     2.539545     2.528365     2.517186     2.506006     2.494827     2.483647     2.472468
      2.461288     2.450109     2.438930     2.427750     2.416571     2.405391     2.394212     2.383032     2.371853     2.360673
      2.349494     2.338315     2.327135     2.315956     2.304776     2.293597     2.282417     2.271238     2.260058     2.248879
      2.237700     2.226520     2.215341     2.204161     2.192982     2.181802     2.170623     2.159443     2.148264     2.137084
      2.125905     2.114726     2.103546     2.092367     2.081187     2.070008     2.058828     2.047649     2.036469     2.025290
      2.014111     2.002931     1.991752     1.980572     1.969393     1.958213     1.947034     1.935854     1.924675     1.913496
      1.902316     1.891137     1.879957     1.868778     1.857598     1.846419     1.835239     1.824060     1.812881     1.801701
      1.790522     1.779342     1.768163     1.756983     1.745804     1.734624     1.723445     1.712265     1.701086     1.689907
      1.678727     1.667548     1.656368     1.645189     1.634009     1.622830     1.611650     1.600471     1.589292     1.578112
      1.566933     1.555753     1.544574     1.533394     1.522215     1.511035     1.499856     1.488677     1.477497     1.466318
      1.455138     1.443959     1.432779     1.421600     1.410420     1.399241     1.388062     1.376882     1.365703     1.354523
      1.343344     1.332164     1.320985     1.309805     1.298626     1.287446     1.276267     1.265088     1.253908     1.242729
      1.231549     1.220370     1.209190     1.198011     1.186831     1.175652     1.164473     1.153293     1.142114     1.130934
      1.119755     1.108575     1.097396     1.086216     1.075037     1.063858     1.052678     1.041499     1.030319     1.019140
      1.007960     0.996781     0.985601     0.974422     0.963243     0.952063     0.940884     0.929704     0.918525     0.907345
      0.896166     0.884986     0.873807     0.862628     0.851448     0.840269     0.829089     0.817910     0.806730     0.795551
      0.784371     0.773192     0.762012     0.750833     0.739654     0.728474     0.717295     0.706115     0.694936     0.683756
      0.672577     0.661397     0.650218     0.639039     0.627859     0.616680     0.605500     0.594321     0.583141     0.571962
      0.560782     0.549603     0.538424     0.527244     0.516065     0.504885     0.493706     0.482526     0.471347     0.460167
      0.448988     0.437809     0.426629     0.415450     0.404270     0.393091     0.381911     0.370732     0.359552     0.348373
      0.337193     0.326014     0.314835     0.303655     0.292476     0.281296     0.270117     0.258937     0.247758     0.236578
      0.225399     0.214220     0.203040
 NY phased data points follow
   8.02536E-09  6.96271E-09  8.03517E-09  7.12115E-09  7.43779E-09  7.16441E-09  7.91758E-09  7.52883E-09  9.04840E-09  8.70626E-09
   9.19075E-09  8.68828E-09  9.21171E-09  8.74941E-09  9.57398E-09  8.34929E-09  8.73593E-09  8.37842E-09  9.31136E-09  9.11780E-09
   9.54108E-09  9.03587E-09  8.29823E-09  8.05514E-09  8.63556E-09  9.23734E-09  1.03583E-08  1.16215E-08  1.17703E-08  1.10424E-08
   1.14372E-08  1.05151E-08  1.08784E-08  1.03484E-08  1.05626E-08  1.04886E-08  9.91593E-09  9.71773E-09  1.01177E-08  9.38772E-09
   9.54174E-09  8.71547E-09  8.23434E-09  8.23367E-09  8.46891E-09  8.49060E-09  8.42483E-09  7.60275E-09  7.33864E-09  6.95202E-09
   7.10141E-09  6.26046E-09  6.76517E-09  6.33847E-09  5.99045E-09  6.44932E-09  7.60897E-09  8.21318E-09  9.73302E-09  9.99411E-09
   1.04778E-08  9.54765E-09  9.66673E-09  8.75955E-09  8.78179E-09  7.76564E-09  7.78787E-09  6.55671E-09  5.73151E-09  4.98685E-09
   4.02460E-09  4.60869E-09  5.78086E-09  8.45619E-09  1.11462E-08  1.18527E-08  1.25362E-08  1.30911E-08  1.29411E-08  1.25865E-08
   1.28695E-08  1.20894E-08  1.26461E-08  1.28778E-08  1.25909E-08  1.27716E-08  1.20315E-08  1.18792E-08  1.21009E-08  1.15401E-08
   1.18470E-08  1.14206E-08  1.10339E-08  1.07189E-08  1.08867E-08  1.01987E-08  1.09863E-08  1.05219E-08  1.06614E-08  1.07784E-08
   1.04817E-08  9.73520E-09  9.68236E-09  8.92586E-09  8.30885E-09  7.80541E-09  7.63461E-09  7.69838E-09  7.67577E-09  7.01980E-09
   7.50404E-09  7.21057E-09  7.05533E-09  7.10146E-09  7.38706E-09  7.20780E-09  7.30817E-09  6.48717E-09  5.52922E-09  5.69842E-09
   4.76228E-09  5.34790E-09  5.16004E-09  4.80753E-09  4.68114E-09  4.81761E-09  4.82278E-09  4.61273E-09  4.57515E-09  4.32871E-09
   4.08626E-09  4.02069E-09  3.93164E-09  4.74700E-09  5.67282E-09  5.76674E-09  6.49212E-09  6.47361E-09  7.27042E-09  7.78433E-09
   8.31093E-09  8.40732E-09  9.17721E-09  9.53019E-09  9.10074E-09  9.52624E-09  9.70270E-09  9.79705E-09  9.34242E-09  9.88445E-09
   1.01774E-08  9.81790E-09  1.03412E-08  1.02475E-08  1.11363E-08  1.05027E-08  1.03862E-08  1.06361E-08  1.05723E-08  1.05945E-08
   1.07193E-08  1.12400E-08  1.18260E-08  1.40425E-08  1.79368E-08  2.10773E-08  2.25751E-08  2.28350E-08  2.34862E-08  2.33857E-08
   2.28759E-08  2.29713E-08  2.34219E-08  2.27936E-08  2.33342E-08  2.31100E-08  2.27093E-08  2.28819E-08  2.25065E-08  2.17742E-08
   2.10207E-08  2.03044E-08  1.97442E-08  1.88624E-08  1.66927E-08  1.52451E-08  1.26998E-08  1.00820E-08  7.45448E-09  4.67462E-09
   1.25039E-09 -2.48287E-09 -5.75014E-09 -8.90058E-09 -1.21332E-08 -1.43783E-08 -1.70520E-08 -1.89722E-08 -1.95236E-08 -2.00395E-08
  -1.92810E-08 -1.78429E-08 -1.61316E-08 -1.43693E-08 -1.20434E-08 -1.03584E-08 -7.55849E-09 -6.85683E-09 -4.59365E-09 -4.41336E-09
  -3.14763E-09 -2.87073E-09 -3.24615E-09 -3.29767E-09 -3.15192E-09 -3.09799E-09 -2.83481E-09 -3.12444E-09 -2.34592E-09 -2.83115E-09
  -1.84961E-09 -2.19886E-09 -1.79037E-09 -1.55849E-09 -2.18705E-09 -2.46749E-09 -2.51856E-09 -2.65510E-09 -2.40830E-09 -2.41058E-09
  -1.90257E-09 -1.81303E-09 -1.53770E-09 -1.32557E-09 -1.47830E-09 -1.96875E-09 -1.49547E-09 -2.48886E-09 -2.11439E-09 -2.95046E-09
  -2.42594E-09 -2.40325E-09 -2.04232E-09 -1.57047E-09 -1.07182E-09 -8.10576E-10 -7.60713E-10 -1.25300E-09 -9.25367E-10 -1.20227E-09
  -1.27837E-09 -1.08112E-09 -1.79801E-09 -1.67231E-09 -1.36111E-09 -2.39892E-09 -2.18893E-09 -2.94700E-09 -2.20001E-09 -2.57464E-09
  -2.14863E-09 -2.12664E-09 -1.68718E-09 -1.85039E-09 -1.06999E-09 -1.36191E-09 -7.18185E-10 -8.08044E-10 -3.77751E-10  1.52442E-10
  -1.44474E-10 -3.69358E-10 -6.02255E-10 -4.77238E-10 -2.16774E-10 -5.94518E-10 -4.53033E-10 -1.38220E-09 -4.72685E-10 -6.79581E-10
  -8.74278E-10 -7.92980E-10 -1.55815E-09 -1.82498E-09 -1.57719E-09 -1.39882E-09 -2.00686E-09 -1.68585E-09 -1.44199E-09 -1.68904E-09
  -1.88986E-09 -2.39209E-09 -1.97433E-09 -2.61265E-09 -1.73412E-09 -2.23761E-09 -1.82787E-09 -2.37303E-09 -2.03550E-09 -2.82489E-09
  -2.56677E-09 -2.10870E-09 -2.18630E-09 -2.10251E-09 -2.52744E-09 -2.47388E-09 -2.59536E-09 -2.47402E-09 -1.80731E-09 -2.50886E-09
  -2.22777E-09 -2.31608E-09 -2.18171E-09 -2.01013E-09 -2.27124E-09 -2.11430E-09 -2.42054E-09 -1.89217E-09 -1.83673E-09 -1.88292E-09
  -2.28192E-09 -2.15459E-09 -2.54081E-09 -1.87963E-09 -2.27737E-09 -1.57399E-09 -1.97741E-09 -1.84691E-09 -1.46948E-09 -2.33306E-09
  -2.07236E-09 -1.66575E-09 -1.72142E-09 -2.11183E-09 -1.68004E-09 -1.68143E-09 -1.52489E-09 -1.58998E-09 -1.64282E-09 -1.67183E-09
  -1.35663E-09 -1.59135E-09 -1.32198E-09 -1.86335E-09 -1.69179E-09 -1.38753E-09 -1.11267E-09 -1.28833E-09 -1.47843E-09 -1.55474E-09
  -1.33412E-09 -1.14747E-09 -9.18571E-10 -1.21092E-09 -1.06353E-09 -1.00829E-09 -6.86942E-10 -1.19694E-09 -8.72799E-10 -6.75123E-10
  -5.10068E-10 -5.87712E-10 -9.42632E-10
 NY points of the fit to the data follow
   1.14397E-08  9.64191E-09  8.02924E-09  7.08553E-09  6.74290E-09  6.51269E-09  6.17502E-09  6.21289E-09  8.04638E-09  9.56567E-09
   9.77285E-09  9.48558E-09  9.09377E-09  9.02125E-09  9.16408E-09  9.37678E-09  9.81734E-09  1.02849E-08  9.77918E-09  7.73274E-09
   6.92065E-09  7.63465E-09  8.45820E-09  9.35302E-09  1.01043E-08  1.10357E-08  1.16673E-08  1.16278E-08  1.10949E-08  1.08791E-08
   1.08957E-08  1.07692E-08  1.09926E-08  1.11242E-08  1.05562E-08  1.00602E-08  9.70558E-09  9.70000E-09  9.71292E-09  9.49681E-09
   9.14726E-09  8.85011E-09  8.11308E-09  7.36923E-09  7.57239E-09  7.79865E-09  7.33495E-09  6.72061E-09  6.77877E-09  7.09895E-09
   7.62231E-09  8.14243E-09  8.42261E-09  8.36020E-09  8.23542E-09  8.08445E-09  8.22387E-09  8.90904E-09  9.36154E-09  9.18982E-09
   9.10964E-09  9.19759E-09  9.49968E-09  9.56443E-09  9.68779E-09  9.99495E-09  9.95099E-09  9.57810E-09  9.20258E-09  9.14454E-09
   9.27920E-09  9.26658E-09  9.14340E-09  9.08037E-09  9.32640E-09  9.31303E-09  9.65623E-09  1.16022E-08  1.28682E-08  1.31529E-08
   1.30833E-08  1.27405E-08  1.25414E-08  1.28523E-08  1.30647E-08  1.29384E-08  1.26435E-08  1.14791E-08  9.65513E-09  9.06544E-09
   8.82568E-09  8.73870E-09  8.77193E-09  8.54120E-09  8.23777E-09  8.25733E-09  8.11241E-09  7.82772E-09  7.79483E-09  7.88313E-09
   8.13219E-09  8.20283E-09  8.19597E-09  8.43118E-09  8.63525E-09  8.72202E-09  8.74150E-09  8.75136E-09  8.73742E-09  8.62689E-09
   8.38198E-09  8.14535E-09  8.14486E-09  7.95050E-09  7.61184E-09  7.49622E-09  7.44676E-09  7.42138E-09  7.40679E-09  7.39745E-09
   7.39065E-09  7.38486E-09  7.37911E-09  7.37277E-09  7.36540E-09  7.35669E-09  7.34640E-09  7.33431E-09  7.32029E-09  7.30421E-09
   7.28595E-09  7.26542E-09  7.24253E-09  7.21724E-09  7.18945E-09  7.15914E-09  7.12620E-09  7.09062E-09  7.05234E-09  7.01136E-09
   6.96763E-09  6.92114E-09  6.87186E-09  6.81980E-09  6.76493E-09  6.70730E-09  6.64697E-09  6.58411E-09  6.51893E-09  6.45165E-09
   6.38256E-09  6.31198E-09  6.24032E-09  6.16812E-09  6.09602E-09  6.02493E-09  5.95603E-09  5.89106E-09  5.83251E-09  5.78425E-09
   5.75248E-09  5.74796E-09  5.79079E-09  5.92332E-09  6.25064E-09  7.11212E-09  1.01883E-08  1.90132E-08  2.46256E-08  2.57476E-08
   2.47570E-08  2.37167E-08  2.33992E-08  2.38411E-08  2.48460E-08  2.54124E-08  2.33763E-08  1.66779E-08  7.86811E-09  5.42208E-09
   4.46599E-09  3.92983E-09  3.56316E-09  3.28055E-09  3.04534E-09  2.83935E-09  2.65262E-09  2.47926E-09  2.31558E-09  2.15920E-09
   2.00851E-09  1.86238E-09  1.72004E-09  1.58094E-09  1.44469E-09  1.31097E-09  1.17959E-09  1.05042E-09  9.23359E-10  7.98325E-10
   6.75299E-10  5.54261E-10  4.35215E-10  3.18179E-10  2.03176E-10  9.02532E-11 -2.05550E-11 -1.29202E-10 -2.35633E-10 -3.39767E-10
  -4.41579E-10 -5.40975E-10 -6.37895E-10 -7.32273E-10 -8.24047E-10 -9.13118E-10 -9.99423E-10 -1.08290E-09 -1.16346E-09 -1.24114E-09
  -1.31596E-09 -1.38800E-09 -1.45728E-09 -1.52387E-09 -1.58780E-09 -1.64914E-09 -1.70791E-09 -1.76417E-09 -1.81796E-09 -1.86933E-09
  -1.91832E-09 -1.96498E-09 -2.00935E-09 -2.05148E-09 -2.09141E-09 -2.12919E-09 -2.16485E-09 -2.19845E-09 -2.23003E-09 -2.25962E-09
  -2.28727E-09 -2.31305E-09 -2.33697E-09 -2.35908E-09 -2.37942E-09 -2.39805E-09 -2.41500E-09 -2.43033E-09 -2.44406E-09 -2.45624E-09
  -2.46693E-09 -2.47613E-09 -2.48396E-09 -2.49037E-09 -2.49545E-09 -2.49927E-09 -2.50182E-09 -2.50317E-09 -2.50336E-09 -2.50242E-09
  -2.50041E-09 -2.49738E-09 -2.49335E-09 -2.48838E-09 -2.48250E-09 -2.47575E-09 -2.46820E-09 -2.45984E-09 -2.45076E-09 -2.44100E-09
  -2.43057E-09 -2.41953E-09 -2.40794E-09 -2.39581E-09 -2.38322E-09 -2.37017E-09 -2.35674E-09 -2.34296E-09 -2.32886E-09 -2.31449E-09
  -2.29990E-09 -2.28513E-09 -2.27023E-09 -2.25521E-09 -2.24014E-09 -2.22506E-09 -2.21002E-09 -2.19502E-09 -2.18016E-09 -2.16545E-09
  -2.15092E-09 -2.13663E-09 -2.12255E-09 -2.10868E-09 -2.09500E-09 -2.08153E-09 -2.06823E-09 -2.05512E-09 -2.04218E-09 -2.02940E-09
  -2.01679E-09 -2.00432E-09 -1.99200E-09 -1.97982E-09 -1.96776E-09 -1.95583E-09 -1.94402E-09 -1.93232E-09 -1.92072E-09 -1.90921E-09
  -1.89779E-09 -1.88646E-09 -1.87520E-09 -1.86401E-09 -1.85288E-09 -1.84180E-09 -1.83077E-09 -1.81977E-09 -1.80882E-09 -1.79788E-09
  -1.78697E-09 -1.77606E-09 -1.76517E-09 -1.75427E-09 -1.74336E-09 -1.73242E-09 -1.72148E-09 -1.71050E-09 -1.69949E-09 -1.68842E-09
  -1.67731E-09 -1.66614E-09 -1.65490E-09 -1.64359E-09 -1.63220E-09 -1.62073E-09 -1.60916E-09 -1.59749E-09 -1.58572E-09 -1.57382E-09
  -1.56181E-09 -1.54967E-09 -1.53739E-09 -1.52498E-09 -1.51240E-09 -1.49968E-09 -1.48678E-09 -1.47373E-09 -1.46049E-09 -1.44707E-09
  -1.43346E-09 -1.41964E-09 -1.40562E-09 -1.39139E-09 -1.37694E-09 -1.36226E-09 -1.34735E-09 -1.33220E-09 -1.31680E-09 -1.30114E-09
  -1.28522E-09 -1.26903E-09 -1.25258E-09
 NY background values follow
    -2.597E-09   -2.503E-09   -2.410E-09   -2.316E-09   -2.223E-09   -2.129E-09   -2.036E-09   -1.942E-09   -1.849E-09   -1.756E-09
    -1.662E-09   -1.569E-09   -1.476E-09   -1.383E-09   -1.290E-09   -1.197E-09   -1.104E-09   -1.011E-09   -9.180E-10   -8.254E-10
    -7.328E-10   -6.403E-10   -5.480E-10   -4.558E-10   -3.637E-10   -2.717E-10   -1.799E-10   -8.822E-11    3.293E-12    9.465E-11
     1.858E-10    2.768E-10    3.677E-10    4.583E-10    5.488E-10    6.390E-10    7.291E-10    8.189E-10    9.085E-10    9.979E-10
     1.087E-09    1.176E-09    1.265E-09    1.353E-09    1.441E-09    1.529E-09    1.617E-09    1.704E-09    1.791E-09    1.878E-09
     1.965E-09    2.051E-09    2.137E-09    2.222E-09    2.307E-09    2.392E-09    2.477E-09    2.561E-09    2.645E-09    2.729E-09
     2.812E-09    2.895E-09    2.977E-09    3.059E-09    3.141E-09    3.222E-09    3.303E-09    3.384E-09    3.464E-09    3.543E-09
     3.623E-09    3.701E-09    3.780E-09    3.858E-09    3.935E-09    4.012E-09    4.089E-09    4.164E-09    4.240E-09    4.314E-09
     4.388E-09    4.461E-09    4.533E-09    4.605E-09    4.675E-09    4.745E-09    4.814E-09    4.881E-09    4.948E-09    5.014E-09
     5.078E-09    5.141E-09    5.204E-09    5.264E-09    5.324E-09    5.382E-09    5.439E-09    5.495E-09    5.549E-09    5.602E-09
     5.653E-09    5.702E-09    5.750E-09    5.796E-09    5.841E-09    5.884E-09    5.925E-09    5.964E-09    6.002E-09    6.038E-09
     6.071E-09    6.103E-09    6.133E-09    6.160E-09    6.186E-09    6.209E-09    6.231E-09    6.250E-09    6.267E-09    6.281E-09
     6.293E-09    6.303E-09    6.311E-09    6.316E-09    6.318E-09    6.318E-09    6.316E-09    6.310E-09    6.303E-09    6.292E-09
     6.279E-09    6.263E-09    6.244E-09    6.222E-09    6.198E-09    6.170E-09    6.140E-09    6.106E-09    6.070E-09    6.030E-09
     5.987E-09    5.941E-09    5.892E-09    5.839E-09    5.784E-09    5.725E-09    5.662E-09    5.596E-09    5.528E-09    5.456E-09
     5.381E-09    5.303E-09    5.222E-09    5.138E-09    5.052E-09    4.964E-09    4.872E-09    4.779E-09    4.683E-09    4.584E-09
     4.484E-09    4.382E-09    4.277E-09    4.171E-09    4.063E-09    3.953E-09    3.841E-09    3.728E-09    3.614E-09    3.498E-09
     3.381E-09    3.262E-09    3.143E-09    3.022E-09    2.901E-09    2.778E-09    2.655E-09    2.531E-09    2.407E-09    2.282E-09
     2.156E-09    2.031E-09    1.904E-09    1.778E-09    1.652E-09    1.526E-09    1.399E-09    1.273E-09    1.147E-09    1.022E-09
     8.966E-10    7.720E-10    6.480E-10    5.246E-10    4.020E-10    2.803E-10    1.595E-10    3.968E-11   -7.901E-11   -1.965E-10
    -3.127E-10   -4.276E-10   -5.410E-10   -6.529E-10   -7.632E-10   -8.718E-10   -9.785E-10   -1.083E-09   -1.186E-09   -1.287E-09
    -1.386E-09   -1.483E-09   -1.577E-09   -1.669E-09   -1.758E-09   -1.845E-09   -1.929E-09   -2.011E-09   -2.089E-09   -2.165E-09
    -2.238E-09   -2.308E-09   -2.376E-09   -2.441E-09   -2.504E-09   -2.564E-09   -2.621E-09   -2.676E-09   -2.729E-09   -2.779E-09
    -2.826E-09   -2.872E-09   -2.915E-09   -2.956E-09   -2.995E-09   -3.032E-09   -3.067E-09   -3.099E-09   -3.130E-09   -3.159E-09
    -3.186E-09   -3.210E-09   -3.234E-09   -3.255E-09   -3.274E-09   -3.292E-09   -3.308E-09   -3.323E-09   -3.336E-09   -3.348E-09
    -3.358E-09   -3.366E-09   -3.373E-09   -3.379E-09   -3.383E-09   -3.387E-09   -3.389E-09   -3.389E-09   -3.389E-09   -3.387E-09
    -3.385E-09   -3.381E-09   -3.377E-09   -3.371E-09   -3.365E-09   -3.357E-09   -3.349E-09   -3.340E-09   -3.331E-09   -3.320E-09
    -3.309E-09   -3.298E-09   -3.286E-09   -3.273E-09   -3.260E-09   -3.247E-09   -3.233E-09   -3.218E-09   -3.204E-09   -3.189E-09
    -3.174E-09   -3.159E-09   -3.143E-09   -3.128E-09   -3.112E-09   -3.097E-09   -3.081E-09   -3.066E-09   -3.050E-09   -3.035E-09
    -3.020E-09   -3.006E-09   -2.991E-09   -2.977E-09   -2.963E-09   -2.949E-09   -2.935E-09   -2.921E-09   -2.908E-09   -2.895E-09
    -2.882E-09   -2.869E-09   -2.856E-09   -2.844E-09   -2.831E-09   -2.819E-09   -2.807E-09   -2.794E-09   -2.782E-09   -2.771E-09
    -2.759E-09   -2.747E-09   -2.735E-09   -2.724E-09   -2.712E-09   -2.701E-09   -2.689E-09   -2.678E-09   -2.666E-09   -2.655E-09
    -2.644E-09   -2.632E-09   -2.621E-09   -2.610E-09   -2.598E-09   -2.587E-09   -2.576E-09   -2.564E-09   -2.553E-09   -2.541E-09
    -2.530E-09   -2.518E-09   -2.507E-09   -2.495E-09   -2.483E-09   -2.471E-09   -2.459E-09   -2.447E-09   -2.435E-09   -2.423E-09
    -2.410E-09   -2.398E-09   -2.385E-09   -2.372E-09   -2.359E-09   -2.346E-09   -2.333E-09   -2.319E-09   -2.305E-09   -2.292E-09
    -2.278E-09   -2.263E-09   -2.249E-09   -2.234E-09   -2.219E-09   -2.204E-09   -2.189E-09   -2.173E-09   -2.157E-09   -2.141E-09
    -2.125E-09   -2.108E-09   -2.091E-09
 Ala      Conc. = 3.87E-10
  -2.31211E-09 -2.19515E-09 -2.09618E-09 -1.99792E-09 -1.90362E-09 -1.81066E-09 -1.72901E-09 -1.68089E-09 -1.61426E-09 -1.51969E-09
  -1.47390E-09 -1.42658E-09 -1.34220E-09 -1.27054E-09 -1.20217E-09 -1.12369E-09 -1.04021E-09 -9.54027E-10 -8.66201E-10 -7.77321E-10
  -6.87746E-10 -5.97704E-10 -5.07341E-10 -4.16770E-10 -3.26057E-10 -2.35285E-10 -1.44481E-10 -5.36988E-11  3.70441E-11  1.27728E-10
   2.18317E-10  3.08802E-10  3.99177E-10  4.89402E-10  5.79491E-10  6.69391E-10  7.59148E-10  8.48724E-10  9.38084E-10  1.02727E-09
   1.11623E-09  1.20499E-09  1.29350E-09  1.38181E-09  1.46985E-09  1.55766E-09  1.64519E-09  1.73248E-09  1.81950E-09  1.90623E-09
   1.99269E-09  2.07884E-09  2.16472E-09  2.25028E-09  2.33551E-09  2.42046E-09  2.50508E-09  2.58933E-09  2.67332E-09  2.75693E-09
   2.84018E-09  2.92311E-09  3.00566E-09  3.08787E-09  3.16968E-09  3.25113E-09  3.33220E-09  3.41291E-09  3.49322E-09  3.57312E-09
   3.65265E-09  3.73179E-09  3.81049E-09  3.88882E-09  3.96671E-09  4.04414E-09  4.12108E-09  4.19749E-09  4.27334E-09  4.34861E-09
   4.42327E-09  4.49729E-09  4.57066E-09  4.64336E-09  4.71538E-09  4.78674E-09  4.85744E-09  4.92751E-09  4.99702E-09  5.06605E-09
   5.13475E-09  5.20335E-09  5.27221E-09  5.34187E-09  5.41333E-09  5.48828E-09  5.56999E-09  5.66570E-09  5.79480E-09  6.02865E-09
   6.45573E-09  6.65066E-09  6.73551E-09  7.04186E-09  7.30235E-09  7.43545E-09  7.49376E-09  7.53653E-09  7.55081E-09  7.46457E-09
   7.24088E-09  7.02321E-09  7.03972E-09  6.86066E-09  6.53576E-09  6.43246E-09  6.39410E-09  6.37884E-09  6.37353E-09  6.37271E-09
   6.37375E-09  6.37514E-09  6.37600E-09  6.37575E-09  6.37401E-09  6.37049E-09  6.36498E-09  6.35731E-09  6.34735E-09  6.33500E-09
   6.32016E-09  6.30276E-09  6.28271E-09  6.25994E-09  6.23440E-09  6.20605E-09  6.17480E-09  6.14062E-09  6.10345E-09  6.06326E-09
   6.01999E-09  5.97359E-09  5.92402E-09  5.87126E-09  5.81523E-09  5.75590E-09  5.69327E-09  5.62741E-09  5.55842E-09  5.48638E-09
   5.41138E-09  5.33351E-09  5.25287E-09  5.16955E-09  5.08365E-09  4.99530E-09  4.90459E-09  4.81168E-09  4.71672E-09  4.61990E-09
   4.52151E-09  4.42195E-09  4.32192E-09  4.22281E-09  4.12797E-09  4.04803E-09  4.03602E-09  4.20021E-09  4.26172E-09  4.18302E-09
   4.03840E-09  3.89156E-09  3.76616E-09  3.66329E-09  3.57688E-09  3.47578E-09  3.29276E-09  2.96438E-09  2.57157E-09  2.37621E-09
   2.22539E-09  2.08699E-09  1.95349E-09  1.82240E-09  1.69266E-09  1.56381E-09  1.43563E-09  1.30803E-09  1.18095E-09  1.05443E-09
   9.28490E-10  8.03174E-10  6.78550E-10  5.54678E-10  4.31642E-10  3.09500E-10  1.88325E-10  6.82201E-11 -5.07490E-11 -1.68511E-10
  -2.84970E-10 -4.00050E-10 -5.13666E-10 -6.25734E-10 -7.36174E-10 -8.44892E-10 -9.51811E-10 -1.05685E-09 -1.15992E-09 -1.26093E-09
  -1.35981E-09 -1.45646E-09 -1.55080E-09 -1.64275E-09 -1.73223E-09 -1.81913E-09 -1.90338E-09 -1.98492E-09 -2.06362E-09 -2.13953E-09
  -2.21267E-09 -2.28310E-09 -2.35085E-09 -2.41597E-09 -2.47848E-09 -2.53847E-09 -2.59594E-09 -2.65094E-09 -2.70352E-09 -2.75372E-09
  -2.80159E-09 -2.84716E-09 -2.89047E-09 -2.93158E-09 -2.97052E-09 -3.00734E-09 -3.04208E-09 -3.07476E-09 -3.10546E-09 -3.13419E-09
  -3.16101E-09 -3.18597E-09 -3.20909E-09 -3.23043E-09 -3.25002E-09 -3.26790E-09 -3.28413E-09 -3.29875E-09 -3.31179E-09 -3.32328E-09
  -3.33330E-09 -3.34186E-09 -3.34904E-09 -3.35482E-09 -3.35928E-09 -3.36249E-09 -3.36444E-09 -3.36520E-09 -3.36481E-09 -3.36330E-09
  -3.36072E-09 -3.35714E-09 -3.35256E-09 -3.34705E-09 -3.34063E-09 -3.33335E-09 -3.32528E-09 -3.31641E-09 -3.30682E-09 -3.29656E-09
  -3.28563E-09 -3.27410E-09 -3.26203E-09 -3.24941E-09 -3.23635E-09 -3.22283E-09 -3.20893E-09 -3.19468E-09 -3.18011E-09 -3.16529E-09
  -3.15025E-09 -3.13503E-09 -3.11968E-09 -3.10421E-09 -3.08870E-09 -3.07319E-09 -3.05771E-09 -3.04228E-09 -3.02698E-09 -3.01185E-09
  -2.99689E-09 -2.98218E-09 -2.96768E-09 -2.95338E-09 -2.93929E-09 -2.92540E-09 -2.91169E-09 -2.89816E-09 -2.88481E-09 -2.87162E-09
  -2.85860E-09 -2.84572E-09 -2.83299E-09 -2.82041E-09 -2.80794E-09 -2.79561E-09 -2.78339E-09 -2.77129E-09 -2.75929E-09 -2.74738E-09
  -2.73556E-09 -2.72383E-09 -2.71217E-09 -2.70058E-09 -2.68905E-09 -2.67757E-09 -2.66614E-09 -2.65475E-09 -2.64339E-09 -2.63206E-09
  -2.62075E-09 -2.60944E-09 -2.59814E-09 -2.58685E-09 -2.57553E-09 -2.56420E-09 -2.55286E-09 -2.54147E-09 -2.53006E-09 -2.51859E-09
  -2.50708E-09 -2.49551E-09 -2.48386E-09 -2.47214E-09 -2.46035E-09 -2.44847E-09 -2.43650E-09 -2.42442E-09 -2.41224E-09 -2.39993E-09
  -2.38751E-09 -2.37495E-09 -2.36227E-09 -2.34943E-09 -2.33644E-09 -2.32330E-09 -2.30999E-09 -2.29651E-09 -2.28285E-09 -2.26901E-09
  -2.25497E-09 -2.24073E-09 -2.22628E-09 -2.21162E-09 -2.19674E-09 -2.18163E-09 -2.16629E-09 -2.15070E-09 -2.13486E-09 -2.11876E-09
  -2.10240E-09 -2.08577E-09 -2.06887E-09
 Asp      Conc. = 1.77E-09
  -7.37179E-10 -9.29003E-10 -1.00497E-09 -1.13736E-09 -1.19485E-09 -1.32868E-09 -1.49138E-09 -1.58318E-09 -1.57558E-09 -1.53076E-09
  -1.46831E-09 -1.39547E-09 -1.31484E-09 -1.22818E-09 -1.14030E-09 -1.05126E-09 -9.60983E-10 -8.69639E-10 -7.77368E-10 -6.84269E-10
  -5.90411E-10 -4.95820E-10 -4.00477E-10 -3.04341E-10 -2.07310E-10 -1.09273E-10 -1.00152E-11  9.07254E-11  1.93356E-10  2.98452E-10
   4.06845E-10  5.19862E-10  6.39684E-10  7.70211E-10  9.19597E-10  1.10837E-09  1.38042E-09  1.59672E-09  1.81447E-09  1.92377E-09
   1.98241E-09  2.08574E-09  2.37309E-09  2.82695E-09  3.45072E-09  4.05224E-09  4.17069E-09  4.00070E-09  4.18996E-09  4.44614E-09
   4.74367E-09  5.03301E-09  5.13960E-09  4.91544E-09  4.49464E-09  4.08933E-09  3.93826E-09  4.09248E-09  4.05891E-09  3.77393E-09
   3.69063E-09  3.64577E-09  3.59243E-09  3.67446E-09  3.79062E-09  3.81300E-09  3.75927E-09  3.76185E-09  3.79107E-09  3.83431E-09
   3.88595E-09  3.94304E-09  4.00382E-09  4.06725E-09  4.13252E-09  4.19910E-09  4.26658E-09  4.33465E-09  4.40305E-09  4.47158E-09
   4.54007E-09  4.60839E-09  4.67640E-09  4.74400E-09  4.81109E-09  4.87758E-09  4.94341E-09  5.00848E-09  5.07273E-09  5.13610E-09
   5.19854E-09  5.25996E-09  5.32034E-09  5.37960E-09  5.43770E-09  5.49458E-09  5.55020E-09  5.60451E-09  5.65746E-09  5.70899E-09
   5.75907E-09  5.80766E-09  5.85470E-09  5.90015E-09  5.94397E-09  5.98611E-09  6.02653E-09  6.06518E-09  6.10203E-09  6.13704E-09
   6.17014E-09  6.20132E-09  6.23052E-09  6.25771E-09  6.28283E-09  6.30585E-09  6.32672E-09  6.34542E-09  6.36189E-09  6.37608E-09
   6.38798E-09  6.39751E-09  6.40467E-09  6.40939E-09  6.41163E-09  6.41137E-09  6.40856E-09  6.40315E-09  6.39511E-09  6.38439E-09
   6.37096E-09  6.35478E-09  6.33580E-09  6.31399E-09  6.28931E-09  6.26172E-09  6.23117E-09  6.19764E-09  6.16108E-09  6.12147E-09
   6.07875E-09  6.03289E-09  5.98385E-09  5.93163E-09  5.87616E-09  5.81741E-09  5.75540E-09  5.69021E-09  5.62195E-09  5.55073E-09
   5.47665E-09  5.39984E-09  5.32043E-09  5.23857E-09  5.15443E-09  5.06820E-09  4.98013E-09  4.89054E-09  4.79988E-09  4.70875E-09
   4.61813E-09  4.52966E-09  4.44636E-09  4.37453E-09  4.32994E-09  4.36421E-09  4.73879E-09  5.87322E-09  6.53526E-09  6.57754E-09
   6.33646E-09  6.09379E-09  5.95230E-09  5.91576E-09  5.95297E-09  5.91621E-09  5.49812E-09  4.42831E-09  3.11787E-09  2.68259E-09
   2.44294E-09  2.25986E-09  2.09989E-09  1.95146E-09  1.80960E-09  1.67185E-09  1.53689E-09  1.40399E-09  1.27266E-09  1.14266E-09
   1.01385E-09  8.86108E-10  7.59423E-10  6.33779E-10  5.09206E-10  3.85719E-10  2.63360E-10  1.42204E-10  2.22976E-11 -9.63050E-11
  -2.13522E-10 -3.29288E-10 -4.43528E-10 -5.56167E-10 -6.67130E-10 -7.76329E-10 -8.83692E-10 -9.89141E-10 -1.09260E-09 -1.19395E-09
  -1.29317E-09 -1.39013E-09 -1.48476E-09 -1.57698E-09 -1.66671E-09 -1.75386E-09 -1.83834E-09 -1.92008E-09 -1.99899E-09 -2.07509E-09
  -2.14842E-09 -2.21903E-09 -2.28694E-09 -2.35222E-09 -2.41489E-09 -2.47502E-09 -2.53263E-09 -2.58776E-09 -2.64048E-09 -2.69080E-09
