 LCModel (Version 6.3-1R) Copyright: S.W. Provencher.          Ref.: Magn. Reson. Med. 30:672-679 (1993).                
 onepulse 13x20_ftSpec_smooth_lcm
 26 lines in following concentration table = NCONC+1
    Conc.  %SD   /Cr    Metabolite                                         
 5.65E-11 713%   0.000 Ala                                                 
    0.000 999%   0.000 Asp                                                 
    0.000 999%   0.000 Cr                                                  
 3.28E-10 181%   0.000 GABA                                                
    0.000 999%   0.000 Glc                                                 
 5.12E-10 148%   0.000 Gln                                                 
    0.000 999%   0.000 Glu                                                 
    0.000 999%   0.000 Glyc                                                
    0.000 999%   0.000 GPC                                                 
    0.000 999%   0.000 GSH                                                 
 1.30E-09  26%   0.000 Ins                                                 
 7.64E-11 505%   0.000 Lac                                                 
 4.70E-10  91%   0.000 NAAG                                                
 2.80E-10 210%   0.000 NAA                                                 
    0.000 999%   0.000 PCh                                                 
    0.000 999%   0.000 PCr                                                 
 1.09E-09  63%   0.000 PE                                                  
 1.27E-10 138%   0.000 Scyllo                                              
 5.65E-09  22%   0.000 Ser                                                 
    0.000 999%   0.000 Tau                                                 
    0.000 999%   0.000 GPC+PCh                                             
 7.50E-10  48%   0.000 NAA+NAAG                                            
 1.30E-09  26%   0.000 Ins+Glyc                                            
    0.000 999%   0.000 Cr+PCr                                              
 5.12E-10 148%   0.000 Glu+Gln                                             
   6 lines in following misc. output table
  FWHM = 0.101 ppm    S/N =   2                                            
  Data shift = 0.414 ppm                                                   
  Ph:   3 deg     -29.2 deg/ppm                                            
  alphaB,S = 1.5E+00,   4.6E+01                                            
    9 spline knots.   Ns = 5(1)                                            
  (10) 4 infls.   ( 5) 3 extrs.                                            
  363 points on ppm-axis = NY
      4.250000     4.238821     4.227641     4.216462     4.205282     4.194103     4.182923     4.171744     4.160564     4.149385
      4.138206     4.127026     4.115847     4.104667     4.093488     4.082308     4.071129     4.059949     4.048770     4.037591
      4.026411     4.015232     4.004052     3.992873     3.981693     3.970514     3.959334     3.948155     3.936975     3.925796
      3.914617     3.903437     3.892258     3.881078     3.869899     3.858719     3.847540     3.836360     3.825181     3.814002
      3.802822     3.791643     3.780463     3.769284     3.758104     3.746925     3.735745     3.724566     3.713387     3.702207
      3.691028     3.679848     3.668669     3.657489     3.646310     3.635130     3.623951     3.612772     3.601592     3.590413
      3.579233     3.568054     3.556874     3.545695     3.534515     3.523336     3.512156     3.500977     3.489798     3.478618
      3.467439     3.456259     3.445080     3.433900     3.422721     3.411541     3.400362     3.389183     3.378003     3.366824
      3.355644     3.344465     3.333285     3.322106     3.310926     3.299747     3.288568     3.277388     3.266209     3.255029
      3.243850     3.232670     3.221491     3.210311     3.199132     3.187953     3.176773     3.165594     3.154414     3.143235
      3.132055     3.120876     3.109696     3.098517     3.087337     3.076158     3.064979     3.053799     3.042620     3.031440
      3.020261     3.009081     2.997902     2.986722     2.975543     2.964364     2.953184     2.942005     2.930825     2.919646
      2.908466     2.897287     2.886107     2.874928     2.863749     2.852569     2.841390     2.830210     2.819031     2.807851
      2.796672     2.785492     2.774313     2.763134     2.751954     2.740775     2.729595     2.718416     2.707236     2.696057
      2.684877     2.673698     2.662519     2.651339     2.640160     2.628980     2.617801     2.606621     2.595442     2.584262
      2.573083     2.561903     2.550724     2.539545     2.528365     2.517186     2.506006     2.494827     2.483647     2.472468
      2.461288     2.450109     2.438930     2.427750     2.416571     2.405391     2.394212     2.383032     2.371853     2.360673
      2.349494     2.338315     2.327135     2.315956     2.304776     2.293597     2.282417     2.271238     2.260058     2.248879
      2.237700     2.226520     2.215341     2.204161     2.192982     2.181802     2.170623     2.159443     2.148264     2.137084
      2.125905     2.114726     2.103546     2.092367     2.081187     2.070008     2.058828     2.047649     2.036469     2.025290
      2.014111     2.002931     1.991752     1.980572     1.969393     1.958213     1.947034     1.935854     1.924675     1.913496
      1.902316     1.891137     1.879957     1.868778     1.857598     1.846419     1.835239     1.824060     1.812881     1.801701
      1.790522     1.779342     1.768163     1.756983     1.745804     1.734624     1.723445     1.712265     1.701086     1.689907
      1.678727     1.667548     1.656368     1.645189     1.634009     1.622830     1.611650     1.600471     1.589292     1.578112
      1.566933     1.555753     1.544574     1.533394     1.522215     1.511035     1.499856     1.488677     1.477497     1.466318
      1.455138     1.443959     1.432779     1.421600     1.410420     1.399241     1.388062     1.376882     1.365703     1.354523
      1.343344     1.332164     1.320985     1.309805     1.298626     1.287446     1.276267     1.265088     1.253908     1.242729
      1.231549     1.220370     1.209190     1.198011     1.186831     1.175652     1.164473     1.153293     1.142114     1.130934
      1.119755     1.108575     1.097396     1.086216     1.075037     1.063858     1.052678     1.041499     1.030319     1.019140
      1.007960     0.996781     0.985601     0.974422     0.963243     0.952063     0.940884     0.929704     0.918525     0.907345
      0.896166     0.884986     0.873807     0.862628     0.851448     0.840269     0.829089     0.817910     0.806730     0.795551
      0.784371     0.773192     0.762012     0.750833     0.739654     0.728474     0.717295     0.706115     0.694936     0.683756
      0.672577     0.661397     0.650218     0.639039     0.627859     0.616680     0.605500     0.594321     0.583141     0.571962
      0.560782     0.549603     0.538424     0.527244     0.516065     0.504885     0.493706     0.482526     0.471347     0.460167
      0.448988     0.437809     0.426629     0.415450     0.404270     0.393091     0.381911     0.370732     0.359552     0.348373
      0.337193     0.326014     0.314835     0.303655     0.292476     0.281296     0.270117     0.258937     0.247758     0.236578
      0.225399     0.214220     0.203040
 NY phased data points follow
  -2.30123E-10 -7.72022E-10 -1.04682E-10 -6.55784E-10 -1.04496E-10 -9.93592E-10  4.44177E-10 -4.02260E-10  3.19965E-10 -8.26530E-11
   4.12505E-10 -5.64019E-11  8.21616E-10  5.63226E-10  1.61836E-09  9.65066E-10  2.22703E-09  1.28703E-09  2.05209E-09  7.78930E-10
   1.92645E-09  1.47302E-09  1.79047E-09  2.49890E-09  2.21818E-09  1.61627E-09  1.72691E-09  2.36110E-09  2.86260E-09  3.56087E-09
   5.35041E-09  4.57210E-09  5.88122E-09  5.34421E-09  5.70690E-09  5.04774E-09  5.95173E-09  5.48668E-09  5.37190E-09  5.98349E-09
   5.66791E-09  5.61844E-09  5.45020E-09  4.69133E-09  4.83020E-09  4.38524E-09  4.94966E-09  4.24283E-09  4.72755E-09  3.64437E-09
   4.59366E-09  3.96231E-09  4.33672E-09  2.60587E-09  3.03151E-09  1.49722E-09  2.26371E-09  1.03430E-09  2.55120E-09  3.10771E-09
   4.02738E-09  4.78556E-09  5.72802E-09  5.69376E-09  6.14632E-09  5.75579E-09  5.69025E-09  5.23970E-09  5.19900E-09  4.33673E-09
   3.29362E-09  3.08130E-09  2.33864E-09  2.16254E-09  2.67896E-09  3.16954E-09  5.21367E-09  6.20910E-09  7.78584E-09  7.71457E-09
   8.85462E-09  9.01858E-09  1.00146E-08  9.56153E-09  9.63264E-09  1.00469E-08  1.03526E-08  1.03745E-08  1.06316E-08  1.02421E-08
   1.00300E-08  1.02100E-08  1.01340E-08  9.90871E-09  9.83398E-09  9.31672E-09  1.01754E-08  9.28610E-09  9.74320E-09  9.29929E-09
   9.71542E-09  9.02302E-09  9.42831E-09  8.86150E-09  8.51030E-09  8.22461E-09  7.73080E-09  7.63452E-09  7.44028E-09  6.64484E-09
   7.30399E-09  6.53566E-09  7.75314E-09  6.59757E-09  6.99511E-09  6.96775E-09  7.64963E-09  7.05480E-09  7.30467E-09  7.23981E-09
   6.90182E-09  5.88525E-09  6.01475E-09  5.80920E-09  5.73617E-09  5.52463E-09  5.30449E-09  4.67700E-09  5.33127E-09  4.97818E-09
   4.84977E-09  5.13453E-09  4.93091E-09  4.32498E-09  4.50853E-09  5.10844E-09  5.59859E-09  5.13766E-09  5.93245E-09  5.45266E-09
   6.40461E-09  6.63423E-09  6.85672E-09  7.16838E-09  7.30324E-09  7.98150E-09  8.12843E-09  7.68121E-09  8.18005E-09  7.74444E-09
   7.93556E-09  7.60817E-09  7.70935E-09  8.00320E-09  8.13411E-09  8.18779E-09  8.83974E-09  8.16913E-09  7.99541E-09  7.98201E-09
   7.96972E-09  7.34071E-09  7.98214E-09  8.48979E-09  1.02270E-08  1.18735E-08  1.39118E-08  1.59135E-08  1.78879E-08  1.81892E-08
   1.87493E-08  1.82869E-08  1.93467E-08  1.81679E-08  1.80431E-08  1.79765E-08  1.80621E-08  1.72381E-08  1.68345E-08  1.63568E-08
   1.55253E-08  1.40943E-08  1.36818E-08  1.22371E-08  1.09774E-08  9.41496E-09  7.31896E-09  5.34793E-09  3.23430E-09  1.06984E-09
  -1.70344E-09 -4.34820E-09 -6.52107E-09 -9.83185E-09 -1.11858E-08 -1.38397E-08 -1.44208E-08 -1.62541E-08 -1.71574E-08 -1.73056E-08
  -1.61277E-08 -1.61760E-08 -1.45122E-08 -1.36460E-08 -1.15459E-08 -9.91272E-09 -8.58444E-09 -6.78700E-09 -4.97033E-09 -4.35256E-09
  -3.72179E-09 -4.15837E-09 -2.70231E-09 -3.08336E-09 -2.92404E-09 -3.87054E-09 -2.75815E-09 -3.30814E-09 -2.61104E-09 -2.89237E-09
  -2.53132E-09 -2.49759E-09 -2.28307E-09 -2.32930E-09 -2.16977E-09 -2.96698E-09 -3.00707E-09 -2.84861E-09 -2.81854E-09 -2.38960E-09
  -2.04171E-09 -1.76399E-09 -1.79349E-09 -2.01834E-09 -1.92303E-09 -2.27573E-09 -2.11664E-09 -2.65608E-09 -2.35311E-09 -2.14947E-09
  -2.33362E-09 -2.14343E-09 -1.96198E-09 -1.66959E-09 -1.41656E-09 -1.71924E-09 -1.28583E-09 -1.35481E-09 -1.05621E-09 -1.01077E-09
  -1.32461E-09 -1.42563E-09 -1.48908E-09 -1.86803E-09 -1.67596E-09 -2.44132E-09 -1.96119E-09 -2.22687E-09 -2.71173E-09 -2.31129E-09
  -1.98519E-09 -2.16359E-09 -1.51960E-09 -1.20474E-09 -1.28409E-09 -1.28892E-09 -1.11438E-09 -1.23909E-09 -7.22531E-10 -8.44962E-10
  -3.21368E-10 -4.92189E-10 -1.93753E-10 -6.31803E-10 -6.79968E-10 -7.01857E-10 -4.84411E-10 -9.87257E-10 -1.30281E-09 -1.22534E-09
  -9.31843E-10 -7.95285E-10 -1.40962E-09 -1.44951E-09 -9.12936E-10 -2.13391E-09 -1.56439E-09 -1.00162E-09 -2.00608E-09 -1.49087E-09
  -1.53314E-09 -2.21525E-09 -1.65316E-09 -1.42562E-09 -1.78691E-09 -1.73542E-09 -2.17162E-09 -2.07083E-09 -1.63933E-09 -2.15264E-09
  -1.37398E-09 -1.91379E-09 -1.75282E-09 -1.85364E-09 -1.54512E-09 -1.38826E-09 -1.39319E-09 -1.96251E-09 -1.32600E-09 -1.92146E-09
  -1.44942E-09 -1.51433E-09 -1.26900E-09 -1.31919E-09 -1.11912E-09 -1.13093E-09 -1.25111E-09 -1.36908E-09 -9.89742E-10 -9.31290E-10
  -8.65611E-10 -7.40841E-10 -9.54860E-10 -9.25433E-10 -4.31505E-10 -1.26441E-09 -1.03153E-10 -6.57632E-10 -7.41393E-10 -3.08361E-10
  -6.63347E-11 -3.40698E-10 -9.01280E-11 -3.55730E-10 -1.03483E-10 -1.61359E-10  6.96457E-10 -6.57353E-10  2.23870E-10  3.35473E-10
   3.76568E-10  5.44381E-11  3.16530E-10 -1.21532E-10  8.01749E-10  1.00759E-09  6.22542E-10  4.61824E-10  1.17737E-09  6.58965E-10
   8.33163E-10  8.97274E-10  9.39541E-10  1.08955E-09  1.54214E-09  9.51639E-10  1.35537E-09  1.23940E-09  1.56433E-09  9.30277E-10
   1.55393E-09  1.51766E-09  1.81664E-09
 NY points of the fit to the data follow
  -4.86625E-09 -1.75185E-09 -4.08816E-10 -1.59608E-10  4.88928E-10  1.44864E-09  1.82100E-09  1.19847E-09  1.17077E-10 -5.06154E-10
  -5.64488E-10 -3.49972E-10 -4.94125E-11  3.90610E-10  9.47180E-10  1.40261E-09  1.65360E-09  1.99358E-09  2.40772E-09  2.34573E-09
   1.85068E-09  1.33688E-09  1.12621E-09  1.05042E-09  1.12364E-09  1.43802E-09  2.08172E-09  2.86674E-09  3.50941E-09  3.89515E-09
   4.42522E-09  4.93204E-09  5.21079E-09  5.36082E-09  5.50524E-09  5.48849E-09  5.34466E-09  5.11557E-09  4.95557E-09  4.83019E-09
   4.71777E-09  4.65443E-09  4.61497E-09  4.55175E-09  4.47991E-09  4.44344E-09  4.36840E-09  4.27590E-09  4.19326E-09  4.16353E-09
   4.15250E-09  4.16571E-09  4.16569E-09  4.12349E-09  4.06220E-09  4.09741E-09  4.16019E-09  4.28871E-09  4.50598E-09  4.71437E-09
   4.81351E-09  4.88875E-09  5.01831E-09  5.18994E-09  5.31157E-09  5.43477E-09  5.54361E-09  5.57630E-09  5.50781E-09  5.46329E-09
   5.47346E-09  5.54357E-09  5.64520E-09  5.67192E-09  5.61368E-09  5.44376E-09  5.75347E-09  6.67141E-09  7.88078E-09  8.95618E-09
   9.78199E-09  1.03369E-08  1.07171E-08  1.12544E-08  1.19144E-08  1.22975E-08  1.21264E-08  1.13646E-08  1.06342E-08  1.00871E-08
   9.74227E-09  9.49553E-09  9.32133E-09  9.14821E-09  8.96059E-09  8.82021E-09  8.68525E-09  8.52362E-09  8.37980E-09  8.24451E-09
   8.14276E-09  8.06510E-09  7.97824E-09  7.90797E-09  7.85557E-09  7.80903E-09  7.76821E-09  7.76712E-09  7.76178E-09  7.72844E-09
   7.70243E-09  7.67935E-09  7.67062E-09  7.63468E-09  7.56427E-09  7.49823E-09  7.42058E-09  7.32231E-09  7.21531E-09  7.12951E-09
   7.01719E-09  6.88701E-09  6.78415E-09  6.69311E-09  6.60781E-09  6.52565E-09  6.44527E-09  6.36589E-09  6.28702E-09  6.20831E-09
   6.12952E-09  6.05049E-09  5.97106E-09  5.89117E-09  5.81073E-09  5.72971E-09  5.64804E-09  5.56571E-09  5.48272E-09  5.39904E-09
   5.31471E-09  5.22971E-09  5.14407E-09  5.05785E-09  4.97102E-09  4.88366E-09  4.79584E-09  4.70763E-09  4.61908E-09  4.53035E-09
   4.44156E-09  4.35282E-09  4.26440E-09  4.17659E-09  4.08968E-09  4.00419E-09  3.92082E-09  3.84050E-09  3.76462E-09  3.69538E-09
   3.63616E-09  3.59289E-09  3.57632E-09  3.60849E-09  3.74169E-09  4.13400E-09  5.50383E-09  1.05468E-08  1.59975E-08  1.94856E-08
   2.08215E-08  2.08830E-08  2.06458E-08  2.05980E-08  2.05621E-08  1.95827E-08  1.64520E-08  1.09477E-08  5.23539E-09  3.30581E-09
   2.57882E-09  2.17300E-09  1.89442E-09  1.67888E-09  1.49913E-09  1.34174E-09  1.19927E-09  1.06732E-09  9.43143E-10  8.24904E-10
   7.11355E-10  6.01644E-10  4.95131E-10  3.91378E-10  2.90034E-10  1.90838E-10  9.36160E-11 -1.78588E-12 -9.54867E-11 -1.87559E-10
  -2.78073E-10 -3.67089E-10 -4.54630E-10 -5.40718E-10 -6.25385E-10 -7.08635E-10 -7.90480E-10 -8.70900E-10 -9.49922E-10 -1.02753E-09
  -1.10373E-09 -1.17849E-09 -1.25181E-09 -1.32369E-09 -1.39412E-09 -1.46308E-09 -1.53054E-09 -1.59652E-09 -1.66100E-09 -1.72395E-09
  -1.78537E-09 -1.84524E-09 -1.90355E-09 -1.96030E-09 -2.01547E-09 -2.06903E-09 -2.12100E-09 -2.17136E-09 -2.22008E-09 -2.26717E-09
  -2.31262E-09 -2.35641E-09 -2.39854E-09 -2.43901E-09 -2.47780E-09 -2.51490E-09 -2.55033E-09 -2.58407E-09 -2.61611E-09 -2.64645E-09
  -2.67510E-09 -2.70204E-09 -2.72728E-09 -2.75083E-09 -2.77270E-09 -2.79290E-09 -2.81144E-09 -2.82834E-09 -2.84361E-09 -2.85727E-09
  -2.86933E-09 -2.87980E-09 -2.88869E-09 -2.89603E-09 -2.90182E-09 -2.90609E-09 -2.90883E-09 -2.91008E-09 -2.90984E-09 -2.90812E-09
  -2.90495E-09 -2.90034E-09 -2.89430E-09 -2.88685E-09 -2.87800E-09 -2.86777E-09 -2.85617E-09 -2.84322E-09 -2.82893E-09 -2.81331E-09
  -2.79639E-09 -2.77818E-09 -2.75868E-09 -2.73792E-09 -2.71591E-09 -2.69267E-09 -2.66820E-09 -2.64253E-09 -2.61566E-09 -2.58761E-09
  -2.55840E-09 -2.52804E-09 -2.49654E-09 -2.46391E-09 -2.43017E-09 -2.39534E-09 -2.35942E-09 -2.32242E-09 -2.28436E-09 -2.24526E-09
  -2.20511E-09 -2.16394E-09 -2.12176E-09 -2.07858E-09 -2.03440E-09 -1.98924E-09 -1.94312E-09 -1.89603E-09 -1.84800E-09 -1.79902E-09
  -1.74912E-09 -1.69829E-09 -1.64656E-09 -1.59392E-09 -1.54038E-09 -1.48596E-09 -1.43066E-09 -1.37449E-09 -1.31745E-09 -1.25956E-09
  -1.20083E-09 -1.14126E-09 -1.08086E-09 -1.01964E-09 -9.57616E-10 -8.94792E-10 -8.31178E-10 -7.66787E-10 -7.01626E-10 -6.35708E-10
  -5.69042E-10 -5.01639E-10 -4.33511E-10 -3.64668E-10 -2.95121E-10 -2.24883E-10 -1.53965E-10 -8.23792E-11 -1.01357E-11  6.27512E-11
   1.36271E-10  2.10412E-10  2.85158E-10  3.60500E-10  4.36424E-10  5.12916E-10  5.89963E-10  6.67554E-10  7.45674E-10  8.24307E-10
   9.03444E-10  9.83066E-10  1.06316E-09  1.14372E-09  1.22472E-09  1.30616E-09  1.38801E-09  1.47026E-09  1.55290E-09  1.63592E-09
   1.71929E-09  1.80300E-09  1.88704E-09  1.97140E-09  2.05605E-09  2.14098E-09  2.22618E-09  2.31163E-09  2.39731E-09  2.48322E-09
   2.56932E-09  2.65561E-09  2.74207E-09
 NY background values follow
    -5.899E-09   -5.717E-09   -5.535E-09   -5.354E-09   -5.173E-09   -4.993E-09   -4.815E-09   -4.637E-09   -4.459E-09   -4.283E-09
    -4.108E-09   -3.934E-09   -3.760E-09   -3.588E-09   -3.417E-09   -3.247E-09   -3.078E-09   -2.910E-09   -2.743E-09   -2.578E-09
    -2.413E-09   -2.250E-09   -2.088E-09   -1.928E-09   -1.769E-09   -1.611E-09   -1.454E-09   -1.299E-09   -1.145E-09   -9.928E-10
    -8.419E-10   -6.925E-10   -5.445E-10   -3.980E-10   -2.531E-10   -1.096E-10    3.221E-11    1.725E-10    3.112E-10    4.483E-10
     5.837E-10    7.175E-10    8.497E-10    9.802E-10    1.109E-09    1.236E-09    1.361E-09    1.485E-09    1.607E-09    1.727E-09
     1.845E-09    1.962E-09    2.077E-09    2.190E-09    2.301E-09    2.410E-09    2.518E-09    2.624E-09    2.728E-09    2.830E-09
     2.930E-09    3.028E-09    3.125E-09    3.219E-09    3.312E-09    3.403E-09    3.491E-09    3.578E-09    3.663E-09    3.747E-09
     3.828E-09    3.907E-09    3.984E-09    4.060E-09    4.133E-09    4.204E-09    4.274E-09    4.341E-09    4.407E-09    4.470E-09
     4.532E-09    4.591E-09    4.649E-09    4.704E-09    4.758E-09    4.809E-09    4.859E-09    4.906E-09    4.951E-09    4.995E-09
     5.036E-09    5.075E-09    5.113E-09    5.148E-09    5.181E-09    5.212E-09    5.241E-09    5.268E-09    5.293E-09    5.316E-09
     5.337E-09    5.356E-09    5.372E-09    5.387E-09    5.400E-09    5.410E-09    5.419E-09    5.425E-09    5.430E-09    5.432E-09
     5.433E-09    5.431E-09    5.427E-09    5.421E-09    5.414E-09    5.404E-09    5.392E-09    5.378E-09    5.362E-09    5.345E-09
     5.325E-09    5.303E-09    5.279E-09    5.253E-09    5.226E-09    5.196E-09    5.165E-09    5.131E-09    5.096E-09    5.059E-09
     5.020E-09    4.980E-09    4.938E-09    4.894E-09    4.848E-09    4.801E-09    4.752E-09    4.701E-09    4.649E-09    4.596E-09
     4.541E-09    4.484E-09    4.427E-09    4.367E-09    4.307E-09    4.245E-09    4.182E-09    4.117E-09    4.052E-09    3.985E-09
     3.917E-09    3.848E-09    3.778E-09    3.707E-09    3.635E-09    3.562E-09    3.489E-09    3.414E-09    3.339E-09    3.262E-09
     3.186E-09    3.108E-09    3.030E-09    2.951E-09    2.872E-09    2.792E-09    2.711E-09    2.631E-09    2.549E-09    2.468E-09
     2.386E-09    2.304E-09    2.222E-09    2.139E-09    2.056E-09    1.974E-09    1.891E-09    1.808E-09    1.725E-09    1.643E-09
     1.560E-09    1.478E-09    1.396E-09    1.314E-09    1.232E-09    1.150E-09    1.069E-09    9.887E-10    9.084E-10    8.286E-10
     7.493E-10    6.705E-10    5.923E-10    5.146E-10    4.376E-10    3.613E-10    2.856E-10    2.107E-10    1.365E-10    6.312E-11
    -9.423E-12   -8.112E-11   -1.519E-10   -2.218E-10   -2.908E-10   -3.588E-10   -4.257E-10   -4.917E-10   -5.565E-10   -6.203E-10
    -6.830E-10   -7.446E-10   -8.050E-10   -8.642E-10   -9.222E-10   -9.789E-10   -1.034E-09   -1.089E-09   -1.142E-09   -1.193E-09
    -1.243E-09   -1.292E-09   -1.340E-09   -1.386E-09   -1.431E-09   -1.474E-09   -1.516E-09   -1.556E-09   -1.595E-09   -1.633E-09
    -1.669E-09   -1.703E-09   -1.736E-09   -1.768E-09   -1.797E-09   -1.826E-09   -1.853E-09   -1.878E-09   -1.902E-09   -1.924E-09
    -1.944E-09   -1.963E-09   -1.981E-09   -1.996E-09   -2.011E-09   -2.023E-09   -2.035E-09   -2.044E-09   -2.052E-09   -2.059E-09
    -2.064E-09   -2.068E-09   -2.070E-09   -2.071E-09   -2.070E-09   -2.068E-09   -2.064E-09   -2.060E-09   -2.053E-09   -2.046E-09
    -2.037E-09   -2.026E-09   -2.015E-09   -2.002E-09   -1.988E-09   -1.972E-09   -1.955E-09   -1.937E-09   -1.918E-09   -1.897E-09
    -1.876E-09   -1.853E-09   -1.829E-09   -1.803E-09   -1.777E-09   -1.749E-09   -1.721E-09   -1.691E-09   -1.660E-09   -1.628E-09
    -1.595E-09   -1.561E-09   -1.526E-09   -1.489E-09   -1.452E-09   -1.414E-09   -1.375E-09   -1.334E-09   -1.293E-09   -1.251E-09
    -1.208E-09   -1.164E-09   -1.119E-09   -1.073E-09   -1.026E-09   -9.786E-10   -9.301E-10   -8.806E-10   -8.303E-10   -7.792E-10
    -7.272E-10   -6.743E-10   -6.207E-10   -5.662E-10   -5.109E-10   -4.548E-10   -3.979E-10   -3.402E-10   -2.817E-10   -2.224E-10
    -1.624E-10   -1.016E-10   -4.012E-11    2.215E-11    8.514E-11    1.489E-10    2.133E-10    2.784E-10    3.442E-10    4.107E-10
     4.779E-10    5.457E-10    6.142E-10    6.834E-10    7.531E-10    8.235E-10    8.945E-10    9.660E-10    1.038E-09    1.111E-09
     1.184E-09    1.258E-09    1.332E-09    1.407E-09    1.483E-09    1.559E-09    1.635E-09    1.712E-09    1.789E-09    1.867E-09
     1.945E-09    2.024E-09    2.103E-09    2.182E-09    2.262E-09    2.342E-09    2.423E-09    2.504E-09    2.585E-09    2.666E-09
     2.748E-09    2.830E-09    2.912E-09    2.995E-09    3.078E-09    3.161E-09    3.244E-09    3.327E-09    3.411E-09    3.495E-09
     3.579E-09    3.663E-09    3.747E-09
 Ala      Conc. = 5.65E-11
  -5.94423E-09 -5.75691E-09 -5.56998E-09 -5.38357E-09 -5.19736E-09 -5.01118E-09 -4.82427E-09 -4.64027E-09 -4.46128E-09 -4.27947E-09
  -4.09872E-09 -3.92575E-09 -3.75255E-09 -3.57899E-09 -3.40878E-09 -3.24014E-09 -3.07254E-09 -2.90595E-09 -2.74039E-09 -2.57589E-09
  -2.41251E-09 -2.25027E-09 -2.08922E-09 -1.92940E-09 -1.77083E-09 -1.61355E-09 -1.45758E-09 -1.30296E-09 -1.14970E-09 -9.97840E-10
  -8.47399E-10 -6.98396E-10 -5.50858E-10 -4.04808E-10 -2.60264E-10 -1.17248E-10  2.42203E-11  1.64122E-10  3.02438E-10  4.39151E-10
   5.74242E-10  7.07696E-10  8.39494E-10  9.69624E-10  1.09807E-09  1.22481E-09  1.34984E-09  1.47313E-09  1.59469E-09  1.71449E-09
   1.83252E-09  1.94877E-09  2.06324E-09  2.17590E-09  2.28674E-09  2.39576E-09  2.50294E-09  2.60829E-09  2.71178E-09  2.81343E-09
   2.91321E-09  3.01110E-09  3.10712E-09  3.20124E-09  3.29346E-09  3.38377E-09  3.47216E-09  3.55863E-09  3.64316E-09  3.72574E-09
   3.80637E-09  3.88503E-09  3.96173E-09  4.03644E-09  4.10916E-09  4.17988E-09  4.24859E-09  4.31529E-09  4.37995E-09  4.44258E-09
   4.50315E-09  4.56166E-09  4.61809E-09  4.67243E-09  4.72468E-09  4.77478E-09  4.82277E-09  4.86857E-09  4.91219E-09  4.95359E-09
   4.99271E-09  5.02955E-09  5.06402E-09  5.09605E-09  5.12555E-09  5.15240E-09  5.17648E-09  5.19768E-09  5.21635E-09  5.23657E-09
   5.28691E-09  5.34123E-09  5.37639E-09  5.42541E-09  5.48436E-09  5.54110E-09  5.58932E-09  5.62765E-09  5.65342E-09  5.66055E-09
   5.64655E-09  5.62212E-09  5.61484E-09  5.58878E-09  5.53647E-09  5.49994E-09  5.47151E-09  5.44610E-09  5.42159E-09  5.39703E-09
   5.37168E-09  5.34532E-09  5.31769E-09  5.28865E-09  5.25812E-09  5.22603E-09  5.19233E-09  5.15701E-09  5.12006E-09  5.08146E-09
   5.04123E-09  4.99937E-09  4.95588E-09  4.91080E-09  4.86412E-09  4.81589E-09  4.76611E-09  4.71480E-09  4.66202E-09  4.60776E-09
   4.55208E-09  4.49498E-09  4.43650E-09  4.37672E-09  4.31559E-09  4.25317E-09  4.18952E-09  4.12467E-09  4.05863E-09  3.99147E-09
   3.92323E-09  3.85389E-09  3.78354E-09  3.71223E-09  3.63995E-09  3.56676E-09  3.49273E-09  3.41789E-09  3.34226E-09  3.26594E-09
   3.18892E-09  3.11136E-09  3.03329E-09  2.95494E-09  2.87664E-09  2.79948E-09  2.72878E-09  2.67962E-09  2.62981E-09  2.56727E-09
   2.49228E-09  2.41043E-09  2.32728E-09  2.24523E-09  2.16278E-09  2.07399E-09  1.97201E-09  1.85677E-09  1.74286E-09  1.65161E-09
   1.56572E-09  1.48149E-09  1.39811E-09  1.31531E-09  1.23297E-09  1.15107E-09  1.06959E-09  9.88559E-10  9.07986E-10  8.27906E-10
   7.48331E-10  6.69312E-10  5.90861E-10  5.13031E-10  4.35838E-10  3.59308E-10  2.83491E-10  2.08413E-10  1.34096E-10  6.05865E-11
  -1.20908E-11 -8.39177E-11 -1.54852E-10 -2.24859E-10 -2.93922E-10 -3.62007E-10 -4.29090E-10 -4.95121E-10 -5.60103E-10 -6.24000E-10
  -6.86783E-10 -7.48419E-10 -8.08892E-10 -8.68170E-10 -9.26251E-10 -9.83092E-10 -1.03867E-09 -1.09297E-09 -1.14598E-09 -1.19766E-09
  -1.24800E-09 -1.29697E-09 -1.34458E-09 -1.39079E-09 -1.43560E-09 -1.47896E-09 -1.52090E-09 -1.56139E-09 -1.60039E-09 -1.63791E-09
  -1.67394E-09 -1.70846E-09 -1.74146E-09 -1.77293E-09 -1.80287E-09 -1.83127E-09 -1.85811E-09 -1.88340E-09 -1.90713E-09 -1.92928E-09
  -1.94986E-09 -1.96887E-09 -1.98630E-09 -2.00215E-09 -2.01645E-09 -2.02919E-09 -2.04041E-09 -2.05009E-09 -2.05826E-09 -2.06493E-09
  -2.07012E-09 -2.07383E-09 -2.07607E-09 -2.07687E-09 -2.07623E-09 -2.07417E-09 -2.07071E-09 -2.06585E-09 -2.05960E-09 -2.05199E-09
  -2.04303E-09 -2.03273E-09 -2.02111E-09 -2.00817E-09 -1.99394E-09 -1.97843E-09 -1.96165E-09 -1.94361E-09 -1.92434E-09 -1.90384E-09
  -1.88213E-09 -1.85922E-09 -1.83514E-09 -1.80988E-09 -1.78347E-09 -1.75591E-09 -1.72723E-09 -1.69744E-09 -1.66655E-09 -1.63457E-09
  -1.60151E-09 -1.56740E-09 -1.53224E-09 -1.49604E-09 -1.45882E-09 -1.42060E-09 -1.38137E-09 -1.34116E-09 -1.29998E-09 -1.25784E-09
  -1.21475E-09 -1.17072E-09 -1.12576E-09 -1.07988E-09 -1.03311E-09 -9.85431E-10 -9.36872E-10 -8.87437E-10 -8.37137E-10 -7.85981E-10
  -7.33978E-10 -6.81139E-10 -6.27469E-10 -5.72978E-10 -5.17674E-10 -4.61564E-10 -4.04654E-10 -3.46954E-10 -2.88471E-10 -2.29214E-10
  -1.69190E-10 -1.08409E-10 -4.68783E-11  1.53918E-11  7.83927E-11  1.42115E-10  2.06549E-10  2.71685E-10  3.37514E-10  4.04024E-10
   4.71207E-10  5.39051E-10  6.07547E-10  6.76682E-10  7.46448E-10  8.16831E-10  8.87821E-10  9.59406E-10  1.03158E-09  1.10432E-09
   1.17762E-09  1.25147E-09  1.32586E-09  1.40077E-09  1.47620E-09  1.55212E-09  1.62852E-09  1.70541E-09  1.78275E-09  1.86053E-09
   1.93876E-09  2.01740E-09  2.09645E-09  2.17589E-09  2.25571E-09  2.33589E-09  2.41643E-09  2.49730E-09  2.57849E-09  2.65999E-09
   2.74179E-09  2.82386E-09  2.90620E-09  2.98879E-09  3.07161E-09  3.15465E-09  3.23789E-09  3.32133E-09  3.40494E-09  3.48870E-09
   3.57261E-09  3.65664E-09  3.74078E-09
 GABA     Conc. = 3.28E-10
  -6.06741E-09 -5.88854E-09 -5.71055E-09 -5.53347E-09 -5.35735E-09 -5.18223E-09 -5.00818E-09 -4.83524E-09 -4.66349E-09 -4.49296E-09
  -4.32373E-09 -4.15587E-09 -3.98945E-09 -3.82456E-09 -3.66129E-09 -3.49972E-09 -3.33999E-09 -3.18227E-09 -3.02671E-09 -2.87349E-09
  -2.72291E-09 -2.57525E-09 -2.43094E-09 -2.29054E-09 -2.15475E-09 -2.02464E-09 -1.90175E-09 -1.78830E-09 -1.68631E-09 -1.57233E-09
  -1.41574E-09 -1.27782E-09 -1.13874E-09 -9.25685E-10 -6.88383E-10 -4.57160E-10 -2.05606E-10  6.33633E-11  3.30053E-10  5.72693E-10
   7.83219E-10  9.85774E-10  1.17842E-09  1.29012E-09  1.37603E-09  1.49474E-09  1.58599E-09  1.65136E-09  1.72495E-09  1.80477E-09
   1.88829E-09  1.97379E-09  2.05993E-09  2.14577E-09  2.23056E-09  2.31356E-09  2.39406E-09  2.47132E-09  2.54453E-09  2.61296E-09
   2.67676E-09  2.74651E-09  2.87473E-09  3.01005E-09  3.11875E-09  3.29929E-09  3.51390E-09  3.70224E-09  3.88645E-09  4.07123E-09
   4.24403E-09  4.38473E-09  4.48257E-09  4.55264E-09  4.63124E-09  4.64564E-09  4.60586E-09  4.62801E-09  4.64748E-09  4.63725E-09
   4.66315E-09  4.69557E-09  4.71113E-09  4.77388E-09  4.86180E-09  4.92878E-09  5.01557E-09  5.12412E-09  5.23078E-09  5.33343E-09
   5.42098E-09  5.50220E-09  5.59154E-09  5.64220E-09  5.65262E-09  5.69084E-09  5.71239E-09  5.69231E-09  5.68648E-09  5.68501E-09
   5.67293E-09  5.66270E-09  5.65522E-09  5.64943E-09  5.64447E-09  5.63966E-09  5.63453E-09  5.62881E-09  5.62227E-09  5.61473E-09
   5.60605E-09  5.59602E-09  5.58460E-09  5.57167E-09  5.55722E-09  5.54118E-09  5.52355E-09  5.50425E-09  5.48326E-09  5.46059E-09
   5.43610E-09  5.40989E-09  5.38192E-09  5.35220E-09  5.32072E-09  5.28750E-09  5.25254E-09  5.21587E-09  5.17750E-09  5.13744E-09
   5.09570E-09  5.05233E-09  5.00732E-09  4.96072E-09  4.91253E-09  4.86279E-09  4.81152E-09  4.75874E-09  4.70450E-09  4.64880E-09
   4.59171E-09  4.53322E-09  4.47338E-09  4.41225E-09  4.34980E-09  4.28610E-09  4.22118E-09  4.15510E-09  4.08785E-09  4.01952E-09
   3.95013E-09  3.87969E-09  3.80827E-09  3.73594E-09  3.66269E-09  3.58859E-09  3.51374E-09  3.43817E-09  3.36194E-09  3.28522E-09
   3.20809E-09  3.13084E-09  3.05384E-09  2.97793E-09  2.90503E-09  2.84136E-09  2.81793E-09  2.92061E-09  3.02096E-09  3.04919E-09
   3.00693E-09  2.92637E-09  2.83933E-09  2.75957E-09  2.67793E-09  2.55961E-09  2.36512E-09  2.09429E-09  1.83182E-09  1.69983E-09
   1.59794E-09  1.50505E-09  1.41612E-09  1.32937E-09  1.24401E-09  1.15969E-09  1.07620E-09  9.93437E-10  9.11351E-10  8.29918E-10
   7.49117E-10  6.68973E-10  5.89480E-10  5.10675E-10  4.32565E-10  3.55167E-10  2.78525E-10  2.02659E-10  1.27587E-10  5.33515E-11
  -2.00255E-11 -9.25283E-11 -1.64117E-10 -2.34758E-10 -3.04437E-10 -3.73121E-10 -4.40787E-10 -5.07387E-10 -5.72922E-10 -6.37360E-10
  -7.00672E-10 -7.62824E-10 -8.23802E-10 -8.83574E-10 -9.42139E-10 -9.99454E-10 -1.05549E-09 -1.11025E-09 -1.16370E-09 -1.21582E-09
  -1.26659E-09 -1.31599E-09 -1.36400E-09 -1.41062E-09 -1.45583E-09 -1.49958E-09 -1.54190E-09 -1.58276E-09 -1.62213E-09 -1.66002E-09
