 LCModel (Version 6.3-1R) Copyright: S.W. Provencher.          Ref.: Magn. Reson. Med. 30:672-679 (1993).                
 onepulse 13x21_ftSpec_smooth_lcm
 26 lines in following concentration table = NCONC+1
    Conc.  %SD /Cr+PCr  Metabolite                                         
    0.000 999%   0.000 Ala                                                 
    0.000 999%   0.000 Asp                                                 
    0.000 999%   0.000 Cr                                                  
    0.000 999%   0.000 GABA                                                
 5.28E-10 229%  12.681 Glc                                                 
 1.54E-09  60%  36.883 Gln                                                 
    0.000 999%   0.000 Glu                                                 
    0.000 999%   0.000 Glyc                                                
    0.000 999%   0.000 GPC                                                 
 3.52E-10 165%   8.457 GSH                                                 
 1.62E-09  44%  38.987 Ins                                                 
    0.000 999%   0.000 Lac                                                 
 4.18E-10  63%  10.045 NAAG                                                
    0.000 999%   0.000 NAA                                                 
    0.000 999%   0.000 PCh                                                 
 4.16E-11 911%   1.000 PCr                                                 
 1.37E-09  61%  32.916 PE                                                  
 1.60E-10 195%   3.833 Scyllo                                              
 3.95E-09  37%  94.860 Ser                                                 
    0.000 999%   0.000 Tau                                                 
    0.000 999%   0.000 GPC+PCh                                             
 4.18E-10  63%  10.045 NAA+NAAG                                            
 1.62E-09  44%  38.987 Ins+Glyc                                            
 4.16E-11 911%   1.000 Cr+PCr                                              
 1.54E-09  60%  36.883 Glu+Gln                                             
   6 lines in following misc. output table
  FWHM = 0.123 ppm    S/N =   2                                            
  Data shift = 0.402 ppm                                                   
  Ph: -45 deg     -43.1 deg/ppm                                            
  alphaB,S = 6.6E-01,   2.6E+01                                            
    8 spline knots.   Ns = 5(1)                                            
  (12) 3 infls.   (11) 3 extrs.                                            
  363 points on ppm-axis = NY
      4.250000     4.238821     4.227641     4.216462     4.205282     4.194103     4.182923     4.171744     4.160564     4.149385
      4.138206     4.127026     4.115847     4.104667     4.093488     4.082308     4.071129     4.059949     4.048770     4.037591
      4.026411     4.015232     4.004052     3.992873     3.981693     3.970514     3.959334     3.948155     3.936975     3.925796
      3.914617     3.903437     3.892258     3.881078     3.869899     3.858719     3.847540     3.836360     3.825181     3.814002
      3.802822     3.791643     3.780463     3.769284     3.758104     3.746925     3.735745     3.724566     3.713387     3.702207
      3.691028     3.679848     3.668669     3.657489     3.646310     3.635130     3.623951     3.612772     3.601592     3.590413
      3.579233     3.568054     3.556874     3.545695     3.534515     3.523336     3.512156     3.500977     3.489798     3.478618
      3.467439     3.456259     3.445080     3.433900     3.422721     3.411541     3.400362     3.389183     3.378003     3.366824
      3.355644     3.344465     3.333285     3.322106     3.310926     3.299747     3.288568     3.277388     3.266209     3.255029
      3.243850     3.232670     3.221491     3.210311     3.199132     3.187953     3.176773     3.165594     3.154414     3.143235
      3.132055     3.120876     3.109696     3.098517     3.087337     3.076158     3.064979     3.053799     3.042620     3.031440
      3.020261     3.009081     2.997902     2.986722     2.975543     2.964364     2.953184     2.942005     2.930825     2.919646
      2.908466     2.897287     2.886107     2.874928     2.863749     2.852569     2.841390     2.830210     2.819031     2.807851
      2.796672     2.785492     2.774313     2.763134     2.751954     2.740775     2.729595     2.718416     2.707236     2.696057
      2.684877     2.673698     2.662519     2.651339     2.640160     2.628980     2.617801     2.606621     2.595442     2.584262
      2.573083     2.561903     2.550724     2.539545     2.528365     2.517186     2.506006     2.494827     2.483647     2.472468
      2.461288     2.450109     2.438930     2.427750     2.416571     2.405391     2.394212     2.383032     2.371853     2.360673
      2.349494     2.338315     2.327135     2.315956     2.304776     2.293597     2.282417     2.271238     2.260058     2.248879
      2.237700     2.226520     2.215341     2.204161     2.192982     2.181802     2.170623     2.159443     2.148264     2.137084
      2.125905     2.114726     2.103546     2.092367     2.081187     2.070008     2.058828     2.047649     2.036469     2.025290
      2.014111     2.002931     1.991752     1.980572     1.969393     1.958213     1.947034     1.935854     1.924675     1.913496
      1.902316     1.891137     1.879957     1.868778     1.857598     1.846419     1.835239     1.824060     1.812881     1.801701
      1.790522     1.779342     1.768163     1.756983     1.745804     1.734624     1.723445     1.712265     1.701086     1.689907
      1.678727     1.667548     1.656368     1.645189     1.634009     1.622830     1.611650     1.600471     1.589292     1.578112
      1.566933     1.555753     1.544574     1.533394     1.522215     1.511035     1.499856     1.488677     1.477497     1.466318
      1.455138     1.443959     1.432779     1.421600     1.410420     1.399241     1.388062     1.376882     1.365703     1.354523
      1.343344     1.332164     1.320985     1.309805     1.298626     1.287446     1.276267     1.265088     1.253908     1.242729
      1.231549     1.220370     1.209190     1.198011     1.186831     1.175652     1.164473     1.153293     1.142114     1.130934
      1.119755     1.108575     1.097396     1.086216     1.075037     1.063858     1.052678     1.041499     1.030319     1.019140
      1.007960     0.996781     0.985601     0.974422     0.963243     0.952063     0.940884     0.929704     0.918525     0.907345
      0.896166     0.884986     0.873807     0.862628     0.851448     0.840269     0.829089     0.817910     0.806730     0.795551
      0.784371     0.773192     0.762012     0.750833     0.739654     0.728474     0.717295     0.706115     0.694936     0.683756
      0.672577     0.661397     0.650218     0.639039     0.627859     0.616680     0.605500     0.594321     0.583141     0.571962
      0.560782     0.549603     0.538424     0.527244     0.516065     0.504885     0.493706     0.482526     0.471347     0.460167
      0.448988     0.437809     0.426629     0.415450     0.404270     0.393091     0.381911     0.370732     0.359552     0.348373
      0.337193     0.326014     0.314835     0.303655     0.292476     0.281296     0.270117     0.258937     0.247758     0.236578
      0.225399     0.214220     0.203040
 NY phased data points follow
   1.26720E-08  1.32212E-08  1.17684E-08  1.26911E-08  1.14771E-08  1.20135E-08  1.13154E-08  1.24572E-08  1.09404E-08  1.24001E-08
   1.11546E-08  1.23686E-08  1.15738E-08  1.27121E-08  1.14823E-08  1.26033E-08  1.15827E-08  1.26017E-08  1.08633E-08  1.19925E-08
   1.05591E-08  1.27838E-08  1.07358E-08  1.26861E-08  1.13820E-08  1.19021E-08  1.06298E-08  1.25386E-08  1.21667E-08  1.34487E-08
   1.34993E-08  1.39031E-08  1.22313E-08  1.30692E-08  1.15988E-08  1.19648E-08  1.07697E-08  1.20500E-08  1.02068E-08  1.11344E-08
   1.00962E-08  1.01181E-08  9.36827E-09  9.35998E-09  8.45610E-09  8.94326E-09  8.55959E-09  8.89063E-09  8.08829E-09  8.50138E-09
   7.59895E-09  8.61549E-09  7.54137E-09  7.77369E-09  6.45200E-09  7.62435E-09  6.64175E-09  8.05702E-09  7.23506E-09  1.01609E-08
   9.42490E-09  1.09596E-08  1.03603E-08  1.14402E-08  1.01858E-08  1.04529E-08  9.01298E-09  9.29012E-09  8.13398E-09  8.71060E-09
   7.03911E-09  7.41364E-09  7.12670E-09  7.60877E-09  8.01523E-09  9.50426E-09  1.05697E-08  1.28405E-08  1.30633E-08  1.37169E-08
   1.29701E-08  1.39311E-08  1.32552E-08  1.38258E-08  1.23375E-08  1.28495E-08  1.22442E-08  1.25649E-08  1.19604E-08  1.20182E-08
   1.07500E-08  1.13447E-08  1.06952E-08  1.09123E-08  9.85066E-09  1.00411E-08  9.68173E-09  1.01016E-08  8.96001E-09  9.77994E-09
   8.68053E-09  9.48446E-09  8.19025E-09  8.76181E-09  7.61841E-09  7.88504E-09  6.95946E-09  6.93286E-09  6.66976E-09  6.63025E-09
   5.88739E-09  7.03467E-09  6.18279E-09  7.21086E-09  5.89444E-09  6.68113E-09  6.32161E-09  7.22496E-09  5.96306E-09  6.79731E-09
   5.84689E-09  5.97364E-09  4.76577E-09  5.44164E-09  5.03102E-09  5.16797E-09  4.74542E-09  4.84492E-09  4.14912E-09  5.52183E-09
   4.45755E-09  4.90473E-09  4.96276E-09  4.95739E-09  4.40881E-09  5.06199E-09  5.71323E-09  5.97711E-09  5.63385E-09  6.58835E-09
   6.18464E-09  7.27024E-09  7.06294E-09  7.68653E-09  7.41088E-09  8.11951E-09  8.17624E-09  8.30556E-09  7.96805E-09  8.45253E-09
   7.80398E-09  8.20476E-09  7.80575E-09  8.06119E-09  8.10959E-09  8.38433E-09  8.30901E-09  9.02643E-09  8.15301E-09  8.37984E-09
   8.28253E-09  8.36972E-09  8.02409E-09  9.02353E-09  9.79210E-09  1.16942E-08  1.28102E-08  1.52724E-08  1.67887E-08  1.85035E-08
   1.82821E-08  1.88591E-08  1.78270E-08  1.87761E-08  1.71532E-08  1.73952E-08  1.68456E-08  1.73444E-08  1.60425E-08  1.57795E-08
   1.51345E-08  1.46601E-08  1.30900E-08  1.31133E-08  1.13738E-08  1.05532E-08  9.00052E-09  7.27712E-09  5.54027E-09  3.67825E-09
   1.44356E-09 -1.06649E-09 -3.74386E-09 -5.97153E-09 -9.22214E-09 -1.06448E-08 -1.35824E-08 -1.47177E-08 -1.64810E-08 -1.77677E-08
  -1.85721E-08 -1.76649E-08 -1.82585E-08 -1.65481E-08 -1.56957E-08 -1.36092E-08 -1.18676E-08 -1.00998E-08 -8.43617E-09 -6.33315E-09
  -4.93228E-09 -3.76986E-09 -4.36523E-09 -2.85787E-09 -2.97590E-09 -2.51492E-09 -3.70416E-09 -2.90793E-09 -3.16613E-09 -2.72515E-09
  -2.95605E-09 -2.48923E-09 -2.36185E-09 -2.12491E-09 -2.18402E-09 -1.84634E-09 -2.56540E-09 -2.86141E-09 -2.78937E-09 -2.88563E-09
  -2.45674E-09 -2.06519E-09 -1.89557E-09 -1.83570E-09 -1.90920E-09 -1.76945E-09 -1.84757E-09 -1.77184E-09 -2.35956E-09 -2.10003E-09
  -2.29782E-09 -2.32504E-09 -2.19223E-09 -2.19730E-09 -2.01614E-09 -1.62496E-09 -1.74128E-09 -1.54157E-09 -1.37506E-09 -1.05424E-09
  -1.07121E-09 -1.02062E-09 -1.27983E-09 -1.38229E-09 -1.57514E-09 -1.30403E-09 -2.08033E-09 -1.95897E-09 -2.04658E-09 -2.69606E-09
  -2.55005E-09 -2.31341E-09 -2.45211E-09 -1.92631E-09 -1.67724E-09 -1.77759E-09 -1.81262E-09 -1.59582E-09 -1.85102E-09 -1.07316E-09
  -1.35184E-09 -8.66780E-10 -8.17247E-10 -7.53268E-10 -6.41663E-10 -8.39387E-10 -7.49508E-10 -6.35494E-10 -8.53582E-10 -1.20755E-09
  -1.15462E-09 -1.14716E-09 -8.02124E-10 -1.21376E-09 -1.40082E-09 -1.05562E-09 -1.62890E-09 -1.90672E-09 -1.12441E-09 -1.95720E-09
  -1.78366E-09 -1.51410E-09 -2.03390E-09 -2.11889E-09 -1.68261E-09 -2.19541E-09 -1.99297E-09 -2.04314E-09 -2.55173E-09 -2.27374E-09
  -2.80266E-09 -2.18688E-09 -2.44692E-09 -2.42937E-09 -2.75649E-09 -2.54943E-09 -2.36736E-09 -2.23382E-09 -2.72328E-09 -2.50501E-09
  -2.72214E-09 -2.67483E-09 -2.74798E-09 -2.76806E-09 -2.33540E-09 -2.74262E-09 -2.21472E-09 -2.64518E-09 -2.80884E-09 -2.76488E-09
  -2.38322E-09 -2.49157E-09 -2.64310E-09 -2.62783E-09 -2.80351E-09 -2.27948E-09 -2.95167E-09 -2.55951E-09 -2.41090E-09 -3.05095E-09
  -2.90875E-09 -2.36574E-09 -2.47955E-09 -2.43951E-09 -2.50643E-09 -2.41564E-09 -2.87261E-09 -1.97618E-09 -2.53026E-09 -2.79013E-09
  -2.16254E-09 -2.22739E-09 -2.16659E-09 -2.40773E-09 -2.64340E-09 -2.89384E-09 -1.97296E-09 -2.29464E-09 -2.43320E-09 -2.14339E-09
  -2.04490E-09 -2.58063E-09 -2.27102E-09 -2.44199E-09 -2.34012E-09 -2.01287E-09 -2.08981E-09 -2.15467E-09 -1.99179E-09 -1.95101E-09
  -2.19634E-09 -2.40976E-09 -2.10843E-09
 NY points of the fit to the data follow
   1.24391E-08  1.34539E-08  1.30246E-08  1.21496E-08  1.19938E-08  1.25340E-08  1.24384E-08  1.16224E-08  1.11436E-08  1.12934E-08
   1.13778E-08  1.14263E-08  1.13384E-08  1.14542E-08  1.18685E-08  1.20940E-08  1.20244E-08  1.24057E-08  1.29339E-08  1.24219E-08
   1.14787E-08  1.10085E-08  1.10341E-08  1.11607E-08  1.12989E-08  1.15833E-08  1.21862E-08  1.28396E-08  1.31355E-08  1.29645E-08
   1.30493E-08  1.30967E-08  1.28435E-08  1.24892E-08  1.22417E-08  1.18351E-08  1.12832E-08  1.07525E-08  1.03901E-08  1.01198E-08
   9.91507E-09  9.76029E-09  9.60940E-09  9.43674E-09  9.21706E-09  8.89081E-09  8.63731E-09  8.33849E-09  8.03031E-09  7.81433E-09
   7.65433E-09  7.55041E-09  7.40299E-09  7.25793E-09  7.39298E-09  7.79552E-09  8.06623E-09  8.44883E-09  9.02996E-09  9.50991E-09
   9.79229E-09  1.00395E-08  1.02772E-08  1.04885E-08  1.04323E-08  1.01075E-08  9.86857E-09  9.67157E-09  9.11786E-09  8.64583E-09
   8.45160E-09  8.46057E-09  8.59973E-09  8.74082E-09  8.96922E-09  9.43011E-09  1.04690E-08  1.16245E-08  1.25573E-08  1.31876E-08
   1.35609E-08  1.37013E-08  1.36497E-08  1.37071E-08  1.38634E-08  1.36516E-08  1.29603E-08  1.19203E-08  1.12420E-08  1.07766E-08
   1.04176E-08  1.01299E-08  9.89530E-09  9.69858E-09  9.52118E-09  9.35949E-09  9.21998E-09  9.09828E-09  8.98188E-09  8.86241E-09
   8.75663E-09  8.66871E-09  8.58527E-09  8.50032E-09  8.42095E-09  8.34691E-09  8.27709E-09  8.21075E-09  8.14684E-09  8.08500E-09
   8.02495E-09  7.96628E-09  7.90872E-09  7.85198E-09  7.79582E-09  7.74003E-09  7.68441E-09  7.62877E-09  7.57294E-09  7.51680E-09
   7.46015E-09  7.40290E-09  7.34490E-09  7.28606E-09  7.22624E-09  7.16535E-09  7.10325E-09  7.03991E-09  6.97519E-09  6.90900E-09
   6.84127E-09  6.77190E-09  6.70084E-09  6.62798E-09  6.55325E-09  6.47656E-09  6.39790E-09  6.31713E-09  6.23423E-09  6.14908E-09
   6.06168E-09  5.97193E-09  5.87979E-09  5.78516E-09  5.68805E-09  5.58837E-09  5.48612E-09  5.38137E-09  5.27419E-09  5.16471E-09
   5.05301E-09  4.93925E-09  4.82357E-09  4.70620E-09  4.58739E-09  4.46751E-09  4.34706E-09  4.22677E-09  4.10777E-09  3.99181E-09
   3.88182E-09  3.78310E-09  3.70583E-09  3.67200E-09  3.73721E-09  4.08184E-09  5.59742E-09  1.15528E-08  1.70185E-08  1.96715E-08
   2.00651E-08  1.95382E-08  1.90258E-08  1.89948E-08  1.93836E-08  1.96397E-08  1.81679E-08  1.32823E-08  6.34985E-09  3.89167E-09
   2.93364E-09  2.38367E-09  1.99773E-09  1.69435E-09  1.43868E-09  1.21334E-09  1.00869E-09  8.18985E-10  6.40515E-10  4.70893E-10
   3.08488E-10  1.52100E-10  9.26981E-13 -1.45645E-10 -2.88023E-10 -4.26562E-10 -5.61508E-10 -6.92988E-10 -8.21147E-10 -9.46093E-10
  -1.06786E-09 -1.18649E-09 -1.30197E-09 -1.41434E-09 -1.52357E-09 -1.62963E-09 -1.73250E-09 -1.83215E-09 -1.92855E-09 -2.02160E-09
  -2.11133E-09 -2.19764E-09 -2.28049E-09 -2.35984E-09 -2.43564E-09 -2.50780E-09 -2.57628E-09 -2.64107E-09 -2.70205E-09 -2.75933E-09
  -2.81296E-09 -2.86306E-09 -2.90967E-09 -2.95292E-09 -2.99286E-09 -3.02961E-09 -3.06322E-09 -3.09379E-09 -3.12141E-09 -3.14615E-09
  -3.16811E-09 -3.18735E-09 -3.20398E-09 -3.21806E-09 -3.22969E-09 -3.23894E-09 -3.24590E-09 -3.25065E-09 -3.25327E-09 -3.25384E-09
  -3.25243E-09 -3.24916E-09 -3.24407E-09 -3.23725E-09 -3.22878E-09 -3.21874E-09 -3.20721E-09 -3.19426E-09 -3.17999E-09 -3.16444E-09
  -3.14772E-09 -3.12988E-09 -3.11102E-09 -3.09118E-09 -3.07045E-09 -3.04892E-09 -3.02664E-09 -3.00368E-09 -2.98012E-09 -2.95602E-09
  -2.93145E-09 -2.90649E-09 -2.88120E-09 -2.85564E-09 -2.82986E-09 -2.80395E-09 -2.77797E-09 -2.75195E-09 -2.72598E-09 -2.70011E-09
  -2.67439E-09 -2.64888E-09 -2.62365E-09 -2.59873E-09 -2.57419E-09 -2.55007E-09 -2.52642E-09 -2.50330E-09 -2.48074E-09 -2.45879E-09
  -2.43751E-09 -2.41692E-09 -2.39708E-09 -2.37801E-09 -2.35976E-09 -2.34237E-09 -2.32588E-09 -2.31028E-09 -2.29565E-09 -2.28201E-09
  -2.26936E-09 -2.25773E-09 -2.24706E-09 -2.23732E-09 -2.22845E-09 -2.22043E-09 -2.21319E-09 -2.20672E-09 -2.20096E-09 -2.19586E-09
  -2.19140E-09 -2.18753E-09 -2.18421E-09 -2.18140E-09 -2.17907E-09 -2.17716E-09 -2.17566E-09 -2.17451E-09 -2.17368E-09 -2.17314E-09
  -2.17284E-09 -2.17275E-09 -2.17285E-09 -2.17308E-09 -2.17343E-09 -2.17385E-09 -2.17432E-09 -2.17479E-09 -2.17524E-09 -2.17564E-09
  -2.17596E-09 -2.17616E-09 -2.17623E-09 -2.17612E-09 -2.17582E-09 -2.17529E-09 -2.17451E-09 -2.17346E-09 -2.17211E-09 -2.17042E-09
  -2.16840E-09 -2.16600E-09 -2.16321E-09 -2.16000E-09 -2.15636E-09 -2.15226E-09 -2.14770E-09 -2.14264E-09 -2.13707E-09 -2.13097E-09
  -2.12435E-09 -2.11716E-09 -2.10940E-09 -2.10107E-09 -2.09213E-09 -2.08260E-09 -2.07245E-09 -2.06167E-09 -2.05026E-09 -2.03821E-09
  -2.02550E-09 -2.01215E-09 -1.99813E-09 -1.98345E-09 -1.96810E-09 -1.95207E-09 -1.93539E-09 -1.91802E-09 -1.89998E-09 -1.88128E-09
  -1.86190E-09 -1.84185E-09 -1.82115E-09
 NY background values follow
     2.436E-09    2.498E-09    2.559E-09    2.619E-09    2.679E-09    2.738E-09    2.797E-09    2.855E-09    2.912E-09    2.968E-09
     3.024E-09    3.080E-09    3.134E-09    3.188E-09    3.242E-09    3.294E-09    3.346E-09    3.398E-09    3.448E-09    3.499E-09
     3.548E-09    3.597E-09    3.645E-09    3.692E-09    3.739E-09    3.786E-09    3.831E-09    3.876E-09    3.921E-09    3.964E-09
     4.007E-09    4.050E-09    4.092E-09    4.133E-09    4.174E-09    4.214E-09    4.254E-09    4.292E-09    4.331E-09    4.369E-09
     4.406E-09    4.443E-09    4.479E-09    4.515E-09    4.550E-09    4.585E-09    4.619E-09    4.653E-09    4.686E-09    4.719E-09
     4.751E-09    4.783E-09    4.814E-09    4.845E-09    4.876E-09    4.906E-09    4.936E-09    4.965E-09    4.994E-09    5.023E-09
     5.052E-09    5.080E-09    5.107E-09    5.135E-09    5.162E-09    5.189E-09    5.216E-09    5.242E-09    5.268E-09    5.294E-09
     5.320E-09    5.346E-09    5.371E-09    5.397E-09    5.422E-09    5.447E-09    5.472E-09    5.496E-09    5.521E-09    5.545E-09
     5.569E-09    5.592E-09    5.615E-09    5.638E-09    5.660E-09    5.682E-09    5.704E-09    5.725E-09    5.745E-09    5.765E-09
     5.784E-09    5.803E-09    5.821E-09    5.838E-09    5.855E-09    5.871E-09    5.886E-09    5.900E-09    5.913E-09    5.926E-09
     5.937E-09    5.947E-09    5.957E-09    5.965E-09    5.972E-09    5.978E-09    5.983E-09    5.987E-09    5.989E-09    5.990E-09
     5.990E-09    5.988E-09    5.985E-09    5.980E-09    5.974E-09    5.966E-09    5.957E-09    5.946E-09    5.933E-09    5.918E-09
     5.902E-09    5.884E-09    5.864E-09    5.842E-09    5.818E-09    5.791E-09    5.763E-09    5.733E-09    5.700E-09    5.666E-09
     5.629E-09    5.590E-09    5.548E-09    5.504E-09    5.458E-09    5.409E-09    5.357E-09    5.303E-09    5.247E-09    5.188E-09
     5.126E-09    5.061E-09    4.994E-09    4.923E-09    4.850E-09    4.774E-09    4.695E-09    4.614E-09    4.529E-09    4.442E-09
     4.352E-09    4.260E-09    4.165E-09    4.068E-09    3.968E-09    3.867E-09    3.763E-09    3.657E-09    3.550E-09    3.440E-09
     3.329E-09    3.216E-09    3.102E-09    2.986E-09    2.869E-09    2.750E-09    2.630E-09    2.509E-09    2.388E-09    2.265E-09
     2.141E-09    2.017E-09    1.892E-09    1.767E-09    1.641E-09    1.515E-09    1.389E-09    1.262E-09    1.136E-09    1.010E-09
     8.836E-10    7.578E-10    6.323E-10    5.073E-10    3.829E-10    2.592E-10    1.363E-10    1.424E-11   -1.069E-10   -2.269E-10
    -3.457E-10   -4.633E-10   -5.795E-10   -6.943E-10   -8.075E-10   -9.191E-10   -1.029E-09   -1.137E-09   -1.243E-09   -1.347E-09
    -1.449E-09   -1.549E-09   -1.646E-09   -1.741E-09   -1.834E-09   -1.924E-09   -2.012E-09   -2.097E-09   -2.178E-09   -2.258E-09
    -2.334E-09   -2.407E-09   -2.477E-09   -2.544E-09   -2.607E-09   -2.667E-09   -2.724E-09   -2.778E-09   -2.827E-09   -2.874E-09
    -2.917E-09   -2.956E-09   -2.993E-09   -3.026E-09   -3.056E-09   -3.083E-09   -3.106E-09   -3.128E-09   -3.146E-09   -3.161E-09
    -3.174E-09   -3.185E-09   -3.192E-09   -3.198E-09   -3.201E-09   -3.202E-09   -3.200E-09   -3.197E-09   -3.191E-09   -3.184E-09
    -3.175E-09   -3.164E-09   -3.151E-09   -3.136E-09   -3.120E-09   -3.103E-09   -3.084E-09   -3.064E-09   -3.042E-09   -3.020E-09
    -2.996E-09   -2.971E-09   -2.945E-09   -2.919E-09   -2.891E-09   -2.863E-09   -2.834E-09   -2.805E-09   -2.775E-09   -2.744E-09
    -2.714E-09   -2.682E-09   -2.651E-09   -2.619E-09   -2.587E-09   -2.556E-09   -2.524E-09   -2.492E-09   -2.460E-09   -2.428E-09
    -2.397E-09   -2.366E-09   -2.335E-09   -2.304E-09   -2.274E-09   -2.245E-09   -2.216E-09   -2.187E-09   -2.160E-09   -2.132E-09
    -2.106E-09   -2.080E-09   -2.055E-09   -2.031E-09   -2.008E-09   -1.986E-09   -1.964E-09   -1.944E-09   -1.924E-09   -1.906E-09
    -1.889E-09   -1.872E-09   -1.857E-09   -1.843E-09   -1.829E-09   -1.817E-09   -1.805E-09   -1.794E-09   -1.784E-09   -1.775E-09
    -1.766E-09   -1.758E-09   -1.750E-09   -1.743E-09   -1.737E-09   -1.731E-09   -1.725E-09   -1.720E-09   -1.715E-09   -1.711E-09
    -1.706E-09   -1.702E-09   -1.699E-09   -1.695E-09   -1.692E-09   -1.688E-09   -1.685E-09   -1.682E-09   -1.679E-09   -1.675E-09
    -1.672E-09   -1.669E-09   -1.665E-09   -1.662E-09   -1.658E-09   -1.654E-09   -1.650E-09   -1.646E-09   -1.641E-09   -1.636E-09
    -1.631E-09   -1.625E-09   -1.619E-09   -1.613E-09   -1.606E-09   -1.599E-09   -1.591E-09   -1.583E-09   -1.575E-09   -1.565E-09
    -1.556E-09   -1.546E-09   -1.535E-09   -1.524E-09   -1.512E-09   -1.500E-09   -1.487E-09   -1.473E-09   -1.459E-09   -1.445E-09
    -1.429E-09   -1.413E-09   -1.397E-09   -1.379E-09   -1.361E-09   -1.343E-09   -1.324E-09   -1.304E-09   -1.283E-09   -1.262E-09
    -1.241E-09   -1.218E-09   -1.195E-09
 Glc      Conc. = 5.28E-10
   2.05743E-09  2.28606E-09  2.46293E-09  2.63976E-09  2.81507E-09  3.01129E-09  3.15980E-09  3.28978E-09  3.34932E-09  3.29279E-09
   3.23615E-09  3.19788E-09  3.15925E-09  3.18901E-09  3.39065E-09  3.69957E-09  4.01480E-09  4.30295E-09  4.51325E-09  4.66872E-09
   4.85338E-09  5.05485E-09  5.24090E-09  5.42684E-09  5.50393E-09  5.39942E-09  5.27132E-09  5.19520E-09  5.17238E-09  5.18522E-09
   5.18400E-09  5.16789E-09  5.17429E-09  5.17666E-09  5.14652E-09  5.12795E-09  5.12581E-09  5.11127E-09  5.09043E-09  5.07882E-09
   5.07479E-09  5.07562E-09  5.08026E-09  5.08776E-09  5.09752E-09  5.10910E-09  5.12218E-09  5.13646E-09  5.15174E-09  5.16786E-09
   5.18466E-09  5.20203E-09  5.21986E-09  5.23809E-09  5.25666E-09  5.27548E-09  5.29453E-09  5.31379E-09  5.33315E-09  5.35266E-09
   5.37227E-09  5.39195E-09  5.41170E-09  5.43149E-09  5.45135E-09  5.47122E-09  5.49113E-09  5.51105E-09  5.53100E-09  5.55099E-09
   5.57098E-09  5.59100E-09  5.61107E-09  5.63116E-09  5.65128E-09  5.67138E-09  5.69144E-09  5.71144E-09  5.73133E-09  5.75109E-09
   5.77068E-09  5.79007E-09  5.80923E-09  5.82812E-09  5.84672E-09  5.86499E-09  5.88288E-09  5.90038E-09  5.91745E-09  5.93403E-09
   5.95011E-09  5.96565E-09  5.98058E-09  5.99492E-09  6.00859E-09  6.02154E-09  6.03378E-09  6.04523E-09  6.05586E-09  6.06564E-09
   6.07451E-09  6.08245E-09  6.08940E-09  6.09534E-09  6.10020E-09  6.10395E-09  6.10655E-09  6.10797E-09  6.10815E-09  6.10702E-09
   6.10459E-09  6.10078E-09  6.09554E-09  6.08885E-09  6.08065E-09  6.07090E-09  6.05956E-09  6.04657E-09  6.03189E-09  6.01550E-09
   5.99730E-09  5.97730E-09  5.95541E-09  5.93161E-09  5.90586E-09  5.87808E-09  5.84824E-09  5.81632E-09  5.78225E-09  5.74598E-09
   5.70748E-09  5.66668E-09  5.62358E-09  5.57809E-09  5.53019E-09  5.47980E-09  5.42695E-09  5.37151E-09  5.31350E-09  5.25282E-09
   5.18948E-09  5.12341E-09  5.05458E-09  4.98292E-09  4.90842E-09  4.83103E-09  4.75074E-09  4.66762E-09  4.58173E-09  4.49317E-09
   4.40202E-09  4.30835E-09  4.21226E-09  4.11382E-09  4.01314E-09  3.91032E-09  3.80545E-09  3.69866E-09  3.59009E-09  3.47991E-09
   3.36834E-09  3.25578E-09  3.14283E-09  3.03082E-09  2.92298E-09  2.83016E-09  2.80911E-09  3.03069E-09  3.19911E-09  3.21048E-09
   3.10569E-09  2.95774E-09  2.81409E-09  2.69732E-09  2.60175E-09  2.49435E-09  2.28508E-09  1.88804E-09  1.40055E-09  1.17027E-09
   1.00391E-09  8.56586E-10  7.17521E-10  5.83036E-10  4.51520E-10  3.22206E-10  1.94712E-10  6.88595E-11 -5.55014E-11 -1.78374E-10
  -2.99734E-10 -4.19594E-10 -5.37879E-10 -6.54546E-10 -7.69497E-10 -8.82693E-10 -9.94066E-10 -1.10349E-09 -1.21091E-09 -1.31627E-09
  -1.41946E-09 -1.52040E-09 -1.61901E-09 -1.71520E-09 -1.80891E-09 -1.90002E-09 -1.98847E-09 -2.07420E-09 -2.15711E-09 -2.23708E-09
  -2.31412E-09 -2.38808E-09 -2.45891E-09 -2.52654E-09 -2.59091E-09 -2.65191E-09 -2.70948E-09 -2.76359E-09 -2.81413E-09 -2.86117E-09
  -2.90476E-09 -2.94501E-09 -2.98197E-09 -3.01573E-09 -3.04635E-09 -3.07393E-09 -3.09853E-09 -3.12024E-09 -3.13913E-09 -3.15528E-09
  -3.16878E-09 -3.17970E-09 -3.18811E-09 -3.19410E-09 -3.19775E-09 -3.19913E-09 -3.19833E-09 -3.19542E-09 -3.19048E-09 -3.18359E-09
  -3.17482E-09 -3.16427E-09 -3.15199E-09 -3.13808E-09 -3.12260E-09 -3.10563E-09 -3.08726E-09 -3.06755E-09 -3.04659E-09 -3.02443E-09
  -3.00117E-09 -2.97687E-09 -2.95162E-09 -2.92546E-09 -2.89847E-09 -2.87076E-09 -2.84236E-09 -2.81335E-09 -2.78380E-09 -2.75377E-09
  -2.72334E-09 -2.69258E-09 -2.66154E-09 -2.63029E-09 -2.59888E-09 -2.56740E-09 -2.53590E-09 -2.50442E-09 -2.47304E-09 -2.44181E-09
  -2.41079E-09 -2.38003E-09 -2.34960E-09 -2.31953E-09 -2.28989E-09 -2.26072E-09 -2.23207E-09 -2.20400E-09 -2.17652E-09 -2.14972E-09
  -2.12362E-09 -2.09826E-09 -2.07370E-09 -2.04995E-09 -2.02707E-09 -2.00508E-09 -1.98404E-09 -1.96393E-09 -1.94484E-09 -1.92677E-09
  -1.90973E-09 -1.89376E-09 -1.87879E-09 -1.86478E-09 -1.85169E-09 -1.83949E-09 -1.82811E-09 -1.81752E-09 -1.80769E-09 -1.79856E-09
  -1.79011E-09 -1.78227E-09 -1.77503E-09 -1.76834E-09 -1.76215E-09 -1.75643E-09 -1.75114E-09 -1.74625E-09 -1.74171E-09 -1.73749E-09
  -1.73355E-09 -1.72986E-09 -1.72638E-09 -1.72307E-09 -1.71991E-09 -1.71685E-09 -1.71388E-09 -1.71094E-09 -1.70801E-09 -1.70506E-09
  -1.70207E-09 -1.69898E-09 -1.69579E-09 -1.69247E-09 -1.68897E-09 -1.68528E-09 -1.68137E-09 -1.67722E-09 -1.67280E-09 -1.66807E-09
  -1.66304E-09 -1.65766E-09 -1.65191E-09 -1.64577E-09 -1.63924E-09 -1.63228E-09 -1.62487E-09 -1.61700E-09 -1.60865E-09 -1.59980E-09
  -1.59045E-09 -1.58056E-09 -1.57014E-09 -1.55916E-09 -1.54760E-09 -1.53548E-09 -1.52276E-09 -1.50945E-09 -1.49553E-09 -1.48099E-09
  -1.46584E-09 -1.45005E-09 -1.43363E-09 -1.41657E-09 -1.39887E-09 -1.38052E-09 -1.36153E-09 -1.34189E-09 -1.32161E-09 -1.30068E-09
  -1.27910E-09 -1.25689E-09 -1.23404E-09
 Gln      Conc. = 1.54E-09
   1.42658E-09  1.69202E-09  2.03778E-09  2.42953E-09  2.81436E-09  3.17646E-09  3.49806E-09  3.73879E-09  3.90081E-09  4.12492E-09
   4.14868E-09  4.08952E-09  4.08927E-09  3.93533E-09  3.82376E-09  3.75365E-09  3.70966E-09  3.68271E-09  3.66756E-09  3.66091E-09
   3.66050E-09  3.66472E-09  3.67233E-09  3.68246E-09  3.69471E-09  3.70874E-09  3.72372E-09  3.73956E-09  3.75603E-09  3.77270E-09
   3.78935E-09  3.80578E-09  3.82180E-09  3.83728E-09  3.85205E-09  3.86598E-09  3.87888E-09  3.89060E-09  3.90090E-09  3.90967E-09
   3.91673E-09  3.92189E-09  3.92506E-09  3.92596E-09  3.92406E-09  3.91919E-09  3.91079E-09  3.89757E-09  3.88031E-09  3.85928E-09
   3.83194E-09  3.79986E-09  3.76891E-09  3.76262E-09  3.93234E-09  4.31807E-09  4.58061E-09  4.94435E-09  5.53871E-09  6.10118E-09
   6.51883E-09  6.92256E-09  7.29521E-09  7.57860E-09  7.67596E-09  7.54798E-09  7.41423E-09  7.32915E-09  6.90153E-09  6.45876E-09
   6.19014E-09  6.09689E-09  6.10808E-09  6.13559E-09  6.35977E-09  6.76191E-09  7.11623E-09  7.47695E-09  7.83437E-09  8.15974E-09
   8.45557E-09  8.63700E-09  8.61246E-09  8.61490E-09  8.59358E-09  8.30422E-09  8.06136E-09  7.89985E-09  7.64879E-09  7.44282E-09
   7.29113E-09  7.17515E-09  7.08462E-09  7.01149E-09  6.94974E-09  6.89744E-09  6.85282E-09  6.81390E-09  6.77979E-09  6.74969E-09
   6.72257E-09  6.69763E-09  6.67446E-09  6.65273E-09  6.63219E-09  6.61251E-09  6.59336E-09  6.57453E-09  6.55580E-09  6.53697E-09
   6.51795E-09  6.49853E-09  6.47859E-09  6.45801E-09  6.43667E-09  6.41448E-09  6.39133E-09  6.36712E-09  6.34175E-09  6.31518E-09
   6.28726E-09  6.25796E-09  6.22718E-09  6.19486E-09  6.16093E-09  6.12531E-09  6.08792E-09  6.04875E-09  6.00768E-09  5.96467E-09
   5.91966E-09  5.87258E-09  5.82339E-09  5.77203E-09  5.71843E-09  5.66251E-09  5.60430E-09  5.54367E-09  5.48060E-09  5.41500E-09
   5.34687E-09  5.27615E-09  5.20277E-09  5.12668E-09  5.04786E-09  4.96625E-09  4.88183E-09  4.79467E-09  4.70484E-09  4.61243E-09
   4.51751E-09  4.42018E-09  4.32050E-09  4.21859E-09  4.11455E-09  4.00851E-09  3.90061E-09  3.79102E-09  3.68000E-09  3.56786E-09
   3.45513E-09  3.34271E-09  3.23224E-09  3.12731E-09  3.03704E-09  2.99160E-09  3.14584E-09  4.01252E-09  4.74177E-09  5.01784E-09
   4.95319E-09  4.75994E-09  4.57777E-09  4.47403E-09  4.43371E-09  4.36401E-09  4.00592E-09  3.10355E-09  1.91691E-09  1.47646E-09
   1.23057E-09  1.04126E-09  8.75797E-10  7.22890E-10  5.77600E-10  4.37468E-10  3.01159E-10  1.67916E-10  3.72161E-11 -9.11953E-11
  -2.17469E-10 -3.41745E-10 -4.64041E-10 -5.84385E-10 -7.02735E-10 -8.19092E-10 -9.33424E-10 -1.04563E-09 -1.15569E-09 -1.26354E-09
  -1.36911E-09 -1.47232E-09 -1.57310E-09 -1.67138E-09 -1.76710E-09 -1.86015E-09 -1.95048E-09 -2.03802E-09 -2.12269E-09 -2.20437E-09
  -2.28307E-09 -2.35865E-09 -2.43105E-09 -2.50021E-09 -2.56608E-09 -2.62854E-09 -2.68755E-09 -2.74305E-09 -2.79496E-09 -2.84334E-09
  -2.88825E-09 -2.92978E-09 -2.96800E-09 -3.00300E-09 -3.03484E-09 -3.06362E-09 -3.08940E-09 -3.11226E-09 -3.13229E-09 -3.14956E-09
