 LCModel (Version 6.3-1R) Copyright: S.W. Provencher.          Ref.: Magn. Reson. Med. 30:672-679 (1993).                
 onepulse 13x22_ftSpec_smooth_lcm
 26 lines in following concentration table = NCONC+1
    Conc.  %SD   /Cr    Metabolite                                         
    0.000 999%   0.000 Ala                                                 
 8.68E-10 137%   0.000 Asp                                                 
    0.000 999%   0.000 Cr                                                  
 7.24E-10 100%   0.000 GABA                                                
 1.10E-09 118%   0.000 Glc                                                 
 8.87E-10 101%   0.000 Gln                                                 
    0.000 999%   0.000 Glu                                                 
 1.15E-09 229%   0.000 Glyc                                                
    0.000 999%   0.000 GPC                                                 
 5.09E-10 136%   0.000 GSH                                                 
 5.96E-10 398%   0.000 Ins                                                 
    0.000 999%   0.000 Lac                                                 
 6.17E-10  49%   0.000 NAAG                                                
    0.000 999%   0.000 NAA                                                 
    0.000 999%   0.000 PCh                                                 
    0.000 999%   0.000 PCr                                                 
 1.40E-09  75%   0.000 PE                                                  
 2.26E-10 149%   0.000 Scyllo                                              
 3.40E-09  44%   0.000 Ser                                                 
    0.000 999%   0.000 Tau                                                 
    0.000 999%   0.000 GPC+PCh                                             
 6.17E-10  49%   0.000 NAA+NAAG                                            
 1.75E-09  50%   0.000 Ins+Glyc                                            
    0.000 999%   0.000 Cr+PCr                                              
 8.87E-10 101%   0.000 Glu+Gln                                             
   6 lines in following misc. output table
  FWHM = 0.123 ppm    S/N =   2                                            
  Data shift = 0.470 ppm                                                   
  Ph:  -5 deg     -39.3 deg/ppm                                            
  alphaB,S = 9.2E-01,   2.1E+01                                            
    8 spline knots.   Ns = 5(1)                                            
  (10) 4 infls.   ( 9) 3 extrs.                                            
  363 points on ppm-axis = NY
      4.250000     4.238821     4.227641     4.216462     4.205282     4.194103     4.182923     4.171744     4.160564     4.149385
      4.138206     4.127026     4.115847     4.104667     4.093488     4.082308     4.071129     4.059949     4.048770     4.037591
      4.026411     4.015232     4.004052     3.992873     3.981693     3.970514     3.959334     3.948155     3.936975     3.925796
      3.914617     3.903437     3.892258     3.881078     3.869899     3.858719     3.847540     3.836360     3.825181     3.814002
      3.802822     3.791643     3.780463     3.769284     3.758104     3.746925     3.735745     3.724566     3.713387     3.702207
      3.691028     3.679848     3.668669     3.657489     3.646310     3.635130     3.623951     3.612772     3.601592     3.590413
      3.579233     3.568054     3.556874     3.545695     3.534515     3.523336     3.512156     3.500977     3.489798     3.478618
      3.467439     3.456259     3.445080     3.433900     3.422721     3.411541     3.400362     3.389183     3.378003     3.366824
      3.355644     3.344465     3.333285     3.322106     3.310926     3.299747     3.288568     3.277388     3.266209     3.255029
      3.243850     3.232670     3.221491     3.210311     3.199132     3.187953     3.176773     3.165594     3.154414     3.143235
      3.132055     3.120876     3.109696     3.098517     3.087337     3.076158     3.064979     3.053799     3.042620     3.031440
      3.020261     3.009081     2.997902     2.986722     2.975543     2.964364     2.953184     2.942005     2.930825     2.919646
      2.908466     2.897287     2.886107     2.874928     2.863749     2.852569     2.841390     2.830210     2.819031     2.807851
      2.796672     2.785492     2.774313     2.763134     2.751954     2.740775     2.729595     2.718416     2.707236     2.696057
      2.684877     2.673698     2.662519     2.651339     2.640160     2.628980     2.617801     2.606621     2.595442     2.584262
      2.573083     2.561903     2.550724     2.539545     2.528365     2.517186     2.506006     2.494827     2.483647     2.472468
      2.461288     2.450109     2.438930     2.427750     2.416571     2.405391     2.394212     2.383032     2.371853     2.360673
      2.349494     2.338315     2.327135     2.315956     2.304776     2.293597     2.282417     2.271238     2.260058     2.248879
      2.237700     2.226520     2.215341     2.204161     2.192982     2.181802     2.170623     2.159443     2.148264     2.137084
      2.125905     2.114726     2.103546     2.092367     2.081187     2.070008     2.058828     2.047649     2.036469     2.025290
      2.014111     2.002931     1.991752     1.980572     1.969393     1.958213     1.947034     1.935854     1.924675     1.913496
      1.902316     1.891137     1.879957     1.868778     1.857598     1.846419     1.835239     1.824060     1.812881     1.801701
      1.790522     1.779342     1.768163     1.756983     1.745804     1.734624     1.723445     1.712265     1.701086     1.689907
      1.678727     1.667548     1.656368     1.645189     1.634009     1.622830     1.611650     1.600471     1.589292     1.578112
      1.566933     1.555753     1.544574     1.533394     1.522215     1.511035     1.499856     1.488677     1.477497     1.466318
      1.455138     1.443959     1.432779     1.421600     1.410420     1.399241     1.388062     1.376882     1.365703     1.354523
      1.343344     1.332164     1.320985     1.309805     1.298626     1.287446     1.276267     1.265088     1.253908     1.242729
      1.231549     1.220370     1.209190     1.198011     1.186831     1.175652     1.164473     1.153293     1.142114     1.130934
      1.119755     1.108575     1.097396     1.086216     1.075037     1.063858     1.052678     1.041499     1.030319     1.019140
      1.007960     0.996781     0.985601     0.974422     0.963243     0.952063     0.940884     0.929704     0.918525     0.907345
      0.896166     0.884986     0.873807     0.862628     0.851448     0.840269     0.829089     0.817910     0.806730     0.795551
      0.784371     0.773192     0.762012     0.750833     0.739654     0.728474     0.717295     0.706115     0.694936     0.683756
      0.672577     0.661397     0.650218     0.639039     0.627859     0.616680     0.605500     0.594321     0.583141     0.571962
      0.560782     0.549603     0.538424     0.527244     0.516065     0.504885     0.493706     0.482526     0.471347     0.460167
      0.448988     0.437809     0.426629     0.415450     0.404270     0.393091     0.381911     0.370732     0.359552     0.348373
      0.337193     0.326014     0.314835     0.303655     0.292476     0.281296     0.270117     0.258937     0.247758     0.236578
      0.225399     0.214220     0.203040
 NY phased data points follow
   4.27314E-09  5.32135E-09  4.24425E-09  5.29080E-09  4.48572E-09  5.47930E-09  5.05621E-09  6.26390E-09  5.33894E-09  6.23214E-09
   5.57281E-09  6.80781E-09  5.51666E-09  6.27752E-09  4.98540E-09  6.64873E-09  5.76550E-09  6.55139E-09  6.35806E-09  6.42466E-09
   5.45245E-09  6.07634E-09  6.40631E-09  7.25649E-09  8.36697E-09  9.34612E-09  8.68585E-09  9.10055E-09  8.64493E-09  8.76835E-09
   8.00252E-09  8.76936E-09  8.32742E-09  8.18995E-09  8.10374E-09  7.78926E-09  7.46145E-09  7.44334E-09  6.69492E-09  6.47978E-09
   6.40398E-09  6.45160E-09  5.98280E-09  6.09171E-09  5.25699E-09  5.61392E-09  5.14176E-09  5.23160E-09  3.91061E-09  4.37975E-09
   3.59149E-09  3.93940E-09  2.94015E-09  4.73029E-09  5.09088E-09  6.14971E-09  6.39643E-09  7.37587E-09  7.50393E-09  7.57750E-09
   6.83958E-09  6.70326E-09  5.82774E-09  5.93714E-09  5.03621E-09  3.99535E-09  3.68926E-09  3.07443E-09  2.89106E-09  3.34944E-09
   4.30456E-09  6.41877E-09  7.94620E-09  8.94621E-09  9.03118E-09  9.83645E-09  9.95173E-09  1.09341E-08  1.03061E-08  1.06055E-08
   1.04324E-08  1.06713E-08  1.08470E-08  1.10762E-08  1.00509E-08  1.04996E-08  1.03035E-08  1.07301E-08  9.98660E-09  9.77256E-09
   9.62134E-09  1.01093E-08  9.06701E-09  9.87835E-09  9.18985E-09  9.81209E-09  9.32823E-09  9.33472E-09  8.83946E-09  8.84779E-09
   8.35741E-09  7.81036E-09  7.48567E-09  7.43269E-09  6.41098E-09  7.28078E-09  6.72854E-09  7.14579E-09  6.63291E-09  6.56151E-09
   6.40126E-09  7.27037E-09  6.50101E-09  6.89548E-09  6.42312E-09  6.26431E-09  5.53982E-09  5.19564E-09  5.37826E-09  5.11280E-09
   4.80798E-09  4.80250E-09  3.86043E-09  4.71964E-09  4.40456E-09  3.89712E-09  4.27645E-09  4.02388E-09  3.53830E-09  3.29486E-09
   3.90651E-09  4.36900E-09  3.90385E-09  4.60321E-09  4.52724E-09  5.13022E-09  5.21467E-09  5.90255E-09  5.58003E-09  6.25263E-09
   6.60240E-09  6.65247E-09  6.72783E-09  7.19708E-09  6.90175E-09  7.00645E-09  6.99678E-09  7.01541E-09  6.94386E-09  7.20564E-09
   7.08900E-09  7.88909E-09  7.32985E-09  7.29758E-09  7.30054E-09  7.17568E-09  6.54821E-09  6.84710E-09  7.16398E-09  8.63495E-09
   9.14323E-09  1.19064E-08  1.40100E-08  1.66986E-08  1.75972E-08  1.93116E-08  1.91640E-08  2.05016E-08  2.00783E-08  2.06611E-08
   2.06381E-08  2.18825E-08  2.17994E-08  2.17818E-08  2.18985E-08  2.24302E-08  2.17667E-08  2.23397E-08  2.17892E-08  2.14182E-08
   2.12701E-08  2.01080E-08  1.94963E-08  1.81956E-08  1.65347E-08  1.47100E-08  1.22266E-08  9.86977E-09  6.48518E-09  4.21983E-09
   8.55636E-10 -2.23557E-09 -4.69885E-09 -7.53201E-09 -1.06314E-08 -1.16936E-08 -1.39105E-08 -1.43038E-08 -1.45079E-08 -1.41470E-08
  -1.31667E-08 -1.18742E-08 -1.05863E-08 -8.83748E-09 -6.99735E-09 -4.77473E-09 -4.80847E-09 -3.65590E-09 -2.94115E-09 -2.17016E-09
  -2.97833E-09 -2.90896E-09 -2.66092E-09 -2.63972E-09 -2.68865E-09 -2.44221E-09 -2.04378E-09 -1.70668E-09 -1.71178E-09 -1.36488E-09
  -1.42641E-09 -2.15904E-09 -2.19689E-09 -2.55339E-09 -2.23516E-09 -1.91736E-09 -1.82244E-09 -1.68237E-09 -1.67961E-09 -1.51516E-09
  -1.34917E-09 -1.09114E-09 -1.77312E-09 -1.39271E-09 -1.90245E-09 -1.98502E-09 -2.00712E-09 -2.16202E-09 -2.17869E-09 -1.80573E-09
  -1.71421E-09 -1.64448E-09 -1.30747E-09 -8.96796E-10 -1.04972E-09 -8.31185E-10 -8.68094E-10 -1.17838E-09 -1.05706E-09 -9.05667E-10
  -1.41433E-09 -1.44656E-09 -1.62969E-09 -2.22511E-09 -2.35607E-09 -2.27773E-09 -2.48203E-09 -2.13020E-09 -1.88057E-09 -2.07761E-09
  -2.11431E-09 -1.84543E-09 -2.11877E-09 -1.34862E-09 -1.49226E-09 -1.21376E-09 -8.08020E-10 -1.10897E-09 -5.96177E-10 -8.85159E-10
  -7.80591E-10 -5.42696E-10 -6.92303E-10 -8.88687E-10 -9.20453E-10 -1.02500E-09 -7.37847E-10 -1.00348E-09 -9.14098E-10 -1.07617E-09
  -1.24478E-09 -1.58887E-09 -1.08802E-09 -1.64731E-09 -1.75134E-09 -1.33993E-09 -1.50020E-09 -1.87829E-09 -1.56931E-09 -2.14395E-09
  -2.25740E-09 -1.61490E-09 -2.27188E-09 -2.17162E-09 -2.69852E-09 -2.18839E-09 -2.50478E-09 -2.38621E-09 -2.70713E-09 -2.65092E-09
  -2.41739E-09 -2.42372E-09 -2.65548E-09 -2.77116E-09 -2.86817E-09 -2.63391E-09 -2.74050E-09 -3.07331E-09 -2.34120E-09 -3.06045E-09
  -2.33838E-09 -2.73603E-09 -2.97751E-09 -3.00898E-09 -2.52162E-09 -2.40627E-09 -2.88559E-09 -2.94603E-09 -3.02496E-09 -2.78724E-09
  -2.91499E-09 -2.91626E-09 -2.66123E-09 -3.18661E-09 -3.39114E-09 -2.73249E-09 -2.82469E-09 -2.87930E-09 -2.75891E-09 -2.70191E-09
  -3.21287E-09 -2.60991E-09 -2.74758E-09 -3.14594E-09 -2.54353E-09 -2.65989E-09 -2.32594E-09 -2.54483E-09 -2.64368E-09 -3.15420E-09
  -2.47946E-09 -2.74758E-09 -2.62182E-09 -2.45352E-09 -2.36051E-09 -2.92086E-09 -2.80015E-09 -2.88820E-09 -2.72115E-09 -2.52044E-09
  -2.52598E-09 -2.54884E-09 -2.33368E-09 -2.35679E-09 -2.48731E-09 -2.79575E-09 -2.68828E-09 -2.05626E-09 -1.91424E-09 -2.56812E-09
  -2.28492E-09 -2.51198E-09 -2.27934E-09
 NY points of the fit to the data follow
   4.88147E-09  6.38887E-09  5.97616E-09  5.55081E-09  5.76850E-09  6.42804E-09  6.19922E-09  5.12800E-09  4.81627E-09  5.42566E-09
   5.41985E-09  5.16734E-09  4.65573E-09  4.31561E-09  4.55125E-09  5.03271E-09  5.50170E-09  6.44166E-09  8.11378E-09  8.29091E-09
   7.19948E-09  6.74881E-09  6.80921E-09  7.14193E-09  7.51481E-09  7.68415E-09  8.09589E-09  8.68926E-09  8.91162E-09  8.41243E-09
   8.37704E-09  8.28040E-09  8.07122E-09  8.00461E-09  7.94007E-09  7.64012E-09  7.39886E-09  7.23372E-09  7.17538E-09  7.05634E-09
   6.84052E-09  6.73388E-09  6.75835E-09  6.70907E-09  6.49771E-09  6.48582E-09  6.46197E-09  6.05812E-09  5.57684E-09  5.34665E-09
   5.27846E-09  5.35911E-09  5.39141E-09  5.34043E-09  5.41254E-09  5.63914E-09  5.50860E-09  5.74592E-09  6.17966E-09  6.32387E-09
   6.24910E-09  6.27574E-09  6.49268E-09  6.69890E-09  6.67097E-09  6.72514E-09  6.81179E-09  6.75118E-09  6.42520E-09  6.28337E-09
   6.43554E-09  6.67039E-09  6.83562E-09  6.85469E-09  7.00764E-09  7.24840E-09  8.37099E-09  9.67046E-09  1.04879E-08  1.08913E-08
   1.12494E-08  1.13862E-08  1.13298E-08  1.16482E-08  1.22556E-08  1.25342E-08  1.21010E-08  1.08116E-08  1.01321E-08  9.76838E-09
   9.46516E-09  9.21249E-09  9.12392E-09  8.98768E-09  8.69608E-09  8.56857E-09  8.46702E-09  8.22727E-09  8.05605E-09  7.90800E-09
   7.73947E-09  7.61003E-09  7.50117E-09  7.39621E-09  7.30539E-09  7.22720E-09  7.15907E-09  7.09933E-09  7.04590E-09  6.99797E-09
   6.95481E-09  6.91551E-09  6.87948E-09  6.84621E-09  6.81525E-09  6.78630E-09  6.75905E-09  6.73312E-09  6.70822E-09  6.68410E-09
   6.66053E-09  6.63733E-09  6.61431E-09  6.59127E-09  6.56806E-09  6.54451E-09  6.52049E-09  6.49584E-09  6.47046E-09  6.44420E-09
   6.41695E-09  6.38859E-09  6.35903E-09  6.32814E-09  6.29584E-09  6.26203E-09  6.22661E-09  6.18948E-09  6.15057E-09  6.10978E-09
   6.06703E-09  6.02225E-09  5.97537E-09  5.92629E-09  5.87496E-09  5.82131E-09  5.76530E-09  5.70696E-09  5.64634E-09  5.58348E-09
   5.51847E-09  5.45139E-09  5.38236E-09  5.31158E-09  5.23929E-09  5.16583E-09  5.09175E-09  5.01783E-09  4.94535E-09  4.87639E-09
   4.81456E-09  4.76654E-09  4.74571E-09  4.78223E-09  4.95648E-09  5.54833E-09  8.07217E-09  1.66441E-08  2.17741E-08  2.26851E-08
   2.21070E-08  2.17643E-08  2.18148E-08  2.23215E-08  2.33975E-08  2.45249E-08  2.36096E-08  1.78196E-08  8.72560E-09  6.07629E-09
   5.03480E-09  4.45188E-09  4.05693E-09  3.75687E-09  3.51135E-09  3.30009E-09  3.11180E-09  2.93969E-09  2.77942E-09  2.62815E-09
   2.48390E-09  2.34525E-09  2.21122E-09  2.08105E-09  1.95420E-09  1.83024E-09  1.70885E-09  1.58981E-09  1.47293E-09  1.35805E-09
   1.24510E-09  1.13398E-09  1.02465E-09  9.17075E-10  8.11224E-10  7.07099E-10  6.04694E-10  5.04013E-10  4.05070E-10  3.07905E-10
   2.12508E-10  1.18931E-10  2.71985E-11 -6.26621E-11 -1.50623E-10 -2.36628E-10 -3.20650E-10 -4.02666E-10 -4.82618E-10 -5.60542E-10
  -6.36459E-10 -7.10425E-10 -7.82451E-10 -8.52592E-10 -9.20858E-10 -9.87310E-10 -1.05196E-09 -1.11485E-09 -1.17601E-09 -1.23546E-09
  -1.29325E-09 -1.34941E-09 -1.40395E-09 -1.45692E-09 -1.50835E-09 -1.55826E-09 -1.60669E-09 -1.65366E-09 -1.69921E-09 -1.74336E-09
  -1.78614E-09 -1.82759E-09 -1.86773E-09 -1.90659E-09 -1.94419E-09 -1.98057E-09 -2.01575E-09 -2.04977E-09 -2.08265E-09 -2.11440E-09
  -2.14509E-09 -2.17470E-09 -2.20329E-09 -2.23086E-09 -2.25744E-09 -2.28308E-09 -2.30779E-09 -2.33158E-09 -2.35449E-09 -2.37654E-09
  -2.39775E-09 -2.41816E-09 -2.43778E-09 -2.45664E-09 -2.47474E-09 -2.49211E-09 -2.50880E-09 -2.52479E-09 -2.54012E-09 -2.55481E-09
  -2.56888E-09 -2.58233E-09 -2.59521E-09 -2.60750E-09 -2.61925E-09 -2.63046E-09 -2.64115E-09 -2.65133E-09 -2.66101E-09 -2.67022E-09
  -2.67897E-09 -2.68727E-09 -2.69513E-09 -2.70255E-09 -2.70956E-09 -2.71616E-09 -2.72237E-09 -2.72817E-09 -2.73359E-09 -2.73865E-09
  -2.74332E-09 -2.74763E-09 -2.75156E-09 -2.75508E-09 -2.75818E-09 -2.76085E-09 -2.76307E-09 -2.76483E-09 -2.76612E-09 -2.76691E-09
  -2.76720E-09 -2.76697E-09 -2.76620E-09 -2.76489E-09 -2.76302E-09 -2.76058E-09 -2.75756E-09 -2.75393E-09 -2.74970E-09 -2.74484E-09
  -2.73935E-09 -2.73322E-09 -2.72643E-09 -2.71897E-09 -2.71083E-09 -2.70200E-09 -2.69248E-09 -2.68224E-09 -2.67128E-09 -2.65960E-09
  -2.64718E-09 -2.63402E-09 -2.62010E-09 -2.60541E-09 -2.58996E-09 -2.57373E-09 -2.55671E-09 -2.53890E-09 -2.52030E-09 -2.50089E-09
  -2.48066E-09 -2.45962E-09 -2.43776E-09 -2.41508E-09 -2.39156E-09 -2.36720E-09 -2.34201E-09 -2.31597E-09 -2.28909E-09 -2.26135E-09
  -2.23277E-09 -2.20333E-09 -2.17304E-09 -2.14189E-09 -2.10988E-09 -2.07701E-09 -2.04328E-09 -2.00869E-09 -1.97324E-09 -1.93694E-09
  -1.89977E-09 -1.86175E-09 -1.82288E-09 -1.78315E-09 -1.74257E-09 -1.70115E-09 -1.65888E-09 -1.61578E-09 -1.57183E-09 -1.52706E-09
  -1.48146E-09 -1.43503E-09 -1.38779E-09
 NY background values follow
     8.121E-11    9.291E-11    1.053E-10    1.182E-10    1.318E-10    1.460E-10    1.609E-10    1.763E-10    1.924E-10    2.090E-10
     2.263E-10    2.442E-10    2.627E-10    2.818E-10    3.014E-10    3.217E-10    3.426E-10    3.640E-10    3.860E-10    4.087E-10
     4.319E-10    4.556E-10    4.800E-10    5.049E-10    5.304E-10    5.564E-10    5.830E-10    6.102E-10    6.380E-10    6.663E-10
     6.951E-10    7.245E-10    7.545E-10    7.850E-10    8.161E-10    8.477E-10    8.799E-10    9.126E-10    9.458E-10    9.796E-10
     1.014E-09    1.049E-09    1.084E-09    1.120E-09    1.157E-09    1.194E-09    1.231E-09    1.269E-09    1.308E-09    1.347E-09
     1.387E-09    1.427E-09    1.467E-09    1.509E-09    1.550E-09    1.593E-09    1.635E-09    1.679E-09    1.723E-09    1.767E-09
     1.812E-09    1.857E-09    1.903E-09    1.949E-09    1.996E-09    2.044E-09    2.092E-09    2.140E-09    2.189E-09    2.238E-09
     2.288E-09    2.339E-09    2.390E-09    2.441E-09    2.493E-09    2.546E-09    2.599E-09    2.652E-09    2.705E-09    2.759E-09
     2.814E-09    2.868E-09    2.923E-09    2.978E-09    3.033E-09    3.089E-09    3.144E-09    3.199E-09    3.255E-09    3.310E-09
     3.366E-09    3.421E-09    3.476E-09    3.532E-09    3.586E-09    3.641E-09    3.695E-09    3.749E-09    3.802E-09    3.855E-09
     3.908E-09    3.960E-09    4.011E-09    4.062E-09    4.112E-09    4.161E-09    4.210E-09    4.258E-09    4.304E-09    4.350E-09
     4.395E-09    4.439E-09    4.482E-09    4.524E-09    4.564E-09    4.603E-09    4.641E-09    4.678E-09    4.713E-09    4.746E-09
     4.779E-09    4.809E-09    4.838E-09    4.866E-09    4.891E-09    4.915E-09    4.937E-09    4.957E-09    4.975E-09    4.992E-09
     5.006E-09    5.018E-09    5.028E-09    5.036E-09    5.041E-09    5.045E-09    5.046E-09    5.044E-09    5.040E-09    5.034E-09
     5.025E-09    5.014E-09    4.999E-09    4.983E-09    4.963E-09    4.941E-09    4.916E-09    4.888E-09    4.858E-09    4.824E-09
     4.788E-09    4.750E-09    4.709E-09    4.666E-09    4.620E-09    4.572E-09    4.521E-09    4.468E-09    4.413E-09    4.356E-09
     4.297E-09    4.236E-09    4.172E-09    4.107E-09    4.040E-09    3.971E-09    3.901E-09    3.828E-09    3.754E-09    3.679E-09
     3.602E-09    3.524E-09    3.444E-09    3.363E-09    3.281E-09    3.198E-09    3.113E-09    3.028E-09    2.942E-09    2.855E-09
     2.767E-09    2.678E-09    2.589E-09    2.499E-09    2.409E-09    2.318E-09    2.227E-09    2.136E-09    2.044E-09    1.952E-09
     1.861E-09    1.769E-09    1.677E-09    1.586E-09    1.494E-09    1.403E-09    1.313E-09    1.222E-09    1.133E-09    1.043E-09
     9.548E-10    8.669E-10    7.799E-10    6.937E-10    6.083E-10    5.240E-10    4.407E-10    3.585E-10    2.775E-10    1.977E-10
     1.192E-10    4.207E-11   -3.364E-11   -1.079E-10   -1.806E-10   -2.517E-10   -3.211E-10   -3.889E-10   -4.549E-10   -5.191E-10
    -5.816E-10   -6.424E-10   -7.015E-10   -7.590E-10   -8.148E-10   -8.690E-10   -9.216E-10   -9.726E-10   -1.022E-09   -1.070E-09
    -1.117E-09   -1.162E-09   -1.205E-09   -1.247E-09   -1.288E-09   -1.328E-09   -1.366E-09   -1.402E-09   -1.438E-09   -1.472E-09
    -1.505E-09   -1.537E-09   -1.567E-09   -1.597E-09   -1.625E-09   -1.652E-09   -1.679E-09   -1.704E-09   -1.728E-09   -1.751E-09
    -1.773E-09   -1.794E-09   -1.814E-09   -1.833E-09   -1.852E-09   -1.869E-09   -1.886E-09   -1.902E-09   -1.917E-09   -1.931E-09
    -1.944E-09   -1.957E-09   -1.969E-09   -1.981E-09   -1.992E-09   -2.002E-09   -2.011E-09   -2.020E-09   -2.028E-09   -2.036E-09
    -2.043E-09   -2.050E-09   -2.056E-09   -2.062E-09   -2.067E-09   -2.072E-09   -2.076E-09   -2.080E-09   -2.083E-09   -2.086E-09
    -2.089E-09   -2.091E-09   -2.093E-09   -2.095E-09   -2.096E-09   -2.096E-09   -2.097E-09   -2.097E-09   -2.097E-09   -2.096E-09
    -2.096E-09   -2.094E-09   -2.093E-09   -2.091E-09   -2.089E-09   -2.087E-09   -2.084E-09   -2.080E-09   -2.077E-09   -2.072E-09
    -2.068E-09   -2.063E-09   -2.057E-09   -2.051E-09   -2.045E-09   -2.038E-09   -2.030E-09   -2.022E-09   -2.013E-09   -2.004E-09
    -1.994E-09   -1.984E-09   -1.973E-09   -1.961E-09   -1.949E-09   -1.936E-09   -1.922E-09   -1.908E-09   -1.893E-09   -1.878E-09
    -1.861E-09   -1.844E-09   -1.827E-09   -1.808E-09   -1.789E-09   -1.769E-09   -1.749E-09   -1.728E-09   -1.706E-09   -1.683E-09
    -1.659E-09   -1.635E-09   -1.610E-09   -1.584E-09   -1.557E-09   -1.530E-09   -1.501E-09   -1.472E-09   -1.442E-09   -1.412E-09
    -1.380E-09   -1.348E-09   -1.315E-09   -1.281E-09   -1.246E-09   -1.211E-09   -1.174E-09   -1.137E-09   -1.099E-09   -1.060E-09
    -1.021E-09   -9.802E-10   -9.389E-10   -8.969E-10   -8.540E-10   -8.103E-10   -7.658E-10   -7.205E-10   -6.745E-10   -6.276E-10
    -5.800E-10   -5.315E-10   -4.823E-10
 Asp      Conc. = 8.68E-10
   3.45242E-10  4.56303E-10  4.80290E-10  5.35279E-10  5.78360E-10  5.88583E-10  6.17682E-10  5.38228E-10  4.74011E-10  4.28547E-10
   3.95791E-10  3.71632E-10  3.53773E-10  3.41652E-10  3.34790E-10  3.30908E-10  3.29457E-10  3.30033E-10  3.32306E-10  3.35994E-10
   3.40858E-10  3.46685E-10  3.53284E-10  3.60473E-10  3.68077E-10  3.75919E-10  3.83816E-10  3.91568E-10  3.98958E-10  4.05741E-10
   4.11633E-10  4.16313E-10  4.19435E-10  4.20716E-10  4.20410E-10  4.22151E-10  4.57741E-10  5.18113E-10  6.08348E-10  6.72040E-10
   6.79324E-10  6.44073E-10  5.99069E-10  6.95994E-10  8.12019E-10  1.18771E-09  1.50546E-09  1.58938E-09  1.62562E-09  1.75119E-09
   1.93668E-09  2.16978E-09  2.47224E-09  2.71521E-09  2.74874E-09  2.74680E-09  2.56439E-09  2.59759E-09  2.70082E-09  2.69152E-09
   2.63184E-09  2.61788E-09  2.58877E-09  2.56528E-09  2.62021E-09  2.69557E-09  2.68745E-09  2.68107E-09  2.68529E-09  2.69758E-09
   2.71594E-09  2.73904E-09  2.76597E-09  2.79611E-09  2.82894E-09  2.86408E-09  2.90122E-09  2.94012E-09  2.98054E-09  3.02233E-09
   3.06532E-09  3.10937E-09  3.15438E-09  3.20022E-09  3.24680E-09  3.29402E-09  3.34181E-09  3.39009E-09  3.43877E-09  3.48778E-09
   3.53706E-09  3.58655E-09  3.63616E-09  3.68585E-09  3.73555E-09  3.78520E-09  3.83474E-09  3.88411E-09  3.93325E-09  3.98212E-09
   4.03063E-09  4.07876E-09  4.12643E-09  4.17358E-09  4.22018E-09  4.26615E-09  4.31144E-09  4.35599E-09  4.39976E-09  4.44268E-09
   4.48471E-09  4.52577E-09  4.56582E-09  4.60481E-09  4.64267E-09  4.67935E-09  4.71480E-09  4.74896E-09  4.78178E-09  4.81319E-09
   4.84315E-09  4.87160E-09  4.89848E-09  4.92374E-09  4.94733E-09  4.96919E-09  4.98926E-09  5.00749E-09  5.02383E-09  5.03822E-09
   5.05062E-09  5.06096E-09  5.06919E-09  5.07527E-09  5.07913E-09  5.08073E-09  5.08002E-09  5.07694E-09  5.07145E-09  5.06349E-09
   5.05301E-09  5.03997E-09  5.02431E-09  5.00600E-09  4.98498E-09  4.96120E-09  4.93464E-09  4.90535E-09  4.87335E-09  4.83871E-09
   4.80146E-09  4.76166E-09  4.71936E-09  4.67463E-09  4.62751E-09  4.57811E-09  4.52649E-09  4.47278E-09  4.41711E-09  4.35970E-09
   4.30087E-09  4.24116E-09  4.18161E-09  4.12450E-09  4.07574E-09  4.05564E-09  4.17259E-09  4.76132E-09  5.08978E-09  5.09193E-09
   4.97662E-09  4.87770E-09  4.80755E-09  4.77075E-09  4.77669E-09  4.78845E-09  4.64882E-09  4.13777E-09  3.35707E-09  3.07298E-09
   2.91299E-09  2.78748E-09  2.67565E-09  2.57048E-09  2.46897E-09  2.36964E-09  2.27170E-09  2.17473E-09  2.07844E-09  1.98268E-09
   1.88740E-09  1.79252E-09  1.69806E-09  1.60402E-09  1.51043E-09  1.41732E-09  1.32472E-09  1.23271E-09  1.14131E-09  1.05058E-09
   9.60590E-10  8.71383E-10  7.83024E-10  6.95571E-10  6.09083E-10  5.23629E-10  4.39262E-10  3.56042E-10  2.74027E-10  1.93298E-10
   1.13881E-10  3.58604E-11 -4.07116E-11 -1.15781E-10 -1.89299E-10 -2.61188E-10 -3.31402E-10 -3.99901E-10 -4.66612E-10 -5.31557E-10
  -5.94746E-10 -6.56221E-10 -7.15984E-10 -7.74079E-10 -8.30508E-10 -8.85322E-10 -9.38530E-10 -9.90157E-10 -1.04023E-09 -1.08877E-09
  -1.13582E-09 -1.18139E-09 -1.22551E-09 -1.26821E-09 -1.30950E-09 -1.34943E-09 -1.38801E-09 -1.42526E-09 -1.46122E-09 -1.49591E-09
  -1.52936E-09 -1.56160E-09 -1.59264E-09 -1.62252E-09 -1.65126E-09 -1.67888E-09 -1.70542E-09 -1.73090E-09 -1.75534E-09 -1.77876E-09
  -1.80121E-09 -1.82268E-09 -1.84323E-09 -1.86285E-09 -1.88157E-09 -1.89945E-09 -1.91648E-09 -1.93269E-09 -1.94810E-09 -1.96273E-09
  -1.97661E-09 -1.98978E-09 -2.00223E-09 -2.01399E-09 -2.02508E-09 -2.03553E-09 -2.04537E-09 -2.05457E-09 -2.06320E-09 -2.07127E-09
  -2.07878E-09 -2.08575E-09 -2.09221E-09 -2.09816E-09 -2.10364E-09 -2.10864E-09 -2.11320E-09 -2.11731E-09 -2.12099E-09 -2.12427E-09
  -2.12715E-09 -2.12963E-09 -2.13175E-09 -2.13349E-09 -2.13488E-09 -2.13592E-09 -2.13663E-09 -2.13700E-09 -2.13705E-09 -2.13679E-09
  -2.13621E-09 -2.13532E-09 -2.13410E-09 -2.13254E-09 -2.13061E-09 -2.12832E-09 -2.12562E-09 -2.12252E-09 -2.11900E-09 -2.11505E-09
  -2.11064E-09 -2.10577E-09 -2.10042E-09 -2.09457E-09 -2.08822E-09 -2.08134E-09 -2.07394E-09 -2.06599E-09 -2.05748E-09 -2.04839E-09
  -2.03873E-09 -2.02847E-09 -2.01760E-09 -2.00611E-09 -1.99399E-09 -1.98124E-09 -1.96783E-09 -1.95376E-09 -1.93902E-09 -1.92360E-09
  -1.90749E-09 -1.89068E-09 -1.87316E-09 -1.85493E-09 -1.83597E-09 -1.81628E-09 -1.79585E-09 -1.77467E-09 -1.75274E-09 -1.73005E-09
  -1.70659E-09 -1.68236E-09 -1.65736E-09 -1.63157E-09 -1.60499E-09 -1.57762E-09 -1.54945E-09 -1.52049E-09 -1.49072E-09 -1.46014E-09
  -1.42876E-09 -1.39656E-09 -1.36355E-09 -1.32972E-09 -1.29507E-09 -1.25961E-09 -1.22333E-09 -1.18623E-09 -1.14832E-09 -1.10958E-09
  -1.07003E-09 -1.02966E-09 -9.88479E-10 -9.46485E-10 -9.03680E-10 -8.60069E-10 -8.15654E-10 -7.70437E-10 -7.24424E-10 -6.77619E-10
  -6.30025E-10 -5.81648E-10 -5.32494E-10
 GABA     Conc. = 7.24E-10
  -2.82512E-10 -2.77510E-10 -2.72192E-10 -2.66586E-10 -2.60726E-10 -2.54648E-10 -2.48393E-10 -2.42011E-10 -2.35560E-10 -2.29084E-10
  -2.22647E-10 -2.16373E-10 -2.10254E-10 -2.04454E-10 -1.99082E-10 -1.94195E-10 -1.90080E-10 -1.86981E-10 -1.84972E-10 -1.84450E-10
  -1.85838E-10 -1.89515E-10 -1.96128E-10 -2.06467E-10 -2.21463E-10 -2.42568E-10 -2.71371E-10 -3.08717E-10 -3.47438E-10 -2.89092E-10
  -1.42710E-10 -1.46972E-10 -4.30385E-11  2.96835E-10  5.27835E-10  6.90674E-10  9.48777E-10  1.24730E-09  1.51742E-09  1.70827E-09
   1.79404E-09  1.92743E-09  2.12248E-09  2.03325E-09  1.88583E-09  1.91526E-09  1.86011E-09  1.73270E-09  1.64765E-09  1.59032E-09
   1.55098E-09  1.52378E-09  1.50453E-09  1.49094E-09  1.48142E-09  1.47436E-09  1.46850E-09  1.46291E-09  1.45695E-09  1.45159E-09
   1.45357E-09  1.50676E-09  1.74716E-09  1.88236E-09  1.93288E-09  2.29669E-09  2.62172E-09  2.75933E-09  2.94352E-09  3.18035E-09
   3.40756E-09  3.56574E-09  3.60099E-09  3.56336E-09  3.68676E-09  3.63901E-09  3.34364E-09  3.30281E-09  3.28368E-09  3.17084E-09
   3.19280E-09  3.18186E-09  3.12393E-09  3.28522E-09  3.44899E-09  3.48563E-09  3.63810E-09  3.84145E-09  3.99988E-09  4.16828E-09
   4.29040E-09  4.38545E-09  4.57656E-09  4.67311E-09  4.59786E-09  4.67615E-09  4.75212E-09  4.66254E-09  4.63522E-09  4.64464E-09
   4.61772E-09  4.60036E-09  4.59581E-09  4.60051E-09  4.61182E-09  4.62776E-09  4.64707E-09  4.66892E-09  4.69270E-09  4.71795E-09
   4.74429E-09  4.77116E-09  4.79829E-09  4.82545E-09  4.85244E-09  4.87917E-09  4.90550E-09  4.93122E-09  4.95619E-09  4.98030E-09
   5.00342E-09  5.02548E-09  5.04637E-09  5.06601E-09  5.08429E-09  5.10115E-09  5.11650E-09  5.13027E-09  5.14237E-09  5.15275E-09
   5.16132E-09  5.16802E-09  5.17279E-09  5.17556E-09  5.17628E-09  5.17487E-09  5.17129E-09  5.16545E-09  5.15732E-09  5.14683E-09
   5.13392E-09  5.11855E-09  5.10067E-09  5.08021E-09  5.05712E-09  5.03135E-09  5.00288E-09  4.97174E-09  4.93797E-09  4.90162E-09
   4.86272E-09  4.82132E-09  4.77747E-09  4.73124E-09  4.68268E-09  4.63186E-09  4.57886E-09  4.52378E-09  4.46676E-09  4.40797E-09
   4.34767E-09  4.28635E-09  4.22487E-09  4.16509E-09  4.11187E-09  4.08168E-09  4.16154E-09  4.64073E-09  4.90606E-09  4.89637E-09
   4.78611E-09  4.68883E-09  4.61543E-09  4.56964E-09  4.55961E-09  4.55575E-09  4.42794E-09  3.99017E-09  3.31795E-09  3.06220E-09
   2.91274E-09  2.79239E-09  2.68348E-09  2.58008E-09  2.47966E-09  2.38100E-09  2.28346E-09  2.18670E-09  2.09047E-09  1.99468E-09
   1.89928E-09  1.80424E-09  1.70956E-09  1.61527E-09  1.52141E-09  1.42800E-09  1.33509E-09  1.24275E-09  1.15102E-09  1.05994E-09
   9.69602E-10  8.80043E-10  7.91330E-10  7.03523E-10  6.16680E-10  5.30870E-10  4.46150E-10  3.62577E-10  2.80211E-10  1.99133E-10
   1.19370E-10  4.10064E-11 -3.59059E-11 -1.11313E-10 -1.85164E-10 -2.57382E-10 -3.27923E-10 -3.96745E-10 -4.63774E-10 -5.29035E-10
  -5.92535E-10 -6.54318E-10 -7.14386E-10 -7.72781E-10 -8.29506E-10 -8.84613E-10 -9.38109E-10 -9.90022E-10 -1.04038E-09 -1.08920E-09
