 LCModel (Version 6.3-1R) Copyright: S.W. Provencher.          Ref.: Magn. Reson. Med. 30:672-679 (1993).                
 onepulse 13x23_ftSpec_smooth_lcm
 26 lines in following concentration table = NCONC+1
    Conc.  %SD   /Cr    Metabolite                                         
 2.17E-11 999%   0.000 Ala                                                 
 4.68E-10 239%   0.000 Asp                                                 
    0.000 999%   0.000 Cr                                                  
 2.29E-09  34%   0.000 GABA                                                
 1.41E-09  90%   0.000 Glc                                                 
    0.000 999%   0.000 Gln                                                 
    0.000 999%   0.000 Glu                                                 
    0.000 999%   0.000 Glyc                                                
    0.000 999%   0.000 GPC                                                 
    0.000 999%   0.000 GSH                                                 
 6.70E-10 110%   0.000 Ins                                                 
    0.000 999%   0.000 Lac                                                 
    0.000 999%   0.000 NAAG                                                
 9.32E-10  46%   0.000 NAA                                                 
    0.000 999%   0.000 PCh                                                 
    0.000 999%   0.000 PCr                                                 
 8.68E-10  99%   0.000 PE                                                  
 1.50E-11 999%   0.000 Scyllo                                              
 1.06E-09 150%   0.000 Ser                                                 
    0.000 999%   0.000 Tau                                                 
    0.000 999%   0.000 GPC+PCh                                             
 9.32E-10  46%   0.000 NAA+NAAG                                            
 6.70E-10 110%   0.000 Ins+Glyc                                            
    0.000 999%   0.000 Cr+PCr                                              
    0.000 999%   0.000 Glu+Gln                                             
   6 lines in following misc. output table
  FWHM = 0.089 ppm    S/N =   2                                            
  Data shift = 0.335 ppm                                                   
  Ph:  25 deg       6.3 deg/ppm                                            
  alphaB,S = 5.8E-01,   4.4E+01                                            
    9 spline knots.   Ns = 5(1)                                            
  ( 8) 2 infls.   ( 5) 1 extrs.                                            
  363 points on ppm-axis = NY
      4.250000     4.238821     4.227641     4.216462     4.205282     4.194103     4.182923     4.171744     4.160564     4.149385
      4.138206     4.127026     4.115847     4.104667     4.093488     4.082308     4.071129     4.059949     4.048770     4.037591
      4.026411     4.015232     4.004052     3.992873     3.981693     3.970514     3.959334     3.948155     3.936975     3.925796
      3.914617     3.903437     3.892258     3.881078     3.869899     3.858719     3.847540     3.836360     3.825181     3.814002
      3.802822     3.791643     3.780463     3.769284     3.758104     3.746925     3.735745     3.724566     3.713387     3.702207
      3.691028     3.679848     3.668669     3.657489     3.646310     3.635130     3.623951     3.612772     3.601592     3.590413
      3.579233     3.568054     3.556874     3.545695     3.534515     3.523336     3.512156     3.500977     3.489798     3.478618
      3.467439     3.456259     3.445080     3.433900     3.422721     3.411541     3.400362     3.389183     3.378003     3.366824
      3.355644     3.344465     3.333285     3.322106     3.310926     3.299747     3.288568     3.277388     3.266209     3.255029
      3.243850     3.232670     3.221491     3.210311     3.199132     3.187953     3.176773     3.165594     3.154414     3.143235
      3.132055     3.120876     3.109696     3.098517     3.087337     3.076158     3.064979     3.053799     3.042620     3.031440
      3.020261     3.009081     2.997902     2.986722     2.975543     2.964364     2.953184     2.942005     2.930825     2.919646
      2.908466     2.897287     2.886107     2.874928     2.863749     2.852569     2.841390     2.830210     2.819031     2.807851
      2.796672     2.785492     2.774313     2.763134     2.751954     2.740775     2.729595     2.718416     2.707236     2.696057
      2.684877     2.673698     2.662519     2.651339     2.640160     2.628980     2.617801     2.606621     2.595442     2.584262
      2.573083     2.561903     2.550724     2.539545     2.528365     2.517186     2.506006     2.494827     2.483647     2.472468
      2.461288     2.450109     2.438930     2.427750     2.416571     2.405391     2.394212     2.383032     2.371853     2.360673
      2.349494     2.338315     2.327135     2.315956     2.304776     2.293597     2.282417     2.271238     2.260058     2.248879
      2.237700     2.226520     2.215341     2.204161     2.192982     2.181802     2.170623     2.159443     2.148264     2.137084
      2.125905     2.114726     2.103546     2.092367     2.081187     2.070008     2.058828     2.047649     2.036469     2.025290
      2.014111     2.002931     1.991752     1.980572     1.969393     1.958213     1.947034     1.935854     1.924675     1.913496
      1.902316     1.891137     1.879957     1.868778     1.857598     1.846419     1.835239     1.824060     1.812881     1.801701
      1.790522     1.779342     1.768163     1.756983     1.745804     1.734624     1.723445     1.712265     1.701086     1.689907
      1.678727     1.667548     1.656368     1.645189     1.634009     1.622830     1.611650     1.600471     1.589292     1.578112
      1.566933     1.555753     1.544574     1.533394     1.522215     1.511035     1.499856     1.488677     1.477497     1.466318
      1.455138     1.443959     1.432779     1.421600     1.410420     1.399241     1.388062     1.376882     1.365703     1.354523
      1.343344     1.332164     1.320985     1.309805     1.298626     1.287446     1.276267     1.265088     1.253908     1.242729
      1.231549     1.220370     1.209190     1.198011     1.186831     1.175652     1.164473     1.153293     1.142114     1.130934
      1.119755     1.108575     1.097396     1.086216     1.075037     1.063858     1.052678     1.041499     1.030319     1.019140
      1.007960     0.996781     0.985601     0.974422     0.963243     0.952063     0.940884     0.929704     0.918525     0.907345
      0.896166     0.884986     0.873807     0.862628     0.851448     0.840269     0.829089     0.817910     0.806730     0.795551
      0.784371     0.773192     0.762012     0.750833     0.739654     0.728474     0.717295     0.706115     0.694936     0.683756
      0.672577     0.661397     0.650218     0.639039     0.627859     0.616680     0.605500     0.594321     0.583141     0.571962
      0.560782     0.549603     0.538424     0.527244     0.516065     0.504885     0.493706     0.482526     0.471347     0.460167
      0.448988     0.437809     0.426629     0.415450     0.404270     0.393091     0.381911     0.370732     0.359552     0.348373
      0.337193     0.326014     0.314835     0.303655     0.292476     0.281296     0.270117     0.258937     0.247758     0.236578
      0.225399     0.214220     0.203040
 NY phased data points follow
   1.24262E-08  1.39746E-08  1.57114E-08  1.58033E-08  1.58096E-08  1.55642E-08  1.50357E-08  1.35965E-08  1.39189E-08  1.32061E-08
   1.33033E-08  1.29255E-08  1.28259E-08  1.28364E-08  1.31031E-08  1.30431E-08  1.33106E-08  1.35711E-08  1.35308E-08  1.32954E-08
   1.29361E-08  1.29489E-08  1.28740E-08  1.27108E-08  1.20525E-08  1.23285E-08  1.22275E-08  1.29922E-08  1.21402E-08  1.26376E-08
   1.17654E-08  1.18250E-08  1.19110E-08  1.28133E-08  1.31451E-08  1.38395E-08  1.39854E-08  1.27598E-08  1.20267E-08  1.15976E-08
   1.08522E-08  1.06871E-08  1.02253E-08  1.03492E-08  9.56945E-09  9.24438E-09  9.14814E-09  8.62147E-09  8.55362E-09  8.13967E-09
   7.63541E-09  7.75939E-09  7.99053E-09  7.65436E-09  7.82541E-09  7.18827E-09  7.35735E-09  7.23543E-09  7.59179E-09  7.03095E-09
   7.38012E-09  7.77720E-09  8.06670E-09  8.20431E-09  9.48008E-09  1.05543E-08  1.07644E-08  1.10085E-08  1.06520E-08  1.03607E-08
   9.53572E-09  8.75843E-09  8.04463E-09  7.78834E-09  7.19348E-09  7.46879E-09  6.57111E-09  7.01492E-09  7.53056E-09  8.16095E-09
   9.69448E-09  1.11867E-08  1.33291E-08  1.40369E-08  1.40103E-08  1.29744E-08  1.27290E-08  1.17397E-08  1.17438E-08  1.09684E-08
   1.02284E-08  1.01382E-08  9.50368E-09  9.34617E-09  9.13289E-09  7.88415E-09  7.86440E-09  7.71725E-09  7.56043E-09  6.99967E-09
   6.35093E-09  6.02041E-09  6.42338E-09  5.68994E-09  5.64951E-09  5.92961E-09  5.32346E-09  5.51166E-09  4.77024E-09  4.37460E-09
   4.00901E-09  3.82734E-09  3.22857E-09  2.96373E-09  3.17665E-09  2.82583E-09  3.34502E-09  3.55521E-09  3.20585E-09  3.44504E-09
   3.18556E-09  3.22039E-09  3.74467E-09  3.48622E-09  3.05103E-09  3.10400E-09  2.31809E-09  2.45604E-09  2.12824E-09  2.46749E-09
   2.99602E-09  2.57403E-09  2.93492E-09  2.75370E-09  3.15318E-09  3.74848E-09  3.31778E-09  3.62482E-09  3.99939E-09  3.73511E-09
   4.16589E-09  4.60536E-09  5.84480E-09  5.58045E-09  6.05121E-09  6.41420E-09  6.64791E-09  6.83034E-09  7.22400E-09  7.12052E-09
   7.00469E-09  7.59792E-09  7.07669E-09  6.97282E-09  7.28243E-09  6.96663E-09  6.73804E-09  6.68371E-09  6.99990E-09  6.59856E-09
   6.94469E-09  6.90202E-09  7.41672E-09  7.19798E-09  6.84627E-09  7.19805E-09  7.46285E-09  7.32827E-09  8.14465E-09  8.93724E-09
   1.06169E-08  1.13109E-08  1.31709E-08  1.47598E-08  1.48361E-08  1.38574E-08  1.26228E-08  1.12524E-08  9.61099E-09  8.41868E-09
   7.05600E-09  6.21799E-09  5.17771E-09  4.60918E-09  2.53101E-09  1.53374E-09  4.10310E-10 -9.09054E-10 -2.63843E-09 -3.78198E-09
  -6.05756E-09 -7.07455E-09 -9.51334E-09 -1.15264E-08 -1.34118E-08 -1.62386E-08 -1.81452E-08 -2.04398E-08 -2.24684E-08 -2.45308E-08
  -2.57580E-08 -2.65479E-08 -2.75387E-08 -2.74280E-08 -2.65443E-08 -2.65442E-08 -2.44003E-08 -2.22046E-08 -1.98026E-08 -1.63864E-08
  -1.36545E-08 -1.08194E-08 -7.89477E-09 -5.54018E-09 -3.42856E-09 -1.86425E-09 -4.58147E-10 -2.27272E-10 -8.56195E-10 -3.87152E-10
  -8.29842E-10 -1.61180E-09 -2.35767E-09 -1.88834E-09 -1.95499E-09 -2.01858E-09 -1.74723E-09 -1.35764E-09 -1.26344E-09 -1.19382E-09
  -1.63606E-09 -1.36014E-09 -2.14352E-09 -2.40039E-09 -2.17294E-09 -1.94114E-09 -1.36577E-09 -1.43653E-09 -1.19728E-09 -1.17467E-09
  -1.04577E-09 -1.03690E-09 -8.37066E-10 -1.55266E-09 -1.45454E-09 -1.41571E-09 -1.90927E-09 -1.41154E-09 -1.66439E-09 -1.10056E-09
  -8.63075E-10 -3.21291E-10 -4.35263E-10 -5.84970E-11  2.54343E-11 -3.31606E-10 -7.15674E-10 -4.22794E-10 -9.60098E-10 -8.43043E-10
  -7.85419E-10 -1.32483E-09 -1.14977E-09 -1.30033E-09 -1.68941E-09 -1.44714E-09 -1.20102E-09 -8.50381E-10 -6.70528E-10 -1.30354E-10
  -2.80014E-10 -2.20339E-10  2.13894E-10  3.61538E-10  4.93301E-10  9.05848E-10  3.95287E-10  1.07710E-09  4.02188E-10  4.55666E-10
   3.66450E-10 -3.74867E-11  2.89978E-10  1.19294E-10 -2.86097E-10 -2.97618E-10 -5.68366E-10 -7.81384E-11 -5.66911E-10 -3.97586E-10
  -6.70433E-10 -1.05429E-09 -8.86567E-10 -6.81921E-10 -6.92647E-10 -1.06413E-09 -4.34711E-10 -4.66337E-10 -8.12110E-10 -9.86146E-10
  -8.03696E-10 -1.26603E-09 -2.99010E-10 -4.03439E-10 -8.29789E-10 -6.53548E-10 -6.38014E-10 -3.09691E-10 -7.63527E-10 -8.21661E-11
  -4.08692E-10  1.38440E-10 -1.94796E-10 -1.41789E-10 -2.87331E-10 -8.01251E-11  2.49998E-10  6.11281E-10 -1.72769E-10  6.93417E-10
   2.78899E-10  5.07156E-10  6.96587E-10  2.85853E-10  5.20398E-10  8.26585E-10  1.12994E-09  5.78415E-10  3.32884E-10  6.29929E-10
   7.14458E-10  9.97201E-10  1.10258E-09  9.90120E-10  1.16619E-09  7.30280E-10  1.44744E-09  1.50853E-09  1.08874E-09  1.52465E-09
   1.53549E-09  1.29713E-09  1.42095E-09  1.94376E-09  1.39694E-09  1.97678E-09  1.83983E-09  1.96279E-09  1.88667E-09  1.81451E-09
   1.49315E-09  1.83451E-09  1.83473E-09  1.91555E-09  2.19015E-09  1.99000E-09  1.63807E-09  1.68679E-09  1.99490E-09  2.22379E-09
   2.41022E-09  2.32254E-09  2.22675E-09
 NY points of the fit to the data follow
   1.65143E-08  1.58382E-08  1.53407E-08  1.49388E-08  1.44126E-08  1.37549E-08  1.30203E-08  1.24439E-08  1.21354E-08  1.21447E-08
   1.23871E-08  1.27132E-08  1.30997E-08  1.35575E-08  1.39984E-08  1.43301E-08  1.45470E-08  1.45610E-08  1.42621E-08  1.38596E-08
   1.35744E-08  1.33423E-08  1.29618E-08  1.25186E-08  1.20891E-08  1.18804E-08  1.20149E-08  1.22657E-08  1.25120E-08  1.27747E-08
   1.28350E-08  1.26733E-08  1.26870E-08  1.28280E-08  1.28190E-08  1.28710E-08  1.29166E-08  1.28898E-08  1.27085E-08  1.23210E-08
   1.17943E-08  1.12354E-08  1.04241E-08  9.59040E-09  9.20543E-09  8.87964E-09  8.44901E-09  8.23221E-09  8.19178E-09  8.22151E-09
   8.28147E-09  8.30535E-09  8.27937E-09  8.17902E-09  8.05251E-09  7.97535E-09  7.98719E-09  8.02873E-09  8.01361E-09  7.95019E-09
   7.95013E-09  8.10776E-09  8.53171E-09  9.00321E-09  9.57605E-09  1.02765E-08  1.08262E-08  1.11921E-08  1.14573E-08  1.15295E-08
   1.13601E-08  1.08873E-08  1.01871E-08  9.46534E-09  8.80489E-09  8.05381E-09  7.70668E-09  8.34489E-09  9.19255E-09  1.00634E-08
   1.10231E-08  1.18471E-08  1.25154E-08  1.30890E-08  1.32490E-08  1.28063E-08  1.18688E-08  1.05726E-08  9.40618E-09  9.11345E-09
   9.02410E-09  8.95320E-09  8.82633E-09  8.46138E-09  8.05257E-09  7.78467E-09  7.36229E-09  6.89406E-09  6.60805E-09  6.34673E-09
   6.09591E-09  5.91153E-09  5.76832E-09  5.65475E-09  5.55862E-09  5.47129E-09  5.38729E-09  5.30293E-09  5.21578E-09  5.12484E-09
   5.03132E-09  4.93910E-09  4.85103E-09  4.75819E-09  4.66604E-09  4.58239E-09  4.50080E-09  4.41924E-09  4.33695E-09  4.25356E-09
   4.16875E-09  4.08239E-09  3.99433E-09  3.90456E-09  3.81306E-09  3.71986E-09  3.62499E-09  3.52848E-09  3.43039E-09  3.33077E-09
   3.22967E-09  3.12715E-09  3.02326E-09  2.91809E-09  2.81170E-09  2.70415E-09  2.59552E-09  2.48588E-09  2.37532E-09  2.26391E-09
   2.15176E-09  2.03894E-09  1.92554E-09  1.81168E-09  1.69741E-09  1.58289E-09  1.46823E-09  1.35356E-09  1.23901E-09  1.12475E-09
   1.01097E-09  8.97835E-10  7.85630E-10  6.74657E-10  5.65257E-10  4.57905E-10  3.53232E-10  2.52053E-10  1.55526E-10  6.53722E-11
  -1.58382E-11 -8.38483E-11 -1.31294E-10 -1.43894E-10 -8.97760E-11  1.21149E-10  8.70757E-10  3.35415E-09  6.45079E-09  9.37092E-09
   1.18608E-08  1.38732E-08  1.53137E-08  1.58990E-08  1.52109E-08  1.29056E-08  8.99857E-09  4.21215E-09  2.53470E-10 -9.82400E-10
  -1.50584E-09 -1.81587E-09 -2.03426E-09 -2.20450E-09 -2.34596E-09 -2.46854E-09 -2.57784E-09 -2.67723E-09 -2.76889E-09 -2.85424E-09
  -2.93430E-09 -3.00976E-09 -3.08116E-09 -3.14888E-09 -3.21321E-09 -3.27440E-09 -3.33262E-09 -3.38801E-09 -3.44071E-09 -3.49079E-09
  -3.53836E-09 -3.58348E-09 -3.62621E-09 -3.66660E-09 -3.70469E-09 -3.74053E-09 -3.77416E-09 -3.80558E-09 -3.83486E-09 -3.86200E-09
  -3.88704E-09 -3.90999E-09 -3.93087E-09 -3.94970E-09 -3.96653E-09 -3.98134E-09 -3.99415E-09 -4.00499E-09 -4.01388E-09 -4.02083E-09
  -4.02583E-09 -4.02893E-09 -4.03012E-09 -4.02943E-09 -4.02688E-09 -4.02245E-09 -4.01619E-09 -4.00809E-09 -3.99816E-09 -3.98643E-09
  -3.97290E-09 -3.95758E-09 -3.94049E-09 -3.92164E-09 -3.90105E-09 -3.87870E-09 -3.85464E-09 -3.82887E-09 -3.80140E-09 -3.77222E-09
  -3.74137E-09 -3.70886E-09 -3.67468E-09 -3.63889E-09 -3.60151E-09 -3.56258E-09 -3.52217E-09 -3.48030E-09 -3.43702E-09 -3.39237E-09
  -3.34640E-09 -3.29914E-09 -3.25064E-09 -3.20094E-09 -3.15009E-09 -3.09813E-09 -3.04510E-09 -2.99104E-09 -2.93599E-09 -2.88000E-09
  -2.82312E-09 -2.76537E-09 -2.70681E-09 -2.64748E-09 -2.58741E-09 -2.52666E-09 -2.46527E-09 -2.40327E-09 -2.34071E-09 -2.27764E-09
  -2.21409E-09 -2.15011E-09 -2.08573E-09 -2.02101E-09 -1.95598E-09 -1.89068E-09 -1.82517E-09 -1.75948E-09 -1.69365E-09 -1.62773E-09
  -1.56176E-09 -1.49577E-09 -1.42982E-09 -1.36395E-09 -1.29820E-09 -1.23260E-09 -1.16721E-09 -1.10207E-09 -1.03720E-09 -9.72677E-10
  -9.08516E-10 -8.44781E-10 -7.81490E-10 -7.18709E-10 -6.56461E-10 -5.94792E-10 -5.33756E-10 -4.73393E-10 -4.13743E-10 -3.54843E-10
  -2.96730E-10 -2.39447E-10 -1.83068E-10 -1.27575E-10 -7.29650E-11 -1.92100E-11  3.37123E-11  8.58164E-11  1.37135E-10  1.87678E-10
   2.37473E-10  2.86544E-10  3.34912E-10  3.82590E-10  4.29613E-10  4.75997E-10  5.21767E-10  5.66938E-10  6.11540E-10  6.55585E-10
   6.99106E-10  7.42119E-10  7.84644E-10  8.26703E-10  8.68321E-10  9.09523E-10  9.50332E-10  9.90759E-10  1.03083E-09  1.07057E-09
   1.11000E-09  1.14913E-09  1.18801E-09  1.22664E-09  1.26504E-09  1.30325E-09  1.34128E-09  1.37914E-09  1.41687E-09  1.45450E-09
   1.49202E-09  1.52948E-09  1.56689E-09  1.60427E-09  1.64165E-09  1.67904E-09  1.71648E-09  1.75398E-09  1.79156E-09  1.82925E-09
   1.86706E-09  1.90502E-09  1.94315E-09  1.98148E-09  2.02003E-09  2.05881E-09  2.09784E-09  2.13715E-09  2.17677E-09  2.21670E-09
   2.25700E-09  2.29765E-09  2.33870E-09
 NY background values follow
     6.250E-09    6.234E-09    6.218E-09    6.202E-09    6.186E-09    6.170E-09    6.154E-09    6.137E-09    6.121E-09    6.104E-09
     6.087E-09    6.070E-09    6.053E-09    6.036E-09    6.019E-09    6.002E-09    5.985E-09    5.968E-09    5.951E-09    5.933E-09
     5.916E-09    5.899E-09    5.882E-09    5.864E-09    5.847E-09    5.830E-09    5.812E-09    5.795E-09    5.778E-09    5.761E-09
     5.744E-09    5.727E-09    5.710E-09    5.693E-09    5.676E-09    5.659E-09    5.643E-09    5.626E-09    5.609E-09    5.593E-09
     5.577E-09    5.561E-09    5.545E-09    5.529E-09    5.513E-09    5.498E-09    5.482E-09    5.467E-09    5.452E-09    5.437E-09
     5.422E-09    5.408E-09    5.393E-09    5.379E-09    5.365E-09    5.351E-09    5.338E-09    5.325E-09    5.312E-09    5.299E-09
     5.286E-09    5.274E-09    5.262E-09    5.250E-09    5.238E-09    5.227E-09    5.215E-09    5.203E-09    5.192E-09    5.180E-09
     5.168E-09    5.156E-09    5.144E-09    5.131E-09    5.119E-09    5.105E-09    5.092E-09    5.078E-09    5.063E-09    5.048E-09
     5.033E-09    5.016E-09    4.999E-09    4.982E-09    4.963E-09    4.944E-09    4.924E-09    4.903E-09    4.881E-09    4.858E-09
     4.834E-09    4.809E-09    4.783E-09    4.756E-09    4.727E-09    4.697E-09    4.666E-09    4.634E-09    4.600E-09    4.565E-09
     4.528E-09    4.490E-09    4.450E-09    4.408E-09    4.365E-09    4.320E-09    4.274E-09    4.225E-09    4.175E-09    4.123E-09
     4.069E-09    4.013E-09    3.955E-09    3.894E-09    3.832E-09    3.768E-09    3.701E-09    3.632E-09    3.561E-09    3.487E-09
     3.411E-09    3.333E-09    3.252E-09    3.169E-09    3.084E-09    2.996E-09    2.906E-09    2.814E-09    2.721E-09    2.625E-09
     2.528E-09    2.428E-09    2.328E-09    2.225E-09    2.121E-09    2.016E-09    1.909E-09    1.802E-09    1.693E-09    1.582E-09
     1.471E-09    1.359E-09    1.246E-09    1.132E-09    1.018E-09    9.028E-10    7.871E-10    6.710E-10    5.545E-10    4.377E-10
     3.207E-10    2.035E-10    8.618E-11   -3.107E-11   -1.483E-10   -2.653E-10   -3.821E-10   -4.985E-10   -6.146E-10   -7.302E-10
    -8.452E-10   -9.596E-10   -1.073E-09   -1.186E-09   -1.298E-09   -1.409E-09   -1.519E-09   -1.628E-09   -1.736E-09   -1.843E-09
    -1.948E-09   -2.052E-09   -2.154E-09   -2.254E-09   -2.353E-09   -2.451E-09   -2.546E-09   -2.640E-09   -2.731E-09   -2.821E-09
    -2.908E-09   -2.994E-09   -3.076E-09   -3.157E-09   -3.236E-09   -3.312E-09   -3.386E-09   -3.457E-09   -3.527E-09   -3.594E-09
    -3.659E-09   -3.722E-09   -3.783E-09   -3.841E-09   -3.897E-09   -3.952E-09   -4.004E-09   -4.054E-09   -4.101E-09   -4.147E-09
    -4.191E-09   -4.232E-09   -4.272E-09   -4.309E-09   -4.344E-09   -4.378E-09   -4.409E-09   -4.438E-09   -4.466E-09   -4.491E-09
    -4.514E-09   -4.535E-09   -4.555E-09   -4.572E-09   -4.588E-09   -4.601E-09   -4.613E-09   -4.622E-09   -4.630E-09   -4.636E-09
    -4.640E-09   -4.642E-09   -4.642E-09   -4.641E-09   -4.637E-09   -4.632E-09   -4.625E-09   -4.616E-09   -4.605E-09   -4.593E-09
    -4.579E-09   -4.563E-09   -4.545E-09   -4.526E-09   -4.504E-09   -4.481E-09   -4.457E-09   -4.430E-09   -4.402E-09   -4.373E-09
    -4.341E-09   -4.308E-09   -4.274E-09   -4.237E-09   -4.199E-09   -4.160E-09   -4.119E-09   -4.077E-09   -4.033E-09   -3.988E-09
    -3.942E-09   -3.894E-09   -3.845E-09   -3.795E-09   -3.744E-09   -3.691E-09   -3.638E-09   -3.583E-09   -3.528E-09   -3.472E-09
    -3.414E-09   -3.356E-09   -3.297E-09   -3.238E-09   -3.177E-09   -3.116E-09   -3.055E-09   -2.992E-09   -2.929E-09   -2.866E-09
    -2.802E-09   -2.738E-09   -2.673E-09   -2.608E-09   -2.543E-09   -2.477E-09   -2.411E-09   -2.345E-09   -2.279E-09   -2.213E-09
    -2.147E-09   -2.080E-09   -2.014E-09   -1.948E-09   -1.882E-09   -1.816E-09   -1.750E-09   -1.685E-09   -1.620E-09   -1.555E-09
    -1.490E-09   -1.426E-09   -1.363E-09   -1.300E-09   -1.237E-09   -1.175E-09   -1.114E-09   -1.053E-09   -9.934E-10   -9.342E-10
    -8.758E-10   -8.183E-10   -7.616E-10   -7.059E-10   -6.510E-10   -5.969E-10   -5.438E-10   -4.914E-10   -4.398E-10   -3.890E-10
    -3.389E-10   -2.896E-10   -2.409E-10   -1.930E-10   -1.457E-10   -9.903E-11   -5.299E-11   -7.554E-12    3.732E-11    8.163E-11
     1.254E-10    1.687E-10    2.115E-10    2.538E-10    2.957E-10    3.372E-10    3.783E-10    4.190E-10    4.593E-10    4.993E-10
     5.390E-10    5.784E-10    6.176E-10    6.565E-10    6.952E-10    7.337E-10    7.720E-10    8.101E-10    8.481E-10    8.860E-10
     9.238E-10    9.616E-10    9.993E-10    1.037E-09    1.075E-09    1.112E-09    1.150E-09    1.188E-09    1.226E-09    1.264E-09
     1.302E-09    1.340E-09    1.378E-09    1.417E-09    1.456E-09    1.495E-09    1.534E-09    1.574E-09    1.614E-09    1.654E-09
     1.695E-09    1.736E-09    1.777E-09
 Ala      Conc. = 2.17E-11
   6.26516E-09  6.25120E-09  6.23655E-09  6.22133E-09  6.20550E-09  6.18905E-09  6.17175E-09  6.15341E-09  6.13528E-09  6.11721E-09
   6.09786E-09  6.07887E-09  6.06082E-09  6.04243E-09  6.02415E-09  6.00629E-09  5.98863E-09  5.97107E-09  5.95358E-09  5.93612E-09
   5.91868E-09  5.90126E-09  5.88385E-09  5.86646E-09  5.84910E-09  5.83177E-09  5.81445E-09  5.79718E-09  5.77995E-09  5.76276E-09
   5.74563E-09  5.72854E-09  5.71152E-09  5.69459E-09  5.67772E-09  5.66093E-09  5.64424E-09  5.62764E-09  5.61115E-09  5.59477E-09
   5.57849E-09  5.56234E-09  5.54632E-09  5.53045E-09  5.51470E-09  5.49912E-09  5.48369E-09  5.46841E-09  5.45332E-09  5.43840E-09
   5.42366E-09  5.40911E-09  5.39476E-09  5.38061E-09  5.36667E-09  5.35294E-09  5.33943E-09  5.32617E-09  5.31313E-09  5.30036E-09
   5.28782E-09  5.27554E-09  5.26349E-09  5.25163E-09  5.23990E-09  5.22827E-09  5.21668E-09  5.20511E-09  5.19349E-09  5.18179E-09
   5.16996E-09  5.15795E-09  5.14573E-09  5.13323E-09  5.12043E-09  5.10728E-09  5.09371E-09  5.07972E-09  5.06522E-09  5.05021E-09
   5.03461E-09  5.01838E-09  5.00149E-09  4.98390E-09  4.96555E-09  4.94640E-09  4.92642E-09  4.90555E-09  4.88376E-09  4.86101E-09
   4.83726E-09  4.81248E-09  4.78665E-09  4.75973E-09  4.73172E-09  4.70264E-09  4.67255E-09  4.64164E-09  4.61040E-09  4.58057E-09
   4.55534E-09  4.52865E-09  4.49957E-09  4.47280E-09  4.44515E-09  4.41344E-09  4.37541E-09  4.32952E-09  4.27493E-09  4.21189E-09
   4.14264E-09  4.07190E-09  4.00287E-09  3.92693E-09  3.84977E-09  3.77947E-09  3.70986E-09  3.63918E-09  3.56680E-09  3.49245E-09
   3.41589E-09  3.33706E-09  3.25589E-09  3.17245E-09  3.08678E-09  2.99896E-09  2.90905E-09  2.81711E-09  2.72324E-09  2.62750E-09
   2.52996E-09  2.43072E-09  2.32982E-09  2.22738E-09  2.12344E-09  2.01810E-09  1.91142E-09  1.80350E-09  1.69441E-09  1.58422E-09
   1.47302E-09  1.36087E-09  1.24787E-09  1.13410E-09  1.01962E-09  9.04504E-10  7.88850E-10  6.72737E-10  5.56224E-10  4.39411E-10
   3.22378E-10  2.05175E-10  8.79066E-11 -2.93413E-11 -1.46515E-10 -2.63527E-10 -3.80281E-10 -4.96710E-10 -6.12737E-10 -7.28257E-10
  -8.43217E-10 -9.57495E-10 -1.07101E-09 -1.18363E-09 -1.29520E-09 -1.40536E-09 -1.51282E-09 -1.61439E-09 -1.71320E-09 -1.81129E-09
  -1.90926E-09 -2.00714E-09 -2.10514E-09 -2.20401E-09 -2.30484E-09 -2.40848E-09 -2.51474E-09 -2.62139E-09 -2.72345E-09 -2.81600E-09
  -2.90459E-09 -2.99044E-09 -3.07376E-09 -3.15468E-09 -3.23327E-09 -3.30955E-09 -3.38356E-09 -3.45531E-09 -3.52483E-09 -3.59212E-09
  -3.65721E-09 -3.72010E-09 -3.78081E-09 -3.83933E-09 -3.89570E-09 -3.94993E-09 -4.00201E-09 -4.05196E-09 -4.09979E-09 -4.14552E-09
  -4.18915E-09 -4.23070E-09 -4.27018E-09 -4.30759E-09 -4.34296E-09 -4.37628E-09 -4.40758E-09 -4.43684E-09 -4.46411E-09 -4.48938E-09
  -4.51266E-09 -4.53396E-09 -4.55329E-09 -4.57067E-09 -4.58611E-09 -4.59961E-09 -4.61119E-09 -4.62085E-09 -4.62862E-09 -4.63450E-09
  -4.63849E-09 -4.64060E-09 -4.64086E-09 -4.63928E-09 -4.63587E-09 -4.63061E-09 -4.62355E-09 -4.61469E-09 -4.60402E-09 -4.59157E-09
  -4.57734E-09 -4.56135E-09 -4.54361E-09 -4.52413E-09 -4.50292E-09 -4.47998E-09 -4.45534E-09 -4.42901E-09 -4.40098E-09 -4.37127E-09
  -4.33990E-09 -4.30687E-09 -4.27220E-09 -4.23592E-09 -4.19806E-09 -4.15867E-09 -4.11779E-09 -4.07548E-09 -4.03175E-09 -3.98667E-09
  -3.94028E-09 -3.89260E-09 -3.84369E-09 -3.79359E-09 -3.74235E-09 -3.68999E-09 -3.63658E-09 -3.58214E-09 -3.52672E-09 -3.47036E-09
  -3.41311E-09 -3.35500E-09 -3.29609E-09 -3.23641E-09 -3.17600E-09 -3.11491E-09 -3.05317E-09 -2.99084E-09 -2.92795E-09 -2.86455E-09
  -2.80067E-09 -2.73637E-09 -2.67167E-09 -2.60664E-09 -2.54129E-09 -2.47569E-09 -2.40987E-09 -2.34387E-09 -2.27774E-09 -2.21152E-09
  -2.14525E-09 -2.07896E-09 -2.01272E-09 -1.94655E-09 -1.88051E-09 -1.81461E-09 -1.74894E-09 -1.68351E-09 -1.61835E-09 -1.55355E-09
  -1.48910E-09 -1.42508E-09 -1.36151E-09 -1.29845E-09 -1.23592E-09 -1.17398E-09 -1.11266E-09 -1.05202E-09 -9.92099E-10 -9.32925E-10
  -8.74537E-10 -8.16981E-10 -7.60329E-10 -7.04563E-10 -6.49681E-10 -5.95655E-10 -5.42462E-10 -4.90087E-10 -4.38498E-10 -3.87685E-10
  -3.37621E-10 -2.88280E-10 -2.39643E-10 -1.91695E-10 -1.44403E-10 -9.77494E-11 -5.17098E-11 -6.26967E-12  3.86019E-11  8.29161E-11
   1.26707E-10  1.69991E-10  2.12785E-10  2.55115E-10  2.97002E-10  3.38476E-10  3.79555E-10  4.20255E-10  4.60594E-10  5.00614E-10
   5.40314E-10  5.79718E-10  6.18874E-10  6.57779E-10  6.96448E-10  7.34933E-10  7.73243E-10  8.11381E-10  8.49390E-10  8.87294E-10
   9.25091E-10  9.62839E-10  1.00052E-09  1.03819E-09  1.07585E-09  1.11352E-09  1.15125E-09  1.18903E-09  1.22690E-09  1.26488E-09
   1.30298E-09  1.34123E-09  1.37965E-09  1.41826E-09  1.45711E-09  1.49618E-09  1.53551E-09  1.57512E-09  1.61504E-09  1.65527E-09
   1.69586E-09  1.73681E-09  1.77817E-09
 Asp      Conc. = 4.68E-10
   6.79540E-09  6.71205E-09  6.63293E-09  6.54421E-09  6.45928E-09  6.36771E-09  6.28873E-09  6.22928E-09  6.19164E-09  6.16273E-09
   6.13827E-09  6.11651E-09  6.09652E-09  6.07760E-09  6.05904E-09  6.04079E-09  6.02286E-09  6.00518E-09  5.98775E-09  5.97052E-09
   5.95349E-09  5.93666E-09  5.92003E-09  5.90363E-09  5.88748E-09  5.87162E-09  5.85607E-09  5.84092E-09  5.82627E-09  5.81220E-09
   5.79892E-09  5.78664E-09  5.77576E-09  5.76693E-09  5.76131E-09  5.76158E-09  5.77411E-09  5.79098E-09  5.81451E-09  5.83257E-09
   5.84146E-09  5.84387E-09  5.85077E-09  5.87302E-09  5.91568E-09  5.98346E-09  6.04034E-09  6.08263E-09  6.15000E-09  6.22139E-09
   6.27841E-09  6.28749E-09  6.23191E-09  6.11288E-09  5.96512E-09  5.83860E-09  5.75671E-09  5.71391E-09  5.64506E-09  5.56215E-09
   5.51536E-09  5.48217E-09  5.45454E-09  5.43859E-09  5.41720E-09  5.37952E-09  5.33530E-09  5.30406E-09  5.27925E-09  5.25794E-09
   5.23875E-09  5.22091E-09  5.20395E-09  5.18752E-09  5.17141E-09  5.15543E-09  5.13942E-09  5.12331E-09  5.10694E-09  5.09027E-09
   5.07319E-09  5.05564E-09  5.03754E-09  5.01884E-09  4.99949E-09  4.97940E-09  4.95854E-09  4.93685E-09  4.91427E-09  4.89076E-09
   4.86625E-09  4.84072E-09  4.81410E-09  4.78634E-09  4.75740E-09  4.72723E-09  4.69577E-09  4.66299E-09  4.62884E-09  4.59328E-09
   4.55623E-09  4.51768E-09  4.47757E-09  4.43585E-09  4.39248E-09  4.34741E-09  4.30059E-09  4.25199E-09  4.20156E-09  4.14924E-09
   4.09500E-09  4.03877E-09  3.98054E-09  3.92023E-09  3.85782E-09  3.79325E-09  3.72649E-09  3.65748E-09  3.58618E-09  3.51256E-09
   3.43653E-09  3.35808E-09  3.27721E-09  3.19399E-09  3.10850E-09  3.02081E-09  2.93100E-09  2.83915E-09  2.74535E-09  2.64967E-09
   2.55219E-09  2.45298E-09  2.35213E-09  2.24972E-09  2.14582E-09  2.04051E-09  1.93388E-09  1.82599E-09  1.71694E-09  1.60680E-09
   1.49565E-09  1.38357E-09  1.27064E-09  1.15695E-09  1.04256E-09  9.27550E-10  8.12020E-10  6.96050E-10  5.79705E-10  4.63089E-10
   3.46287E-10  2.29357E-10  1.12414E-10 -4.44451E-12 -1.21148E-10 -2.37587E-10 -3.53635E-10 -4.69181E-10 -5.84087E-10 -6.98154E-10
  -8.11185E-10 -9.22817E-10 -1.03255E-09 -1.13940E-09 -1.24135E-09 -1.33260E-09 -1.38824E-09 -1.33850E-09 -1.25256E-09 -1.17688E-09
  -1.12597E-09 -1.10252E-09 -1.11245E-09 -1.17320E-09 -1.31002E-09 -1.54326E-09 -1.87088E-09 -2.24747E-09 -2.56814E-09 -2.72378E-09
  -2.83697E-09 -2.93566E-09 -3.02680E-09 -3.11292E-09 -3.19518E-09 -3.27418E-09 -3.35027E-09 -3.42365E-09 -3.49448E-09 -3.56284E-09
  -3.62882E-09 -3.69245E-09 -3.75380E-09 -3.81287E-09 -3.86971E-09 -3.92435E-09 -3.97679E-09 -4.02706E-09 -4.07519E-09 -4.12117E-09
  -4.16503E-09 -4.20679E-09 -4.24646E-09 -4.28405E-09 -4.31957E-09 -4.35304E-09 -4.38448E-09 -4.41386E-09 -4.44125E-09 -4.46662E-09
  -4.49001E-09 -4.51140E-09 -4.53082E-09 -4.54828E-09 -4.56380E-09 -4.57738E-09 -4.58902E-09 -4.59875E-09 -4.60659E-09 -4.61252E-09
  -4.61656E-09 -4.61873E-09 -4.61905E-09 -4.61751E-09 -4.61415E-09 -4.60893E-09 -4.60192E-09 -4.59309E-09 -4.58246E-09 -4.57005E-09
