 LCModel (Version 6.3-1R) Copyright: S.W. Provencher.          Ref.: Magn. Reson. Med. 30:672-679 (1993).                
 onepulse 13x28_ftSpec_smooth_lcm
 26 lines in following concentration table = NCONC+1
    Conc.  %SD /Cr+PCr  Metabolite                                         
    0.000 999%   0.000 Ala                                                 
    0.000 999%   0.000 Asp                                                 
    0.000 999%   0.000 Cr                                                  
 4.15E-10 176%   4.706 GABA                                                
 1.19E-10 758%   1.349 Glc                                                 
 5.72E-10 129%   6.485 Gln                                                 
    0.000 999%   0.000 Glu                                                 
    0.000 999%   0.000 Glyc                                                
    0.000 999%   0.000 GPC                                                 
    0.000 999%   0.000 GSH                                                 
 1.16E-09  49%  13.200 Ins                                                 
    0.000 999%   0.000 Lac                                                 
    0.000 999%   0.000 NAAG                                                
 4.71E-10  75%   5.336 NAA                                                 
 8.28E-11 125%   0.939 PCh                                                 
 8.82E-11 425%   1.000 PCr                                                 
    0.000 999%   0.000 PE                                                  
 1.56E-10 144%   1.763 Scyllo                                              
 4.09E-09  21%  46.307 Ser                                                 
    0.000 999%   0.000 Tau                                                 
 8.28E-11 125%   0.939 GPC+PCh                                             
 4.71E-10  75%   5.336 NAA+NAAG                                            
 1.16E-09  49%  13.200 Ins+Glyc                                            
 8.82E-11 425%   1.000 Cr+PCr                                              
 5.72E-10 129%   6.485 Glu+Gln                                             
   6 lines in following misc. output table
  FWHM = 0.089 ppm    S/N =   2                                            
  Data shift = 0.358 ppm                                                   
  Ph: -39 deg     -40.0 deg/ppm                                            
  alphaB,S = 5.4E+01,   3.0E+01                                            
    9 spline knots.   Ns = 5(1)                                            
  ( 8) 1 infls.   ( 5) 1 extrs.                                            
  363 points on ppm-axis = NY
      4.250000     4.238821     4.227641     4.216462     4.205282     4.194103     4.182923     4.171744     4.160564     4.149385
      4.138206     4.127026     4.115847     4.104667     4.093488     4.082308     4.071129     4.059949     4.048770     4.037591
      4.026411     4.015232     4.004052     3.992873     3.981693     3.970514     3.959334     3.948155     3.936975     3.925796
      3.914617     3.903437     3.892258     3.881078     3.869899     3.858719     3.847540     3.836360     3.825181     3.814002
      3.802822     3.791643     3.780463     3.769284     3.758104     3.746925     3.735745     3.724566     3.713387     3.702207
      3.691028     3.679848     3.668669     3.657489     3.646310     3.635130     3.623951     3.612772     3.601592     3.590413
      3.579233     3.568054     3.556874     3.545695     3.534515     3.523336     3.512156     3.500977     3.489798     3.478618
      3.467439     3.456259     3.445080     3.433900     3.422721     3.411541     3.400362     3.389183     3.378003     3.366824
      3.355644     3.344465     3.333285     3.322106     3.310926     3.299747     3.288568     3.277388     3.266209     3.255029
      3.243850     3.232670     3.221491     3.210311     3.199132     3.187953     3.176773     3.165594     3.154414     3.143235
      3.132055     3.120876     3.109696     3.098517     3.087337     3.076158     3.064979     3.053799     3.042620     3.031440
      3.020261     3.009081     2.997902     2.986722     2.975543     2.964364     2.953184     2.942005     2.930825     2.919646
      2.908466     2.897287     2.886107     2.874928     2.863749     2.852569     2.841390     2.830210     2.819031     2.807851
      2.796672     2.785492     2.774313     2.763134     2.751954     2.740775     2.729595     2.718416     2.707236     2.696057
      2.684877     2.673698     2.662519     2.651339     2.640160     2.628980     2.617801     2.606621     2.595442     2.584262
      2.573083     2.561903     2.550724     2.539545     2.528365     2.517186     2.506006     2.494827     2.483647     2.472468
      2.461288     2.450109     2.438930     2.427750     2.416571     2.405391     2.394212     2.383032     2.371853     2.360673
      2.349494     2.338315     2.327135     2.315956     2.304776     2.293597     2.282417     2.271238     2.260058     2.248879
      2.237700     2.226520     2.215341     2.204161     2.192982     2.181802     2.170623     2.159443     2.148264     2.137084
      2.125905     2.114726     2.103546     2.092367     2.081187     2.070008     2.058828     2.047649     2.036469     2.025290
      2.014111     2.002931     1.991752     1.980572     1.969393     1.958213     1.947034     1.935854     1.924675     1.913496
      1.902316     1.891137     1.879957     1.868778     1.857598     1.846419     1.835239     1.824060     1.812881     1.801701
      1.790522     1.779342     1.768163     1.756983     1.745804     1.734624     1.723445     1.712265     1.701086     1.689907
      1.678727     1.667548     1.656368     1.645189     1.634009     1.622830     1.611650     1.600471     1.589292     1.578112
      1.566933     1.555753     1.544574     1.533394     1.522215     1.511035     1.499856     1.488677     1.477497     1.466318
      1.455138     1.443959     1.432779     1.421600     1.410420     1.399241     1.388062     1.376882     1.365703     1.354523
      1.343344     1.332164     1.320985     1.309805     1.298626     1.287446     1.276267     1.265088     1.253908     1.242729
      1.231549     1.220370     1.209190     1.198011     1.186831     1.175652     1.164473     1.153293     1.142114     1.130934
      1.119755     1.108575     1.097396     1.086216     1.075037     1.063858     1.052678     1.041499     1.030319     1.019140
      1.007960     0.996781     0.985601     0.974422     0.963243     0.952063     0.940884     0.929704     0.918525     0.907345
      0.896166     0.884986     0.873807     0.862628     0.851448     0.840269     0.829089     0.817910     0.806730     0.795551
      0.784371     0.773192     0.762012     0.750833     0.739654     0.728474     0.717295     0.706115     0.694936     0.683756
      0.672577     0.661397     0.650218     0.639039     0.627859     0.616680     0.605500     0.594321     0.583141     0.571962
      0.560782     0.549603     0.538424     0.527244     0.516065     0.504885     0.493706     0.482526     0.471347     0.460167
      0.448988     0.437809     0.426629     0.415450     0.404270     0.393091     0.381911     0.370732     0.359552     0.348373
      0.337193     0.326014     0.314835     0.303655     0.292476     0.281296     0.270117     0.258937     0.247758     0.236578
      0.225399     0.214220     0.203040
 NY phased data points follow
   9.24745E-09  1.01494E-08  9.13615E-09  9.66463E-09  8.59985E-09  8.82945E-09  8.27972E-09  8.29847E-09  7.67587E-09  8.41805E-09
   7.66965E-09  8.38700E-09  7.66811E-09  8.59012E-09  8.21978E-09  8.70871E-09  8.74527E-09  8.64172E-09  8.16054E-09  8.37496E-09
   8.14619E-09  8.60481E-09  7.73901E-09  7.92274E-09  7.96047E-09  8.68978E-09  8.18457E-09  8.42259E-09  7.70529E-09  7.57343E-09
   7.70619E-09  8.43186E-09  8.69615E-09  9.20340E-09  9.41286E-09  8.78924E-09  8.53057E-09  8.42150E-09  8.07086E-09  7.99458E-09
   8.02699E-09  7.92168E-09  8.14800E-09  7.47419E-09  7.53502E-09  7.69663E-09  7.01395E-09  7.00961E-09  7.08483E-09  6.75372E-09
   7.08474E-09  6.79714E-09  6.87317E-09  6.83269E-09  6.35928E-09  6.06448E-09  6.12512E-09  6.24462E-09  5.74311E-09  6.16751E-09
   6.08873E-09  6.18029E-09  6.99637E-09  7.26629E-09  8.14614E-09  7.86399E-09  7.82785E-09  7.68397E-09  7.20390E-09  6.55058E-09
   6.78796E-09  6.41884E-09  6.02249E-09  6.08505E-09  5.21816E-09  5.25014E-09  5.17595E-09  4.62522E-09  6.32146E-09  7.72309E-09
   9.11823E-09  9.78689E-09  9.55975E-09  9.22226E-09  9.46180E-09  8.94559E-09  9.15004E-09  8.63053E-09  8.39194E-09  8.34345E-09
   8.78644E-09  8.20940E-09  8.38389E-09  7.87630E-09  7.83312E-09  7.81234E-09  7.41017E-09  7.08137E-09  7.42478E-09  6.71268E-09
   6.89550E-09  6.52199E-09  6.72199E-09  6.49712E-09  6.43789E-09  6.28137E-09  6.21268E-09  5.80994E-09  5.47173E-09  5.20160E-09
   4.97153E-09  4.39779E-09  4.68903E-09  4.43109E-09  4.79635E-09  4.27606E-09  4.14298E-09  4.41185E-09  4.50983E-09  4.46283E-09
   4.48295E-09  4.08277E-09  4.37322E-09  3.97628E-09  3.88783E-09  2.89193E-09  3.46660E-09  3.23210E-09  3.39182E-09  3.15132E-09
   3.10573E-09  3.12672E-09  3.31264E-09  3.35123E-09  3.48201E-09  3.20955E-09  3.15097E-09  3.34683E-09  3.56616E-09  3.95979E-09
   5.21934E-09  5.28844E-09  5.94324E-09  6.03648E-09  6.31798E-09  6.85591E-09  7.42320E-09  7.47118E-09  7.82707E-09  7.83592E-09
   7.99445E-09  7.81401E-09  8.08994E-09  7.84968E-09  8.21499E-09  7.99138E-09  8.25254E-09  8.34399E-09  8.59931E-09  8.76635E-09
   8.76102E-09  9.09652E-09  8.89879E-09  8.35816E-09  9.16193E-09  8.84259E-09  9.35873E-09  9.19690E-09  9.86245E-09  9.93046E-09
   1.26138E-08  1.43790E-08  1.56488E-08  1.54324E-08  1.47316E-08  1.43317E-08  1.43897E-08  1.35146E-08  1.36078E-08  1.32528E-08
   1.23707E-08  1.18498E-08  1.12706E-08  1.03054E-08  9.76214E-09  8.36817E-09  6.92602E-09  5.33095E-09  4.30414E-09  2.42903E-09
   9.38285E-10 -1.88604E-09 -4.03691E-09 -6.33604E-09 -8.77191E-09 -1.09357E-08 -1.28478E-08 -1.46003E-08 -1.63245E-08 -1.75737E-08
  -1.76125E-08 -1.79606E-08 -1.77776E-08 -1.72723E-08 -1.57123E-08 -1.40518E-08 -1.20341E-08 -9.86159E-09 -6.78396E-09 -4.80410E-09
  -2.37906E-09 -9.94618E-10  1.28772E-10  9.26001E-10  8.35341E-10  3.53695E-10 -3.88285E-10 -1.17677E-09 -1.59039E-09 -1.99941E-09
  -1.51761E-09 -1.19017E-09 -4.64606E-10  1.30228E-10  6.15563E-13 -1.76486E-10 -7.04778E-10 -1.26159E-09 -1.58681E-09 -1.65906E-09
  -1.55415E-09 -1.76692E-09 -1.18685E-09 -9.40069E-10 -4.66706E-10 -7.61100E-10 -9.28793E-10 -1.54420E-09 -1.93845E-09 -2.42848E-09
  -2.05154E-09 -2.31637E-09 -1.97250E-09 -2.01200E-09 -2.09403E-09 -2.18564E-09 -1.75498E-09 -1.44725E-09 -1.18836E-09 -1.53958E-09
  -1.14547E-09 -1.53650E-09 -1.56446E-09 -2.31253E-09 -2.20273E-09 -2.03856E-09 -1.92101E-09 -2.17391E-09 -1.68250E-09 -1.49305E-09
  -1.18409E-09 -1.21823E-09 -1.06865E-09 -1.01639E-09 -1.05521E-09 -5.50142E-10 -4.44112E-10 -8.06699E-10 -6.02756E-10 -4.29108E-10
  -2.94710E-10 -1.48135E-10 -1.11023E-10 -4.69398E-10  6.46445E-11 -4.43265E-10 -6.24388E-11 -7.61571E-10 -7.92317E-10 -1.27859E-09
  -5.63649E-10 -1.52184E-09 -1.22595E-09 -1.04746E-09 -1.51252E-09 -1.52100E-09 -1.21202E-09 -1.59151E-09 -1.43040E-09 -1.75167E-09
  -1.36483E-09 -1.45039E-09 -1.24742E-09 -1.79631E-09 -1.32493E-09 -1.20505E-09 -1.21630E-09 -1.36899E-09 -1.13990E-09 -1.31467E-09
  -9.65496E-10 -1.07410E-09 -8.12707E-10 -9.64196E-10 -1.04408E-09 -1.35394E-09 -1.12617E-09 -1.07118E-09 -6.98586E-10 -9.95427E-10
  -1.08455E-09 -1.39025E-09 -9.64605E-10 -1.20818E-09 -8.16075E-10 -1.19088E-09 -8.63703E-10 -1.29259E-09 -1.02821E-09 -1.31966E-09
  -9.49144E-10 -1.47698E-09 -9.94891E-10 -1.49372E-09 -1.13549E-09 -1.13416E-09 -8.63007E-10 -1.23631E-09 -1.15281E-09 -1.50322E-09
  -1.12586E-09 -1.59668E-09 -9.11734E-10 -1.54664E-09 -9.78770E-10 -1.40827E-09 -1.52837E-09 -1.91131E-09 -1.26386E-09 -1.52562E-09
  -1.38511E-09 -1.48297E-09 -1.20597E-09 -1.89891E-09 -1.50214E-09 -1.89127E-09 -1.41245E-09 -1.77071E-09 -1.68858E-09 -1.59541E-09
  -1.73618E-09 -1.68512E-09 -1.41246E-09 -1.58745E-09 -1.13760E-09 -1.40529E-09 -1.47020E-09 -1.44359E-09 -1.28715E-09 -1.46082E-09
  -1.08422E-09 -1.63727E-09 -1.27351E-09
 NY points of the fit to the data follow
   8.87290E-09  1.00103E-08  9.99071E-09  9.52095E-09  9.75060E-09  1.00853E-08  9.73301E-09  8.72633E-09  7.67543E-09  7.11838E-09
   6.95234E-09  7.02040E-09  7.25926E-09  7.72704E-09  8.29925E-09  8.70936E-09  8.90443E-09  9.20160E-09  9.37797E-09  8.95678E-09
   8.35153E-09  7.96266E-09  7.75417E-09  7.55272E-09  7.55117E-09  7.82664E-09  8.25451E-09  8.61776E-09  8.66883E-09  8.43393E-09
   8.48166E-09  8.61109E-09  8.76944E-09  8.90105E-09  8.83886E-09  8.51919E-09  8.32730E-09  8.25297E-09  8.24063E-09  8.24308E-09
   8.22196E-09  8.16756E-09  7.98980E-09  7.65316E-09  7.41217E-09  7.26776E-09  7.09461E-09  6.91343E-09  6.76061E-09  6.64689E-09
   6.56098E-09  6.49850E-09  6.45179E-09  6.39323E-09  6.33902E-09  6.33722E-09  6.36470E-09  6.47319E-09  6.66607E-09  6.85502E-09
   6.98975E-09  7.10746E-09  7.25098E-09  7.37534E-09  7.47395E-09  7.58149E-09  7.64967E-09  7.61565E-09  7.47142E-09  7.32512E-09
   7.25056E-09  7.17250E-09  7.03997E-09  6.86730E-09  6.76503E-09  6.61763E-09  6.43832E-09  6.67188E-09  7.18777E-09  7.74148E-09
   8.30233E-09  8.78717E-09  9.17256E-09  9.58598E-09  9.97218E-09  1.01862E-08  1.01941E-08  9.77321E-09  8.89134E-09  8.28590E-09
   7.96689E-09  7.76461E-09  7.63592E-09  7.48316E-09  7.30835E-09  7.19881E-09  7.07101E-09  6.90200E-09  6.77242E-09  6.65615E-09
   6.53407E-09  6.42427E-09  6.32543E-09  6.23481E-09  6.15049E-09  6.07103E-09  5.99542E-09  5.92299E-09  5.85323E-09  5.78566E-09
   5.71997E-09  5.65573E-09  5.59279E-09  5.53091E-09  5.46999E-09  5.40988E-09  5.35049E-09  5.29168E-09  5.23334E-09  5.17547E-09
   5.11788E-09  5.06063E-09  5.00362E-09  4.94684E-09  4.89023E-09  4.83377E-09  4.77743E-09  4.72119E-09  4.66505E-09  4.60897E-09
   4.55297E-09  4.49703E-09  4.44113E-09  4.38531E-09  4.32954E-09  4.27385E-09  4.21823E-09  4.16270E-09  4.10729E-09  4.05200E-09
   3.99689E-09  3.94196E-09  3.88726E-09  3.83286E-09  3.77876E-09  3.72505E-09  3.67182E-09  3.61915E-09  3.56712E-09  3.51591E-09
   3.46567E-09  3.41654E-09  3.36883E-09  3.32284E-09  3.27894E-09  3.23765E-09  3.19970E-09  3.16601E-09  3.13790E-09  3.11732E-09
   3.10713E-09  3.11202E-09  3.13989E-09  3.20567E-09  3.34165E-09  3.63537E-09  4.43677E-09  6.98124E-09  9.92433E-09  1.22964E-08
   1.40230E-08  1.52452E-08  1.60780E-08  1.65556E-08  1.65355E-08  1.55401E-08  1.28736E-08  8.39433E-09  3.76369E-09  2.18459E-09
   1.70020E-09  1.46584E-09  1.31882E-09  1.21053E-09  1.12204E-09  1.04467E-09  9.74003E-10  9.07568E-10  8.43938E-10  7.82234E-10
   7.21891E-10  6.62559E-10  6.03987E-10  5.46026E-10  4.88560E-10  4.31509E-10  3.74836E-10  3.18504E-10  2.62487E-10  2.06784E-10
   1.51383E-10  9.62782E-11  4.14783E-11 -1.30084E-11 -6.71835E-11 -1.21035E-10 -1.74557E-10 -2.27724E-10 -2.80545E-10 -3.33005E-10
  -3.85089E-10 -4.36783E-10 -4.88081E-10 -5.38966E-10 -5.89441E-10 -6.39482E-10 -6.89074E-10 -7.38214E-10 -7.86897E-10 -8.35098E-10
  -8.82808E-10 -9.30019E-10 -9.76722E-10 -1.02291E-09 -1.06857E-09 -1.11368E-09 -1.15825E-09 -1.20225E-09 -1.24568E-09 -1.28852E-09
  -1.33078E-09 -1.37243E-09 -1.41347E-09 -1.45389E-09 -1.49367E-09 -1.53282E-09 -1.57132E-09 -1.60915E-09 -1.64632E-09 -1.68281E-09
  -1.71862E-09 -1.75373E-09 -1.78813E-09 -1.82182E-09 -1.85479E-09 -1.88703E-09 -1.91853E-09 -1.94929E-09 -1.97929E-09 -2.00853E-09
  -2.03699E-09 -2.06468E-09 -2.09159E-09 -2.11770E-09 -2.14301E-09 -2.16751E-09 -2.19120E-09 -2.21406E-09 -2.23610E-09 -2.25730E-09
  -2.27765E-09 -2.29716E-09 -2.31581E-09 -2.33360E-09 -2.35052E-09 -2.36657E-09 -2.38173E-09 -2.39601E-09 -2.40940E-09 -2.42189E-09
  -2.43347E-09 -2.44415E-09 -2.45391E-09 -2.46275E-09 -2.47067E-09 -2.47766E-09 -2.48371E-09 -2.48883E-09 -2.49300E-09 -2.49622E-09
  -2.49850E-09 -2.49982E-09 -2.50018E-09 -2.49957E-09 -2.49800E-09 -2.49545E-09 -2.49194E-09 -2.48744E-09 -2.48196E-09 -2.47550E-09
  -2.46806E-09 -2.45962E-09 -2.45019E-09 -2.43976E-09 -2.42834E-09 -2.41592E-09 -2.40250E-09 -2.38808E-09 -2.37264E-09 -2.35621E-09
  -2.33876E-09 -2.32031E-09 -2.30084E-09 -2.28036E-09 -2.25887E-09 -2.23637E-09 -2.21285E-09 -2.18831E-09 -2.16276E-09 -2.13620E-09
  -2.10861E-09 -2.08002E-09 -2.05040E-09 -2.01978E-09 -1.98813E-09 -1.95548E-09 -1.92181E-09 -1.88713E-09 -1.85143E-09 -1.81473E-09
  -1.77702E-09 -1.73829E-09 -1.69857E-09 -1.65784E-09 -1.61611E-09 -1.57338E-09 -1.52965E-09 -1.48492E-09 -1.43920E-09 -1.39250E-09
  -1.34480E-09 -1.29612E-09 -1.24646E-09 -1.19582E-09 -1.14421E-09 -1.09162E-09 -1.03807E-09 -9.83554E-10 -9.28078E-10 -8.71646E-10
  -8.14262E-10 -7.55931E-10 -6.96657E-10 -6.36445E-10 -5.75300E-10 -5.13226E-10 -4.50230E-10 -3.86315E-10 -3.21487E-10 -2.55752E-10
  -1.89116E-10 -1.21583E-10 -5.31608E-11  1.61457E-11  8.63296E-11  1.57385E-10  2.29305E-10  3.02083E-10  3.75714E-10  4.50189E-10
   5.25501E-10  6.01645E-10  6.78611E-10
 NY background values follow
     1.232E-09    1.320E-09    1.406E-09    1.492E-09    1.576E-09    1.659E-09    1.742E-09    1.823E-09    1.903E-09    1.982E-09
     2.061E-09    2.138E-09    2.214E-09    2.289E-09    2.363E-09    2.436E-09    2.507E-09    2.578E-09    2.648E-09    2.716E-09
     2.784E-09    2.850E-09    2.916E-09    2.980E-09    3.043E-09    3.105E-09    3.166E-09    3.226E-09    3.284E-09    3.342E-09
     3.399E-09    3.454E-09    3.508E-09    3.562E-09    3.614E-09    3.665E-09    3.714E-09    3.763E-09    3.811E-09    3.857E-09
     3.903E-09    3.947E-09    3.990E-09    4.032E-09    4.073E-09    4.113E-09    4.152E-09    4.189E-09    4.226E-09    4.261E-09
     4.296E-09    4.329E-09    4.361E-09    4.392E-09    4.422E-09    4.451E-09    4.478E-09    4.505E-09    4.530E-09    4.555E-09
     4.578E-09    4.600E-09    4.622E-09    4.642E-09    4.661E-09    4.679E-09    4.696E-09    4.711E-09    4.726E-09    4.740E-09
     4.753E-09    4.764E-09    4.775E-09    4.784E-09    4.793E-09    4.800E-09    4.807E-09    4.812E-09    4.817E-09    4.820E-09
     4.823E-09    4.824E-09    4.824E-09    4.824E-09    4.822E-09    4.820E-09    4.817E-09    4.812E-09    4.807E-09    4.801E-09
     4.793E-09    4.785E-09    4.776E-09    4.766E-09    4.755E-09    4.743E-09    4.731E-09    4.717E-09    4.703E-09    4.687E-09
     4.671E-09    4.654E-09    4.636E-09    4.617E-09    4.598E-09    4.577E-09    4.556E-09    4.534E-09    4.511E-09    4.488E-09
     4.463E-09    4.438E-09    4.412E-09    4.386E-09    4.358E-09    4.330E-09    4.301E-09    4.272E-09    4.241E-09    4.210E-09
     4.179E-09    4.146E-09    4.113E-09    4.080E-09    4.045E-09    4.010E-09    3.975E-09    3.938E-09    3.902E-09    3.864E-09
     3.826E-09    3.788E-09    3.749E-09    3.709E-09    3.669E-09    3.628E-09    3.587E-09    3.545E-09    3.503E-09    3.460E-09
     3.417E-09    3.373E-09    3.329E-09    3.284E-09    3.239E-09    3.194E-09    3.148E-09    3.102E-09    3.055E-09    3.008E-09
     2.961E-09    2.913E-09    2.865E-09    2.817E-09    2.768E-09    2.719E-09    2.670E-09    2.620E-09    2.570E-09    2.520E-09
     2.470E-09    2.419E-09    2.369E-09    2.318E-09    2.266E-09    2.215E-09    2.164E-09    2.112E-09    2.060E-09    2.008E-09
     1.956E-09    1.904E-09    1.851E-09    1.799E-09    1.746E-09    1.694E-09    1.641E-09    1.589E-09    1.536E-09    1.483E-09
     1.431E-09    1.378E-09    1.325E-09    1.273E-09    1.220E-09    1.168E-09    1.115E-09    1.063E-09    1.011E-09    9.584E-10
     9.064E-10    8.544E-10    8.027E-10    7.510E-10    6.996E-10    6.483E-10    5.972E-10    5.463E-10    4.956E-10    4.452E-10
     3.949E-10    3.449E-10    2.952E-10    2.458E-10    1.966E-10    1.477E-10    9.912E-11    5.086E-11    2.914E-12   -4.469E-11
    -9.195E-11   -1.389E-10   -1.854E-10   -2.315E-10   -2.773E-10   -3.226E-10   -3.676E-10   -4.121E-10   -4.562E-10   -4.998E-10
    -5.430E-10   -5.857E-10   -6.279E-10   -6.697E-10   -7.109E-10   -7.517E-10   -7.919E-10   -8.316E-10   -8.707E-10   -9.094E-10
    -9.474E-10   -9.849E-10   -1.022E-09   -1.058E-09   -1.094E-09   -1.129E-09   -1.163E-09   -1.197E-09   -1.231E-09   -1.263E-09
    -1.295E-09   -1.327E-09   -1.357E-09   -1.387E-09   -1.416E-09   -1.445E-09   -1.473E-09   -1.500E-09   -1.526E-09   -1.552E-09
    -1.577E-09   -1.601E-09   -1.625E-09   -1.648E-09   -1.670E-09   -1.691E-09   -1.711E-09   -1.731E-09   -1.750E-09   -1.768E-09
    -1.785E-09   -1.801E-09   -1.817E-09   -1.832E-09   -1.846E-09   -1.859E-09   -1.871E-09   -1.882E-09   -1.893E-09   -1.903E-09
    -1.911E-09   -1.919E-09   -1.926E-09   -1.933E-09   -1.938E-09   -1.942E-09   -1.946E-09   -1.948E-09   -1.950E-09   -1.951E-09
    -1.950E-09   -1.949E-09   -1.947E-09   -1.944E-09   -1.941E-09   -1.936E-09   -1.930E-09   -1.923E-09   -1.916E-09   -1.907E-09
    -1.897E-09   -1.887E-09   -1.875E-09   -1.863E-09   -1.849E-09   -1.835E-09   -1.820E-09   -1.803E-09   -1.786E-09   -1.768E-09
    -1.749E-09   -1.728E-09   -1.707E-09   -1.685E-09   -1.662E-09   -1.638E-09   -1.612E-09   -1.586E-09   -1.559E-09   -1.531E-09
    -1.502E-09   -1.472E-09   -1.441E-09   -1.409E-09   -1.376E-09   -1.342E-09   -1.307E-09   -1.271E-09   -1.234E-09   -1.196E-09
    -1.157E-09   -1.117E-09   -1.076E-09   -1.034E-09   -9.913E-10   -9.475E-10   -9.027E-10   -8.569E-10   -8.102E-10   -7.625E-10
    -7.139E-10   -6.643E-10   -6.137E-10   -5.622E-10   -5.098E-10   -4.564E-10   -4.020E-10   -3.468E-10   -2.906E-10   -2.334E-10
    -1.754E-10   -1.164E-10   -5.648E-11    4.332E-12    6.605E-11    1.287E-10    1.922E-10    2.566E-10    3.219E-10    3.881E-10
     4.551E-10    5.231E-10    5.918E-10    6.615E-10    7.320E-10    8.033E-10    8.755E-10    9.485E-10    1.022E-09    1.097E-09
     1.173E-09    1.249E-09    1.326E-09
 GABA     Conc. = 4.15E-10
   1.02780E-09  1.11157E-09  1.19417E-09  1.27558E-09  1.35578E-09  1.43475E-09  1.51246E-09  1.58889E-09  1.66401E-09  1.73778E-09
   1.81016E-09  1.88111E-09  1.95061E-09  2.01857E-09  2.08496E-09  2.14971E-09  2.21273E-09  2.27390E-09  2.33314E-09  2.39028E-09
   2.44513E-09  2.49750E-09  2.54709E-09  2.59356E-09  2.63648E-09  2.67526E-09  2.70925E-09  2.73799E-09  2.76338E-09  2.81269E-09
   2.88964E-09  2.95018E-09  3.04421E-09  3.20489E-09  3.37598E-09  3.55727E-09  3.76652E-09  3.98599E-09  4.18703E-09  4.34504E-09
   4.45909E-09  4.57282E-09  4.64536E-09  4.59915E-09  4.56058E-09  4.56459E-09  4.51965E-09  4.46340E-09  4.43053E-09  4.41197E-09
   4.40218E-09  4.39793E-09  4.39711E-09  4.39839E-09  4.40078E-09  4.40345E-09  4.40581E-09  4.40740E-09  4.40793E-09  4.40779E-09
   4.40906E-09  4.42506E-09  4.49233E-09  4.56137E-09  4.62725E-09  4.76673E-09  4.92818E-09  5.07134E-09  5.22075E-09  5.36803E-09
   5.48812E-09  5.55467E-09  5.55848E-09  5.53278E-09  5.52081E-09  5.41392E-09  5.26010E-09  5.20744E-09  5.14884E-09  5.06200E-09
   5.02140E-09  4.99077E-09  4.95894E-09  4.97766E-09  5.01392E-09  5.03821E-09  5.09081E-09  5.16383E-09  5.23614E-09  5.30420E-09
   5.35078E-09  5.39245E-09  5.44485E-09  5.43554E-09  5.37951E-09  5.37098E-09  5.33090E-09  5.23943E-09  5.17924E-09  5.12571E-09
   5.06097E-09  5.00402E-09  4.95418E-09  4.90922E-09  4.86762E-09  4.82830E-09  4.79057E-09  4.75401E-09  4.71830E-09  4.68316E-09
   4.64839E-09  4.61372E-09  4.57909E-09  4.54436E-09  4.50952E-09  4.47451E-09  4.43927E-09  4.40374E-09  4.36787E-09  4.33169E-09
   4.29506E-09  4.25807E-09  4.22066E-09  4.18284E-09  4.14458E-09  4.10589E-09  4.06674E-09  4.02715E-09  3.98713E-09  3.94665E-09
   3.90572E-09  3.86435E-09  3.82254E-09  3.78030E-09  3.73762E-09  3.69452E-09  3.65099E-09  3.60705E-09  3.56272E-09  3.51797E-09
   3.47285E-09  3.42734E-09  3.38146E-09  3.33525E-09  3.28866E-09  3.24172E-09  3.19447E-09  3.14692E-09  3.09906E-09  3.05093E-09
   3.00255E-09  2.95391E-09  2.90505E-09  2.85602E-09  2.80681E-09  2.75747E-09  2.70809E-09  2.65868E-09  2.60935E-09  2.56023E-09
   2.51148E-09  2.46342E-09  2.41652E-09  2.37178E-09  2.33134E-09  2.30150E-09  2.31016E-09  2.42724E-09  2.54971E-09  2.63284E-09
   2.67928E-09  2.69791E-09  2.69488E-09  2.67092E-09  2.61486E-09  2.49468E-09  2.26952E-09  1.94303E-09  1.63671E-09  1.52275E-09
   1.44934E-09  1.38681E-09  1.32853E-09  1.27228E-09  1.21716E-09  1.16273E-09  1.10877E-09  1.05515E-09  1.00181E-09  9.48699E-10
   8.95795E-10  8.43096E-10  7.90587E-10  7.38280E-10  6.86171E-10  6.34258E-10  5.82563E-10  5.31088E-10  4.79838E-10  4.28831E-10
   3.78073E-10  3.27566E-10  2.77329E-10  2.27376E-10  1.77708E-10  1.28341E-10  7.92819E-11  3.05570E-11 -1.78426E-11 -6.59005E-11
  -1.13604E-10 -1.60936E-10 -2.07892E-10 -2.54458E-10 -3.00634E-10 -3.46400E-10 -3.91739E-10 -4.36650E-10 -4.81128E-10 -5.25149E-10
  -5.68706E-10 -6.11790E-10 -6.54392E-10 -6.96506E-10 -7.38123E-10 -7.79213E-10 -8.19791E-10 -8.59838E-10 -8.99334E-10 -9.38280E-10
  -9.76665E-10 -1.01448E-09 -1.05171E-09 -1.08835E-09 -1.12439E-09 -1.15982E-09 -1.19463E-09 -1.22881E-09 -1.26236E-09 -1.29526E-09
  -1.32751E-09 -1.35909E-09 -1.39000E-09 -1.42023E-09 -1.44977E-09 -1.47862E-09 -1.50675E-09 -1.53418E-09 -1.56088E-09 -1.58685E-09
  -1.61208E-09 -1.63656E-09 -1.66030E-09 -1.68327E-09 -1.70547E-09 -1.72690E-09 -1.74754E-09 -1.76740E-09 -1.78645E-09 -1.80471E-09
  -1.82215E-09 -1.83877E-09 -1.85457E-09 -1.86954E-09 -1.88367E-09 -1.89696E-09 -1.90940E-09 -1.92098E-09 -1.93170E-09 -1.94156E-09
  -1.95054E-09 -1.95865E-09 -1.96587E-09 -1.97220E-09 -1.97764E-09 -1.98218E-09 -1.98582E-09 -1.98855E-09 -1.99036E-09 -1.99126E-09
  -1.99124E-09 -1.99029E-09 -1.98841E-09 -1.98560E-09 -1.98185E-09 -1.97716E-09 -1.97152E-09 -1.96494E-09 -1.95740E-09 -1.94891E-09
  -1.93946E-09 -1.92905E-09 -1.91768E-09 -1.90534E-09 -1.89203E-09 -1.87776E-09 -1.86250E-09 -1.84628E-09 -1.82907E-09 -1.81089E-09
  -1.79173E-09 -1.77159E-09 -1.75046E-09 -1.72835E-09 -1.70526E-09 -1.68117E-09 -1.65611E-09 -1.63005E-09 -1.60300E-09 -1.57497E-09
  -1.54595E-09 -1.51594E-09 -1.48494E-09 -1.45295E-09 -1.41998E-09 -1.38602E-09 -1.35107E-09 -1.31513E-09 -1.27821E-09 -1.24031E-09
  -1.20142E-09 -1.16156E-09 -1.12071E-09 -1.07888E-09 -1.03608E-09 -9.92309E-10 -9.47562E-10 -9.01845E-10 -8.55161E-10 -8.07513E-10
  -7.58902E-10 -7.09333E-10 -6.58807E-10 -6.07328E-10 -5.54899E-10 -5.01524E-10 -4.47207E-10 -3.91950E-10 -3.35758E-10 -2.78635E-10
  -2.20586E-10 -1.61613E-10 -1.01722E-10 -4.09175E-11  2.07961E-11  8.34137E-11  1.46930E-10  2.11341E-10  2.76641E-10  3.42823E-10
   4.09884E-10  4.77816E-10  5.46615E-10  6.16274E-10  6.86787E-10  7.58148E-10  8.30350E-10  9.03387E-10  9.77253E-10  1.05194E-09
   1.12744E-09  1.20375E-09  1.28086E-09
 Glc      Conc. = 1.19E-10
   1.05989E-09  1.18261E-09  1.30490E-09  1.43405E-09  1.56313E-09  1.68974E-09  1.80184E-09  1.90228E-09  1.98233E-09  2.03747E-09
   2.09043E-09  2.14420E-09  2.19784E-09  2.26062E-09  2.34412E-09  2.44503E-09  2.55742E-09  2.68012E-09  2.80308E-09  2.92311E-09
   3.04677E-09  3.16857E-09  3.27950E-09  3.37502E-09  3.43772E-09  3.46437E-09  3.48707E-09  3.52112E-09  3.56633E-09  3.61790E-09
   3.66667E-09  3.71236E-09  3.76022E-09  3.80484E-09  3.84234E-09  3.88055E-09  3.91999E-09  3.95582E-09  3.98965E-09  4.02456E-09
   4.06018E-09  4.09596E-09  4.13163E-09  4.16699E-09  4.20188E-09  4.23623E-09  4.26993E-09  4.30291E-09  4.33515E-09  4.36659E-09
   4.39719E-09  4.42691E-09  4.45575E-09  4.48369E-09  4.51070E-09  4.53676E-09  4.56187E-09  4.58603E-09  4.60921E-09  4.63144E-09
   4.65268E-09  4.67292E-09  4.69217E-09  4.71043E-09  4.72769E-09  4.74396E-09  4.75923E-09  4.77350E-09  4.78677E-09  4.79904E-09
   4.81031E-09  4.82059E-09  4.82988E-09  4.83817E-09  4.84548E-09  4.85180E-09  4.85712E-09  4.86149E-09  4.86485E-09  4.86726E-09
   4.86869E-09  4.86916E-09  4.86866E-09  4.86721E-09  4.86482E-09  4.86146E-09  4.85718E-09  4.85195E-09  4.84580E-09  4.83872E-09
   4.83072E-09  4.82182E-09  4.81201E-09  4.80129E-09  4.78969E-09  4.77720E-09  4.76383E-09  4.74958E-09  4.73447E-09  4.71852E-09
   4.70170E-09  4.68404E-09  4.66555E-09  4.64622E-09  4.62608E-09  4.60513E-09  4.58336E-09  4.56081E-09  4.53749E-09  4.51336E-09
   4.48849E-09  4.46283E-09  4.43644E-09  4.40928E-09  4.38140E-09  4.35280E-09  4.32348E-09  4.29346E-09  4.26274E-09  4.23137E-09
   4.19926E-09  4.16650E-09  4.13309E-09  4.09903E-09  4.06432E-09  4.02900E-09  3.99305E-09  3.95649E-09  3.91934E-09  3.88159E-09
   3.84327E-09  3.80439E-09  3.76495E-09  3.72497E-09  3.68445E-09  3.64341E-09  3.60185E-09  3.55979E-09  3.51725E-09  3.47422E-09
   3.43074E-09  3.38679E-09  3.34240E-09  3.29760E-09  3.25236E-09  3.20670E-09  3.16066E-09  3.11424E-09  3.06744E-09  3.02029E-09
   2.97281E-09  2.92499E-09  2.87685E-09  2.82844E-09  2.77974E-09  2.73076E-09  2.68158E-09  2.63218E-09  2.58259E-09  2.53289E-09
   2.48310E-09  2.43335E-09  2.38377E-09  2.33466E-09  2.28663E-09  2.24152E-09  2.20739E-09  2.20421E-09  2.20240E-09  2.18919E-09
   2.16537E-09  2.13351E-09  2.09537E-09  2.05115E-09  1.99766E-09  1.92570E-09  1.82355E-09  1.69237E-09  1.56715E-09  1.49704E-09
   1.43848E-09  1.38301E-09  1.32876E-09  1.27513E-09  1.22185E-09  1.16880E-09  1.11594E-09  1.06323E-09  1.01067E-09  9.58248E-10
   9.05961E-10  8.53829E-10  8.01846E-10  7.50033E-10  6.98392E-10  6.46927E-10  5.95661E-10  5.44600E-10  4.93751E-10  4.43132E-10
   3.92752E-10  3.42614E-10  2.92736E-10  2.43134E-10  1.93810E-10  1.44779E-10  9.60498E-11  4.76481E-11 -4.34600E-13 -4.81816E-11
  -9.55795E-11 -1.42612E-10 -1.89275E-10 -2.35551E-10 -2.81443E-10 -3.26930E-10 -3.71995E-10 -4.16638E-10 -4.60851E-10 -5.04612E-10
  -5.47913E-10 -5.90746E-10 -6.33101E-10 -6.74973E-10 -7.16352E-10 -7.57207E-10 -7.97554E-10 -8.37375E-10 -8.76648E-10 -9.15375E-10
