 LCModel (Version 6.3-1R) Copyright: S.W. Provencher.          Ref.: Magn. Reson. Med. 30:672-679 (1993).                
 onepulse 13x27_ftSpec_smooth_lcm
 26 lines in following concentration table = NCONC+1
    Conc.  %SD   /Cr    Metabolite                                         
    0.000 999%   0.000 Ala                                                 
    0.000 999%   0.000 Asp                                                 
    0.000 999%   0.000 Cr                                                  
    0.000 999%   0.000 GABA                                                
    0.000 999%   0.000 Glc                                                 
    0.000 999%   0.000 Gln                                                 
    0.000 999%   0.000 Glu                                                 
    0.000 999%   0.000 Glyc                                                
    0.000 999%   0.000 GPC                                                 
    0.000 999%   0.000 GSH                                                 
    0.000 999%   0.000 Ins                                                 
    0.000 999%   0.000 Lac                                                 
    0.000 999%   0.000 NAAG                                                
    0.000 999%   0.000 NAA                                                 
    0.000 999%   0.000 PCh                                                 
    0.000 999%   0.000 PCr                                                 
    0.000 999%   0.000 PE                                                  
    0.000 999%   0.000 Scyllo                                              
    0.000 999%   0.000 Ser                                                 
    0.000 999%   0.000 Tau                                                 
    0.000 999%   0.000 GPC+PCh                                             
    0.000 999%   0.000 NAA+NAAG                                            
    0.000 999%   0.000 Ins+Glyc                                            
    0.000 999%   0.000 Cr+PCr                                              
    0.000 999%   0.000 Glu+Gln                                             
   6 lines in following misc. output table
  FWHM = 0.078 ppm    S/N =   0                                            
  Data shift = 0.168 ppm                                                   
  Ph:-112 deg      27.1 deg/ppm                                            
  alphaB,S = 9.1E-01,   4.0E-01                                            
    8 spline knots.   Ns = 5(1)                                            
   2 inflections.     1 extrema                                            
  363 points on ppm-axis = NY
      4.250000     4.238821     4.227641     4.216462     4.205282     4.194103     4.182923     4.171744     4.160564     4.149385
      4.138206     4.127026     4.115847     4.104667     4.093488     4.082308     4.071129     4.059949     4.048770     4.037591
      4.026411     4.015232     4.004052     3.992873     3.981693     3.970514     3.959334     3.948155     3.936975     3.925796
      3.914617     3.903437     3.892258     3.881078     3.869899     3.858719     3.847540     3.836360     3.825181     3.814002
      3.802822     3.791643     3.780463     3.769284     3.758104     3.746925     3.735745     3.724566     3.713387     3.702207
      3.691028     3.679848     3.668669     3.657489     3.646310     3.635130     3.623951     3.612772     3.601592     3.590413
      3.579233     3.568054     3.556874     3.545695     3.534515     3.523336     3.512156     3.500977     3.489798     3.478618
      3.467439     3.456259     3.445080     3.433900     3.422721     3.411541     3.400362     3.389183     3.378003     3.366824
      3.355644     3.344465     3.333285     3.322106     3.310926     3.299747     3.288568     3.277388     3.266209     3.255029
      3.243850     3.232670     3.221491     3.210311     3.199132     3.187953     3.176773     3.165594     3.154414     3.143235
      3.132055     3.120876     3.109696     3.098517     3.087337     3.076158     3.064979     3.053799     3.042620     3.031440
      3.020261     3.009081     2.997902     2.986722     2.975543     2.964364     2.953184     2.942005     2.930825     2.919646
      2.908466     2.897287     2.886107     2.874928     2.863749     2.852569     2.841390     2.830210     2.819031     2.807851
      2.796672     2.785492     2.774313     2.763134     2.751954     2.740775     2.729595     2.718416     2.707236     2.696057
      2.684877     2.673698     2.662519     2.651339     2.640160     2.628980     2.617801     2.606621     2.595442     2.584262
      2.573083     2.561903     2.550724     2.539545     2.528365     2.517186     2.506006     2.494827     2.483647     2.472468
      2.461288     2.450109     2.438930     2.427750     2.416571     2.405391     2.394212     2.383032     2.371853     2.360673
      2.349494     2.338315     2.327135     2.315956     2.304776     2.293597     2.282417     2.271238     2.260058     2.248879
      2.237700     2.226520     2.215341     2.204161     2.192982     2.181802     2.170623     2.159443     2.148264     2.137084
      2.125905     2.114726     2.103546     2.092367     2.081187     2.070008     2.058828     2.047649     2.036469     2.025290
      2.014111     2.002931     1.991752     1.980572     1.969393     1.958213     1.947034     1.935854     1.924675     1.913496
      1.902316     1.891137     1.879957     1.868778     1.857598     1.846419     1.835239     1.824060     1.812881     1.801701
      1.790522     1.779342     1.768163     1.756983     1.745804     1.734624     1.723445     1.712265     1.701086     1.689907
      1.678727     1.667548     1.656368     1.645189     1.634009     1.622830     1.611650     1.600471     1.589292     1.578112
      1.566933     1.555753     1.544574     1.533394     1.522215     1.511035     1.499856     1.488677     1.477497     1.466318
      1.455138     1.443959     1.432779     1.421600     1.410420     1.399241     1.388062     1.376882     1.365703     1.354523
      1.343344     1.332164     1.320985     1.309805     1.298626     1.287446     1.276267     1.265088     1.253908     1.242729
      1.231549     1.220370     1.209190     1.198011     1.186831     1.175652     1.164473     1.153293     1.142114     1.130934
      1.119755     1.108575     1.097396     1.086216     1.075037     1.063858     1.052678     1.041499     1.030319     1.019140
      1.007960     0.996781     0.985601     0.974422     0.963243     0.952063     0.940884     0.929704     0.918525     0.907345
      0.896166     0.884986     0.873807     0.862628     0.851448     0.840269     0.829089     0.817910     0.806730     0.795551
      0.784371     0.773192     0.762012     0.750833     0.739654     0.728474     0.717295     0.706115     0.694936     0.683756
      0.672577     0.661397     0.650218     0.639039     0.627859     0.616680     0.605500     0.594321     0.583141     0.571962
      0.560782     0.549603     0.538424     0.527244     0.516065     0.504885     0.493706     0.482526     0.471347     0.460167
      0.448988     0.437809     0.426629     0.415450     0.404270     0.393091     0.381911     0.370732     0.359552     0.348373
      0.337193     0.326014     0.314835     0.303655     0.292476     0.281296     0.270117     0.258937     0.247758     0.236578
      0.225399     0.214220     0.203040
 NY phased data points follow
  -1.03700E-08 -7.37553E-09 -1.01828E-08 -7.89037E-09 -1.11000E-08 -8.70284E-09 -1.03101E-08 -7.76943E-09 -1.00713E-08 -7.56068E-09
  -9.17584E-09 -6.88652E-09 -8.75433E-09 -6.98495E-09 -9.44505E-09 -8.70502E-09 -1.29521E-08 -1.25037E-08 -1.46508E-08 -1.23163E-08
  -1.39843E-08 -1.15207E-08 -1.26931E-08 -1.07212E-08 -1.19430E-08 -1.02511E-08 -1.21691E-08 -1.02347E-08 -1.20018E-08 -1.03509E-08
  -1.25349E-08 -1.10587E-08 -1.30555E-08 -1.15752E-08 -1.25695E-08 -1.10348E-08 -1.22951E-08 -1.09538E-08 -1.24163E-08 -1.02094E-08
  -1.17117E-08 -1.06980E-08 -1.25682E-08 -1.08763E-08 -1.21527E-08 -1.00931E-08 -1.10595E-08 -1.02699E-08 -1.23166E-08 -1.16261E-08
  -1.34309E-08 -1.23285E-08 -1.23489E-08 -1.09097E-08 -1.17117E-08 -1.01319E-08 -1.12483E-08 -9.96961E-09 -1.10408E-08 -9.90981E-09
  -1.01269E-08 -9.28054E-09 -1.02684E-08 -8.45476E-09 -9.66656E-09 -8.24342E-09 -9.07837E-09 -8.42634E-09 -9.26719E-09 -8.27818E-09
  -9.03724E-09 -7.37795E-09 -8.15816E-09 -7.37214E-09 -8.44274E-09 -7.09328E-09 -8.88650E-09 -7.49828E-09 -8.97031E-09 -8.94338E-09
  -1.04242E-08 -1.01289E-08 -1.08095E-08 -9.51258E-09 -9.95571E-09 -8.05454E-09 -8.60718E-09 -7.64464E-09 -8.10782E-09 -6.85799E-09
  -7.82217E-09 -5.88463E-09 -7.28669E-09 -6.02862E-09 -7.45595E-09 -9.05939E-09 -1.17400E-08 -1.24700E-08 -1.35639E-08 -1.15455E-08
  -1.21670E-08 -1.08730E-08 -1.09679E-08 -9.84824E-09 -1.00908E-08 -8.80227E-09 -9.94508E-09 -8.99525E-09 -9.03262E-09 -8.01492E-09
  -8.10643E-09 -7.37405E-09 -7.89345E-09 -6.41037E-09 -7.33453E-09 -6.21709E-09 -6.48578E-09 -5.71374E-09 -6.22033E-09 -5.48772E-09
  -6.15225E-09 -4.96818E-09 -5.62083E-09 -4.55617E-09 -4.76874E-09 -3.45208E-09 -4.14500E-09 -2.67808E-09 -3.42382E-09 -2.72234E-09
  -3.66503E-09 -3.07791E-09 -3.27325E-09 -2.66616E-09 -3.98641E-09 -2.79975E-09 -3.80203E-09 -2.72934E-09 -3.64170E-09 -2.58442E-09
  -3.12153E-09 -1.55009E-09 -2.17581E-09 -1.99531E-09 -2.59966E-09 -2.30136E-09 -2.78107E-09 -2.23004E-09 -3.21802E-09 -2.80412E-09
  -3.49497E-09 -2.82455E-09 -3.63101E-09 -3.07777E-09 -4.43399E-09 -4.07376E-09 -5.88397E-09 -6.19649E-09 -6.96873E-09 -6.60204E-09
  -7.37554E-09 -6.86305E-09 -8.29033E-09 -7.45693E-09 -8.07149E-09 -7.30842E-09 -8.01141E-09 -6.83909E-09 -7.27522E-09 -6.53878E-09
  -7.04117E-09 -6.31305E-09 -6.68471E-09 -6.37003E-09 -6.93033E-09 -6.19649E-09 -6.82075E-09 -5.90368E-09 -6.85915E-09 -5.03445E-09
  -6.18716E-09 -5.74215E-09 -6.39537E-09 -5.88940E-09 -6.92475E-09 -6.68109E-09 -8.66962E-09 -1.05814E-08 -1.14857E-08 -9.71723E-09
  -7.74032E-09 -5.15548E-09 -4.59116E-09 -2.37630E-09 -1.47911E-09 -3.22068E-10  7.13848E-10  3.05295E-09  3.42885E-09  5.83196E-09
   6.49006E-09  8.83436E-09  1.03226E-08  1.29689E-08  1.38063E-08  1.60754E-08  1.73307E-08  2.02057E-08  2.20763E-08  2.40359E-08
   2.50545E-08  2.68633E-08  2.68023E-08  2.77395E-08  2.72374E-08  2.73891E-08  2.51916E-08  2.38851E-08  2.12527E-08  1.92688E-08
   1.56522E-08  1.25943E-08  8.65066E-09  5.98600E-09  2.05932E-09 -1.79693E-10 -2.20309E-09 -2.99218E-09 -3.30605E-09 -2.85876E-09
  -2.47005E-09 -5.58991E-10 -2.71457E-10  1.46913E-09  9.64775E-10  2.24177E-09  1.22046E-09  1.23728E-09  4.24480E-10  7.40368E-10
   4.56855E-10  1.60745E-09  1.26328E-09  2.39578E-09  1.53417E-09  2.42454E-09  1.18018E-09  2.18563E-09  1.33809E-09  1.73210E-09
   9.76660E-10  1.71166E-09  1.21349E-09  1.99679E-09  1.32456E-09  2.13100E-09  1.27297E-09  1.91559E-09  1.47839E-09  1.75916E-09
   1.36747E-09  1.87462E-09  7.21111E-10  1.08173E-09 -7.45757E-11  9.95789E-10  2.17349E-11  7.32778E-10  4.20632E-10  1.43599E-09
   9.72317E-10  1.18732E-09  4.57725E-10  1.27453E-09  3.03908E-10  8.46711E-10  9.93135E-11  4.99837E-10  1.43222E-10  4.67838E-10
  -1.68531E-10  1.06977E-10 -9.87685E-10  1.96213E-10 -8.03564E-10 -2.83532E-10 -1.14189E-09 -2.23473E-10 -1.14273E-09  1.48024E-10
  -9.95603E-10  1.71887E-10 -6.13403E-10  5.78434E-10  3.45765E-10  1.08576E-09  9.33345E-12  7.11675E-10  5.66743E-10  5.79516E-10
   3.83167E-10  9.61726E-10 -2.05622E-10  9.72570E-10  1.54719E-10  9.96127E-10  7.62258E-11  4.33519E-10 -3.43306E-10  6.81165E-10
  -2.05372E-10  3.90628E-11 -3.08629E-10  3.51815E-10 -3.33019E-10  9.15152E-11 -7.17995E-10 -9.87979E-11 -9.67412E-10 -7.79960E-11
  -8.16485E-10  1.51411E-10 -8.23628E-10 -1.83944E-10 -1.50709E-09 -3.66614E-10 -1.04279E-09 -1.48015E-10 -1.28320E-09 -6.10672E-10
  -1.48532E-09 -6.96011E-10 -1.34589E-09 -5.45572E-10 -1.44370E-09 -6.60231E-10 -1.71439E-09 -5.92015E-10 -1.63324E-09 -8.32490E-10
  -1.66941E-09 -1.21905E-09 -1.85120E-09 -8.57651E-10 -1.65207E-09 -8.40550E-10 -1.93158E-09 -1.08789E-09 -2.13537E-09 -1.24466E-09
  -1.76182E-09 -1.38608E-09 -1.43391E-09 -1.09093E-09 -2.23740E-09 -1.60417E-09 -1.96569E-09 -1.56565E-09 -2.30238E-09 -1.40688E-09
  -2.08744E-09 -1.59190E-09 -2.29786E-09
 NY points of the fit to the data follow
  -1.15013E-08 -1.14833E-08 -1.14652E-08 -1.14470E-08 -1.14285E-08 -1.14099E-08 -1.13912E-08 -1.13722E-08 -1.13530E-08 -1.13336E-08
  -1.13141E-08 -1.12943E-08 -1.12743E-08 -1.12540E-08 -1.12336E-08 -1.12128E-08 -1.11918E-08 -1.11706E-08 -1.11491E-08 -1.11273E-08
  -1.11053E-08 -1.10829E-08 -1.10603E-08 -1.10373E-08 -1.10141E-08 -1.09905E-08 -1.09666E-08 -1.09424E-08 -1.09178E-08 -1.08929E-08
  -1.08676E-08 -1.08420E-08 -1.08160E-08 -1.07896E-08 -1.07629E-08 -1.07357E-08 -1.07082E-08 -1.06802E-08 -1.06519E-08 -1.06231E-08
  -1.05939E-08 -1.05642E-08 -1.05342E-08 -1.05036E-08 -1.04726E-08 -1.04412E-08 -1.04093E-08 -1.03769E-08 -1.03440E-08 -1.03106E-08
  -1.02768E-08 -1.02424E-08 -1.02075E-08 -1.01721E-08 -1.01362E-08 -1.00997E-08 -1.00627E-08 -1.00252E-08 -9.98701E-09 -9.94833E-09
  -9.90909E-09 -9.86924E-09 -9.82883E-09 -9.78781E-09 -9.74622E-09 -9.70400E-09 -9.66117E-09 -9.61770E-09 -9.57361E-09 -9.52890E-09
  -9.48352E-09 -9.43749E-09 -9.39084E-09 -9.34348E-09 -9.29547E-09 -9.24678E-09 -9.19741E-09 -9.14736E-09 -9.09662E-09 -9.04518E-09
  -8.99304E-09 -8.94020E-09 -8.88664E-09 -8.83237E-09 -8.77739E-09 -8.72167E-09 -8.66523E-09 -8.60806E-09 -8.55015E-09 -8.49150E-09
  -8.43209E-09 -8.37194E-09 -8.31101E-09 -8.24936E-09 -8.18692E-09 -8.12370E-09 -8.05971E-09 -7.99494E-09 -7.92938E-09 -7.86304E-09
  -7.79589E-09 -7.72795E-09 -7.65920E-09 -7.58965E-09 -7.51927E-09 -7.44808E-09 -7.37606E-09 -7.30323E-09 -7.22956E-09 -7.15502E-09
  -7.07969E-09 -7.00347E-09 -6.92641E-09 -6.84848E-09 -6.76969E-09 -6.69004E-09 -6.60952E-09 -6.52813E-09 -6.44583E-09 -6.36269E-09
  -6.27861E-09 -6.19367E-09 -6.10781E-09 -6.02106E-09 -5.93340E-09 -5.84481E-09 -5.75528E-09 -5.66487E-09 -5.57351E-09 -5.48121E-09
  -5.38798E-09 -5.29379E-09 -5.19867E-09 -5.10260E-09 -5.00557E-09 -4.90754E-09 -4.80860E-09 -4.70866E-09 -4.60775E-09 -4.50583E-09
  -4.40295E-09 -4.29908E-09 -4.19421E-09 -4.08833E-09 -3.98145E-09 -3.87356E-09 -3.76467E-09 -3.65483E-09 -3.54410E-09 -3.43252E-09
  -3.32016E-09 -3.20707E-09 -3.09329E-09 -2.97889E-09 -2.86392E-09 -2.74842E-09 -2.63247E-09 -2.51610E-09 -2.39939E-09 -2.28238E-09
  -2.16510E-09 -2.04764E-09 -1.93004E-09 -1.81235E-09 -1.69464E-09 -1.57694E-09 -1.45933E-09 -1.34184E-09 -1.22452E-09 -1.10746E-09
  -9.90693E-10 -8.74265E-10 -7.58243E-10 -6.42661E-10 -5.27598E-10 -4.13097E-10 -2.99210E-10 -1.85998E-10 -7.35126E-11  3.82141E-11
   1.49085E-10  2.59065E-10  3.68136E-10  4.76191E-10  5.83203E-10  6.89121E-10  7.93880E-10  8.97390E-10  9.99676E-10  1.10064E-09
   1.20021E-09  1.29837E-09  1.39506E-09  1.49022E-09  1.58376E-09  1.67568E-09  1.76593E-09  1.85438E-09  1.94103E-09  2.02585E-09
   2.10875E-09  2.18969E-09  2.26859E-09  2.34542E-09  2.42014E-09  2.49266E-09  2.56294E-09  2.63095E-09  2.69662E-09  2.75985E-09
   2.82068E-09  2.87898E-09  2.93471E-09  2.98784E-09  3.03832E-09  3.08605E-09  3.13101E-09  3.17317E-09  3.21242E-09  3.24882E-09
   3.28240E-09  3.31322E-09  3.34131E-09  3.36672E-09  3.38947E-09  3.40965E-09  3.42727E-09  3.44238E-09  3.45502E-09  3.46524E-09
   3.47310E-09  3.47861E-09  3.48184E-09  3.48282E-09  3.48161E-09  3.47823E-09  3.47275E-09  3.46519E-09  3.45561E-09  3.44405E-09
   3.43054E-09  3.41516E-09  3.39791E-09  3.37887E-09  3.35805E-09  3.33552E-09  3.31132E-09  3.28548E-09  3.25806E-09  3.22910E-09
   3.19864E-09  3.16672E-09  3.13341E-09  3.09870E-09  3.06268E-09  3.02539E-09  2.98685E-09  2.94713E-09  2.90626E-09  2.86427E-09
   2.82123E-09  2.77718E-09  2.73216E-09  2.68621E-09  2.63937E-09  2.59169E-09  2.54322E-09  2.49399E-09  2.44405E-09  2.39345E-09
   2.34222E-09  2.29042E-09  2.23809E-09  2.18525E-09  2.13199E-09  2.07831E-09  2.02428E-09  1.96994E-09  1.91531E-09  1.86046E-09
   1.80544E-09  1.75027E-09  1.69502E-09  1.63970E-09  1.58438E-09  1.52910E-09  1.47391E-09  1.41882E-09  1.36391E-09  1.30921E-09
   1.25476E-09  1.20059E-09  1.14670E-09  1.09308E-09  1.03972E-09  9.86623E-10  9.33772E-10  8.81174E-10  8.28818E-10  7.76698E-10
   7.24814E-10  6.73152E-10  6.21717E-10  5.70497E-10  5.19484E-10  4.68677E-10  4.18075E-10  3.67671E-10  3.17452E-10  2.67416E-10
   2.17563E-10  1.67879E-10  1.18374E-10  6.90227E-11  1.98352E-11 -2.92024E-11 -7.80873E-11 -1.26837E-10 -1.75446E-10 -2.23921E-10
  -2.72265E-10 -3.20504E-10 -3.68614E-10 -4.16612E-10 -4.64510E-10 -5.12318E-10 -5.60012E-10 -6.07625E-10 -6.55146E-10 -7.02599E-10
  -7.49968E-10 -7.97271E-10 -8.44519E-10 -8.91707E-10 -9.38835E-10 -9.85919E-10 -1.03296E-09 -1.07996E-09 -1.12693E-09 -1.17389E-09
  -1.22080E-09 -1.26772E-09 -1.31461E-09 -1.36150E-09 -1.40842E-09 -1.45531E-09 -1.50222E-09 -1.54914E-09 -1.59610E-09 -1.64307E-09
  -1.69007E-09 -1.73711E-09 -1.78420E-09 -1.83134E-09 -1.87852E-09 -1.92577E-09 -1.97307E-09 -2.02045E-09 -2.06790E-09 -2.11542E-09
  -2.16304E-09 -2.21075E-09 -2.25854E-09
 NY background values follow
    -1.150E-08   -1.148E-08   -1.147E-08   -1.145E-08   -1.143E-08   -1.141E-08   -1.139E-08   -1.137E-08   -1.135E-08   -1.133E-08
    -1.131E-08   -1.129E-08   -1.127E-08   -1.125E-08   -1.123E-08   -1.121E-08   -1.119E-08   -1.117E-08   -1.115E-08   -1.113E-08
    -1.111E-08   -1.108E-08   -1.106E-08   -1.104E-08   -1.101E-08   -1.099E-08   -1.097E-08   -1.094E-08   -1.092E-08   -1.089E-08
    -1.087E-08   -1.084E-08   -1.082E-08   -1.079E-08   -1.076E-08   -1.074E-08   -1.071E-08   -1.068E-08   -1.065E-08   -1.062E-08
    -1.059E-08   -1.056E-08   -1.053E-08   -1.050E-08   -1.047E-08   -1.044E-08   -1.041E-08   -1.038E-08   -1.034E-08   -1.031E-08
    -1.028E-08   -1.024E-08   -1.021E-08   -1.017E-08   -1.014E-08   -1.010E-08   -1.006E-08   -1.003E-08   -9.987E-09   -9.948E-09
    -9.909E-09   -9.869E-09   -9.829E-09   -9.788E-09   -9.746E-09   -9.704E-09   -9.661E-09   -9.618E-09   -9.574E-09   -9.529E-09
    -9.484E-09   -9.437E-09   -9.391E-09   -9.343E-09   -9.295E-09   -9.247E-09   -9.197E-09   -9.147E-09   -9.097E-09   -9.045E-09
    -8.993E-09   -8.940E-09   -8.887E-09   -8.832E-09   -8.777E-09   -8.722E-09   -8.665E-09   -8.608E-09   -8.550E-09   -8.491E-09
    -8.432E-09   -8.372E-09   -8.311E-09   -8.249E-09   -8.187E-09   -8.124E-09   -8.060E-09   -7.995E-09   -7.929E-09   -7.863E-09
    -7.796E-09   -7.728E-09   -7.659E-09   -7.590E-09   -7.519E-09   -7.448E-09   -7.376E-09   -7.303E-09   -7.230E-09   -7.155E-09
    -7.080E-09   -7.003E-09   -6.926E-09   -6.848E-09   -6.770E-09   -6.690E-09   -6.610E-09   -6.528E-09   -6.446E-09   -6.363E-09
    -6.279E-09   -6.194E-09   -6.108E-09   -6.021E-09   -5.933E-09   -5.845E-09   -5.755E-09   -5.665E-09   -5.574E-09   -5.481E-09
    -5.388E-09   -5.294E-09   -5.199E-09   -5.103E-09   -5.006E-09   -4.908E-09   -4.809E-09   -4.709E-09   -4.608E-09   -4.506E-09
    -4.403E-09   -4.299E-09   -4.194E-09   -4.088E-09   -3.981E-09   -3.874E-09   -3.765E-09   -3.655E-09   -3.544E-09   -3.433E-09
    -3.320E-09   -3.207E-09   -3.093E-09   -2.979E-09   -2.864E-09   -2.748E-09   -2.632E-09   -2.516E-09   -2.399E-09   -2.282E-09
    -2.165E-09   -2.048E-09   -1.930E-09   -1.812E-09   -1.695E-09   -1.577E-09   -1.459E-09   -1.342E-09   -1.225E-09   -1.107E-09
    -9.907E-10   -8.743E-10   -7.582E-10   -6.427E-10   -5.276E-10   -4.131E-10   -2.992E-10   -1.860E-10   -7.351E-11    3.821E-11
     1.491E-10    2.591E-10    3.681E-10    4.762E-10    5.832E-10    6.891E-10    7.939E-10    8.974E-10    9.997E-10    1.101E-09
     1.200E-09    1.298E-09    1.395E-09    1.490E-09    1.584E-09    1.676E-09    1.766E-09    1.854E-09    1.941E-09    2.026E-09
     2.109E-09    2.190E-09    2.269E-09    2.345E-09    2.420E-09    2.493E-09    2.563E-09    2.631E-09    2.697E-09    2.760E-09
     2.821E-09    2.879E-09    2.935E-09    2.988E-09    3.038E-09    3.086E-09    3.131E-09    3.173E-09    3.212E-09    3.249E-09
     3.282E-09    3.313E-09    3.341E-09    3.367E-09    3.389E-09    3.410E-09    3.427E-09    3.442E-09    3.455E-09    3.465E-09
     3.473E-09    3.479E-09    3.482E-09    3.483E-09    3.482E-09    3.478E-09    3.473E-09    3.465E-09    3.456E-09    3.444E-09
     3.431E-09    3.415E-09    3.398E-09    3.379E-09    3.358E-09    3.336E-09    3.311E-09    3.285E-09    3.258E-09    3.229E-09
     3.199E-09    3.167E-09    3.133E-09    3.099E-09    3.063E-09    3.025E-09    2.987E-09    2.947E-09    2.906E-09    2.864E-09
     2.821E-09    2.777E-09    2.732E-09    2.686E-09    2.639E-09    2.592E-09    2.543E-09    2.494E-09    2.444E-09    2.393E-09
     2.342E-09    2.290E-09    2.238E-09    2.185E-09    2.132E-09    2.078E-09    2.024E-09    1.970E-09    1.915E-09    1.860E-09
     1.805E-09    1.750E-09    1.695E-09    1.640E-09    1.584E-09    1.529E-09    1.474E-09    1.419E-09    1.364E-09    1.309E-09
     1.255E-09    1.201E-09    1.147E-09    1.093E-09    1.040E-09    9.866E-10    9.338E-10    8.812E-10    8.288E-10    7.767E-10
     7.248E-10    6.732E-10    6.217E-10    5.705E-10    5.195E-10    4.687E-10    4.181E-10    3.677E-10    3.175E-10    2.674E-10
     2.176E-10    1.679E-10    1.184E-10    6.902E-11    1.984E-11   -2.920E-11   -7.809E-11   -1.268E-10   -1.754E-10   -2.239E-10
    -2.723E-10   -3.205E-10   -3.686E-10   -4.166E-10   -4.645E-10   -5.123E-10   -5.600E-10   -6.076E-10   -6.551E-10   -7.026E-10
    -7.500E-10   -7.973E-10   -8.445E-10   -8.917E-10   -9.388E-10   -9.859E-10   -1.033E-09   -1.080E-09   -1.127E-09   -1.174E-09
    -1.221E-09   -1.268E-09   -1.315E-09   -1.362E-09   -1.408E-09   -1.455E-09   -1.502E-09   -1.549E-09   -1.596E-09   -1.643E-09
    -1.690E-09   -1.737E-09   -1.784E-09   -1.831E-09   -1.879E-09   -1.926E-09   -1.973E-09   -2.020E-09   -2.068E-09   -2.115E-09
    -2.163E-09   -2.211E-09   -2.259E-09
   5 lines in following diagnostic table:
   1 ERROR     MYBASI 10                                                  
   4 ERRORS    AREABA  3                                                  
   1 warning   STARTV 25                                                  
   1 info      STARTV 20                                                  
   2 warnings  RBASOL  3                                                  
  79 lines in following table of input changes:
ATTH2O=1.0                                                                
FILH2O='/mnt/c/Users/divya/Downloads/Lexar/DataFo                         
   rDivya/meas_MID01415_FID95676_lb_RosetteSpinEc                         
   ho_ek_v1a_lcm/13x27_ftSpec_smooth_lcm_w'                               
DOWS=T                                                                    
DOECC=T                                                                   
CHRATO(8)='MM9/MM1 = 1.40 +- 0.7'                                         
CHRATO(7)='MM8/MM1 = 0.33 +- 0.17'                                        
CHRATO(6)='MM7/MM1 = 0.54 +- 0.27'                                        
CHRATO(5)='MM6/MM1 = 0.63 +- 0.16'                                        
CHRATO(4)='MM5/MM1 = 3.16 +- 0.79'                                        
CHRATO(3)='MM4/MM1 = 1.29 +- 1.03'                                        
CHRATO(2)='MM3/MM1 = 1.05 +- 0.63'                                        
CHRATO(1)='MM2/MM1 = 0.51 +- 0.17'                                        
NRATIO=8                                                                  
NORATO(7)='-CrCH2/totCr'                                                  
NORATO(6)='MM17/MM09*'                                                    
NORATO(5)='MM14/MM09*'                                                    
NORATO(4)='MM12/MM09*'                                                    
NORATO(3)='MM20/MM09*'                                                    
NORATO(2)='Lip20/Lip13*'                                                  
NORATO(1)='Lip09/Lip13*'                                                  
NNORAT=7                                                                  
CHOMIT(14)='-CrCH2'                                                       
CHOMIT(13)='MM17'                                                         
CHOMIT(12)='MM14'                                                         
CHOMIT(11)='MM12'                                                         
CHOMIT(10)='MM20'                                                         
CHOMIT(9)='Lip20'                                                         
CHOMIT(8)='MM09'                                                          
CHOMIT(7)='Lip09'                                                         
CHOMIT(6)='Lip13d'                                                        
CHOMIT(5)='Lip13c'                                                        
CHOMIT(4)='Lip13b'                                                        
CHOMIT(3)='Lip13a'                                                        
CHOMIT(2)='bHG'                                                           
CHOMIT(1)='bHB'                                                           
NOMIT=14                                                                  
NEACH=999                                                                 
DKNTMN=0.3                                                                
WDLINE(1)=0.025                                                           
RFWHM=0.15                                                                
PPMEND=0.2                                                                
PPMST=4.25                                                                
LPS=8                                                                     
DOREFS(1)=T                                                               
FILPRI='/mnt/c/Users/divya/Downloads/Lexar/DataFo                         
   rDivya/meas_MID01415_FID95676_lb_RosetteSpinEc                         
   ho_ek_v1a_lcm/13x27_ftSpec_smooth_lcm_out/13x2                         
   7_ftSpec_smooth_lcm.print'                                             
LCSV=11                                                                   
LCOORD=9                                                                  
LTABLE=7                                                                  
LPRINT=6                                                                  
ECHOT=20                                                                  
NUNFIL=576                                                                
DELTAT=0.00063000                                                         
HZPPPM=123.25                                                             
FILBAS='/mnt/c/Users/divya/Downloads/linux-send/f                         
   ida2/new/3T_SpinEchoRosetteMRSI_TE20.basis'                            
FILCSV='/mnt/c/Users/divya/Downloads/Lexar/DataFo                         
   rDivya/meas_MID01415_FID95676_lb_RosetteSpinEc                         
   ho_ek_v1a_lcm/13x27_ftSpec_smooth_lcm_out/13x2                         
   7_ftSpec_smooth_lcm.csv'                                               
FILCOO='/mnt/c/Users/divya/Downloads/Lexar/DataFo                         
   rDivya/meas_MID01415_FID95676_lb_RosetteSpinEc                         
   ho_ek_v1a_lcm/13x27_ftSpec_smooth_lcm_out/13x2                         
   7_ftSpec_smooth_lcm.coord'                                             
FILTAB='/mnt/c/Users/divya/Downloads/Lexar/DataFo                         
   rDivya/meas_MID01415_FID95676_lb_RosetteSpinEc                         
   ho_ek_v1a_lcm/13x27_ftSpec_smooth_lcm_out/13x2                         
   7_ftSpec_smooth_lcm.table'                                             
FILPS='/mnt/c/Users/divya/Downloads/Lexar/DataFor                         
   Divya/meas_MID01415_FID95676_lb_RosetteSpinEch                         
   o_ek_v1a_lcm/13x27_ftSpec_smooth_lcm_out/13x27                         
   _ftSpec_smooth_lcm.ps'                                                 
FILRAW='/mnt/c/Users/divya/Downloads/Lexar/DataFo                         
   rDivya/meas_MID01415_FID95676_lb_RosetteSpinEc                         
   ho_ek_v1a_lcm/13x27_ftSpec_smooth_lcm'                                 
