 LCModel (Version 6.3-1R) Copyright: S.W. Provencher.          Ref.: Magn. Reson. Med. 30:672-679 (1993).                
 onepulse 13x8_ftSpec_smooth_lcm
 26 lines in following concentration table = NCONC+1
    Conc.  %SD /Cr+PCr  Metabolite                                         
 1.01E-10 229%   1.779 Ala                                                 
 2.07E-09  21%  36.576 Asp                                                 
    0.000 999%   0.000 Cr                                                  
 1.66E-09  26%  29.378 GABA                                                
 9.96E-10  44%  17.622 Glc                                                 
    0.000 999%   0.000 Gln                                                 
    0.000 999%   0.000 Glu                                                 
    0.000 999%   0.000 Glyc                                                
 7.28E-11  84%   1.287 GPC                                                 
    0.000 999%   0.000 GSH                                                 
 3.53E-10  80%   6.235 Ins                                                 
    0.000 999%   0.000 Lac                                                 
    0.000 999%   0.000 NAAG                                                
 1.95E-10  85%   3.456 NAA                                                 
    0.000 999%   0.000 PCh                                                 
 5.65E-11 379%   1.000 PCr                                                 
    0.000 999%   0.000 PE                                                  
 8.00E-11 140%   1.416 Scyllo                                              
    0.000 999%   0.000 Ser                                                 
    0.000 999%   0.000 Tau                                                 
 7.28E-11  84%   1.287 GPC+PCh                                             
 1.95E-10  85%   3.456 NAA+NAAG                                            
 3.53E-10  80%   6.235 Ins+Glyc                                            
 5.65E-11 379%   1.000 Cr+PCr                                              
    0.000 999%   0.000 Glu+Gln                                             
   6 lines in following misc. output table
  FWHM = 0.067 ppm    S/N =   3                                            
  Data shift = 0.347 ppm                                                   
  Ph: 134 deg      21.6 deg/ppm                                            
  alphaB,S = 6.4E-01,   2.4E+01                                            
    9 spline knots.   Ns = 5(1)                                            
  (11) 3 infls.   (11) 3 extrs.                                            
  363 points on ppm-axis = NY
      4.250000     4.238821     4.227641     4.216462     4.205282     4.194103     4.182923     4.171744     4.160564     4.149385
      4.138206     4.127026     4.115847     4.104667     4.093488     4.082308     4.071129     4.059949     4.048770     4.037591
      4.026411     4.015232     4.004052     3.992873     3.981693     3.970514     3.959334     3.948155     3.936975     3.925796
      3.914617     3.903437     3.892258     3.881078     3.869899     3.858719     3.847540     3.836360     3.825181     3.814002
      3.802822     3.791643     3.780463     3.769284     3.758104     3.746925     3.735745     3.724566     3.713387     3.702207
      3.691028     3.679848     3.668669     3.657489     3.646310     3.635130     3.623951     3.612772     3.601592     3.590413
      3.579233     3.568054     3.556874     3.545695     3.534515     3.523336     3.512156     3.500977     3.489798     3.478618
      3.467439     3.456259     3.445080     3.433900     3.422721     3.411541     3.400362     3.389183     3.378003     3.366824
      3.355644     3.344465     3.333285     3.322106     3.310926     3.299747     3.288568     3.277388     3.266209     3.255029
      3.243850     3.232670     3.221491     3.210311     3.199132     3.187953     3.176773     3.165594     3.154414     3.143235
      3.132055     3.120876     3.109696     3.098517     3.087337     3.076158     3.064979     3.053799     3.042620     3.031440
      3.020261     3.009081     2.997902     2.986722     2.975543     2.964364     2.953184     2.942005     2.930825     2.919646
      2.908466     2.897287     2.886107     2.874928     2.863749     2.852569     2.841390     2.830210     2.819031     2.807851
      2.796672     2.785492     2.774313     2.763134     2.751954     2.740775     2.729595     2.718416     2.707236     2.696057
      2.684877     2.673698     2.662519     2.651339     2.640160     2.628980     2.617801     2.606621     2.595442     2.584262
      2.573083     2.561903     2.550724     2.539545     2.528365     2.517186     2.506006     2.494827     2.483647     2.472468
      2.461288     2.450109     2.438930     2.427750     2.416571     2.405391     2.394212     2.383032     2.371853     2.360673
      2.349494     2.338315     2.327135     2.315956     2.304776     2.293597     2.282417     2.271238     2.260058     2.248879
      2.237700     2.226520     2.215341     2.204161     2.192982     2.181802     2.170623     2.159443     2.148264     2.137084
      2.125905     2.114726     2.103546     2.092367     2.081187     2.070008     2.058828     2.047649     2.036469     2.025290
      2.014111     2.002931     1.991752     1.980572     1.969393     1.958213     1.947034     1.935854     1.924675     1.913496
      1.902316     1.891137     1.879957     1.868778     1.857598     1.846419     1.835239     1.824060     1.812881     1.801701
      1.790522     1.779342     1.768163     1.756983     1.745804     1.734624     1.723445     1.712265     1.701086     1.689907
      1.678727     1.667548     1.656368     1.645189     1.634009     1.622830     1.611650     1.600471     1.589292     1.578112
      1.566933     1.555753     1.544574     1.533394     1.522215     1.511035     1.499856     1.488677     1.477497     1.466318
      1.455138     1.443959     1.432779     1.421600     1.410420     1.399241     1.388062     1.376882     1.365703     1.354523
      1.343344     1.332164     1.320985     1.309805     1.298626     1.287446     1.276267     1.265088     1.253908     1.242729
      1.231549     1.220370     1.209190     1.198011     1.186831     1.175652     1.164473     1.153293     1.142114     1.130934
      1.119755     1.108575     1.097396     1.086216     1.075037     1.063858     1.052678     1.041499     1.030319     1.019140
      1.007960     0.996781     0.985601     0.974422     0.963243     0.952063     0.940884     0.929704     0.918525     0.907345
      0.896166     0.884986     0.873807     0.862628     0.851448     0.840269     0.829089     0.817910     0.806730     0.795551
      0.784371     0.773192     0.762012     0.750833     0.739654     0.728474     0.717295     0.706115     0.694936     0.683756
      0.672577     0.661397     0.650218     0.639039     0.627859     0.616680     0.605500     0.594321     0.583141     0.571962
      0.560782     0.549603     0.538424     0.527244     0.516065     0.504885     0.493706     0.482526     0.471347     0.460167
      0.448988     0.437809     0.426629     0.415450     0.404270     0.393091     0.381911     0.370732     0.359552     0.348373
      0.337193     0.326014     0.314835     0.303655     0.292476     0.281296     0.270117     0.258937     0.247758     0.236578
      0.225399     0.214220     0.203040
 NY phased data points follow
   7.38611E-09  7.93050E-09  9.19792E-09  7.98345E-09  8.10874E-09  7.75780E-09  7.22598E-09  6.87529E-09  6.54675E-09  6.19065E-09
   6.55644E-09  6.33343E-09  6.93012E-09  6.39352E-09  7.62986E-09  7.25093E-09  7.92313E-09  7.35579E-09  7.71065E-09  7.56330E-09
   7.91205E-09  7.24488E-09  7.36414E-09  6.64451E-09  6.98903E-09  7.41079E-09  7.89387E-09  7.71015E-09  7.57055E-09  6.96721E-09
   6.44541E-09  6.89905E-09  8.00514E-09  8.48484E-09  9.14289E-09  8.82595E-09  8.76489E-09  8.15302E-09  7.89924E-09  7.67389E-09
   7.45920E-09  7.04161E-09  7.39919E-09  7.34454E-09  7.14412E-09  7.15323E-09  7.15822E-09  6.56100E-09  6.56451E-09  6.44526E-09
   6.46268E-09  6.11331E-09  6.29981E-09  6.38284E-09  6.39222E-09  5.99344E-09  5.81816E-09  5.37011E-09  5.31822E-09  5.29853E-09
   5.70812E-09  5.57258E-09  5.87390E-09  6.23569E-09  7.79282E-09  8.47055E-09  8.59361E-09  8.13047E-09  7.96666E-09  7.71548E-09
   7.50501E-09  6.84149E-09  7.03977E-09  6.35289E-09  6.26508E-09  5.53071E-09  5.62419E-09  4.57251E-09  4.74110E-09  5.03585E-09
   8.09935E-09  9.38339E-09  1.02347E-08  9.52627E-09  9.82377E-09  9.47995E-09  9.56540E-09  8.60988E-09  8.86401E-09  8.51826E-09
   8.86199E-09  8.13135E-09  8.19654E-09  8.38215E-09  7.85422E-09  7.93983E-09  8.00504E-09  7.30906E-09  7.18637E-09  6.65008E-09
   6.17960E-09  6.15500E-09  6.51183E-09  6.50042E-09  6.35023E-09  5.81958E-09  6.19390E-09  6.12045E-09  6.26292E-09  5.53247E-09
   5.06043E-09  5.36115E-09  4.76548E-09  4.55804E-09  4.84856E-09  5.23356E-09  4.74373E-09  5.00694E-09  5.00439E-09  5.34335E-09
   4.73158E-09  5.51045E-09  5.38736E-09  5.46243E-09  4.61974E-09  5.20314E-09  4.36012E-09  4.13341E-09  3.93038E-09  4.58326E-09
   4.10090E-09  4.15356E-09  4.43252E-09  4.99145E-09  5.36479E-09  5.24659E-09  4.87685E-09  5.01445E-09  4.92873E-09  4.93180E-09
   5.43692E-09  6.62643E-09  6.46199E-09  6.56169E-09  6.38753E-09  6.66282E-09  7.15568E-09  7.32047E-09  6.99338E-09  7.13891E-09
   7.24790E-09  7.58375E-09  7.62078E-09  6.95375E-09  6.97740E-09  7.27533E-09  7.23930E-09  6.88710E-09  7.24125E-09  7.33907E-09
   7.28253E-09  6.97881E-09  7.08871E-09  7.23015E-09  7.39004E-09  7.26411E-09  7.01136E-09  7.06323E-09  7.26399E-09  5.89580E-09
   5.70114E-09  8.14283E-09  1.12388E-08  1.29324E-08  1.30337E-08  1.24479E-08  1.26285E-08  1.18700E-08  1.09482E-08  1.01783E-08
   9.46960E-09  8.92383E-09  7.85700E-09  6.23191E-09  5.66247E-09  3.68599E-09  2.39153E-09  6.99592E-10 -1.36889E-09 -2.94517E-09
  -4.45494E-09 -6.19049E-09 -7.61507E-09 -8.78219E-09 -9.52221E-09 -1.01627E-08 -1.01733E-08 -1.04453E-08 -9.31654E-09 -8.87433E-09
  -8.03934E-09 -6.72905E-09 -5.43044E-09 -4.90867E-09 -3.90184E-09 -3.06994E-09 -2.30427E-09 -2.21055E-09 -1.44203E-09 -1.72400E-09
  -1.40057E-09 -1.85172E-09 -1.33088E-09 -2.44756E-09 -1.57938E-09 -2.24077E-09 -1.22830E-09 -1.89477E-09 -1.35558E-09 -1.52267E-09
  -1.10106E-09 -1.62404E-09 -1.05282E-09 -1.44795E-09 -9.73033E-10 -1.57837E-09 -7.61609E-10 -1.81575E-09 -1.13799E-09 -1.41067E-09
  -1.05730E-09 -1.40488E-09 -8.28411E-10 -1.50719E-09 -1.09001E-09 -1.56758E-09 -1.06371E-09 -1.73315E-09 -8.43831E-10 -1.83291E-09
  -1.50126E-09 -2.10356E-09 -1.75897E-09 -2.33931E-09 -1.62986E-09 -2.10948E-09 -1.34820E-09 -1.94463E-09 -1.42025E-09 -1.53158E-09
  -1.22509E-09 -1.85975E-09 -9.43611E-10 -1.99342E-09 -1.41217E-09 -2.29248E-09 -1.34052E-09 -2.13357E-09 -1.88797E-09 -2.25715E-09
  -1.60779E-09 -2.34353E-09 -2.21428E-09 -2.64633E-09 -2.43132E-09 -2.34332E-09 -2.36321E-09 -3.03814E-09 -1.99642E-09 -2.33313E-09
  -2.04179E-09 -2.32962E-09 -1.94535E-09 -2.04657E-09 -1.14342E-09 -1.21806E-09 -1.30580E-09 -1.33045E-09 -5.65109E-10 -1.38656E-09
  -8.51269E-10 -1.21396E-09 -1.22453E-09 -1.00079E-09 -9.96285E-10 -1.21787E-09 -1.21767E-09 -1.33093E-09 -1.45991E-09 -1.65959E-09
  -1.54622E-09 -1.74205E-09 -1.39967E-09 -1.93846E-09 -1.87843E-09 -1.99327E-09 -1.59786E-09 -1.88345E-09 -1.40852E-09 -1.77191E-09
  -2.20453E-09 -2.44017E-09 -2.13847E-09 -2.02674E-09 -2.33205E-09 -2.30068E-09 -2.43131E-09 -2.51034E-09 -2.31237E-09 -2.93658E-09
  -2.61788E-09 -2.78083E-09 -2.68446E-09 -2.71846E-09 -2.64561E-09 -3.08925E-09 -2.75335E-09 -2.61194E-09 -2.78250E-09 -2.87833E-09
  -3.11074E-09 -2.81124E-09 -2.75363E-09 -3.40513E-09 -3.26940E-09 -3.12789E-09 -3.15296E-09 -2.75702E-09 -2.99719E-09 -3.31286E-09
  -3.11419E-09 -3.34671E-09 -3.54052E-09 -3.02162E-09 -3.48490E-09 -3.39200E-09 -3.56836E-09 -3.16151E-09 -3.74888E-09 -3.70347E-09
  -3.83090E-09 -3.29841E-09 -3.84541E-09 -3.86269E-09 -3.70627E-09 -3.84725E-09 -3.82527E-09 -3.84334E-09 -3.80940E-09 -3.81036E-09
  -3.67359E-09 -3.72625E-09 -4.12748E-09 -3.53862E-09 -3.66383E-09 -3.49111E-09 -3.88655E-09 -3.70934E-09 -3.93514E-09 -3.85156E-09
  -3.82942E-09 -4.04770E-09 -4.10632E-09
 NY points of the fit to the data follow
   8.31473E-09  7.80260E-09  7.55134E-09  7.43932E-09  7.23210E-09  6.76588E-09  6.38823E-09  6.19386E-09  6.28370E-09  6.54226E-09
   6.82267E-09  7.17208E-09  7.58729E-09  7.87921E-09  7.87342E-09  7.75864E-09  7.82079E-09  7.85824E-09  7.68084E-09  7.63560E-09
   7.67135E-09  7.61856E-09  7.39864E-09  7.10943E-09  6.63824E-09  6.39144E-09  6.60810E-09  6.86587E-09  7.13223E-09  7.60625E-09
   7.77105E-09  7.83217E-09  7.98170E-09  7.75857E-09  7.47223E-09  7.95418E-09  8.41126E-09  8.52485E-09  8.33331E-09  7.92328E-09
   7.56937E-09  7.41738E-09  6.86732E-09  6.38729E-09  6.60364E-09  6.78106E-09  6.37666E-09  6.34269E-09  6.82215E-09  7.48198E-09
   7.97009E-09  8.09072E-09  7.89542E-09  7.36756E-09  6.69020E-09  6.29034E-09  6.04349E-09  6.47365E-09  6.60858E-09  6.46802E-09
   6.54234E-09  6.94195E-09  7.32902E-09  7.55585E-09  8.00474E-09  8.47372E-09  8.44829E-09  8.42112E-09  8.57555E-09  8.69077E-09
   8.54093E-09  8.05598E-09  7.43319E-09  7.02278E-09  6.82739E-09  6.17961E-09  5.84864E-09  6.38265E-09  6.48424E-09  6.43660E-09
   6.76686E-09  7.10899E-09  7.47143E-09  7.93321E-09  8.12135E-09  8.06385E-09  7.99901E-09  7.75817E-09  7.49932E-09  7.63299E-09
   7.66551E-09  7.71726E-09  7.79878E-09  7.46854E-09  7.04868E-09  7.08086E-09  6.86318E-09  6.42470E-09  6.35385E-09  6.33407E-09
   6.23669E-09  6.19323E-09  6.21436E-09  6.28340E-09  6.34001E-09  6.37239E-09  6.39515E-09  6.41150E-09  6.39790E-09  6.33201E-09
   6.23198E-09  6.16587E-09  6.13298E-09  6.02990E-09  5.94400E-09  5.92975E-09  5.92349E-09  5.91593E-09  5.90542E-09  5.89170E-09
   5.87466E-09  5.85454E-09  5.83142E-09  5.80542E-09  5.77667E-09  5.74531E-09  5.71142E-09  5.67513E-09  5.63656E-09  5.59579E-09
   5.55290E-09  5.50801E-09  5.46120E-09  5.41257E-09  5.36218E-09  5.31015E-09  5.25654E-09  5.20144E-09  5.14497E-09  5.08720E-09
   5.02827E-09  4.96825E-09  4.90727E-09  4.84545E-09  4.78287E-09  4.71969E-09  4.65610E-09  4.59227E-09  4.52834E-09  4.46457E-09
   4.40120E-09  4.33847E-09  4.27676E-09  4.21652E-09  4.15817E-09  4.10238E-09  4.04996E-09  4.00195E-09  3.95972E-09  3.92530E-09
   3.90144E-09  3.89255E-09  3.90565E-09  3.95341E-09  4.06164E-09  4.29547E-09  4.88707E-09  6.55198E-09  7.78163E-09  8.03187E-09
   8.39074E-09  9.66589E-09  1.15477E-08  1.32239E-08  1.42510E-08  1.43864E-08  1.29960E-08  9.27443E-09  4.12421E-09  1.68517E-09
   1.14355E-09  9.40242E-10  8.28113E-10  7.47547E-10  6.79214E-10  6.15760E-10  5.54101E-10  4.92892E-10  4.31575E-10  3.69946E-10
   3.07952E-10  2.45661E-10  1.83134E-10  1.20488E-10  5.78050E-11 -4.83158E-12 -6.73092E-11 -1.29556E-10 -1.91506E-10 -2.53074E-10
  -3.14205E-10 -3.74859E-10 -4.34970E-10 -4.94485E-10 -5.53378E-10 -6.11603E-10 -6.69130E-10 -7.25899E-10 -7.81916E-10 -8.37144E-10
  -8.91555E-10 -9.45112E-10 -9.97808E-10 -1.04961E-09 -1.10053E-09 -1.15053E-09 -1.19958E-09 -1.24768E-09 -1.29484E-09 -1.34100E-09
  -1.38618E-09 -1.43034E-09 -1.47350E-09 -1.51565E-09 -1.55679E-09 -1.59685E-09 -1.63590E-09 -1.67390E-09 -1.71082E-09 -1.74668E-09
  -1.78148E-09 -1.81521E-09 -1.84785E-09 -1.87942E-09 -1.90990E-09 -1.93929E-09 -1.96760E-09 -1.99482E-09 -2.02094E-09 -2.04596E-09
  -2.06990E-09 -2.09274E-09 -2.11448E-09 -2.13516E-09 -2.15479E-09 -2.17342E-09 -2.19107E-09 -2.20779E-09 -2.22361E-09 -2.23856E-09
  -2.25268E-09 -2.26600E-09 -2.27855E-09 -2.29037E-09 -2.30149E-09 -2.31195E-09 -2.32178E-09 -2.33101E-09 -2.33969E-09 -2.34783E-09
  -2.35548E-09 -2.36267E-09 -2.36942E-09 -2.37578E-09 -2.38178E-09 -2.38744E-09 -2.39281E-09 -2.39790E-09 -2.40276E-09 -2.40741E-09
  -2.41189E-09 -2.41622E-09 -2.42043E-09 -2.42456E-09 -2.42863E-09 -2.43268E-09 -2.43672E-09 -2.44079E-09 -2.44492E-09 -2.44913E-09
  -2.45345E-09 -2.45790E-09 -2.46251E-09 -2.46731E-09 -2.47232E-09 -2.47756E-09 -2.48306E-09 -2.48883E-09 -2.49491E-09 -2.50131E-09
  -2.50806E-09 -2.51517E-09 -2.52266E-09 -2.53056E-09 -2.53887E-09 -2.54763E-09 -2.55684E-09 -2.56653E-09 -2.57670E-09 -2.58737E-09
  -2.59856E-09 -2.61028E-09 -2.62254E-09 -2.63534E-09 -2.64864E-09 -2.66241E-09 -2.67660E-09 -2.69119E-09 -2.70613E-09 -2.72140E-09
  -2.73696E-09 -2.75276E-09 -2.76878E-09 -2.78499E-09 -2.80134E-09 -2.81781E-09 -2.83435E-09 -2.85095E-09 -2.86756E-09 -2.88415E-09
  -2.90069E-09 -2.91714E-09 -2.93349E-09 -2.94969E-09 -2.96571E-09 -2.98153E-09 -2.99711E-09 -3.01242E-09 -3.02745E-09 -3.04214E-09
  -3.05649E-09 -3.07046E-09 -3.08401E-09 -3.09714E-09 -3.10981E-09 -3.12198E-09 -3.13365E-09 -3.14478E-09 -3.15535E-09 -3.16533E-09
  -3.17471E-09 -3.18345E-09 -3.19155E-09 -3.19896E-09 -3.20568E-09 -3.21168E-09 -3.21694E-09 -3.22145E-09 -3.22518E-09 -3.22811E-09
  -3.23024E-09 -3.23153E-09 -3.23197E-09 -3.23156E-09 -3.23026E-09 -3.22807E-09 -3.22498E-09 -3.22097E-09 -3.21602E-09 -3.21014E-09
  -3.20328E-09 -3.19547E-09 -3.18667E-09
 NY background values follow
     3.376E-09    3.460E-09    3.544E-09    3.627E-09    3.709E-09    3.789E-09    3.869E-09    3.948E-09    4.025E-09    4.102E-09
     4.177E-09    4.252E-09    4.325E-09    4.398E-09    4.469E-09    4.539E-09    4.609E-09    4.677E-09    4.744E-09    4.811E-09
     4.876E-09    4.940E-09    5.003E-09    5.065E-09    5.126E-09    5.186E-09    5.245E-09    5.303E-09    5.360E-09    5.416E-09
     5.471E-09    5.525E-09    5.578E-09    5.629E-09    5.680E-09    5.730E-09    5.779E-09    5.827E-09    5.874E-09    5.920E-09
     5.964E-09    6.008E-09    6.051E-09    6.093E-09    6.134E-09    6.174E-09    6.213E-09    6.251E-09    6.288E-09    6.324E-09
     6.359E-09    6.394E-09    6.427E-09    6.460E-09    6.491E-09    6.522E-09    6.551E-09    6.580E-09    6.608E-09    6.635E-09
     6.661E-09    6.686E-09    6.711E-09    6.734E-09    6.757E-09    6.778E-09    6.799E-09    6.819E-09    6.838E-09    6.856E-09
     6.873E-09    6.889E-09    6.904E-09    6.918E-09    6.931E-09    6.943E-09    6.954E-09    6.964E-09    6.973E-09    6.981E-09
     6.988E-09    6.993E-09    6.998E-09    7.001E-09    7.004E-09    7.005E-09    7.005E-09    7.003E-09    7.001E-09    6.997E-09
     6.992E-09    6.986E-09    6.979E-09    6.970E-09    6.960E-09    6.948E-09    6.935E-09    6.921E-09    6.905E-09    6.888E-09
     6.870E-09    6.850E-09    6.829E-09    6.806E-09    6.781E-09    6.755E-09    6.728E-09    6.699E-09    6.668E-09    6.636E-09
     6.602E-09    6.566E-09    6.529E-09    6.490E-09    6.450E-09    6.407E-09    6.363E-09    6.317E-09    6.269E-09    6.220E-09
     6.168E-09    6.115E-09    6.060E-09    6.003E-09    5.944E-09    5.883E-09    5.821E-09    5.756E-09    5.691E-09    5.623E-09
     5.554E-09    5.483E-09    5.411E-09    5.337E-09    5.262E-09    5.186E-09    5.108E-09    5.028E-09    4.947E-09    4.865E-09
     4.782E-09    4.698E-09    4.612E-09    4.526E-09    4.438E-09    4.349E-09    4.260E-09    4.169E-09    4.077E-09    3.985E-09
     3.892E-09    3.798E-09    3.704E-09    3.608E-09    3.513E-09    3.416E-09    3.320E-09    3.222E-09    3.125E-09    3.027E-09
     2.928E-09    2.830E-09    2.731E-09    2.632E-09    2.533E-09    2.434E-09    2.335E-09    2.236E-09    2.137E-09    2.038E-09
     1.940E-09    1.842E-09    1.744E-09    1.646E-09    1.549E-09    1.453E-09    1.357E-09    1.261E-09    1.166E-09    1.072E-09
     9.787E-10    8.861E-10    7.943E-10    7.033E-10    6.133E-10    5.241E-10    4.358E-10    3.485E-10    2.620E-10    1.765E-10
     9.198E-11    8.401E-12   -7.421E-11   -1.558E-10   -2.365E-10   -3.161E-10   -3.947E-10   -4.723E-10   -5.488E-10   -6.243E-10
    -6.987E-10   -7.721E-10   -8.444E-10   -9.156E-10   -9.857E-10   -1.055E-09   -1.123E-09   -1.189E-09   -1.255E-09   -1.320E-09
    -1.383E-09   -1.445E-09   -1.506E-09   -1.566E-09   -1.625E-09   -1.683E-09   -1.739E-09   -1.795E-09   -1.849E-09   -1.902E-09
    -1.953E-09   -2.004E-09   -2.053E-09   -2.102E-09   -2.149E-09   -2.194E-09   -2.239E-09   -2.282E-09   -2.324E-09   -2.365E-09
    -2.405E-09   -2.444E-09   -2.481E-09   -2.517E-09   -2.552E-09   -2.586E-09   -2.618E-09   -2.650E-09   -2.680E-09   -2.708E-09
    -2.736E-09   -2.763E-09   -2.788E-09   -2.812E-09   -2.835E-09   -2.857E-09   -2.877E-09   -2.897E-09   -2.916E-09   -2.934E-09
    -2.951E-09   -2.967E-09   -2.982E-09   -2.996E-09   -3.009E-09   -3.022E-09   -3.034E-09   -3.046E-09   -3.056E-09   -3.066E-09
    -3.076E-09   -3.085E-09   -3.094E-09   -3.102E-09   -3.109E-09   -3.116E-09   -3.123E-09   -3.130E-09   -3.136E-09   -3.142E-09
    -3.147E-09   -3.153E-09   -3.158E-09   -3.163E-09   -3.168E-09   -3.173E-09   -3.178E-09   -3.183E-09   -3.187E-09   -3.192E-09
    -3.197E-09   -3.202E-09   -3.207E-09   -3.212E-09   -3.217E-09   -3.223E-09   -3.229E-09   -3.234E-09   -3.241E-09   -3.247E-09
    -3.254E-09   -3.261E-09   -3.268E-09   -3.276E-09   -3.284E-09   -3.292E-09   -3.301E-09   -3.310E-09   -3.320E-09   -3.330E-09
    -3.341E-09   -3.352E-09   -3.363E-09   -3.375E-09   -3.388E-09   -3.401E-09   -3.414E-09   -3.428E-09   -3.442E-09   -3.456E-09
    -3.470E-09   -3.485E-09   -3.500E-09   -3.515E-09   -3.530E-09   -3.545E-09   -3.560E-09   -3.576E-09   -3.591E-09   -3.606E-09
    -3.621E-09   -3.636E-09   -3.651E-09   -3.665E-09   -3.680E-09   -3.694E-09   -3.707E-09   -3.721E-09   -3.734E-09   -3.747E-09
    -3.759E-09   -3.771E-09   -3.783E-09   -3.794E-09   -3.805E-09   -3.815E-09   -3.824E-09   -3.833E-09   -3.842E-09   -3.849E-09
    -3.856E-09   -3.863E-09   -3.868E-09   -3.874E-09   -3.878E-09   -3.881E-09   -3.884E-09   -3.886E-09   -3.887E-09   -3.888E-09
    -3.887E-09   -3.886E-09   -3.884E-09   -3.880E-09   -3.876E-09   -3.871E-09   -3.865E-09   -3.859E-09   -3.851E-09   -3.842E-09
    -3.832E-09   -3.821E-09   -3.810E-09
 Ala      Conc. = 1.01E-10
   3.45290E-09  3.53002E-09  3.60733E-09  3.68471E-09  3.76042E-09  3.83200E-09  3.89323E-09  3.95886E-09  4.04022E-09  4.10322E-09
   4.15945E-09  4.23902E-09  4.31350E-09  4.38005E-09  4.45276E-09  4.52612E-09  4.59841E-09  4.66939E-09  4.73904E-09  4.80739E-09
   4.87448E-09  4.94034E-09  5.00500E-09  5.06850E-09  5.13086E-09  5.19209E-09  5.25219E-09  5.31121E-09  5.36914E-09  5.42599E-09
   5.48178E-09  5.53649E-09  5.59016E-09  5.64279E-09  5.69437E-09  5.74492E-09  5.79445E-09  5.84297E-09  5.89046E-09  5.93696E-09
   5.98243E-09  6.02692E-09  6.07042E-09  6.11295E-09  6.15448E-09  6.19505E-09  6.23465E-09  6.27328E-09  6.31098E-09  6.34772E-09
   6.38353E-09  6.41838E-09  6.45232E-09  6.48535E-09  6.51745E-09  6.54863E-09  6.57892E-09  6.60834E-09  6.63685E-09  6.66452E-09
   6.69131E-09  6.71723E-09  6.74229E-09  6.76649E-09  6.78981E-09  6.81226E-09  6.83381E-09  6.85448E-09  6.87423E-09  6.89308E-09
   6.91101E-09  6.92801E-09  6.94408E-09  6.95920E-09  6.97338E-09  6.98661E-09  6.99885E-09  7.01015E-09  7.02045E-09  7.02979E-09
   7.03815E-09  7.04551E-09  7.05188E-09  7.05729E-09  7.06173E-09  7.06518E-09  7.06771E-09  7.06931E-09  7.07002E-09  7.06990E-09
   7.06900E-09  7.06745E-09  7.06536E-09  7.06292E-09  7.06044E-09  7.05840E-09  7.05758E-09  7.05948E-09  7.06737E-09  7.08970E-09
   7.10995E-09  7.09758E-09  7.10572E-09  7.14458E-09  7.16366E-09  7.15567E-09  7.13708E-09  7.11190E-09  7.05713E-09  6.95077E-09
   6.81129E-09  6.70727E-09  6.63770E-09  6.49903E-09  6.37852E-09  6.33048E-09  6.29126E-09  6.25174E-09  6.21017E-09  6.16623E-09
   6.11973E-09  6.07082E-09  6.01954E-09  5.96600E-09  5.91028E-09  5.85247E-09  5.79264E-09  5.73086E-09  5.66720E-09  5.60172E-09
   5.53446E-09  5.46550E-09  5.39486E-09  5.32262E-09  5.24881E-09  5.17350E-09  5.09670E-09  5.01849E-09  4.93892E-09  4.85802E-09
   4.77585E-09  4.69244E-09  4.60785E-09  4.52216E-09  4.43536E-09  4.34750E-09  4.25867E-09  4.16892E-09  4.07825E-09  3.98677E-09
   3.89451E-09  3.80150E-09  3.70781E-09  3.61354E-09  3.51867E-09  3.42329E-09  3.32751E-09  3.23134E-09  3.13488E-09  3.03824E-09
   2.94148E-09  2.84479E-09  2.74836E-09  2.65254E-09  2.55803E-09  2.46671E-09  2.38651E-09  2.32409E-09  2.24080E-09  2.14504E-09
   2.06067E-09  1.99482E-09  1.93470E-09  1.86596E-09  1.78407E-09  1.68324E-09  1.54811E-09  1.36902E-09  1.18678E-09  1.07623E-09
   9.79021E-10  8.85443E-10  7.93621E-10  7.03007E-10  6.13383E-10  5.24692E-10  4.36910E-10  3.50023E-10  2.64045E-10  1.78988E-10
   9.48461E-11  1.16565E-11 -7.05898E-11 -1.51857E-10 -2.32148E-10 -3.11462E-10 -3.89763E-10 -4.67047E-10 -5.43315E-10 -6.18538E-10
  -6.92713E-10 -7.65845E-10 -8.37911E-10 -9.08894E-10 -9.78802E-10 -1.04762E-09 -1.11534E-09 -1.18194E-09 -1.24743E-09 -1.31180E-09
  -1.37505E-09 -1.43715E-09 -1.49811E-09 -1.55792E-09 -1.61659E-09 -1.67409E-09 -1.73042E-09 -1.78559E-09 -1.83959E-09 -1.89241E-09
  -1.94403E-09 -1.99447E-09 -2.04373E-09 -2.09179E-09 -2.13868E-09 -2.18434E-09 -2.22882E-09 -2.27210E-09 -2.31416E-09 -2.35502E-09
  -2.39467E-09 -2.43312E-09 -2.47036E-09 -2.50639E-09 -2.54122E-09 -2.57483E-09 -2.60723E-09 -2.63844E-09 -2.66844E-09 -2.69723E-09
  -2.72482E-09 -2.75121E-09 -2.77640E-09 -2.80042E-09 -2.82330E-09 -2.84508E-09 -2.86579E-09 -2.88547E-09 -2.90415E-09 -2.92188E-09
  -2.93868E-09 -2.95460E-09 -2.96966E-09 -2.98391E-09 -2.99738E-09 -3.01010E-09 -3.02211E-09 -3.03344E-09 -3.04414E-09 -3.05422E-09
  -3.06374E-09 -3.07272E-09 -3.08119E-09 -3.08920E-09 -3.09676E-09 -3.10393E-09 -3.11072E-09 -3.11717E-09 -3.12332E-09 -3.12919E-09
  -3.13482E-09 -3.14023E-09 -3.14547E-09 -3.15055E-09 -3.15551E-09 -3.16038E-09 -3.16519E-09 -3.16996E-09 -3.17472E-09 -3.17951E-09
  -3.18434E-09 -3.18925E-09 -3.19426E-09 -3.19940E-09 -3.20469E-09 -3.21015E-09 -3.21581E-09 -3.22170E-09 -3.22783E-09 -3.23423E-09
  -3.24092E-09 -3.24792E-09 -3.25524E-09 -3.26292E-09 -3.27097E-09 -3.27940E-09 -3.28824E-09 -3.29750E-09 -3.30719E-09 -3.31733E-09
  -3.32795E-09 -3.33904E-09 -3.35062E-09 -3.36270E-09 -3.37522E-09 -3.38817E-09 -3.40149E-09 -3.41517E-09 -3.42915E-09 -3.44341E-09
  -3.45791E-09 -3.47261E-09 -3.48749E-09 -3.50250E-09 -3.51762E-09 -3.53281E-09 -3.54804E-09 -3.56327E-09 -3.57847E-09 -3.59362E-09
  -3.60867E-09 -3.62359E-09 -3.63836E-09 -3.65295E-09 -3.66732E-09 -3.68145E-09 -3.69529E-09 -3.70884E-09 -3.72205E-09 -3.73489E-09
  -3.74735E-09 -3.75940E-09 -3.77099E-09 -3.78211E-09 -3.79274E-09 -3.80285E-09 -3.81240E-09 -3.82139E-09 -3.82978E-09 -3.83754E-09
  -3.84467E-09 -3.85113E-09 -3.85690E-09 -3.86196E-09 -3.86630E-09 -3.86988E-09 -3.87269E-09 -3.87471E-09 -3.87593E-09 -3.87631E-09
  -3.87585E-09 -3.87454E-09 -3.87234E-09 -3.86925E-09 -3.86525E-09 -3.86033E-09 -3.85448E-09 -3.84768E-09 -3.83991E-09 -3.83118E-09
  -3.82145E-09 -3.81073E-09 -3.79900E-09
 Asp      Conc. = 2.07E-09
   4.22874E-09  3.84141E-09  3.58602E-09  3.43309E-09  3.28377E-09  3.09960E-09  3.06735E-09  3.04852E-09  3.29194E-09  3.52583E-09
   3.73225E-09  3.91702E-09  4.08609E-09  4.24277E-09  4.38678E-09  4.51984E-09  4.64641E-09  4.76786E-09  4.88516E-09  4.99906E-09
   5.11022E-09  5.21921E-09  5.32655E-09  5.43271E-09  5.53816E-09  5.64339E-09  5.74886E-09  5.85516E-09  5.96290E-09  6.07280E-09
   6.18578E-09  6.30297E-09  6.42590E-09  6.55669E-09  6.69843E-09  6.85591E-09  7.03498E-09  7.19431E-09  7.34293E-09  7.45727E-09
   7.59017E-09  7.78235E-09  8.02198E-09  8.29363E-09  8.40197E-09  8.52505E-09  8.37409E-09  8.21908E-09  8.43039E-09  8.84558E-09
   9.11570E-09  9.04930E-09  8.68635E-09  8.00021E-09  7.14584E-09  6.55183E-09  6.10017E-09  6.35505E-09  6.33503E-09  6.03032E-09
   5.88415E-09  5.99347E-09  6.03967E-09  6.11992E-09  6.28334E-09  6.27125E-09  6.09627E-09  6.06972E-09  6.10625E-09  6.15718E-09
   6.21072E-09  6.26313E-09  6.31310E-09  6.36015E-09  6.40420E-09  6.44529E-09  6.48351E-09  6.51901E-09  6.55188E-09  6.58227E-09
   6.61027E-09  6.63597E-09  6.65947E-09  6.68085E-09  6.70019E-09  6.71749E-09  6.73288E-09  6.74634E-09  6.75793E-09  6.76768E-09
   6.77562E-09  6.78179E-09  6.78618E-09  6.78881E-09  6.78970E-09  6.78885E-09  6.78628E-09  6.78199E-09  6.77597E-09  6.76825E-09
   6.75879E-09  6.74761E-09  6.73471E-09  6.72007E-09  6.70369E-09  6.68558E-09  6.66568E-09  6.64404E-09  6.62065E-09  6.59545E-09
   6.56848E-09  6.53966E-09  6.50905E-09  6.47658E-09  6.44229E-09  6.40613E-09  6.36810E-09  6.32819E-09  6.28637E-09  6.24269E-09
   6.19699E-09  6.14938E-09  6.09982E-09  6.04836E-09  5.99503E-09  5.93987E-09  5.88290E-09  5.82418E-09  5.76375E-09  5.70165E-09
   5.63791E-09  5.57259E-09  5.50572E-09  5.43736E-09  5.36754E-09  5.29632E-09  5.22375E-09  5.14987E-09  5.07476E-09  4.99845E-09
   4.92101E-09  4.84250E-09  4.76296E-09  4.68252E-09  4.60117E-09  4.51900E-09  4.43613E-09  4.35263E-09  4.26856E-09  4.18407E-09
   4.09927E-09  4.01423E-09  3.92915E-09  3.84421E-09  3.75956E-09  3.67546E-09  3.59224E-09  3.51026E-09  3.43001E-09  3.35221E-09
   3.27775E-09  3.20812E-09  3.14555E-09  3.09394E-09  3.06083E-09  3.06365E-09  3.15611E-09  3.57945E-09  4.08658E-09  4.19597E-09
   4.20245E-09  4.49446E-09  5.08129E-09  5.68166E-09  6.07446E-09  6.17490E-09  5.81043E-09  4.66731E-09  2.78634E-09  1.39558E-09
   1.05938E-09  9.03370E-10  7.94240E-10  7.01590E-10  6.15820E-10  5.33325E-10  4.52573E-10  3.72876E-10  2.93933E-10  2.15618E-10
   1.37870E-10  6.07133E-11 -1.58532E-11 -9.17754E-11 -1.67036E-10 -2.41608E-10 -3.15435E-10 -3.88492E-10 -4.60758E-10 -5.32187E-10
  -6.02758E-10 -6.72463E-10 -7.41265E-10 -8.09134E-10 -8.76068E-10 -9.42042E-10 -1.00704E-09 -1.07103E-09 -1.13402E-09 -1.19599E-09
  -1.25692E-09 -1.31680E-09 -1.37562E-09 -1.43336E-09 -1.49004E-09 -1.54563E-09 -1.60010E-09 -1.65348E-09 -1.70575E-09 -1.75689E-09
  -1.80690E-09 -1.85578E-09 -1.90351E-09 -1.95011E-09 -1.99558E-09 -2.03986E-09 -2.08300E-09 -2.12499E-09 -2.16580E-09 -2.20545E-09
  -2.24393E-09 -2.28123E-09 -2.31736E-09 -2.35232E-09 -2.38611E-09 -2.41871E-09 -2.45014E-09 -2.48040E-09 -2.50948E-09 -2.53738E-09
