 LCModel (Version 6.3-1R) Copyright: S.W. Provencher.          Ref.: Magn. Reson. Med. 30:672-679 (1993).                
 onepulse 13x9_ftSpec_smooth_lcm
 26 lines in following concentration table = NCONC+1
    Conc.  %SD /Cr+PCr  Metabolite                                         
    0.000 999%   0.000 Ala                                                 
 3.47E-10 165%   6.504 Asp                                                 
    0.000 999%   0.000 Cr                                                  
 3.42E-10 141%   6.400 GABA                                                
    0.000 999%   0.000 Glc                                                 
 1.37E-09  45%  25.563 Gln                                                 
    0.000 999%   0.000 Glu                                                 
    0.000 999%   0.000 Glyc                                                
    0.000 999%   0.000 GPC                                                 
 6.43E-10  61%  12.039 GSH                                                 
 1.71E-09  20%  32.094 Ins                                                 
    0.000 999%   0.000 Lac                                                 
 1.51E-10 190%   2.826 NAAG                                                
 2.01E-10 196%   3.759 NAA                                                 
    0.000 999%   0.000 PCh                                                 
 5.34E-11 558%   1.000 PCr                                                 
 1.42E-09  48%  26.675 PE                                                  
 2.00E-10 113%   3.751 Scyllo                                              
 2.18E-09  25%  40.900 Ser                                                 
 2.15E-10 360%   4.023 Tau                                                 
    0.000 999%   0.000 GPC+PCh                                             
 3.52E-10  66%   6.585 NAA+NAAG                                            
 1.71E-09  20%  32.094 Ins+Glyc                                            
 5.34E-11 558%   1.000 Cr+PCr                                              
 1.37E-09  45%  25.563 Glu+Gln                                             
   6 lines in following misc. output table
  FWHM = 0.123 ppm    S/N =   3                                            
  Data shift = 0.414 ppm                                                   
  Ph: -13 deg     -50.1 deg/ppm                                            
  alphaB,S = 5.0E-01,   1.4E+01                                            
   11 spline knots.   Ns = 5(1)                                            
  ( 8) 4 infls.   ( 7) 3 extrs.                                            
  363 points on ppm-axis = NY
      4.250000     4.238821     4.227641     4.216462     4.205282     4.194103     4.182923     4.171744     4.160564     4.149385
      4.138206     4.127026     4.115847     4.104667     4.093488     4.082308     4.071129     4.059949     4.048770     4.037591
      4.026411     4.015232     4.004052     3.992873     3.981693     3.970514     3.959334     3.948155     3.936975     3.925796
      3.914617     3.903437     3.892258     3.881078     3.869899     3.858719     3.847540     3.836360     3.825181     3.814002
      3.802822     3.791643     3.780463     3.769284     3.758104     3.746925     3.735745     3.724566     3.713387     3.702207
      3.691028     3.679848     3.668669     3.657489     3.646310     3.635130     3.623951     3.612772     3.601592     3.590413
      3.579233     3.568054     3.556874     3.545695     3.534515     3.523336     3.512156     3.500977     3.489798     3.478618
      3.467439     3.456259     3.445080     3.433900     3.422721     3.411541     3.400362     3.389183     3.378003     3.366824
      3.355644     3.344465     3.333285     3.322106     3.310926     3.299747     3.288568     3.277388     3.266209     3.255029
      3.243850     3.232670     3.221491     3.210311     3.199132     3.187953     3.176773     3.165594     3.154414     3.143235
      3.132055     3.120876     3.109696     3.098517     3.087337     3.076158     3.064979     3.053799     3.042620     3.031440
      3.020261     3.009081     2.997902     2.986722     2.975543     2.964364     2.953184     2.942005     2.930825     2.919646
      2.908466     2.897287     2.886107     2.874928     2.863749     2.852569     2.841390     2.830210     2.819031     2.807851
      2.796672     2.785492     2.774313     2.763134     2.751954     2.740775     2.729595     2.718416     2.707236     2.696057
      2.684877     2.673698     2.662519     2.651339     2.640160     2.628980     2.617801     2.606621     2.595442     2.584262
      2.573083     2.561903     2.550724     2.539545     2.528365     2.517186     2.506006     2.494827     2.483647     2.472468
      2.461288     2.450109     2.438930     2.427750     2.416571     2.405391     2.394212     2.383032     2.371853     2.360673
      2.349494     2.338315     2.327135     2.315956     2.304776     2.293597     2.282417     2.271238     2.260058     2.248879
      2.237700     2.226520     2.215341     2.204161     2.192982     2.181802     2.170623     2.159443     2.148264     2.137084
      2.125905     2.114726     2.103546     2.092367     2.081187     2.070008     2.058828     2.047649     2.036469     2.025290
      2.014111     2.002931     1.991752     1.980572     1.969393     1.958213     1.947034     1.935854     1.924675     1.913496
      1.902316     1.891137     1.879957     1.868778     1.857598     1.846419     1.835239     1.824060     1.812881     1.801701
      1.790522     1.779342     1.768163     1.756983     1.745804     1.734624     1.723445     1.712265     1.701086     1.689907
      1.678727     1.667548     1.656368     1.645189     1.634009     1.622830     1.611650     1.600471     1.589292     1.578112
      1.566933     1.555753     1.544574     1.533394     1.522215     1.511035     1.499856     1.488677     1.477497     1.466318
      1.455138     1.443959     1.432779     1.421600     1.410420     1.399241     1.388062     1.376882     1.365703     1.354523
      1.343344     1.332164     1.320985     1.309805     1.298626     1.287446     1.276267     1.265088     1.253908     1.242729
      1.231549     1.220370     1.209190     1.198011     1.186831     1.175652     1.164473     1.153293     1.142114     1.130934
      1.119755     1.108575     1.097396     1.086216     1.075037     1.063858     1.052678     1.041499     1.030319     1.019140
      1.007960     0.996781     0.985601     0.974422     0.963243     0.952063     0.940884     0.929704     0.918525     0.907345
      0.896166     0.884986     0.873807     0.862628     0.851448     0.840269     0.829089     0.817910     0.806730     0.795551
      0.784371     0.773192     0.762012     0.750833     0.739654     0.728474     0.717295     0.706115     0.694936     0.683756
      0.672577     0.661397     0.650218     0.639039     0.627859     0.616680     0.605500     0.594321     0.583141     0.571962
      0.560782     0.549603     0.538424     0.527244     0.516065     0.504885     0.493706     0.482526     0.471347     0.460167
      0.448988     0.437809     0.426629     0.415450     0.404270     0.393091     0.381911     0.370732     0.359552     0.348373
      0.337193     0.326014     0.314835     0.303655     0.292476     0.281296     0.270117     0.258937     0.247758     0.236578
      0.225399     0.214220     0.203040
 NY phased data points follow
   8.27999E-09  8.28284E-09  7.23589E-09  7.10583E-09  6.92286E-09  7.15352E-09  7.37905E-09  7.11091E-09  7.67199E-09  8.19908E-09
   8.23709E-09  8.51498E-09  8.31396E-09  8.60608E-09  8.51077E-09  8.56409E-09  7.79976E-09  7.94799E-09  7.15281E-09  8.11175E-09
   8.40522E-09  8.87611E-09  8.23625E-09  8.14280E-09  6.79561E-09  7.36562E-09  7.97356E-09  9.02568E-09  9.79701E-09  1.04510E-08
   9.97893E-09  1.00463E-08  9.00929E-09  9.16812E-09  8.54733E-09  8.49359E-09  8.25612E-09  8.77137E-09  7.99362E-09  8.55037E-09
   8.18210E-09  7.92687E-09  7.42581E-09  7.56234E-09  7.05827E-09  7.23023E-09  6.82327E-09  7.36207E-09  7.04389E-09  7.02380E-09
   6.33447E-09  5.84828E-09  5.28780E-09  5.45538E-09  5.30353E-09  5.38724E-09  5.03986E-09  5.53462E-09  6.88770E-09  8.81703E-09
   9.11937E-09  9.17852E-09  8.71047E-09  8.82985E-09  8.34260E-09  7.93155E-09  7.72883E-09  7.34711E-09  6.80406E-09  6.03239E-09
   5.73780E-09  4.68910E-09  3.69787E-09  3.31540E-09  5.78170E-09  8.66140E-09  1.01752E-08  1.04233E-08  1.03105E-08  1.06113E-08
   1.05155E-08  1.03302E-08  9.79227E-09  1.01363E-08  9.99560E-09  1.01707E-08  9.31478E-09  1.04182E-08  9.51821E-09  9.87510E-09
   9.62542E-09  9.61735E-09  9.01437E-09  9.04045E-09  7.88258E-09  7.99821E-09  7.79157E-09  8.41885E-09  7.89646E-09  7.77604E-09
   7.52606E-09  7.98959E-09  7.85161E-09  7.88418E-09  6.45331E-09  7.24692E-09  6.05884E-09  5.89740E-09  5.42417E-09  6.73659E-09
   5.72160E-09  6.22728E-09  5.82143E-09  6.73392E-09  5.66008E-09  6.51777E-09  6.41084E-09  6.87726E-09  5.82738E-09  6.50498E-09
   5.74007E-09  5.12450E-09  4.57573E-09  5.21807E-09  4.65911E-09  4.56142E-09  4.53891E-09  5.15492E-09  5.25198E-09  5.57917E-09
   5.19635E-09  5.19078E-09  4.97720E-09  4.57257E-09  4.56853E-09  6.01570E-09  6.28762E-09  6.50271E-09  6.31430E-09  6.56602E-09
   7.05162E-09  7.79795E-09  7.49553E-09  7.64176E-09  7.95330E-09  8.09045E-09  8.70085E-09  8.11497E-09  8.02964E-09  8.27972E-09
   8.33581E-09  8.10253E-09  8.20835E-09  8.80265E-09  8.66190E-09  8.48000E-09  8.29845E-09  8.66240E-09  8.75563E-09  8.95698E-09
   8.55907E-09  8.34305E-09  8.94809E-09  7.41343E-09  5.52502E-09  6.90730E-09  1.08559E-08  1.43224E-08  1.63406E-08  1.65697E-08
   1.75936E-08  1.81029E-08  1.78218E-08  1.76749E-08  1.76237E-08  1.76702E-08  1.76716E-08  1.63816E-08  1.65507E-08  1.51984E-08
   1.42732E-08  1.30101E-08  1.08348E-08  9.08629E-09  7.17120E-09  5.00921E-09  2.86704E-09  5.05866E-10 -1.25191E-09 -3.33644E-09
  -4.48546E-09 -6.50224E-09 -6.75131E-09 -7.14900E-09 -7.43264E-09 -7.25287E-09 -5.99453E-09 -5.76942E-09 -4.87911E-09 -4.14388E-09
  -3.03618E-09 -2.83007E-09 -1.60584E-09 -1.46371E-09 -8.80751E-10 -1.25828E-09 -2.74993E-10 -1.64084E-09 -7.75205E-10 -1.62851E-09
  -8.49133E-10 -1.25567E-09 -1.28515E-09 -9.40308E-10 -6.61720E-10 -1.00507E-09 -4.68305E-10 -7.03083E-10 -2.25594E-10 -8.62744E-10
  -1.85214E-10 -8.95164E-10 -9.61951E-10 -7.17212E-10 -7.28707E-10 -9.31297E-10 -3.48585E-10 -4.74954E-10 -3.64417E-10 -6.73210E-10
  -4.40359E-10 -7.53935E-10 -2.76058E-10 -5.21999E-10 -7.89564E-10 -1.08219E-09 -1.27846E-09 -1.60891E-09 -1.30681E-09 -1.40735E-09
  -1.05558E-09 -1.02658E-09 -9.29424E-10 -8.82293E-10 -5.27900E-10 -1.19751E-09 -4.60583E-10 -8.79605E-10 -6.71532E-10 -1.26195E-09
  -9.91917E-10 -6.90962E-10 -1.16742E-09 -1.23202E-09 -1.16566E-09 -1.02344E-09 -1.66712E-09 -1.63290E-09 -2.22390E-09 -1.74279E-09
  -1.76946E-09 -2.59222E-09 -2.29234E-09 -2.12632E-09 -2.32829E-09 -2.28690E-09 -2.47952E-09 -2.37990E-09 -2.01698E-09 -1.37597E-09
  -1.54921E-09 -1.39710E-09 -8.60819E-10 -1.03368E-09 -9.80876E-10 -6.20774E-10 -1.29085E-09 -6.13180E-10 -7.60787E-10 -5.32431E-10
  -7.52431E-10 -4.86646E-10 -8.63501E-10 -7.68903E-10 -1.10978E-09 -9.31113E-10 -8.14198E-10 -8.35249E-10 -1.26767E-09 -1.21402E-09
  -1.11954E-09 -1.05917E-09 -9.68702E-10 -7.16633E-10 -1.40648E-09 -1.36471E-09 -1.85724E-09 -1.02441E-09 -1.47669E-09 -1.51085E-09
  -1.71038E-09 -1.69330E-09 -1.50769E-09 -1.98816E-09 -2.02713E-09 -2.01373E-09 -2.18498E-09 -2.00679E-09 -2.16185E-09 -2.34377E-09
  -2.64801E-09 -1.98812E-09 -2.29173E-09 -2.21789E-09 -2.75343E-09 -2.45679E-09 -2.13205E-09 -2.49272E-09 -3.14833E-09 -2.69503E-09
  -2.94131E-09 -2.44013E-09 -2.60290E-09 -2.82392E-09 -2.98695E-09 -2.61702E-09 -3.36952E-09 -2.68583E-09 -3.13439E-09 -3.05886E-09
  -3.33053E-09 -2.95370E-09 -3.31231E-09 -3.53447E-09 -3.66006E-09 -3.32012E-09 -3.57670E-09 -3.93002E-09 -3.64588E-09 -3.79915E-09
  -3.84342E-09 -3.93500E-09 -3.97804E-09 -4.06868E-09 -3.92706E-09 -3.68563E-09 -4.39418E-09 -4.11601E-09 -4.01540E-09 -3.88899E-09
  -4.05643E-09 -4.06146E-09 -4.10925E-09 -4.31115E-09 -4.12504E-09 -4.32797E-09 -4.61267E-09 -4.32082E-09 -4.51390E-09 -4.81041E-09
  -4.38614E-09 -4.51836E-09 -4.14777E-09
 NY points of the fit to the data follow
   8.24844E-09  8.87370E-09  8.56283E-09  7.50473E-09  6.94693E-09  7.48683E-09  7.67093E-09  7.07890E-09  7.25347E-09  8.43459E-09
   8.25364E-09  8.05613E-09  7.94855E-09  7.90801E-09  8.40491E-09  8.67782E-09  7.92491E-09  7.93134E-09  9.39013E-09  9.52508E-09
   8.17686E-09  7.24417E-09  7.48152E-09  7.69429E-09  7.73033E-09  7.99779E-09  8.79086E-09  9.64305E-09  1.01038E-08  9.50471E-09
   9.50619E-09  9.75911E-09  9.81544E-09  9.31490E-09  9.22163E-09  9.03258E-09  8.69588E-09  8.30144E-09  8.10915E-09  7.93811E-09
   7.74526E-09  7.68163E-09  7.68140E-09  7.53301E-09  7.36728E-09  7.05613E-09  6.90608E-09  6.52289E-09  6.02120E-09  5.73896E-09
   5.61486E-09  5.64950E-09  5.68263E-09  5.72896E-09  6.04140E-09  6.43977E-09  6.44113E-09  6.83120E-09  7.54053E-09  7.93332E-09
   8.08826E-09  8.28534E-09  8.47584E-09  8.68641E-09  8.70363E-09  8.40591E-09  8.17343E-09  8.20330E-09  7.75529E-09  7.18356E-09
   7.08116E-09  7.17492E-09  7.19139E-09  7.18932E-09  7.48866E-09  7.94710E-09  8.36948E-09  9.17969E-09  9.92681E-09  1.04408E-08
   1.08292E-08  1.09975E-08  1.09747E-08  1.09399E-08  1.10209E-08  1.09271E-08  1.06951E-08  1.02477E-08  9.39546E-09  8.80595E-09
   8.44876E-09  8.17002E-09  8.04677E-09  7.92717E-09  7.69667E-09  7.59925E-09  7.53524E-09  7.37350E-09  7.26910E-09  7.19105E-09
   7.09787E-09  7.02444E-09  6.96375E-09  6.90848E-09  6.86108E-09  6.82026E-09  6.78449E-09  6.75291E-09  6.72449E-09  6.69876E-09
   6.67529E-09  6.65355E-09  6.63322E-09  6.61396E-09  6.59551E-09  6.57768E-09  6.56028E-09  6.54307E-09  6.52586E-09  6.50850E-09
   6.49082E-09  6.47272E-09  6.45405E-09  6.43468E-09  6.41451E-09  6.39343E-09  6.37132E-09  6.34810E-09  6.32367E-09  6.29794E-09
   6.27081E-09  6.24222E-09  6.21208E-09  6.18031E-09  6.14683E-09  6.11160E-09  6.07452E-09  6.03555E-09  5.99472E-09  5.95206E-09
   5.90757E-09  5.86132E-09  5.81332E-09  5.76361E-09  5.71225E-09  5.65928E-09  5.60478E-09  5.54880E-09  5.49144E-09  5.43279E-09
   5.37298E-09  5.31215E-09  5.25049E-09  5.18824E-09  5.12571E-09  5.06333E-09  5.00169E-09  4.94163E-09  4.88440E-09  4.83192E-09
   4.78740E-09  4.75627E-09  4.74887E-09  4.78685E-09  4.92342E-09  5.32541E-09  6.77810E-09  1.26266E-08  1.63077E-08  1.72146E-08
   1.76787E-08  1.79981E-08  1.78187E-08  1.74336E-08  1.74172E-08  1.80465E-08  1.89413E-08  1.69038E-08  8.69474E-09  5.40324E-09
   4.36595E-09  3.85422E-09  3.53007E-09  3.29224E-09  3.10080E-09  2.93704E-09  2.79109E-09  2.65726E-09  2.53209E-09  2.41333E-09
   2.29951E-09  2.18956E-09  2.08279E-09  1.97866E-09  1.87679E-09  1.77690E-09  1.67878E-09  1.58228E-09  1.48729E-09  1.39372E-09
   1.30151E-09  1.21064E-09  1.12105E-09  1.03276E-09  9.45755E-10  8.60025E-10  7.75589E-10  6.92462E-10  6.10661E-10  5.30212E-10
   4.51139E-10  3.73470E-10  2.97221E-10  2.22422E-10  1.49132E-10  7.73603E-11  7.14546E-12 -6.14856E-11 -1.28490E-10 -1.93824E-10
  -2.57483E-10 -3.19399E-10 -3.79548E-10 -4.37913E-10 -4.94451E-10 -5.49092E-10 -6.01859E-10 -6.52700E-10 -7.01633E-10 -7.48727E-10
  -7.94041E-10 -8.37630E-10 -8.79555E-10 -9.19876E-10 -9.58645E-10 -9.95926E-10 -1.03177E-09 -1.06624E-09 -1.09939E-09 -1.13127E-09
  -1.16194E-09 -1.19146E-09 -1.21988E-09 -1.24726E-09 -1.27366E-09 -1.29911E-09 -1.32369E-09 -1.34743E-09 -1.37040E-09 -1.39265E-09
  -1.41423E-09 -1.43519E-09 -1.45559E-09 -1.47546E-09 -1.49488E-09 -1.51386E-09 -1.53249E-09 -1.55079E-09 -1.56882E-09 -1.58662E-09
  -1.60425E-09 -1.62174E-09 -1.63914E-09 -1.65650E-09 -1.67386E-09 -1.69127E-09 -1.70876E-09 -1.72639E-09 -1.74417E-09 -1.76218E-09
  -1.78042E-09 -1.79896E-09 -1.81783E-09 -1.83703E-09 -1.85656E-09 -1.87642E-09 -1.89658E-09 -1.91704E-09 -1.93780E-09 -1.95883E-09
  -1.98013E-09 -2.00169E-09 -2.02349E-09 -2.04554E-09 -2.06780E-09 -2.09029E-09 -2.11297E-09 -2.13585E-09 -2.15891E-09 -2.18214E-09
  -2.20553E-09 -2.22906E-09 -2.25273E-09 -2.27653E-09 -2.30043E-09 -2.32444E-09 -2.34853E-09 -2.37270E-09 -2.39694E-09 -2.42122E-09
  -2.44555E-09 -2.46990E-09 -2.49427E-09 -2.51865E-09 -2.54301E-09 -2.56736E-09 -2.59167E-09 -2.61593E-09 -2.64013E-09 -2.66427E-09
  -2.68832E-09 -2.71227E-09 -2.73611E-09 -2.75984E-09 -2.78343E-09 -2.80686E-09 -2.83015E-09 -2.85325E-09 -2.87616E-09 -2.89886E-09
  -2.92133E-09 -2.94355E-09 -2.96548E-09 -2.98711E-09 -3.00841E-09 -3.02938E-09 -3.04997E-09 -3.07018E-09 -3.08998E-09 -3.10936E-09
  -3.12828E-09 -3.14674E-09 -3.16471E-09 -3.18218E-09 -3.19912E-09 -3.21551E-09 -3.23135E-09 -3.24661E-09 -3.26127E-09 -3.27532E-09
  -3.28874E-09 -3.30151E-09 -3.31362E-09 -3.32505E-09 -3.33579E-09 -3.34583E-09 -3.35514E-09 -3.36371E-09 -3.37153E-09 -3.37859E-09
  -3.38488E-09 -3.39037E-09 -3.39507E-09 -3.39895E-09 -3.40201E-09 -3.40423E-09 -3.40560E-09 -3.40613E-09 -3.40578E-09 -3.40456E-09
  -3.40246E-09 -3.39947E-09 -3.39557E-09
 NY background values follow
     4.264E-10    4.532E-10    4.805E-10    5.083E-10    5.365E-10    5.653E-10    5.945E-10    6.241E-10    6.543E-10    6.848E-10
     7.159E-10    7.474E-10    7.793E-10    8.116E-10    8.444E-10    8.777E-10    9.113E-10    9.454E-10    9.799E-10    1.015E-09
     1.050E-09    1.086E-09    1.122E-09    1.158E-09    1.195E-09    1.232E-09    1.270E-09    1.308E-09    1.346E-09    1.385E-09
     1.424E-09    1.463E-09    1.503E-09    1.543E-09    1.583E-09    1.624E-09    1.665E-09    1.706E-09    1.748E-09    1.789E-09
     1.832E-09    1.874E-09    1.917E-09    1.960E-09    2.003E-09    2.046E-09    2.090E-09    2.134E-09    2.178E-09    2.222E-09
     2.267E-09    2.311E-09    2.356E-09    2.401E-09    2.446E-09    2.492E-09    2.537E-09    2.583E-09    2.629E-09    2.675E-09
     2.720E-09    2.767E-09    2.813E-09    2.859E-09    2.905E-09    2.951E-09    2.998E-09    3.044E-09    3.091E-09    3.137E-09
     3.183E-09    3.230E-09    3.276E-09    3.322E-09    3.369E-09    3.415E-09    3.461E-09    3.507E-09    3.553E-09    3.598E-09
     3.644E-09    3.690E-09    3.735E-09    3.780E-09    3.825E-09    3.870E-09    3.915E-09    3.959E-09    4.004E-09    4.048E-09
     4.091E-09    4.135E-09    4.178E-09    4.221E-09    4.264E-09    4.306E-09    4.347E-09    4.389E-09    4.429E-09    4.469E-09
     4.509E-09    4.547E-09    4.585E-09    4.623E-09    4.659E-09    4.694E-09    4.729E-09    4.763E-09    4.795E-09    4.827E-09
     4.857E-09    4.886E-09    4.914E-09    4.941E-09    4.967E-09    4.991E-09    5.014E-09    5.035E-09    5.055E-09    5.073E-09
     5.089E-09    5.104E-09    5.118E-09    5.129E-09    5.139E-09    5.146E-09    5.152E-09    5.156E-09    5.158E-09    5.158E-09
     5.156E-09    5.152E-09    5.145E-09    5.136E-09    5.125E-09    5.112E-09    5.096E-09    5.077E-09    5.057E-09    5.034E-09
     5.008E-09    4.981E-09    4.951E-09    4.919E-09    4.885E-09    4.848E-09    4.810E-09    4.770E-09    4.727E-09    4.683E-09
     4.636E-09    4.588E-09    4.538E-09    4.486E-09    4.433E-09    4.378E-09    4.321E-09    4.262E-09    4.203E-09    4.141E-09
     4.078E-09    4.014E-09    3.948E-09    3.881E-09    3.813E-09    3.744E-09    3.673E-09    3.602E-09    3.529E-09    3.455E-09
     3.381E-09    3.305E-09    3.229E-09    3.152E-09    3.074E-09    2.995E-09    2.916E-09    2.836E-09    2.756E-09    2.675E-09
     2.594E-09    2.513E-09    2.431E-09    2.349E-09    2.266E-09    2.184E-09    2.101E-09    2.019E-09    1.936E-09    1.854E-09
     1.771E-09    1.689E-09    1.607E-09    1.525E-09    1.444E-09    1.363E-09    1.282E-09    1.202E-09    1.122E-09    1.043E-09
     9.646E-10    8.868E-10    8.097E-10    7.333E-10    6.578E-10    5.831E-10    5.094E-10    4.366E-10    3.649E-10    2.942E-10
     2.246E-10    1.561E-10    8.887E-11    2.285E-11   -4.186E-11   -1.052E-10   -1.672E-10   -2.278E-10   -2.869E-10   -3.445E-10
    -4.006E-10   -4.550E-10   -5.078E-10   -5.590E-10   -6.084E-10   -6.561E-10   -7.020E-10   -7.461E-10   -7.883E-10   -8.288E-10
    -8.677E-10   -9.049E-10   -9.405E-10   -9.746E-10   -1.007E-09   -1.038E-09   -1.068E-09   -1.097E-09   -1.124E-09   -1.150E-09
    -1.175E-09   -1.199E-09   -1.222E-09   -1.244E-09   -1.265E-09   -1.285E-09   -1.304E-09   -1.323E-09   -1.340E-09   -1.358E-09
    -1.374E-09   -1.390E-09   -1.405E-09   -1.420E-09   -1.435E-09   -1.449E-09   -1.463E-09   -1.476E-09   -1.490E-09   -1.503E-09
    -1.516E-09   -1.529E-09   -1.542E-09   -1.554E-09   -1.567E-09   -1.580E-09   -1.594E-09   -1.607E-09   -1.620E-09   -1.634E-09
    -1.648E-09   -1.663E-09   -1.677E-09   -1.692E-09   -1.708E-09   -1.724E-09   -1.740E-09   -1.756E-09   -1.773E-09   -1.790E-09
    -1.808E-09   -1.826E-09   -1.844E-09   -1.862E-09   -1.880E-09   -1.899E-09   -1.918E-09   -1.938E-09   -1.957E-09   -1.977E-09
    -1.997E-09   -2.017E-09   -2.037E-09   -2.057E-09   -2.078E-09   -2.098E-09   -2.119E-09   -2.140E-09   -2.161E-09   -2.182E-09
    -2.203E-09   -2.224E-09   -2.245E-09   -2.266E-09   -2.287E-09   -2.309E-09   -2.330E-09   -2.351E-09   -2.372E-09   -2.393E-09
    -2.414E-09   -2.435E-09   -2.456E-09   -2.477E-09   -2.497E-09   -2.518E-09   -2.538E-09   -2.559E-09   -2.579E-09   -2.599E-09
    -2.618E-09   -2.638E-09   -2.657E-09   -2.676E-09   -2.694E-09   -2.713E-09   -2.731E-09   -2.748E-09   -2.765E-09   -2.782E-09
    -2.799E-09   -2.814E-09   -2.830E-09   -2.845E-09   -2.859E-09   -2.873E-09   -2.886E-09   -2.899E-09   -2.912E-09   -2.923E-09
    -2.934E-09   -2.945E-09   -2.954E-09   -2.963E-09   -2.972E-09   -2.980E-09   -2.987E-09   -2.993E-09   -2.999E-09   -3.003E-09
    -3.007E-09   -3.011E-09   -3.013E-09   -3.015E-09   -3.016E-09   -3.016E-09   -3.015E-09   -3.014E-09   -3.011E-09   -3.008E-09
    -3.004E-09   -2.999E-09   -2.993E-09
 Asp      Conc. = 3.47E-10
   6.62443E-10  7.11729E-10  7.23716E-10  7.43731E-10  7.76139E-10  7.80548E-10  8.10449E-10  7.86589E-10  7.78770E-10  7.82192E-10
   7.92433E-10  8.07063E-10  8.24755E-10  8.45316E-10  8.68335E-10  8.92761E-10  9.18403E-10  9.45102E-10  9.72719E-10  1.00114E-09
   1.03027E-09  1.06002E-09  1.09033E-09  1.12113E-09  1.15235E-09  1.18395E-09  1.21586E-09  1.24805E-09  1.28044E-09  1.31300E-09
   1.34569E-09  1.37847E-09  1.41137E-09  1.44453E-09  1.47854E-09  1.51584E-09  1.56993E-09  1.62539E-09  1.69299E-09  1.74500E-09
   1.77856E-09  1.80461E-09  1.83621E-09  1.92054E-09  2.00960E-09  2.19199E-09  2.32348E-09  2.36896E-09  2.44833E-09  2.52817E-09
   2.60946E-09  2.71054E-09  2.84549E-09  2.95288E-09  2.97900E-09  3.01513E-09  2.92670E-09  2.95579E-09  3.03327E-09  3.04163E-09
   3.03955E-09  3.06470E-09  3.07568E-09  3.08545E-09  3.13406E-09  3.19969E-09  3.21796E-09  3.24043E-09  3.26847E-09  3.30017E-09
   3.33436E-09  3.37036E-09  3.40773E-09  3.44615E-09  3.48540E-09  3.52532E-09  3.56577E-09  3.60665E-09  3.64787E-09  3.68936E-09
   3.73107E-09  3.77293E-09  3.81491E-09  3.85696E-09  3.89904E-09  3.94113E-09  3.98319E-09  4.02520E-09  4.06713E-09  4.10895E-09
   4.15065E-09  4.19219E-09  4.23355E-09  4.27468E-09  4.31552E-09  4.35602E-09  4.39614E-09  4.43583E-09  4.47502E-09  4.51369E-09
   4.55177E-09  4.58921E-09  4.62598E-09  4.66200E-09  4.69725E-09  4.73166E-09  4.76519E-09  4.79779E-09  4.82941E-09  4.85999E-09
   4.88949E-09  4.91785E-09  4.94504E-09  4.97098E-09  4.99564E-09  5.01897E-09  5.04092E-09  5.06142E-09  5.08044E-09  5.09792E-09
   5.11381E-09  5.12807E-09  5.14063E-09  5.15145E-09  5.16049E-09  5.16768E-09  5.17298E-09  5.17635E-09  5.17772E-09  5.17704E-09
   5.17427E-09  5.16937E-09  5.16228E-09  5.15294E-09  5.14131E-09  5.12736E-09  5.11101E-09  5.09225E-09  5.07111E-09  5.04763E-09
   5.02184E-09  4.99379E-09  4.96350E-09  4.93102E-09  4.89639E-09  4.85965E-09  4.82085E-09  4.78001E-09  4.73719E-09  4.69244E-09
   4.64580E-09  4.59730E-09  4.54701E-09  4.49498E-09  4.44126E-09  4.38591E-09  4.32900E-09  4.27059E-09  4.21080E-09  4.14972E-09
   4.08756E-09  4.02455E-09  3.96118E-09  3.89846E-09  3.83887E-09  3.79075E-09  3.79791E-09  3.98170E-09  4.03507E-09  3.98812E-09
   3.93557E-09  3.87470E-09  3.79205E-09  3.70394E-09  3.63351E-09  3.58907E-09  3.54467E-09  3.35441E-09  2.93539E-09  2.76438E-09
   2.65236E-09  2.55583E-09  2.46516E-09  2.37726E-09  2.29083E-09  2.20528E-09  2.12032E-09  2.03578E-09  1.95158E-09  1.86769E-09
   1.78411E-09  1.70082E-09  1.61789E-09  1.53531E-09  1.45312E-09  1.37136E-09  1.29008E-09  1.20932E-09  1.12912E-09  1.04951E-09
   9.70563E-10  8.92312E-10  8.14802E-10  7.38088E-10  6.62211E-10  5.87211E-10  5.13143E-10  4.40054E-10  3.67986E-10  2.96994E-10
   2.27120E-10  1.58411E-10  9.09017E-11  2.46373E-11 -4.03119E-11 -1.03924E-10 -1.66150E-10 -2.26953E-10 -2.86281E-10 -3.44082E-10
  -4.00346E-10 -4.54997E-10 -5.08005E-10 -5.59348E-10 -6.08977E-10 -6.56818E-10 -7.02889E-10 -7.47134E-10 -7.89568E-10 -8.30256E-10
  -8.69255E-10 -9.06615E-10 -9.42395E-10 -9.76653E-10 -1.00944E-09 -1.04081E-09 -1.07082E-09 -1.09953E-09 -1.12698E-09 -1.15324E-09
  -1.17835E-09 -1.20238E-09 -1.22537E-09 -1.24738E-09 -1.26847E-09 -1.28867E-09 -1.30805E-09 -1.32666E-09 -1.34455E-09 -1.36177E-09
  -1.37838E-09 -1.39441E-09 -1.40994E-09 -1.42499E-09 -1.43962E-09 -1.45388E-09 -1.46782E-09 -1.48149E-09 -1.49492E-09 -1.50818E-09
  -1.52130E-09 -1.53433E-09 -1.54732E-09 -1.56030E-09 -1.57333E-09 -1.58644E-09 -1.59967E-09 -1.61308E-09 -1.62668E-09 -1.64054E-09
  -1.65468E-09 -1.66915E-09 -1.68398E-09 -1.69919E-09 -1.71476E-09 -1.73068E-09 -1.74695E-09 -1.76355E-09 -1.78048E-09 -1.79771E-09
  -1.81525E-09 -1.83308E-09 -1.85119E-09 -1.86956E-09 -1.88819E-09 -1.90706E-09 -1.92617E-09 -1.94550E-09 -1.96504E-09 -1.98478E-09
  -2.00470E-09 -2.02480E-09 -2.04507E-09 -2.06548E-09 -2.08603E-09 -2.10671E-09 -2.12751E-09 -2.14841E-09 -2.16940E-09 -2.19046E-09
  -2.21159E-09 -2.23278E-09 -2.25401E-09 -2.27526E-09 -2.29653E-09 -2.31780E-09 -2.33906E-09 -2.36031E-09 -2.38151E-09 -2.40267E-09
  -2.42377E-09 -2.44479E-09 -2.46572E-09 -2.48656E-09 -2.50729E-09 -2.52789E-09 -2.54835E-09 -2.56865E-09 -2.58879E-09 -2.60874E-09
  -2.62848E-09 -2.64798E-09 -2.66722E-09 -2.68618E-09 -2.70483E-09 -2.72317E-09 -2.74115E-09 -2.75877E-09 -2.77601E-09 -2.79283E-09
  -2.80922E-09 -2.82517E-09 -2.84065E-09 -2.85564E-09 -2.87013E-09 -2.88409E-09 -2.89752E-09 -2.91038E-09 -2.92266E-09 -2.93435E-09
  -2.94542E-09 -2.95587E-09 -2.96568E-09 -2.97482E-09 -2.98329E-09 -2.99107E-09 -2.99814E-09 -3.00450E-09 -3.01012E-09 -3.01500E-09
  -3.01911E-09 -3.02246E-09 -3.02502E-09 -3.02679E-09 -3.02774E-09 -3.02788E-09 -3.02719E-09 -3.02567E-09 -3.02329E-09 -3.02005E-09
  -3.01595E-09 -3.01097E-09 -3.00511E-09
 GABA     Conc. = 3.42E-10
   2.88601E-10  3.13131E-10  3.38038E-10  3.63309E-10  3.88932E-10  4.14889E-10  4.41166E-10  4.67742E-10  4.94596E-10  5.21715E-10
   5.49069E-10  5.76615E-10  6.04369E-10  6.32249E-10  6.60250E-10  6.88342E-10  7.16393E-10  7.44382E-10  7.72299E-10  7.99966E-10
   8.27300E-10  8.54237E-10  8.80609E-10  9.06238E-10  9.31042E-10  9.54797E-10  9.77685E-10  1.00112E-09  1.03244E-09  1.12262E-09
   1.21402E-09  1.24001E-09  1.37835E-09  1.57580E-09  1.67368E-09  1.78640E-09  1.94665E-09  2.09286E-09  2.22091E-09  2.31800E-09
   2.32937E-09  2.40067E-09  2.53067E-09  2.45236E-09  2.37810E-09  2.43184E-09  2.41169E-09  2.36751E-09  2.35226E-09  2.35310E-09
   2.36372E-09  2.38064E-09  2.40168E-09  2.42580E-09  2.45229E-09  2.48044E-09  2.50990E-09  2.54060E-09  2.57268E-09  2.60765E-09
   2.65061E-09  2.72543E-09  2.87295E-09  2.94724E-09  3.02099E-09  3.24171E-09  3.38616E-09  3.45130E-09  3.56903E-09  3.69372E-09
   3.79633E-09  3.88112E-09  3.89974E-09  3.85302E-09  3.95030E-09  3.95880E-09  3.79336E-09  3.79908E-09  3.82703E-09  3.79910E-09
   3.83679E-09  3.84586E-09  3.85409E-09  3.97426E-09  4.05828E-09  4.09069E-09  4.20271E-09  4.31271E-09  4.38888E-09  4.49395E-09
   4.56598E-09  4.59568E-09  4.71087E-09  4.78333E-09  4.72141E-09  4.77468E-09  4.84145E-09  4.79277E-09  4.79009E-09  4.81366E-09
   4.81262E-09  4.81778E-09  4.82966E-09  4.84589E-09  4.86499E-09  4.88585E-09  4.90778E-09  4.93033E-09  4.95315E-09  4.97599E-09
   4.99869E-09  5.02092E-09  5.04255E-09  5.06343E-09  5.08343E-09  5.10251E-09  5.12059E-09  5.13752E-09  5.15322E-09  5.16762E-09
   5.18063E-09  5.19219E-09  5.20224E-09  5.21070E-09  5.21751E-09  5.22261E-09  5.22594E-09  5.22743E-09  5.22703E-09  5.22467E-09
   5.22031E-09  5.21388E-09  5.20535E-09  5.19463E-09  5.18169E-09  5.16648E-09  5.14893E-09  5.12902E-09  5.10678E-09  5.08224E-09
   5.05543E-09  5.02641E-09  4.99519E-09  4.96180E-09  4.92631E-09  4.88873E-09  4.84912E-09  4.80750E-09  4.76394E-09  4.71846E-09
   4.67112E-09  4.62195E-09  4.57101E-09  4.51834E-09  4.46401E-09  4.40807E-09  4.35058E-09  4.29162E-09  4.23129E-09  4.16968E-09
   4.10700E-09  4.04348E-09  3.97960E-09  3.91633E-09  3.85609E-09  3.80688E-09  3.81033E-09  3.99018E-09  4.04284E-09  3.99544E-09
   3.94209E-09  3.88074E-09  3.79785E-09  3.70930E-09  3.63797E-09  3.59230E-09  3.54809E-09  3.36244E-09  2.94635E-09  2.77459E-09
   2.66243E-09  2.56577E-09  2.47494E-09  2.38684E-09  2.30020E-09  2.21444E-09  2.12926E-09  2.04448E-09  1.96006E-09  1.87594E-09
   1.79214E-09  1.70863E-09  1.62547E-09  1.54267E-09  1.46026E-09  1.37829E-09  1.29680E-09  1.21582E-09  1.13542E-09  1.05561E-09
   9.76460E-10  8.98012E-10  8.20308E-10  7.43403E-10  6.67339E-10  5.92154E-10  5.17904E-10  4.44636E-10  3.72392E-10  3.01226E-10
   2.31181E-10  1.62304E-10  9.46295E-11  2.82021E-11 -3.69076E-11 -1.00678E-10 -1.63059E-10 -2.24015E-10 -2.83494E-10 -3.41443E-10
  -3.97854E-10 -4.52649E-10 -5.05799E-10 -5.57281E-10 -6.07048E-10 -6.55025E-10 -7.01230E-10 -7.45607E-10 -7.88171E-10 -8.28988E-10
  -8.68112E-10 -9.05597E-10 -9.41500E-10 -9.75879E-10 -1.00878E-09 -1.04027E-09 -1.07040E-09 -1.09922E-09 -1.12679E-09 -1.15315E-09
