 LCModel (Version 6.3-1R) Copyright: S.W. Provencher.          Ref.: Magn. Reson. Med. 30:672-679 (1993).                
 onepulse 14x11_ftSpec_smooth_lcm
 26 lines in following concentration table = NCONC+1
    Conc.  %SD   /Cr    Metabolite                                         
    0.000 999%   0.000 Ala                                                 
 1.39E-10 513%   0.000 Asp                                                 
    0.000 999%   0.000 Cr                                                  
 2.13E-10 261%   0.000 GABA                                                
    0.000 999%   0.000 Glc                                                 
 2.11E-09  30%   0.000 Gln                                                 
    0.000 999%   0.000 Glu                                                 
 3.20E-09  17%   0.000 Glyc                                                
    0.000 999%   0.000 GPC                                                 
 2.12E-09  27%   0.000 GSH                                                 
    0.000 999%   0.000 Ins                                                 
    0.000 999%   0.000 Lac                                                 
 3.49E-10  63%   0.000 NAAG                                                
    0.000 999%   0.000 NAA                                                 
    0.000 999%   0.000 PCh                                                 
    0.000 999%   0.000 PCr                                                 
 3.68E-09  25%   0.000 PE                                                  
 3.14E-10  88%   0.000 Scyllo                                              
    0.000 999%   0.000 Ser                                                 
 1.84E-10 535%   0.000 Tau                                                 
    0.000 999%   0.000 GPC+PCh                                             
 3.49E-10  63%   0.000 NAA+NAAG                                            
 3.20E-09  17%   0.000 Ins+Glyc                                            
    0.000 999%   0.000 Cr+PCr                                              
 2.11E-09  30%   0.000 Glu+Gln                                             
   6 lines in following misc. output table
  FWHM = 0.123 ppm    S/N =   3                                            
  Data shift = 0.425 ppm                                                   
  Ph: -15 deg     -48.7 deg/ppm                                            
  alphaB,S = 3.8E-01,   1.9E+01                                            
   10 spline knots.   Ns = 5(1)                                            
  (12) 6 infls.   (11) 3 extrs.                                            
  363 points on ppm-axis = NY
      4.250000     4.238821     4.227641     4.216462     4.205282     4.194103     4.182923     4.171744     4.160564     4.149385
      4.138206     4.127026     4.115847     4.104667     4.093488     4.082308     4.071129     4.059949     4.048770     4.037591
      4.026411     4.015232     4.004052     3.992873     3.981693     3.970514     3.959334     3.948155     3.936975     3.925796
      3.914617     3.903437     3.892258     3.881078     3.869899     3.858719     3.847540     3.836360     3.825181     3.814002
      3.802822     3.791643     3.780463     3.769284     3.758104     3.746925     3.735745     3.724566     3.713387     3.702207
      3.691028     3.679848     3.668669     3.657489     3.646310     3.635130     3.623951     3.612772     3.601592     3.590413
      3.579233     3.568054     3.556874     3.545695     3.534515     3.523336     3.512156     3.500977     3.489798     3.478618
      3.467439     3.456259     3.445080     3.433900     3.422721     3.411541     3.400362     3.389183     3.378003     3.366824
      3.355644     3.344465     3.333285     3.322106     3.310926     3.299747     3.288568     3.277388     3.266209     3.255029
      3.243850     3.232670     3.221491     3.210311     3.199132     3.187953     3.176773     3.165594     3.154414     3.143235
      3.132055     3.120876     3.109696     3.098517     3.087337     3.076158     3.064979     3.053799     3.042620     3.031440
      3.020261     3.009081     2.997902     2.986722     2.975543     2.964364     2.953184     2.942005     2.930825     2.919646
      2.908466     2.897287     2.886107     2.874928     2.863749     2.852569     2.841390     2.830210     2.819031     2.807851
      2.796672     2.785492     2.774313     2.763134     2.751954     2.740775     2.729595     2.718416     2.707236     2.696057
      2.684877     2.673698     2.662519     2.651339     2.640160     2.628980     2.617801     2.606621     2.595442     2.584262
      2.573083     2.561903     2.550724     2.539545     2.528365     2.517186     2.506006     2.494827     2.483647     2.472468
      2.461288     2.450109     2.438930     2.427750     2.416571     2.405391     2.394212     2.383032     2.371853     2.360673
      2.349494     2.338315     2.327135     2.315956     2.304776     2.293597     2.282417     2.271238     2.260058     2.248879
      2.237700     2.226520     2.215341     2.204161     2.192982     2.181802     2.170623     2.159443     2.148264     2.137084
      2.125905     2.114726     2.103546     2.092367     2.081187     2.070008     2.058828     2.047649     2.036469     2.025290
      2.014111     2.002931     1.991752     1.980572     1.969393     1.958213     1.947034     1.935854     1.924675     1.913496
      1.902316     1.891137     1.879957     1.868778     1.857598     1.846419     1.835239     1.824060     1.812881     1.801701
      1.790522     1.779342     1.768163     1.756983     1.745804     1.734624     1.723445     1.712265     1.701086     1.689907
      1.678727     1.667548     1.656368     1.645189     1.634009     1.622830     1.611650     1.600471     1.589292     1.578112
      1.566933     1.555753     1.544574     1.533394     1.522215     1.511035     1.499856     1.488677     1.477497     1.466318
      1.455138     1.443959     1.432779     1.421600     1.410420     1.399241     1.388062     1.376882     1.365703     1.354523
      1.343344     1.332164     1.320985     1.309805     1.298626     1.287446     1.276267     1.265088     1.253908     1.242729
      1.231549     1.220370     1.209190     1.198011     1.186831     1.175652     1.164473     1.153293     1.142114     1.130934
      1.119755     1.108575     1.097396     1.086216     1.075037     1.063858     1.052678     1.041499     1.030319     1.019140
      1.007960     0.996781     0.985601     0.974422     0.963243     0.952063     0.940884     0.929704     0.918525     0.907345
      0.896166     0.884986     0.873807     0.862628     0.851448     0.840269     0.829089     0.817910     0.806730     0.795551
      0.784371     0.773192     0.762012     0.750833     0.739654     0.728474     0.717295     0.706115     0.694936     0.683756
      0.672577     0.661397     0.650218     0.639039     0.627859     0.616680     0.605500     0.594321     0.583141     0.571962
      0.560782     0.549603     0.538424     0.527244     0.516065     0.504885     0.493706     0.482526     0.471347     0.460167
      0.448988     0.437809     0.426629     0.415450     0.404270     0.393091     0.381911     0.370732     0.359552     0.348373
      0.337193     0.326014     0.314835     0.303655     0.292476     0.281296     0.270117     0.258937     0.247758     0.236578
      0.225399     0.214220     0.203040
 NY phased data points follow
   1.28769E-08  1.13442E-08  1.27720E-08  1.18241E-08  1.38067E-08  1.29073E-08  1.36368E-08  1.33763E-08  1.48364E-08  1.35162E-08
   1.45849E-08  1.31190E-08  1.38912E-08  1.28508E-08  1.33326E-08  1.18277E-08  1.36308E-08  1.21486E-08  1.45835E-08  1.36936E-08
   1.39905E-08  1.21511E-08  1.25533E-08  1.17033E-08  1.43300E-08  1.45896E-08  1.61300E-08  1.55346E-08  1.57918E-08  1.35475E-08
   1.32809E-08  1.14375E-08  1.23037E-08  1.12074E-08  1.15915E-08  1.14347E-08  1.13954E-08  1.03331E-08  1.14970E-08  1.01024E-08
   1.03435E-08  9.45411E-09  9.79654E-09  9.52717E-09  9.98185E-09  9.33640E-09  1.03850E-08  9.14458E-09  8.96654E-09  8.13239E-09
   7.94373E-09  7.90093E-09  8.91943E-09  8.45761E-09  9.21859E-09  9.58632E-09  1.26318E-08  1.50179E-08  1.64032E-08  1.50291E-08
   1.38936E-08  1.33069E-08  1.26414E-08  1.14902E-08  1.10471E-08  1.06345E-08  9.70766E-09  8.99650E-09  8.47624E-09  8.17543E-09
   6.89579E-09  7.36827E-09  8.93631E-09  1.42699E-08  1.70887E-08  1.82062E-08  1.68266E-08  1.62781E-08  1.58087E-08  1.56220E-08
   1.45614E-08  1.42454E-08  1.41809E-08  1.41754E-08  1.36875E-08  1.32287E-08  1.33436E-08  1.25948E-08  1.23302E-08  1.20558E-08
   1.12087E-08  1.13198E-08  1.04657E-08  1.00327E-08  9.32317E-09  9.99094E-09  1.00871E-08  9.58182E-09  9.52677E-09  9.49657E-09
   9.63644E-09  9.83303E-09  8.85364E-09  8.09965E-09  7.79329E-09  6.61492E-09  6.65129E-09  7.56304E-09  8.03199E-09  7.55409E-09
   7.92452E-09  8.36005E-09  8.23535E-09  7.90389E-09  8.65932E-09  9.04260E-09  8.17729E-09  7.81979E-09  7.88431E-09  7.09654E-09
   5.58251E-09  6.55170E-09  6.83083E-09  6.29930E-09  6.07032E-09  6.79573E-09  7.05465E-09  7.17828E-09  7.02348E-09  7.59005E-09
   6.76316E-09  6.91205E-09  5.76434E-09  6.83825E-09  8.37092E-09  8.84061E-09  8.68058E-09  8.94273E-09  8.48739E-09  9.70418E-09
   1.01933E-08  1.03429E-08  1.05102E-08  1.09884E-08  1.03492E-08  1.10435E-08  1.02497E-08  1.04990E-08  1.03010E-08  1.01678E-08
   1.01673E-08  1.04641E-08  1.07547E-08  1.04152E-08  1.05449E-08  1.01933E-08  1.02688E-08  1.04818E-08  1.02348E-08  9.61526E-09
   9.04932E-09  9.71899E-09  7.41591E-09  4.94962E-09  7.90120E-09  1.50405E-08  1.94979E-08  2.18769E-08  2.14268E-08  2.25438E-08
   2.30831E-08  2.26027E-08  2.23855E-08  2.21925E-08  2.20186E-08  2.16197E-08  2.08618E-08  2.08814E-08  1.89912E-08  1.85682E-08
   1.66235E-08  1.44459E-08  1.23399E-08  9.97232E-09  7.30089E-09  4.44974E-09  1.77727E-09 -5.25688E-10 -2.93319E-09 -5.27521E-09
  -7.59552E-09 -8.73320E-09 -9.90820E-09 -1.06351E-08 -1.08938E-08 -9.84606E-09 -9.88990E-09 -8.65537E-09 -7.53701E-09 -6.44154E-09
  -5.66408E-09 -4.47643E-09 -3.00835E-09 -2.94987E-09 -2.38436E-09 -1.20767E-09 -2.64094E-09 -1.72679E-09 -2.34833E-09 -2.02059E-09
  -2.20858E-09 -2.46285E-09 -1.78853E-09 -2.16123E-09 -1.89822E-09 -1.31688E-09 -1.17055E-09 -9.31387E-10 -1.27032E-09 -1.23876E-09
  -1.20677E-09 -1.65887E-09 -1.64597E-09 -1.82761E-09 -1.72020E-09 -1.31565E-09 -8.54913E-10 -8.97277E-10 -1.22677E-09 -1.04286E-09
  -8.71924E-10 -9.75139E-10 -7.72920E-10 -1.00927E-09 -1.42382E-09 -2.18798E-09 -1.98808E-09 -1.80384E-09 -1.67492E-09 -1.88816E-09
  -1.66043E-09 -1.15608E-09 -9.39350E-10 -9.05929E-10 -1.15274E-09 -6.57203E-10 -9.55536E-10 -4.15455E-10 -1.15705E-09 -1.01329E-09
  -6.31875E-10 -9.21975E-10 -9.16208E-10 -8.91788E-10 -8.42890E-10 -1.40215E-09 -1.03068E-09 -1.82004E-09 -2.03879E-09 -1.68898E-09
  -2.19547E-09 -2.24808E-09 -2.34189E-09 -2.53512E-09 -2.41714E-09 -2.55100E-09 -2.51515E-09 -2.55349E-09 -1.91347E-09 -1.67410E-09
  -1.23060E-09 -1.05958E-09 -1.06287E-09 -7.26171E-10 -5.50496E-10 -9.02155E-10 -3.12742E-10 -5.93688E-10 -1.62623E-10 -5.01738E-10
   3.48635E-10 -2.34234E-10  7.35040E-11 -4.68629E-10  2.34098E-10 -1.72099E-11  1.35344E-10 -8.22966E-11 -5.38715E-11 -9.77951E-11
  -2.45984E-10  2.77363E-11 -9.12316E-11 -2.89521E-10  2.53383E-11 -7.91657E-10 -4.13035E-10 -2.11564E-10 -3.66248E-10 -3.59582E-10
  -6.32760E-10 -2.61609E-10 -6.34725E-10 -6.05137E-10 -5.93355E-10 -9.64471E-10 -7.47310E-10 -8.90439E-10 -7.72532E-10 -1.30408E-09
  -1.08316E-09 -1.22590E-09 -8.12677E-10 -1.35945E-09 -1.10538E-09 -9.45140E-10 -8.37409E-10 -1.53136E-09 -1.50900E-09 -1.73281E-09
  -1.12415E-09 -1.04561E-09 -9.77364E-10 -1.87859E-09 -8.28206E-10 -1.41224E-09 -1.29889E-09 -1.31675E-09 -1.44656E-09 -1.48583E-09
  -1.36452E-09 -1.22484E-09 -1.81647E-09 -1.71322E-09 -1.63903E-09 -1.41648E-09 -1.72804E-09 -2.02354E-09 -1.70291E-09 -1.95073E-09
  -1.61101E-09 -1.88629E-09 -2.53881E-09 -2.13066E-09 -1.62743E-09 -1.91225E-09 -2.22563E-09 -1.92072E-09 -1.83441E-09 -1.88272E-09
  -1.88653E-09 -2.03284E-09 -2.08415E-09 -2.12913E-09 -2.13858E-09 -2.15804E-09 -2.02527E-09 -1.69842E-09 -2.83752E-09 -2.06360E-09
  -2.65316E-09 -1.80491E-09 -2.49562E-09
 NY points of the fit to the data follow
   1.42287E-08  1.35531E-08  1.34258E-08  1.27114E-08  1.23333E-08  1.22155E-08  1.22790E-08  1.27313E-08  1.33505E-08  1.46702E-08
   1.44512E-08  1.38832E-08  1.30009E-08  1.25848E-08  1.24831E-08  1.24105E-08  1.26946E-08  1.39541E-08  1.63322E-08  1.58402E-08
   1.14524E-08  1.10505E-08  1.17817E-08  1.30248E-08  1.37830E-08  1.48965E-08  1.56291E-08  1.57820E-08  1.51194E-08  1.39805E-08
   1.36728E-08  1.28586E-08  1.18140E-08  1.13818E-08  1.13194E-08  1.08984E-08  1.04658E-08  1.07655E-08  1.07600E-08  1.06395E-08
   1.05621E-08  1.06238E-08  1.07878E-08  1.07544E-08  1.00602E-08  9.04338E-09  8.82733E-09  7.78506E-09  7.31353E-09  7.42838E-09
   8.01172E-09  8.60174E-09  8.88392E-09  9.87715E-09  1.12388E-08  1.16836E-08  1.20584E-08  1.31556E-08  1.38686E-08  1.38124E-08
   1.37233E-08  1.33674E-08  1.32335E-08  1.31120E-08  1.19786E-08  1.10261E-08  1.10460E-08  1.06821E-08  9.72035E-09  9.79959E-09
   1.04698E-08  1.08198E-08  1.16664E-08  1.23824E-08  1.33001E-08  1.44725E-08  1.55522E-08  1.61381E-08  1.64060E-08  1.65145E-08
   1.61552E-08  1.57472E-08  1.52139E-08  1.43694E-08  1.39241E-08  1.31123E-08  1.19293E-08  1.07305E-08  1.00395E-08  9.65903E-09
   9.37637E-09  9.19200E-09  9.10085E-09  8.99479E-09  8.85869E-09  8.81446E-09  8.76306E-09  8.68442E-09  8.65312E-09  8.61312E-09
   8.58242E-09  8.57604E-09  8.57136E-09  8.56709E-09  8.56966E-09  8.57722E-09  8.58789E-09  8.60089E-09  8.61500E-09  8.62997E-09
   8.64542E-09  8.66095E-09  8.67628E-09  8.69115E-09  8.70532E-09  8.71861E-09  8.73084E-09  8.74181E-09  8.75136E-09  8.75934E-09
   8.76562E-09  8.77008E-09  8.77258E-09  8.77301E-09  8.77125E-09  8.76720E-09  8.76074E-09  8.75179E-09  8.74024E-09  8.72601E-09
   8.70898E-09  8.68908E-09  8.66623E-09  8.64033E-09  8.61131E-09  8.57909E-09  8.54361E-09  8.50477E-09  8.46253E-09  8.41681E-09
   8.36756E-09  8.31473E-09  8.25827E-09  8.19815E-09  8.13433E-09  8.06680E-09  7.99557E-09  7.92065E-09  7.84210E-09  7.76000E-09
   7.67445E-09  7.58565E-09  7.49388E-09  7.39948E-09  7.30301E-09  7.20520E-09  7.10723E-09  7.01090E-09  6.91905E-09  6.83588E-09
   6.76824E-09  6.72792E-09  6.73745E-09  6.84530E-09  7.17754E-09  8.17602E-09  1.21602E-08  1.96468E-08  2.37602E-08  2.40138E-08
   2.36176E-08  2.34036E-08  2.30667E-08  2.26388E-08  2.25357E-08  2.30947E-08  2.30669E-08  1.84233E-08  1.01965E-08  5.96803E-09
   4.58387E-09  3.88398E-09  3.41959E-09  3.06256E-09  2.76332E-09  2.49896E-09  2.25744E-09  2.03193E-09  1.81837E-09  1.61416E-09
   1.41763E-09  1.22772E-09  1.04365E-09  8.65022E-10  6.91461E-10  5.22824E-10  3.59009E-10  2.00020E-10  4.58336E-11 -1.03449E-10
  -2.47752E-10 -3.86967E-10 -5.20956E-10 -6.49585E-10 -7.72694E-10 -8.90127E-10 -1.00167E-09 -1.10723E-09 -1.20662E-09 -1.30002E-09
  -1.38755E-09 -1.46939E-09 -1.54566E-09 -1.61653E-09 -1.68213E-09 -1.74263E-09 -1.79813E-09 -1.84880E-09 -1.89478E-09 -1.93621E-09
  -1.97321E-09 -2.00593E-09 -2.03451E-09 -2.05908E-09 -2.07978E-09 -2.09674E-09 -2.11009E-09 -2.11999E-09 -2.12657E-09 -2.12993E-09
  -2.13022E-09 -2.12760E-09 -2.12217E-09 -2.11408E-09 -2.10346E-09 -2.09045E-09 -2.07518E-09 -2.05777E-09 -2.03837E-09 -2.01710E-09
  -1.99410E-09 -1.96949E-09 -1.94342E-09 -1.91601E-09 -1.88739E-09 -1.85770E-09 -1.82709E-09 -1.79567E-09 -1.76356E-09 -1.73089E-09
  -1.69782E-09 -1.66448E-09 -1.63099E-09 -1.59746E-09 -1.56408E-09 -1.53091E-09 -1.49814E-09 -1.46586E-09 -1.43423E-09 -1.40339E-09
  -1.37337E-09 -1.34420E-09 -1.31588E-09 -1.28841E-09 -1.26178E-09 -1.23601E-09 -1.21108E-09 -1.18701E-09 -1.16378E-09 -1.14140E-09
  -1.11988E-09 -1.09920E-09 -1.07939E-09 -1.06041E-09 -1.04229E-09 -1.02503E-09 -1.00862E-09 -9.93058E-10 -9.78349E-10 -9.64501E-10
  -9.51498E-10 -9.39360E-10 -9.28063E-10 -9.17623E-10 -9.08046E-10 -8.99324E-10 -8.91448E-10 -8.84430E-10 -8.78274E-10 -8.72976E-10
  -8.68532E-10 -8.64938E-10 -8.62200E-10 -8.60331E-10 -8.59307E-10 -8.59152E-10 -8.59845E-10 -8.61396E-10 -8.63803E-10 -8.67074E-10
  -8.71208E-10 -8.76181E-10 -8.82029E-10 -8.88725E-10 -8.96278E-10 -9.04702E-10 -9.13981E-10 -9.24106E-10 -9.35109E-10 -9.46955E-10
  -9.59670E-10 -9.73255E-10 -9.87668E-10 -1.00290E-09 -1.01894E-09 -1.03575E-09 -1.05331E-09 -1.07161E-09 -1.09061E-09 -1.11030E-09
  -1.13066E-09 -1.15166E-09 -1.17329E-09 -1.19551E-09 -1.21830E-09 -1.24165E-09 -1.26553E-09 -1.28993E-09 -1.31480E-09 -1.34014E-09
  -1.36593E-09 -1.39214E-09 -1.41874E-09 -1.44572E-09 -1.47305E-09 -1.50072E-09 -1.52869E-09 -1.55695E-09 -1.58548E-09 -1.61424E-09
  -1.64323E-09 -1.67242E-09 -1.70178E-09 -1.73130E-09 -1.76094E-09 -1.79070E-09 -1.82054E-09 -1.85045E-09 -1.88041E-09 -1.91037E-09
  -1.94035E-09 -1.97029E-09 -2.00019E-09 -2.03002E-09 -2.05976E-09 -2.08939E-09 -2.11889E-09 -2.14822E-09 -2.17738E-09 -2.20634E-09
  -2.23507E-09 -2.26356E-09 -2.29178E-09
 NY background values follow
    -1.792E-09   -1.690E-09   -1.587E-09   -1.485E-09   -1.382E-09   -1.280E-09   -1.177E-09   -1.075E-09   -9.725E-10   -8.701E-10
    -7.678E-10   -6.655E-10   -5.632E-10   -4.611E-10   -3.591E-10   -2.571E-10   -1.553E-10   -5.366E-11    4.787E-11    1.493E-10
     2.505E-10    3.515E-10    4.524E-10    5.531E-10    6.535E-10    7.537E-10    8.537E-10    9.535E-10    1.053E-09    1.152E-09
     1.251E-09    1.350E-09    1.448E-09    1.546E-09    1.644E-09    1.741E-09    1.839E-09    1.935E-09    2.032E-09    2.128E-09
     2.223E-09    2.318E-09    2.413E-09    2.507E-09    2.601E-09    2.695E-09    2.788E-09    2.880E-09    2.972E-09    3.064E-09
     3.155E-09    3.246E-09    3.336E-09    3.425E-09    3.514E-09    3.602E-09    3.690E-09    3.778E-09    3.864E-09    3.950E-09
     4.036E-09    4.120E-09    4.204E-09    4.288E-09    4.371E-09    4.453E-09    4.534E-09    4.615E-09    4.695E-09    4.774E-09
     4.853E-09    4.930E-09    5.007E-09    5.084E-09    5.159E-09    5.234E-09    5.307E-09    5.380E-09    5.452E-09    5.524E-09
     5.594E-09    5.663E-09    5.732E-09    5.800E-09    5.867E-09    5.932E-09    5.997E-09    6.061E-09    6.124E-09    6.186E-09
     6.247E-09    6.307E-09    6.366E-09    6.424E-09    6.481E-09    6.537E-09    6.592E-09    6.645E-09    6.698E-09    6.750E-09
     6.800E-09    6.849E-09    6.897E-09    6.944E-09    6.990E-09    7.035E-09    7.078E-09    7.120E-09    7.161E-09    7.200E-09
     7.237E-09    7.273E-09    7.307E-09    7.339E-09    7.369E-09    7.397E-09    7.423E-09    7.447E-09    7.469E-09    7.488E-09
     7.505E-09    7.520E-09    7.532E-09    7.542E-09    7.549E-09    7.553E-09    7.554E-09    7.552E-09    7.547E-09    7.540E-09
     7.529E-09    7.514E-09    7.497E-09    7.476E-09    7.452E-09    7.424E-09    7.392E-09    7.357E-09    7.318E-09    7.275E-09
     7.229E-09    7.178E-09    7.123E-09    7.064E-09    7.001E-09    6.933E-09    6.861E-09    6.785E-09    6.704E-09    6.618E-09
     6.528E-09    6.433E-09    6.333E-09    6.228E-09    6.119E-09    6.004E-09    5.884E-09    5.758E-09    5.629E-09    5.494E-09
     5.355E-09    5.212E-09    5.066E-09    4.915E-09    4.761E-09    4.604E-09    4.443E-09    4.280E-09    4.114E-09    3.946E-09
     3.775E-09    3.603E-09    3.429E-09    3.253E-09    3.076E-09    2.897E-09    2.718E-09    2.538E-09    2.358E-09    2.177E-09
     1.997E-09    1.816E-09    1.636E-09    1.456E-09    1.277E-09    1.100E-09    9.231E-10    7.480E-10    5.746E-10    4.030E-10
     2.335E-10    6.632E-11   -9.836E-11   -2.603E-10   -4.193E-10   -5.751E-10   -7.275E-10   -8.764E-10   -1.021E-09   -1.162E-09
    -1.299E-09   -1.432E-09   -1.559E-09   -1.682E-09   -1.800E-09   -1.912E-09   -2.019E-09   -2.120E-09   -2.215E-09   -2.305E-09
    -2.389E-09   -2.467E-09   -2.540E-09   -2.608E-09   -2.670E-09   -2.728E-09   -2.781E-09   -2.829E-09   -2.872E-09   -2.911E-09
    -2.946E-09   -2.976E-09   -3.003E-09   -3.025E-09   -3.044E-09   -3.059E-09   -3.070E-09   -3.078E-09   -3.083E-09   -3.085E-09
    -3.083E-09   -3.079E-09   -3.072E-09   -3.062E-09   -3.050E-09   -3.036E-09   -3.019E-09   -3.000E-09   -2.979E-09   -2.957E-09
    -2.932E-09   -2.906E-09   -2.879E-09   -2.850E-09   -2.820E-09   -2.789E-09   -2.758E-09   -2.725E-09   -2.692E-09   -2.658E-09
    -2.624E-09   -2.589E-09   -2.555E-09   -2.520E-09   -2.486E-09   -2.451E-09   -2.418E-09   -2.384E-09   -2.352E-09   -2.320E-09
    -2.289E-09   -2.259E-09   -2.229E-09   -2.201E-09   -2.174E-09   -2.147E-09   -2.121E-09   -2.096E-09   -2.072E-09   -2.049E-09
    -2.026E-09   -2.005E-09   -1.984E-09   -1.964E-09   -1.945E-09   -1.927E-09   -1.910E-09   -1.894E-09   -1.878E-09   -1.864E-09
    -1.850E-09   -1.837E-09   -1.825E-09   -1.814E-09   -1.803E-09   -1.794E-09   -1.785E-09   -1.778E-09   -1.771E-09   -1.765E-09
    -1.760E-09   -1.755E-09   -1.752E-09   -1.749E-09   -1.748E-09   -1.747E-09   -1.747E-09   -1.748E-09   -1.749E-09   -1.752E-09
    -1.755E-09   -1.760E-09   -1.765E-09   -1.771E-09   -1.778E-09   -1.786E-09   -1.794E-09   -1.804E-09   -1.814E-09   -1.825E-09
    -1.838E-09   -1.851E-09   -1.864E-09   -1.879E-09   -1.894E-09   -1.911E-09   -1.928E-09   -1.945E-09   -1.964E-09   -1.983E-09
    -2.003E-09   -2.023E-09   -2.044E-09   -2.066E-09   -2.088E-09   -2.111E-09   -2.134E-09   -2.158E-09   -2.182E-09   -2.207E-09
    -2.232E-09   -2.258E-09   -2.284E-09   -2.310E-09   -2.337E-09   -2.364E-09   -2.392E-09   -2.419E-09   -2.447E-09   -2.475E-09
    -2.504E-09   -2.533E-09   -2.561E-09   -2.590E-09   -2.619E-09   -2.649E-09   -2.678E-09   -2.707E-09   -2.737E-09   -2.766E-09
    -2.796E-09   -2.825E-09   -2.854E-09   -2.884E-09   -2.913E-09   -2.942E-09   -2.971E-09   -3.000E-09   -3.028E-09   -3.057E-09
    -3.085E-09   -3.113E-09   -3.141E-09
 Asp      Conc. = 1.39E-10
  -1.64101E-09 -1.56100E-09 -1.47149E-09 -1.38911E-09 -1.29393E-09 -1.20723E-09 -1.12298E-09 -1.03962E-09 -9.46107E-10 -8.48814E-10
  -7.49805E-10 -6.49906E-10 -5.49380E-10 -4.48251E-10 -3.47018E-10 -2.45768E-10 -1.44518E-10 -4.32658E-11  5.79272E-11  1.59068E-10
   2.60115E-10  3.61059E-10  4.61899E-10  5.62615E-10  6.63184E-10  7.63628E-10  8.63933E-10  9.64117E-10  1.06418E-09  1.16418E-09
   1.26416E-09  1.36417E-09  1.46442E-09  1.56517E-09  1.66708E-09  1.77187E-09  1.88402E-09  1.98822E-09  2.09543E-09  2.19172E-09
   2.28395E-09  2.38082E-09  2.49108E-09  2.61553E-09  2.74914E-09  2.88919E-09  2.98168E-09  3.05263E-09  3.16535E-09  3.26426E-09
   3.36095E-09  3.46709E-09  3.56788E-09  3.64491E-09  3.70556E-09  3.75843E-09  3.80595E-09  3.89962E-09  3.98835E-09  4.04161E-09
   4.11344E-09  4.19024E-09  4.25859E-09  4.33712E-09  4.42542E-09  4.50822E-09  4.57721E-09  4.65067E-09  4.72594E-09  4.80181E-09
   4.87774E-09  4.95345E-09  5.02875E-09  5.10356E-09  5.17778E-09  5.25136E-09  5.32425E-09  5.39641E-09  5.46783E-09  5.53846E-09
   5.60829E-09  5.67728E-09  5.74544E-09  5.81273E-09  5.87913E-09  5.94463E-09  6.00922E-09  6.07287E-09  6.13559E-09  6.19734E-09
   6.25811E-09  6.31790E-09  6.37668E-09  6.43445E-09  6.49119E-09  6.54688E-09  6.60152E-09  6.65509E-09  6.70757E-09  6.75897E-09
   6.80924E-09  6.85841E-09  6.90643E-09  6.95331E-09  6.99904E-09  7.04354E-09  7.08677E-09  7.12862E-09  7.16903E-09  7.20793E-09
   7.24522E-09  7.28084E-09  7.31470E-09  7.34673E-09  7.37686E-09  7.40500E-09  7.43107E-09  7.45500E-09  7.47671E-09  7.49613E-09
   7.51316E-09  7.52775E-09  7.53981E-09  7.54925E-09  7.55602E-09  7.56002E-09  7.56118E-09  7.55942E-09  7.55466E-09  7.54684E-09
   7.53586E-09  7.52165E-09  7.50415E-09  7.48325E-09  7.45889E-09  7.43099E-09  7.39949E-09  7.36428E-09  7.32531E-09  7.28250E-09
   7.23575E-09  7.18500E-09  7.13017E-09  7.07120E-09  7.00798E-09  6.94046E-09  6.86855E-09  6.79217E-09  6.71125E-09  6.62573E-09
   6.53550E-09  6.44052E-09  6.34070E-09  6.23596E-09  6.12625E-09  6.01147E-09  5.89162E-09  5.76684E-09  5.63737E-09  5.50348E-09
   5.36545E-09  5.22361E-09  5.07842E-09  4.93059E-09  4.78162E-09  4.63604E-09  4.51622E-09  4.46805E-09  4.34456E-09  4.17114E-09
   3.99798E-09  3.82607E-09  3.64984E-09  3.47035E-09  3.29397E-09  3.12542E-09  2.95637E-09  2.72590E-09  2.42282E-09  2.21096E-09
   2.01966E-09  1.83404E-09  1.65094E-09  1.46949E-09  1.28938E-09  1.11068E-09  9.33423E-10  7.57739E-10  5.83854E-10  4.11923E-10
   2.42128E-10  7.47045E-11 -9.01908E-11 -2.52284E-10 -4.11434E-10 -5.67394E-10 -7.19968E-10 -8.68916E-10 -1.01407E-09 -1.15518E-09
  -1.29205E-09 -1.42446E-09 -1.55219E-09 -1.67504E-09 -1.79280E-09 -1.90525E-09 -2.01215E-09 -2.11335E-09 -2.20864E-09 -2.29818E-09
  -2.38207E-09 -2.46045E-09 -2.53344E-09 -2.60119E-09 -2.66382E-09 -2.72147E-09 -2.77426E-09 -2.82233E-09 -2.86581E-09 -2.90483E-09
  -2.93951E-09 -2.97000E-09 -2.99642E-09 -3.01891E-09 -3.03759E-09 -3.05260E-09 -3.06405E-09 -3.07211E-09 -3.07690E-09 -3.07853E-09
  -3.07713E-09 -3.07286E-09 -3.06582E-09 -3.05617E-09 -3.04402E-09 -3.02952E-09 -3.01279E-09 -2.99395E-09 -2.97315E-09 -2.95051E-09
  -2.92617E-09 -2.90025E-09 -2.87289E-09 -2.84422E-09 -2.81436E-09 -2.78346E-09 -2.75164E-09 -2.71906E-09 -2.68579E-09 -2.65198E-09
  -2.61780E-09 -2.58336E-09 -2.54879E-09 -2.51419E-09 -2.47976E-09 -2.44557E-09 -2.41177E-09 -2.37849E-09 -2.34588E-09 -2.31406E-09
  -2.28308E-09 -2.25295E-09 -2.22370E-09 -2.19530E-09 -2.16776E-09 -2.14108E-09 -2.11526E-09 -2.09030E-09 -2.06620E-09 -2.04296E-09
  -2.02059E-09 -1.99907E-09 -1.97842E-09 -1.95863E-09 -1.93969E-09 -1.92162E-09 -1.90441E-09 -1.88806E-09 -1.87257E-09 -1.85795E-09
  -1.84418E-09 -1.83128E-09 -1.81923E-09 -1.80805E-09 -1.79773E-09 -1.78828E-09 -1.77967E-09 -1.77194E-09 -1.76507E-09 -1.75906E-09
  -1.75392E-09 -1.74963E-09 -1.74620E-09 -1.74364E-09 -1.74194E-09 -1.74111E-09 -1.74113E-09 -1.74201E-09 -1.74376E-09 -1.74638E-09
  -1.74986E-09 -1.75418E-09 -1.75939E-09 -1.76545E-09 -1.77237E-09 -1.78016E-09 -1.78881E-09 -1.79832E-09 -1.80870E-09 -1.81993E-09
  -1.83204E-09 -1.84501E-09 -1.85882E-09 -1.87345E-09 -1.88889E-09 -1.90510E-09 -1.92207E-09 -1.93978E-09 -1.95820E-09 -1.97731E-09
  -1.99709E-09 -2.01751E-09 -2.03855E-09 -2.06020E-09 -2.08243E-09 -2.10521E-09 -2.12852E-09 -2.15235E-09 -2.17667E-09 -2.20145E-09
  -2.22668E-09 -2.25233E-09 -2.27837E-09 -2.30480E-09 -2.33158E-09 -2.35870E-09 -2.38613E-09 -2.41384E-09 -2.44182E-09 -2.47005E-09
  -2.49849E-09 -2.52714E-09 -2.55596E-09 -2.58494E-09 -2.61405E-09 -2.64327E-09 -2.67258E-09 -2.70195E-09 -2.73137E-09 -2.76081E-09
  -2.79024E-09 -2.81966E-09 -2.84903E-09 -2.87833E-09 -2.90754E-09 -2.93664E-09 -2.96561E-09 -2.99441E-09 -3.02304E-09 -3.05147E-09
  -3.07967E-09 -3.10763E-09 -3.13533E-09
 GABA     Conc. = 2.13E-10
  -1.78063E-09 -1.67808E-09 -1.57548E-09 -1.47284E-09 -1.37017E-09 -1.26748E-09 -1.16477E-09 -1.06206E-09 -9.59343E-10 -8.56625E-10
  -7.53936E-10 -6.51255E-10 -5.48574E-10 -4.45939E-10 -3.43285E-10 -2.40642E-10 -1.38065E-10 -3.54063E-11  6.73050E-11  1.70065E-10
   2.72992E-10  3.76192E-10  4.79797E-10  5.84061E-10  6.89371E-10  7.96398E-10  9.06633E-10  1.02337E-09  1.15603E-09  1.33154E-09
   1.44768E-09  1.55339E-09  1.77571E-09  1.93772E-09  2.02004E-09  2.16427E-09  2.30678E-09  2.41694E-09  2.51108E-09  2.56970E-09
   2.59961E-09  2.71608E-09  2.78468E-09  2.73987E-09  2.80336E-09  2.89844E-09  2.92275E-09  2.97676E-09  3.04972E-09  3.13025E-09
   3.21467E-09  3.30106E-09  3.38870E-09  3.47732E-09  3.56673E-09  3.65689E-09  3.74808E-09  3.84078E-09  3.93604E-09  4.03630E-09
   4.14730E-09  4.28770E-09  4.43896E-09  4.52760E-09  4.66275E-09  4.84259E-09  4.93158E-09  5.00269E-09  5.10758E-09  5.20131E-09
   5.27734E-09  5.33230E-09  5.34627E-09  5.37407E-09  5.45696E-09  5.44933E-09  5.43062E-09  5.50666E-09  5.56195E-09  5.61452E-09
   5.70000E-09  5.75365E-09  5.83167E-09  5.96902E-09  6.04794E-09  6.11421E-09  6.23242E-09  6.32442E-09  6.39904E-09  6.48354E-09
   6.53776E-09  6.58781E-09  6.67700E-09  6.70967E-09  6.70328E-09  6.77180E-09  6.81250E-09  6.80752E-09  6.84229E-09  6.88061E-09
   6.90778E-09  6.94107E-09  6.97789E-09  7.01642E-09  7.05565E-09  7.09490E-09  7.13379E-09  7.17201E-09  7.20935E-09  7.24564E-09
   7.28070E-09  7.31434E-09  7.34644E-09  7.37690E-09  7.40560E-09  7.43248E-09  7.45744E-09  7.48035E-09  7.50113E-09  7.51969E-09
   7.53594E-09  7.54981E-09  7.56120E-09  7.57004E-09  7.57623E-09  7.57971E-09  7.58037E-09  7.57816E-09  7.57297E-09  7.56475E-09
   7.55338E-09  7.53882E-09  7.52098E-09  7.49977E-09  7.47512E-09  7.44695E-09  7.41518E-09  7.37972E-09  7.34052E-09  7.29748E-09
   7.25053E-09  7.19958E-09  7.14457E-09  7.08543E-09  7.02205E-09  6.95436E-09  6.88231E-09  6.80580E-09  6.72477E-09  6.63914E-09
   6.54881E-09  6.45375E-09  6.35386E-09  6.24907E-09  6.13933E-09  6.02454E-09  5.90473E-09  5.78000E-09  5.65067E-09  5.51697E-09
   5.37925E-09  5.23790E-09  5.09351E-09  4.94702E-09  4.80062E-09  4.66095E-09  4.56114E-09  4.57448E-09  4.47449E-09  4.29843E-09
   4.12366E-09  3.95196E-09  3.77462E-09  3.59304E-09  3.41683E-09  3.25318E-09  3.09011E-09  2.83438E-09  2.46518E-09  2.23593E-09
   2.03883E-09  1.85046E-09  1.66578E-09  1.48330E-09  1.30247E-09  1.12324E-09  9.45581E-10  7.69573E-10  5.95422E-10  4.23268E-10
   2.53284E-10  8.56957E-11 -7.93438E-11 -2.41566E-10 -4.00830E-10 -5.56894E-10 -7.09563E-10 -8.58598E-10 -1.00383E-09 -1.14502E-09
  -1.28195E-09 -1.41443E-09 -1.54222E-09 -1.66514E-09 -1.78295E-09 -1.89545E-09 -2.00240E-09 -2.10364E-09 -2.19899E-09 -2.28857E-09
  -2.37250E-09 -2.45092E-09 -2.52395E-09 -2.59174E-09 -2.65441E-09 -2.71209E-09 -2.76492E-09 -2.81301E-09 -2.85653E-09 -2.89558E-09
  -2.93029E-09 -2.96081E-09 -2.98726E-09 -3.00978E-09 -3.02849E-09 -3.04352E-09 -3.05500E-09 -3.06309E-09 -3.06790E-09 -3.06955E-09
