 LCModel (Version 6.3-1R) Copyright: S.W. Provencher.          Ref.: Magn. Reson. Med. 30:672-679 (1993).                
 onepulse 14x12_ftSpec_smooth_lcm
 26 lines in following concentration table = NCONC+1
    Conc.  %SD   /Cr    Metabolite                                         
    0.000 999%   0.000 Ala                                                 
 2.59E-10 283%   0.000 Asp                                                 
    0.000 999%   0.000 Cr                                                  
 3.41E-10 186%   0.000 GABA                                                
    0.000 999%   0.000 Glc                                                 
 2.21E-09  31%   0.000 Gln                                                 
    0.000 999%   0.000 Glu                                                 
 2.92E-09  18%   0.000 Glyc                                                
    0.000 999%   0.000 GPC                                                 
 1.93E-09  30%   0.000 GSH                                                 
    0.000 999%   0.000 Ins                                                 
    0.000 999%   0.000 Lac                                                 
 3.80E-10  91%   0.000 NAAG                                                
 4.22E-11 999%   0.000 NAA                                                 
    0.000 999%   0.000 PCh                                                 
    0.000 999%   0.000 PCr                                                 
 3.53E-09  28%   0.000 PE                                                  
 2.40E-10 115%   0.000 Scyllo                                              
    0.000 999%   0.000 Ser                                                 
 4.79E-10 209%   0.000 Tau                                                 
    0.000 999%   0.000 GPC+PCh                                             
 4.22E-10  78%   0.000 NAA+NAAG                                            
 2.92E-09  18%   0.000 Ins+Glyc                                            
    0.000 999%   0.000 Cr+PCr                                              
 2.21E-09  31%   0.000 Glu+Gln                                             
   6 lines in following misc. output table
  FWHM = 0.123 ppm    S/N =   4                                            
  Data shift = 0.425 ppm                                                   
  Ph:  -8 deg     -44.4 deg/ppm                                            
  alphaB,S = 3.5E-01,   1.3E+01                                            
   10 spline knots.   Ns = 5(1)                                            
  (11) 6 infls.   (11) 5 extrs.                                            
  363 points on ppm-axis = NY
      4.250000     4.238821     4.227641     4.216462     4.205282     4.194103     4.182923     4.171744     4.160564     4.149385
      4.138206     4.127026     4.115847     4.104667     4.093488     4.082308     4.071129     4.059949     4.048770     4.037591
      4.026411     4.015232     4.004052     3.992873     3.981693     3.970514     3.959334     3.948155     3.936975     3.925796
      3.914617     3.903437     3.892258     3.881078     3.869899     3.858719     3.847540     3.836360     3.825181     3.814002
      3.802822     3.791643     3.780463     3.769284     3.758104     3.746925     3.735745     3.724566     3.713387     3.702207
      3.691028     3.679848     3.668669     3.657489     3.646310     3.635130     3.623951     3.612772     3.601592     3.590413
      3.579233     3.568054     3.556874     3.545695     3.534515     3.523336     3.512156     3.500977     3.489798     3.478618
      3.467439     3.456259     3.445080     3.433900     3.422721     3.411541     3.400362     3.389183     3.378003     3.366824
      3.355644     3.344465     3.333285     3.322106     3.310926     3.299747     3.288568     3.277388     3.266209     3.255029
      3.243850     3.232670     3.221491     3.210311     3.199132     3.187953     3.176773     3.165594     3.154414     3.143235
      3.132055     3.120876     3.109696     3.098517     3.087337     3.076158     3.064979     3.053799     3.042620     3.031440
      3.020261     3.009081     2.997902     2.986722     2.975543     2.964364     2.953184     2.942005     2.930825     2.919646
      2.908466     2.897287     2.886107     2.874928     2.863749     2.852569     2.841390     2.830210     2.819031     2.807851
      2.796672     2.785492     2.774313     2.763134     2.751954     2.740775     2.729595     2.718416     2.707236     2.696057
      2.684877     2.673698     2.662519     2.651339     2.640160     2.628980     2.617801     2.606621     2.595442     2.584262
      2.573083     2.561903     2.550724     2.539545     2.528365     2.517186     2.506006     2.494827     2.483647     2.472468
      2.461288     2.450109     2.438930     2.427750     2.416571     2.405391     2.394212     2.383032     2.371853     2.360673
      2.349494     2.338315     2.327135     2.315956     2.304776     2.293597     2.282417     2.271238     2.260058     2.248879
      2.237700     2.226520     2.215341     2.204161     2.192982     2.181802     2.170623     2.159443     2.148264     2.137084
      2.125905     2.114726     2.103546     2.092367     2.081187     2.070008     2.058828     2.047649     2.036469     2.025290
      2.014111     2.002931     1.991752     1.980572     1.969393     1.958213     1.947034     1.935854     1.924675     1.913496
      1.902316     1.891137     1.879957     1.868778     1.857598     1.846419     1.835239     1.824060     1.812881     1.801701
      1.790522     1.779342     1.768163     1.756983     1.745804     1.734624     1.723445     1.712265     1.701086     1.689907
      1.678727     1.667548     1.656368     1.645189     1.634009     1.622830     1.611650     1.600471     1.589292     1.578112
      1.566933     1.555753     1.544574     1.533394     1.522215     1.511035     1.499856     1.488677     1.477497     1.466318
      1.455138     1.443959     1.432779     1.421600     1.410420     1.399241     1.388062     1.376882     1.365703     1.354523
      1.343344     1.332164     1.320985     1.309805     1.298626     1.287446     1.276267     1.265088     1.253908     1.242729
      1.231549     1.220370     1.209190     1.198011     1.186831     1.175652     1.164473     1.153293     1.142114     1.130934
      1.119755     1.108575     1.097396     1.086216     1.075037     1.063858     1.052678     1.041499     1.030319     1.019140
      1.007960     0.996781     0.985601     0.974422     0.963243     0.952063     0.940884     0.929704     0.918525     0.907345
      0.896166     0.884986     0.873807     0.862628     0.851448     0.840269     0.829089     0.817910     0.806730     0.795551
      0.784371     0.773192     0.762012     0.750833     0.739654     0.728474     0.717295     0.706115     0.694936     0.683756
      0.672577     0.661397     0.650218     0.639039     0.627859     0.616680     0.605500     0.594321     0.583141     0.571962
      0.560782     0.549603     0.538424     0.527244     0.516065     0.504885     0.493706     0.482526     0.471347     0.460167
      0.448988     0.437809     0.426629     0.415450     0.404270     0.393091     0.381911     0.370732     0.359552     0.348373
      0.337193     0.326014     0.314835     0.303655     0.292476     0.281296     0.270117     0.258937     0.247758     0.236578
      0.225399     0.214220     0.203040
 NY phased data points follow
   1.27233E-08  1.01964E-08  1.27076E-08  1.06355E-08  1.36908E-08  1.16624E-08  1.36064E-08  1.20479E-08  1.45009E-08  1.22633E-08
   1.44104E-08  1.16082E-08  1.36481E-08  1.14933E-08  1.30191E-08  1.06957E-08  1.35221E-08  1.12814E-08  1.44648E-08  1.24107E-08
   1.37172E-08  1.10658E-08  1.23698E-08  1.10016E-08  1.43984E-08  1.37579E-08  1.59504E-08  1.42800E-08  1.55439E-08  1.22370E-08
   1.26591E-08  1.02733E-08  1.18747E-08  1.00122E-08  1.11246E-08  1.03005E-08  1.06968E-08  9.26708E-09  1.09828E-08  8.96981E-09
   9.91108E-09  8.36277E-09  9.25767E-09  8.80641E-09  9.69879E-09  8.45631E-09  9.90937E-09  8.26064E-09  8.40593E-09  7.35887E-09
   7.82321E-09  7.12641E-09  8.61892E-09  7.75290E-09  9.12162E-09  9.39326E-09  1.32717E-08  1.51296E-08  1.64496E-08  1.44490E-08
   1.38373E-08  1.27807E-08  1.25129E-08  1.08762E-08  1.07087E-08  9.97880E-09  9.59512E-09  8.37864E-09  8.41028E-09  7.35050E-09
   6.85069E-09  7.11008E-09  9.54985E-09  1.42009E-08  1.72229E-08  1.79786E-08  1.69275E-08  1.58364E-08  1.56882E-08  1.51311E-08
   1.44952E-08  1.37952E-08  1.41297E-08  1.35217E-08  1.35399E-08  1.28108E-08  1.29701E-08  1.19578E-08  1.20303E-08  1.14386E-08
   1.08144E-08  1.06378E-08  1.01216E-08  9.55597E-09  9.04218E-09  9.44182E-09  9.69320E-09  8.96308E-09  9.38478E-09  8.96862E-09
   9.38570E-09  9.27140E-09  8.45441E-09  7.56821E-09  7.33149E-09  6.04859E-09  6.53088E-09  7.34581E-09  7.70270E-09  7.25262E-09
   7.79193E-09  8.21143E-09  7.96293E-09  7.73028E-09  8.69324E-09  8.96273E-09  7.97374E-09  7.60786E-09  7.62603E-09  6.77845E-09
   5.47522E-09  6.32743E-09  6.84382E-09  6.10183E-09  6.01597E-09  6.57668E-09  6.99799E-09  7.04643E-09  6.85102E-09  7.49791E-09
   6.57954E-09  6.72082E-09  5.82958E-09  6.69925E-09  8.26682E-09  8.71353E-09  8.60040E-09  9.01772E-09  8.22794E-09  9.48794E-09
   9.82309E-09  1.01690E-08  1.04272E-08  1.09049E-08  1.01634E-08  1.05307E-08  1.00646E-08  1.03142E-08  1.02134E-08  9.90129E-09
   9.84696E-09  1.03383E-08  1.02096E-08  1.01923E-08  1.03402E-08  1.01898E-08  9.85209E-09  1.02452E-08  9.85519E-09  9.11694E-09
   8.29853E-09  8.93042E-09  6.87732E-09  4.96412E-09  7.71604E-09  1.52807E-08  1.93136E-08  2.18617E-08  2.10777E-08  2.23891E-08
   2.23970E-08  2.23581E-08  2.19198E-08  2.18745E-08  2.13069E-08  2.11280E-08  2.04758E-08  2.06690E-08  1.85072E-08  1.84845E-08
   1.63223E-08  1.47821E-08  1.24285E-08  1.05329E-08  7.49465E-09  5.13797E-09  2.33810E-09  3.39989E-10 -2.38413E-09 -4.57887E-09
  -6.88743E-09 -7.98222E-09 -9.87854E-09 -1.05400E-08 -1.11805E-08 -1.01351E-08 -1.05299E-08 -9.11519E-09 -8.49404E-09 -6.86830E-09
  -6.58440E-09 -5.09585E-09 -3.74229E-09 -3.31317E-09 -2.92707E-09 -1.29020E-09 -2.99145E-09 -1.77727E-09 -2.42548E-09 -2.01051E-09
  -2.76272E-09 -2.19966E-09 -2.26358E-09 -2.11191E-09 -2.40157E-09 -1.21636E-09 -1.57211E-09 -8.22829E-10 -1.59775E-09 -1.05570E-09
  -1.63674E-09 -1.17971E-09 -2.18847E-09 -1.69368E-09 -2.07570E-09 -1.17402E-09 -1.33291E-09 -8.31561E-10 -1.59896E-09 -7.09137E-10
  -1.23954E-09 -6.75496E-10 -1.24042E-09 -7.51298E-10 -1.80214E-09 -2.06476E-09 -2.18500E-09 -1.33637E-09 -2.13071E-09 -1.70228E-09
  -2.08917E-09 -9.31440E-10 -1.22073E-09 -8.52024E-10 -1.39696E-09 -2.86941E-10 -1.46539E-09 -1.50475E-10 -1.22010E-09 -5.75518E-10
  -9.92588E-10 -6.91858E-10 -1.13620E-09 -5.65063E-10 -1.14785E-09 -1.12194E-09 -1.30910E-09 -1.45866E-09 -2.44003E-09 -1.55019E-09
  -2.49661E-09 -2.08624E-09 -2.63920E-09 -2.28683E-09 -2.69781E-09 -2.12751E-09 -2.56539E-09 -2.09407E-09 -2.20964E-09 -1.29597E-09
  -1.45098E-09 -5.27892E-10 -1.27409E-09 -2.67205E-10 -9.55674E-10 -3.08095E-10 -5.70313E-10 -2.97683E-10 -4.51492E-10 -3.07109E-10
   1.41660E-10  4.56453E-11 -1.98366E-10 -1.04935E-10  1.69454E-11  2.31543E-10 -2.70137E-10  3.19552E-10 -2.56147E-10  2.56746E-10
  -5.62838E-10  8.95857E-11 -4.98645E-10 -1.03656E-10 -7.66046E-11 -4.91074E-10 -5.86204E-10 -1.50096E-10 -4.91852E-10 -1.41834E-10
  -8.04394E-10 -2.30404E-10 -7.26953E-10 -3.72892E-10 -5.43048E-10 -8.33950E-10 -7.84697E-10 -8.59097E-10 -8.65719E-10 -1.07509E-09
  -1.15596E-09 -1.14059E-09 -9.03388E-10 -1.13803E-09 -9.75979E-10 -8.43585E-10 -1.02331E-09 -1.17832E-09 -1.57872E-09 -1.72361E-09
  -1.26749E-09 -8.88687E-10 -9.53940E-10 -1.80452E-09 -9.22826E-10 -1.16362E-09 -1.58312E-09 -1.08790E-09 -1.24132E-09 -1.32046E-09
  -1.39683E-09 -1.01482E-09 -1.74763E-09 -1.59337E-09 -1.75776E-09 -1.29960E-09 -1.52270E-09 -1.85352E-09 -1.70694E-09 -1.79290E-09
  -1.41963E-09 -1.50272E-09 -2.47216E-09 -1.92032E-09 -1.48934E-09 -1.59919E-09 -2.04611E-09 -1.82617E-09 -1.49460E-09 -1.66584E-09
  -1.63039E-09 -1.91774E-09 -1.83224E-09 -1.89800E-09 -1.94504E-09 -2.09836E-09 -1.77671E-09 -1.46103E-09 -2.34687E-09 -1.82704E-09
  -2.24559E-09 -1.71749E-09 -2.10153E-09
 NY points of the fit to the data follow
   1.36954E-08  1.29258E-08  1.29589E-08  1.20866E-08  1.17003E-08  1.15891E-08  1.15602E-08  1.22619E-08  1.38886E-08  1.47977E-08
   1.31945E-08  1.22267E-08  1.18604E-08  1.17160E-08  1.18291E-08  1.18935E-08  1.22441E-08  1.33348E-08  1.53476E-08  1.46282E-08
   1.04425E-08  1.08017E-08  1.17694E-08  1.30518E-08  1.36441E-08  1.44238E-08  1.47503E-08  1.46097E-08  1.40343E-08  1.31860E-08
   1.29186E-08  1.20034E-08  1.12095E-08  1.07637E-08  1.04352E-08  9.93394E-09  9.56981E-09  9.74974E-09  9.63572E-09  9.53797E-09
   9.45145E-09  9.52427E-09  9.72290E-09  9.66197E-09  9.02090E-09  8.16717E-09  8.14328E-09  7.14285E-09  6.91012E-09  7.18790E-09
   7.87276E-09  8.42475E-09  8.75387E-09  9.87527E-09  1.10881E-08  1.13714E-08  1.17048E-08  1.28321E-08  1.34675E-08  1.32672E-08
   1.32173E-08  1.28568E-08  1.26943E-08  1.27029E-08  1.17350E-08  1.08195E-08  1.07762E-08  1.06343E-08  9.76815E-09  9.82821E-09
   1.04296E-08  1.08838E-08  1.17702E-08  1.22156E-08  1.31680E-08  1.45040E-08  1.53943E-08  1.58371E-08  1.60762E-08  1.61475E-08
   1.56710E-08  1.53731E-08  1.48117E-08  1.37993E-08  1.35368E-08  1.27988E-08  1.15593E-08  1.03462E-08  9.53794E-09  9.15571E-09
   8.87279E-09  8.69215E-09  8.66182E-09  8.58004E-09  8.40396E-09  8.39966E-09  8.37374E-09  8.26916E-09  8.25403E-09  8.22516E-09
   8.19603E-09  8.20076E-09  8.20770E-09  8.21457E-09  8.22914E-09  8.24913E-09  8.27215E-09  8.29750E-09  8.32364E-09  8.35041E-09
   8.37741E-09  8.40418E-09  8.43046E-09  8.45598E-09  8.48049E-09  8.50387E-09  8.52590E-09  8.54639E-09  8.56519E-09  8.58214E-09
   8.59710E-09  8.60997E-09  8.62062E-09  8.62893E-09  8.63476E-09  8.63804E-09  8.63864E-09  8.63646E-09  8.63140E-09  8.62337E-09
   8.61226E-09  8.59799E-09  8.58048E-09  8.55961E-09  8.53532E-09  8.50751E-09  8.47612E-09  8.44105E-09  8.40225E-09  8.35963E-09
   8.31313E-09  8.26269E-09  8.20827E-09  8.14980E-09  8.08726E-09  8.02061E-09  7.94985E-09  7.87499E-09  7.79606E-09  7.71314E-09
   7.62632E-09  7.53578E-09  7.44176E-09  7.34461E-09  7.24486E-09  7.14323E-09  7.04089E-09  6.93966E-09  6.84240E-09  6.75341E-09
   6.67972E-09  6.63358E-09  6.63859E-09  6.74638E-09  7.09373E-09  8.17293E-09  1.26089E-08  2.09185E-08  2.35646E-08  2.29057E-08
   2.28529E-08  2.29776E-08  2.26965E-08  2.22276E-08  2.18126E-08  2.21305E-08  2.31682E-08  1.95863E-08  1.00847E-08  5.90302E-09
   4.51210E-09  3.78811E-09  3.30311E-09  2.92901E-09  2.61520E-09  2.33803E-09  2.08496E-09  1.84888E-09  1.62555E-09  1.41224E-09
   1.20719E-09  1.00928E-09  8.17699E-10  6.32022E-10  4.51861E-10  2.77063E-10  1.07522E-10 -5.67570E-11 -2.15793E-10 -3.69482E-10
  -5.17736E-10 -6.60441E-10 -7.97447E-10 -9.28609E-10 -1.05375E-09 -1.17271E-09 -1.28527E-09 -1.39129E-09 -1.49061E-09 -1.58340E-09
  -1.66982E-09 -1.75006E-09 -1.82426E-09 -1.89260E-09 -1.95524E-09 -2.01236E-09 -2.06409E-09 -2.11059E-09 -2.15205E-09 -2.18860E-09
  -2.22038E-09 -2.24758E-09 -2.27035E-09 -2.28882E-09 -2.30315E-09 -2.31351E-09 -2.32002E-09 -2.32287E-09 -2.32220E-09 -2.31814E-09
  -2.31085E-09 -2.30049E-09 -2.28719E-09 -2.27114E-09 -2.25244E-09 -2.23129E-09 -2.20781E-09 -2.18214E-09 -2.15444E-09 -2.12487E-09
  -2.09357E-09 -2.06068E-09 -2.02636E-09 -1.99076E-09 -1.95402E-09 -1.91629E-09 -1.87774E-09 -1.83850E-09 -1.79870E-09 -1.75849E-09
  -1.71805E-09 -1.67752E-09 -1.63704E-09 -1.59673E-09 -1.55680E-09 -1.51733E-09 -1.47852E-09 -1.44049E-09 -1.40339E-09 -1.36740E-09
  -1.33254E-09 -1.29884E-09 -1.26629E-09 -1.23487E-09 -1.20458E-09 -1.17542E-09 -1.14736E-09 -1.12041E-09 -1.09455E-09 -1.06978E-09
  -1.04609E-09 -1.02347E-09 -1.00192E-09 -9.81406E-10 -9.61938E-10 -9.43514E-10 -9.26111E-10 -9.09730E-10 -8.94353E-10 -8.79986E-10
  -8.66601E-10 -8.54212E-10 -8.42783E-10 -8.32323E-10 -8.22830E-10 -8.14286E-10 -8.06673E-10 -7.99994E-10 -7.94244E-10 -7.89413E-10
  -7.85484E-10 -7.82446E-10 -7.80294E-10 -7.79038E-10 -7.78639E-10 -7.79116E-10 -7.80436E-10 -7.82603E-10 -7.85604E-10 -7.89441E-10
  -7.94101E-10 -7.99551E-10 -8.05822E-10 -8.12874E-10 -8.20710E-10 -8.29334E-10 -8.38722E-10 -8.48853E-10 -8.59755E-10 -8.71380E-10
  -8.83749E-10 -8.96853E-10 -9.10649E-10 -9.25130E-10 -9.40279E-10 -9.56076E-10 -9.72502E-10 -9.89535E-10 -1.00716E-09 -1.02535E-09
  -1.04409E-09 -1.06336E-09 -1.08314E-09 -1.10341E-09 -1.12415E-09 -1.14535E-09 -1.16697E-09 -1.18901E-09 -1.21144E-09 -1.23423E-09
  -1.25739E-09 -1.28088E-09 -1.30468E-09 -1.32878E-09 -1.35315E-09 -1.37777E-09 -1.40263E-09 -1.42771E-09 -1.45298E-09 -1.47843E-09
  -1.50404E-09 -1.52978E-09 -1.55565E-09 -1.58161E-09 -1.60765E-09 -1.63375E-09 -1.65989E-09 -1.68605E-09 -1.71222E-09 -1.73836E-09
  -1.76447E-09 -1.79051E-09 -1.81649E-09 -1.84236E-09 -1.86812E-09 -1.89374E-09 -1.91922E-09 -1.94451E-09 -1.96961E-09 -1.99450E-09
  -2.01916E-09 -2.04357E-09 -2.06770E-09
 NY background values follow
    -2.354E-09   -2.239E-09   -2.124E-09   -2.010E-09   -1.895E-09   -1.780E-09   -1.666E-09   -1.551E-09   -1.437E-09   -1.323E-09
    -1.209E-09   -1.094E-09   -9.805E-10   -8.667E-10   -7.531E-10   -6.397E-10   -5.266E-10   -4.136E-10   -3.009E-10   -1.884E-10
    -7.628E-11    3.559E-11    1.472E-10    2.584E-10    3.693E-10    4.798E-10    5.900E-10    6.997E-10    8.090E-10    9.179E-10
     1.026E-09    1.134E-09    1.242E-09    1.349E-09    1.455E-09    1.561E-09    1.667E-09    1.772E-09    1.876E-09    1.980E-09
     2.083E-09    2.185E-09    2.287E-09    2.388E-09    2.488E-09    2.588E-09    2.687E-09    2.785E-09    2.883E-09    2.980E-09
     3.076E-09    3.171E-09    3.265E-09    3.359E-09    3.451E-09    3.543E-09    3.634E-09    3.725E-09    3.814E-09    3.902E-09
     3.990E-09    4.077E-09    4.162E-09    4.247E-09    4.332E-09    4.415E-09    4.497E-09    4.579E-09    4.659E-09    4.739E-09
     4.818E-09    4.896E-09    4.972E-09    5.049E-09    5.124E-09    5.198E-09    5.271E-09    5.344E-09    5.415E-09    5.485E-09
     5.555E-09    5.624E-09    5.691E-09    5.758E-09    5.824E-09    5.888E-09    5.952E-09    6.015E-09    6.077E-09    6.138E-09
     6.198E-09    6.257E-09    6.315E-09    6.372E-09    6.428E-09    6.483E-09    6.537E-09    6.589E-09    6.641E-09    6.692E-09
     6.742E-09    6.791E-09    6.839E-09    6.886E-09    6.931E-09    6.976E-09    7.020E-09    7.062E-09    7.103E-09    7.142E-09
     7.180E-09    7.216E-09    7.251E-09    7.284E-09    7.315E-09    7.344E-09    7.371E-09    7.396E-09    7.418E-09    7.438E-09
     7.456E-09    7.472E-09    7.485E-09    7.495E-09    7.502E-09    7.507E-09    7.509E-09    7.507E-09    7.503E-09    7.495E-09
     7.484E-09    7.470E-09    7.453E-09    7.431E-09    7.407E-09    7.378E-09    7.346E-09    7.310E-09    7.270E-09    7.225E-09
     7.177E-09    7.125E-09    7.068E-09    7.007E-09    6.941E-09    6.871E-09    6.796E-09    6.716E-09    6.631E-09    6.542E-09
     6.448E-09    6.348E-09    6.243E-09    6.133E-09    6.018E-09    5.897E-09    5.771E-09    5.639E-09    5.503E-09    5.361E-09
     5.215E-09    5.064E-09    4.909E-09    4.751E-09    4.588E-09    4.422E-09    4.253E-09    4.081E-09    3.906E-09    3.728E-09
     3.548E-09    3.366E-09    3.182E-09    2.997E-09    2.810E-09    2.622E-09    2.433E-09    2.243E-09    2.053E-09    1.863E-09
     1.673E-09    1.483E-09    1.293E-09    1.104E-09    9.161E-10    7.293E-10    5.439E-10    3.601E-10    1.782E-10   -1.686E-12
    -1.792E-10   -3.542E-10   -5.264E-10   -6.955E-10   -8.614E-10   -1.024E-09   -1.183E-09   -1.337E-09   -1.488E-09   -1.634E-09
    -1.776E-09   -1.912E-09   -2.044E-09   -2.170E-09   -2.291E-09   -2.406E-09   -2.514E-09   -2.617E-09   -2.713E-09   -2.803E-09
    -2.887E-09   -2.964E-09   -3.036E-09   -3.103E-09   -3.163E-09   -3.218E-09   -3.268E-09   -3.313E-09   -3.353E-09   -3.388E-09
    -3.419E-09   -3.444E-09   -3.466E-09   -3.483E-09   -3.496E-09   -3.506E-09   -3.511E-09   -3.513E-09   -3.512E-09   -3.507E-09
    -3.498E-09   -3.487E-09   -3.473E-09   -3.456E-09   -3.437E-09   -3.415E-09   -3.391E-09   -3.365E-09   -3.336E-09   -3.306E-09
    -3.274E-09   -3.241E-09   -3.206E-09   -3.170E-09   -3.133E-09   -3.094E-09   -3.055E-09   -3.015E-09   -2.975E-09   -2.934E-09
    -2.894E-09   -2.853E-09   -2.812E-09   -2.771E-09   -2.731E-09   -2.691E-09   -2.651E-09   -2.613E-09   -2.575E-09   -2.539E-09
    -2.504E-09   -2.470E-09   -2.437E-09   -2.405E-09   -2.374E-09   -2.345E-09   -2.316E-09   -2.289E-09   -2.262E-09   -2.237E-09
    -2.213E-09   -2.190E-09   -2.168E-09   -2.147E-09   -2.127E-09   -2.109E-09   -2.091E-09   -2.074E-09   -2.058E-09   -2.043E-09
    -2.030E-09   -2.017E-09   -2.005E-09   -1.994E-09   -1.984E-09   -1.975E-09   -1.967E-09   -1.960E-09   -1.954E-09   -1.949E-09
    -1.944E-09   -1.941E-09   -1.938E-09   -1.937E-09   -1.936E-09   -1.936E-09   -1.937E-09   -1.938E-09   -1.941E-09   -1.944E-09
    -1.948E-09   -1.953E-09   -1.959E-09   -1.966E-09   -1.973E-09   -1.981E-09   -1.990E-09   -2.000E-09   -2.010E-09   -2.021E-09
    -2.033E-09   -2.046E-09   -2.059E-09   -2.073E-09   -2.088E-09   -2.103E-09   -2.119E-09   -2.136E-09   -2.153E-09   -2.170E-09
    -2.189E-09   -2.207E-09   -2.226E-09   -2.246E-09   -2.266E-09   -2.287E-09   -2.308E-09   -2.330E-09   -2.351E-09   -2.374E-09
    -2.396E-09   -2.419E-09   -2.442E-09   -2.466E-09   -2.490E-09   -2.514E-09   -2.538E-09   -2.562E-09   -2.587E-09   -2.612E-09
    -2.637E-09   -2.662E-09   -2.687E-09   -2.712E-09   -2.738E-09   -2.763E-09   -2.789E-09   -2.814E-09   -2.840E-09   -2.865E-09
    -2.891E-09   -2.916E-09   -2.941E-09   -2.966E-09   -2.992E-09   -3.016E-09   -3.041E-09   -3.066E-09   -3.090E-09   -3.114E-09
    -3.138E-09   -3.162E-09   -3.185E-09
 Asp      Conc. = 2.59E-10
  -2.07971E-09 -2.01883E-09 -1.92345E-09 -1.85401E-09 -1.75181E-09 -1.66253E-09 -1.58447E-09 -1.50343E-09 -1.40207E-09 -1.29412E-09
  -1.18346E-09 -1.07159E-09 -9.58947E-10 -8.45261E-10 -7.31666E-10 -6.18191E-10 -5.04806E-10 -3.91498E-10 -2.78335E-10 -1.65306E-10
  -5.24550E-11  6.02117E-11  1.72700E-10  2.84994E-10  3.97077E-10  5.08987E-10  6.20725E-10  7.32337E-10  8.43855E-10  9.55378E-10
   1.06704E-09  1.17899E-09  1.29162E-09  1.40554E-09  1.52208E-09  1.64465E-09  1.78040E-09  1.89501E-09  2.01826E-09  2.11911E-09
   2.21785E-09  2.33033E-09  2.47074E-09  2.62741E-09  2.80278E-09  2.97557E-09  3.05031E-09  3.10512E-09  3.26102E-09  3.35584E-09
   3.44794E-09  3.57097E-09  3.67726E-09  3.73842E-09  3.79028E-09  3.81684E-09  3.81705E-09  3.92038E-09  4.02663E-09  4.04465E-09
   4.10866E-09  4.18671E-09  4.24047E-09  4.31533E-09  4.41224E-09  4.49995E-09  4.55845E-09  4.62729E-09  4.70022E-09  4.77469E-09
   4.84968E-09  4.92468E-09  4.99937E-09  5.07361E-09  5.14725E-09  5.22022E-09  5.29246E-09  5.36393E-09  5.43460E-09  5.50443E-09
   5.57341E-09  5.64151E-09  5.70873E-09  5.77504E-09  5.84044E-09  5.90492E-09  5.96846E-09  6.03107E-09  6.09273E-09  6.15343E-09
   6.21317E-09  6.27194E-09  6.32974E-09  6.38655E-09  6.44238E-09  6.49723E-09  6.55107E-09  6.60392E-09  6.65576E-09  6.70659E-09
   6.75640E-09  6.80520E-09  6.85298E-09  6.89972E-09  6.94544E-09  6.99006E-09  7.03352E-09  7.07571E-09  7.11655E-09  7.15597E-09
   7.19386E-09  7.23014E-09  7.26473E-09  7.29753E-09  7.32847E-09  7.35744E-09  7.38437E-09  7.40917E-09  7.43175E-09  7.45202E-09
   7.46990E-09  7.48529E-09  7.49812E-09  7.50830E-09  7.51573E-09  7.52033E-09  7.52202E-09  7.52070E-09  7.51629E-09  7.50870E-09
   7.49785E-09  7.48365E-09  7.46601E-09  7.44484E-09  7.42006E-09  7.39157E-09  7.35931E-09  7.32317E-09  7.28307E-09  7.23892E-09
   7.19064E-09  7.13814E-09  7.08134E-09  7.02015E-09  6.95447E-09  6.88422E-09  6.80934E-09  6.72971E-09  6.64526E-09  6.55592E-09
   6.46157E-09  6.36217E-09  6.25762E-09  6.14783E-09  6.03274E-09  5.91226E-09  5.78640E-09  5.65530E-09  5.51926E-09  5.37858E-09
   5.23364E-09  5.08489E-09  4.93300E-09  4.77917E-09  4.62616E-09  4.48276E-09  4.39472E-09  4.45134E-09  4.32367E-09  4.12228E-09
   3.94918E-09  3.77605E-09  3.58949E-09  3.39798E-09  3.20589E-09  3.02532E-09  2.87766E-09  2.63783E-09  2.19145E-09  1.93542E-09
   1.72300E-09  1.52240E-09  1.32674E-09  1.13395E-09  9.43257E-10  7.54495E-10  5.67588E-10  3.82604E-10  1.99739E-10  1.91329E-11
  -1.59035E-10 -3.34528E-10 -5.07182E-10 -6.76716E-10 -8.42975E-10 -1.00570E-09 -1.16469E-09 -1.31968E-09 -1.47049E-09 -1.61685E-09
  -1.75856E-09 -1.89537E-09 -2.02706E-09 -2.15342E-09 -2.27419E-09 -2.38916E-09 -2.49806E-09 -2.60073E-09 -2.69697E-09 -2.78691E-09
  -2.87071E-09 -2.94850E-09 -3.02044E-09 -3.08668E-09 -3.14735E-09 -3.20263E-09 -3.25263E-09 -3.29752E-09 -3.33746E-09 -3.37258E-09
  -3.40302E-09 -3.42895E-09 -3.45051E-09 -3.46783E-09 -3.48109E-09 -3.49042E-09 -3.49594E-09 -3.49786E-09 -3.49630E-09 -3.49138E-09
  -3.48327E-09 -3.47213E-09 -3.45807E-09 -3.44129E-09 -3.42190E-09 -3.40007E-09 -3.37594E-09 -3.34964E-09 -3.32134E-09 -3.29118E-09
  -3.25930E-09 -3.22585E-09 -3.19099E-09 -3.15486E-09 -3.11760E-09 -3.07937E-09 -3.04032E-09 -3.00060E-09 -2.96032E-09 -2.91965E-09
  -2.87875E-09 -2.83777E-09 -2.79684E-09 -2.75609E-09 -2.71573E-09 -2.67584E-09 -2.63660E-09 -2.59815E-09 -2.56065E-09 -2.52424E-09
  -2.48897E-09 -2.45487E-09 -2.42191E-09 -2.39010E-09 -2.35941E-09 -2.32985E-09 -2.30139E-09 -2.27405E-09 -2.24780E-09 -2.22263E-09
  -2.19855E-09 -2.17554E-09 -2.15359E-09 -2.13269E-09 -2.11283E-09 -2.09401E-09 -2.07621E-09 -2.05943E-09 -2.04366E-09 -2.02889E-09
  -2.01511E-09 -2.00232E-09 -1.99049E-09 -1.97963E-09 -1.96973E-09 -1.96077E-09 -1.95275E-09 -1.94566E-09 -1.93949E-09 -1.93425E-09
  -1.92990E-09 -1.92644E-09 -1.92386E-09 -1.92218E-09 -1.92135E-09 -1.92139E-09 -1.92227E-09 -1.92400E-09 -1.92656E-09 -1.92995E-09
  -1.93416E-09 -1.93915E-09 -1.94497E-09 -1.95156E-09 -1.95893E-09 -1.96709E-09 -1.97601E-09 -1.98567E-09 -1.99609E-09 -2.00723E-09
  -2.01912E-09 -2.03173E-09 -2.04504E-09 -2.05902E-09 -2.07367E-09 -2.08896E-09 -2.10487E-09 -2.12139E-09 -2.13850E-09 -2.15616E-09
  -2.17438E-09 -2.19312E-09 -2.21236E-09 -2.23209E-09 -2.25229E-09 -2.27294E-09 -2.29401E-09 -2.31549E-09 -2.33735E-09 -2.35958E-09
  -2.38217E-09 -2.40508E-09 -2.42830E-09 -2.45181E-09 -2.47559E-09 -2.49962E-09 -2.52388E-09 -2.54835E-09 -2.57301E-09 -2.59785E-09
  -2.62283E-09 -2.64795E-09 -2.67319E-09 -2.69851E-09 -2.72391E-09 -2.74936E-09 -2.77485E-09 -2.80036E-09 -2.82586E-09 -2.85133E-09
  -2.87677E-09 -2.90213E-09 -2.92742E-09 -2.95261E-09 -2.97767E-09 -3.00260E-09 -3.02736E-09 -3.05194E-09 -3.07633E-09 -3.10049E-09
  -3.12442E-09 -3.14809E-09 -3.17149E-09
 GABA     Conc. = 3.41E-10
  -2.29976E-09 -2.18445E-09 -2.06907E-09 -1.95363E-09 -1.83813E-09 -1.72261E-09 -1.60706E-09 -1.49149E-09 -1.37591E-09 -1.26029E-09
  -1.14470E-09 -1.02907E-09 -9.13402E-10 -7.97760E-10 -6.82005E-10 -5.66206E-10 -4.50416E-10 -3.34344E-10 -2.18055E-10 -1.01536E-10
   1.55038E-11  1.33255E-10  2.51982E-10  3.72215E-10  4.94735E-10  6.20787E-10  7.53171E-10  8.97847E-10  1.07090E-09  1.30964E-09
   1.41644E-09  1.54423E-09  1.88274E-09  2.04179E-09  2.08939E-09  2.29286E-09  2.45171E-09  2.54451E-09  2.64454E-09  2.68893E-09
   2.64189E-09  2.79157E-09  2.87858E-09  2.71473E-09  2.76915E-09  2.89856E-09  2.87838E-09  2.91899E-09  2.99184E-09  3.07654E-09
   3.16693E-09  3.25998E-09  3.35473E-09  3.45095E-09  3.54838E-09  3.64709E-09  3.74772E-09  3.85122E-09  3.95949E-09  4.07701E-09
   4.21371E-09  4.40007E-09  4.58296E-09  4.65577E-09  4.84754E-09  5.08079E-09  5.13024E-09  5.19509E-09  5.32374E-09  5.40804E-09
   5.47155E-09  5.52186E-09  5.48597E-09  5.46551E-09  5.58198E-09  5.52466E-09  5.43170E-09  5.52238E-09  5.57609E-09  5.62435E-09
   5.72061E-09  5.75501E-09  5.85486E-09  6.04631E-09  6.10615E-09  6.17446E-09  6.34129E-09  6.42973E-09  6.49839E-09  6.60907E-09
   6.65188E-09  6.67158E-09  6.79279E-09  6.81787E-09  6.74547E-09  6.82955E-09  6.87345E-09  6.82027E-09  6.84494E-09  6.87930E-09
   6.89182E-09  6.91599E-09  6.94695E-09  6.98146E-09  7.01789E-09  7.05513E-09  7.09262E-09  7.12989E-09  7.16662E-09  7.20261E-09
   7.23762E-09  7.27138E-09  7.30375E-09  7.33460E-09  7.36377E-09  7.39123E-09  7.41683E-09  7.44043E-09  7.46193E-09  7.48123E-09
   7.49821E-09  7.51280E-09  7.52490E-09  7.53440E-09  7.54121E-09  7.54525E-09  7.54642E-09  7.54462E-09  7.53977E-09  7.53178E-09
   7.52054E-09  7.50598E-09  7.48801E-09  7.46653E-09  7.44147E-09  7.41272E-09  7.38021E-09  7.34384E-09  7.30352E-09  7.25918E-09
   7.21071E-09  7.15803E-09  7.10107E-09  7.03972E-09  6.97391E-09  6.90353E-09  6.82853E-09  6.74879E-09  6.66425E-09  6.57482E-09
   6.48041E-09  6.38094E-09  6.27635E-09  6.16653E-09  6.05144E-09  5.93098E-09  5.80517E-09  5.67416E-09  5.53828E-09  5.39783E-09
   5.25325E-09  5.10504E-09  4.95403E-09  4.80169E-09  4.65150E-09  4.51469E-09  4.44901E-09  4.58121E-09  4.47122E-09  4.26183E-09
   4.09046E-09  3.92022E-09  3.73279E-09  3.53922E-09  3.34520E-09  3.16602E-09  3.03223E-09  2.78112E-09  2.25034E-09  1.97111E-09
   1.75123E-09  1.54714E-09  1.34951E-09  1.15546E-09  9.63900E-10  7.74500E-10  5.87108E-10  4.01742E-10  2.18568E-10  3.77078E-11
  -1.40674E-10 -3.16349E-10 -4.89161E-10 -6.58832E-10 -8.25212E-10 -9.88048E-10 -1.14713E-09 -1.30221E-09 -1.45310E-09 -1.59953E-09
  -1.74130E-09 -1.87818E-09 -2.00993E-09 -2.13633E-09 -2.25715E-09 -2.37217E-09 -2.48111E-09 -2.58383E-09 -2.68010E-09 -2.77009E-09
  -2.85391E-09 -2.93174E-09 -3.00371E-09 -3.06998E-09 -3.13068E-09 -3.18598E-09 -3.23602E-09 -3.28093E-09 -3.32089E-09 -3.35604E-09
  -3.38650E-09 -3.41245E-09 -3.43402E-09 -3.45137E-09 -3.46465E-09 -3.47399E-09 -3.47954E-09 -3.48147E-09 -3.47993E-09 -3.47502E-09
