 LCModel (Version 6.3-1R) Copyright: S.W. Provencher.          Ref.: Magn. Reson. Med. 30:672-679 (1993).                
 onepulse 14x14_ftSpec_smooth_lcm
 26 lines in following concentration table = NCONC+1
    Conc.  %SD   /Cr    Metabolite                                         
 1.93E-11 999%   0.000 Ala                                                 
    0.000 999%   0.000 Asp                                                 
    0.000 999%   0.000 Cr                                                  
 4.60E-10 136%   0.000 GABA                                                
    0.000 999%   0.000 Glc                                                 
 1.39E-09  49%   0.000 Gln                                                 
    0.000 999%   0.000 Glu                                                 
 3.05E-09  17%   0.000 Glyc                                                
    0.000 999%   0.000 GPC                                                 
 2.07E-09  23%   0.000 GSH                                                 
    0.000 999%   0.000 Ins                                                 
    0.000 999%   0.000 Lac                                                 
 2.71E-10 120%   0.000 NAAG                                                
 2.74E-10 175%   0.000 NAA                                                 
    0.000 999%   0.000 PCh                                                 
    0.000 999%   0.000 PCr                                                 
 4.25E-09  23%   0.000 PE                                                  
 1.47E-10 180%   0.000 Scyllo                                              
    0.000 999%   0.000 Ser                                                 
 3.00E-10 322%   0.000 Tau                                                 
    0.000 999%   0.000 GPC+PCh                                             
 5.46E-10  59%   0.000 NAA+NAAG                                            
 3.05E-09  17%   0.000 Ins+Glyc                                            
    0.000 999%   0.000 Cr+PCr                                              
 1.39E-09  49%   0.000 Glu+Gln                                             
   6 lines in following misc. output table
  FWHM = 0.123 ppm    S/N =   3                                            
  Data shift = 0.447 ppm                                                   
  Ph:  38 deg     -28.9 deg/ppm                                            
  alphaB,S = 5.0E-01,   1.2E+01                                            
   10 spline knots.   Ns = 5(1)                                            
  (12) 6 infls.   (11) 3 extrs.                                            
  363 points on ppm-axis = NY
      4.250000     4.238821     4.227641     4.216462     4.205282     4.194103     4.182923     4.171744     4.160564     4.149385
      4.138206     4.127026     4.115847     4.104667     4.093488     4.082308     4.071129     4.059949     4.048770     4.037591
      4.026411     4.015232     4.004052     3.992873     3.981693     3.970514     3.959334     3.948155     3.936975     3.925796
      3.914617     3.903437     3.892258     3.881078     3.869899     3.858719     3.847540     3.836360     3.825181     3.814002
      3.802822     3.791643     3.780463     3.769284     3.758104     3.746925     3.735745     3.724566     3.713387     3.702207
      3.691028     3.679848     3.668669     3.657489     3.646310     3.635130     3.623951     3.612772     3.601592     3.590413
      3.579233     3.568054     3.556874     3.545695     3.534515     3.523336     3.512156     3.500977     3.489798     3.478618
      3.467439     3.456259     3.445080     3.433900     3.422721     3.411541     3.400362     3.389183     3.378003     3.366824
      3.355644     3.344465     3.333285     3.322106     3.310926     3.299747     3.288568     3.277388     3.266209     3.255029
      3.243850     3.232670     3.221491     3.210311     3.199132     3.187953     3.176773     3.165594     3.154414     3.143235
      3.132055     3.120876     3.109696     3.098517     3.087337     3.076158     3.064979     3.053799     3.042620     3.031440
      3.020261     3.009081     2.997902     2.986722     2.975543     2.964364     2.953184     2.942005     2.930825     2.919646
      2.908466     2.897287     2.886107     2.874928     2.863749     2.852569     2.841390     2.830210     2.819031     2.807851
      2.796672     2.785492     2.774313     2.763134     2.751954     2.740775     2.729595     2.718416     2.707236     2.696057
      2.684877     2.673698     2.662519     2.651339     2.640160     2.628980     2.617801     2.606621     2.595442     2.584262
      2.573083     2.561903     2.550724     2.539545     2.528365     2.517186     2.506006     2.494827     2.483647     2.472468
      2.461288     2.450109     2.438930     2.427750     2.416571     2.405391     2.394212     2.383032     2.371853     2.360673
      2.349494     2.338315     2.327135     2.315956     2.304776     2.293597     2.282417     2.271238     2.260058     2.248879
      2.237700     2.226520     2.215341     2.204161     2.192982     2.181802     2.170623     2.159443     2.148264     2.137084
      2.125905     2.114726     2.103546     2.092367     2.081187     2.070008     2.058828     2.047649     2.036469     2.025290
      2.014111     2.002931     1.991752     1.980572     1.969393     1.958213     1.947034     1.935854     1.924675     1.913496
      1.902316     1.891137     1.879957     1.868778     1.857598     1.846419     1.835239     1.824060     1.812881     1.801701
      1.790522     1.779342     1.768163     1.756983     1.745804     1.734624     1.723445     1.712265     1.701086     1.689907
      1.678727     1.667548     1.656368     1.645189     1.634009     1.622830     1.611650     1.600471     1.589292     1.578112
      1.566933     1.555753     1.544574     1.533394     1.522215     1.511035     1.499856     1.488677     1.477497     1.466318
      1.455138     1.443959     1.432779     1.421600     1.410420     1.399241     1.388062     1.376882     1.365703     1.354523
      1.343344     1.332164     1.320985     1.309805     1.298626     1.287446     1.276267     1.265088     1.253908     1.242729
      1.231549     1.220370     1.209190     1.198011     1.186831     1.175652     1.164473     1.153293     1.142114     1.130934
      1.119755     1.108575     1.097396     1.086216     1.075037     1.063858     1.052678     1.041499     1.030319     1.019140
      1.007960     0.996781     0.985601     0.974422     0.963243     0.952063     0.940884     0.929704     0.918525     0.907345
      0.896166     0.884986     0.873807     0.862628     0.851448     0.840269     0.829089     0.817910     0.806730     0.795551
      0.784371     0.773192     0.762012     0.750833     0.739654     0.728474     0.717295     0.706115     0.694936     0.683756
      0.672577     0.661397     0.650218     0.639039     0.627859     0.616680     0.605500     0.594321     0.583141     0.571962
      0.560782     0.549603     0.538424     0.527244     0.516065     0.504885     0.493706     0.482526     0.471347     0.460167
      0.448988     0.437809     0.426629     0.415450     0.404270     0.393091     0.381911     0.370732     0.359552     0.348373
      0.337193     0.326014     0.314835     0.303655     0.292476     0.281296     0.270117     0.258937     0.247758     0.236578
      0.225399     0.214220     0.203040
 NY phased data points follow
   1.45917E-08  1.28685E-08  1.43426E-08  1.31438E-08  1.46214E-08  1.36422E-08  1.50050E-08  1.41452E-08  1.55270E-08  1.37223E-08
   1.47075E-08  1.37424E-08  1.40984E-08  1.29263E-08  1.36738E-08  1.29886E-08  1.46992E-08  1.44606E-08  1.43965E-08  1.36387E-08
   1.32074E-08  1.25281E-08  1.36070E-08  1.46328E-08  1.57706E-08  1.60404E-08  1.68520E-08  1.63021E-08  1.48589E-08  1.44510E-08
   1.36226E-08  1.36425E-08  1.26283E-08  1.33450E-08  1.23766E-08  1.20193E-08  1.21692E-08  1.19163E-08  1.09103E-08  1.10105E-08
   9.75640E-09  1.06763E-08  1.03835E-08  1.03480E-08  9.74509E-09  1.03347E-08  8.85870E-09  8.93590E-09  8.04904E-09  7.75275E-09
   6.77302E-09  7.29116E-09  6.38550E-09  7.79758E-09  8.87534E-09  1.31133E-08  1.41075E-08  1.46714E-08  1.36977E-08  1.38777E-08
   1.28511E-08  1.28339E-08  1.08543E-08  1.11828E-08  1.02385E-08  1.02033E-08  8.37343E-09  7.88281E-09  5.54011E-09  5.99863E-09
   5.91578E-09  1.02838E-08  1.24619E-08  1.59068E-08  1.52821E-08  1.57854E-08  1.47748E-08  1.55259E-08  1.44100E-08  1.50692E-08
   1.41105E-08  1.45702E-08  1.36536E-08  1.43888E-08  1.36148E-08  1.37657E-08  1.25131E-08  1.32442E-08  1.19260E-08  1.24531E-08
   1.10087E-08  1.14478E-08  1.00638E-08  1.06965E-08  1.01928E-08  1.04653E-08  9.86210E-09  1.05910E-08  9.81610E-09  1.08031E-08
   9.04055E-09  8.88732E-09  7.91414E-09  7.79263E-09  6.48387E-09  8.29647E-09  7.34109E-09  8.12529E-09  7.45071E-09  8.65570E-09
   7.42818E-09  8.49111E-09  8.33448E-09  9.65153E-09  8.27133E-09  8.74879E-09  7.56045E-09  7.73621E-09  5.87330E-09  6.41554E-09
   6.35872E-09  6.66898E-09  5.62765E-09  6.38616E-09  5.91594E-09  6.85936E-09  5.89238E-09  6.95943E-09  5.69191E-09  6.11089E-09
   4.76563E-09  5.86550E-09  6.04784E-09  7.87857E-09  6.88740E-09  8.18555E-09  6.73372E-09  8.10532E-09  7.85331E-09  9.14156E-09
   8.71956E-09  9.74334E-09  8.78495E-09  9.40394E-09  8.79620E-09  9.47753E-09  9.24619E-09  9.55468E-09  8.36855E-09  9.61223E-09
   8.38986E-09  9.68967E-09  9.06101E-09  9.96972E-09  8.68754E-09  9.53342E-09  8.90890E-09  8.15072E-09  6.34840E-09  7.09197E-09
   5.30971E-09  4.80386E-09  5.53587E-09  1.27290E-08  1.59764E-08  1.96195E-08  1.92430E-08  2.08943E-08  2.04094E-08  2.17483E-08
   2.10580E-08  2.17057E-08  2.09833E-08  2.14968E-08  2.10849E-08  2.21314E-08  2.00306E-08  2.06930E-08  1.88029E-08  1.87199E-08
   1.63431E-08  1.55038E-08  1.24670E-08  1.11193E-08  8.29536E-09  6.64627E-09  3.26476E-09  1.73740E-09 -1.21141E-09 -2.44844E-09
  -5.49977E-09 -6.77205E-09 -8.61149E-09 -7.94814E-09 -9.37946E-09 -8.39479E-09 -9.06691E-09 -7.00867E-09 -7.61221E-09 -5.75393E-09
  -4.96536E-09 -3.69827E-09 -3.95578E-09 -1.54853E-09 -2.75357E-09 -1.78027E-09 -1.85363E-09 -1.33082E-09 -3.10686E-09 -1.47855E-09
  -2.47892E-09 -1.69298E-09 -2.77897E-09 -1.18217E-09 -1.79210E-09 -8.55590E-10 -1.57179E-09 -3.56982E-10 -1.60591E-09 -5.71758E-10
  -2.52672E-09 -1.40403E-09 -1.89904E-09 -1.04140E-09 -1.82437E-09 -9.29756E-10 -1.81054E-09 -1.16162E-10 -1.56124E-09 -2.88853E-10
  -1.35164E-09 -6.94242E-10 -2.06787E-09 -1.52668E-09 -1.95084E-09 -9.57860E-10 -2.80964E-09 -1.46861E-09 -2.10022E-09 -9.51565E-10
  -1.34665E-09 -1.00438E-09 -1.76163E-09 -1.45603E-10 -1.98800E-09 -3.27837E-10 -8.84972E-10 -1.22096E-10 -1.13939E-09 -5.67905E-10
  -1.17235E-09 -2.64231E-10 -1.31954E-09 -1.07175E-09 -1.84901E-09 -1.38956E-09 -2.72178E-09 -1.72879E-09 -2.96372E-09 -2.24790E-09
  -3.11748E-09 -2.41083E-09 -2.84805E-09 -1.99685E-09 -2.26257E-09 -1.82848E-09 -2.41954E-09 -1.16635E-09 -1.54865E-09 -6.67245E-11
  -1.40757E-09 -2.45999E-10 -1.12000E-09  1.25325E-11 -9.42142E-10 -2.77440E-10 -5.99019E-10 -4.15484E-10 -2.76180E-10 -9.76074E-11
  -7.44052E-10 -1.23760E-10 -7.17399E-10 -2.60098E-10 -1.29429E-09 -2.72304E-10 -9.41461E-10 -9.06291E-11 -1.14083E-09 -7.61405E-10
  -1.21162E-09 -7.27593E-10 -7.85369E-10 -9.90256E-10 -1.35737E-09 -1.13649E-09 -1.16643E-09 -1.12318E-09 -1.69911E-09 -1.39306E-09
  -1.71805E-09 -1.40687E-09 -1.68324E-09 -1.75755E-09 -1.45299E-09 -1.80759E-09 -2.18075E-09 -2.11527E-09 -1.79530E-09 -2.20969E-09
  -2.20531E-09 -1.92243E-09 -1.94380E-09 -2.43212E-09 -2.34462E-09 -2.05151E-09 -2.93236E-09 -2.82011E-09 -2.56545E-09 -2.22707E-09
  -2.39648E-09 -3.03333E-09 -2.34094E-09 -2.59751E-09 -3.22910E-09 -2.26997E-09 -2.45077E-09 -2.85419E-09 -2.82648E-09 -2.77873E-09
  -3.36946E-09 -3.01022E-09 -2.93390E-09 -3.01575E-09 -3.34815E-09 -3.26271E-09 -3.63933E-09 -3.33408E-09 -3.21464E-09 -3.04405E-09
  -3.97047E-09 -3.10454E-09 -3.07166E-09 -3.24677E-09 -3.69661E-09 -3.58244E-09 -3.36627E-09 -3.55420E-09 -3.65033E-09 -3.37456E-09
  -3.85206E-09 -3.52485E-09 -3.53586E-09 -4.06800E-09 -3.40480E-09 -3.76862E-09 -3.76558E-09 -3.70563E-09 -3.81938E-09 -3.57718E-09
  -3.87462E-09 -4.17727E-09 -3.55863E-09
 NY points of the fit to the data follow
   1.57738E-08  1.46994E-08  1.44878E-08  1.34998E-08  1.31952E-08  1.31827E-08  1.32793E-08  1.40704E-08  1.52323E-08  1.59007E-08
   1.50413E-08  1.37100E-08  1.29611E-08  1.29175E-08  1.31537E-08  1.33613E-08  1.37653E-08  1.47567E-08  1.63723E-08  1.64332E-08
   1.21511E-08  1.18072E-08  1.27215E-08  1.41102E-08  1.48114E-08  1.57736E-08  1.61179E-08  1.60132E-08  1.56833E-08  1.55246E-08
   1.54162E-08  1.43789E-08  1.35988E-08  1.31883E-08  1.24890E-08  1.17280E-08  1.12566E-08  1.12442E-08  1.09739E-08  1.08298E-08
   1.07087E-08  1.08360E-08  1.10799E-08  1.08444E-08  9.95304E-09  9.03944E-09  8.87267E-09  7.70721E-09  7.39950E-09  7.67794E-09
   8.40907E-09  8.85140E-09  9.10609E-09  1.02447E-08  1.10920E-08  1.10788E-08  1.15571E-08  1.24546E-08  1.28280E-08  1.26808E-08
   1.26155E-08  1.21736E-08  1.21266E-08  1.20533E-08  1.10342E-08  1.05328E-08  1.06980E-08  1.03809E-08  9.79546E-09  1.01664E-08
   1.06466E-08  1.08914E-08  1.18157E-08  1.21236E-08  1.28014E-08  1.38074E-08  1.45634E-08  1.54874E-08  1.57850E-08  1.57068E-08
   1.51200E-08  1.49434E-08  1.46974E-08  1.37698E-08  1.34987E-08  1.29792E-08  1.21757E-08  1.11358E-08  9.77490E-09  9.28885E-09
   9.01102E-09  8.82761E-09  8.82968E-09  8.74855E-09  8.53013E-09  8.53818E-09  8.51452E-09  8.36521E-09  8.33424E-09  8.30935E-09
   8.27937E-09  8.25551E-09  8.24149E-09  8.25383E-09  8.25555E-09  8.25267E-09  8.25488E-09  8.25982E-09  8.26553E-09  8.27159E-09
   8.26585E-09  8.24443E-09  8.25355E-09  8.25504E-09  8.23177E-09  8.22385E-09  8.21917E-09  8.21459E-09  8.20913E-09  8.20239E-09
   8.19413E-09  8.18423E-09  8.17257E-09  8.15906E-09  8.14363E-09  8.12623E-09  8.10679E-09  8.08528E-09  8.06164E-09  8.03584E-09
   8.00783E-09  7.97759E-09  7.94510E-09  7.91031E-09  7.87323E-09  7.83380E-09  7.79204E-09  7.74791E-09  7.70142E-09  7.65257E-09
   7.60135E-09  7.54778E-09  7.49189E-09  7.43370E-09  7.37324E-09  7.31059E-09  7.24582E-09  7.17903E-09  7.11037E-09  7.04001E-09
   6.96817E-09  6.89517E-09  6.82142E-09  6.74743E-09  6.67395E-09  6.60198E-09  6.53300E-09  6.46915E-09  6.41374E-09  6.37177E-09
   6.35145E-09  6.36704E-09  6.44609E-09  6.64911E-09  7.13829E-09  8.51212E-09  1.38566E-08  2.08390E-08  2.31892E-08  2.22485E-08
   2.17680E-08  2.18907E-08  2.19526E-08  2.18926E-08  2.19049E-08  2.25527E-08  2.30824E-08  1.85195E-08  1.04937E-08  5.85581E-09
   4.44215E-09  3.78960E-09  3.38296E-09  3.08352E-09  2.83968E-09  2.62831E-09  2.43749E-09  2.26060E-09  2.09376E-09  1.93452E-09
   1.78129E-09  1.63307E-09  1.48913E-09  1.34908E-09  1.21254E-09  1.07937E-09  9.49424E-10  8.22686E-10  6.99085E-10  5.78685E-10
   4.61505E-10  3.47602E-10  2.37057E-10  1.29944E-10  2.63638E-11 -7.35934E-11 -1.69785E-10 -2.62165E-10 -3.50608E-10 -4.35221E-10
  -5.16085E-10 -5.93298E-10 -6.66945E-10 -7.37122E-10 -8.03906E-10 -8.67396E-10 -9.27664E-10 -9.84794E-10 -1.03888E-09 -1.09001E-09
  -1.13824E-09 -1.18367E-09 -1.22638E-09 -1.26645E-09 -1.30396E-09 -1.33899E-09 -1.37161E-09 -1.40193E-09 -1.43001E-09 -1.45592E-09
  -1.47975E-09 -1.50158E-09 -1.52148E-09 -1.53955E-09 -1.55585E-09 -1.57048E-09 -1.58350E-09 -1.59498E-09 -1.60503E-09 -1.61370E-09
  -1.62108E-09 -1.62725E-09 -1.63228E-09 -1.63626E-09 -1.63927E-09 -1.64137E-09 -1.64267E-09 -1.64323E-09 -1.64311E-09 -1.64241E-09
  -1.64120E-09 -1.63958E-09 -1.63761E-09 -1.63534E-09 -1.63292E-09 -1.63036E-09 -1.62778E-09 -1.62522E-09 -1.62280E-09 -1.62059E-09
  -1.61862E-09 -1.61690E-09 -1.61546E-09 -1.61429E-09 -1.61342E-09 -1.61286E-09 -1.61260E-09 -1.61268E-09 -1.61308E-09 -1.61384E-09
  -1.61496E-09 -1.61644E-09 -1.61830E-09 -1.62055E-09 -1.62320E-09 -1.62627E-09 -1.62976E-09 -1.63368E-09 -1.63804E-09 -1.64286E-09
  -1.64815E-09 -1.65391E-09 -1.66016E-09 -1.66691E-09 -1.67417E-09 -1.68195E-09 -1.69025E-09 -1.69910E-09 -1.70850E-09 -1.71847E-09
  -1.72901E-09 -1.74013E-09 -1.75185E-09 -1.76418E-09 -1.77712E-09 -1.79070E-09 -1.80491E-09 -1.81976E-09 -1.83528E-09 -1.85147E-09
  -1.86835E-09 -1.88591E-09 -1.90418E-09 -1.92316E-09 -1.94287E-09 -1.96331E-09 -1.98451E-09 -2.00645E-09 -2.02917E-09 -2.05266E-09
  -2.07694E-09 -2.10203E-09 -2.12790E-09 -2.15454E-09 -2.18192E-09 -2.21002E-09 -2.23883E-09 -2.26831E-09 -2.29845E-09 -2.32922E-09
  -2.36061E-09 -2.39259E-09 -2.42514E-09 -2.45824E-09 -2.49186E-09 -2.52599E-09 -2.56060E-09 -2.59568E-09 -2.63119E-09 -2.66711E-09
  -2.70344E-09 -2.74014E-09 -2.77718E-09 -2.81457E-09 -2.85226E-09 -2.89023E-09 -2.92847E-09 -2.96695E-09 -3.00566E-09 -3.04456E-09
  -3.08364E-09 -3.12288E-09 -3.16225E-09 -3.20174E-09 -3.24131E-09 -3.28095E-09 -3.32064E-09 -3.36036E-09 -3.40008E-09 -3.43978E-09
  -3.47944E-09 -3.51904E-09 -3.55856E-09 -3.59797E-09 -3.63725E-09 -3.67638E-09 -3.71535E-09 -3.75412E-09 -3.79268E-09 -3.83100E-09
  -3.86906E-09 -3.90685E-09 -3.94433E-09
 NY background values follow
    -3.809E-10   -2.926E-10   -2.042E-10   -1.157E-10   -2.710E-11    6.152E-11    1.502E-10    2.389E-10    3.277E-10    4.165E-10
     5.052E-10    5.940E-10    6.828E-10    7.715E-10    8.602E-10    9.488E-10    1.037E-09    1.126E-09    1.214E-09    1.303E-09
     1.391E-09    1.479E-09    1.567E-09    1.655E-09    1.743E-09    1.830E-09    1.918E-09    2.005E-09    2.092E-09    2.179E-09
     2.265E-09    2.351E-09    2.438E-09    2.523E-09    2.609E-09    2.694E-09    2.779E-09    2.864E-09    2.949E-09    3.033E-09
     3.117E-09    3.200E-09    3.283E-09    3.366E-09    3.448E-09    3.531E-09    3.612E-09    3.693E-09    3.774E-09    3.855E-09
     3.935E-09    4.014E-09    4.093E-09    4.172E-09    4.250E-09    4.327E-09    4.404E-09    4.481E-09    4.556E-09    4.632E-09
     4.706E-09    4.780E-09    4.854E-09    4.926E-09    4.998E-09    5.069E-09    5.139E-09    5.209E-09    5.278E-09    5.345E-09
     5.412E-09    5.479E-09    5.544E-09    5.608E-09    5.671E-09    5.734E-09    5.795E-09    5.856E-09    5.915E-09    5.973E-09
     6.030E-09    6.086E-09    6.141E-09    6.195E-09    6.247E-09    6.299E-09    6.349E-09    6.398E-09    6.445E-09    6.492E-09
     6.537E-09    6.580E-09    6.623E-09    6.664E-09    6.703E-09    6.741E-09    6.778E-09    6.813E-09    6.847E-09    6.879E-09
     6.909E-09    6.938E-09    6.966E-09    6.992E-09    7.016E-09    7.038E-09    7.059E-09    7.078E-09    7.095E-09    7.111E-09
     7.125E-09    7.137E-09    7.146E-09    7.155E-09    7.161E-09    7.165E-09    7.167E-09    7.167E-09    7.165E-09    7.161E-09
     7.155E-09    7.146E-09    7.135E-09    7.123E-09    7.107E-09    7.090E-09    7.070E-09    7.048E-09    7.024E-09    6.997E-09
     6.967E-09    6.935E-09    6.901E-09    6.864E-09    6.824E-09    6.782E-09    6.737E-09    6.690E-09    6.640E-09    6.587E-09
     6.531E-09    6.473E-09    6.411E-09    6.347E-09    6.280E-09    6.210E-09    6.137E-09    6.061E-09    5.982E-09    5.899E-09
     5.814E-09    5.726E-09    5.634E-09    5.540E-09    5.442E-09    5.341E-09    5.236E-09    5.129E-09    5.018E-09    4.905E-09
     4.788E-09    4.669E-09    4.548E-09    4.424E-09    4.298E-09    4.170E-09    4.041E-09    3.909E-09    3.775E-09    3.641E-09
     3.504E-09    3.367E-09    3.228E-09    3.088E-09    2.948E-09    2.807E-09    2.665E-09    2.523E-09    2.380E-09    2.238E-09
     2.095E-09    1.952E-09    1.810E-09    1.668E-09    1.527E-09    1.386E-09    1.246E-09    1.107E-09    9.695E-10    8.328E-10
     6.975E-10    5.638E-10    4.316E-10    3.012E-10    1.727E-10    4.619E-11   -7.810E-11   -2.001E-10   -3.196E-10   -4.366E-10
    -5.508E-10   -6.621E-10   -7.705E-10   -8.757E-10   -9.776E-10   -1.076E-09   -1.171E-09   -1.262E-09   -1.350E-09   -1.434E-09
    -1.514E-09   -1.591E-09   -1.664E-09   -1.734E-09   -1.800E-09   -1.863E-09   -1.923E-09   -1.980E-09   -2.034E-09   -2.085E-09
    -2.133E-09   -2.179E-09   -2.221E-09   -2.261E-09   -2.299E-09   -2.334E-09   -2.367E-09   -2.397E-09   -2.425E-09   -2.451E-09
    -2.475E-09   -2.497E-09   -2.517E-09   -2.535E-09   -2.552E-09   -2.566E-09   -2.579E-09   -2.591E-09   -2.601E-09   -2.610E-09
    -2.617E-09   -2.624E-09   -2.629E-09   -2.633E-09   -2.636E-09   -2.638E-09   -2.640E-09   -2.641E-09   -2.641E-09   -2.640E-09
    -2.639E-09   -2.637E-09   -2.635E-09   -2.633E-09   -2.631E-09   -2.629E-09   -2.626E-09   -2.624E-09   -2.621E-09   -2.619E-09
    -2.617E-09   -2.616E-09   -2.614E-09   -2.613E-09   -2.612E-09   -2.612E-09   -2.612E-09   -2.612E-09   -2.612E-09   -2.613E-09
    -2.614E-09   -2.616E-09   -2.618E-09   -2.620E-09   -2.623E-09   -2.626E-09   -2.629E-09   -2.633E-09   -2.638E-09   -2.642E-09
    -2.648E-09   -2.653E-09   -2.660E-09   -2.666E-09   -2.674E-09   -2.681E-09   -2.690E-09   -2.699E-09   -2.708E-09   -2.718E-09
    -2.728E-09   -2.739E-09   -2.751E-09   -2.763E-09   -2.776E-09   -2.790E-09   -2.804E-09   -2.819E-09   -2.834E-09   -2.850E-09
    -2.867E-09   -2.885E-09   -2.903E-09   -2.922E-09   -2.941E-09   -2.962E-09   -2.983E-09   -3.005E-09   -3.027E-09   -3.050E-09
    -3.075E-09   -3.100E-09   -3.125E-09   -3.152E-09   -3.179E-09   -3.207E-09   -3.236E-09   -3.265E-09   -3.295E-09   -3.326E-09
    -3.357E-09   -3.389E-09   -3.421E-09   -3.454E-09   -3.487E-09   -3.521E-09   -3.556E-09   -3.591E-09   -3.626E-09   -3.662E-09
    -3.698E-09   -3.734E-09   -3.771E-09   -3.808E-09   -3.846E-09   -3.883E-09   -3.921E-09   -3.959E-09   -3.998E-09   -4.037E-09
    -4.075E-09   -4.114E-09   -4.153E-09   -4.193E-09   -4.232E-09   -4.271E-09   -4.311E-09   -4.350E-09   -4.390E-09   -4.429E-09
    -4.468E-09   -4.508E-09   -4.547E-09   -4.586E-09   -4.625E-09   -4.664E-09   -4.702E-09   -4.741E-09   -4.779E-09   -4.817E-09
    -4.854E-09   -4.892E-09   -4.929E-09
 Ala      Conc. = 1.93E-11
  -3.65168E-10 -2.77341E-10 -1.89021E-10 -9.95169E-11 -1.15664E-11  7.65303E-11  1.66217E-10  2.52057E-10  3.37779E-10  4.28726E-10
   5.15471E-10  6.00431E-10  6.89321E-10  7.77301E-10  8.64533E-10  9.52391E-10  1.04049E-09  1.12868E-09  1.21688E-09  1.30506E-09
   1.39316E-09  1.48118E-09  1.56910E-09  1.65690E-09  1.74455E-09  1.83206E-09  1.91940E-09  2.00656E-09  2.09354E-09  2.18032E-09
   2.26689E-09  2.35323E-09  2.43934E-09  2.52520E-09  2.61081E-09  2.69614E-09  2.78119E-09  2.86596E-09  2.95042E-09  3.03455E-09
   3.11838E-09  3.20187E-09  3.28500E-09  3.36777E-09  3.45018E-09  3.53220E-09  3.61384E-09  3.69507E-09  3.77588E-09  3.85626E-09
   3.93621E-09  4.01572E-09  4.09477E-09  4.17334E-09  4.25141E-09  4.32896E-09  4.40597E-09  4.48241E-09  4.55827E-09  4.63352E-09
   4.70813E-09  4.78209E-09  4.85537E-09  4.92795E-09  4.99980E-09  5.07091E-09  5.14125E-09  5.21080E-09  5.27953E-09  5.34743E-09
   5.41447E-09  5.48062E-09  5.54587E-09  5.61020E-09  5.67357E-09  5.73598E-09  5.79738E-09  5.85777E-09  5.91713E-09  5.97542E-09
   6.03263E-09  6.08873E-09  6.14371E-09  6.19754E-09  6.25021E-09  6.30168E-09  6.35195E-09  6.40099E-09  6.44879E-09  6.49534E-09
   6.54061E-09  6.58461E-09  6.62732E-09  6.66878E-09  6.70901E-09  6.74810E-09  6.78622E-09  6.82380E-09  6.86206E-09  6.90564E-09
   6.95838E-09  6.98313E-09  7.00990E-09  7.05933E-09  7.08963E-09  7.10918E-09  7.12973E-09  7.14960E-09  7.16810E-09  7.18495E-09
   7.18829E-09  7.17468E-09  7.19046E-09  7.19766E-09  7.17929E-09  7.17546E-09  7.17419E-09  7.17245E-09  7.16934E-09  7.16449E-09
   7.15772E-09  7.14891E-09  7.13800E-09  7.12491E-09  7.10960E-09  7.09203E-09  7.07215E-09  7.04994E-09  7.02534E-09  6.99833E-09
   6.96887E-09  6.93694E-09  6.90249E-09  6.86549E-09  6.82591E-09  6.78372E-09  6.73889E-09  6.69138E-09  6.64116E-09  6.58821E-09
   6.53248E-09  6.47394E-09  6.41258E-09  6.34835E-09  6.28121E-09  6.21114E-09  6.13812E-09  6.06209E-09  5.98304E-09  5.90093E-09
   5.81573E-09  5.72741E-09  5.63596E-09  5.54130E-09  5.44344E-09  5.34232E-09  5.23797E-09  5.13045E-09  5.01992E-09  4.90651E-09
   4.79038E-09  4.67168E-09  4.55059E-09  4.42732E-09  4.30223E-09  4.17613E-09  4.05277E-09  3.93881E-09  3.80746E-09  3.66935E-09
   3.53291E-09  3.39608E-09  3.25770E-09  3.11819E-09  2.97784E-09  2.83767E-09  2.69853E-09  2.55217E-09  2.38979E-09  2.24235E-09
   2.09815E-09  1.95492E-09  1.81225E-09  1.67014E-09  1.52861E-09  1.38784E-09  1.24788E-09  1.10886E-09  9.70959E-10  8.34282E-10
   6.98951E-10  5.65136E-10  4.32924E-10  3.02520E-10  1.73993E-10  4.75118E-11 -7.67980E-11 -1.98773E-10 -3.18324E-10 -4.35270E-10
  -5.49490E-10 -6.60852E-10 -7.69209E-10 -8.74436E-10 -9.76390E-10 -1.07494E-09 -1.16992E-09 -1.26125E-09 -1.34879E-09 -1.43262E-09
  -1.51281E-09 -1.58945E-09 -1.66261E-09 -1.73237E-09 -1.79881E-09 -1.86200E-09 -1.92203E-09 -1.97897E-09 -2.03290E-09 -2.08391E-09
  -2.13205E-09 -2.17742E-09 -2.22010E-09 -2.26016E-09 -2.29768E-09 -2.33274E-09 -2.36540E-09 -2.39577E-09 -2.42392E-09 -2.44990E-09
  -2.47381E-09 -2.49574E-09 -2.51574E-09 -2.53391E-09 -2.55032E-09 -2.56506E-09 -2.57820E-09 -2.58981E-09 -2.59997E-09 -2.60877E-09
  -2.61627E-09 -2.62256E-09 -2.62772E-09 -2.63183E-09 -2.63496E-09 -2.63719E-09 -2.63860E-09 -2.63929E-09 -2.63929E-09 -2.63870E-09
  -2.63761E-09 -2.63611E-09 -2.63424E-09 -2.63209E-09 -2.62977E-09 -2.62731E-09 -2.62483E-09 -2.62237E-09 -2.62005E-09 -2.61792E-09
  -2.61603E-09 -2.61440E-09 -2.61303E-09 -2.61194E-09 -2.61114E-09 -2.61065E-09 -2.61046E-09 -2.61059E-09 -2.61105E-09 -2.61186E-09
  -2.61303E-09 -2.61455E-09 -2.61646E-09 -2.61874E-09 -2.62142E-09 -2.62452E-09 -2.62803E-09 -2.63197E-09 -2.63635E-09 -2.64118E-09
  -2.64647E-09 -2.65224E-09 -2.65849E-09 -2.66523E-09 -2.67247E-09 -2.68024E-09 -2.68853E-09 -2.69735E-09 -2.70673E-09 -2.71666E-09
  -2.72717E-09 -2.73825E-09 -2.74992E-09 -2.76220E-09 -2.77508E-09 -2.78860E-09 -2.80274E-09 -2.81753E-09 -2.83298E-09 -2.84910E-09
  -2.86589E-09 -2.88336E-09 -2.90155E-09 -2.92043E-09 -2.94004E-09 -2.96038E-09 -2.98146E-09 -3.00329E-09 -3.02590E-09 -3.04926E-09
  -3.07342E-09 -3.09838E-09 -3.12412E-09 -3.15062E-09 -3.17785E-09 -3.20581E-09 -3.23446E-09 -3.26378E-09 -3.29376E-09 -3.32436E-09
  -3.35558E-09 -3.38739E-09 -3.41975E-09 -3.45267E-09 -3.48610E-09 -3.52003E-09 -3.55445E-09 -3.58931E-09 -3.62462E-09 -3.66033E-09
  -3.69644E-09 -3.73291E-09 -3.76973E-09 -3.80688E-09 -3.84433E-09 -3.88206E-09 -3.92006E-09 -3.95829E-09 -3.99674E-09 -4.03538E-09
  -4.07420E-09 -4.11316E-09 -4.15226E-09 -4.19146E-09 -4.23075E-09 -4.27010E-09 -4.30950E-09 -4.34892E-09 -4.38833E-09 -4.42772E-09
  -4.46707E-09 -4.50635E-09 -4.54554E-09 -4.58462E-09 -4.62356E-09 -4.66236E-09 -4.70098E-09 -4.73940E-09 -4.77760E-09 -4.81556E-09
  -4.85326E-09 -4.89067E-09 -4.92778E-09
 GABA     Conc. = 4.60E-10
  -3.13644E-10 -2.24392E-10 -1.34982E-10 -4.54216E-11  4.42931E-11  1.34148E-10  2.24150E-10  3.14296E-10  4.04591E-10  4.95067E-10
   5.85673E-10  6.76481E-10  7.67516E-10  8.58701E-10  9.50238E-10  1.04204E-09  1.13404E-09  1.22665E-09  1.31980E-09  1.41348E-09
   1.50813E-09  1.60401E-09  1.70146E-09  1.80120E-09  1.90433E-09  2.01251E-09  2.12955E-09  2.26359E-09  2.43677E-09  2.70281E-09
   2.77677E-09  2.88010E-09  3.29194E-09  3.44493E-09  3.43707E-09  3.65929E-09  3.82341E-09  3.89809E-09  3.97673E-09  3.99182E-09
   3.88125E-09  4.02416E-09  4.09963E-09  3.82529E-09  3.83459E-09  3.95988E-09  3.87833E-09  3.87745E-09  3.92308E-09  3.98615E-09
   4.05791E-09  4.13408E-09  4.21330E-09  4.29525E-09  4.37952E-09  4.46617E-09  4.55604E-09  4.65040E-09  4.75180E-09  4.86632E-09
   5.00759E-09  5.21749E-09  5.42404E-09  5.46457E-09  5.67796E-09  5.96288E-09  5.97730E-09  6.01685E-09  6.15978E-09  6.24327E-09
   6.29490E-09  6.32706E-09  6.24973E-09  6.17724E-09  6.29776E-09  6.19087E-09  6.01512E-09  6.09857E-09  6.13634E-09  6.16283E-09
   6.25803E-09  6.26018E-09  6.35689E-09  6.58915E-09  6.62528E-09  6.67330E-09  6.86888E-09  6.95136E-09  7.00325E-09  7.11702E-09
   7.14408E-09  7.13426E-09  7.26146E-09  7.26738E-09  7.13008E-09  7.20597E-09  7.23458E-09  7.12289E-09  7.11790E-09  7.12868E-09
   7.10764E-09  7.10264E-09  7.10698E-09  7.11607E-09  7.12759E-09  7.14006E-09  7.15278E-09  7.16521E-09  7.17699E-09  7.18791E-09
   7.19777E-09  7.20623E-09  7.21324E-09  7.21868E-09  7.22244E-09  7.22455E-09  7.22491E-09  7.22339E-09  7.21997E-09  7.21458E-09
   7.20715E-09  7.19768E-09  7.18610E-09  7.17238E-09  7.15647E-09  7.13833E-09  7.11793E-09  7.09522E-09  7.07016E-09  7.04274E-09
   7.01289E-09  6.98060E-09  6.94583E-09  6.90853E-09  6.86870E-09  6.82627E-09  6.78123E-09  6.73354E-09  6.68317E-09  6.63009E-09
   6.57426E-09  6.51565E-09  6.45424E-09  6.39000E-09  6.32287E-09  6.25285E-09  6.17990E-09  6.10400E-09  6.02512E-09  5.94324E-09
   5.85831E-09  5.77035E-09  5.67932E-09  5.58520E-09  5.48800E-09  5.38770E-09  5.28438E-09  5.17816E-09  5.06931E-09  4.95811E-09
   4.84498E-09  4.73051E-09  4.61574E-09  4.50266E-09  4.39619E-09  4.31225E-09  4.33108E-09  4.62658E-09  4.54835E-09  4.33696E-09
   4.19615E-09  4.07574E-09  3.94386E-09  3.80740E-09  3.66990E-09  3.55137E-09  3.47275E-09  3.24181E-09  2.62220E-09  2.35959E-09
   2.17940E-09  2.02000E-09  1.86850E-09  1.72097E-09  1.57583E-09  1.43252E-09  1.29071E-09  1.15028E-09  1.01129E-09  8.73745E-10
   7.37715E-10  6.03328E-10  4.70640E-10  3.39837E-10  2.10970E-10  8.41986E-11 -4.03616E-11 -1.62554E-10 -2.82296E-10 -3.99409E-10
  -5.13778E-10 -6.25272E-10 -7.33746E-10 -8.39080E-10 -9.41129E-10 -1.03977E-09 -1.13482E-09 -1.22622E-09 -1.31383E-09 -1.39772E-09
  -1.47797E-09 -1.55466E-09 -1.62786E-09 -1.69766E-09 -1.76414E-09 -1.82738E-09 -1.88744E-09 -1.94441E-09 -1.99837E-09 -2.04941E-09
  -2.09757E-09 -2.14297E-09 -2.18567E-09 -2.22575E-09 -2.26329E-09 -2.29837E-09 -2.33105E-09 -2.36144E-09 -2.38960E-09 -2.41560E-09
