 LCModel (Version 6.3-1R) Copyright: S.W. Provencher.          Ref.: Magn. Reson. Med. 30:672-679 (1993).                
 onepulse 14x16_ftSpec_smooth_lcm
 26 lines in following concentration table = NCONC+1
    Conc.  %SD /Cr+PCr  Metabolite                                         
    0.000 999%   0.000 Ala                                                 
    0.000 999%   0.000 Asp                                                 
    0.000 999%   0.000 Cr                                                  
 8.56E-10  82%  10.320 GABA                                                
    0.000 999%   0.000 Glc                                                 
 1.86E-09  41%  22.481 Gln                                                 
    0.000 999%   0.000 Glu                                                 
 1.05E-09  49%  12.626 Glyc                                                
    0.000 999%   0.000 GPC                                                 
    0.000 999%   0.000 GSH                                                 
    0.000 999%   0.000 Ins                                                 
    0.000 999%   0.000 Lac                                                 
    0.000 999%   0.000 NAAG                                                
 5.72E-10  53%   6.901 NAA                                                 
    0.000 999%   0.000 PCh                                                 
 8.29E-11 408%   1.000 PCr                                                 
 1.24E-09  76%  14.988 PE                                                  
 8.83E-11 333%   1.064 Scyllo                                              
 1.68E-09  43%  20.208 Ser                                                 
 4.34E-10 230%   5.231 Tau                                                 
    0.000 999%   0.000 GPC+PCh                                             
 5.72E-10  53%   6.901 NAA+NAAG                                            
 1.05E-09  49%  12.626 Ins+Glyc                                            
 8.29E-11 408%   1.000 Cr+PCr                                              
 1.86E-09  41%  22.481 Glu+Gln                                             
   6 lines in following misc. output table
  FWHM = 0.089 ppm    S/N =   2                                            
  Data shift = 0.358 ppm                                                   
  Ph: -27 deg     -36.9 deg/ppm                                            
  alphaB,S = 9.9E-01,   2.2E+01                                            
    9 spline knots.   Ns = 5(1)                                            
  (10) 4 infls.   ( 9) 1 extrs.                                            
  363 points on ppm-axis = NY
      4.250000     4.238821     4.227641     4.216462     4.205282     4.194103     4.182923     4.171744     4.160564     4.149385
      4.138206     4.127026     4.115847     4.104667     4.093488     4.082308     4.071129     4.059949     4.048770     4.037591
      4.026411     4.015232     4.004052     3.992873     3.981693     3.970514     3.959334     3.948155     3.936975     3.925796
      3.914617     3.903437     3.892258     3.881078     3.869899     3.858719     3.847540     3.836360     3.825181     3.814002
      3.802822     3.791643     3.780463     3.769284     3.758104     3.746925     3.735745     3.724566     3.713387     3.702207
      3.691028     3.679848     3.668669     3.657489     3.646310     3.635130     3.623951     3.612772     3.601592     3.590413
      3.579233     3.568054     3.556874     3.545695     3.534515     3.523336     3.512156     3.500977     3.489798     3.478618
      3.467439     3.456259     3.445080     3.433900     3.422721     3.411541     3.400362     3.389183     3.378003     3.366824
      3.355644     3.344465     3.333285     3.322106     3.310926     3.299747     3.288568     3.277388     3.266209     3.255029
      3.243850     3.232670     3.221491     3.210311     3.199132     3.187953     3.176773     3.165594     3.154414     3.143235
      3.132055     3.120876     3.109696     3.098517     3.087337     3.076158     3.064979     3.053799     3.042620     3.031440
      3.020261     3.009081     2.997902     2.986722     2.975543     2.964364     2.953184     2.942005     2.930825     2.919646
      2.908466     2.897287     2.886107     2.874928     2.863749     2.852569     2.841390     2.830210     2.819031     2.807851
      2.796672     2.785492     2.774313     2.763134     2.751954     2.740775     2.729595     2.718416     2.707236     2.696057
      2.684877     2.673698     2.662519     2.651339     2.640160     2.628980     2.617801     2.606621     2.595442     2.584262
      2.573083     2.561903     2.550724     2.539545     2.528365     2.517186     2.506006     2.494827     2.483647     2.472468
      2.461288     2.450109     2.438930     2.427750     2.416571     2.405391     2.394212     2.383032     2.371853     2.360673
      2.349494     2.338315     2.327135     2.315956     2.304776     2.293597     2.282417     2.271238     2.260058     2.248879
      2.237700     2.226520     2.215341     2.204161     2.192982     2.181802     2.170623     2.159443     2.148264     2.137084
      2.125905     2.114726     2.103546     2.092367     2.081187     2.070008     2.058828     2.047649     2.036469     2.025290
      2.014111     2.002931     1.991752     1.980572     1.969393     1.958213     1.947034     1.935854     1.924675     1.913496
      1.902316     1.891137     1.879957     1.868778     1.857598     1.846419     1.835239     1.824060     1.812881     1.801701
      1.790522     1.779342     1.768163     1.756983     1.745804     1.734624     1.723445     1.712265     1.701086     1.689907
      1.678727     1.667548     1.656368     1.645189     1.634009     1.622830     1.611650     1.600471     1.589292     1.578112
      1.566933     1.555753     1.544574     1.533394     1.522215     1.511035     1.499856     1.488677     1.477497     1.466318
      1.455138     1.443959     1.432779     1.421600     1.410420     1.399241     1.388062     1.376882     1.365703     1.354523
      1.343344     1.332164     1.320985     1.309805     1.298626     1.287446     1.276267     1.265088     1.253908     1.242729
      1.231549     1.220370     1.209190     1.198011     1.186831     1.175652     1.164473     1.153293     1.142114     1.130934
      1.119755     1.108575     1.097396     1.086216     1.075037     1.063858     1.052678     1.041499     1.030319     1.019140
      1.007960     0.996781     0.985601     0.974422     0.963243     0.952063     0.940884     0.929704     0.918525     0.907345
      0.896166     0.884986     0.873807     0.862628     0.851448     0.840269     0.829089     0.817910     0.806730     0.795551
      0.784371     0.773192     0.762012     0.750833     0.739654     0.728474     0.717295     0.706115     0.694936     0.683756
      0.672577     0.661397     0.650218     0.639039     0.627859     0.616680     0.605500     0.594321     0.583141     0.571962
      0.560782     0.549603     0.538424     0.527244     0.516065     0.504885     0.493706     0.482526     0.471347     0.460167
      0.448988     0.437809     0.426629     0.415450     0.404270     0.393091     0.381911     0.370732     0.359552     0.348373
      0.337193     0.326014     0.314835     0.303655     0.292476     0.281296     0.270117     0.258937     0.247758     0.236578
      0.225399     0.214220     0.203040
 NY phased data points follow
   1.45080E-08  1.30456E-08  1.28392E-08  9.70292E-09  1.07632E-08  8.63070E-09  9.93609E-09  7.57666E-09  9.67489E-09  8.28192E-09
   9.87839E-09  9.11676E-09  1.04944E-08  9.48700E-09  1.03416E-08  9.33854E-09  1.01898E-08  9.05771E-09  1.02280E-08  8.35823E-09
   9.63599E-09  8.38376E-09  9.70172E-09  9.11306E-09  1.10270E-08  9.32759E-09  9.50858E-09  8.88872E-09  9.48999E-09  8.93918E-09
   1.09621E-08  1.08772E-08  1.16510E-08  1.05628E-08  1.10848E-08  9.00190E-09  9.13679E-09  7.80269E-09  7.37647E-09  7.39135E-09
   7.30971E-09  7.16289E-09  6.80626E-09  6.59668E-09  7.06276E-09  6.06618E-09  6.05569E-09  5.74590E-09  6.01450E-09  6.19603E-09
   6.33571E-09  5.95382E-09  6.30904E-09  5.87658E-09  5.94036E-09  5.63795E-09  5.78485E-09  5.28194E-09  5.85032E-09  6.05101E-09
   7.33754E-09  9.29393E-09  1.06397E-08  1.32097E-08  1.25587E-08  1.18994E-08  1.05619E-08  9.67797E-09  9.25264E-09  8.62664E-09
   7.30837E-09  7.58993E-09  7.16554E-09  6.85557E-09  5.59386E-09  5.59636E-09  6.14332E-09  7.76635E-09  9.93779E-09  1.26094E-08
   1.36616E-08  1.46478E-08  1.36090E-08  1.28047E-08  1.17304E-08  1.20544E-08  1.09778E-08  1.12840E-08  9.83941E-09  1.02656E-08
   9.38441E-09  9.74688E-09  9.01618E-09  8.91351E-09  7.30987E-09  8.07780E-09  7.56010E-09  7.08516E-09  6.47284E-09  6.42905E-09
   6.13577E-09  6.51872E-09  5.89031E-09  6.53264E-09  6.27284E-09  6.33363E-09  5.80842E-09  5.84042E-09  4.51252E-09  4.66335E-09
   4.39107E-09  4.39870E-09  4.39793E-09  5.45476E-09  4.93885E-09  5.37933E-09  5.32131E-09  5.87705E-09  5.20682E-09  6.65907E-09
   6.08235E-09  6.49318E-09  5.17364E-09  5.47843E-09  4.48048E-09  4.43770E-09  3.65043E-09  4.43775E-09  4.10883E-09  4.78252E-09
   4.28508E-09  4.77103E-09  4.65134E-09  4.71126E-09  5.05080E-09  4.99752E-09  4.49023E-09  4.73375E-09  4.44482E-09  5.76430E-09
   6.33009E-09  7.28489E-09  6.21590E-09  7.10550E-09  6.57685E-09  7.65148E-09  7.64677E-09  8.28524E-09  7.49143E-09  7.89031E-09
   7.50754E-09  7.71269E-09  7.40041E-09  8.09294E-09  7.62497E-09  7.38755E-09  7.01560E-09  7.61154E-09  7.15401E-09  8.19711E-09
   7.65476E-09  7.78688E-09  6.94948E-09  7.36616E-09  6.77386E-09  5.75136E-09  5.61928E-09  6.53408E-09  6.71483E-09  8.85724E-09
   1.23073E-08  1.64601E-08  1.77490E-08  1.86647E-08  1.71714E-08  1.67998E-08  1.61769E-08  1.61733E-08  1.44584E-08  1.42982E-08
   1.32804E-08  1.31950E-08  1.23542E-08  1.16095E-08  9.74432E-09  9.36090E-09  7.32080E-09  6.51312E-09  4.26996E-09  2.46837E-09
   1.98736E-10 -1.11713E-09 -3.50984E-09 -5.77779E-09 -8.01749E-09 -8.74218E-09 -1.14331E-08 -1.22004E-08 -1.38880E-08 -1.44804E-08
  -1.49657E-08 -1.36640E-08 -1.41510E-08 -1.30152E-08 -1.23665E-08 -1.04978E-08 -9.99753E-09 -7.58431E-09 -7.24743E-09 -6.03495E-09
  -5.09571E-09 -3.60346E-09 -3.45857E-09 -2.98214E-09 -3.01829E-09 -3.08166E-09 -3.87513E-09 -2.66548E-09 -3.24113E-09 -3.45949E-09
  -3.54438E-09 -2.22600E-09 -2.72430E-09 -2.25770E-09 -2.11696E-09 -1.80404E-09 -2.07388E-09 -2.17656E-09 -2.95443E-09 -2.24197E-09
  -2.50201E-09 -2.53083E-09 -2.55657E-09 -2.14160E-09 -1.98649E-09 -1.45010E-09 -2.16354E-09 -1.21481E-09 -1.87520E-09 -1.96744E-09
  -2.51649E-09 -2.02279E-09 -2.42883E-09 -2.66202E-09 -3.02437E-09 -1.80384E-09 -2.28437E-09 -1.83699E-09 -1.49624E-09 -1.74652E-09
  -2.01913E-09 -1.09637E-09 -2.07116E-09 -8.50246E-10 -1.07898E-09 -8.97310E-10 -1.49789E-09 -1.32136E-09 -1.45491E-09 -1.37498E-09
  -2.25810E-09 -2.30273E-09 -2.65754E-09 -2.60040E-09 -3.09895E-09 -2.65722E-09 -3.18762E-09 -2.64450E-09 -3.21239E-09 -2.46141E-09
  -2.27604E-09 -2.16754E-09 -1.81211E-09 -1.69203E-09 -2.00900E-09 -1.16345E-09 -1.19753E-09 -5.51810E-10 -1.06308E-09 -5.66545E-10
  -1.25217E-09 -7.24594E-10 -1.11911E-09 -8.91771E-10 -8.56873E-10 -9.96605E-10 -1.16336E-09 -8.41594E-10 -1.47533E-09 -1.21252E-09
  -1.43063E-09 -1.53416E-09 -2.18896E-09 -1.29248E-09 -1.69425E-09 -7.94868E-10 -2.09202E-09 -1.76919E-09 -2.14030E-09 -1.76928E-09
  -1.95028E-09 -2.18455E-09 -2.56774E-09 -2.21396E-09 -2.38934E-09 -1.92368E-09 -2.60398E-09 -2.62362E-09 -2.58605E-09 -2.54959E-09
  -3.09077E-09 -2.33308E-09 -2.80043E-09 -2.76836E-09 -3.44159E-09 -2.89789E-09 -2.71791E-09 -3.40272E-09 -3.42259E-09 -2.85644E-09
  -3.45563E-09 -3.53533E-09 -3.40300E-09 -3.08931E-09 -3.92276E-09 -3.43972E-09 -3.36661E-09 -3.28339E-09 -3.50175E-09 -3.67954E-09
  -3.54180E-09 -3.68942E-09 -3.88074E-09 -3.29232E-09 -3.51445E-09 -3.66367E-09 -3.90746E-09 -3.95217E-09 -4.13162E-09 -3.61028E-09
  -3.64568E-09 -4.07522E-09 -4.22112E-09 -4.00217E-09 -4.59252E-09 -4.16866E-09 -4.31865E-09 -3.69287E-09 -4.49992E-09 -3.77616E-09
  -4.06367E-09 -3.85531E-09 -4.39959E-09 -4.30735E-09 -4.24183E-09 -4.11352E-09 -4.25227E-09 -3.85760E-09 -4.89170E-09 -4.03068E-09
  -3.94700E-09 -4.46440E-09 -4.10979E-09
 NY points of the fit to the data follow
   1.49165E-08  1.32522E-08  1.17492E-08  1.12583E-08  1.08995E-08  1.03237E-08  9.51203E-09  8.78170E-09  8.49775E-09  8.57398E-09
   8.73957E-09  9.01587E-09  9.62462E-09  9.87498E-09  1.00863E-08  1.02797E-08  1.05201E-08  1.05802E-08  9.96625E-09  8.61776E-09
   8.07831E-09  8.24556E-09  8.57411E-09  8.99684E-09  9.44333E-09  9.91090E-09  1.04336E-08  1.07164E-08  1.08381E-08  1.09291E-08
   1.09484E-08  1.06436E-08  1.01569E-08  9.63957E-09  9.16149E-09  8.77921E-09  8.48323E-09  8.28546E-09  8.16805E-09  7.98457E-09
   7.77977E-09  7.66802E-09  7.19890E-09  6.58066E-09  6.47328E-09  6.43032E-09  6.20494E-09  6.12473E-09  6.12352E-09  6.15512E-09
   6.22251E-09  6.32159E-09  6.44789E-09  6.58188E-09  6.77483E-09  7.08630E-09  7.49407E-09  8.00667E-09  8.61165E-09  9.17933E-09
   9.69720E-09  1.01914E-08  1.06444E-08  1.09163E-08  1.10251E-08  1.08603E-08  1.05633E-08  1.03873E-08  9.80558E-09  9.05470E-09
   8.81652E-09  8.64300E-09  8.24331E-09  8.12280E-09  8.26878E-09  8.30239E-09  8.52172E-09  9.27825E-09  1.00659E-08  1.09142E-08
   1.18879E-08  1.26837E-08  1.29088E-08  1.29086E-08  1.28610E-08  1.24503E-08  1.17317E-08  1.06165E-08  8.83039E-09  8.09061E-09
   7.77283E-09  7.62924E-09  7.58769E-09  7.36835E-09  7.11530E-09  7.07209E-09  6.90055E-09  6.63512E-09  6.51858E-09  6.41132E-09
   6.28360E-09  6.19078E-09  6.11987E-09  6.06232E-09  6.01359E-09  5.97075E-09  5.93182E-09  5.89566E-09  5.86144E-09  5.82857E-09
   5.79650E-09  5.76467E-09  5.73284E-09  5.70076E-09  5.66829E-09  5.63533E-09  5.60167E-09  5.56713E-09  5.53159E-09  5.49497E-09
   5.45715E-09  5.41811E-09  5.37778E-09  5.33614E-09  5.29319E-09  5.24894E-09  5.20340E-09  5.15656E-09  5.10846E-09  5.05911E-09
   5.00854E-09  4.95675E-09  4.90379E-09  4.84967E-09  4.79442E-09  4.73808E-09  4.68067E-09  4.62223E-09  4.56280E-09  4.50241E-09
   4.44111E-09  4.37895E-09  4.31598E-09  4.25225E-09  4.18780E-09  4.12270E-09  4.05703E-09  3.99088E-09  3.92433E-09  3.85749E-09
   3.79048E-09  3.72343E-09  3.65655E-09  3.59006E-09  3.52423E-09  3.45941E-09  3.39609E-09  3.33491E-09  3.27675E-09  3.22292E-09
   3.17531E-09  3.13699E-09  3.11306E-09  3.11289E-09  3.15610E-09  3.29336E-09  3.71616E-09  5.09499E-09  7.10982E-09  9.80575E-09
   1.29764E-08  1.59092E-08  1.77550E-08  1.85144E-08  1.87326E-08  1.87408E-08  1.74069E-08  1.29108E-08  6.06005E-09  3.33198E-09
   2.45128E-09  2.01284E-09  1.73534E-09  1.53292E-09  1.37112E-09  1.23362E-09  1.11173E-09  1.00045E-09  8.96710E-10  7.98544E-10
   7.04622E-10  6.14054E-10  5.26182E-10  4.40563E-10  3.56842E-10  2.74761E-10  1.94149E-10  1.14854E-10  3.67609E-11 -4.02033E-11
  -1.16106E-10 -1.91006E-10 -2.64930E-10 -3.37899E-10 -4.09944E-10 -4.81072E-10 -5.51294E-10 -6.20594E-10 -6.88998E-10 -7.56496E-10
  -8.23079E-10 -8.88733E-10 -9.53458E-10 -1.01724E-09 -1.08008E-09 -1.14195E-09 -1.20283E-09 -1.26273E-09 -1.32163E-09 -1.37950E-09
  -1.43632E-09 -1.49209E-09 -1.54679E-09 -1.60041E-09 -1.65293E-09 -1.70430E-09 -1.75455E-09 -1.80365E-09 -1.85155E-09 -1.89826E-09
  -1.94376E-09 -1.98803E-09 -2.03105E-09 -2.07279E-09 -2.11325E-09 -2.15240E-09 -2.19022E-09 -2.22670E-09 -2.26181E-09 -2.29553E-09
  -2.32786E-09 -2.35875E-09 -2.38821E-09 -2.41625E-09 -2.44289E-09 -2.46818E-09 -2.49216E-09 -2.51486E-09 -2.53632E-09 -2.55657E-09
  -2.57566E-09 -2.59361E-09 -2.61046E-09 -2.62626E-09 -2.64103E-09 -2.65482E-09 -2.66766E-09 -2.67958E-09 -2.69063E-09 -2.70083E-09
  -2.71023E-09 -2.71886E-09 -2.72677E-09 -2.73397E-09 -2.74052E-09 -2.74644E-09 -2.75178E-09 -2.75657E-09 -2.76084E-09 -2.76464E-09
  -2.76799E-09 -2.77094E-09 -2.77352E-09 -2.77577E-09 -2.77772E-09 -2.77941E-09 -2.78088E-09 -2.78216E-09 -2.78329E-09 -2.78431E-09
  -2.78525E-09 -2.78614E-09 -2.78703E-09 -2.78795E-09 -2.78894E-09 -2.79002E-09 -2.79125E-09 -2.79265E-09 -2.79426E-09 -2.79613E-09
  -2.79827E-09 -2.80073E-09 -2.80355E-09 -2.80677E-09 -2.81041E-09 -2.81452E-09 -2.81913E-09 -2.82427E-09 -2.82999E-09 -2.83632E-09
  -2.84330E-09 -2.85095E-09 -2.85933E-09 -2.86844E-09 -2.87827E-09 -2.88880E-09 -2.90002E-09 -2.91191E-09 -2.92445E-09 -2.93763E-09
  -2.95143E-09 -2.96584E-09 -2.98082E-09 -2.99638E-09 -3.01249E-09 -3.02914E-09 -3.04630E-09 -3.06397E-09 -3.08212E-09 -3.10075E-09
  -3.11982E-09 -3.13933E-09 -3.15926E-09 -3.17959E-09 -3.20031E-09 -3.22139E-09 -3.24282E-09 -3.26459E-09 -3.28668E-09 -3.30907E-09
  -3.33174E-09 -3.35469E-09 -3.37788E-09 -3.40130E-09 -3.42496E-09 -3.44880E-09 -3.47282E-09 -3.49702E-09 -3.52137E-09 -3.54584E-09
  -3.57045E-09 -3.59514E-09 -3.61992E-09 -3.64476E-09 -3.66967E-09 -3.69460E-09 -3.71954E-09 -3.74449E-09 -3.76942E-09 -3.79431E-09
  -3.81915E-09 -3.84393E-09 -3.86862E-09 -3.89321E-09 -3.91768E-09 -3.94201E-09 -3.96620E-09 -3.99022E-09 -4.01405E-09 -4.03769E-09
  -4.06110E-09 -4.08429E-09 -4.10721E-09
 NY background values follow
     3.611E-09    3.630E-09    3.649E-09    3.669E-09    3.688E-09    3.707E-09    3.726E-09    3.745E-09    3.763E-09    3.782E-09
     3.801E-09    3.820E-09    3.839E-09    3.857E-09    3.876E-09    3.894E-09    3.913E-09    3.932E-09    3.950E-09    3.969E-09
     3.987E-09    4.005E-09    4.024E-09    4.042E-09    4.060E-09    4.079E-09    4.097E-09    4.115E-09    4.134E-09    4.152E-09
     4.170E-09    4.188E-09    4.206E-09    4.224E-09    4.242E-09    4.261E-09    4.279E-09    4.297E-09    4.315E-09    4.333E-09
     4.351E-09    4.369E-09    4.387E-09    4.405E-09    4.423E-09    4.441E-09    4.459E-09    4.477E-09    4.495E-09    4.512E-09
     4.530E-09    4.548E-09    4.566E-09    4.584E-09    4.602E-09    4.620E-09    4.638E-09    4.656E-09    4.674E-09    4.692E-09
     4.710E-09    4.728E-09    4.746E-09    4.764E-09    4.781E-09    4.799E-09    4.817E-09    4.834E-09    4.852E-09    4.869E-09
     4.885E-09    4.902E-09    4.918E-09    4.934E-09    4.950E-09    4.965E-09    4.980E-09    4.994E-09    5.008E-09    5.021E-09
     5.034E-09    5.046E-09    5.058E-09    5.069E-09    5.079E-09    5.089E-09    5.098E-09    5.106E-09    5.113E-09    5.120E-09
     5.126E-09    5.131E-09    5.135E-09    5.138E-09    5.141E-09    5.142E-09    5.142E-09    5.142E-09    5.140E-09    5.137E-09
     5.133E-09    5.128E-09    5.122E-09    5.115E-09    5.106E-09    5.096E-09    5.085E-09    5.072E-09    5.058E-09    5.043E-09
     5.027E-09    5.009E-09    4.989E-09    4.968E-09    4.946E-09    4.922E-09    4.896E-09    4.869E-09    4.840E-09    4.810E-09
     4.777E-09    4.743E-09    4.708E-09    4.670E-09    4.632E-09    4.591E-09    4.549E-09    4.505E-09    4.460E-09    4.413E-09
     4.365E-09    4.315E-09    4.264E-09    4.211E-09    4.158E-09    4.103E-09    4.046E-09    3.989E-09    3.930E-09    3.870E-09
     3.809E-09    3.747E-09    3.683E-09    3.619E-09    3.554E-09    3.487E-09    3.420E-09    3.352E-09    3.283E-09    3.213E-09
     3.142E-09    3.071E-09    2.999E-09    2.926E-09    2.852E-09    2.778E-09    2.703E-09    2.628E-09    2.552E-09    2.475E-09
     2.398E-09    2.321E-09    2.243E-09    2.164E-09    2.086E-09    2.007E-09    1.927E-09    1.848E-09    1.768E-09    1.688E-09
     1.608E-09    1.528E-09    1.448E-09    1.367E-09    1.287E-09    1.206E-09    1.126E-09    1.046E-09    9.654E-10    8.853E-10
     8.054E-10    7.256E-10    6.461E-10    5.669E-10    4.879E-10    4.092E-10    3.308E-10    2.528E-10    1.751E-10    9.773E-11
     2.078E-11   -5.575E-11   -1.319E-10   -2.075E-10   -2.827E-10   -3.574E-10   -4.316E-10   -5.052E-10   -5.783E-10   -6.509E-10
    -7.228E-10   -7.941E-10   -8.648E-10   -9.349E-10   -1.004E-09   -1.073E-09   -1.141E-09   -1.208E-09   -1.275E-09   -1.340E-09
    -1.405E-09   -1.469E-09   -1.533E-09   -1.595E-09   -1.657E-09   -1.717E-09   -1.777E-09   -1.836E-09   -1.894E-09   -1.951E-09
    -2.007E-09   -2.062E-09   -2.116E-09   -2.168E-09   -2.220E-09   -2.271E-09   -2.320E-09   -2.369E-09   -2.416E-09   -2.462E-09
    -2.507E-09   -2.551E-09   -2.593E-09   -2.634E-09   -2.674E-09   -2.713E-09   -2.750E-09   -2.786E-09   -2.821E-09   -2.854E-09
    -2.886E-09   -2.917E-09   -2.946E-09   -2.973E-09   -2.999E-09   -3.024E-09   -3.048E-09   -3.070E-09   -3.091E-09   -3.111E-09
    -3.130E-09   -3.148E-09   -3.164E-09   -3.180E-09   -3.194E-09   -3.207E-09   -3.220E-09   -3.232E-09   -3.242E-09   -3.252E-09
    -3.261E-09   -3.270E-09   -3.277E-09   -3.284E-09   -3.290E-09   -3.296E-09   -3.301E-09   -3.306E-09   -3.310E-09   -3.313E-09
    -3.316E-09   -3.319E-09   -3.321E-09   -3.323E-09   -3.325E-09   -3.326E-09   -3.328E-09   -3.329E-09   -3.329E-09   -3.330E-09
    -3.331E-09   -3.332E-09   -3.332E-09   -3.333E-09   -3.334E-09   -3.334E-09   -3.335E-09   -3.337E-09   -3.338E-09   -3.340E-09
    -3.341E-09   -3.344E-09   -3.346E-09   -3.349E-09   -3.353E-09   -3.357E-09   -3.361E-09   -3.366E-09   -3.371E-09   -3.377E-09
    -3.384E-09   -3.392E-09   -3.400E-09   -3.409E-09   -3.418E-09   -3.428E-09   -3.439E-09   -3.451E-09   -3.463E-09   -3.476E-09
    -3.490E-09   -3.504E-09   -3.519E-09   -3.534E-09   -3.550E-09   -3.566E-09   -3.583E-09   -3.601E-09   -3.619E-09   -3.637E-09
    -3.656E-09   -3.675E-09   -3.695E-09   -3.715E-09   -3.735E-09   -3.756E-09   -3.778E-09   -3.799E-09   -3.821E-09   -3.843E-09
    -3.865E-09   -3.888E-09   -3.911E-09   -3.934E-09   -3.958E-09   -3.981E-09   -4.005E-09   -4.029E-09   -4.053E-09   -4.077E-09
    -4.102E-09   -4.126E-09   -4.151E-09   -4.175E-09   -4.200E-09   -4.225E-09   -4.249E-09   -4.274E-09   -4.299E-09   -4.323E-09
    -4.348E-09   -4.372E-09   -4.397E-09   -4.421E-09   -4.445E-09   -4.469E-09   -4.493E-09   -4.517E-09   -4.541E-09   -4.564E-09
    -4.587E-09   -4.610E-09   -4.633E-09
 GABA     Conc. = 8.56E-10
   3.69989E-09  3.72015E-09  3.74044E-09  3.76076E-09  3.78113E-09  3.80156E-09  3.82206E-09  3.84264E-09  3.86332E-09  3.88414E-09
   3.90509E-09  3.92623E-09  3.94760E-09  3.96922E-09  3.99117E-09  4.01350E-09  4.03629E-09  4.05964E-09  4.08368E-09  4.10853E-09
   4.13443E-09  4.16171E-09  4.19075E-09  4.22219E-09  4.25695E-09  4.29640E-09  4.34324E-09  4.40215E-09  4.48396E-09  4.61619E-09
   4.76644E-09  4.95021E-09  5.21202E-09  5.47740E-09  5.72451E-09  6.00288E-09  6.26827E-09  6.45386E-09  6.50371E-09  6.40731E-09
   6.27190E-09  6.28121E-09  6.00303E-09  5.49236E-09  5.37248E-09  5.28092E-09  4.99544E-09  4.85646E-09  4.79831E-09  4.77371E-09
   4.76647E-09  4.76958E-09  4.77970E-09  4.79528E-09  4.81540E-09  4.83966E-09  4.86845E-09  4.90273E-09  4.94442E-09  4.99740E-09
   5.06875E-09  5.17808E-09  5.33424E-09  5.51106E-09  5.74419E-09  6.01990E-09  6.26822E-09  6.49598E-09  6.71114E-09  6.86468E-09
   6.90096E-09  6.78227E-09  6.54985E-09  6.37739E-09  6.25350E-09  5.84663E-09  5.52936E-09  5.51789E-09  5.42983E-09  5.31747E-09
   5.30570E-09  5.32543E-09  5.38335E-09  5.49137E-09  5.59964E-09  5.71804E-09  5.87370E-09  6.03746E-09  6.19391E-09  6.31077E-09
   6.34978E-09  6.40846E-09  6.49811E-09  6.37087E-09  6.18833E-09  6.20037E-09  6.07259E-09  5.84304E-09  5.75624E-09  5.67361E-09
   5.56677E-09  5.49223E-09  5.43737E-09  5.39393E-09  5.35755E-09  5.32549E-09  5.29620E-09  5.26868E-09  5.24225E-09  5.21643E-09
   5.19074E-09  5.16470E-09  5.13816E-09  5.11090E-09  5.08284E-09  5.05392E-09  5.02396E-09  4.99282E-09  4.96042E-09  4.92668E-09
   4.89151E-09  4.85490E-09  4.81680E-09  4.77721E-09  4.73614E-09  4.69360E-09  4.64961E-09  4.60418E-09  4.55735E-09  4.50913E-09
   4.45954E-09  4.40861E-09  4.35637E-09  4.30285E-09  4.24806E-09  4.19204E-09  4.13482E-09  4.07642E-09  4.01688E-09  3.95622E-09
   3.89448E-09  3.83169E-09  3.76789E-09  3.70310E-09  3.63734E-09  3.57066E-09  3.50310E-09  3.43469E-09  3.36547E-09  3.29548E-09
   3.22476E-09  3.15334E-09  3.08127E-09  3.00863E-09  2.93545E-09  2.86180E-09  2.78777E-09  2.71345E-09  2.63896E-09  2.56449E-09
   2.49027E-09  2.41668E-09  2.34435E-09  2.27443E-09  2.20939E-09  2.15588E-09  2.14133E-09  2.24064E-09  2.40232E-09  2.64084E-09
   2.92366E-09  3.16366E-09  3.27191E-09  3.26720E-09  3.21519E-09  3.13784E-09  2.87969E-09  2.24670E-09  1.41887E-09  1.13857E-09
   9.88212E-10  8.74113E-10  7.74668E-10  6.82577E-10  5.94715E-10  5.09570E-10  4.26314E-10  3.44463E-10  2.63730E-10  1.83931E-10
   1.04936E-10  2.66832E-11 -5.08923E-11 -1.27805E-10 -2.04087E-10 -2.79754E-10 -3.54793E-10 -4.29206E-10 -5.02997E-10 -5.76145E-10
  -6.48643E-10 -7.20491E-10 -7.91665E-10 -8.62144E-10 -9.31926E-10 -1.00099E-09 -1.06932E-09 -1.13688E-09 -1.20368E-09 -1.26969E-09
  -1.33490E-09 -1.39928E-09 -1.46281E-09 -1.52547E-09 -1.58726E-09 -1.64815E-09 -1.70811E-09 -1.76713E-09 -1.82520E-09 -1.88229E-09
  -1.93837E-09 -1.99343E-09 -2.04746E-09 -2.10043E-09 -2.15234E-09 -2.20313E-09 -2.25281E-09 -2.30137E-09 -2.34876E-09 -2.39497E-09
  -2.43999E-09 -2.48379E-09 -2.52636E-09 -2.56767E-09 -2.60771E-09 -2.64645E-09 -2.68388E-09 -2.71997E-09 -2.75471E-09 -2.78807E-09
  -2.82004E-09 -2.85060E-09 -2.87972E-09 -2.90743E-09 -2.93375E-09 -2.95873E-09 -2.98240E-09 -3.00480E-09 -3.02597E-09 -3.04593E-09
  -3.06473E-09 -3.08240E-09 -3.09899E-09 -3.11451E-09 -3.12902E-09 -3.14255E-09 -3.15513E-09 -3.16680E-09 -3.17760E-09 -3.18755E-09
  -3.19671E-09 -3.20510E-09 -3.21277E-09 -3.21974E-09 -3.22605E-09 -3.23175E-09 -3.23686E-09 -3.24142E-09 -3.24547E-09 -3.24904E-09
  -3.25218E-09 -3.25491E-09 -3.25728E-09 -3.25931E-09 -3.26105E-09 -3.26253E-09 -3.26379E-09 -3.26487E-09 -3.26579E-09 -3.26660E-09
  -3.26733E-09 -3.26802E-09 -3.26871E-09 -3.26942E-09 -3.27021E-09 -3.27110E-09 -3.27212E-09 -3.27332E-09 -3.27474E-09 -3.27640E-09
  -3.27835E-09 -3.28062E-09 -3.28324E-09 -3.28626E-09 -3.28970E-09 -3.29362E-09 -3.29803E-09 -3.30298E-09 -3.30851E-09 -3.31464E-09
  -3.32142E-09 -3.32888E-09 -3.33706E-09 -3.34598E-09 -3.35562E-09 -3.36595E-09 -3.37698E-09 -3.38867E-09 -3.40102E-09 -3.41401E-09
  -3.42761E-09 -3.44182E-09 -3.45661E-09 -3.47197E-09 -3.48789E-09 -3.50434E-09 -3.52131E-09 -3.53878E-09 -3.55673E-09 -3.57516E-09
  -3.59403E-09 -3.61334E-09 -3.63307E-09 -3.65321E-09 -3.67372E-09 -3.69461E-09 -3.71584E-09 -3.73740E-09 -3.75929E-09 -3.78147E-09
  -3.80394E-09 -3.82669E-09 -3.84967E-09 -3.87289E-09 -3.89633E-09 -3.91997E-09 -3.94378E-09 -3.96777E-09 -3.99191E-09 -4.01618E-09
  -4.04057E-09 -4.06505E-09 -4.08961E-09 -4.11425E-09 -4.13893E-09 -4.16365E-09 -4.18837E-09 -4.21310E-09 -4.23781E-09 -4.26248E-09
  -4.28710E-09 -4.31166E-09 -4.33612E-09 -4.36049E-09 -4.38473E-09 -4.40884E-09 -4.43280E-09 -4.45659E-09 -4.48019E-09 -4.50360E-09
  -4.52677E-09 -4.54972E-09 -4.57241E-09
 Gln      Conc. = 1.86E-09
   4.72540E-09  5.05108E-09  5.42553E-09  5.81796E-09  6.18655E-09  6.47221E-09  6.61570E-09  6.56583E-09  6.39303E-09  6.26125E-09
   5.84676E-09  5.31847E-09  5.08747E-09  4.69103E-09  4.48760E-09  4.39782E-09  4.35288E-09  4.32991E-09  4.31949E-09  4.31693E-09
   4.31963E-09  4.32598E-09  4.33498E-09  4.34611E-09  4.35928E-09  4.37431E-09  4.39017E-09  4.40707E-09  4.42512E-09  4.44372E-09
   4.46290E-09  4.48266E-09  4.50301E-09  4.52396E-09  4.54554E-09  4.56777E-09  4.59071E-09  4.61441E-09  4.63895E-09  4.66444E-09
   4.69101E-09  4.71884E-09  4.74821E-09  4.77942E-09  4.81279E-09  4.84885E-09  4.88813E-09  4.93125E-09  4.97962E-09  5.03499E-09
   5.09922E-09  5.17658E-09  5.27400E-09  5.40428E-09  5.59977E-09  5.89924E-09  6.25766E-09  6.71520E-09  7.28579E-09  7.85300E-09
   8.36430E-09  8.85988E-09  9.25322E-09  9.42841E-09  9.27531E-09  8.80657E-09  8.30017E-09  7.99505E-09  7.27939E-09  6.45161E-09
   6.17268E-09  6.10792E-09  5.98035E-09  6.09510E-09  6.38903E-09  6.81957E-09  7.27896E-09  7.74095E-09  8.17586E-09  8.54068E-09
   8.82346E-09  8.95293E-09  8.72508E-09  8.46284E-09  8.26628E-09  7.72908E-09  7.14466E-09  6.87943E-09  6.50600E-09  6.18054E-09
   5.99245E-09  5.86933E-09  5.78353E-09  5.72050E-09  5.66980E-09  5.62842E-09  5.59436E-09  5.56503E-09  5.53925E-09  5.51645E-09
   5.49544E-09  5.47527E-09  5.45568E-09  5.43643E-09  5.41740E-09  5.39844E-09  5.37911E-09  5.35928E-09  5.33882E-09  5.31760E-09
   5.29553E-09  5.27250E-09  5.24846E-09  5.22329E-09  5.19696E-09  5.16939E-09  5.14052E-09  5.11030E-09  5.07866E-09  5.04559E-09
   5.01099E-09  4.97485E-09  4.93715E-09  4.89790E-09  4.85711E-09  4.81483E-09  4.77106E-09  4.72584E-09  4.67919E-09  4.63114E-09
   4.58171E-09  4.53093E-09  4.47883E-09  4.42545E-09  4.37080E-09  4.31493E-09  4.25786E-09  4.19962E-09  4.14025E-09  4.07978E-09
   4.01824E-09  3.95567E-09  3.89210E-09  3.82758E-09  3.76213E-09  3.69579E-09  3.62860E-09  3.56063E-09  3.49189E-09  3.42245E-09
   3.35237E-09  3.28167E-09  3.21044E-09  3.13877E-09  3.06672E-09  2.99440E-09  2.92195E-09  2.84952E-09  2.77733E-09  2.70568E-09
   2.63498E-09  2.56588E-09  2.49939E-09  2.43732E-09  2.38314E-09  2.34489E-09  2.34747E-09  2.51072E-09  2.86305E-09  3.35840E-09
   3.99136E-09  4.64215E-09  5.11304E-09  5.31493E-09  5.33784E-09  5.29929E-09  5.08607E-09  4.30078E-09  2.79917E-09  1.65636E-09
   1.30039E-09  1.10874E-09  9.70824E-10  8.56495E-10  7.54480E-10  6.59711E-10  5.69587E-10  4.82650E-10  3.98036E-10  3.15207E-10
   2.33795E-10  1.53585E-10  7.43988E-11 -3.85607E-12 -8.12689E-11 -1.57899E-10 -2.33765E-10 -3.08896E-10 -3.83312E-10 -4.57009E-10
  -5.29993E-10 -6.02274E-10 -6.73834E-10 -7.44660E-10 -8.14755E-10 -8.84102E-10 -9.52692E-10 -1.02049E-09 -1.08751E-09 -1.15372E-09
  -1.21912E-09 -1.28366E-09 -1.34736E-09 -1.41017E-09 -1.47210E-09 -1.53312E-09 -1.59320E-09 -1.65234E-09 -1.71053E-09 -1.76772E-09
  -1.82390E-09 -1.87906E-09 -1.93317E-09 -1.98624E-09 -2.03823E-09 -2.08910E-09 -2.13886E-09 -2.18749E-09 -2.23495E-09 -2.28123E-09
