 LCModel (Version 6.3-1R) Copyright: S.W. Provencher.          Ref.: Magn. Reson. Med. 30:672-679 (1993).                
 onepulse 14x13_ftSpec_smooth_lcm
 26 lines in following concentration table = NCONC+1
    Conc.  %SD   /Cr    Metabolite                                         
 2.53E-10 120%   0.000 Ala                                                 
 1.64E-09  49%   0.000 Asp                                                 
    0.000 999%   0.000 Cr                                                  
 1.05E-09  57%   0.000 GABA                                                
    0.000 999%   0.000 Glc                                                 
 1.26E-09  53%   0.000 Gln                                                 
    0.000 999%   0.000 Glu                                                 
    0.000 999%   0.000 Glyc                                                
 3.35E-12 999%   0.000 GPC                                                 
 1.56E-09  32%   0.000 GSH                                                 
 1.95E-09  21%   0.000 Ins                                                 
    0.000 999%   0.000 Lac                                                 
 6.74E-10  52%   0.000 NAAG                                                
    0.000 999%   0.000 NAA                                                 
    0.000 999%   0.000 PCh                                                 
    0.000 999%   0.000 PCr                                                 
 1.58E-10 999%   0.000 PE                                                  
    0.000 999%   0.000 Scyllo                                              
 1.56E-09  83%   0.000 Ser                                                 
 3.08E-09  25%   0.000 Tau                                                 
 3.35E-12 999%   0.000 GPC+PCh                                             
 6.74E-10  48%   0.000 NAA+NAAG                                            
 1.95E-09  21%   0.000 Ins+Glyc                                            
    0.000 999%   0.000 Cr+PCr                                              
 1.26E-09  53%   0.000 Glu+Gln                                             
   6 lines in following misc. output table
  FWHM = 0.123 ppm    S/N =   4                                            
  Data shift = 0.470 ppm                                                   
  Ph:  36 deg     -38.5 deg/ppm                                            
  alphaB,S = 6.2E-01,   1.1E+01                                            
   10 spline knots.   Ns = 5(1)                                            
  (12) 6 infls.   (11) 5 extrs.                                            
  363 points on ppm-axis = NY
      4.250000     4.238821     4.227641     4.216462     4.205282     4.194103     4.182923     4.171744     4.160564     4.149385
      4.138206     4.127026     4.115847     4.104667     4.093488     4.082308     4.071129     4.059949     4.048770     4.037591
      4.026411     4.015232     4.004052     3.992873     3.981693     3.970514     3.959334     3.948155     3.936975     3.925796
      3.914617     3.903437     3.892258     3.881078     3.869899     3.858719     3.847540     3.836360     3.825181     3.814002
      3.802822     3.791643     3.780463     3.769284     3.758104     3.746925     3.735745     3.724566     3.713387     3.702207
      3.691028     3.679848     3.668669     3.657489     3.646310     3.635130     3.623951     3.612772     3.601592     3.590413
      3.579233     3.568054     3.556874     3.545695     3.534515     3.523336     3.512156     3.500977     3.489798     3.478618
      3.467439     3.456259     3.445080     3.433900     3.422721     3.411541     3.400362     3.389183     3.378003     3.366824
      3.355644     3.344465     3.333285     3.322106     3.310926     3.299747     3.288568     3.277388     3.266209     3.255029
      3.243850     3.232670     3.221491     3.210311     3.199132     3.187953     3.176773     3.165594     3.154414     3.143235
      3.132055     3.120876     3.109696     3.098517     3.087337     3.076158     3.064979     3.053799     3.042620     3.031440
      3.020261     3.009081     2.997902     2.986722     2.975543     2.964364     2.953184     2.942005     2.930825     2.919646
      2.908466     2.897287     2.886107     2.874928     2.863749     2.852569     2.841390     2.830210     2.819031     2.807851
      2.796672     2.785492     2.774313     2.763134     2.751954     2.740775     2.729595     2.718416     2.707236     2.696057
      2.684877     2.673698     2.662519     2.651339     2.640160     2.628980     2.617801     2.606621     2.595442     2.584262
      2.573083     2.561903     2.550724     2.539545     2.528365     2.517186     2.506006     2.494827     2.483647     2.472468
      2.461288     2.450109     2.438930     2.427750     2.416571     2.405391     2.394212     2.383032     2.371853     2.360673
      2.349494     2.338315     2.327135     2.315956     2.304776     2.293597     2.282417     2.271238     2.260058     2.248879
      2.237700     2.226520     2.215341     2.204161     2.192982     2.181802     2.170623     2.159443     2.148264     2.137084
      2.125905     2.114726     2.103546     2.092367     2.081187     2.070008     2.058828     2.047649     2.036469     2.025290
      2.014111     2.002931     1.991752     1.980572     1.969393     1.958213     1.947034     1.935854     1.924675     1.913496
      1.902316     1.891137     1.879957     1.868778     1.857598     1.846419     1.835239     1.824060     1.812881     1.801701
      1.790522     1.779342     1.768163     1.756983     1.745804     1.734624     1.723445     1.712265     1.701086     1.689907
      1.678727     1.667548     1.656368     1.645189     1.634009     1.622830     1.611650     1.600471     1.589292     1.578112
      1.566933     1.555753     1.544574     1.533394     1.522215     1.511035     1.499856     1.488677     1.477497     1.466318
      1.455138     1.443959     1.432779     1.421600     1.410420     1.399241     1.388062     1.376882     1.365703     1.354523
      1.343344     1.332164     1.320985     1.309805     1.298626     1.287446     1.276267     1.265088     1.253908     1.242729
      1.231549     1.220370     1.209190     1.198011     1.186831     1.175652     1.164473     1.153293     1.142114     1.130934
      1.119755     1.108575     1.097396     1.086216     1.075037     1.063858     1.052678     1.041499     1.030319     1.019140
      1.007960     0.996781     0.985601     0.974422     0.963243     0.952063     0.940884     0.929704     0.918525     0.907345
      0.896166     0.884986     0.873807     0.862628     0.851448     0.840269     0.829089     0.817910     0.806730     0.795551
      0.784371     0.773192     0.762012     0.750833     0.739654     0.728474     0.717295     0.706115     0.694936     0.683756
      0.672577     0.661397     0.650218     0.639039     0.627859     0.616680     0.605500     0.594321     0.583141     0.571962
      0.560782     0.549603     0.538424     0.527244     0.516065     0.504885     0.493706     0.482526     0.471347     0.460167
      0.448988     0.437809     0.426629     0.415450     0.404270     0.393091     0.381911     0.370732     0.359552     0.348373
      0.337193     0.326014     0.314835     0.303655     0.292476     0.281296     0.270117     0.258937     0.247758     0.236578
      0.225399     0.214220     0.203040
 NY phased data points follow
   1.46183E-08  1.32456E-08  1.47818E-08  1.34274E-08  1.53241E-08  1.40454E-08  1.59037E-08  1.39043E-08  1.50131E-08  1.38486E-08
   1.45126E-08  1.27991E-08  1.40302E-08  1.29516E-08  1.46605E-08  1.44196E-08  1.47919E-08  1.37321E-08  1.33078E-08  1.22728E-08
   1.35386E-08  1.44013E-08  1.59105E-08  1.61307E-08  1.72946E-08  1.66067E-08  1.53976E-08  1.45384E-08  1.41093E-08  1.39480E-08
   1.29979E-08  1.36427E-08  1.28728E-08  1.23021E-08  1.25930E-08  1.23282E-08  1.14715E-08  1.13912E-08  1.01640E-08  1.08953E-08
   1.06749E-08  1.05402E-08  1.02007E-08  1.06423E-08  9.12136E-09  9.01039E-09  8.03697E-09  7.60610E-09  6.88630E-09  7.03960E-09
   6.04774E-09  6.66924E-09  7.87151E-09  1.19877E-08  1.35021E-08  1.43986E-08  1.33085E-08  1.37866E-08  1.28235E-08  1.27988E-08
   1.09914E-08  1.13536E-08  1.02014E-08  9.99652E-09  8.33058E-09  7.94162E-09  5.20488E-09  4.97941E-09  4.06559E-09  8.27476E-09
   1.10140E-08  1.46739E-08  1.45191E-08  1.49663E-08  1.42881E-08  1.50595E-08  1.41673E-08  1.44512E-08  1.39504E-08  1.44204E-08
   1.37159E-08  1.43203E-08  1.36688E-08  1.38546E-08  1.28342E-08  1.36364E-08  1.21273E-08  1.27442E-08  1.14818E-08  1.18178E-08
   1.03392E-08  1.08655E-08  1.05929E-08  1.06347E-08  1.00837E-08  1.06681E-08  1.00191E-08  1.11530E-08  9.76446E-09  9.52432E-09
   8.47791E-09  8.00853E-09  6.54888E-09  8.08956E-09  7.43737E-09  7.94637E-09  7.18524E-09  8.56767E-09  7.51321E-09  8.03600E-09
   7.92520E-09  9.59989E-09  8.31942E-09  8.64635E-09  7.78214E-09  8.07136E-09  5.88238E-09  6.25442E-09  6.34917E-09  6.52947E-09
   5.24322E-09  6.04242E-09  5.54875E-09  6.62691E-09  5.41059E-09  6.72299E-09  5.42971E-09  5.81806E-09  4.30073E-09  4.76189E-09
   5.15300E-09  6.84900E-09  6.03370E-09  7.39438E-09  5.84231E-09  7.01834E-09  6.96414E-09  7.97576E-09  7.83889E-09  9.08587E-09
   8.25896E-09  8.80464E-09  8.25782E-09  8.83186E-09  8.64221E-09  8.98116E-09  7.93265E-09  9.08484E-09  8.21742E-09  9.01028E-09
   8.62356E-09  9.46954E-09  8.36887E-09  9.19304E-09  8.72215E-09  8.42893E-09  6.42465E-09  7.10343E-09  5.01913E-09  2.78425E-09
   1.43577E-09  8.06991E-09  1.23025E-08  1.68465E-08  1.72056E-08  1.93875E-08  1.99025E-08  2.13789E-08  2.15048E-08  2.25736E-08
   2.23701E-08  2.33292E-08  2.31385E-08  2.49885E-08  2.34941E-08  2.45725E-08  2.34368E-08  2.34928E-08  2.18003E-08  2.12858E-08
   1.87345E-08  1.72521E-08  1.45832E-08  1.30594E-08  9.96301E-09  7.89570E-09  4.81566E-09  3.40712E-09  1.29663E-10 -1.51751E-09
  -3.98123E-09 -3.82695E-09 -5.63198E-09 -5.10512E-09 -5.99403E-09 -4.46944E-09 -5.07797E-09 -3.96579E-09 -3.12605E-09 -1.89182E-09
  -2.43212E-09  1.21643E-10 -1.33507E-09 -3.41877E-10 -6.15473E-10  8.08635E-11 -1.49601E-09 -3.97030E-10 -1.11128E-09 -4.31224E-10
  -1.55732E-09 -9.46674E-11 -6.61987E-10  4.15983E-10 -4.86108E-10  5.94410E-10 -5.03815E-10  6.29247E-10 -1.04404E-09 -4.25944E-10
  -1.04186E-09 -7.85482E-11 -6.67037E-10  2.12062E-10 -8.57418E-10  5.88040E-10 -3.67376E-10  6.13355E-10 -1.95610E-10  5.63356E-10
  -5.99002E-10 -6.52470E-10 -1.23045E-09  5.52200E-11 -1.40792E-09 -7.45266E-10 -1.44376E-09 -2.86774E-10 -5.60601E-10 -7.80837E-11
  -9.52125E-10  6.50062E-10 -9.03425E-10  3.77192E-10 -8.13065E-11  5.15659E-10 -4.77422E-11  2.87628E-10 -1.69893E-10  5.82414E-10
   2.49050E-11  1.39118E-10 -3.35467E-10 -1.43291E-12 -1.34692E-09 -5.25647E-10 -1.46168E-09 -1.19814E-09 -1.82813E-09 -1.50771E-09
  -2.04337E-09 -1.43765E-09 -1.76273E-09 -1.40684E-09 -1.93612E-09 -9.31773E-10 -1.24666E-09  8.76679E-11 -7.84537E-10  1.20519E-10
  -4.67137E-10  3.00251E-10  5.68067E-11  1.66725E-10  2.77537E-10  1.05165E-10  7.14311E-10  7.75171E-10  4.39536E-10  7.22168E-10
   6.58737E-10  9.78622E-10  3.23749E-10  9.89382E-10  6.28197E-10  1.10985E-09  5.67744E-10  6.18428E-10  5.07664E-10  5.54726E-10
   1.04469E-09  5.17216E-10  5.39728E-10  5.24933E-10  7.16568E-10  6.96020E-10  3.74812E-10  4.19519E-10  4.61098E-10  3.64109E-10
   7.77944E-10  2.76223E-11  6.06430E-10  1.00553E-10  3.04130E-10 -1.84813E-10  2.39044E-10 -2.14678E-10  1.72816E-10 -1.01740E-10
   3.89181E-10 -5.43410E-12  7.51020E-11  4.88758E-11 -2.39306E-10 -8.47816E-10 -2.73337E-10 -1.23241E-10  3.14520E-10 -8.76547E-10
   4.05405E-11 -9.04454E-11 -6.89078E-10 -2.49037E-10  1.60221E-10 -3.86404E-10 -2.37536E-10 -1.13540E-10 -4.74111E-10 -6.89450E-10
  -5.14705E-10 -5.17108E-10 -3.24746E-10 -8.55600E-10 -7.08376E-10 -9.50387E-10 -4.07690E-10 -4.22794E-10 -1.20141E-09 -1.08941E-09
  -3.15264E-10 -6.78853E-10 -8.11680E-10 -1.17656E-09 -4.05643E-10 -8.78409E-10 -5.99629E-10 -1.00173E-09 -7.69898E-10 -1.04711E-09
  -6.76884E-10 -1.45446E-09 -7.39120E-10 -8.19255E-10 -1.02710E-09 -1.10820E-09 -1.02062E-09 -1.05597E-09 -8.43040E-10 -1.73689E-09
  -1.00643E-09 -1.55654E-09 -1.07670E-09
 NY points of the fit to the data follow
   1.53151E-08  1.49049E-08  1.34322E-08  1.34480E-08  1.48997E-08  1.47497E-08  1.42017E-08  1.50661E-08  1.69883E-08  1.38204E-08
   1.17405E-08  1.17665E-08  1.23200E-08  1.32105E-08  1.43948E-08  1.44921E-08  1.50104E-08  1.65668E-08  1.53348E-08  1.32074E-08
   1.33609E-08  1.51620E-08  1.55789E-08  1.59610E-08  1.63136E-08  1.61238E-08  1.52923E-08  1.46408E-08  1.33568E-08  1.38363E-08
   1.44084E-08  1.40120E-08  1.33943E-08  1.33095E-08  1.22556E-08  1.15647E-08  1.14531E-08  1.09968E-08  1.07669E-08  1.05859E-08
   1.01902E-08  1.03148E-08  1.07908E-08  1.05393E-08  9.89315E-09  9.86312E-09  9.69501E-09  8.33775E-09  7.98291E-09  8.40781E-09
   8.89180E-09  9.20399E-09  9.54233E-09  1.05071E-08  1.09706E-08  1.09304E-08  1.07889E-08  1.13375E-08  1.16188E-08  1.14766E-08
   1.14035E-08  1.11671E-08  1.12928E-08  1.11654E-08  1.05640E-08  1.05820E-08  1.08314E-08  1.02264E-08  9.82768E-09  1.03699E-08
   1.11541E-08  1.13998E-08  1.18382E-08  1.19473E-08  1.28271E-08  1.40825E-08  1.50199E-08  1.50285E-08  1.50089E-08  1.50741E-08
   1.48703E-08  1.43877E-08  1.40219E-08  1.36355E-08  1.33130E-08  1.30615E-08  1.21699E-08  1.01142E-08  9.44698E-09  9.30049E-09
   9.01678E-09  8.73583E-09  8.85000E-09  8.81472E-09  8.29703E-09  8.29975E-09  8.34166E-09  7.99896E-09  7.94200E-09  8.00833E-09
   8.15554E-09  8.00285E-09  7.96452E-09  8.24723E-09  8.28764E-09  8.25130E-09  8.25144E-09  8.26009E-09  8.30027E-09  8.34515E-09
   8.23531E-09  7.88030E-09  7.96326E-09  7.99377E-09  7.66583E-09  7.56128E-09  7.52074E-09  7.50205E-09  7.49285E-09  7.48826E-09
   7.48592E-09  7.48459E-09  7.48351E-09  7.48215E-09  7.48016E-09  7.47730E-09  7.47338E-09  7.46823E-09  7.46173E-09  7.45380E-09
   7.44433E-09  7.43325E-09  7.42052E-09  7.40607E-09  7.38985E-09  7.37182E-09  7.35195E-09  7.33021E-09  7.30656E-09  7.28100E-09
   7.25352E-09  7.22410E-09  7.19276E-09  7.15951E-09  7.12436E-09  7.08736E-09  7.04857E-09  7.00806E-09  6.96594E-09  6.92237E-09
   6.87751E-09  6.83163E-09  6.78508E-09  6.73830E-09  6.69193E-09  6.64685E-09  6.60433E-09  6.56626E-09  6.53554E-09  6.51658E-09
   6.51661E-09  6.54823E-09  6.63560E-09  6.83099E-09  7.27044E-09  8.42822E-09  1.28175E-08  2.18702E-08  2.44761E-08  2.31059E-08
   2.27849E-08  2.34743E-08  2.41337E-08  2.44544E-08  2.42630E-08  2.47644E-08  2.61260E-08  2.39094E-08  1.35521E-08  7.66295E-09
   5.97418E-09  5.21637E-09  4.76549E-09  4.44930E-09  4.20312E-09  3.99769E-09  3.81790E-09  3.65527E-09  3.50478E-09  3.36321E-09
   3.22843E-09  3.09907E-09  2.97411E-09  2.85293E-09  2.73499E-09  2.61997E-09  2.50763E-09  2.39783E-09  2.29041E-09  2.18535E-09
   2.08260E-09  1.98213E-09  1.88398E-09  1.78815E-09  1.69469E-09  1.60363E-09  1.51506E-09  1.42898E-09  1.34549E-09  1.26452E-09
   1.18601E-09  1.10990E-09  1.03617E-09  9.64746E-10  8.95598E-10  8.28671E-10  7.63937E-10  7.01352E-10  6.40866E-10  5.82446E-10
   5.26069E-10  4.71679E-10  4.19246E-10  3.68740E-10  3.20116E-10  2.73346E-10  2.28408E-10  1.85238E-10  1.43811E-10  1.04118E-10
   6.61111E-11  2.97479E-11 -4.98668E-12 -3.81438E-11 -6.97410E-11 -9.98263E-11 -1.28424E-10 -1.55555E-10 -1.81264E-10 -2.05578E-10
  -2.28530E-10 -2.50147E-10 -2.70467E-10 -2.89523E-10 -3.07336E-10 -3.23944E-10 -3.39386E-10 -3.53697E-10 -3.66875E-10 -3.78965E-10
  -3.90018E-10 -4.00059E-10 -4.09106E-10 -4.17183E-10 -4.24362E-10 -4.30625E-10 -4.36032E-10 -4.40598E-10 -4.44372E-10 -4.47380E-10
  -4.49638E-10 -4.51183E-10 -4.52044E-10 -4.52251E-10 -4.51832E-10 -4.50817E-10 -4.49234E-10 -4.47112E-10 -4.44480E-10 -4.41368E-10
  -4.37804E-10 -4.33814E-10 -4.29431E-10 -4.24682E-10 -4.19595E-10 -4.14201E-10 -4.08527E-10 -4.02602E-10 -3.96456E-10 -3.90118E-10
  -3.83613E-10 -3.76974E-10 -3.70227E-10 -3.63402E-10 -3.56530E-10 -3.49638E-10 -3.42752E-10 -3.35903E-10 -3.29122E-10 -3.22436E-10
  -3.15872E-10 -3.09459E-10 -3.03228E-10 -2.97208E-10 -2.91424E-10 -2.85910E-10 -2.80690E-10 -2.75794E-10 -2.71251E-10 -2.67091E-10
  -2.63342E-10 -2.60029E-10 -2.57187E-10 -2.54841E-10 -2.53019E-10 -2.51753E-10 -2.51070E-10 -2.50997E-10 -2.51566E-10 -2.52801E-10
  -2.54736E-10 -2.57396E-10 -2.60776E-10 -2.64859E-10 -2.69627E-10 -2.75063E-10 -2.81148E-10 -2.87863E-10 -2.95191E-10 -3.03113E-10
  -3.11615E-10 -3.20672E-10 -3.30269E-10 -3.40389E-10 -3.51015E-10 -3.62125E-10 -3.73703E-10 -3.85731E-10 -3.98189E-10 -4.11060E-10
  -4.24330E-10 -4.37976E-10 -4.51977E-10 -4.66325E-10 -4.80992E-10 -4.95963E-10 -5.11224E-10 -5.26751E-10 -5.42529E-10 -5.58537E-10
  -5.74762E-10 -5.91182E-10 -6.07779E-10 -6.24537E-10 -6.41433E-10 -6.58453E-10 -6.75582E-10 -6.92795E-10 -7.10078E-10 -7.27409E-10
  -7.44777E-10 -7.62156E-10 -7.79535E-10 -7.96889E-10 -8.14201E-10 -8.31460E-10 -8.48644E-10 -8.65726E-10 -8.82703E-10 -8.99547E-10
  -9.16242E-10 -9.32771E-10 -9.49114E-10
 NY background values follow
    -2.279E-09   -2.191E-09   -2.103E-09   -2.015E-09   -1.926E-09   -1.838E-09   -1.749E-09   -1.660E-09   -1.572E-09   -1.483E-09
    -1.394E-09   -1.305E-09   -1.217E-09   -1.128E-09   -1.039E-09   -9.502E-10   -8.614E-10   -7.726E-10   -6.839E-10   -5.952E-10
    -5.066E-10   -4.180E-10   -3.294E-10   -2.410E-10   -1.526E-10   -6.432E-11    2.387E-11    1.120E-10    1.999E-10    2.878E-10
     3.755E-10    4.631E-10    5.506E-10    6.379E-10    7.250E-10    8.120E-10    8.988E-10    9.854E-10    1.072E-09    1.158E-09
     1.244E-09    1.330E-09    1.415E-09    1.501E-09    1.586E-09    1.671E-09    1.755E-09    1.840E-09    1.924E-09    2.008E-09
     2.091E-09    2.174E-09    2.257E-09    2.340E-09    2.422E-09    2.504E-09    2.586E-09    2.667E-09    2.747E-09    2.828E-09
     2.908E-09    2.987E-09    3.066E-09    3.144E-09    3.222E-09    3.299E-09    3.376E-09    3.452E-09    3.528E-09    3.603E-09
     3.677E-09    3.750E-09    3.823E-09    3.895E-09    3.967E-09    4.038E-09    4.107E-09    4.177E-09    4.245E-09    4.312E-09
     4.379E-09    4.445E-09    4.510E-09    4.574E-09    4.637E-09    4.699E-09    4.760E-09    4.820E-09    4.879E-09    4.937E-09
     4.994E-09    5.050E-09    5.105E-09    5.159E-09    5.211E-09    5.263E-09    5.313E-09    5.362E-09    5.410E-09    5.457E-09
     5.503E-09    5.547E-09    5.590E-09    5.631E-09    5.672E-09    5.710E-09    5.748E-09    5.784E-09    5.819E-09    5.852E-09
     5.884E-09    5.914E-09    5.943E-09    5.970E-09    5.995E-09    6.019E-09    6.041E-09    6.062E-09    6.080E-09    6.097E-09
     6.112E-09    6.126E-09    6.137E-09    6.147E-09    6.154E-09    6.160E-09    6.164E-09    6.166E-09    6.166E-09    6.163E-09
     6.159E-09    6.152E-09    6.144E-09    6.133E-09    6.120E-09    6.105E-09    6.087E-09    6.068E-09    6.045E-09    6.021E-09
     5.994E-09    5.965E-09    5.933E-09    5.899E-09    5.863E-09    5.823E-09    5.782E-09    5.737E-09    5.691E-09    5.641E-09
     5.589E-09    5.534E-09    5.476E-09    5.416E-09    5.353E-09    5.287E-09    5.218E-09    5.146E-09    5.072E-09    4.995E-09
     4.916E-09    4.834E-09    4.750E-09    4.664E-09    4.576E-09    4.486E-09    4.394E-09    4.300E-09    4.205E-09    4.108E-09
     4.010E-09    3.910E-09    3.809E-09    3.707E-09    3.603E-09    3.499E-09    3.394E-09    3.288E-09    3.182E-09    3.074E-09
     2.967E-09    2.859E-09    2.751E-09    2.642E-09    2.534E-09    2.426E-09    2.317E-09    2.209E-09    2.101E-09    1.994E-09
     1.887E-09    1.781E-09    1.676E-09    1.571E-09    1.468E-09    1.365E-09    1.264E-09    1.164E-09    1.065E-09    9.674E-10
     8.715E-10    7.772E-10    6.847E-10    5.940E-10    5.052E-10    4.185E-10    3.339E-10    2.515E-10    1.715E-10    9.368E-11
     1.815E-11   -5.516E-11   -1.263E-10   -1.952E-10   -2.620E-10   -3.268E-10   -3.894E-10   -4.500E-10   -5.086E-10   -5.652E-10
    -6.199E-10   -6.726E-10   -7.235E-10   -7.725E-10   -8.197E-10   -8.651E-10   -9.087E-10   -9.505E-10   -9.907E-10   -1.029E-09
    -1.066E-09   -1.101E-09   -1.135E-09   -1.167E-09   -1.198E-09   -1.227E-09   -1.254E-09   -1.280E-09   -1.305E-09   -1.329E-09
    -1.351E-09   -1.371E-09   -1.391E-09   -1.409E-09   -1.426E-09   -1.442E-09   -1.457E-09   -1.470E-09   -1.483E-09   -1.494E-09
    -1.504E-09   -1.514E-09   -1.522E-09   -1.529E-09   -1.536E-09   -1.541E-09   -1.546E-09   -1.550E-09   -1.553E-09   -1.556E-09
    -1.557E-09   -1.558E-09   -1.558E-09   -1.558E-09   -1.557E-09   -1.555E-09   -1.553E-09   -1.551E-09   -1.547E-09   -1.544E-09
    -1.540E-09   -1.535E-09   -1.530E-09   -1.525E-09   -1.519E-09   -1.513E-09   -1.507E-09   -1.500E-09   -1.494E-09   -1.487E-09
    -1.480E-09   -1.473E-09   -1.465E-09   -1.458E-09   -1.451E-09   -1.443E-09   -1.436E-09   -1.429E-09   -1.421E-09   -1.414E-09
    -1.407E-09   -1.400E-09   -1.393E-09   -1.387E-09   -1.381E-09   -1.375E-09   -1.369E-09   -1.363E-09   -1.358E-09   -1.354E-09
    -1.350E-09   -1.346E-09   -1.342E-09   -1.340E-09   -1.337E-09   -1.336E-09   -1.334E-09   -1.334E-09   -1.334E-09   -1.335E-09
    -1.336E-09   -1.338E-09   -1.341E-09   -1.345E-09   -1.349E-09   -1.354E-09   -1.360E-09   -1.366E-09   -1.373E-09   -1.380E-09
    -1.388E-09   -1.397E-09   -1.406E-09   -1.415E-09   -1.425E-09   -1.436E-09   -1.447E-09   -1.459E-09   -1.471E-09   -1.483E-09
    -1.496E-09   -1.509E-09   -1.522E-09   -1.536E-09   -1.550E-09   -1.565E-09   -1.580E-09   -1.595E-09   -1.610E-09   -1.625E-09
    -1.641E-09   -1.657E-09   -1.673E-09   -1.689E-09   -1.706E-09   -1.722E-09   -1.739E-09   -1.756E-09   -1.772E-09   -1.789E-09
    -1.806E-09   -1.823E-09   -1.840E-09   -1.856E-09   -1.873E-09   -1.890E-09   -1.907E-09   -1.923E-09   -1.940E-09   -1.956E-09
    -1.972E-09   -1.988E-09   -2.004E-09
 Ala      Conc. = 2.53E-10
  -2.08400E-09 -2.00312E-09 -1.91115E-09 -1.80732E-09 -1.72650E-09 -1.64329E-09 -1.53559E-09 -1.48093E-09 -1.43862E-09 -1.31728E-09
  -1.24865E-09 -1.21552E-09 -1.12578E-09 -1.04525E-09 -9.76795E-10 -8.99454E-10 -8.17886E-10 -7.34064E-10 -6.48940E-10 -5.62970E-10
  -4.76457E-10 -3.89575E-10 -3.02430E-10 -2.15116E-10 -1.27711E-10 -4.02374E-11  4.72531E-11  1.34741E-10  2.22188E-10  3.09588E-10
   3.96932E-10  4.84160E-10  5.71302E-10  6.58322E-10  7.45218E-10  8.31966E-10  9.18562E-10  1.00501E-09  1.09128E-09  1.17734E-09
   1.26324E-09  1.34895E-09  1.43442E-09  1.51967E-09  1.60471E-09  1.68950E-09  1.77406E-09  1.85836E-09  1.94239E-09  2.02614E-09
   2.10963E-09  2.19283E-09  2.27575E-09  2.35834E-09  2.44061E-09  2.52253E-09  2.60409E-09  2.68526E-09  2.76602E-09  2.84637E-09
   2.92626E-09  3.00570E-09  3.08465E-09  3.16310E-09  3.24102E-09  3.31841E-09  3.39524E-09  3.47149E-09  3.54714E-09  3.62218E-09
   3.69659E-09  3.77034E-09  3.84343E-09  3.91583E-09  3.98752E-09  4.05850E-09  4.12875E-09  4.19824E-09  4.26698E-09  4.33495E-09
   4.40212E-09  4.46851E-09  4.53410E-09  4.59888E-09  4.66287E-09  4.72607E-09  4.78849E-09  4.85017E-09  4.91116E-09  4.97152E-09
   5.03136E-09  5.09084E-09  5.15023E-09  5.20993E-09  5.27065E-09  5.33364E-09  5.40143E-09  5.47974E-09  5.58479E-09  5.78020E-09
   6.11762E-09  6.07484E-09  6.12703E-09  6.49544E-09  6.60291E-09  6.61998E-09  6.66461E-09  6.71016E-09  6.78281E-09  6.85601E-09
   6.77085E-09  6.43789E-09  6.54056E-09  6.58883E-09  6.27703E-09  6.18702E-09  6.15958E-09  6.15287E-09  6.15465E-09  6.16013E-09
   6.16709E-09  6.17430E-09  6.18108E-09  6.18697E-09  6.19167E-09  6.19499E-09  6.19674E-09  6.19683E-09  6.19515E-09  6.19162E-09
   6.18618E-09  6.17876E-09  6.16932E-09  6.15781E-09  6.14418E-09  6.12839E-09  6.11040E-09  6.09018E-09  6.06769E-09  6.04290E-09
   6.01576E-09  5.98626E-09  5.95435E-09  5.92002E-09  5.88321E-09  5.84391E-09  5.80209E-09  5.75770E-09  5.71074E-09  5.66117E-09
   5.60896E-09  5.55409E-09  5.49654E-09  5.43628E-09  5.37329E-09  5.30756E-09  5.23912E-09  5.16804E-09  5.09448E-09  5.01862E-09
   4.94071E-09  4.86108E-09  4.78029E-09  4.69947E-09  4.62138E-09  4.55534E-09  4.55080E-09  4.69139E-09  4.59833E-09  4.46501E-09
   4.37012E-09  4.29017E-09  4.20318E-09  4.11009E-09  4.00022E-09  3.91171E-09  3.84443E-09  3.70395E-09  3.32183E-09  3.14634E-09
   3.01646E-09  2.89816E-09  2.78412E-09  2.67208E-09  2.56111E-09  2.45091E-09  2.34129E-09  2.23218E-09  2.12364E-09  2.01569E-09
   1.90838E-09  1.80181E-09  1.69602E-09  1.59116E-09  1.48725E-09  1.38442E-09  1.28274E-09  1.18235E-09  1.08328E-09  9.85682E-10
   8.89632E-10  7.95226E-10  7.02570E-10  6.11752E-10  5.22877E-10  4.36036E-10  3.51360E-10  2.68889E-10  1.88746E-10  1.10885E-10
   3.52854E-11 -3.80893E-11 -1.09263E-10 -1.78276E-10 -2.45149E-10 -3.09926E-10 -3.72623E-10 -4.33273E-10 -4.91919E-10 -5.48586E-10
  -6.03290E-10 -6.56079E-10 -7.06979E-10 -7.56018E-10 -8.03230E-10 -8.48643E-10 -8.92273E-10 -9.34183E-10 -9.74394E-10 -1.01291E-09
  -1.04978E-09 -1.08504E-09 -1.11871E-09 -1.15083E-09 -1.18142E-09 -1.21053E-09 -1.23817E-09 -1.26437E-09 -1.28918E-09 -1.31261E-09
  -1.33470E-09 -1.35547E-09 -1.37496E-09 -1.39321E-09 -1.41024E-09 -1.42607E-09 -1.44075E-09 -1.45432E-09 -1.46676E-09 -1.47814E-09
  -1.48848E-09 -1.49783E-09 -1.50619E-09 -1.51360E-09 -1.52011E-09 -1.52572E-09 -1.53048E-09 -1.53441E-09 -1.53756E-09 -1.53995E-09
  -1.54159E-09 -1.54253E-09 -1.54280E-09 -1.54241E-09 -1.54141E-09 -1.53982E-09 -1.53766E-09 -1.53497E-09 -1.53178E-09 -1.52811E-09
  -1.52399E-09 -1.51945E-09 -1.51453E-09 -1.50924E-09 -1.50361E-09 -1.49769E-09 -1.49149E-09 -1.48504E-09 -1.47837E-09 -1.47151E-09
  -1.46449E-09 -1.45734E-09 -1.45009E-09 -1.44276E-09 -1.43538E-09 -1.42799E-09 -1.42060E-09 -1.41325E-09 -1.40598E-09 -1.39880E-09
  -1.39174E-09 -1.38484E-09 -1.37812E-09 -1.37161E-09 -1.36534E-09 -1.35934E-09 -1.35363E-09 -1.34825E-09 -1.34323E-09 -1.33859E-09
  -1.33436E-09 -1.33056E-09 -1.32724E-09 -1.32442E-09 -1.32212E-09 -1.32037E-09 -1.31921E-09 -1.31866E-09 -1.31875E-09 -1.31951E-09
  -1.32097E-09 -1.32315E-09 -1.32605E-09 -1.32966E-09 -1.33395E-09 -1.33891E-09 -1.34451E-09 -1.35075E-09 -1.35760E-09 -1.36504E-09
  -1.37306E-09 -1.38164E-09 -1.39075E-09 -1.40039E-09 -1.41053E-09 -1.42116E-09 -1.43225E-09 -1.44379E-09 -1.45576E-09 -1.46815E-09
  -1.48093E-09 -1.49408E-09 -1.50759E-09 -1.52145E-09 -1.53562E-09 -1.55009E-09 -1.56486E-09 -1.57989E-09 -1.59516E-09 -1.61067E-09
  -1.62639E-09 -1.64231E-09 -1.65840E-09 -1.67465E-09 -1.69103E-09 -1.70754E-09 -1.72415E-09 -1.74085E-09 -1.75761E-09 -1.77442E-09
  -1.79127E-09 -1.80812E-09 -1.82498E-09 -1.84180E-09 -1.85858E-09 -1.87530E-09 -1.89195E-09 -1.90850E-09 -1.92493E-09 -1.94123E-09
  -1.95738E-09 -1.97336E-09 -1.98915E-09
 Asp      Conc. = 1.64E-09
  -4.01559E-10 -4.42228E-10 -7.01794E-10 -7.35463E-10 -7.99043E-10 -9.50210E-10 -8.86079E-10 -1.15698E-09 -1.23028E-09 -1.21943E-09
  -1.17519E-09 -1.11509E-09 -1.04643E-09 -9.70658E-10 -8.87264E-10 -8.03618E-10 -7.18743E-10 -6.32608E-10 -5.45406E-10 -4.57248E-10
  -3.68253E-10 -2.78473E-10 -1.87914E-10 -9.65723E-11 -4.40892E-12  8.86926E-11  1.82863E-10  2.78326E-10  3.75370E-10  4.74452E-10
   5.76230E-10  6.81661E-10  7.92409E-10  9.11291E-10  1.04392E-09  1.20342E-09  1.42781E-09  1.65882E-09  1.83911E-09  1.93768E-09
   1.98634E-09  2.10211E-09  2.33115E-09  2.86041E-09  3.14935E-09  3.95568E-09  4.05643E-09  3.84476E-09  3.93162E-09  4.31700E-09
   4.38880E-09  4.55794E-09  4.85123E-09  4.94830E-09  4.65537E-09  4.80090E-09  4.03638E-09  3.89180E-09  4.10831E-09  4.13322E-09
   3.81807E-09  3.82106E-09  3.82259E-09  3.68268E-09  3.76886E-09  3.97529E-09  3.91888E-09  3.87436E-09  3.87994E-09  3.90856E-09
   3.94949E-09  3.99773E-09  4.05064E-09  4.10664E-09  4.16471E-09  4.22418E-09  4.28454E-09  4.34544E-09  4.40662E-09  4.46785E-09
   4.52897E-09  4.58983E-09  4.65035E-09  4.71040E-09  4.76990E-09  4.82880E-09  4.88702E-09  4.94451E-09  5.00122E-09  5.05710E-09
   5.11212E-09  5.16622E-09  5.21939E-09  5.27157E-09  5.32274E-09  5.37287E-09  5.42194E-09  5.46990E-09  5.51673E-09  5.56242E-09
   5.60691E-09  5.65021E-09  5.69229E-09  5.73310E-09  5.77265E-09  5.81088E-09  5.84778E-09  5.88331E-09  5.91743E-09  5.95013E-09
   5.98136E-09  6.01110E-09  6.03931E-09  6.06596E-09  6.09103E-09  6.11447E-09  6.13627E-09  6.15639E-09  6.17480E-09  6.19148E-09
   6.20638E-09  6.21949E-09  6.23077E-09  6.24019E-09  6.24772E-09  6.25334E-09  6.25701E-09  6.25872E-09  6.25841E-09  6.25608E-09
   6.25168E-09  6.24520E-09  6.23660E-09  6.22586E-09  6.21294E-09  6.19782E-09  6.18048E-09  6.16088E-09  6.13900E-09  6.11482E-09
   6.08831E-09  6.05944E-09  6.02819E-09  5.99455E-09  5.95849E-09  5.91998E-09  5.87901E-09  5.83558E-09  5.78965E-09  5.74125E-09
   5.69035E-09  5.63698E-09  5.58114E-09  5.52286E-09  5.46221E-09  5.39925E-09  5.33414E-09  5.26714E-09  5.19868E-09  5.12933E-09
   5.05996E-09  4.99197E-09  4.92780E-09  4.87230E-09  4.83663E-09  4.85277E-09  5.05080E-09  6.17752E-09  6.70281E-09  6.43373E-09
   6.24460E-09  6.23039E-09  6.22835E-09  6.19971E-09  6.07843E-09  5.99314E-09  6.07155E-09  6.07193E-09  4.72703E-09  3.63836E-09
   3.28891E-09  3.08737E-09  2.93214E-09  2.79636E-09  2.67032E-09  2.54988E-09  2.43296E-09  2.31846E-09  2.20581E-09  2.09466E-09
   1.98480E-09  1.87617E-09  1.76869E-09  1.66243E-09  1.55734E-09  1.45351E-09  1.35098E-09  1.24985E-09  1.15015E-09  1.05199E-09
   9.55453E-10  8.60615E-10  7.67577E-10  6.76417E-10  5.87236E-10  5.00120E-10  4.15194E-10  3.32497E-10  2.52150E-10  1.74102E-10
   9.83312E-11  2.47990E-11 -4.65193E-11 -1.15666E-10 -1.82663E-10 -2.47554E-10 -3.10358E-10 -3.71108E-10 -4.29847E-10 -4.86602E-10
  -5.41388E-10 -5.94255E-10 -6.45229E-10 -6.94337E-10 -7.41615E-10 -7.87091E-10 -8.30780E-10 -8.72746E-10 -9.13012E-10 -9.51580E-10
