 LCModel (Version 6.3-1R) Copyright: S.W. Provencher.          Ref.: Magn. Reson. Med. 30:672-679 (1993).                
 onepulse 14x19_ftSpec_smooth_lcm
 26 lines in following concentration table = NCONC+1
    Conc.  %SD /Cr+PCr  Metabolite                                         
    0.000 999%   0.000 Ala                                                 
    0.000 999%   0.000 Asp                                                 
    0.000 999%   0.000 Cr                                                  
    0.000 999%   0.000 GABA                                                
 3.58E-10 280%   1.550 Glc                                                 
 1.36E-09  61%   5.913 Gln                                                 
 3.12E-10 250%   1.351 Glu                                                 
    0.000 999%   0.000 Glyc                                                
 1.68E-10  84%   0.726 GPC                                                 
    0.000 999%   0.000 GSH                                                 
 1.08E-09  46%   4.692 Ins                                                 
    0.000 999%   0.000 Lac                                                 
 1.13E-10 341%   0.491 NAAG                                                
 3.58E-10 138%   1.553 NAA                                                 
    0.000 999%   0.000 PCh                                                 
 2.31E-10 116%   1.000 PCr                                                 
    0.000 999%   0.000 PE                                                  
 1.36E-10 216%   0.591 Scyllo                                              
 3.75E-09  27%  16.255 Ser                                                 
 2.02E-10 538%   0.875 Tau                                                 
 1.68E-10  84%   0.726 GPC+PCh                                             
 4.72E-10  62%   2.044 NAA+NAAG                                            
 1.08E-09  46%   4.692 Ins+Glyc                                            
 2.31E-10 116%   1.000 Cr+PCr                                              
 1.68E-09  39%   7.264 Glu+Gln                                             
   6 lines in following misc. output table
  FWHM = 0.101 ppm    S/N =   2                                            
  Data shift = 0.369 ppm                                                   
  Ph: -51 deg     -40.8 deg/ppm                                            
  alphaB,S = 6.7E-01,   4.5E+01                                            
    8 spline knots.   Ns = 5(1)                                            
  ( 5) 2 infls.   ( 3) 1 extrs.                                            
  363 points on ppm-axis = NY
      4.250000     4.238821     4.227641     4.216462     4.205282     4.194103     4.182923     4.171744     4.160564     4.149385
      4.138206     4.127026     4.115847     4.104667     4.093488     4.082308     4.071129     4.059949     4.048770     4.037591
      4.026411     4.015232     4.004052     3.992873     3.981693     3.970514     3.959334     3.948155     3.936975     3.925796
      3.914617     3.903437     3.892258     3.881078     3.869899     3.858719     3.847540     3.836360     3.825181     3.814002
      3.802822     3.791643     3.780463     3.769284     3.758104     3.746925     3.735745     3.724566     3.713387     3.702207
      3.691028     3.679848     3.668669     3.657489     3.646310     3.635130     3.623951     3.612772     3.601592     3.590413
      3.579233     3.568054     3.556874     3.545695     3.534515     3.523336     3.512156     3.500977     3.489798     3.478618
      3.467439     3.456259     3.445080     3.433900     3.422721     3.411541     3.400362     3.389183     3.378003     3.366824
      3.355644     3.344465     3.333285     3.322106     3.310926     3.299747     3.288568     3.277388     3.266209     3.255029
      3.243850     3.232670     3.221491     3.210311     3.199132     3.187953     3.176773     3.165594     3.154414     3.143235
      3.132055     3.120876     3.109696     3.098517     3.087337     3.076158     3.064979     3.053799     3.042620     3.031440
      3.020261     3.009081     2.997902     2.986722     2.975543     2.964364     2.953184     2.942005     2.930825     2.919646
      2.908466     2.897287     2.886107     2.874928     2.863749     2.852569     2.841390     2.830210     2.819031     2.807851
      2.796672     2.785492     2.774313     2.763134     2.751954     2.740775     2.729595     2.718416     2.707236     2.696057
      2.684877     2.673698     2.662519     2.651339     2.640160     2.628980     2.617801     2.606621     2.595442     2.584262
      2.573083     2.561903     2.550724     2.539545     2.528365     2.517186     2.506006     2.494827     2.483647     2.472468
      2.461288     2.450109     2.438930     2.427750     2.416571     2.405391     2.394212     2.383032     2.371853     2.360673
      2.349494     2.338315     2.327135     2.315956     2.304776     2.293597     2.282417     2.271238     2.260058     2.248879
      2.237700     2.226520     2.215341     2.204161     2.192982     2.181802     2.170623     2.159443     2.148264     2.137084
      2.125905     2.114726     2.103546     2.092367     2.081187     2.070008     2.058828     2.047649     2.036469     2.025290
      2.014111     2.002931     1.991752     1.980572     1.969393     1.958213     1.947034     1.935854     1.924675     1.913496
      1.902316     1.891137     1.879957     1.868778     1.857598     1.846419     1.835239     1.824060     1.812881     1.801701
      1.790522     1.779342     1.768163     1.756983     1.745804     1.734624     1.723445     1.712265     1.701086     1.689907
      1.678727     1.667548     1.656368     1.645189     1.634009     1.622830     1.611650     1.600471     1.589292     1.578112
      1.566933     1.555753     1.544574     1.533394     1.522215     1.511035     1.499856     1.488677     1.477497     1.466318
      1.455138     1.443959     1.432779     1.421600     1.410420     1.399241     1.388062     1.376882     1.365703     1.354523
      1.343344     1.332164     1.320985     1.309805     1.298626     1.287446     1.276267     1.265088     1.253908     1.242729
      1.231549     1.220370     1.209190     1.198011     1.186831     1.175652     1.164473     1.153293     1.142114     1.130934
      1.119755     1.108575     1.097396     1.086216     1.075037     1.063858     1.052678     1.041499     1.030319     1.019140
      1.007960     0.996781     0.985601     0.974422     0.963243     0.952063     0.940884     0.929704     0.918525     0.907345
      0.896166     0.884986     0.873807     0.862628     0.851448     0.840269     0.829089     0.817910     0.806730     0.795551
      0.784371     0.773192     0.762012     0.750833     0.739654     0.728474     0.717295     0.706115     0.694936     0.683756
      0.672577     0.661397     0.650218     0.639039     0.627859     0.616680     0.605500     0.594321     0.583141     0.571962
      0.560782     0.549603     0.538424     0.527244     0.516065     0.504885     0.493706     0.482526     0.471347     0.460167
      0.448988     0.437809     0.426629     0.415450     0.404270     0.393091     0.381911     0.370732     0.359552     0.348373
      0.337193     0.326014     0.314835     0.303655     0.292476     0.281296     0.270117     0.258937     0.247758     0.236578
      0.225399     0.214220     0.203040
 NY phased data points follow
   1.42733E-08  1.34728E-08  1.40860E-08  1.22163E-08  1.35556E-08  1.12371E-08  1.23585E-08  1.04907E-08  1.19207E-08  1.06661E-08
   1.23076E-08  1.05442E-08  1.22554E-08  1.08575E-08  1.19926E-08  1.09388E-08  1.23784E-08  1.16328E-08  1.19868E-08  1.05760E-08
   1.16794E-08  1.03082E-08  1.18486E-08  1.05440E-08  1.23654E-08  1.03212E-08  1.23524E-08  1.07475E-08  1.13752E-08  1.08994E-08
   1.27016E-08  1.24997E-08  1.31941E-08  1.34778E-08  1.33867E-08  1.18327E-08  1.27616E-08  1.01600E-08  1.15256E-08  9.84208E-09
   1.11303E-08  8.92301E-09  1.05002E-08  9.55320E-09  9.54986E-09  8.43645E-09  8.26574E-09  7.65517E-09  8.74101E-09  7.55649E-09
   8.31474E-09  7.59431E-09  8.07750E-09  7.21686E-09  8.14980E-09  6.88796E-09  7.11373E-09  5.61275E-09  6.90285E-09  5.53586E-09
   8.44713E-09  8.11242E-09  1.16107E-08  1.07655E-08  1.24457E-08  1.11153E-08  1.15632E-08  9.66889E-09  1.07654E-08  8.63763E-09
   9.48450E-09  7.92839E-09  8.58016E-09  6.27694E-09  6.97163E-09  6.78135E-09  7.65716E-09  8.45911E-09  1.08370E-08  1.19164E-08
   1.37372E-08  1.34307E-08  1.38514E-08  1.25386E-08  1.33483E-08  1.21167E-08  1.27650E-08  1.10808E-08  1.18996E-08  1.13253E-08
   1.16801E-08  1.02876E-08  1.09182E-08  9.42932E-09  9.62946E-09  9.26253E-09  8.95249E-09  8.68874E-09  8.42102E-09  8.27113E-09
   8.63061E-09  7.32113E-09  8.41196E-09  7.38882E-09  7.83360E-09  6.95493E-09  7.45694E-09  5.92175E-09  6.16171E-09  5.59835E-09
   5.39472E-09  5.44820E-09  5.46003E-09  5.52602E-09  5.52635E-09  5.41173E-09  6.88146E-09  5.24159E-09  6.38861E-09  5.86748E-09
   7.03819E-09  5.64137E-09  5.86729E-09  5.46764E-09  4.86542E-09  4.00462E-09  4.63704E-09  4.30067E-09  5.00812E-09  4.12940E-09
   4.57454E-09  4.39434E-09  4.80194E-09  4.30438E-09  4.45922E-09  4.53416E-09  4.20732E-09  4.07313E-09  4.80196E-09  5.50522E-09
   6.15658E-09  5.29056E-09  5.96316E-09  5.53191E-09  6.83035E-09  6.70250E-09  6.83516E-09  6.87715E-09  6.75780E-09  7.15255E-09
   7.00684E-09  6.71653E-09  7.15458E-09  6.47973E-09  6.52708E-09  6.26254E-09  6.62937E-09  6.89012E-09  7.09638E-09  7.15734E-09
   7.39922E-09  6.28418E-09  6.12491E-09  6.38109E-09  6.06145E-09  5.81497E-09  6.74562E-09  7.81705E-09  1.00642E-08  1.28433E-08
   1.47689E-08  1.62796E-08  1.64623E-08  1.56208E-08  1.46647E-08  1.43194E-08  1.42779E-08  1.25326E-08  1.21854E-08  1.17306E-08
   1.12827E-08  9.99639E-09  9.63825E-09  8.51984E-09  7.38891E-09  6.02346E-09  5.12526E-09  3.86444E-09  2.15281E-09  7.46254E-10
  -1.51453E-09 -3.40638E-09 -5.50172E-09 -6.96964E-09 -9.11387E-09 -1.11548E-08 -1.25952E-08 -1.45953E-08 -1.50413E-08 -1.63899E-08
  -1.54416E-08 -1.66177E-08 -1.61556E-08 -1.52731E-08 -1.35613E-08 -1.26431E-08 -1.09720E-08 -9.94033E-09 -8.32669E-09 -6.50368E-09
  -5.69545E-09 -3.69962E-09 -2.86396E-09 -2.88668E-09 -2.75450E-09 -3.16739E-09 -2.11946E-09 -2.69143E-09 -2.98489E-09 -3.20220E-09
  -2.10329E-09 -2.95950E-09 -2.15457E-09 -2.08264E-09 -2.17910E-09 -1.63412E-09 -2.00706E-09 -1.67002E-09 -1.99603E-09 -2.61048E-09
  -2.70168E-09 -2.21997E-09 -2.35224E-09 -1.69518E-09 -1.77463E-09 -1.19896E-09 -1.35498E-09 -1.43105E-09 -1.74265E-09 -1.81251E-09
  -1.90233E-09 -2.24848E-09 -2.35587E-09 -1.48765E-09 -1.92109E-09 -1.74630E-09 -1.66700E-09 -1.12234E-09 -1.37149E-09 -1.43739E-09
  -9.07307E-10 -8.43433E-10 -6.87302E-10 -6.79799E-10 -9.88432E-10 -9.12811E-10 -1.29000E-09 -1.24826E-09 -1.69421E-09 -2.12341E-09
  -1.99008E-09 -1.88047E-09 -2.58434E-09 -1.99493E-09 -2.02910E-09 -2.01301E-09 -1.77103E-09 -1.04597E-09 -1.18167E-09 -8.87290E-10
  -1.13903E-09 -7.05285E-10 -7.60238E-10 -6.16184E-10 -2.52761E-10 -2.41355E-10 -1.81217E-10 -2.45809E-10 -6.46539E-10 -7.03142E-10
  -5.43110E-10 -5.84579E-10 -1.35894E-09 -9.67010E-10 -8.46920E-10 -5.88553E-10 -1.08653E-09 -1.25411E-09 -7.80230E-10 -1.84847E-09
  -1.89295E-09 -8.90115E-10 -1.77320E-09 -1.38389E-09 -1.30262E-09 -2.29011E-09 -2.10535E-09 -1.47668E-09 -1.80866E-09 -1.99114E-09
  -2.34231E-09 -2.23354E-09 -1.56379E-09 -2.18715E-09 -1.80156E-09 -2.14666E-09 -2.22465E-09 -1.89899E-09 -2.05319E-09 -2.03592E-09
  -1.80307E-09 -2.55047E-09 -1.70956E-09 -2.38340E-09 -2.13839E-09 -2.19748E-09 -2.19556E-09 -2.45875E-09 -1.91994E-09 -2.28899E-09
  -1.94581E-09 -2.39498E-09 -2.00970E-09 -2.21476E-09 -1.83224E-09 -1.74611E-09 -2.03614E-09 -2.39765E-09 -1.62696E-09 -2.47167E-09
  -1.88695E-09 -1.63158E-09 -2.22097E-09 -1.61104E-09 -1.60106E-09 -2.15691E-09 -1.57465E-09 -1.91379E-09 -1.69619E-09 -2.01853E-09
  -1.28412E-09 -1.88009E-09 -2.02090E-09 -1.69193E-09 -1.56415E-09 -1.78762E-09 -1.48041E-09 -2.06311E-09 -1.65334E-09 -9.53088E-10
  -1.40755E-09 -1.86501E-09 -1.19247E-09 -1.24815E-09 -1.21383E-09 -1.49739E-09 -1.45747E-09 -1.60523E-09 -5.51131E-10 -1.46498E-09
  -1.25899E-09 -1.24916E-09 -8.25370E-10
 NY points of the fit to the data follow
   1.28540E-08  1.35745E-08  1.33449E-08  1.28670E-08  1.29546E-08  1.30869E-08  1.27304E-08  1.19466E-08  1.11752E-08  1.08389E-08
   1.08117E-08  1.09196E-08  1.11762E-08  1.14567E-08  1.17568E-08  1.18842E-08  1.18869E-08  1.19714E-08  1.19339E-08  1.14794E-08
   1.09953E-08  1.06865E-08  1.04487E-08  1.02598E-08  1.03826E-08  1.08166E-08  1.14418E-08  1.19960E-08  1.22915E-08  1.23483E-08
   1.25136E-08  1.26526E-08  1.27792E-08  1.26799E-08  1.22151E-08  1.15593E-08  1.11321E-08  1.08409E-08  1.06437E-08  1.05109E-08
   1.03764E-08  1.01345E-08  9.70446E-09  9.19592E-09  8.87307E-09  8.63816E-09  8.44119E-09  8.25916E-09  8.08702E-09  7.93716E-09
   7.80507E-09  7.68992E-09  7.58796E-09  7.48612E-09  7.43518E-09  7.52808E-09  7.67671E-09  7.90990E-09  8.30807E-09  8.79380E-09
   9.24238E-09  9.66036E-09  1.00622E-08  1.03913E-08  1.05800E-08  1.05981E-08  1.05011E-08  1.03048E-08  9.86905E-09  9.38461E-09
   9.03322E-09  8.77590E-09  8.54937E-09  8.38374E-09  8.37717E-09  8.52991E-09  8.83454E-09  9.49201E-09  1.04284E-08  1.14188E-08
   1.22921E-08  1.29297E-08  1.32821E-08  1.35074E-08  1.35943E-08  1.33656E-08  1.28378E-08  1.20282E-08  1.10339E-08  1.03228E-08
   9.86808E-09  9.53209E-09  9.26667E-09  9.04408E-09  8.85304E-09  8.68561E-09  8.53606E-09  8.40114E-09  8.27634E-09  8.15933E-09
   8.05169E-09  7.95210E-09  7.85714E-09  7.76565E-09  7.67838E-09  7.59473E-09  7.51399E-09  7.43567E-09  7.35926E-09  7.28440E-09
   7.21089E-09  7.13839E-09  7.06670E-09  6.99561E-09  6.92493E-09  6.85451E-09  6.78420E-09  6.71385E-09  6.64333E-09  6.57257E-09
   6.50138E-09  6.42975E-09  6.35752E-09  6.28465E-09  6.21104E-09  6.13661E-09  6.06126E-09  5.98500E-09  5.90770E-09  5.82932E-09
   5.74980E-09  5.66906E-09  5.58709E-09  5.50381E-09  5.41918E-09  5.33312E-09  5.24567E-09  5.15669E-09  5.06620E-09  4.97412E-09
   4.88045E-09  4.78515E-09  4.68819E-09  4.58950E-09  4.48913E-09  4.38701E-09  4.28317E-09  4.17770E-09  4.07067E-09  3.96223E-09
   3.85247E-09  3.74155E-09  3.62964E-09  3.51697E-09  3.40377E-09  3.29040E-09  3.17733E-09  3.06515E-09  2.95479E-09  2.84759E-09
   2.74565E-09  2.65254E-09  2.57461E-09  2.52454E-09  2.53137E-09  2.67869E-09  3.32340E-09  5.95546E-09  9.60088E-09  1.29807E-08
   1.54541E-08  1.69217E-08  1.75786E-08  1.76991E-08  1.73245E-08  1.60579E-08  1.32355E-08  8.73314E-09  4.04084E-09  2.12685E-09
   1.38709E-09  9.58459E-10  6.53911E-10  4.11853E-10  2.06017E-10  2.33140E-11 -1.43494E-10 -2.98708E-10 -4.45117E-10 -5.84483E-10
  -7.18005E-10 -8.46576E-10 -9.70770E-10 -1.09103E-09 -1.20764E-09 -1.32085E-09 -1.43083E-09 -1.53765E-09 -1.64141E-09 -1.74218E-09
  -1.83998E-09 -1.93481E-09 -2.02666E-09 -2.11555E-09 -2.20145E-09 -2.28431E-09 -2.36412E-09 -2.44086E-09 -2.51448E-09 -2.58491E-09
  -2.65216E-09 -2.71614E-09 -2.77683E-09 -2.83418E-09 -2.88817E-09 -2.93870E-09 -2.98575E-09 -3.02931E-09 -3.06928E-09 -3.10576E-09
  -3.13880E-09 -3.16852E-09 -3.19499E-09 -3.21829E-09 -3.23849E-09 -3.25572E-09 -3.27002E-09 -3.28149E-09 -3.29022E-09 -3.29628E-09
  -3.29977E-09 -3.30077E-09 -3.29935E-09 -3.29561E-09 -3.28962E-09 -3.28147E-09 -3.27124E-09 -3.25901E-09 -3.24486E-09 -3.22888E-09
  -3.21114E-09 -3.19174E-09 -3.17075E-09 -3.14824E-09 -3.12429E-09 -3.09899E-09 -3.07241E-09 -3.04463E-09 -3.01574E-09 -2.98579E-09
  -2.95489E-09 -2.92308E-09 -2.89047E-09 -2.85709E-09 -2.82304E-09 -2.78840E-09 -2.75323E-09 -2.71760E-09 -2.68159E-09 -2.64524E-09
  -2.60865E-09 -2.57188E-09 -2.53499E-09 -2.49805E-09 -2.46111E-09 -2.42425E-09 -2.38753E-09 -2.35099E-09 -2.31472E-09 -2.27876E-09
  -2.24316E-09 -2.20799E-09 -2.17331E-09 -2.13915E-09 -2.10559E-09 -2.07266E-09 -2.04041E-09 -2.00891E-09 -1.97818E-09 -1.94827E-09
  -1.91924E-09 -1.89112E-09 -1.86395E-09 -1.83777E-09 -1.81262E-09 -1.78853E-09 -1.76555E-09 -1.74369E-09 -1.72300E-09 -1.70350E-09
  -1.68521E-09 -1.66815E-09 -1.65226E-09 -1.63749E-09 -1.62381E-09 -1.61117E-09 -1.59953E-09 -1.58883E-09 -1.57905E-09 -1.57013E-09
  -1.56204E-09 -1.55473E-09 -1.54816E-09 -1.54229E-09 -1.53708E-09 -1.53249E-09 -1.52849E-09 -1.52502E-09 -1.52206E-09 -1.51956E-09
  -1.51749E-09 -1.51581E-09 -1.51449E-09 -1.51348E-09 -1.51276E-09 -1.51229E-09 -1.51204E-09 -1.51197E-09 -1.51205E-09 -1.51225E-09
  -1.51255E-09 -1.51289E-09 -1.51326E-09 -1.51364E-09 -1.51398E-09 -1.51427E-09 -1.51448E-09 -1.51457E-09 -1.51454E-09 -1.51433E-09
  -1.51396E-09 -1.51337E-09 -1.51255E-09 -1.51149E-09 -1.51016E-09 -1.50853E-09 -1.50661E-09 -1.50435E-09 -1.50175E-09 -1.49879E-09
  -1.49546E-09 -1.49173E-09 -1.48761E-09 -1.48307E-09 -1.47809E-09 -1.47269E-09 -1.46683E-09 -1.46052E-09 -1.45373E-09 -1.44648E-09
  -1.43875E-09 -1.43053E-09 -1.42183E-09 -1.41263E-09 -1.40293E-09 -1.39274E-09 -1.38206E-09 -1.37087E-09 -1.35919E-09 -1.34701E-09
  -1.33435E-09 -1.32119E-09 -1.30757E-09
 NY background values follow
     3.547E-09    3.612E-09    3.677E-09    3.741E-09    3.803E-09    3.865E-09    3.925E-09    3.985E-09    4.043E-09    4.101E-09
     4.158E-09    4.213E-09    4.268E-09    4.321E-09    4.374E-09    4.425E-09    4.476E-09    4.525E-09    4.574E-09    4.621E-09
     4.668E-09    4.713E-09    4.758E-09    4.801E-09    4.844E-09    4.885E-09    4.926E-09    4.965E-09    5.004E-09    5.042E-09
     5.079E-09    5.114E-09    5.149E-09    5.183E-09    5.216E-09    5.248E-09    5.280E-09    5.310E-09    5.339E-09    5.368E-09
     5.395E-09    5.422E-09    5.448E-09    5.473E-09    5.497E-09    5.520E-09    5.543E-09    5.565E-09    5.586E-09    5.606E-09
     5.625E-09    5.644E-09    5.661E-09    5.678E-09    5.695E-09    5.710E-09    5.725E-09    5.739E-09    5.753E-09    5.766E-09
     5.778E-09    5.789E-09    5.800E-09    5.810E-09    5.820E-09    5.829E-09    5.837E-09    5.845E-09    5.852E-09    5.859E-09
     5.865E-09    5.871E-09    5.876E-09    5.881E-09    5.885E-09    5.889E-09    5.892E-09    5.895E-09    5.897E-09    5.899E-09
     5.900E-09    5.900E-09    5.900E-09    5.899E-09    5.898E-09    5.896E-09    5.893E-09    5.889E-09    5.885E-09    5.880E-09
     5.875E-09    5.868E-09    5.861E-09    5.853E-09    5.844E-09    5.835E-09    5.824E-09    5.812E-09    5.800E-09    5.787E-09
     5.772E-09    5.757E-09    5.741E-09    5.723E-09    5.705E-09    5.685E-09    5.665E-09    5.643E-09    5.620E-09    5.596E-09
     5.570E-09    5.544E-09    5.516E-09    5.487E-09    5.456E-09    5.424E-09    5.391E-09    5.356E-09    5.320E-09    5.282E-09
     5.243E-09    5.203E-09    5.161E-09    5.117E-09    5.071E-09    5.025E-09    4.976E-09    4.926E-09    4.874E-09    4.820E-09
     4.764E-09    4.707E-09    4.648E-09    4.587E-09    4.524E-09    4.459E-09    4.393E-09    4.324E-09    4.254E-09    4.181E-09
     4.106E-09    4.030E-09    3.951E-09    3.870E-09    3.787E-09    3.702E-09    3.615E-09    3.526E-09    3.434E-09    3.341E-09
     3.246E-09    3.149E-09    3.051E-09    2.950E-09    2.849E-09    2.745E-09    2.641E-09    2.535E-09    2.428E-09    2.319E-09
     2.210E-09    2.099E-09    1.988E-09    1.876E-09    1.763E-09    1.649E-09    1.535E-09    1.420E-09    1.305E-09    1.190E-09
     1.074E-09    9.586E-10    8.428E-10    7.269E-10    6.112E-10    4.956E-10    3.803E-10    2.654E-10    1.510E-10    3.700E-11
    -7.632E-11   -1.889E-10   -3.008E-10   -4.118E-10   -5.218E-10   -6.308E-10   -7.386E-10   -8.453E-10   -9.506E-10   -1.055E-09
    -1.157E-09   -1.258E-09   -1.358E-09   -1.455E-09   -1.551E-09   -1.645E-09   -1.737E-09   -1.828E-09   -1.916E-09   -2.002E-09
    -2.085E-09   -2.167E-09   -2.246E-09   -2.322E-09   -2.396E-09   -2.467E-09   -2.536E-09   -2.602E-09   -2.665E-09   -2.726E-09
    -2.783E-09   -2.837E-09   -2.889E-09   -2.937E-09   -2.982E-09   -3.024E-09   -3.062E-09   -3.097E-09   -3.129E-09   -3.158E-09
    -3.183E-09   -3.205E-09   -3.224E-09   -3.239E-09   -3.252E-09   -3.262E-09   -3.269E-09   -3.274E-09   -3.275E-09   -3.275E-09
    -3.271E-09   -3.266E-09   -3.258E-09   -3.248E-09   -3.235E-09   -3.221E-09   -3.204E-09   -3.186E-09   -3.166E-09   -3.144E-09
    -3.120E-09   -3.095E-09   -3.068E-09   -3.040E-09   -3.010E-09   -2.979E-09   -2.947E-09   -2.914E-09   -2.880E-09   -2.844E-09
    -2.808E-09   -2.771E-09   -2.733E-09   -2.695E-09   -2.656E-09   -2.616E-09   -2.576E-09   -2.535E-09   -2.494E-09   -2.453E-09
    -2.412E-09   -2.370E-09   -2.329E-09   -2.287E-09   -2.246E-09   -2.204E-09   -2.163E-09   -2.122E-09   -2.082E-09   -2.041E-09
    -2.001E-09   -1.962E-09   -1.923E-09   -1.885E-09   -1.847E-09   -1.810E-09   -1.773E-09   -1.738E-09   -1.703E-09   -1.669E-09
    -1.636E-09   -1.604E-09   -1.573E-09   -1.543E-09   -1.514E-09   -1.486E-09   -1.460E-09   -1.434E-09   -1.410E-09   -1.387E-09
    -1.365E-09   -1.344E-09   -1.325E-09   -1.307E-09   -1.289E-09   -1.273E-09   -1.258E-09   -1.244E-09   -1.231E-09   -1.219E-09
    -1.208E-09   -1.197E-09   -1.187E-09   -1.178E-09   -1.170E-09   -1.162E-09   -1.155E-09   -1.148E-09   -1.142E-09   -1.137E-09
    -1.132E-09   -1.127E-09   -1.123E-09   -1.119E-09   -1.115E-09   -1.112E-09   -1.109E-09   -1.106E-09   -1.103E-09   -1.101E-09
    -1.098E-09   -1.096E-09   -1.094E-09   -1.091E-09   -1.089E-09   -1.087E-09   -1.084E-09   -1.082E-09   -1.079E-09   -1.077E-09
    -1.074E-09   -1.071E-09   -1.068E-09   -1.064E-09   -1.060E-09   -1.056E-09   -1.052E-09   -1.048E-09   -1.043E-09   -1.037E-09
    -1.032E-09   -1.026E-09   -1.020E-09   -1.013E-09   -1.006E-09   -9.982E-10   -9.902E-10   -9.818E-10   -9.729E-10   -9.636E-10
    -9.539E-10   -9.436E-10   -9.330E-10   -9.218E-10   -9.101E-10   -8.980E-10   -8.854E-10   -8.724E-10   -8.588E-10   -8.448E-10
    -8.303E-10   -8.154E-10   -8.000E-10
 Glc      Conc. = 3.58E-10
   3.24025E-09  3.43418E-09  3.62520E-09  3.82154E-09  4.00098E-09  4.15923E-09  4.27303E-09  4.35383E-09  4.38105E-09  4.35713E-09
   4.33782E-09  4.32845E-09  4.32826E-09  4.36099E-09  4.45859E-09  4.61856E-09  4.82535E-09  5.06167E-09  5.28668E-09  5.48558E-09
   5.67342E-09  5.84104E-09  5.96885E-09  6.04774E-09  6.04342E-09  5.96381E-09  5.89352E-09  5.86111E-09  5.86043E-09  5.87581E-09
   5.88456E-09  5.88781E-09  5.89645E-09  5.89670E-09  5.88255E-09  5.87436E-09  5.87076E-09  5.86069E-09  5.84985E-09  5.84498E-09
   5.84456E-09  5.84694E-09  5.85140E-09  5.85729E-09  5.86423E-09  5.87193E-09  5.88016E-09  5.88872E-09  5.89748E-09  5.90634E-09
   5.91517E-09  5.92394E-09  5.93255E-09  5.94096E-09  5.94916E-09  5.95706E-09  5.96466E-09  5.97197E-09  5.97887E-09  5.98545E-09
   5.99167E-09  5.99748E-09  6.00292E-09  6.00795E-09  6.01262E-09  6.01687E-09  6.02074E-09  6.02419E-09  6.02726E-09  6.02995E-09
   6.03225E-09  6.03416E-09  6.03573E-09  6.03691E-09  6.03774E-09  6.03818E-09  6.03820E-09  6.03781E-09  6.03696E-09  6.03566E-09
   6.03386E-09  6.03157E-09  6.02875E-09  6.02537E-09  6.02145E-09  6.01693E-09  6.01180E-09  6.00605E-09  5.99965E-09  5.99257E-09
   5.98479E-09  5.97631E-09  5.96706E-09  5.95709E-09  5.94630E-09  5.93469E-09  5.92227E-09  5.90898E-09  5.89480E-09  5.87972E-09
   5.86370E-09  5.84672E-09  5.82875E-09  5.80979E-09  5.78977E-09  5.76869E-09  5.74652E-09  5.72326E-09  5.69884E-09  5.67323E-09
   5.64646E-09  5.61844E-09  5.58917E-09  5.55862E-09  5.52676E-09  5.49357E-09  5.45903E-09  5.42310E-09  5.38574E-09  5.34697E-09
   5.30668E-09  5.26492E-09  5.22162E-09  5.17677E-09  5.13034E-09  5.08229E-09  5.03258E-09  4.98124E-09  4.92819E-09  4.87341E-09
   4.81690E-09  4.75858E-09  4.69849E-09  4.63656E-09  4.57278E-09  4.50707E-09  4.43952E-09  4.36999E-09  4.29852E-09  4.22503E-09
   4.14955E-09  4.07203E-09  3.99245E-09  3.91076E-09  3.82698E-09  3.74106E-09  3.65301E-09  3.56289E-09  3.47077E-09  3.37674E-09
   3.28086E-09  3.18321E-09  3.08388E-09  2.98294E-09  2.88048E-09  2.77658E-09  2.67135E-09  2.56487E-09  2.45728E-09  2.34871E-09
   2.23930E-09  2.12932E-09  2.01913E-09  1.90943E-09  1.80179E-09  1.70087E-09  1.62866E-09  1.65481E-09  1.71307E-09  1.75026E-09
   1.74317E-09  1.69132E-09  1.60536E-09  1.49740E-09  1.36638E-09  1.19060E-09  9.39814E-10  6.16802E-10  3.05192E-10  1.32996E-10
  -3.79426E-12 -1.29241E-10 -2.49310E-10 -3.66062E-10 -4.80421E-10 -5.92821E-10 -7.03463E-10 -8.12420E-10 -9.19786E-10 -1.02553E-09
  -1.12959E-09 -1.23200E-09 -1.33265E-09 -1.43152E-09 -1.52850E-09 -1.62357E-09 -1.71667E-09 -1.80768E-09 -1.89655E-09 -1.98324E-09
  -2.06765E-09 -2.14972E-09 -2.22937E-09 -2.30655E-09 -2.38119E-09 -2.45318E-09 -2.52251E-09 -2.58908E-09 -2.65285E-09 -2.71370E-09
  -2.77164E-09 -2.82656E-09 -2.87840E-09 -2.92712E-09 -2.97267E-09 -3.01494E-09 -3.05392E-09 -3.08956E-09 -3.12177E-09 -3.15064E-09
  -3.17621E-09 -3.19860E-09 -3.21785E-09 -3.23406E-09 -3.24729E-09 -3.25765E-09 -3.26520E-09 -3.27002E-09 -3.27220E-09 -3.27181E-09
  -3.26894E-09 -3.26365E-09 -3.25605E-09 -3.24620E-09 -3.23419E-09 -3.22009E-09 -3.20399E-09 -3.18597E-09 -3.16610E-09 -3.14447E-09
  -3.12115E-09 -3.09623E-09 -3.06978E-09 -3.04188E-09 -3.01261E-09 -2.98204E-09 -2.95026E-09 -2.91733E-09 -2.88335E-09 -2.84837E-09
  -2.81248E-09 -2.77574E-09 -2.73826E-09 -2.70006E-09 -2.66124E-09 -2.62188E-09 -2.58204E-09 -2.54178E-09 -2.50118E-09 -2.46031E-09
  -2.41923E-09 -2.37802E-09 -2.33673E-09 -2.29543E-09 -2.25418E-09 -2.21305E-09 -2.17211E-09 -2.13138E-09 -2.09096E-09 -2.05089E-09
  -2.01123E-09 -1.97203E-09 -1.93336E-09 -1.89525E-09 -1.85777E-09 -1.82096E-09 -1.78488E-09 -1.74957E-09 -1.71506E-09 -1.68142E-09
  -1.64869E-09 -1.61690E-09 -1.58610E-09 -1.55632E-09 -1.52760E-09 -1.49998E-09 -1.47350E-09 -1.44817E-09 -1.42404E-09 -1.40114E-09
  -1.37947E-09 -1.35906E-09 -1.33986E-09 -1.32181E-09 -1.30487E-09 -1.28901E-09 -1.27417E-09 -1.26031E-09 -1.24739E-09 -1.23536E-09
  -1.22419E-09 -1.21383E-09 -1.20423E-09 -1.19537E-09 -1.18719E-09 -1.17965E-09 -1.17273E-09 -1.16638E-09 -1.16055E-09 -1.15521E-09
  -1.15033E-09 -1.14587E-09 -1.14179E-09 -1.13805E-09 -1.13462E-09 -1.13146E-09 -1.12855E-09 -1.12585E-09 -1.12332E-09 -1.12093E-09
  -1.11866E-09 -1.11647E-09 -1.11433E-09 -1.11221E-09 -1.11009E-09 -1.10793E-09 -1.10572E-09 -1.10342E-09 -1.10101E-09 -1.09845E-09
  -1.09574E-09 -1.09285E-09 -1.08975E-09 -1.08642E-09 -1.08285E-09 -1.07901E-09 -1.07488E-09 -1.07045E-09 -1.06570E-09 -1.06060E-09
  -1.05516E-09 -1.04935E-09 -1.04316E-09 -1.03657E-09 -1.02956E-09 -1.02216E-09 -1.01431E-09 -1.00604E-09 -9.97310E-10 -9.88135E-10
  -9.78502E-10 -9.68400E-10 -9.57832E-10 -9.46789E-10 -9.35273E-10 -9.23277E-10 -9.10809E-10 -8.97858E-10 -8.84432E-10 -8.70534E-10
  -8.56162E-10 -8.41325E-10 -8.26029E-10
 Gln      Conc. = 1.36E-09
   2.52089E-09  2.74902E-09  3.05913E-09  3.43968E-09  3.85509E-09  4.26385E-09  4.62610E-09  4.90918E-09  5.11044E-09  5.28241E-09
   5.30730E-09  5.22083E-09  5.16662E-09  5.03038E-09  4.93025E-09  4.86852E-09  4.83080E-09  4.80864E-09  4.79708E-09  4.79298E-09
   4.79425E-09  4.79941E-09  4.80738E-09  4.81745E-09  4.82915E-09  4.84212E-09  4.85573E-09  4.86977E-09  4.88406E-09  4.89819E-09
   4.91200E-09  4.92529E-09  4.93791E-09  4.94975E-09  4.96065E-09  4.97053E-09  4.97920E-09  4.98657E-09  4.99249E-09  4.99678E-09
   4.99934E-09  4.99999E-09  4.99865E-09  4.99513E-09  4.98919E-09  4.98059E-09  4.96907E-09  4.95386E-09  4.93491E-09  4.91252E-09
   4.88563E-09  4.85451E-09  4.82166E-09  4.79736E-09  4.84075E-09  5.02875E-09  5.25704E-09  5.54439E-09  5.98002E-09  6.49782E-09
   6.99627E-09  7.47861E-09  7.89729E-09  8.18518E-09  8.28804E-09  8.20624E-09  8.04068E-09  7.83741E-09  7.43027E-09  7.01025E-09
   6.72731E-09  6.54186E-09  6.44322E-09  6.45332E-09  6.58690E-09  6.86854E-09  7.20154E-09  7.56368E-09  7.93553E-09  8.28000E-09
   8.56311E-09  8.73202E-09  8.73331E-09  8.68235E-09  8.57399E-09  8.30417E-09  8.03666E-09  7.83129E-09  7.58448E-09  7.37403E-09
   7.21359E-09  7.08567E-09  6.98023E-09  6.89038E-09  6.81112E-09  6.74035E-09  6.67636E-09  6.61749E-09  6.56285E-09  6.51165E-09
   6.46300E-09  6.41626E-09  6.37105E-09  6.32709E-09  6.28411E-09  6.24184E-09  6.20001E-09  6.15844E-09  6.11693E-09  6.07532E-09
   6.03355E-09  5.99142E-09  5.94885E-09  5.90574E-09  5.86201E-09  5.81758E-09  5.77236E-09  5.72628E-09  5.67925E-09  5.63128E-09
   5.58220E-09  5.53205E-09  5.48071E-09  5.42817E-09  5.37436E-09  5.31923E-09  5.26272E-09  5.20484E-09  5.14550E-09  5.08467E-09
   5.02231E-09  4.95836E-09  4.89283E-09  4.82565E-09  4.75678E-09  4.68617E-09  4.61386E-09  4.53974E-09  4.46381E-09  4.38601E-09
   4.30635E-09  4.22477E-09  4.14127E-09  4.05578E-09  3.96831E-09  3.87882E-09  3.78732E-09  3.69387E-09  3.59854E-09  3.50141E-09
   3.40256E-09  3.30209E-09  3.20007E-09  3.09661E-09  2.99182E-09  2.88582E-09  2.77875E-09  2.67079E-09  2.56216E-09  2.45316E-09
   2.34421E-09  2.23601E-09  2.12972E-09  2.02761E-09  1.93475E-09  1.86560E-09  1.88102E-09  2.26197E-09  2.79985E-09  3.27837E-09
   3.59463E-09  3.73743E-09  3.74343E-09  3.66123E-09  3.49594E-09  3.17475E-09  2.57935E-09  1.69169E-09  7.83246E-10  3.98053E-10
   1.86330E-10  2.28864E-11 -1.20427E-10 -2.53061E-10 -3.79097E-10 -5.00545E-10 -6.18483E-10 -7.33508E-10 -8.46050E-10 -9.56296E-10
  -1.06435E-09 -1.17033E-09 -1.27424E-09 -1.37610E-09 -1.47585E-09 -1.57349E-09 -1.66901E-09 -1.76230E-09 -1.85333E-09 -1.94208E-09
  -2.02847E-09 -2.11243E-09 -2.19390E-09 -2.27282E-09 -2.34915E-09 -2.42279E-09 -2.49369E-09 -2.56181E-09 -2.62708E-09 -2.68939E-09
  -2.74876E-09 -2.80507E-09 -2.85827E-09 -2.90831E-09 -2.95516E-09 -2.99871E-09 -3.03894E-09 -3.07580E-09 -3.10922E-09 -3.13926E-09
  -3.16600E-09 -3.18952E-09 -3.20989E-09 -3.22720E-09 -3.24152E-09 -3.25294E-09 -3.26154E-09 -3.26740E-09 -3.27059E-09 -3.27120E-09
