 LCModel (Version 6.3-1R) Copyright: S.W. Provencher.          Ref.: Magn. Reson. Med. 30:672-679 (1993).                
 onepulse 14x15_ftSpec_smooth_lcm
 26 lines in following concentration table = NCONC+1
    Conc.  %SD /Cr+PCr  Metabolite                                         
    0.000 999%   0.000 Ala                                                 
    0.000 999%   0.000 Asp                                                 
 2.82E-10  84%   1.000 Cr                                                  
    0.000 999%   0.000 GABA                                                
 3.62E-10 196%   1.285 Glc                                                 
 9.55E-10  87%   3.392 Gln                                                 
 6.79E-10 103%   2.413 Glu                                                 
    0.000 999%   0.000 Glyc                                                
 1.86E-10  47%   0.661 GPC                                                 
    0.000 999%   0.000 GSH                                                 
 1.17E-09  38%   4.151 Ins                                                 
    0.000 999%   0.000 Lac                                                 
    0.000 999%   0.000 NAAG                                                
 5.83E-10  49%   2.072 NAA                                                 
    0.000 999%   0.000 PCh                                                 
    0.000 999%   0.000 PCr                                                 
    0.000 999%   0.000 PE                                                  
 2.09E-10  79%   0.742 Scyllo                                              
 3.91E-09  20%  13.873 Ser                                                 
    0.000 999%   0.000 Tau                                                 
 1.86E-10  47%   0.661 GPC+PCh                                             
 5.83E-10  49%   2.072 NAA+NAAG                                            
 1.17E-09  38%   4.151 Ins+Glyc                                            
 2.82E-10  84%   1.000 Cr+PCr                                              
 1.63E-09  35%   5.804 Glu+Gln                                             
   6 lines in following misc. output table
  FWHM = 0.089 ppm    S/N =   3                                            
  Data shift = 0.347 ppm                                                   
  Ph: -40 deg     -36.5 deg/ppm                                            
  alphaB,S = 2.0E-01,   2.3E+01                                            
   15 spline knots.   Ns = 5(1)                                            
  ( 9) 5 infls.   ( 9) 3 extrs.                                            
  363 points on ppm-axis = NY
      4.250000     4.238821     4.227641     4.216462     4.205282     4.194103     4.182923     4.171744     4.160564     4.149385
      4.138206     4.127026     4.115847     4.104667     4.093488     4.082308     4.071129     4.059949     4.048770     4.037591
      4.026411     4.015232     4.004052     3.992873     3.981693     3.970514     3.959334     3.948155     3.936975     3.925796
      3.914617     3.903437     3.892258     3.881078     3.869899     3.858719     3.847540     3.836360     3.825181     3.814002
      3.802822     3.791643     3.780463     3.769284     3.758104     3.746925     3.735745     3.724566     3.713387     3.702207
      3.691028     3.679848     3.668669     3.657489     3.646310     3.635130     3.623951     3.612772     3.601592     3.590413
      3.579233     3.568054     3.556874     3.545695     3.534515     3.523336     3.512156     3.500977     3.489798     3.478618
      3.467439     3.456259     3.445080     3.433900     3.422721     3.411541     3.400362     3.389183     3.378003     3.366824
      3.355644     3.344465     3.333285     3.322106     3.310926     3.299747     3.288568     3.277388     3.266209     3.255029
      3.243850     3.232670     3.221491     3.210311     3.199132     3.187953     3.176773     3.165594     3.154414     3.143235
      3.132055     3.120876     3.109696     3.098517     3.087337     3.076158     3.064979     3.053799     3.042620     3.031440
      3.020261     3.009081     2.997902     2.986722     2.975543     2.964364     2.953184     2.942005     2.930825     2.919646
      2.908466     2.897287     2.886107     2.874928     2.863749     2.852569     2.841390     2.830210     2.819031     2.807851
      2.796672     2.785492     2.774313     2.763134     2.751954     2.740775     2.729595     2.718416     2.707236     2.696057
      2.684877     2.673698     2.662519     2.651339     2.640160     2.628980     2.617801     2.606621     2.595442     2.584262
      2.573083     2.561903     2.550724     2.539545     2.528365     2.517186     2.506006     2.494827     2.483647     2.472468
      2.461288     2.450109     2.438930     2.427750     2.416571     2.405391     2.394212     2.383032     2.371853     2.360673
      2.349494     2.338315     2.327135     2.315956     2.304776     2.293597     2.282417     2.271238     2.260058     2.248879
      2.237700     2.226520     2.215341     2.204161     2.192982     2.181802     2.170623     2.159443     2.148264     2.137084
      2.125905     2.114726     2.103546     2.092367     2.081187     2.070008     2.058828     2.047649     2.036469     2.025290
      2.014111     2.002931     1.991752     1.980572     1.969393     1.958213     1.947034     1.935854     1.924675     1.913496
      1.902316     1.891137     1.879957     1.868778     1.857598     1.846419     1.835239     1.824060     1.812881     1.801701
      1.790522     1.779342     1.768163     1.756983     1.745804     1.734624     1.723445     1.712265     1.701086     1.689907
      1.678727     1.667548     1.656368     1.645189     1.634009     1.622830     1.611650     1.600471     1.589292     1.578112
      1.566933     1.555753     1.544574     1.533394     1.522215     1.511035     1.499856     1.488677     1.477497     1.466318
      1.455138     1.443959     1.432779     1.421600     1.410420     1.399241     1.388062     1.376882     1.365703     1.354523
      1.343344     1.332164     1.320985     1.309805     1.298626     1.287446     1.276267     1.265088     1.253908     1.242729
      1.231549     1.220370     1.209190     1.198011     1.186831     1.175652     1.164473     1.153293     1.142114     1.130934
      1.119755     1.108575     1.097396     1.086216     1.075037     1.063858     1.052678     1.041499     1.030319     1.019140
      1.007960     0.996781     0.985601     0.974422     0.963243     0.952063     0.940884     0.929704     0.918525     0.907345
      0.896166     0.884986     0.873807     0.862628     0.851448     0.840269     0.829089     0.817910     0.806730     0.795551
      0.784371     0.773192     0.762012     0.750833     0.739654     0.728474     0.717295     0.706115     0.694936     0.683756
      0.672577     0.661397     0.650218     0.639039     0.627859     0.616680     0.605500     0.594321     0.583141     0.571962
      0.560782     0.549603     0.538424     0.527244     0.516065     0.504885     0.493706     0.482526     0.471347     0.460167
      0.448988     0.437809     0.426629     0.415450     0.404270     0.393091     0.381911     0.370732     0.359552     0.348373
      0.337193     0.326014     0.314835     0.303655     0.292476     0.281296     0.270117     0.258937     0.247758     0.236578
      0.225399     0.214220     0.203040
 NY phased data points follow
   1.31449E-08  1.55004E-08  1.67644E-08  1.75157E-08  1.56490E-08  1.58212E-08  1.42134E-08  1.47036E-08  1.29790E-08  1.34262E-08
   1.28656E-08  1.31685E-08  1.29708E-08  1.36488E-08  1.36160E-08  1.39875E-08  1.39088E-08  1.43530E-08  1.34636E-08  1.39456E-08
   1.34013E-08  1.32775E-08  1.27750E-08  1.28529E-08  1.27565E-08  1.40981E-08  1.42568E-08  1.34853E-08  1.32514E-08  1.27308E-08
   1.24336E-08  1.32122E-08  1.45407E-08  1.51682E-08  1.56086E-08  1.59348E-08  1.54803E-08  1.40758E-08  1.39899E-08  1.25833E-08
   1.28838E-08  1.18950E-08  1.25099E-08  1.14953E-08  1.12868E-08  1.13401E-08  1.09942E-08  1.00101E-08  1.01229E-08  9.12701E-09
   9.94723E-09  9.65007E-09  9.53733E-09  9.08228E-09  9.41750E-09  8.31858E-09  8.40439E-09  7.72574E-09  7.43357E-09  6.76964E-09
   7.31143E-09  7.05287E-09  9.09099E-09  1.01893E-08  1.40869E-08  1.44526E-08  1.45052E-08  1.34551E-08  1.30298E-08  1.21775E-08
   1.18674E-08  1.00457E-08  1.02661E-08  9.62367E-09  9.37150E-09  7.71360E-09  7.15006E-09  6.16808E-09  7.37602E-09  8.77769E-09
   1.26382E-08  1.43289E-08  1.65982E-08  1.55747E-08  1.54701E-08  1.42794E-08  1.47261E-08  1.35580E-08  1.40712E-08  1.27405E-08
   1.29960E-08  1.20943E-08  1.25252E-08  1.17892E-08  1.15834E-08  1.02100E-08  1.06790E-08  9.88224E-09  9.73187E-09  8.62186E-09
   8.75855E-09  7.93579E-09  8.40869E-09  7.90178E-09  8.16355E-09  7.91580E-09  8.13075E-09  7.56916E-09  7.71749E-09  6.10960E-09
   6.00858E-09  5.63095E-09  5.42165E-09  5.19658E-09  6.55854E-09  5.82574E-09  6.43993E-09  6.20893E-09  6.72293E-09  6.03023E-09
   7.25485E-09  6.97387E-09  7.27908E-09  6.02824E-09  6.17477E-09  5.08478E-09  4.96810E-09  4.01084E-09  4.75385E-09  4.74285E-09
   4.93400E-09  4.58044E-09  5.01866E-09  5.04425E-09  5.21842E-09  5.26524E-09  5.34291E-09  4.77249E-09  4.90631E-09  4.75907E-09
   6.04689E-09  6.71412E-09  7.53334E-09  6.70644E-09  7.38453E-09  6.72705E-09  7.82144E-09  7.81898E-09  8.43391E-09  7.75161E-09
   8.01330E-09  7.37189E-09  7.61846E-09  7.32322E-09  7.66716E-09  7.45811E-09  6.89504E-09  6.69526E-09  7.10062E-09  6.64113E-09
   7.57262E-09  6.94604E-09  7.02589E-09  6.15626E-09  6.63858E-09  5.81848E-09  4.70483E-09  5.01178E-09  5.87385E-09  6.18867E-09
   8.18273E-09  1.24417E-08  1.68580E-08  1.72233E-08  1.69980E-08  1.47679E-08  1.40610E-08  1.26190E-08  1.19623E-08  9.95398E-09
   9.23565E-09  7.74239E-09  6.91236E-09  5.80547E-09  4.08722E-09  1.84058E-09  7.94918E-10 -1.67400E-09 -3.13797E-09 -5.90416E-09
  -7.80026E-09 -1.02351E-08 -1.15815E-08 -1.37605E-08 -1.55314E-08 -1.69276E-08 -1.73536E-08 -1.86763E-08 -1.85949E-08 -1.90955E-08
  -1.83467E-08 -1.69204E-08 -1.51485E-08 -1.42920E-08 -1.23166E-08 -1.07711E-08 -8.64138E-09 -7.85927E-09 -5.45541E-09 -5.08327E-09
  -4.25337E-09 -3.54128E-09 -2.63520E-09 -3.56171E-09 -3.01969E-09 -3.16112E-09 -3.87034E-09 -3.97851E-09 -2.91216E-09 -3.72297E-09
  -3.35112E-09 -3.18187E-09 -2.14608E-09 -2.72624E-09 -2.26973E-09 -2.33220E-09 -2.29210E-09 -2.92120E-09 -2.98996E-09 -3.48373E-09
  -2.22720E-09 -2.68190E-09 -2.42020E-09 -2.44320E-09 -2.06926E-09 -1.88197E-09 -1.75377E-09 -2.50294E-09 -1.70723E-09 -2.78966E-09
  -2.50916E-09 -2.96533E-09 -2.16810E-09 -2.48151E-09 -2.60075E-09 -2.60930E-09 -1.20237E-09 -1.94084E-09 -1.08678E-09 -1.60817E-09
  -1.75033E-09 -1.36713E-09 -1.26226E-09 -1.93529E-09 -5.37340E-10 -1.66181E-09 -1.41009E-09 -2.32321E-09 -1.69346E-09 -2.21620E-09
  -2.08448E-09 -3.09320E-09 -2.54384E-09 -2.87814E-09 -2.57048E-09 -2.81094E-09 -2.08861E-09 -2.55565E-09 -1.56052E-09 -2.08986E-09
  -7.22878E-10 -1.20359E-09 -4.07874E-10 -7.99272E-10 -6.10138E-10 -5.07399E-10  1.35368E-10 -1.85626E-10 -1.39793E-10 -1.03377E-09
  -2.88321E-10 -1.25040E-09 -5.25329E-10 -1.60406E-09 -5.79683E-10 -1.65889E-09 -1.08772E-09 -1.64198E-09 -1.56067E-09 -2.06376E-09
  -1.65792E-09 -2.24834E-09 -2.06618E-09 -2.31128E-09 -1.41653E-09 -2.22408E-09 -1.76999E-09 -3.08718E-09 -1.84955E-09 -2.84452E-09
  -1.73943E-09 -2.97970E-09 -2.42902E-09 -2.95715E-09 -2.08168E-09 -2.80289E-09 -2.39241E-09 -3.13985E-09 -2.26645E-09 -2.89883E-09
  -2.30476E-09 -2.94899E-09 -1.97069E-09 -3.07311E-09 -2.65676E-09 -3.04156E-09 -1.84518E-09 -3.00799E-09 -2.52701E-09 -2.49739E-09
  -2.15498E-09 -3.07955E-09 -2.26997E-09 -2.37945E-09 -2.46000E-09 -2.83863E-09 -1.64167E-09 -2.37192E-09 -1.82189E-09 -2.77053E-09
  -1.86217E-09 -2.23053E-09 -2.20658E-09 -2.00620E-09 -1.55488E-09 -2.66356E-09 -1.95812E-09 -2.34542E-09 -1.96493E-09 -2.04920E-09
  -1.30410E-09 -2.30131E-09 -1.97189E-09 -1.93632E-09 -1.63730E-09 -1.80900E-09 -1.03985E-09 -1.47833E-09 -1.34639E-09 -1.55311E-09
  -6.85957E-10 -1.90146E-09 -1.15943E-09 -1.81477E-09 -7.21620E-10 -1.47854E-09 -8.12098E-10 -1.14704E-09 -8.69109E-10 -1.39707E-09
  -6.76109E-11 -1.67037E-09 -1.88180E-10
 NY points of the fit to the data follow
   1.35470E-08  1.56226E-08  1.63649E-08  1.52552E-08  1.51298E-08  1.57371E-08  1.58843E-08  1.50958E-08  1.39737E-08  1.34272E-08
   1.30658E-08  1.26783E-08  1.27002E-08  1.30613E-08  1.37830E-08  1.41447E-08  1.38965E-08  1.40024E-08  1.43959E-08  1.39864E-08
   1.30453E-08  1.24468E-08  1.23690E-08  1.23910E-08  1.24199E-08  1.24717E-08  1.28077E-08  1.34903E-08  1.39964E-08  1.38850E-08
   1.41174E-08  1.44438E-08  1.48315E-08  1.50058E-08  1.45927E-08  1.35274E-08  1.30546E-08  1.28642E-08  1.27462E-08  1.26590E-08
   1.26291E-08  1.25859E-08  1.22111E-08  1.13858E-08  1.08950E-08  1.05676E-08  1.03237E-08  1.01303E-08  9.96807E-09  9.82560E-09
   9.68626E-09  9.55600E-09  9.44637E-09  9.32941E-09  9.20588E-09  9.16605E-09  9.16162E-09  9.23886E-09  9.44379E-09  9.71196E-09
   9.95654E-09  1.02630E-08  1.06857E-08  1.11278E-08  1.15378E-08  1.18402E-08  1.20276E-08  1.22304E-08  1.21698E-08  1.16755E-08
   1.12941E-08  1.11089E-08  1.07059E-08  1.01098E-08  9.78820E-09  9.62558E-09  9.52816E-09  9.83260E-09  1.03941E-08  1.10965E-08
   1.20251E-08  1.31838E-08  1.42230E-08  1.49514E-08  1.54116E-08  1.55712E-08  1.54456E-08  1.48762E-08  1.32361E-08  1.20010E-08
   1.13063E-08  1.08215E-08  1.04609E-08  1.01599E-08  9.91196E-09  9.70199E-09  9.51053E-09  9.33919E-09  9.18416E-09  9.04177E-09
   8.90936E-09  8.78495E-09  8.66726E-09  8.55529E-09  8.44807E-09  8.34494E-09  8.24518E-09  8.14834E-09  8.05396E-09  7.96174E-09
   7.87137E-09  7.78257E-09  7.69514E-09  7.60889E-09  7.52362E-09  7.43924E-09  7.35556E-09  7.27250E-09  7.18994E-09  7.10779E-09
   7.02596E-09  6.94438E-09  6.86295E-09  6.78147E-09  6.69979E-09  6.61772E-09  6.53511E-09  6.45177E-09  6.36754E-09  6.28228E-09
   6.19582E-09  6.10801E-09  6.01868E-09  5.92769E-09  5.83490E-09  5.74016E-09  5.64331E-09  5.54423E-09  5.44275E-09  5.33875E-09
   5.23211E-09  5.12267E-09  5.01034E-09  4.89496E-09  4.77642E-09  4.65464E-09  4.52950E-09  4.40089E-09  4.26873E-09  4.13300E-09
   3.99359E-09  3.85050E-09  3.70383E-09  3.55396E-09  3.40137E-09  3.24661E-09  3.09033E-09  2.93336E-09  2.77674E-09  2.62191E-09
   2.47091E-09  2.32681E-09  2.19461E-09  2.08334E-09  2.01166E-09  2.02763E-09  2.31343E-09  3.58413E-09  5.44535E-09  7.53425E-09
   1.02951E-08  1.36588E-08  1.65941E-08  1.80847E-08  1.82061E-08  1.75972E-08  1.60527E-08  1.19394E-08  5.05754E-09  1.00962E-09
  -2.19901E-10 -8.28946E-10 -1.22961E-09 -1.53626E-09 -1.79210E-09 -2.01682E-09 -2.22056E-09 -2.40898E-09 -2.58549E-09 -2.75218E-09
  -2.91042E-09 -3.06110E-09 -3.20482E-09 -3.34197E-09 -3.47280E-09 -3.59751E-09 -3.71618E-09 -3.82885E-09 -3.93558E-09 -4.03631E-09
  -4.13105E-09 -4.21973E-09 -4.30232E-09 -4.37874E-09 -4.44895E-09 -4.51285E-09 -4.57038E-09 -4.62145E-09 -4.66600E-09 -4.70395E-09
  -4.73522E-09 -4.75974E-09 -4.77746E-09 -4.78858E-09 -4.79339E-09 -4.79218E-09 -4.78524E-09 -4.77286E-09 -4.75531E-09 -4.73288E-09
  -4.70586E-09 -4.67453E-09 -4.63916E-09 -4.60002E-09 -4.55741E-09 -4.51159E-09 -4.46283E-09 -4.41140E-09 -4.35757E-09 -4.30161E-09
  -4.24377E-09 -4.18433E-09 -4.12353E-09 -4.06163E-09 -3.99889E-09 -3.93556E-09 -3.87187E-09 -3.80809E-09 -3.74443E-09 -3.68114E-09
  -3.61847E-09 -3.55661E-09 -3.49582E-09 -3.43617E-09 -3.37768E-09 -3.32034E-09 -3.26420E-09 -3.20924E-09 -3.15548E-09 -3.10293E-09
  -3.05161E-09 -3.00150E-09 -2.95264E-09 -2.90501E-09 -2.85863E-09 -2.81350E-09 -2.76965E-09 -2.72704E-09 -2.68571E-09 -2.64565E-09
  -2.60685E-09 -2.56933E-09 -2.53310E-09 -2.49814E-09 -2.46445E-09 -2.43203E-09 -2.40088E-09 -2.37102E-09 -2.34240E-09 -2.31507E-09
  -2.28900E-09 -2.26417E-09 -2.24058E-09 -2.21823E-09 -2.19705E-09 -2.17701E-09 -2.15805E-09 -2.14015E-09 -2.12325E-09 -2.10730E-09
  -2.09227E-09 -2.07812E-09 -2.06480E-09 -2.05228E-09 -2.04050E-09 -2.02943E-09 -2.01903E-09 -2.00927E-09 -2.00009E-09 -1.99146E-09
  -1.98335E-09 -1.97572E-09 -1.96853E-09 -1.96173E-09 -1.95531E-09 -1.94921E-09 -1.94341E-09 -1.93788E-09 -1.93257E-09 -1.92747E-09
  -1.92252E-09 -1.91771E-09 -1.91300E-09 -1.90837E-09 -1.90379E-09 -1.89924E-09 -1.89470E-09 -1.89014E-09 -1.88555E-09 -1.88092E-09
  -1.87620E-09 -1.87140E-09 -1.86648E-09 -1.86144E-09 -1.85625E-09 -1.85090E-09 -1.84537E-09 -1.83964E-09 -1.83370E-09 -1.82754E-09
  -1.82114E-09 -1.81448E-09 -1.80755E-09 -1.80035E-09 -1.79286E-09 -1.78506E-09 -1.77695E-09 -1.76852E-09 -1.75976E-09 -1.75065E-09
  -1.74119E-09 -1.73138E-09 -1.72120E-09 -1.71066E-09 -1.69975E-09 -1.68848E-09 -1.67687E-09 -1.66491E-09 -1.65261E-09 -1.63997E-09
  -1.62700E-09 -1.61371E-09 -1.60010E-09 -1.58617E-09 -1.57194E-09 -1.55739E-09 -1.54255E-09 -1.52740E-09 -1.51196E-09 -1.49623E-09
  -1.48021E-09 -1.46391E-09 -1.44732E-09 -1.43046E-09 -1.41333E-09 -1.39592E-09 -1.37824E-09 -1.36030E-09 -1.34209E-09 -1.32362E-09
  -1.30488E-09 -1.28589E-09 -1.26664E-09
 NY background values follow
     4.913E-09    4.992E-09    5.071E-09    5.147E-09    5.223E-09    5.296E-09    5.369E-09    5.440E-09    5.509E-09    5.577E-09
     5.644E-09    5.709E-09    5.773E-09    5.835E-09    5.896E-09    5.955E-09    6.013E-09    6.070E-09    6.125E-09    6.178E-09
     6.230E-09    6.281E-09    6.330E-09    6.378E-09    6.425E-09    6.469E-09    6.513E-09    6.555E-09    6.596E-09    6.635E-09
     6.673E-09    6.709E-09    6.744E-09    6.777E-09    6.809E-09    6.840E-09    6.870E-09    6.898E-09    6.924E-09    6.950E-09
     6.974E-09    6.997E-09    7.018E-09    7.039E-09    7.058E-09    7.075E-09    7.092E-09    7.108E-09    7.122E-09    7.135E-09
     7.147E-09    7.158E-09    7.168E-09    7.177E-09    7.185E-09    7.192E-09    7.198E-09    7.203E-09    7.207E-09    7.210E-09
     7.212E-09    7.213E-09    7.214E-09    7.213E-09    7.212E-09    7.210E-09    7.207E-09    7.203E-09    7.199E-09    7.193E-09
     7.187E-09    7.180E-09    7.172E-09    7.164E-09    7.154E-09    7.144E-09    7.132E-09    7.120E-09    7.107E-09    7.094E-09
     7.079E-09    7.064E-09    7.047E-09    7.030E-09    7.012E-09    6.993E-09    6.973E-09    6.953E-09    6.931E-09    6.909E-09
     6.886E-09    6.862E-09    6.837E-09    6.811E-09    6.784E-09    6.756E-09    6.728E-09    6.699E-09    6.668E-09    6.637E-09
     6.605E-09    6.572E-09    6.538E-09    6.504E-09    6.468E-09    6.432E-09    6.394E-09    6.356E-09    6.317E-09    6.277E-09
     6.236E-09    6.194E-09    6.152E-09    6.108E-09    6.064E-09    6.019E-09    5.973E-09    5.926E-09    5.878E-09    5.829E-09
     5.780E-09    5.729E-09    5.678E-09    5.625E-09    5.572E-09    5.517E-09    5.461E-09    5.403E-09    5.344E-09    5.282E-09
     5.219E-09    5.154E-09    5.087E-09    5.017E-09    4.946E-09    4.871E-09    4.794E-09    4.714E-09    4.631E-09    4.545E-09
     4.456E-09    4.363E-09    4.267E-09    4.167E-09    4.064E-09    3.957E-09    3.845E-09    3.730E-09    3.610E-09    3.486E-09
     3.358E-09    3.224E-09    3.087E-09    2.944E-09    2.798E-09    2.647E-09    2.493E-09    2.335E-09    2.174E-09    2.010E-09
     1.843E-09    1.674E-09    1.502E-09    1.329E-09    1.153E-09    9.767E-10    7.989E-10    6.202E-10    4.407E-10    2.609E-10
     8.100E-11   -9.882E-11   -2.782E-10   -4.570E-10   -6.348E-10   -8.115E-10   -9.867E-10   -1.160E-09   -1.332E-09   -1.501E-09
    -1.668E-09   -1.832E-09   -1.993E-09   -2.151E-09   -2.306E-09   -2.457E-09   -2.605E-09   -2.749E-09   -2.889E-09   -3.025E-09
    -3.156E-09   -3.284E-09   -3.407E-09   -3.526E-09   -3.640E-09   -3.749E-09   -3.853E-09   -3.952E-09   -4.046E-09   -4.135E-09
    -4.218E-09   -4.296E-09   -4.368E-09   -4.434E-09   -4.494E-09   -4.548E-09   -4.597E-09   -4.639E-09   -4.675E-09   -4.704E-09
    -4.727E-09   -4.743E-09   -4.753E-09   -4.756E-09   -4.753E-09   -4.745E-09   -4.730E-09   -4.711E-09   -4.686E-09   -4.656E-09
    -4.622E-09   -4.584E-09   -4.542E-09   -4.496E-09   -4.447E-09   -4.395E-09   -4.340E-09   -4.282E-09   -4.222E-09   -4.160E-09
    -4.096E-09   -4.031E-09   -3.964E-09   -3.896E-09   -3.828E-09   -3.759E-09   -3.689E-09   -3.620E-09   -3.551E-09   -3.482E-09
    -3.414E-09   -3.347E-09   -3.281E-09   -3.216E-09   -3.152E-09   -3.090E-09   -3.029E-09   -2.969E-09   -2.910E-09   -2.853E-09
    -2.796E-09   -2.741E-09   -2.688E-09   -2.636E-09   -2.584E-09   -2.535E-09   -2.486E-09   -2.439E-09   -2.393E-09   -2.349E-09
    -2.306E-09   -2.264E-09   -2.223E-09   -2.184E-09   -2.146E-09   -2.110E-09   -2.074E-09   -2.040E-09   -2.008E-09   -1.976E-09
    -1.946E-09   -1.917E-09   -1.890E-09   -1.864E-09   -1.839E-09   -1.815E-09   -1.792E-09   -1.771E-09   -1.750E-09   -1.730E-09
    -1.712E-09   -1.694E-09   -1.677E-09   -1.661E-09   -1.646E-09   -1.631E-09   -1.617E-09   -1.604E-09   -1.592E-09   -1.580E-09
    -1.568E-09   -1.557E-09   -1.547E-09   -1.537E-09   -1.527E-09   -1.518E-09   -1.509E-09   -1.501E-09   -1.492E-09   -1.484E-09
    -1.476E-09   -1.468E-09   -1.461E-09   -1.453E-09   -1.446E-09   -1.438E-09   -1.431E-09   -1.424E-09   -1.416E-09   -1.409E-09
    -1.402E-09   -1.394E-09   -1.386E-09   -1.379E-09   -1.371E-09   -1.363E-09   -1.355E-09   -1.347E-09   -1.338E-09   -1.330E-09
    -1.321E-09   -1.312E-09   -1.302E-09   -1.293E-09   -1.283E-09   -1.273E-09   -1.262E-09   -1.252E-09   -1.241E-09   -1.229E-09
    -1.218E-09   -1.206E-09   -1.193E-09   -1.181E-09   -1.168E-09   -1.154E-09   -1.141E-09   -1.127E-09   -1.112E-09   -1.098E-09
    -1.083E-09   -1.068E-09   -1.052E-09   -1.036E-09   -1.020E-09   -1.004E-09   -9.870E-10   -9.700E-10   -9.528E-10   -9.353E-10
    -9.175E-10   -8.995E-10   -8.812E-10   -8.627E-10   -8.439E-10   -8.248E-10   -8.055E-10   -7.860E-10   -7.662E-10   -7.462E-10
    -7.259E-10   -7.054E-10   -6.847E-10
 Cr       Conc. = 2.82E-10
   5.57069E-09  5.90283E-09  6.10996E-09  5.95049E-09  5.77199E-09  5.70287E-09  5.68194E-09  5.68559E-09  5.70325E-09  5.72943E-09
   5.76093E-09  5.79576E-09  5.83255E-09  5.87039E-09  5.90857E-09  5.94654E-09  5.98385E-09  6.02014E-09  6.05503E-09  6.08822E-09
   6.11932E-09  6.14798E-09  6.17376E-09  6.19613E-09  6.21443E-09  6.22777E-09  6.23492E-09  6.23413E-09  6.22268E-09  6.19623E-09
   6.14837E-09  6.09514E-09  6.16130E-09  6.26952E-09  6.42395E-09  6.71118E-09  7.15075E-09  7.63663E-09  8.04505E-09  8.37771E-09
   8.70287E-09  8.97266E-09  8.87357E-09  8.28219E-09  7.99762E-09  7.84339E-09  7.74685E-09  7.68106E-09  7.63362E-09  7.59803E-09
   7.57040E-09  7.54836E-09  7.53029E-09  7.51509E-09  7.50199E-09  7.49038E-09  7.47989E-09  7.47018E-09  7.46096E-09  7.45208E-09
   7.44340E-09  7.43476E-09  7.42608E-09  7.41725E-09  7.40822E-09  7.39889E-09  7.38921E-09  7.37913E-09  7.36862E-09  7.35763E-09
   7.34613E-09  7.33410E-09  7.32149E-09  7.30830E-09  7.29451E-09  7.28010E-09  7.26502E-09  7.24929E-09  7.23289E-09  7.21580E-09
   7.19802E-09  7.17950E-09  7.16026E-09  7.14029E-09  7.11959E-09  7.09812E-09  7.07586E-09  7.05285E-09  7.02904E-09  7.00445E-09
   6.97902E-09  6.95283E-09  6.92581E-09  6.89795E-09  6.86927E-09  6.83977E-09  6.80944E-09  6.77828E-09  6.74629E-09  6.71346E-09
   6.67981E-09  6.64532E-09  6.60998E-09  6.57382E-09  6.53680E-09  6.49896E-09  6.46026E-09  6.42073E-09  6.38034E-09  6.33912E-09
   6.29706E-09  6.25412E-09  6.21037E-09  6.16575E-09  6.12028E-09  6.07398E-09  6.02681E-09  5.97880E-09  5.92994E-09  5.88023E-09
   5.82965E-09  5.77823E-09  5.72592E-09  5.67258E-09  5.61811E-09  5.56239E-09  5.50529E-09  5.44668E-09  5.38643E-09  5.32443E-09
   5.26055E-09  5.19465E-09  5.12659E-09  5.05627E-09  4.98354E-09  4.90829E-09  4.83036E-09  4.74965E-09  4.66600E-09  4.57928E-09
   4.48938E-09  4.39615E-09  4.29947E-09  4.19920E-09  4.09520E-09  3.98736E-09  3.87555E-09  3.75962E-09  3.63943E-09  3.51491E-09
   3.38587E-09  3.25221E-09  3.11391E-09  2.97116E-09  2.82423E-09  2.67337E-09  2.51884E-09  2.36091E-09  2.19985E-09  2.03597E-09
   1.86958E-09  1.70105E-09  1.53083E-09  1.35951E-09  1.18823E-09  1.01959E-09  8.64618E-10  7.52287E-10  6.44876E-10  5.48665E-10
   4.82270E-10  4.28534E-10  3.42344E-10  1.98627E-10  1.74608E-11 -1.80997E-10 -4.24145E-10 -7.79849E-10 -1.19709E-09 -1.43025E-09
  -1.61965E-09 -1.79491E-09 -1.96264E-09 -2.12498E-09 -2.28277E-09 -2.43636E-09 -2.58586E-09 -2.73129E-09 -2.87261E-09 -3.00973E-09
  -3.14257E-09 -3.27102E-09 -3.39497E-09 -3.51430E-09 -3.62889E-09 -3.73864E-09 -3.84340E-09 -3.94305E-09 -4.03751E-09 -4.12662E-09
  -4.21029E-09 -4.28839E-09 -4.36082E-09 -4.42747E-09 -4.48823E-09 -4.54299E-09 -4.59164E-09 -4.63409E-09 -4.67025E-09 -4.70001E-09
  -4.72328E-09 -4.73998E-09 -4.75004E-09 -4.75367E-09 -4.75112E-09 -4.74269E-09 -4.72866E-09 -4.70931E-09 -4.68491E-09 -4.65574E-09
  -4.62208E-09 -4.58420E-09 -4.54239E-09 -4.49691E-09 -4.44804E-09 -4.39604E-09 -4.34119E-09 -4.28375E-09 -4.22399E-09 -4.16217E-09
  -4.09855E-09 -4.03339E-09 -3.96695E-09 -3.89947E-09 -3.83123E-09 -3.76244E-09 -3.69337E-09 -3.62426E-09 -3.55534E-09 -3.48685E-09
  -3.41902E-09 -3.35208E-09 -3.28625E-09 -3.22161E-09 -3.15819E-09 -3.09598E-09 -3.03500E-09 -2.97527E-09 -2.91678E-09 -2.85955E-09
  -2.80359E-09 -2.74890E-09 -2.69550E-09 -2.64338E-09 -2.59255E-09 -2.54302E-09 -2.49481E-09 -2.44788E-09 -2.40228E-09 -2.35798E-09
  -2.31500E-09 -2.27333E-09 -2.23298E-09 -2.19395E-09 -2.15623E-09 -2.11982E-09 -2.08472E-09 -2.05094E-09 -2.01845E-09 -1.98727E-09
  -1.95739E-09 -1.92880E-09 -1.90148E-09 -1.87543E-09 -1.85059E-09 -1.82692E-09 -1.80437E-09 -1.78290E-09 -1.76248E-09 -1.74304E-09
  -1.72456E-09 -1.70698E-09 -1.69027E-09 -1.67438E-09 -1.65927E-09 -1.64491E-09 -1.63124E-09 -1.61824E-09 -1.60586E-09 -1.59406E-09
  -1.58281E-09 -1.57206E-09 -1.56178E-09 -1.55193E-09 -1.54248E-09 -1.53339E-09 -1.52462E-09 -1.51615E-09 -1.50794E-09 -1.49995E-09
  -1.49215E-09 -1.48451E-09 -1.47700E-09 -1.46960E-09 -1.46227E-09 -1.45500E-09 -1.44777E-09 -1.44055E-09 -1.43332E-09 -1.42607E-09
  -1.41877E-09 -1.41141E-09 -1.40396E-09 -1.39641E-09 -1.38873E-09 -1.38092E-09 -1.37295E-09 -1.36482E-09 -1.35650E-09 -1.34797E-09
  -1.33923E-09 -1.33027E-09 -1.32105E-09 -1.31159E-09 -1.30186E-09 -1.29184E-09 -1.28154E-09 -1.27094E-09 -1.26003E-09 -1.24880E-09
  -1.23725E-09 -1.22536E-09 -1.21313E-09 -1.20055E-09 -1.18763E-09 -1.17438E-09 -1.16080E-09 -1.14690E-09 -1.13268E-09 -1.11815E-09
  -1.10331E-09 -1.08816E-09 -1.07272E-09 -1.05698E-09 -1.04095E-09 -1.02464E-09 -1.00805E-09 -9.91180E-10 -9.74037E-10 -9.56622E-10
  -9.38943E-10 -9.21001E-10 -9.02797E-10 -8.84337E-10 -8.65623E-10 -8.46659E-10 -8.27444E-10 -8.07982E-10 -7.88276E-10 -7.68327E-10
  -7.48137E-10 -7.27708E-10 -7.07041E-10
 Glc      Conc. = 3.62E-10
   4.51014E-09  4.69566E-09  4.88452E-09  5.11990E-09  5.36150E-09  5.58793E-09  5.74004E-09  5.87315E-09  5.94412E-09  5.91813E-09
   5.90592E-09  5.90104E-09  5.88893E-09  5.91682E-09  6.00083E-09  6.10503E-09  6.22724E-09  6.41433E-09  6.65228E-09  6.91026E-09
   7.17196E-09  7.39457E-09  7.56561E-09  7.71346E-09  7.76270E-09  7.66410E-09  7.55659E-09  7.49520E-09  7.48118E-09  7.50208E-09
   7.51184E-09  7.50778E-09  7.52537E-09  7.53848E-09  7.51612E-09  7.50001E-09  7.49817E-09  7.48449E-09  7.46396E-09  7.45075E-09
   7.44322E-09  7.43884E-09  7.43674E-09  7.43611E-09  7.43642E-09  7.43734E-09  7.43861E-09  7.44002E-09  7.44138E-09  7.44261E-09
   7.44356E-09  7.44419E-09  7.44442E-09  7.44420E-09  7.44351E-09  7.44228E-09  7.44055E-09  7.43827E-09  7.43541E-09  7.43199E-09
   7.42801E-09  7.42346E-09  7.41834E-09  7.41261E-09  7.40628E-09  7.39932E-09  7.39173E-09  7.38348E-09  7.37458E-09  7.36501E-09
   7.35476E-09  7.34383E-09  7.33219E-09  7.31985E-09  7.30681E-09  7.29305E-09  7.27855E-09  7.26331E-09  7.24735E-09  7.23063E-09
   7.21317E-09  7.19493E-09  7.17591E-09  7.15614E-09  7.13559E-09  7.11424E-09  7.09208E-09  7.06914E-09  7.04538E-09  7.02081E-09
   6.99538E-09  6.96918E-09  6.94213E-09  6.91423E-09  6.88550E-09  6.85593E-09  6.82552E-09  6.79427E-09  6.76219E-09  6.72926E-09
   6.69550E-09  6.66088E-09  6.62542E-09  6.58913E-09  6.55198E-09  6.51400E-09  6.47516E-09  6.43549E-09  6.39495E-09  6.35358E-09
   6.31136E-09  6.26828E-09  6.22436E-09  6.17959E-09  6.13395E-09  6.08750E-09  6.04016E-09  5.99199E-09  5.94297E-09  5.89310E-09
   5.84236E-09  5.79077E-09  5.73830E-09  5.68480E-09  5.63017E-09  5.57429E-09  5.51702E-09  5.45825E-09  5.39784E-09  5.33568E-09
   5.27164E-09  5.20558E-09  5.13737E-09  5.06690E-09  4.99401E-09  4.91861E-09  4.84053E-09  4.75967E-09  4.67588E-09  4.58901E-09
   4.49897E-09  4.40560E-09  4.30878E-09  4.20837E-09  4.10424E-09  3.99627E-09  3.88434E-09  3.76829E-09  3.64799E-09  3.52335E-09
   3.39421E-09  3.26046E-09  3.12207E-09  2.97925E-09  2.83226E-09  2.68135E-09  2.52679E-09  2.36887E-09  2.20784E-09  2.04404E-09
   1.87781E-09  1.70952E-09  1.53969E-09  1.36901E-09  1.19883E-09  1.03235E-09  8.83078E-10  7.89444E-10  7.02559E-10  6.29711E-10
   5.95325E-10  5.78096E-10  5.19794E-10  3.87050E-10  2.05222E-10  1.02268E-12 -2.59471E-10 -6.65005E-10 -1.15628E-09 -1.40978E-09
  -1.60597E-09 -1.78447E-09 -1.95408E-09 -2.11766E-09 -2.27632E-09 -2.43055E-09 -2.58057E-09 -2.72641E-09 -2.86808E-09 -3.00551E-09
  -3.13861E-09 -3.26730E-09 -3.39146E-09 -3.51099E-09 -3.62576E-09 -3.73568E-09 -3.84060E-09 -3.94041E-09 -4.03501E-09 -4.12426E-09
  -4.20807E-09 -4.28630E-09 -4.35886E-09 -4.42563E-09 -4.48651E-09 -4.54138E-09 -4.59015E-09 -4.63272E-09 -4.66898E-09 -4.69885E-09
  -4.72222E-09 -4.73903E-09 -4.74920E-09 -4.75292E-09 -4.75047E-09 -4.74214E-09 -4.72821E-09 -4.70895E-09 -4.68464E-09 -4.65556E-09
  -4.62200E-09 -4.58421E-09 -4.54249E-09 -4.49710E-09 -4.44832E-09 -4.39640E-09 -4.34164E-09 -4.28429E-09 -4.22461E-09 -4.16287E-09
