 LCModel (Version 6.3-1R) Copyright: S.W. Provencher.          Ref.: Magn. Reson. Med. 30:672-679 (1993).                
 onepulse 14x18_ftSpec_smooth_lcm
 26 lines in following concentration table = NCONC+1
    Conc.  %SD /Cr+PCr  Metabolite                                         
    0.000 999%   0.000 Ala                                                 
    0.000 999%   0.000 Asp                                                 
    0.000 999%   0.000 Cr                                                  
    0.000 999%   0.000 GABA                                                
 4.07E-10 235%   1.727 Glc                                                 
 9.28E-10  87%   3.939 Gln                                                 
 6.63E-10 104%   2.811 Glu                                                 
    0.000 999%   0.000 Glyc                                                
 1.70E-10  81%   0.722 GPC                                                 
    0.000 999%   0.000 GSH                                                 
 1.04E-09  45%   4.433 Ins                                                 
    0.000 999%   0.000 Lac                                                 
    0.000 999%   0.000 NAAG                                                
 5.10E-10  57%   2.165 NAA                                                 
    0.000 999%   0.000 PCh                                                 
 2.36E-10 110%   1.000 PCr                                                 
    0.000 999%   0.000 PE                                                  
 1.56E-10 178%   0.660 Scyllo                                              
 3.66E-09  27%  15.508 Ser                                                 
 7.71E-11 999%   0.327 Tau                                                 
 1.70E-10  81%   0.722 GPC+PCh                                             
 5.10E-10  57%   2.165 NAA+NAAG                                            
 1.04E-09  45%   4.433 Ins+Glyc                                            
 2.36E-10 110%   1.000 Cr+PCr                                              
 1.59E-09  38%   6.750 Glu+Gln                                             
   6 lines in following misc. output table
  FWHM = 0.089 ppm    S/N =   3                                            
  Data shift = 0.358 ppm                                                   
  Ph: -54 deg     -41.6 deg/ppm                                            
  alphaB,S = 6.8E-01,   4.3E+01                                            
    8 spline knots.   Ns = 5(1)                                            
  ( 7) 4 infls.   ( 5) 1 extrs.                                            
  363 points on ppm-axis = NY
      4.250000     4.238821     4.227641     4.216462     4.205282     4.194103     4.182923     4.171744     4.160564     4.149385
      4.138206     4.127026     4.115847     4.104667     4.093488     4.082308     4.071129     4.059949     4.048770     4.037591
      4.026411     4.015232     4.004052     3.992873     3.981693     3.970514     3.959334     3.948155     3.936975     3.925796
      3.914617     3.903437     3.892258     3.881078     3.869899     3.858719     3.847540     3.836360     3.825181     3.814002
      3.802822     3.791643     3.780463     3.769284     3.758104     3.746925     3.735745     3.724566     3.713387     3.702207
      3.691028     3.679848     3.668669     3.657489     3.646310     3.635130     3.623951     3.612772     3.601592     3.590413
      3.579233     3.568054     3.556874     3.545695     3.534515     3.523336     3.512156     3.500977     3.489798     3.478618
      3.467439     3.456259     3.445080     3.433900     3.422721     3.411541     3.400362     3.389183     3.378003     3.366824
      3.355644     3.344465     3.333285     3.322106     3.310926     3.299747     3.288568     3.277388     3.266209     3.255029
      3.243850     3.232670     3.221491     3.210311     3.199132     3.187953     3.176773     3.165594     3.154414     3.143235
      3.132055     3.120876     3.109696     3.098517     3.087337     3.076158     3.064979     3.053799     3.042620     3.031440
      3.020261     3.009081     2.997902     2.986722     2.975543     2.964364     2.953184     2.942005     2.930825     2.919646
      2.908466     2.897287     2.886107     2.874928     2.863749     2.852569     2.841390     2.830210     2.819031     2.807851
      2.796672     2.785492     2.774313     2.763134     2.751954     2.740775     2.729595     2.718416     2.707236     2.696057
      2.684877     2.673698     2.662519     2.651339     2.640160     2.628980     2.617801     2.606621     2.595442     2.584262
      2.573083     2.561903     2.550724     2.539545     2.528365     2.517186     2.506006     2.494827     2.483647     2.472468
      2.461288     2.450109     2.438930     2.427750     2.416571     2.405391     2.394212     2.383032     2.371853     2.360673
      2.349494     2.338315     2.327135     2.315956     2.304776     2.293597     2.282417     2.271238     2.260058     2.248879
      2.237700     2.226520     2.215341     2.204161     2.192982     2.181802     2.170623     2.159443     2.148264     2.137084
      2.125905     2.114726     2.103546     2.092367     2.081187     2.070008     2.058828     2.047649     2.036469     2.025290
      2.014111     2.002931     1.991752     1.980572     1.969393     1.958213     1.947034     1.935854     1.924675     1.913496
      1.902316     1.891137     1.879957     1.868778     1.857598     1.846419     1.835239     1.824060     1.812881     1.801701
      1.790522     1.779342     1.768163     1.756983     1.745804     1.734624     1.723445     1.712265     1.701086     1.689907
      1.678727     1.667548     1.656368     1.645189     1.634009     1.622830     1.611650     1.600471     1.589292     1.578112
      1.566933     1.555753     1.544574     1.533394     1.522215     1.511035     1.499856     1.488677     1.477497     1.466318
      1.455138     1.443959     1.432779     1.421600     1.410420     1.399241     1.388062     1.376882     1.365703     1.354523
      1.343344     1.332164     1.320985     1.309805     1.298626     1.287446     1.276267     1.265088     1.253908     1.242729
      1.231549     1.220370     1.209190     1.198011     1.186831     1.175652     1.164473     1.153293     1.142114     1.130934
      1.119755     1.108575     1.097396     1.086216     1.075037     1.063858     1.052678     1.041499     1.030319     1.019140
      1.007960     0.996781     0.985601     0.974422     0.963243     0.952063     0.940884     0.929704     0.918525     0.907345
      0.896166     0.884986     0.873807     0.862628     0.851448     0.840269     0.829089     0.817910     0.806730     0.795551
      0.784371     0.773192     0.762012     0.750833     0.739654     0.728474     0.717295     0.706115     0.694936     0.683756
      0.672577     0.661397     0.650218     0.639039     0.627859     0.616680     0.605500     0.594321     0.583141     0.571962
      0.560782     0.549603     0.538424     0.527244     0.516065     0.504885     0.493706     0.482526     0.471347     0.460167
      0.448988     0.437809     0.426629     0.415450     0.404270     0.393091     0.381911     0.370732     0.359552     0.348373
      0.337193     0.326014     0.314835     0.303655     0.292476     0.281296     0.270117     0.258937     0.247758     0.236578
      0.225399     0.214220     0.203040
 NY phased data points follow
   1.32669E-08  1.51798E-08  1.45430E-08  1.45111E-08  1.28207E-08  1.38464E-08  1.19390E-08  1.25486E-08  1.08941E-08  1.22731E-08
   1.08888E-08  1.26432E-08  1.11734E-08  1.27553E-08  1.14237E-08  1.23676E-08  1.14580E-08  1.26766E-08  1.23487E-08  1.20572E-08
   1.10481E-08  1.19178E-08  1.08183E-08  1.21360E-08  1.13032E-08  1.26703E-08  1.08229E-08  1.24457E-08  1.10460E-08  1.16464E-08
   1.15650E-08  1.31212E-08  1.31002E-08  1.36218E-08  1.36730E-08  1.34570E-08  1.22259E-08  1.28399E-08  1.01885E-08  1.16637E-08
   1.00091E-08  1.11117E-08  9.17115E-09  1.05022E-08  9.59670E-09  9.75639E-09  8.47911E-09  8.51965E-09  7.99692E-09  8.82970E-09
   7.71557E-09  8.42732E-09  7.80179E-09  8.07674E-09  7.43816E-09  8.00266E-09  7.01922E-09  7.09954E-09  5.97898E-09  6.86218E-09
   5.90122E-09  8.90240E-09  8.80490E-09  1.22481E-08  1.16433E-08  1.30297E-08  1.14931E-08  1.15250E-08  1.00245E-08  1.09658E-08
   8.80822E-09  9.61410E-09  8.10010E-09  8.75359E-09  6.46621E-09  6.89681E-09  6.76395E-09  7.83865E-09  8.89502E-09  1.14716E-08
   1.24673E-08  1.40870E-08  1.38602E-08  1.39505E-08  1.25264E-08  1.33601E-08  1.21675E-08  1.28302E-08  1.11203E-08  1.19630E-08
   1.12120E-08  1.15839E-08  1.02886E-08  1.09433E-08  9.21596E-09  9.45067E-09  9.31366E-09  8.63041E-09  8.55307E-09  8.04299E-09
   7.94732E-09  8.31151E-09  7.08022E-09  8.09196E-09  7.43597E-09  7.54799E-09  6.84603E-09  7.12683E-09  5.74624E-09  5.86879E-09
   5.38397E-09  5.21840E-09  5.28452E-09  5.51499E-09  5.56480E-09  5.35975E-09  5.49747E-09  6.66067E-09  5.21951E-09  6.55930E-09
   5.99664E-09  6.97716E-09  5.55054E-09  5.69671E-09  5.25542E-09  4.63896E-09  3.95064E-09  4.57071E-09  4.16838E-09  4.97370E-09
   4.25777E-09  4.64333E-09  4.58110E-09  4.52059E-09  4.60066E-09  4.57119E-09  4.50062E-09  4.27595E-09  4.14140E-09  4.90443E-09
   5.73632E-09  6.48107E-09  5.43313E-09  6.18183E-09  5.83995E-09  7.00565E-09  6.92064E-09  7.05844E-09  6.87205E-09  6.81801E-09
   7.24236E-09  6.90887E-09  6.67463E-09  7.30274E-09  6.59607E-09  6.48142E-09  6.27622E-09  6.71314E-09  6.84730E-09  7.17381E-09
   7.16104E-09  7.07436E-09  6.19800E-09  6.15031E-09  6.31593E-09  5.61696E-09  5.66301E-09  6.48618E-09  7.53100E-09  9.87582E-09
   1.30555E-08  1.50202E-08  1.64156E-08  1.63394E-08  1.52959E-08  1.40743E-08  1.39880E-08  1.35787E-08  1.18720E-08  1.12683E-08
   1.07429E-08  1.01762E-08  9.04259E-09  8.26378E-09  6.93306E-09  5.80428E-09  4.25645E-09  3.18416E-09  1.69424E-09 -4.01097E-10
  -1.84351E-09 -4.01477E-09 -5.98817E-09 -8.31288E-09 -9.68950E-09 -1.13454E-08 -1.33602E-08 -1.45116E-08 -1.59725E-08 -1.63279E-08
  -1.69853E-08 -1.56609E-08 -1.63072E-08 -1.53941E-08 -1.41497E-08 -1.24438E-08 -1.11043E-08 -9.39554E-09 -8.63895E-09 -7.09245E-09
  -5.34722E-09 -4.68068E-09 -2.93568E-09 -2.72751E-09 -2.94202E-09 -3.00125E-09 -3.24847E-09 -2.42397E-09 -2.88307E-09 -3.50876E-09
  -3.19785E-09 -2.09384E-09 -2.89613E-09 -2.21400E-09 -2.04467E-09 -2.29428E-09 -1.67770E-09 -2.19896E-09 -2.10622E-09 -2.36790E-09
  -2.66005E-09 -2.85684E-09 -2.22355E-09 -2.31131E-09 -1.56445E-09 -1.92053E-09 -1.35419E-09 -1.42396E-09 -1.61043E-09 -2.06684E-09
  -2.08804E-09 -2.16573E-09 -2.44501E-09 -2.58315E-09 -1.61872E-09 -1.86386E-09 -1.83280E-09 -1.68740E-09 -1.02312E-09 -1.57669E-09
  -1.49306E-09 -9.82765E-10 -1.07474E-09 -7.80606E-10 -8.08908E-10 -1.22335E-09 -1.10709E-09 -1.53458E-09 -1.30780E-09 -2.03468E-09
  -2.22066E-09 -2.33851E-09 -2.11295E-09 -2.71830E-09 -2.09520E-09 -2.21249E-09 -2.08642E-09 -2.03811E-09 -1.36092E-09 -1.28140E-09
  -8.98755E-10 -1.32520E-09 -5.44308E-10 -1.02247E-09 -6.53005E-10 -4.10053E-10 -2.44539E-10 -3.30419E-10 -1.87445E-10 -8.37900E-10
  -8.40161E-10 -6.62934E-10 -6.64883E-10 -1.35539E-09 -8.57956E-10 -1.24586E-09 -8.71352E-10 -1.24633E-09 -1.50383E-09 -1.19037E-09
  -1.73916E-09 -2.16084E-09 -1.19208E-09 -1.80621E-09 -1.45266E-09 -1.44171E-09 -2.54256E-09 -2.24370E-09 -1.82673E-09 -2.08702E-09
  -2.22397E-09 -2.57011E-09 -2.38055E-09 -1.85246E-09 -2.23476E-09 -1.91970E-09 -2.49889E-09 -2.48058E-09 -2.05491E-09 -2.50966E-09
  -2.35390E-09 -2.06410E-09 -2.82122E-09 -2.08901E-09 -2.81271E-09 -2.31751E-09 -2.31813E-09 -2.69491E-09 -2.71980E-09 -2.22951E-09
  -2.75187E-09 -2.33033E-09 -2.60730E-09 -2.23914E-09 -2.61799E-09 -2.09752E-09 -2.06243E-09 -2.35627E-09 -2.67724E-09 -2.06006E-09
  -2.64153E-09 -2.27186E-09 -1.92840E-09 -2.28021E-09 -1.90609E-09 -2.09185E-09 -2.56735E-09 -2.04778E-09 -2.19037E-09 -2.10256E-09
  -2.33088E-09 -1.91240E-09 -2.20184E-09 -2.39714E-09 -2.11928E-09 -1.97828E-09 -2.03288E-09 -1.67212E-09 -2.32649E-09 -1.77802E-09
  -1.56281E-09 -1.68247E-09 -2.26627E-09 -1.53784E-09 -1.61085E-09 -1.39868E-09 -1.92159E-09 -1.77399E-09 -2.06437E-09 -7.90190E-10
  -1.84086E-09 -1.57449E-09 -1.75362E-09
 NY points of the fit to the data follow
   1.33165E-08  1.41418E-08  1.40036E-08  1.35356E-08  1.36934E-08  1.38845E-08  1.35552E-08  1.27723E-08  1.19433E-08  1.14975E-08
   1.13427E-08  1.13744E-08  1.16029E-08  1.19081E-08  1.22507E-08  1.23893E-08  1.23561E-08  1.24136E-08  1.23561E-08  1.18800E-08
   1.13789E-08  1.10937E-08  1.09076E-08  1.07406E-08  1.07958E-08  1.11169E-08  1.16518E-08  1.21851E-08  1.24793E-08  1.25330E-08
   1.27489E-08  1.29505E-08  1.30936E-08  1.29855E-08  1.24888E-08  1.18074E-08  1.14193E-08  1.11871E-08  1.10417E-08  1.09434E-08
   1.08250E-08  1.05828E-08  1.01307E-08  9.58771E-09  9.25046E-09  9.01626E-09  8.82982E-09  8.66197E-09  8.50347E-09  8.36325E-09
   8.23988E-09  8.13365E-09  8.04297E-09  7.95056E-09  7.88094E-09  7.89173E-09  7.94887E-09  8.09030E-09  8.34579E-09  8.67829E-09
   9.01275E-09  9.34295E-09  9.71517E-09  1.00852E-08  1.04043E-08  1.06308E-08  1.07584E-08  1.07539E-08  1.05069E-08  1.01465E-08
   9.83835E-09  9.55576E-09  9.18673E-09  8.80242E-09  8.62575E-09  8.58090E-09  8.61943E-09  9.04392E-09  9.82195E-09  1.07775E-08
   1.17529E-08  1.25973E-08  1.32106E-08  1.36419E-08  1.38685E-08  1.38059E-08  1.34341E-08  1.26409E-08  1.14372E-08  1.05877E-08
   1.00702E-08  9.69578E-09  9.40673E-09  9.16542E-09  8.96363E-09  8.78922E-09  8.63142E-09  8.48988E-09  8.36146E-09  8.24323E-09
   8.13306E-09  8.02947E-09  7.93138E-09  7.83792E-09  7.74826E-09  7.66175E-09  7.57784E-09  7.49610E-09  7.41614E-09  7.33759E-09
   7.26028E-09  7.18386E-09  7.10815E-09  7.03295E-09  6.95808E-09  6.88340E-09  6.80876E-09  6.73403E-09  6.65907E-09  6.58382E-09
   6.50810E-09  6.43189E-09  6.35505E-09  6.27753E-09  6.19924E-09  6.12009E-09  6.04000E-09  5.95898E-09  5.87689E-09  5.79369E-09
   5.70933E-09  5.62374E-09  5.53689E-09  5.44872E-09  5.35917E-09  5.26817E-09  5.17576E-09  5.08181E-09  4.98631E-09  4.88920E-09
   4.79048E-09  4.69009E-09  4.58801E-09  4.48417E-09  4.37858E-09  4.27120E-09  4.16204E-09  4.05117E-09  3.93866E-09  3.82462E-09
   3.70915E-09  3.59238E-09  3.47442E-09  3.35548E-09  3.23573E-09  3.11547E-09  2.99505E-09  2.87494E-09  2.75587E-09  2.63888E-09
   2.52562E-09  2.41889E-09  2.32365E-09  2.24980E-09  2.21989E-09  2.29830E-09  2.75762E-09  4.73604E-09  7.72870E-09  1.08808E-08
   1.36704E-08  1.57970E-08  1.71552E-08  1.77585E-08  1.75967E-08  1.64005E-08  1.36397E-08  9.12822E-09  4.27261E-09  2.14328E-09
   1.33196E-09  8.66814E-10  5.38909E-10  2.80043E-10  6.12076E-11 -1.32043E-10 -3.07709E-10 -4.70549E-10 -6.23658E-10 -7.68998E-10
  -9.07907E-10 -1.04139E-09 -1.17008E-09 -1.29450E-09 -1.41496E-09 -1.53176E-09 -1.64509E-09 -1.75504E-09 -1.86173E-09 -1.96525E-09
  -2.06562E-09 -2.16285E-09 -2.25696E-09 -2.34795E-09 -2.43582E-09 -2.52050E-09 -2.60200E-09 -2.68029E-09 -2.75534E-09 -2.82705E-09
  -2.89547E-09 -2.96049E-09 -3.02209E-09 -3.08022E-09 -3.13487E-09 -3.18592E-09 -3.23337E-09 -3.27720E-09 -3.31731E-09 -3.35379E-09
  -3.38673E-09 -3.41622E-09 -3.44233E-09 -3.46518E-09 -3.48483E-09 -3.50139E-09 -3.51494E-09 -3.52556E-09 -3.53336E-09 -3.53840E-09
  -3.54080E-09 -3.54063E-09 -3.53797E-09 -3.53292E-09 -3.52556E-09 -3.51598E-09 -3.50427E-09 -3.49051E-09 -3.47479E-09 -3.45720E-09
  -3.43780E-09 -3.41672E-09 -3.39400E-09 -3.36975E-09 -3.34404E-09 -3.31696E-09 -3.28859E-09 -3.25901E-09 -3.22831E-09 -3.19655E-09
  -3.16384E-09 -3.13023E-09 -3.09583E-09 -3.06068E-09 -3.02488E-09 -2.98851E-09 -2.95164E-09 -2.91433E-09 -2.87668E-09 -2.83873E-09
  -2.80058E-09 -2.76231E-09 -2.72396E-09 -2.68561E-09 -2.64732E-09 -2.60918E-09 -2.57124E-09 -2.53356E-09 -2.49620E-09 -2.45925E-09
  -2.42274E-09 -2.38674E-09 -2.35132E-09 -2.31652E-09 -2.28241E-09 -2.24903E-09 -2.21645E-09 -2.18471E-09 -2.15385E-09 -2.12394E-09
  -2.09503E-09 -2.06714E-09 -2.04035E-09 -2.01466E-09 -1.99014E-09 -1.96683E-09 -1.94476E-09 -1.92395E-09 -1.90447E-09 -1.88633E-09
  -1.86956E-09 -1.85417E-09 -1.84010E-09 -1.82730E-09 -1.81572E-09 -1.80532E-09 -1.79604E-09 -1.78783E-09 -1.78065E-09 -1.77444E-09
  -1.76917E-09 -1.76477E-09 -1.76121E-09 -1.75843E-09 -1.75640E-09 -1.75505E-09 -1.75437E-09 -1.75429E-09 -1.75477E-09 -1.75576E-09
  -1.75724E-09 -1.75914E-09 -1.76145E-09 -1.76409E-09 -1.76705E-09 -1.77028E-09 -1.77374E-09 -1.77739E-09 -1.78120E-09 -1.78512E-09
  -1.78913E-09 -1.79318E-09 -1.79724E-09 -1.80129E-09 -1.80527E-09 -1.80915E-09 -1.81293E-09 -1.81655E-09 -1.81999E-09 -1.82321E-09
  -1.82620E-09 -1.82891E-09 -1.83133E-09 -1.83343E-09 -1.83519E-09 -1.83657E-09 -1.83756E-09 -1.83813E-09 -1.83827E-09 -1.83794E-09
  -1.83714E-09 -1.83584E-09 -1.83402E-09 -1.83168E-09 -1.82878E-09 -1.82532E-09 -1.82129E-09 -1.81667E-09 -1.81144E-09 -1.80560E-09
  -1.79914E-09 -1.79205E-09 -1.78431E-09 -1.77593E-09 -1.76690E-09 -1.75721E-09 -1.74686E-09 -1.73584E-09 -1.72416E-09 -1.71182E-09
  -1.69880E-09 -1.68512E-09 -1.67079E-09
 NY background values follow
     4.047E-09    4.113E-09    4.177E-09    4.240E-09    4.302E-09    4.363E-09    4.423E-09    4.482E-09    4.540E-09    4.596E-09
     4.652E-09    4.706E-09    4.760E-09    4.812E-09    4.863E-09    4.914E-09    4.963E-09    5.011E-09    5.058E-09    5.104E-09
     5.148E-09    5.192E-09    5.235E-09    5.277E-09    5.317E-09    5.357E-09    5.395E-09    5.433E-09    5.470E-09    5.505E-09
     5.540E-09    5.573E-09    5.605E-09    5.637E-09    5.667E-09    5.697E-09    5.726E-09    5.753E-09    5.780E-09    5.805E-09
     5.830E-09    5.854E-09    5.877E-09    5.899E-09    5.920E-09    5.940E-09    5.960E-09    5.978E-09    5.996E-09    6.012E-09
     6.028E-09    6.043E-09    6.058E-09    6.071E-09    6.084E-09    6.096E-09    6.107E-09    6.117E-09    6.127E-09    6.136E-09
     6.144E-09    6.152E-09    6.158E-09    6.165E-09    6.170E-09    6.175E-09    6.179E-09    6.183E-09    6.185E-09    6.188E-09
     6.190E-09    6.191E-09    6.191E-09    6.192E-09    6.191E-09    6.190E-09    6.189E-09    6.187E-09    6.184E-09    6.181E-09
     6.177E-09    6.172E-09    6.167E-09    6.161E-09    6.155E-09    6.148E-09    6.140E-09    6.131E-09    6.122E-09    6.112E-09
     6.101E-09    6.089E-09    6.076E-09    6.063E-09    6.049E-09    6.034E-09    6.018E-09    6.001E-09    5.983E-09    5.964E-09
     5.944E-09    5.923E-09    5.901E-09    5.878E-09    5.854E-09    5.829E-09    5.803E-09    5.775E-09    5.746E-09    5.717E-09
     5.686E-09    5.653E-09    5.620E-09    5.585E-09    5.548E-09    5.511E-09    5.472E-09    5.432E-09    5.390E-09    5.346E-09
     5.302E-09    5.255E-09    5.208E-09    5.158E-09    5.107E-09    5.055E-09    5.001E-09    4.945E-09    4.887E-09    4.828E-09
     4.767E-09    4.704E-09    4.640E-09    4.573E-09    4.505E-09    4.435E-09    4.363E-09    4.289E-09    4.213E-09    4.135E-09
     4.056E-09    3.974E-09    3.890E-09    3.804E-09    3.716E-09    3.626E-09    3.534E-09    3.440E-09    3.343E-09    3.245E-09
     3.145E-09    3.044E-09    2.940E-09    2.835E-09    2.729E-09    2.621E-09    2.512E-09    2.401E-09    2.290E-09    2.177E-09
     2.063E-09    1.948E-09    1.833E-09    1.716E-09    1.599E-09    1.482E-09    1.364E-09    1.245E-09    1.126E-09    1.007E-09
     8.871E-10    7.675E-10    6.479E-10    5.284E-10    4.090E-10    2.899E-10    1.712E-10    5.279E-11   -6.506E-11   -1.823E-10
    -2.989E-10   -4.148E-10   -5.298E-10   -6.438E-10   -7.569E-10   -8.688E-10   -9.796E-10   -1.089E-09   -1.197E-09   -1.304E-09
    -1.409E-09   -1.513E-09   -1.614E-09   -1.715E-09   -1.813E-09   -1.909E-09   -2.004E-09   -2.096E-09   -2.186E-09   -2.274E-09
    -2.359E-09   -2.442E-09   -2.523E-09   -2.601E-09   -2.677E-09   -2.750E-09   -2.820E-09   -2.887E-09   -2.951E-09   -3.013E-09
    -3.071E-09   -3.126E-09   -3.178E-09   -3.227E-09   -3.273E-09   -3.315E-09   -3.354E-09   -3.389E-09   -3.421E-09   -3.450E-09
    -3.475E-09   -3.496E-09   -3.515E-09   -3.530E-09   -3.543E-09   -3.552E-09   -3.558E-09   -3.562E-09   -3.563E-09   -3.561E-09
    -3.557E-09   -3.550E-09   -3.541E-09   -3.530E-09   -3.516E-09   -3.500E-09   -3.482E-09   -3.463E-09   -3.441E-09   -3.417E-09
    -3.392E-09   -3.365E-09   -3.337E-09   -3.307E-09   -3.276E-09   -3.243E-09   -3.210E-09   -3.175E-09   -3.139E-09   -3.102E-09
    -3.064E-09   -3.025E-09   -2.986E-09   -2.946E-09   -2.905E-09   -2.864E-09   -2.822E-09   -2.780E-09   -2.737E-09   -2.695E-09
    -2.652E-09   -2.609E-09   -2.566E-09   -2.523E-09   -2.481E-09   -2.438E-09   -2.396E-09   -2.354E-09   -2.312E-09   -2.271E-09
    -2.230E-09   -2.190E-09   -2.151E-09   -2.112E-09   -2.074E-09   -2.036E-09   -2.000E-09   -1.964E-09   -1.929E-09   -1.896E-09
    -1.863E-09   -1.831E-09   -1.801E-09   -1.771E-09   -1.743E-09   -1.716E-09   -1.690E-09   -1.666E-09   -1.643E-09   -1.621E-09
    -1.601E-09   -1.582E-09   -1.565E-09   -1.549E-09   -1.534E-09   -1.520E-09   -1.507E-09   -1.496E-09   -1.485E-09   -1.476E-09
    -1.468E-09   -1.460E-09   -1.453E-09   -1.447E-09   -1.442E-09   -1.438E-09   -1.434E-09   -1.431E-09   -1.429E-09   -1.427E-09
    -1.425E-09   -1.424E-09   -1.424E-09   -1.424E-09   -1.424E-09   -1.424E-09   -1.425E-09   -1.426E-09   -1.427E-09   -1.428E-09
    -1.429E-09   -1.431E-09   -1.432E-09   -1.434E-09   -1.435E-09   -1.437E-09   -1.438E-09   -1.439E-09   -1.440E-09   -1.441E-09
    -1.441E-09   -1.441E-09   -1.442E-09   -1.441E-09   -1.441E-09   -1.440E-09   -1.438E-09   -1.437E-09   -1.435E-09   -1.432E-09
    -1.429E-09   -1.425E-09   -1.422E-09   -1.417E-09   -1.412E-09   -1.406E-09   -1.400E-09   -1.394E-09   -1.386E-09   -1.378E-09
    -1.370E-09   -1.361E-09   -1.351E-09   -1.341E-09   -1.330E-09   -1.318E-09   -1.306E-09   -1.293E-09   -1.280E-09   -1.265E-09
    -1.251E-09   -1.235E-09   -1.219E-09
 Glc      Conc. = 4.07E-10
   3.67731E-09  3.88410E-09  4.09637E-09  4.32543E-09  4.53934E-09  4.72427E-09  4.85073E-09  4.93688E-09  4.95778E-09  4.91727E-09
   4.88516E-09  4.86435E-09  4.85344E-09  4.87921E-09  4.96737E-09  5.11446E-09  5.31563E-09  5.56553E-09  5.82295E-09  6.06541E-09
   6.29720E-09  6.49858E-09  6.64642E-09  6.73119E-09  6.71305E-09  6.60456E-09  6.50917E-09  6.46004E-09  6.44984E-09  6.46033E-09
   6.46338E-09  6.46006E-09  6.46423E-09  6.45855E-09  6.43454E-09  6.41723E-09  6.40562E-09  6.38614E-09  6.36557E-09  6.35229E-09
   6.34443E-09  6.34000E-09  6.33812E-09  6.33800E-09  6.33922E-09  6.34140E-09  6.34429E-09  6.34763E-09  6.35129E-09  6.35513E-09
   6.35902E-09  6.36291E-09  6.36666E-09  6.37026E-09  6.37368E-09  6.37680E-09  6.37964E-09  6.38220E-09  6.38434E-09  6.38616E-09
   6.38761E-09  6.38864E-09  6.38929E-09  6.38952E-09  6.38936E-09  6.38877E-09  6.38776E-09  6.38632E-09  6.38447E-09  6.38222E-09
   6.37954E-09  6.37645E-09  6.37300E-09  6.36911E-09  6.36484E-09  6.36015E-09  6.35502E-09  6.34944E-09  6.34337E-09  6.33682E-09
   6.32974E-09  6.32213E-09  6.31396E-09  6.30521E-09  6.29588E-09  6.28593E-09  6.27533E-09  6.26409E-09  6.25217E-09  6.23955E-09
   6.22619E-09  6.21212E-09  6.19725E-09  6.18163E-09  6.16518E-09  6.14789E-09  6.12975E-09  6.11074E-09  6.09082E-09  6.06997E-09
   6.04818E-09  6.02541E-09  6.00164E-09  5.97687E-09  5.95102E-09  5.92411E-09  5.89610E-09  5.86699E-09  5.83672E-09  5.80524E-09
   5.77262E-09  5.73874E-09  5.70360E-09  5.66719E-09  5.62947E-09  5.59043E-09  5.55004E-09  5.50827E-09  5.46506E-09  5.42047E-09
   5.37436E-09  5.32680E-09  5.27771E-09  5.22708E-09  5.17490E-09  5.12110E-09  5.06567E-09  5.00862E-09  4.94989E-09  4.88945E-09
   4.82730E-09  4.76337E-09  4.69769E-09  4.63020E-09  4.56088E-09  4.48967E-09  4.41664E-09  4.34167E-09  4.26478E-09  4.18591E-09
   4.10508E-09  4.02225E-09  3.93739E-09  3.85046E-09  3.76147E-09  3.67038E-09  3.57719E-09  3.48198E-09  3.38481E-09  3.28576E-09
   3.18490E-09  3.08231E-09  2.97807E-09  2.87227E-09  2.76498E-09  2.65630E-09  2.54631E-09  2.43512E-09  2.32284E-09  2.20960E-09
   2.09554E-09  1.98094E-09  1.86610E-09  1.75171E-09  1.63919E-09  1.53282E-09  1.45237E-09  1.46370E-09  1.51660E-09  1.56943E-09
   1.59834E-09  1.58973E-09  1.54025E-09  1.45152E-09  1.32187E-09  1.13328E-09  8.55995E-10  4.88761E-10  1.29039E-10 -6.10691E-11
  -2.07101E-10 -3.39042E-10 -4.64365E-10 -5.85677E-10 -7.04158E-10 -8.20372E-10 -9.34597E-10 -1.04695E-09 -1.15755E-09 -1.26640E-09
  -1.37345E-09 -1.47872E-09 -1.58214E-09 -1.68368E-09 -1.78323E-09 -1.88078E-09 -1.97626E-09 -2.06956E-09 -2.16063E-09 -2.24943E-09
  -2.33587E-09 -2.41987E-09 -2.50136E-09 -2.58029E-09 -2.65658E-09 -2.73014E-09 -2.80093E-09 -2.86887E-09 -2.93391E-09 -2.99593E-09
  -3.05495E-09 -3.11083E-09 -3.16354E-09 -3.21301E-09 -3.25920E-09 -3.30201E-09 -3.34141E-09 -3.37735E-09 -3.40975E-09 -3.43868E-09
  -3.46422E-09 -3.48645E-09 -3.50545E-09 -3.52130E-09 -3.53408E-09 -3.54389E-09 -3.55081E-09 -3.55491E-09 -3.55628E-09 -3.55501E-09
  -3.55118E-09 -3.54487E-09 -3.53617E-09 -3.52517E-09 -3.51194E-09 -3.49658E-09 -3.47916E-09 -3.45977E-09 -3.43849E-09 -3.41541E-09
  -3.39060E-09 -3.36417E-09 -3.33617E-09 -3.30670E-09 -3.27584E-09 -3.24367E-09 -3.21026E-09 -3.17572E-09 -3.14010E-09 -3.10348E-09
  -3.06597E-09 -3.02761E-09 -2.98851E-09 -2.94872E-09 -2.90832E-09 -2.86741E-09 -2.82603E-09 -2.78428E-09 -2.74222E-09 -2.69992E-09
  -2.65746E-09 -2.61491E-09 -2.57234E-09 -2.52981E-09 -2.48738E-09 -2.44513E-09 -2.40314E-09 -2.36144E-09 -2.32011E-09 -2.27921E-09
  -2.23880E-09 -2.19894E-09 -2.15970E-09 -2.12110E-09 -2.08324E-09 -2.04614E-09 -2.00987E-09 -1.97449E-09 -1.94002E-09 -1.90653E-09
  -1.87407E-09 -1.84267E-09 -1.81239E-09 -1.78325E-09 -1.75532E-09 -1.72862E-09 -1.70320E-09 -1.67906E-09 -1.65628E-09 -1.63488E-09
  -1.61487E-09 -1.59627E-09 -1.57902E-09 -1.56308E-09 -1.54838E-09 -1.53489E-09 -1.52254E-09 -1.51129E-09 -1.50110E-09 -1.49191E-09
  -1.48368E-09 -1.47635E-09 -1.46989E-09 -1.46423E-09 -1.45934E-09 -1.45518E-09 -1.45169E-09 -1.44883E-09 -1.44656E-09 -1.44483E-09
  -1.44360E-09 -1.44282E-09 -1.44247E-09 -1.44248E-09 -1.44283E-09 -1.44348E-09 -1.44438E-09 -1.44549E-09 -1.44678E-09 -1.44821E-09
  -1.44975E-09 -1.45135E-09 -1.45298E-09 -1.45462E-09 -1.45622E-09 -1.45774E-09 -1.45918E-09 -1.46048E-09 -1.46162E-09 -1.46257E-09
  -1.46330E-09 -1.46378E-09 -1.46398E-09 -1.46389E-09 -1.46347E-09 -1.46270E-09 -1.46156E-09 -1.46001E-09 -1.45806E-09 -1.45565E-09
  -1.45280E-09 -1.44946E-09 -1.44563E-09 -1.44129E-09 -1.43641E-09 -1.43100E-09 -1.42502E-09 -1.41848E-09 -1.41135E-09 -1.40363E-09
  -1.39530E-09 -1.38636E-09 -1.37680E-09 -1.36661E-09 -1.35579E-09 -1.34432E-09 -1.33222E-09 -1.31947E-09 -1.30606E-09 -1.29202E-09
  -1.27732E-09 -1.26197E-09 -1.24599E-09
 Gln      Conc. = 9.28E-10
   3.35698E-09  3.52180E-09  3.74300E-09  4.01503E-09  4.31764E-09  4.62529E-09  4.90562E-09  5.12825E-09  5.28870E-09  5.42815E-09
   5.45402E-09  5.41335E-09  5.39034E-09  5.30625E-09  5.25122E-09  5.22296E-09  5.21113E-09  5.20980E-09  5.21549E-09  5.22600E-09
   5.23986E-09  5.25604E-09  5.27380E-09  5.29265E-09  5.31228E-09  5.33244E-09  5.35268E-09  5.37288E-09  5.39289E-09  5.41245E-09
   5.43144E-09  5.44973E-09  5.46722E-09  5.48384E-09  5.49948E-09  5.51410E-09  5.52756E-09  5.53981E-09  5.55077E-09  5.56029E-09
   5.56834E-09  5.57478E-09  5.57958E-09  5.58259E-09  5.58369E-09  5.58271E-09  5.57952E-09  5.57364E-09  5.56504E-09  5.55381E-09
   5.53933E-09  5.52186E-09  5.50287E-09  5.48863E-09  5.51510E-09  5.62245E-09  5.76003E-09  5.95222E-09  6.24028E-09  6.58350E-09
   6.93233E-09  7.28014E-09  7.58903E-09  7.80831E-09  7.89300E-09  7.83934E-09  7.72954E-09  7.58731E-09  7.28838E-09  6.98996E-09
   6.79190E-09  6.65153E-09  6.56169E-09  6.55068E-09  6.63020E-09  6.80506E-09  7.02348E-09  7.27269E-09  7.53417E-09  7.78157E-09
   7.99114E-09  8.11727E-09  8.12192E-09  8.09258E-09  8.01477E-09  7.81422E-09  7.62385E-09  7.47268E-09  7.29073E-09  7.13797E-09
   7.01981E-09  6.92402E-09  6.84360E-09  6.77371E-09  6.71086E-09  6.65365E-09  6.60087E-09  6.55133E-09  6.50441E-09  6.45954E-09
   6.41612E-09  6.37368E-09  6.33196E-09  6.29078E-09  6.24991E-09  6.20919E-09  6.16840E-09  6.12743E-09  6.08613E-09  6.04435E-09
   6.00209E-09  5.95919E-09  5.91557E-09  5.87118E-09  5.82593E-09  5.77978E-09  5.73266E-09  5.68451E-09  5.63525E-09  5.58491E-09
   5.53333E-09  5.48055E-09  5.42648E-09  5.37110E-09  5.31436E-09  5.25622E-09  5.19661E-09  5.13556E-09  5.07299E-09  5.00886E-09
   4.94316E-09  4.87581E-09  4.80684E-09  4.73617E-09  4.66379E-09  4.58962E-09  4.51374E-09  4.43601E-09  4.35645E-09  4.27499E-09
   4.19166E-09  4.10640E-09  4.01920E-09  3.92998E-09  3.83878E-09  3.74555E-09  3.65029E-09  3.55306E-09  3.45394E-09  3.35301E-09
   3.25033E-09  3.14599E-09  3.04007E-09  2.93266E-09  2.82385E-09  2.71374E-09  2.60245E-09  2.49010E-09  2.37685E-09  2.26290E-09
   2.14851E-09  2.03413E-09  1.92042E-09  1.80871E-09  1.70197E-09  1.60866E-09  1.56541E-09  1.72923E-09  1.99800E-09  2.27272E-09
   2.49608E-09  2.63498E-09  2.68019E-09  2.63518E-09  2.49821E-09  2.23171E-09  1.76716E-09  1.08896E-09  3.96829E-10  9.17775E-11
  -9.59881E-11 -2.49480E-10 -3.88135E-10 -5.18623E-10 -6.43882E-10 -7.65363E-10 -8.83841E-10 -9.99730E-10 -1.11335E-09 -1.22482E-09
  -1.33419E-09 -1.44153E-09 -1.54683E-09 -1.65009E-09 -1.75123E-09 -1.85025E-09 -1.94711E-09 -2.04171E-09 -2.13400E-09 -2.22397E-09
  -2.31151E-09 -2.39658E-09 -2.47908E-09 -2.55898E-09 -2.63621E-09 -2.71068E-09 -2.78234E-09 -2.85113E-09 -2.91700E-09 -2.97982E-09
  -3.03961E-09 -3.09625E-09 -3.14969E-09 -3.19988E-09 -3.24678E-09 -3.29028E-09 -3.33034E-09 -3.36694E-09 -3.39999E-09 -3.42955E-09
  -3.45570E-09 -3.47854E-09 -3.49813E-09 -3.51457E-09 -3.52792E-09 -3.53830E-09 -3.54577E-09 -3.55041E-09 -3.55232E-09 -3.55157E-09
