 LCModel (Version 6.3-1R) Copyright: S.W. Provencher.          Ref.: Magn. Reson. Med. 30:672-679 (1993).                
 onepulse 14x10_ftSpec_smooth_lcm
 26 lines in following concentration table = NCONC+1
    Conc.  %SD   /Cr    Metabolite                                         
    0.000 999%   0.000 Ala                                                 
 1.84E-10 384%   0.000 Asp                                                 
    0.000 999%   0.000 Cr                                                  
 2.56E-10 211%   0.000 GABA                                                
 4.22E-11 999%   0.000 Glc                                                 
 1.94E-09  32%   0.000 Gln                                                 
    0.000 999%   0.000 Glu                                                 
 3.24E-09  19%   0.000 Glyc                                                
    0.000 999%   0.000 GPC                                                 
 2.11E-09  26%   0.000 GSH                                                 
    0.000 999%   0.000 Ins                                                 
    0.000 999%   0.000 Lac                                                 
 3.39E-10  63%   0.000 NAAG                                                
    0.000 999%   0.000 NAA                                                 
    0.000 999%   0.000 PCh                                                 
    0.000 999%   0.000 PCr                                                 
 3.72E-09  17%   0.000 PE                                                  
 3.19E-10  64%   0.000 Scyllo                                              
    0.000 999%   0.000 Ser                                                 
    0.000 999%   0.000 Tau                                                 
    0.000 999%   0.000 GPC+PCh                                             
 3.39E-10  63%   0.000 NAA+NAAG                                            
 3.24E-09  19%   0.000 Ins+Glyc                                            
    0.000 999%   0.000 Cr+PCr                                              
 1.94E-09  32%   0.000 Glu+Gln                                             
   6 lines in following misc. output table
  FWHM = 0.123 ppm    S/N =   4                                            
  Data shift = 0.425 ppm                                                   
  Ph: -16 deg     -50.5 deg/ppm                                            
  alphaB,S = 3.8E-01,   2.0E+01                                            
   10 spline knots.   Ns = 5(1)                                            
  (12) 6 infls.   ( 9) 3 extrs.                                            
  363 points on ppm-axis = NY
      4.250000     4.238821     4.227641     4.216462     4.205282     4.194103     4.182923     4.171744     4.160564     4.149385
      4.138206     4.127026     4.115847     4.104667     4.093488     4.082308     4.071129     4.059949     4.048770     4.037591
      4.026411     4.015232     4.004052     3.992873     3.981693     3.970514     3.959334     3.948155     3.936975     3.925796
      3.914617     3.903437     3.892258     3.881078     3.869899     3.858719     3.847540     3.836360     3.825181     3.814002
      3.802822     3.791643     3.780463     3.769284     3.758104     3.746925     3.735745     3.724566     3.713387     3.702207
      3.691028     3.679848     3.668669     3.657489     3.646310     3.635130     3.623951     3.612772     3.601592     3.590413
      3.579233     3.568054     3.556874     3.545695     3.534515     3.523336     3.512156     3.500977     3.489798     3.478618
      3.467439     3.456259     3.445080     3.433900     3.422721     3.411541     3.400362     3.389183     3.378003     3.366824
      3.355644     3.344465     3.333285     3.322106     3.310926     3.299747     3.288568     3.277388     3.266209     3.255029
      3.243850     3.232670     3.221491     3.210311     3.199132     3.187953     3.176773     3.165594     3.154414     3.143235
      3.132055     3.120876     3.109696     3.098517     3.087337     3.076158     3.064979     3.053799     3.042620     3.031440
      3.020261     3.009081     2.997902     2.986722     2.975543     2.964364     2.953184     2.942005     2.930825     2.919646
      2.908466     2.897287     2.886107     2.874928     2.863749     2.852569     2.841390     2.830210     2.819031     2.807851
      2.796672     2.785492     2.774313     2.763134     2.751954     2.740775     2.729595     2.718416     2.707236     2.696057
      2.684877     2.673698     2.662519     2.651339     2.640160     2.628980     2.617801     2.606621     2.595442     2.584262
      2.573083     2.561903     2.550724     2.539545     2.528365     2.517186     2.506006     2.494827     2.483647     2.472468
      2.461288     2.450109     2.438930     2.427750     2.416571     2.405391     2.394212     2.383032     2.371853     2.360673
      2.349494     2.338315     2.327135     2.315956     2.304776     2.293597     2.282417     2.271238     2.260058     2.248879
      2.237700     2.226520     2.215341     2.204161     2.192982     2.181802     2.170623     2.159443     2.148264     2.137084
      2.125905     2.114726     2.103546     2.092367     2.081187     2.070008     2.058828     2.047649     2.036469     2.025290
      2.014111     2.002931     1.991752     1.980572     1.969393     1.958213     1.947034     1.935854     1.924675     1.913496
      1.902316     1.891137     1.879957     1.868778     1.857598     1.846419     1.835239     1.824060     1.812881     1.801701
      1.790522     1.779342     1.768163     1.756983     1.745804     1.734624     1.723445     1.712265     1.701086     1.689907
      1.678727     1.667548     1.656368     1.645189     1.634009     1.622830     1.611650     1.600471     1.589292     1.578112
      1.566933     1.555753     1.544574     1.533394     1.522215     1.511035     1.499856     1.488677     1.477497     1.466318
      1.455138     1.443959     1.432779     1.421600     1.410420     1.399241     1.388062     1.376882     1.365703     1.354523
      1.343344     1.332164     1.320985     1.309805     1.298626     1.287446     1.276267     1.265088     1.253908     1.242729
      1.231549     1.220370     1.209190     1.198011     1.186831     1.175652     1.164473     1.153293     1.142114     1.130934
      1.119755     1.108575     1.097396     1.086216     1.075037     1.063858     1.052678     1.041499     1.030319     1.019140
      1.007960     0.996781     0.985601     0.974422     0.963243     0.952063     0.940884     0.929704     0.918525     0.907345
      0.896166     0.884986     0.873807     0.862628     0.851448     0.840269     0.829089     0.817910     0.806730     0.795551
      0.784371     0.773192     0.762012     0.750833     0.739654     0.728474     0.717295     0.706115     0.694936     0.683756
      0.672577     0.661397     0.650218     0.639039     0.627859     0.616680     0.605500     0.594321     0.583141     0.571962
      0.560782     0.549603     0.538424     0.527244     0.516065     0.504885     0.493706     0.482526     0.471347     0.460167
      0.448988     0.437809     0.426629     0.415450     0.404270     0.393091     0.381911     0.370732     0.359552     0.348373
      0.337193     0.326014     0.314835     0.303655     0.292476     0.281296     0.270117     0.258937     0.247758     0.236578
      0.225399     0.214220     0.203040
 NY phased data points follow
   1.25180E-08  1.17605E-08  1.23296E-08  1.22941E-08  1.32322E-08  1.32799E-08  1.31609E-08  1.40145E-08  1.44736E-08  1.40814E-08
   1.41104E-08  1.37713E-08  1.36469E-08  1.34536E-08  1.30739E-08  1.24025E-08  1.30199E-08  1.24458E-08  1.41692E-08  1.41508E-08
   1.37442E-08  1.26555E-08  1.23244E-08  1.18091E-08  1.37074E-08  1.46956E-08  1.57226E-08  1.58790E-08  1.54735E-08  1.41073E-08
   1.33319E-08  1.21076E-08  1.23571E-08  1.18048E-08  1.16173E-08  1.19379E-08  1.16889E-08  1.09211E-08  1.15695E-08  1.07587E-08
   1.04217E-08  1.00485E-08  1.01241E-08  9.86475E-09  9.99295E-09  9.83390E-09  1.04826E-08  9.71258E-09  9.32430E-09  8.64832E-09
   8.10838E-09  8.34034E-09  8.95053E-09  8.93522E-09  9.27916E-09  9.69284E-09  1.17836E-08  1.44565E-08  1.57673E-08  1.50239E-08
   1.37542E-08  1.32662E-08  1.24978E-08  1.16768E-08  1.11116E-08  1.08635E-08  9.84590E-09  9.39828E-09  8.51828E-09  8.67263E-09
   6.95800E-09  7.48225E-09  8.43403E-09  1.39914E-08  1.66141E-08  1.78244E-08  1.63537E-08  1.62439E-08  1.56368E-08  1.55924E-08
   1.43809E-08  1.42785E-08  1.39589E-08  1.43297E-08  1.35206E-08  1.32306E-08  1.35262E-08  1.27251E-08  1.24985E-08  1.23350E-08
   1.14458E-08  1.15536E-08  1.06809E-08  1.01136E-08  9.56618E-09  1.01794E-08  1.04017E-08  9.91747E-09  9.52525E-09  9.72629E-09
   9.79798E-09  1.00285E-08  9.04549E-09  8.21538E-09  8.25082E-09  7.11350E-09  6.84754E-09  7.61993E-09  8.28541E-09  7.64789E-09
   7.96471E-09  8.24545E-09  8.35661E-09  7.87800E-09  8.53083E-09  8.90993E-09  8.44558E-09  7.84710E-09  7.98724E-09  7.24468E-09
   5.77372E-09  6.46911E-09  6.77513E-09  6.39390E-09  6.04581E-09  6.73465E-09  6.96089E-09  7.27589E-09  7.09685E-09  7.40784E-09
   6.89016E-09  6.86683E-09  5.74220E-09  6.83549E-09  8.34044E-09  8.91138E-09  8.67581E-09  8.76173E-09  8.57803E-09  9.73223E-09
   1.02653E-08  1.03045E-08  1.02952E-08  1.07959E-08  1.03829E-08  1.13540E-08  1.02694E-08  1.04650E-08  1.02563E-08  1.04675E-08
   1.02360E-08  1.04930E-08  1.09156E-08  1.06647E-08  1.04888E-08  1.02591E-08  1.04778E-08  1.06933E-08  1.04904E-08  1.01043E-08
   9.57220E-09  1.03483E-08  7.97055E-09  5.34275E-09  8.04385E-09  1.46953E-08  1.91588E-08  2.15483E-08  2.13629E-08  2.23909E-08
   2.30967E-08  2.26513E-08  2.24634E-08  2.23018E-08  2.23684E-08  2.20474E-08  2.10186E-08  2.11309E-08  1.93945E-08  1.86535E-08
   1.68550E-08  1.45326E-08  1.24077E-08  1.00293E-08  7.43329E-09  4.48772E-09  1.74871E-09 -5.08062E-10 -2.96355E-09 -5.00259E-09
  -7.55995E-09 -8.47878E-09 -9.27875E-09 -9.90480E-09 -1.01158E-08 -8.89558E-09 -8.89549E-09 -7.69599E-09 -6.55758E-09 -5.48399E-09
  -4.75898E-09 -3.49594E-09 -2.44243E-09 -2.14065E-09 -2.01768E-09 -8.40787E-10 -2.24819E-09 -1.40404E-09 -2.11423E-09 -1.62231E-09
  -1.72216E-09 -2.19173E-09 -1.45296E-09 -1.68189E-09 -1.45976E-09 -1.06063E-09 -8.38640E-10 -7.47317E-10 -9.69209E-10 -9.29511E-10
  -8.19666E-10 -1.64479E-09 -1.20814E-09 -1.51096E-09 -1.29646E-09 -1.01982E-09 -5.20668E-10 -6.94001E-10 -9.04419E-10 -8.72750E-10
  -6.16542E-10 -8.11290E-10 -2.87459E-10 -9.42339E-10 -1.11212E-09 -1.79919E-09 -1.72572E-09 -1.80076E-09 -1.38265E-09 -1.69426E-09
  -1.22061E-09 -1.13741E-09 -7.06574E-10 -6.63854E-10 -9.42294E-10 -6.77468E-10 -5.24186E-10 -4.98622E-10 -8.72632E-10 -1.05191E-09
  -2.51388E-10 -8.91559E-10 -6.74269E-10 -9.10742E-10 -4.25531E-10 -1.33517E-09 -8.35412E-10 -1.83028E-09 -1.55454E-09 -1.56164E-09
  -1.89491E-09 -2.25164E-09 -2.01861E-09 -2.49439E-09 -2.10997E-09 -2.68255E-09 -2.37760E-09 -2.76573E-09 -1.56934E-09 -1.82873E-09
  -1.16952E-09 -1.25771E-09 -8.09444E-10 -1.04258E-09 -1.56693E-10 -1.16834E-09 -6.47365E-11 -6.27018E-10  1.85383E-10 -5.25496E-10
   5.59772E-10 -2.53727E-10  3.05988E-10 -4.70683E-10  3.85940E-10 -5.70503E-11  5.18648E-10 -2.94200E-10  1.61568E-10 -2.14511E-10
   2.18416E-10 -1.96309E-11  5.56241E-10 -1.80346E-10  2.14686E-10 -7.66059E-10  9.46074E-12 -9.15442E-11  3.09111E-11 -3.69245E-10
  -2.36145E-10 -1.32167E-10 -2.71645E-10 -6.72825E-10 -3.06186E-10 -8.74348E-10 -3.85821E-10 -6.91339E-10 -4.21651E-10 -1.33305E-09
  -5.29223E-10 -1.02382E-09 -4.05570E-10 -1.18319E-09 -8.44326E-10 -8.04058E-10 -3.30677E-10 -1.48775E-09 -9.99452E-10 -1.47251E-09
  -7.36345E-10 -9.49214E-10 -6.25574E-10 -1.64371E-09 -3.68011E-10 -1.38028E-09 -7.72840E-10 -1.21227E-09 -1.07671E-09 -1.39453E-09
  -8.85933E-10 -1.12503E-09 -1.31910E-09 -1.52365E-09 -1.07869E-09 -1.24343E-09 -1.41594E-09 -1.79060E-09 -1.28113E-09 -1.73771E-09
  -1.41091E-09 -1.84529E-09 -2.00496E-09 -1.98964E-09 -1.24896E-09 -1.90346E-09 -1.92927E-09 -1.79457E-09 -1.66311E-09 -1.73074E-09
  -1.64602E-09 -1.70093E-09 -1.81692E-09 -1.90093E-09 -1.65967E-09 -1.98522E-09 -1.82269E-09 -1.68031E-09 -2.55563E-09 -2.03001E-09
  -2.37704E-09 -1.58875E-09 -2.16227E-09
 NY points of the fit to the data follow
   1.40521E-08  1.34515E-08  1.33515E-08  1.26722E-08  1.23058E-08  1.21888E-08  1.22649E-08  1.26849E-08  1.32614E-08  1.45484E-08
   1.44299E-08  1.41149E-08  1.32567E-08  1.28013E-08  1.25918E-08  1.24489E-08  1.26113E-08  1.38503E-08  1.63401E-08  1.62065E-08
   1.19473E-08  1.10246E-08  1.15219E-08  1.26681E-08  1.34356E-08  1.46485E-08  1.55204E-08  1.58726E-08  1.52929E-08  1.41712E-08
   1.39081E-08  1.31894E-08  1.21344E-08  1.17274E-08  1.16922E-08  1.13219E-08  1.08325E-08  1.11432E-08  1.11922E-08  1.10738E-08
   1.09852E-08  1.10527E-08  1.12355E-08  1.12313E-08  1.06127E-08  9.53503E-09  9.30236E-09  8.24308E-09  7.64555E-09  7.65978E-09
   8.14976E-09  8.71016E-09  8.95248E-09  9.81156E-09  1.11211E-08  1.15877E-08  1.19172E-08  1.29432E-08  1.36626E-08  1.36679E-08
   1.36096E-08  1.32893E-08  1.31725E-08  1.31122E-08  1.20696E-08  1.11079E-08  1.10972E-08  1.07673E-08  9.82761E-09  9.82893E-09
   1.04740E-08  1.07831E-08  1.15194E-08  1.22242E-08  1.30922E-08  1.41813E-08  1.52406E-08  1.58611E-08  1.61630E-08  1.63426E-08
   1.60672E-08  1.56494E-08  1.52025E-08  1.44475E-08  1.40071E-08  1.32780E-08  1.21460E-08  1.09577E-08  1.02732E-08  9.89224E-09
   9.60232E-09  9.40829E-09  9.31570E-09  9.19793E-09  9.04204E-09  8.99298E-09  8.93344E-09  8.83636E-09  8.79449E-09  8.74659E-09
   8.70531E-09  8.68992E-09  8.67818E-09  8.66772E-09  8.66475E-09  8.66739E-09  8.67370E-09  8.68284E-09  8.69354E-09  8.70551E-09
   8.71835E-09  8.73161E-09  8.74500E-09  8.75823E-09  8.77105E-09  8.78328E-09  8.79471E-09  8.80514E-09  8.81440E-09  8.82232E-09
   8.82876E-09  8.83360E-09  8.83670E-09  8.83793E-09  8.83718E-09  8.83432E-09  8.82925E-09  8.82187E-09  8.81206E-09  8.79974E-09
   8.78480E-09  8.76715E-09  8.74671E-09  8.72339E-09  8.69709E-09  8.66775E-09  8.63528E-09  8.59962E-09  8.56068E-09  8.51841E-09
   8.47274E-09  8.42362E-09  8.37101E-09  8.31487E-09  8.25515E-09  8.19184E-09  8.12496E-09  8.05450E-09  7.98053E-09  7.90312E-09
   7.82236E-09  7.73847E-09  7.65169E-09  7.56238E-09  7.47106E-09  7.37846E-09  7.28572E-09  7.19461E-09  7.10786E-09  7.02955E-09
   6.96627E-09  6.92937E-09  6.94037E-09  7.04544E-09  7.36383E-09  8.31073E-09  1.20524E-08  1.91308E-08  2.34281E-08  2.39869E-08
   2.37006E-08  2.35136E-08  2.31769E-08  2.27642E-08  2.27175E-08  2.33664E-08  2.33526E-08  1.88311E-08  1.07695E-08  6.30270E-09
   4.86154E-09  4.15689E-09  3.69680E-09  3.34601E-09  3.05329E-09  2.79529E-09  2.55981E-09  2.34000E-09  2.13182E-09  1.93268E-09
   1.74091E-09  1.55546E-09  1.37558E-09  1.20086E-09  1.03093E-09  8.65656E-10  7.04938E-10  5.48778E-10  3.97150E-10  2.50153E-10
   1.07860E-10 -2.96244E-11 -1.62166E-10 -2.89639E-10 -4.11884E-10 -5.28752E-10 -6.40041E-10 -7.45647E-10 -8.45408E-10 -9.39474E-10
  -1.02797E-09 -1.11105E-09 -1.18884E-09 -1.26149E-09 -1.32912E-09 -1.39188E-09 -1.44988E-09 -1.50326E-09 -1.55217E-09 -1.59671E-09
  -1.63701E-09 -1.67322E-09 -1.70545E-09 -1.73382E-09 -1.75847E-09 -1.77952E-09 -1.79708E-09 -1.81131E-09 -1.82232E-09 -1.83021E-09
  -1.83511E-09 -1.83718E-09 -1.83649E-09 -1.83322E-09 -1.82744E-09 -1.81932E-09 -1.80896E-09 -1.79647E-09 -1.78199E-09 -1.76565E-09
  -1.74754E-09 -1.72781E-09 -1.70657E-09 -1.68396E-09 -1.66007E-09 -1.63505E-09 -1.60902E-09 -1.58211E-09 -1.55439E-09 -1.52601E-09
  -1.49711E-09 -1.46782E-09 -1.43822E-09 -1.40844E-09 -1.37865E-09 -1.34890E-09 -1.31936E-09 -1.29012E-09 -1.26133E-09 -1.23311E-09
  -1.20550E-09 -1.17852E-09 -1.15219E-09 -1.12650E-09 -1.10146E-09 -1.07708E-09 -1.05336E-09 -1.03031E-09 -1.00794E-09 -9.86241E-10
  -9.65234E-10 -9.44913E-10 -9.25293E-10 -9.06371E-10 -8.88153E-10 -8.70656E-10 -8.53873E-10 -8.37816E-10 -8.22483E-10 -8.07893E-10
  -7.94034E-10 -7.80930E-10 -7.68566E-10 -7.56960E-10 -7.46123E-10 -7.36052E-10 -7.26746E-10 -7.18220E-10 -7.10482E-10 -7.03535E-10
  -6.97378E-10 -6.92015E-10 -6.87456E-10 -6.83717E-10 -6.80783E-10 -6.78678E-10 -6.77391E-10 -6.76935E-10 -6.77313E-10 -6.78537E-10
  -6.80611E-10 -6.83520E-10 -6.87300E-10 -6.91933E-10 -6.97431E-10 -7.03810E-10 -7.11065E-10 -7.19190E-10 -7.28218E-10 -7.38124E-10
  -7.48936E-10 -7.60659E-10 -7.73256E-10 -7.86718E-10 -8.01020E-10 -8.16141E-10 -8.32057E-10 -8.48744E-10 -8.66180E-10 -8.84342E-10
  -9.03209E-10 -9.22752E-10 -9.42953E-10 -9.63789E-10 -9.85236E-10 -1.00727E-09 -1.02987E-09 -1.05301E-09 -1.07667E-09 -1.10083E-09
  -1.12546E-09 -1.15054E-09 -1.17604E-09 -1.20196E-09 -1.22825E-09 -1.25490E-09 -1.28189E-09 -1.30919E-09 -1.33678E-09 -1.36464E-09
  -1.39275E-09 -1.42108E-09 -1.44960E-09 -1.47830E-09 -1.50716E-09 -1.53614E-09 -1.56524E-09 -1.59442E-09 -1.62367E-09 -1.65295E-09
  -1.68225E-09 -1.71155E-09 -1.74082E-09 -1.77004E-09 -1.79918E-09 -1.82823E-09 -1.85717E-09 -1.88596E-09 -1.91459E-09 -1.94303E-09
  -1.97127E-09 -1.99928E-09 -2.02703E-09
 NY background values follow
    -1.253E-09   -1.160E-09   -1.067E-09   -9.744E-10   -8.814E-10   -7.883E-10   -6.952E-10   -6.021E-10   -5.090E-10   -4.158E-10
    -3.227E-10   -2.296E-10   -1.365E-10   -4.342E-11    4.960E-11    1.426E-10    2.355E-10    3.283E-10    4.210E-10    5.137E-10
     6.062E-10    6.987E-10    7.910E-10    8.832E-10    9.752E-10    1.067E-09    1.159E-09    1.250E-09    1.342E-09    1.433E-09
     1.524E-09    1.615E-09    1.706E-09    1.796E-09    1.886E-09    1.976E-09    2.066E-09    2.155E-09    2.244E-09    2.333E-09
     2.421E-09    2.510E-09    2.598E-09    2.685E-09    2.772E-09    2.859E-09    2.946E-09    3.032E-09    3.118E-09    3.203E-09
     3.289E-09    3.373E-09    3.458E-09    3.541E-09    3.625E-09    3.708E-09    3.790E-09    3.872E-09    3.954E-09    4.035E-09
     4.116E-09    4.196E-09    4.275E-09    4.354E-09    4.433E-09    4.511E-09    4.588E-09    4.665E-09    4.741E-09    4.817E-09
     4.892E-09    4.966E-09    5.040E-09    5.113E-09    5.185E-09    5.257E-09    5.328E-09    5.398E-09    5.468E-09    5.537E-09
     5.605E-09    5.672E-09    5.739E-09    5.804E-09    5.870E-09    5.934E-09    5.997E-09    6.060E-09    6.122E-09    6.183E-09
     6.243E-09    6.302E-09    6.360E-09    6.418E-09    6.474E-09    6.530E-09    6.585E-09    6.638E-09    6.691E-09    6.743E-09
     6.794E-09    6.844E-09    6.893E-09    6.941E-09    6.987E-09    7.033E-09    7.078E-09    7.121E-09    7.163E-09    7.204E-09
     7.243E-09    7.281E-09    7.317E-09    7.352E-09    7.384E-09    7.415E-09    7.444E-09    7.470E-09    7.495E-09    7.518E-09
     7.538E-09    7.556E-09    7.571E-09    7.584E-09    7.595E-09    7.602E-09    7.607E-09    7.610E-09    7.609E-09    7.605E-09
     7.599E-09    7.589E-09    7.576E-09    7.559E-09    7.540E-09    7.517E-09    7.490E-09    7.460E-09    7.426E-09    7.388E-09
     7.347E-09    7.301E-09    7.252E-09    7.198E-09    7.140E-09    7.078E-09    7.012E-09    6.942E-09    6.867E-09    6.787E-09
     6.703E-09    6.614E-09    6.520E-09    6.421E-09    6.318E-09    6.209E-09    6.095E-09    5.977E-09    5.853E-09    5.725E-09
     5.593E-09    5.457E-09    5.317E-09    5.173E-09    5.026E-09    4.875E-09    4.721E-09    4.565E-09    4.405E-09    4.244E-09
     4.080E-09    3.914E-09    3.746E-09    3.577E-09    3.406E-09    3.234E-09    3.061E-09    2.887E-09    2.713E-09    2.538E-09
     2.363E-09    2.188E-09    2.014E-09    1.840E-09    1.666E-09    1.494E-09    1.322E-09    1.152E-09    9.832E-10    8.162E-10
     6.511E-10    4.881E-10    3.275E-10    1.694E-10    1.401E-11   -1.384E-10   -2.877E-10   -4.335E-10   -5.759E-10   -7.144E-10
    -8.490E-10   -9.793E-10   -1.105E-09   -1.227E-09   -1.343E-09   -1.455E-09   -1.561E-09   -1.662E-09   -1.757E-09   -1.847E-09
    -1.931E-09   -2.011E-09   -2.085E-09   -2.154E-09   -2.218E-09   -2.278E-09   -2.333E-09   -2.383E-09   -2.429E-09   -2.471E-09
    -2.508E-09   -2.542E-09   -2.572E-09   -2.597E-09   -2.620E-09   -2.638E-09   -2.654E-09   -2.666E-09   -2.675E-09   -2.680E-09
    -2.683E-09   -2.683E-09   -2.681E-09   -2.675E-09   -2.668E-09   -2.658E-09   -2.646E-09   -2.631E-09   -2.615E-09   -2.597E-09
    -2.577E-09   -2.556E-09   -2.533E-09   -2.509E-09   -2.483E-09   -2.457E-09   -2.429E-09   -2.401E-09   -2.372E-09   -2.342E-09
    -2.311E-09   -2.281E-09   -2.250E-09   -2.219E-09   -2.187E-09   -2.156E-09   -2.125E-09   -2.095E-09   -2.065E-09   -2.035E-09
    -2.007E-09   -1.978E-09   -1.951E-09   -1.924E-09   -1.898E-09   -1.872E-09   -1.847E-09   -1.823E-09   -1.800E-09   -1.777E-09
    -1.755E-09   -1.733E-09   -1.713E-09   -1.693E-09   -1.673E-09   -1.655E-09   -1.637E-09   -1.620E-09   -1.603E-09   -1.588E-09
    -1.573E-09   -1.559E-09   -1.546E-09   -1.533E-09   -1.521E-09   -1.510E-09   -1.500E-09   -1.491E-09   -1.482E-09   -1.474E-09
    -1.467E-09   -1.461E-09   -1.455E-09   -1.451E-09   -1.447E-09   -1.444E-09   -1.442E-09   -1.440E-09   -1.440E-09   -1.440E-09
    -1.442E-09   -1.444E-09   -1.447E-09   -1.451E-09   -1.455E-09   -1.461E-09   -1.467E-09   -1.475E-09   -1.483E-09   -1.492E-09
    -1.502E-09   -1.513E-09   -1.525E-09   -1.538E-09   -1.551E-09   -1.565E-09   -1.581E-09   -1.597E-09   -1.613E-09   -1.631E-09
    -1.649E-09   -1.668E-09   -1.687E-09   -1.707E-09   -1.728E-09   -1.749E-09   -1.771E-09   -1.794E-09   -1.817E-09   -1.840E-09
    -1.864E-09   -1.889E-09   -1.914E-09   -1.939E-09   -1.964E-09   -1.990E-09   -2.017E-09   -2.043E-09   -2.070E-09   -2.098E-09
    -2.125E-09   -2.153E-09   -2.181E-09   -2.209E-09   -2.237E-09   -2.265E-09   -2.294E-09   -2.322E-09   -2.351E-09   -2.380E-09
    -2.408E-09   -2.437E-09   -2.466E-09   -2.494E-09   -2.523E-09   -2.551E-09   -2.580E-09   -2.608E-09   -2.636E-09   -2.664E-09
    -2.691E-09   -2.719E-09   -2.746E-09
 Asp      Conc. = 1.84E-10
  -1.05164E-09 -9.86182E-10 -9.10190E-10 -8.42637E-10 -7.58601E-10 -6.86585E-10 -6.16759E-10 -5.50207E-10 -4.70090E-10 -3.84660E-10
  -2.96718E-10 -2.07407E-10 -1.17111E-10 -2.58676E-11  6.56751E-11  1.57367E-10  2.49189E-10  3.41129E-10  4.33121E-10  5.25161E-10
   6.17206E-10  7.09243E-10  8.01266E-10  8.93256E-10  9.85193E-10  1.07710E-09  1.16896E-09  1.26079E-09  1.35262E-09  1.44448E-09
   1.53646E-09  1.62862E-09  1.72120E-09  1.81455E-09  1.90949E-09  2.00825E-09  2.11697E-09  2.21635E-09  2.32027E-09  2.41009E-09
   2.49436E-09  2.58360E-09  2.68973E-09  2.81595E-09  2.95421E-09  3.10496E-09  3.19575E-09  3.25602E-09  3.36756E-09  3.46327E-09
   3.55789E-09  3.66511E-09  3.76723E-09  3.83884E-09  3.88566E-09  3.92240E-09  3.95004E-09  4.04016E-09  4.12518E-09  4.16400E-09
   4.22574E-09  4.29476E-09  4.35312E-09  4.42493E-09  4.51055E-09  4.58988E-09  4.65061E-09  4.71739E-09  4.78695E-09  4.85772E-09
   4.92896E-09  5.00032E-09  5.07155E-09  5.14253E-09  5.21313E-09  5.28329E-09  5.35296E-09  5.42208E-09  5.49061E-09  5.55853E-09
   5.62581E-09  5.69241E-09  5.75832E-09  5.82352E-09  5.88798E-09  5.95170E-09  6.01465E-09  6.07681E-09  6.13818E-09  6.19873E-09
   6.25845E-09  6.31732E-09  6.37534E-09  6.43249E-09  6.48875E-09  6.54412E-09  6.59857E-09  6.65210E-09  6.70468E-09  6.75632E-09
   6.80699E-09  6.85670E-09  6.90541E-09  6.95312E-09  6.99982E-09  7.04545E-09  7.08994E-09  7.13320E-09  7.17516E-09  7.21574E-09
   7.25486E-09  7.29244E-09  7.32840E-09  7.36266E-09  7.39514E-09  7.42576E-09  7.45445E-09  7.48112E-09  7.50570E-09  7.52810E-09
   7.54824E-09  7.56605E-09  7.58145E-09  7.59436E-09  7.60469E-09  7.61238E-09  7.61733E-09  7.61948E-09  7.61874E-09  7.61503E-09
   7.60827E-09  7.59839E-09  7.58531E-09  7.56894E-09  7.54921E-09  7.52604E-09  7.49935E-09  7.46905E-09  7.43508E-09  7.39736E-09
   7.35580E-09  7.31032E-09  7.26085E-09  7.20732E-09  7.14963E-09  7.08771E-09  7.02149E-09  6.95089E-09  6.87582E-09  6.79623E-09
   6.71201E-09  6.62311E-09  6.52945E-09  6.43095E-09  6.32755E-09  6.21916E-09  6.10580E-09  5.98757E-09  5.86475E-09  5.73759E-09
   5.60640E-09  5.47153E-09  5.33351E-09  5.19319E-09  5.05245E-09  4.91705E-09  4.81567E-09  4.80745E-09  4.70457E-09  4.53976E-09
   4.37338E-09  4.20873E-09  4.03769E-09  3.86368E-09  3.69468E-09  3.53836E-09  3.37815E-09  3.13492E-09  2.79733E-09  2.58129E-09
   2.39246E-09  2.21099E-09  2.03261E-09  1.85606E-09  1.68091E-09  1.50714E-09  1.33473E-09  1.16378E-09  9.94507E-10  8.27041E-10
   6.61552E-10  4.98265E-10  3.37327E-10  1.79001E-10  2.34205E-11 -1.29177E-10 -2.78604E-10 -4.24627E-10 -5.67090E-10 -7.05745E-10
  -8.40402E-10 -9.70860E-10 -1.09690E-09 -1.21834E-09 -1.33495E-09 -1.44655E-09 -1.55288E-09 -1.65382E-09 -1.74916E-09 -1.83904E-09
  -1.92355E-09 -2.00283E-09 -2.07700E-09 -2.14618E-09 -2.21048E-09 -2.27004E-09 -2.32497E-09 -2.37539E-09 -2.42143E-09 -2.46321E-09
  -2.50084E-09 -2.53445E-09 -2.56416E-09 -2.59009E-09 -2.61237E-09 -2.63111E-09 -2.64642E-09 -2.65845E-09 -2.66733E-09 -2.67313E-09
  -2.67600E-09 -2.67606E-09 -2.67343E-09 -2.66825E-09 -2.66061E-09 -2.65065E-09 -2.63850E-09 -2.62425E-09 -2.60805E-09 -2.59001E-09
  -2.57024E-09 -2.54887E-09 -2.52603E-09 -2.50184E-09 -2.47640E-09 -2.44985E-09 -2.42232E-09 -2.39392E-09 -2.36475E-09 -2.33494E-09
  -2.30463E-09 -2.27394E-09 -2.24298E-09 -2.21184E-09 -2.18072E-09 -2.14965E-09 -2.11881E-09 -2.08830E-09 -2.05825E-09 -2.02878E-09
  -1.99993E-09 -1.97174E-09 -1.94421E-09 -1.91733E-09 -1.89112E-09 -1.86558E-09 -1.84072E-09 -1.81654E-09 -1.79305E-09 -1.77025E-09
  -1.74815E-09 -1.72674E-09 -1.70606E-09 -1.68608E-09 -1.66682E-09 -1.64828E-09 -1.63048E-09 -1.61341E-09 -1.59707E-09 -1.58149E-09
  -1.56665E-09 -1.55257E-09 -1.53925E-09 -1.52669E-09 -1.51490E-09 -1.50390E-09 -1.49367E-09 -1.48422E-09 -1.47557E-09 -1.46773E-09
  -1.46068E-09 -1.45443E-09 -1.44899E-09 -1.44438E-09 -1.44059E-09 -1.43763E-09 -1.43549E-09 -1.43420E-09 -1.43374E-09 -1.43414E-09
  -1.43539E-09 -1.43749E-09 -1.44046E-09 -1.44430E-09 -1.44900E-09 -1.45459E-09 -1.46107E-09 -1.46842E-09 -1.47667E-09 -1.48582E-09
  -1.49587E-09 -1.50684E-09 -1.51869E-09 -1.53141E-09 -1.54498E-09 -1.55937E-09 -1.57456E-09 -1.59052E-09 -1.60724E-09 -1.62469E-09
  -1.64285E-09 -1.66169E-09 -1.68119E-09 -1.70133E-09 -1.72209E-09 -1.74344E-09 -1.76536E-09 -1.78782E-09 -1.81081E-09 -1.83430E-09
  -1.85826E-09 -1.88268E-09 -1.90753E-09 -1.93279E-09 -1.95843E-09 -1.98444E-09 -2.01079E-09 -2.03745E-09 -2.06440E-09 -2.09163E-09
  -2.11910E-09 -2.14680E-09 -2.17470E-09 -2.20279E-09 -2.23102E-09 -2.25939E-09 -2.28788E-09 -2.31645E-09 -2.34508E-09 -2.37376E-09
  -2.40246E-09 -2.43115E-09 -2.45983E-09 -2.48845E-09 -2.51700E-09 -2.54546E-09 -2.57381E-09 -2.60201E-09 -2.63005E-09 -2.65791E-09
  -2.68557E-09 -2.71299E-09 -2.74017E-09
 GABA     Conc. = 2.56E-10
  -1.24956E-09 -1.15671E-09 -1.06378E-09 -9.70778E-10 -8.77714E-10 -7.84604E-10 -6.91446E-10 -5.98250E-10 -5.05021E-10 -4.11750E-10
  -3.18472E-10 -2.25165E-10 -1.31814E-10 -3.84736E-11  5.49308E-11  1.48369E-10  2.41778E-10  3.35315E-10  4.28960E-10  5.22692E-10
   6.16648E-10  7.10941E-10  8.05709E-10  9.01229E-10  9.97931E-10  1.09654E-09  1.19874E-09  1.30828E-09  1.43609E-09  1.61585E-09
   1.73067E-09  1.82957E-09  2.06384E-09  2.23689E-09  2.31622E-09  2.46316E-09  2.61145E-09  2.72462E-09  2.81670E-09  2.86568E-09
   2.88019E-09  2.99524E-09  3.05598E-09  2.97875E-09  3.02549E-09  3.11400E-09  3.11818E-09  3.15527E-09  3.21580E-09  3.28608E-09
   3.36151E-09  3.43975E-09  3.51981E-09  3.60136E-09  3.68411E-09  3.76799E-09  3.85326E-09  3.94047E-09  4.03080E-09  4.12702E-09
   4.23580E-09  4.37928E-09  4.54025E-09  4.62801E-09  4.76655E-09  4.96338E-09  5.05694E-09  5.12544E-09  5.23350E-09  5.33058E-09
   5.40720E-09  5.45728E-09  5.45818E-09  5.47338E-09  5.55586E-09  5.53054E-09  5.48598E-09  5.55772E-09  5.60667E-09  5.64958E-09
   5.73369E-09  5.78178E-09  5.85672E-09  6.00358E-09  6.08515E-09  6.15012E-09  6.27598E-09  6.37411E-09  6.45217E-09  6.54117E-09
   6.59482E-09  6.64400E-09  6.74012E-09  6.76934E-09  6.75021E-09  6.82104E-09  6.86014E-09  6.84300E-09  6.87351E-09  6.90933E-09
   6.93173E-09  6.96172E-09  6.99642E-09  7.03361E-09  7.07209E-09  7.11104E-09  7.15000E-09  7.18861E-09  7.22662E-09  7.26383E-09
   7.30005E-09  7.33505E-09  7.36872E-09  7.40091E-09  7.43153E-09  7.46051E-09  7.48771E-09  7.51303E-09  7.53637E-09  7.55764E-09
   7.57673E-09  7.59358E-09  7.60809E-09  7.62017E-09  7.62974E-09  7.63671E-09  7.64100E-09  7.64252E-09  7.64119E-09  7.63694E-09
   7.62966E-09  7.61929E-09  7.60575E-09  7.58895E-09  7.56881E-09  7.54525E-09  7.51819E-09  7.48756E-09  7.45326E-09  7.41523E-09
   7.37337E-09  7.32761E-09  7.27788E-09  7.22410E-09  7.16618E-09  7.10403E-09  7.03761E-09  6.96680E-09  6.89156E-09  6.81180E-09
   6.72742E-09  6.63839E-09  6.54461E-09  6.44601E-09  6.34253E-09  6.23409E-09  6.12071E-09  6.00250E-09  5.87976E-09  5.75276E-09
   5.62183E-09  5.48741E-09  5.35012E-09  5.21107E-09  5.07277E-09  4.94297E-09  4.86035E-09  4.91129E-09  4.83188E-09  4.66594E-09
   4.49834E-09  4.33410E-09  4.16167E-09  3.98564E-09  3.81700E-09  3.66655E-09  3.51221E-09  3.24357E-09  2.84014E-09  2.60669E-09
   2.41212E-09  2.22793E-09  2.04798E-09  1.87043E-09  1.69457E-09  1.52026E-09  1.34744E-09  1.17617E-09  1.00662E-09  8.38917E-10
   6.73228E-10  5.09766E-10  3.48671E-10  1.90205E-10  3.44973E-11 -1.18217E-10 -2.67752E-10 -4.13876E-10 -5.56432E-10 -6.95175E-10
  -8.29915E-10 -9.60451E-10 -1.08657E-09 -1.20808E-09 -1.32476E-09 -1.43642E-09 -1.54282E-09 -1.64381E-09 -1.73921E-09 -1.82914E-09
  -1.91371E-09 -1.99305E-09 -2.06726E-09 -2.13649E-09 -2.20084E-09 -2.26045E-09 -2.31543E-09 -2.36589E-09 -2.41197E-09 -2.45380E-09
  -2.49146E-09 -2.52511E-09 -2.55487E-09 -2.58084E-09 -2.60315E-09 -2.62193E-09 -2.63727E-09 -2.64934E-09 -2.65825E-09 -2.66408E-09
