 LCModel (Version 6.3-1R) Copyright: S.W. Provencher.          Ref.: Magn. Reson. Med. 30:672-679 (1993).                
 onepulse 14x17_ftSpec_smooth_lcm
 26 lines in following concentration table = NCONC+1
    Conc.  %SD /Cr+PCr  Metabolite                                         
    0.000 999%   0.000 Ala                                                 
    0.000 999%   0.000 Asp                                                 
    0.000 999%   0.000 Cr                                                  
 5.94E-11 999%   0.293 GABA                                                
    0.000 999%   0.000 Glc                                                 
 4.74E-10 208%   2.334 Gln                                                 
 4.19E-10 284%   2.062 Glu                                                 
    0.000 999%   0.000 Glyc                                                
 1.46E-10  82%   0.719 GPC                                                 
    0.000 999%   0.000 GSH                                                 
 1.25E-09  33%   6.136 Ins                                                 
    0.000 999%   0.000 Lac                                                 
 5.32E-11 739%   0.262 NAAG                                                
 6.42E-10  81%   3.164 NAA                                                 
    0.000 999%   0.000 PCh                                                 
 2.03E-10 216%   1.000 PCr                                                 
    0.000 999%   0.000 PE                                                  
 1.04E-10 302%   0.510 Scyllo                                              
 5.47E-09  19%  26.954 Ser                                                 
 3.73E-10 257%   1.835 Tau                                                 
 1.46E-10  82%   0.719 GPC+PCh                                             
 6.96E-10  46%   3.426 NAA+NAAG                                            
 1.25E-09  33%   6.136 Ins+Glyc                                            
 2.03E-10 216%   1.000 Cr+PCr                                              
 8.93E-10  93%   4.396 Glu+Gln                                             
   6 lines in following misc. output table
  FWHM = 0.101 ppm    S/N =   3                                            
  Data shift = 0.380 ppm                                                   
  Ph: -17 deg     -35.4 deg/ppm                                            
  alphaB,S = 8.5E-01,   4.7E+01                                            
    9 spline knots.   Ns = 5(1)                                            
  ( 8) 4 infls.   ( 5) 1 extrs.                                            
  363 points on ppm-axis = NY
      4.250000     4.238821     4.227641     4.216462     4.205282     4.194103     4.182923     4.171744     4.160564     4.149385
      4.138206     4.127026     4.115847     4.104667     4.093488     4.082308     4.071129     4.059949     4.048770     4.037591
      4.026411     4.015232     4.004052     3.992873     3.981693     3.970514     3.959334     3.948155     3.936975     3.925796
      3.914617     3.903437     3.892258     3.881078     3.869899     3.858719     3.847540     3.836360     3.825181     3.814002
      3.802822     3.791643     3.780463     3.769284     3.758104     3.746925     3.735745     3.724566     3.713387     3.702207
      3.691028     3.679848     3.668669     3.657489     3.646310     3.635130     3.623951     3.612772     3.601592     3.590413
      3.579233     3.568054     3.556874     3.545695     3.534515     3.523336     3.512156     3.500977     3.489798     3.478618
      3.467439     3.456259     3.445080     3.433900     3.422721     3.411541     3.400362     3.389183     3.378003     3.366824
      3.355644     3.344465     3.333285     3.322106     3.310926     3.299747     3.288568     3.277388     3.266209     3.255029
      3.243850     3.232670     3.221491     3.210311     3.199132     3.187953     3.176773     3.165594     3.154414     3.143235
      3.132055     3.120876     3.109696     3.098517     3.087337     3.076158     3.064979     3.053799     3.042620     3.031440
      3.020261     3.009081     2.997902     2.986722     2.975543     2.964364     2.953184     2.942005     2.930825     2.919646
      2.908466     2.897287     2.886107     2.874928     2.863749     2.852569     2.841390     2.830210     2.819031     2.807851
      2.796672     2.785492     2.774313     2.763134     2.751954     2.740775     2.729595     2.718416     2.707236     2.696057
      2.684877     2.673698     2.662519     2.651339     2.640160     2.628980     2.617801     2.606621     2.595442     2.584262
      2.573083     2.561903     2.550724     2.539545     2.528365     2.517186     2.506006     2.494827     2.483647     2.472468
      2.461288     2.450109     2.438930     2.427750     2.416571     2.405391     2.394212     2.383032     2.371853     2.360673
      2.349494     2.338315     2.327135     2.315956     2.304776     2.293597     2.282417     2.271238     2.260058     2.248879
      2.237700     2.226520     2.215341     2.204161     2.192982     2.181802     2.170623     2.159443     2.148264     2.137084
      2.125905     2.114726     2.103546     2.092367     2.081187     2.070008     2.058828     2.047649     2.036469     2.025290
      2.014111     2.002931     1.991752     1.980572     1.969393     1.958213     1.947034     1.935854     1.924675     1.913496
      1.902316     1.891137     1.879957     1.868778     1.857598     1.846419     1.835239     1.824060     1.812881     1.801701
      1.790522     1.779342     1.768163     1.756983     1.745804     1.734624     1.723445     1.712265     1.701086     1.689907
      1.678727     1.667548     1.656368     1.645189     1.634009     1.622830     1.611650     1.600471     1.589292     1.578112
      1.566933     1.555753     1.544574     1.533394     1.522215     1.511035     1.499856     1.488677     1.477497     1.466318
      1.455138     1.443959     1.432779     1.421600     1.410420     1.399241     1.388062     1.376882     1.365703     1.354523
      1.343344     1.332164     1.320985     1.309805     1.298626     1.287446     1.276267     1.265088     1.253908     1.242729
      1.231549     1.220370     1.209190     1.198011     1.186831     1.175652     1.164473     1.153293     1.142114     1.130934
      1.119755     1.108575     1.097396     1.086216     1.075037     1.063858     1.052678     1.041499     1.030319     1.019140
      1.007960     0.996781     0.985601     0.974422     0.963243     0.952063     0.940884     0.929704     0.918525     0.907345
      0.896166     0.884986     0.873807     0.862628     0.851448     0.840269     0.829089     0.817910     0.806730     0.795551
      0.784371     0.773192     0.762012     0.750833     0.739654     0.728474     0.717295     0.706115     0.694936     0.683756
      0.672577     0.661397     0.650218     0.639039     0.627859     0.616680     0.605500     0.594321     0.583141     0.571962
      0.560782     0.549603     0.538424     0.527244     0.516065     0.504885     0.493706     0.482526     0.471347     0.460167
      0.448988     0.437809     0.426629     0.415450     0.404270     0.393091     0.381911     0.370732     0.359552     0.348373
      0.337193     0.326014     0.314835     0.303655     0.292476     0.281296     0.270117     0.258937     0.247758     0.236578
      0.225399     0.214220     0.203040
 NY phased data points follow
   6.95049E-09  8.48189E-09  6.98034E-09  8.40385E-09  7.14039E-09  8.13376E-09  5.95704E-09  7.42961E-09  5.60442E-09  7.15248E-09
   6.11797E-09  7.55897E-09  6.84266E-09  7.67961E-09  6.96849E-09  7.78476E-09  7.87406E-09  8.56427E-09  7.08780E-09  8.21487E-09
   6.74108E-09  7.87615E-09  7.13463E-09  9.20291E-09  7.54539E-09  8.54248E-09  7.69041E-09  7.87069E-09  7.14361E-09  8.87085E-09
   9.09909E-09  1.05522E-08  1.05105E-08  1.20197E-08  1.05249E-08  1.23598E-08  9.80115E-09  1.08640E-08  9.64242E-09  1.06046E-08
   9.33896E-09  9.79853E-09  9.36828E-09  9.96687E-09  8.67741E-09  8.82411E-09  7.74569E-09  8.52942E-09  7.58075E-09  8.04651E-09
   7.35437E-09  7.80004E-09  6.78683E-09  7.39774E-09  6.22278E-09  6.47797E-09  4.68250E-09  5.18348E-09  3.00132E-09  5.14197E-09
   4.65713E-09  7.99274E-09  9.06764E-09  1.08775E-08  1.05436E-08  1.07834E-08  9.76911E-09  1.08393E-08  9.13536E-09  9.40915E-09
   8.41559E-09  8.82907E-09  7.03019E-09  5.92948E-09  4.89530E-09  5.04222E-09  5.23580E-09  7.71621E-09  9.07987E-09  1.15123E-08
   1.23066E-08  1.32502E-08  1.20880E-08  1.32145E-08  1.25064E-08  1.34694E-08  1.23292E-08  1.28088E-08  1.23974E-08  1.28411E-08
   1.22668E-08  1.28586E-08  1.15592E-08  1.12376E-08  1.16865E-08  1.09541E-08  1.06163E-08  1.02388E-08  9.69452E-09  1.02747E-08
   9.17789E-09  9.72061E-09  9.63533E-09  9.70534E-09  9.16505E-09  9.41762E-09  8.27087E-09  7.90784E-09  7.46146E-09  7.11442E-09
   6.74190E-09  7.25571E-09  7.05834E-09  7.03900E-09  6.72452E-09  7.83533E-09  6.64547E-09  7.89897E-09  7.67759E-09  8.45018E-09
   7.51018E-09  7.39061E-09  6.98653E-09  6.44427E-09  5.54851E-09  5.85421E-09  5.42367E-09  5.93494E-09  5.63284E-09  5.60060E-09
   5.77325E-09  5.30903E-09  5.71860E-09  5.63536E-09  5.23733E-09  5.16180E-09  4.63575E-09  5.33621E-09  6.05386E-09  7.19025E-09
   6.22753E-09  6.81911E-09  6.59657E-09  7.42188E-09  7.72961E-09  8.05060E-09  7.77284E-09  7.75998E-09  8.03930E-09  7.86660E-09
   7.63159E-09  8.32326E-09  7.94933E-09  7.58158E-09  7.34965E-09  7.69556E-09  7.64247E-09  8.20109E-09  8.17023E-09  7.99668E-09
   7.36644E-09  7.26122E-09  7.23022E-09  6.08537E-09  5.93699E-09  6.48529E-09  7.04069E-09  9.03691E-09  1.25593E-08  1.56072E-08
   1.74169E-08  1.80687E-08  1.71281E-08  1.61954E-08  1.61193E-08  1.58616E-08  1.42569E-08  1.36735E-08  1.29738E-08  1.25693E-08
   1.16264E-08  1.06084E-08  9.04966E-09  8.09063E-09  6.25416E-09  5.05881E-09  3.17878E-09  8.48838E-10 -9.92597E-10 -2.94706E-09
  -5.21317E-09 -7.87665E-09 -9.63100E-09 -1.09142E-08 -1.33299E-08 -1.43462E-08 -1.57228E-08 -1.62599E-08 -1.65716E-08 -1.52057E-08
  -1.55173E-08 -1.44046E-08 -1.31471E-08 -1.14368E-08 -1.01618E-08 -8.13892E-09 -7.68343E-09 -6.24565E-09 -4.77080E-09 -3.89775E-09
  -2.90969E-09 -2.86077E-09 -3.06141E-09 -3.26489E-09 -3.54340E-09 -2.68374E-09 -3.18717E-09 -3.75424E-09 -3.20777E-09 -2.15680E-09
  -2.84298E-09 -2.26751E-09 -2.12417E-09 -2.23942E-09 -1.96804E-09 -2.49776E-09 -2.62671E-09 -2.49535E-09 -2.70517E-09 -2.82211E-09
  -2.29124E-09 -2.19718E-09 -1.61122E-09 -1.89456E-09 -1.70697E-09 -1.45863E-09 -1.94221E-09 -2.32591E-09 -2.35754E-09 -2.23590E-09
  -2.58529E-09 -2.66685E-09 -1.87343E-09 -1.60869E-09 -1.86509E-09 -1.46376E-09 -1.00508E-09 -1.68914E-09 -1.37957E-09 -1.00727E-09
  -1.31967E-09 -6.52264E-10 -1.04174E-09 -1.26728E-09 -1.51510E-09 -1.61677E-09 -1.57842E-09 -2.18469E-09 -2.45269E-09 -2.46243E-09
  -2.33899E-09 -2.54359E-09 -2.12246E-09 -2.03938E-09 -1.91935E-09 -1.68477E-09 -1.40106E-09 -8.33364E-10 -7.37156E-10 -8.94077E-10
  -2.04822E-10 -7.53111E-10 -3.53343E-10 -8.80390E-11 -5.04135E-11 -1.46652E-10 -2.32697E-10 -7.21635E-10 -8.41971E-10 -5.52475E-10
  -8.59113E-10 -1.01732E-09 -8.10907E-10 -1.38619E-09 -9.99284E-10 -1.35995E-09 -1.60412E-09 -1.37732E-09 -1.63568E-09 -2.06769E-09
  -1.31249E-09 -1.52897E-09 -1.27674E-09 -1.58721E-09 -2.53052E-09 -1.87078E-09 -1.91223E-09 -1.84381E-09 -2.11306E-09 -2.24224E-09
  -1.94450E-09 -1.69454E-09 -1.78399E-09 -1.68355E-09 -2.39210E-09 -1.92783E-09 -1.77186E-09 -2.21140E-09 -1.79444E-09 -1.68229E-09
  -2.21834E-09 -1.74974E-09 -2.23971E-09 -1.33234E-09 -1.92017E-09 -2.07223E-09 -1.61187E-09 -1.50302E-09 -1.93744E-09 -1.36794E-09
  -1.42936E-09 -1.29545E-09 -1.60836E-09 -8.08784E-10 -1.24143E-09 -1.20540E-09 -1.44550E-09 -9.57338E-10 -1.29286E-09 -8.88684E-10
  -7.69180E-10 -7.20453E-10 -8.79713E-10 -1.00254E-09 -1.10110E-09 -6.34081E-10 -6.26713E-10 -5.01959E-10 -8.26039E-10 -5.75662E-10
  -5.63874E-10 -6.16271E-10 -2.75954E-10 -9.51115E-11  1.08495E-10  4.88745E-11 -2.32144E-10  3.90886E-10  6.26331E-11  1.36022E-10
  -2.06107E-10  6.25910E-10  3.56141E-10  5.46969E-10  1.80099E-10  3.11668E-10  3.79553E-10  1.41799E-09  2.80925E-11  8.94051E-10
   4.51169E-10  1.22595E-09  8.58029E-10
 NY points of the fit to the data follow
   4.10736E-09  6.99045E-09  8.03323E-09  7.60669E-09  7.76983E-09  8.43694E-09  8.68820E-09  7.94144E-09  6.84427E-09  6.25158E-09
   6.02313E-09  6.14000E-09  6.47235E-09  6.91524E-09  7.41583E-09  7.76589E-09  7.96687E-09  8.31134E-09  8.57209E-09  8.26620E-09
   7.70401E-09  7.23276E-09  6.87837E-09  6.56374E-09  6.61974E-09  7.10650E-09  7.85831E-09  8.56779E-09  9.04245E-09  9.27322E-09
   9.61050E-09  9.96182E-09  1.03692E-08  1.06166E-08  1.05324E-08  1.00922E-08  9.73126E-09  9.47352E-09  9.32971E-09  9.28940E-09
   9.29004E-09  9.21943E-09  8.95940E-09  8.55675E-09  8.30806E-09  8.16043E-09  8.04149E-09  7.91906E-09  7.79259E-09  7.70141E-09
   7.64591E-09  7.63124E-09  7.64330E-09  7.63729E-09  7.60001E-09  7.58776E-09  7.60381E-09  7.70048E-09  7.90181E-09  8.15658E-09
   8.36213E-09  8.50370E-09  8.66764E-09  8.87900E-09  9.12002E-09  9.35945E-09  9.52574E-09  9.56122E-09  9.45405E-09  9.27115E-09
   9.12439E-09  9.00491E-09  8.81805E-09  8.55354E-09  8.37347E-09  8.22728E-09  8.12356E-09  8.53938E-09  9.51330E-09  1.06826E-08
   1.17455E-08  1.25331E-08  1.30549E-08  1.34968E-08  1.39301E-08  1.42303E-08  1.41780E-08  1.35414E-08  1.23667E-08  1.14794E-08
   1.09707E-08  1.06186E-08  1.03554E-08  1.01343E-08  9.94414E-09  9.78549E-09  9.64016E-09  9.50290E-09  9.38001E-09  9.26589E-09
   9.15792E-09  9.05733E-09  8.96177E-09  8.86977E-09  8.78115E-09  8.69517E-09  8.61113E-09  8.52857E-09  8.44700E-09  8.36606E-09
   8.28548E-09  8.20495E-09  8.12429E-09  8.04326E-09  7.96174E-09  7.87954E-09  7.79654E-09  7.71263E-09  7.62767E-09  7.54164E-09
   7.45430E-09  7.36570E-09  7.27574E-09  7.18444E-09  7.09178E-09  6.99776E-09  6.90239E-09  6.80570E-09  6.70771E-09  6.60844E-09
   6.50792E-09  6.40621E-09  6.30333E-09  6.19935E-09  6.09430E-09  5.98826E-09  5.88128E-09  5.77343E-09  5.66481E-09  5.55548E-09
   5.44554E-09  5.33508E-09  5.22422E-09  5.11311E-09  5.00181E-09  4.89050E-09  4.77936E-09  4.66860E-09  4.55837E-09  4.44899E-09
   4.34073E-09  4.23390E-09  4.12897E-09  4.02646E-09  3.92698E-09  3.83136E-09  3.74072E-09  3.65647E-09  3.58060E-09  3.51601E-09
   3.46690E-09  3.44003E-09  3.44667E-09  3.50772E-09  3.66721E-09  4.04022E-09  5.06112E-09  8.18958E-09  1.25939E-08  1.63227E-08
   1.84807E-08  1.91465E-08  1.89685E-08  1.86064E-08  1.81444E-08  1.68970E-08  1.39111E-08  8.98192E-09  3.68658E-09  1.17923E-09
   4.95732E-10  1.81244E-10 -1.76162E-11 -1.68342E-10 -2.95355E-10 -4.09208E-10 -5.15050E-10 -6.15603E-10 -7.12377E-10 -8.06251E-10
  -8.97764E-10 -9.87214E-10 -1.07481E-09 -1.16065E-09 -1.24481E-09 -1.32733E-09 -1.40822E-09 -1.48746E-09 -1.56508E-09 -1.64103E-09
  -1.71531E-09 -1.78792E-09 -1.85882E-09 -1.92799E-09 -1.99542E-09 -2.06108E-09 -2.12497E-09 -2.18705E-09 -2.24733E-09 -2.30578E-09
  -2.36240E-09 -2.41716E-09 -2.47006E-09 -2.52108E-09 -2.57024E-09 -2.61752E-09 -2.66289E-09 -2.70637E-09 -2.74796E-09 -2.78764E-09
  -2.82542E-09 -2.86129E-09 -2.89527E-09 -2.92735E-09 -2.95755E-09 -2.98583E-09 -3.01225E-09 -3.03679E-09 -3.05944E-09 -3.08024E-09
  -3.09919E-09 -3.11629E-09 -3.13156E-09 -3.14502E-09 -3.15668E-09 -3.16654E-09 -3.17463E-09 -3.18097E-09 -3.18556E-09 -3.18843E-09
  -3.18961E-09 -3.18910E-09 -3.18694E-09 -3.18315E-09 -3.17778E-09 -3.17088E-09 -3.16248E-09 -3.15265E-09 -3.14141E-09 -3.12881E-09
  -3.11490E-09 -3.09971E-09 -3.08330E-09 -3.06570E-09 -3.04696E-09 -3.02711E-09 -3.00621E-09 -2.98428E-09 -2.96137E-09 -2.93753E-09
  -2.91278E-09 -2.88717E-09 -2.86074E-09 -2.83352E-09 -2.80555E-09 -2.77687E-09 -2.74752E-09 -2.71752E-09 -2.68692E-09 -2.65574E-09
  -2.62402E-09 -2.59180E-09 -2.55909E-09 -2.52594E-09 -2.49238E-09 -2.45842E-09 -2.42411E-09 -2.38947E-09 -2.35452E-09 -2.31928E-09
  -2.28380E-09 -2.24808E-09 -2.21215E-09 -2.17604E-09 -2.13975E-09 -2.10332E-09 -2.06676E-09 -2.03009E-09 -1.99333E-09 -1.95649E-09
  -1.91958E-09 -1.88262E-09 -1.84563E-09 -1.80861E-09 -1.77157E-09 -1.73453E-09 -1.69749E-09 -1.66046E-09 -1.62344E-09 -1.58645E-09
  -1.54947E-09 -1.51253E-09 -1.47561E-09 -1.43872E-09 -1.40186E-09 -1.36501E-09 -1.32818E-09 -1.29136E-09 -1.25455E-09 -1.21775E-09
  -1.18095E-09 -1.14415E-09 -1.10734E-09 -1.07053E-09 -1.03372E-09 -9.96897E-10 -9.60066E-10 -9.23224E-10 -8.86372E-10 -8.49507E-10
  -8.12631E-10 -7.75743E-10 -7.38843E-10 -7.01931E-10 -6.65008E-10 -6.28076E-10 -5.91136E-10 -5.54189E-10 -5.17236E-10 -4.80281E-10
  -4.43325E-10 -4.06369E-10 -3.69419E-10 -3.32477E-10 -2.95543E-10 -2.58626E-10 -2.21728E-10 -1.84850E-10 -1.47999E-10 -1.11182E-10
  -7.43977E-11 -3.76588E-11 -9.63896E-13  3.56778E-11  7.22628E-11  1.08782E-10  1.45230E-10  1.81602E-10  2.17890E-10  2.54085E-10
   2.90184E-10  3.26176E-10  3.62055E-10  3.97814E-10  4.33439E-10  4.68927E-10  5.04271E-10  5.39458E-10  5.74481E-10  6.09334E-10
   6.43998E-10  6.78473E-10  7.12742E-10
 NY background values follow
    -1.351E-09   -1.189E-09   -1.029E-09   -8.705E-10   -7.129E-10   -5.567E-10   -4.018E-10   -2.483E-10   -9.619E-11    5.454E-11
     2.038E-10    3.517E-10    4.981E-10    6.431E-10    7.865E-10    9.285E-10    1.069E-09    1.208E-09    1.345E-09    1.481E-09
     1.615E-09    1.748E-09    1.879E-09    2.009E-09    2.136E-09    2.263E-09    2.387E-09    2.510E-09    2.632E-09    2.751E-09
     2.869E-09    2.986E-09    3.100E-09    3.213E-09    3.324E-09    3.434E-09    3.542E-09    3.648E-09    3.753E-09    3.856E-09
     3.957E-09    4.056E-09    4.154E-09    4.250E-09    4.344E-09    4.436E-09    4.527E-09    4.616E-09    4.704E-09    4.790E-09
     4.874E-09    4.956E-09    5.037E-09    5.116E-09    5.193E-09    5.269E-09    5.343E-09    5.415E-09    5.486E-09    5.555E-09
     5.622E-09    5.688E-09    5.752E-09    5.814E-09    5.875E-09    5.934E-09    5.992E-09    6.048E-09    6.102E-09    6.154E-09
     6.205E-09    6.254E-09    6.302E-09    6.347E-09    6.391E-09    6.433E-09    6.474E-09    6.512E-09    6.549E-09    6.584E-09
     6.617E-09    6.649E-09    6.678E-09    6.706E-09    6.731E-09    6.755E-09    6.777E-09    6.797E-09    6.815E-09    6.831E-09
     6.845E-09    6.858E-09    6.868E-09    6.876E-09    6.882E-09    6.886E-09    6.888E-09    6.887E-09    6.885E-09    6.881E-09
     6.874E-09    6.865E-09    6.854E-09    6.841E-09    6.826E-09    6.808E-09    6.788E-09    6.766E-09    6.741E-09    6.715E-09
     6.685E-09    6.654E-09    6.620E-09    6.584E-09    6.545E-09    6.504E-09    6.461E-09    6.415E-09    6.367E-09    6.316E-09
     6.263E-09    6.208E-09    6.150E-09    6.089E-09    6.026E-09    5.961E-09    5.893E-09    5.823E-09    5.751E-09    5.677E-09
     5.601E-09    5.523E-09    5.442E-09    5.360E-09    5.276E-09    5.190E-09    5.102E-09    5.013E-09    4.922E-09    4.829E-09
     4.735E-09    4.640E-09    4.543E-09    4.444E-09    4.345E-09    4.244E-09    4.142E-09    4.039E-09    3.935E-09    3.831E-09
     3.725E-09    3.618E-09    3.511E-09    3.403E-09    3.295E-09    3.186E-09    3.077E-09    2.967E-09    2.857E-09    2.746E-09
     2.636E-09    2.525E-09    2.415E-09    2.304E-09    2.194E-09    2.084E-09    1.974E-09    1.864E-09    1.755E-09    1.646E-09
     1.538E-09    1.431E-09    1.324E-09    1.218E-09    1.112E-09    1.008E-09    9.043E-10    8.018E-10    7.003E-10    5.999E-10
     5.008E-10    4.029E-10    3.062E-10    2.110E-10    1.171E-10    2.456E-11   -6.653E-11   -1.562E-10   -2.443E-10   -3.310E-10
    -4.161E-10   -4.997E-10   -5.817E-10   -6.621E-10   -7.409E-10   -8.180E-10   -8.935E-10   -9.673E-10   -1.039E-09   -1.110E-09
    -1.178E-09   -1.245E-09   -1.311E-09   -1.374E-09   -1.436E-09   -1.495E-09   -1.553E-09   -1.609E-09   -1.664E-09   -1.716E-09
    -1.767E-09   -1.816E-09   -1.863E-09   -1.908E-09   -1.951E-09   -1.992E-09   -2.032E-09   -2.069E-09   -2.105E-09   -2.139E-09
    -2.171E-09   -2.201E-09   -2.229E-09   -2.256E-09   -2.280E-09   -2.303E-09   -2.324E-09   -2.343E-09   -2.360E-09   -2.375E-09
    -2.389E-09   -2.400E-09   -2.410E-09   -2.419E-09   -2.425E-09   -2.430E-09   -2.433E-09   -2.434E-09   -2.434E-09   -2.432E-09
    -2.428E-09   -2.423E-09   -2.416E-09   -2.407E-09   -2.397E-09   -2.386E-09   -2.373E-09   -2.358E-09   -2.343E-09   -2.326E-09
    -2.307E-09   -2.288E-09   -2.267E-09   -2.246E-09   -2.223E-09   -2.199E-09   -2.174E-09   -2.148E-09   -2.122E-09   -2.094E-09
    -2.066E-09   -2.036E-09   -2.006E-09   -1.976E-09   -1.944E-09   -1.912E-09   -1.879E-09   -1.846E-09   -1.812E-09   -1.778E-09
    -1.743E-09   -1.708E-09   -1.672E-09   -1.636E-09   -1.599E-09   -1.563E-09   -1.526E-09   -1.488E-09   -1.451E-09   -1.413E-09
    -1.375E-09   -1.337E-09   -1.298E-09   -1.260E-09   -1.221E-09   -1.182E-09   -1.144E-09   -1.105E-09   -1.066E-09   -1.027E-09
    -9.883E-10   -9.494E-10   -9.106E-10   -8.718E-10   -8.330E-10   -7.942E-10   -7.556E-10   -7.170E-10   -6.784E-10   -6.399E-10
    -6.016E-10   -5.633E-10   -5.250E-10   -4.869E-10   -4.488E-10   -4.108E-10   -3.729E-10   -3.351E-10   -2.973E-10   -2.595E-10
    -2.218E-10   -1.842E-10   -1.466E-10   -1.091E-10   -7.163E-11   -3.419E-11    3.212E-12    4.057E-11    7.788E-11    1.152E-10
     1.524E-10    1.896E-10    2.268E-10    2.639E-10    3.010E-10    3.380E-10    3.750E-10    4.120E-10    4.489E-10    4.857E-10
     5.226E-10    5.593E-10    5.961E-10    6.327E-10    6.693E-10    7.059E-10    7.423E-10    7.787E-10    8.151E-10    8.513E-10
     8.875E-10    9.236E-10    9.595E-10    9.954E-10    1.031E-09    1.067E-09    1.102E-09    1.138E-09    1.173E-09    1.208E-09
     1.243E-09    1.278E-09    1.313E-09    1.348E-09    1.382E-09    1.416E-09    1.450E-09    1.484E-09    1.517E-09    1.551E-09
     1.584E-09    1.617E-09    1.650E-09
 GABA     Conc. = 5.94E-11
  -1.38165E-09 -1.22085E-09 -1.06133E-09 -9.03136E-10 -7.46273E-10 -5.90770E-10 -4.36650E-10 -2.83936E-10 -1.32652E-10  1.71807E-11
   1.65538E-10  3.12396E-10  4.57732E-10  6.01522E-10  7.43739E-10  8.84360E-10  1.02336E-09  1.16069E-09  1.29633E-09  1.43025E-09
   1.56238E-09  1.69269E-09  1.82111E-09  1.94756E-09  2.07195E-09  2.19414E-09  2.31395E-09  2.43122E-09  2.54600E-09  2.66233E-09
   2.78274E-09  2.90008E-09  3.01889E-09  3.14632E-09  3.27574E-09  3.40482E-09  3.53538E-09  3.66532E-09  3.79141E-09  3.91096E-09
   4.02305E-09  4.13214E-09  4.23505E-09  4.32152E-09  4.40572E-09  4.49404E-09  4.57493E-09  4.65187E-09  4.72993E-09  4.80817E-09
   4.88595E-09  4.96286E-09  5.03866E-09  5.11316E-09  5.18623E-09  5.25775E-09  5.32764E-09  5.39583E-09  5.46223E-09  5.52690E-09
   5.59003E-09  5.65363E-09  5.72430E-09  5.79545E-09  5.86368E-09  5.94017E-09  6.01961E-09  6.09504E-09  6.16838E-09  6.23858E-09
   6.30310E-09  6.35960E-09  6.40712E-09  6.44850E-09  6.48933E-09  6.51678E-09  6.53601E-09  6.56628E-09  6.59428E-09  6.61659E-09
   6.64360E-09  6.67084E-09  6.69558E-09  6.72551E-09  6.75733E-09  6.78587E-09  6.81605E-09  6.84725E-09  6.87638E-09  6.90299E-09
   6.92493E-09  6.94374E-09  6.96156E-09  6.96994E-09  6.97020E-09  6.97409E-09  6.97223E-09  6.96183E-09  6.95323E-09  6.94353E-09
   6.93034E-09  6.91607E-09  6.90064E-09  6.88376E-09  6.86522E-09  6.84486E-09  6.82256E-09  6.79827E-09  6.77193E-09  6.74346E-09
   6.71284E-09  6.67998E-09  6.64491E-09  6.60753E-09  6.56787E-09  6.52589E-09  6.48157E-09  6.43489E-09  6.38582E-09  6.33440E-09
   6.28046E-09  6.22411E-09  6.16533E-09  6.10416E-09  6.04063E-09  5.97479E-09  5.90667E-09  5.83633E-09  5.76383E-09  5.68919E-09
   5.61248E-09  5.53375E-09  5.45304E-09  5.37043E-09  5.28595E-09  5.19967E-09  5.11164E-09  5.02193E-09  4.93060E-09  4.83769E-09
   4.74329E-09  4.64744E-09  4.55022E-09  4.45171E-09  4.35193E-09  4.25095E-09  4.14887E-09  4.04576E-09  3.94164E-09  3.83664E-09
   3.73081E-09  3.62417E-09  3.51685E-09  3.40893E-09  3.30043E-09  3.19144E-09  3.08208E-09  2.97239E-09  2.86244E-09  2.75238E-09
   2.64224E-09  2.53220E-09  2.42238E-09  2.31303E-09  2.20459E-09  2.09820E-09  1.99863E-09  1.91701E-09  1.83813E-09  1.75130E-09
   1.65371E-09  1.54803E-09  1.43952E-09  1.33181E-09  1.22352E-09  1.10840E-09  9.80554E-10  8.42037E-10  7.09044E-10  6.01599E-10
   5.00181E-10  4.01231E-10  3.04057E-10  2.08446E-10  1.14300E-10  2.16162E-11 -6.96046E-11 -1.59357E-10 -2.47616E-10 -3.34357E-10
  -4.19576E-10 -5.03227E-10 -5.85310E-10 -6.65780E-10 -7.44633E-10 -8.21857E-10 -8.97409E-10 -9.71281E-10 -1.04346E-09 -1.11392E-09
  -1.18264E-09 -1.24963E-09 -1.31486E-09 -1.37830E-09 -1.43996E-09 -1.49983E-09 -1.55788E-09 -1.61410E-09 -1.66850E-09 -1.72106E-09
  -1.77177E-09 -1.82063E-09 -1.86762E-09 -1.91274E-09 -1.95602E-09 -1.99741E-09 -2.03693E-09 -2.07457E-09 -2.11035E-09 -2.14424E-09
  -2.17626E-09 -2.20640E-09 -2.23469E-09 -2.26111E-09 -2.28569E-09 -2.30840E-09 -2.32927E-09 -2.34832E-09 -2.36553E-09 -2.38092E-09
  -2.39451E-09 -2.40631E-09 -2.41632E-09 -2.42457E-09 -2.43106E-09 -2.43581E-09 -2.43885E-09 -2.44018E-09 -2.43983E-09 -2.43781E-09
  -2.43415E-09 -2.42886E-09 -2.42196E-09 -2.41350E-09 -2.40352E-09 -2.39206E-09 -2.37916E-09 -2.36488E-09 -2.34925E-09 -2.33233E-09
  -2.31415E-09 -2.29475E-09 -2.27418E-09 -2.25249E-09 -2.22971E-09 -2.20588E-09 -2.18106E-09 -2.15527E-09 -2.12856E-09 -2.10096E-09
  -2.07253E-09 -2.04330E-09 -2.01330E-09 -1.98257E-09 -1.95115E-09 -1.91908E-09 -1.88639E-09 -1.85312E-09 -1.81930E-09 -1.78496E-09
  -1.75014E-09 -1.71487E-09 -1.67919E-09 -1.64311E-09 -1.60668E-09 -1.56992E-09 -1.53285E-09 -1.49551E-09 -1.45792E-09 -1.42011E-09
  -1.38210E-09 -1.34392E-09 -1.30558E-09 -1.26711E-09 -1.22853E-09 -1.18987E-09 -1.15112E-09 -1.11233E-09 -1.07349E-09 -1.03464E-09
  -9.95770E-10 -9.56910E-10 -9.18068E-10 -8.79255E-10 -8.40482E-10 -8.01757E-10 -7.63090E-10 -7.24486E-10 -6.85951E-10 -6.47491E-10
  -6.09109E-10 -5.70808E-10 -5.32590E-10 -4.94452E-10 -4.56391E-10 -4.18403E-10 -3.80483E-10 -3.42628E-10 -3.04835E-10 -2.67099E-10
  -2.29419E-10 -1.91791E-10 -1.54213E-10 -1.16683E-10 -7.91976E-11 -4.17561E-11 -4.35659E-12  3.30020E-11  7.03209E-11  1.07601E-10
   1.44842E-10  1.82045E-10  2.19210E-10  2.56336E-10  2.93424E-10  3.30471E-10  3.67478E-10  4.04442E-10  4.41363E-10  4.78237E-10
   5.15065E-10  5.51843E-10  5.88567E-10  6.25236E-10  6.61848E-10  6.98396E-10  7.34878E-10  7.71292E-10  8.07631E-10  8.43891E-10
   8.80071E-10  9.16159E-10  9.52157E-10  9.88056E-10  1.02385E-09  1.05954E-09  1.09511E-09  1.13055E-09  1.16587E-09  1.20105E-09
   1.23609E-09  1.27098E-09  1.30571E-09  1.34027E-09  1.37466E-09  1.40887E-09  1.44289E-09  1.47671E-09  1.51032E-09  1.54372E-09
   1.57689E-09  1.60983E-09  1.64252E-09
 Gln      Conc. = 4.74E-10
  -1.87107E-09 -1.67826E-09 -1.45554E-09 -1.20290E-09 -9.32232E-10 -6.57074E-10 -3.89719E-10 -1.41241E-10  8.36021E-11  3.08593E-10
   4.86265E-10  6.14521E-10  7.49476E-10  8.45501E-10  9.44229E-10  1.05107E-09  1.16320E-09  1.27854E-09  1.39577E-09  1.51399E-09
   1.63258E-09  1.75107E-09  1.86914E-09  1.98653E-09  2.10310E-09  2.21874E-09  2.33321E-09  2.44646E-09  2.55841E-09  2.66893E-09
   2.77793E-09  2.88535E-09  2.99111E-09  3.09517E-09  3.19744E-09  3.29789E-09  3.39645E-09  3.49306E-09  3.58764E-09  3.68011E-09
   3.77040E-09  3.85843E-09  3.94413E-09  4.02742E-09  4.10811E-09  4.18610E-09  4.26118E-09  4.33293E-09  4.40123E-09  4.46599E-09
   4.52650E-09  4.58233E-09  4.63367E-09  4.68332E-09  4.75651E-09  4.88574E-09  5.02535E-09  5.18247E-09  5.39360E-09  5.63497E-09
   5.87058E-09  6.10407E-09  6.31959E-09  6.49411E-09  6.60934E-09  6.66072E-09  6.68164E-09  6.68691E-09  6.60855E-09  6.51811E-09
   6.46639E-09  6.44478E-09  6.45295E-09  6.49282E-09  6.57620E-09  6.71235E-09  6.86354E-09  7.02474E-09  7.19067E-09  7.34827E-09
   7.48701E-09  7.58808E-09  7.63014E-09  7.65538E-09  7.65861E-09  7.59785E-09  7.53757E-09  7.49328E-09  7.42870E-09  7.37437E-09
   7.33425E-09  7.30319E-09  7.27803E-09  7.25645E-09  7.23677E-09  7.21829E-09  7.20042E-09  7.18257E-09  7.16445E-09  7.14580E-09
   7.12625E-09  7.10558E-09  7.08366E-09  7.06036E-09  7.03560E-09  7.00927E-09  6.98124E-09  6.95147E-09  6.91989E-09  6.88639E-09
   6.85098E-09  6.81354E-09  6.77409E-09  6.73253E-09  6.68888E-09  6.64306E-09  6.59507E-09  6.54487E-09  6.49241E-09  6.43774E-09
   6.38069E-09  6.32134E-09  6.25967E-09  6.19572E-09  6.12952E-09  6.06110E-09  5.99050E-09  5.91776E-09  5.84295E-09  5.76608E-09
   5.68722E-09  5.60643E-09  5.52372E-09  5.43918E-09  5.35284E-09  5.26478E-09  5.17502E-09  5.08365E-09  4.99073E-09  4.89630E-09
   4.80044E-09  4.70320E-09  4.60465E-09  4.50489E-09  4.40392E-09  4.30183E-09  4.19872E-09  4.09466E-09  3.98968E-09  3.88391E-09
   3.77742E-09  3.67024E-09  3.56252E-09  3.45435E-09  3.34578E-09  3.23695E-09  3.12801E-09  3.01907E-09  2.91031E-09  2.80200E-09
   2.69437E-09  2.58795E-09  2.48344E-09  2.38219E-09  2.28703E-09  2.20575E-09  2.17009E-09  2.27980E-09  2.41662E-09  2.48958E-09
   2.47177E-09  2.38181E-09  2.26147E-09  2.14224E-09  2.01561E-09  1.83224E-09  1.54140E-09  1.15151E-09  7.82614E-10  6.18915E-10
   5.00897E-10  3.94915E-10  2.94108E-10  1.96352E-10  1.00803E-10  7.11164E-12 -8.48904E-11 -1.75291E-10 -2.64119E-10 -3.51380E-10
  -4.37089E-10 -5.21214E-10 -6.03759E-10 -6.84686E-10 -7.63992E-10 -8.41668E-10 -9.17673E-10 -9.91997E-10 -1.06463E-09 -1.13554E-09
  -1.20472E-09 -1.27216E-09 -1.33784E-09 -1.40174E-09 -1.46386E-09 -1.52417E-09 -1.58268E-09 -1.63935E-09 -1.69419E-09 -1.74720E-09
  -1.79836E-09 -1.84766E-09 -1.89510E-09 -1.94066E-09 -1.98437E-09 -2.02619E-09 -2.06614E-09 -2.10421E-09 -2.14041E-09 -2.17472E-09
  -2.20716E-09 -2.23772E-09 -2.26641E-09 -2.29324E-09 -2.31823E-09 -2.34133E-09 -2.36260E-09 -2.38204E-09 -2.39964E-09 -2.41542E-09
