 LCModel (Version 6.3-1R) Copyright: S.W. Provencher.          Ref.: Magn. Reson. Med. 30:672-679 (1993).                
 onepulse 14x24_ftSpec_smooth_lcm
 26 lines in following concentration table = NCONC+1
    Conc.  %SD /Cr+PCr  Metabolite                                         
    0.000 999%   0.000 Ala                                                 
    0.000 999%   0.000 Asp                                                 
 3.63E-10 163%   1.000 Cr                                                  
 8.20E-11 999%   0.226 GABA                                                
 7.11E-10 159%   1.963 Glc                                                 
 4.76E-10 269%   1.312 Gln                                                 
 7.49E-10 207%   2.066 Glu                                                 
    0.000 999%   0.000 Glyc                                                
 1.82E-10  69%   0.503 GPC                                                 
    0.000 999%   0.000 GSH                                                 
 1.37E-09  50%   3.766 Ins                                                 
    0.000 999%   0.000 Lac                                                 
    0.000 999%   0.000 NAAG                                                
 8.42E-10  52%   2.323 NAA                                                 
    0.000 999%   0.000 PCh                                                 
    0.000 999%   0.000 PCr                                                 
    0.000 999%   0.000 PE                                                  
 1.48E-10 180%   0.408 Scyllo                                              
 4.71E-09  30%  13.003 Ser                                                 
    0.000 999%   0.000 Tau                                                 
 1.82E-10  69%   0.503 GPC+PCh                                             
 8.42E-10  52%   2.323 NAA+NAAG                                            
 1.37E-09  50%   3.766 Ins+Glyc                                            
 3.63E-10 163%   1.000 Cr+PCr                                              
 1.22E-09  86%   3.378 Glu+Gln                                             
   6 lines in following misc. output table
  FWHM = 0.089 ppm    S/N =   2                                            
  Data shift = 0.358 ppm                                                   
  Ph: -34 deg     -29.2 deg/ppm                                            
  alphaB,S = 8.3E-01,   2.7E+01                                            
    8 spline knots.   Ns = 5(1)                                            
  ( 7) 2 infls.   ( 5) 1 extrs.                                            
  363 points on ppm-axis = NY
      4.250000     4.238821     4.227641     4.216462     4.205282     4.194103     4.182923     4.171744     4.160564     4.149385
      4.138206     4.127026     4.115847     4.104667     4.093488     4.082308     4.071129     4.059949     4.048770     4.037591
      4.026411     4.015232     4.004052     3.992873     3.981693     3.970514     3.959334     3.948155     3.936975     3.925796
      3.914617     3.903437     3.892258     3.881078     3.869899     3.858719     3.847540     3.836360     3.825181     3.814002
      3.802822     3.791643     3.780463     3.769284     3.758104     3.746925     3.735745     3.724566     3.713387     3.702207
      3.691028     3.679848     3.668669     3.657489     3.646310     3.635130     3.623951     3.612772     3.601592     3.590413
      3.579233     3.568054     3.556874     3.545695     3.534515     3.523336     3.512156     3.500977     3.489798     3.478618
      3.467439     3.456259     3.445080     3.433900     3.422721     3.411541     3.400362     3.389183     3.378003     3.366824
      3.355644     3.344465     3.333285     3.322106     3.310926     3.299747     3.288568     3.277388     3.266209     3.255029
      3.243850     3.232670     3.221491     3.210311     3.199132     3.187953     3.176773     3.165594     3.154414     3.143235
      3.132055     3.120876     3.109696     3.098517     3.087337     3.076158     3.064979     3.053799     3.042620     3.031440
      3.020261     3.009081     2.997902     2.986722     2.975543     2.964364     2.953184     2.942005     2.930825     2.919646
      2.908466     2.897287     2.886107     2.874928     2.863749     2.852569     2.841390     2.830210     2.819031     2.807851
      2.796672     2.785492     2.774313     2.763134     2.751954     2.740775     2.729595     2.718416     2.707236     2.696057
      2.684877     2.673698     2.662519     2.651339     2.640160     2.628980     2.617801     2.606621     2.595442     2.584262
      2.573083     2.561903     2.550724     2.539545     2.528365     2.517186     2.506006     2.494827     2.483647     2.472468
      2.461288     2.450109     2.438930     2.427750     2.416571     2.405391     2.394212     2.383032     2.371853     2.360673
      2.349494     2.338315     2.327135     2.315956     2.304776     2.293597     2.282417     2.271238     2.260058     2.248879
      2.237700     2.226520     2.215341     2.204161     2.192982     2.181802     2.170623     2.159443     2.148264     2.137084
      2.125905     2.114726     2.103546     2.092367     2.081187     2.070008     2.058828     2.047649     2.036469     2.025290
      2.014111     2.002931     1.991752     1.980572     1.969393     1.958213     1.947034     1.935854     1.924675     1.913496
      1.902316     1.891137     1.879957     1.868778     1.857598     1.846419     1.835239     1.824060     1.812881     1.801701
      1.790522     1.779342     1.768163     1.756983     1.745804     1.734624     1.723445     1.712265     1.701086     1.689907
      1.678727     1.667548     1.656368     1.645189     1.634009     1.622830     1.611650     1.600471     1.589292     1.578112
      1.566933     1.555753     1.544574     1.533394     1.522215     1.511035     1.499856     1.488677     1.477497     1.466318
      1.455138     1.443959     1.432779     1.421600     1.410420     1.399241     1.388062     1.376882     1.365703     1.354523
      1.343344     1.332164     1.320985     1.309805     1.298626     1.287446     1.276267     1.265088     1.253908     1.242729
      1.231549     1.220370     1.209190     1.198011     1.186831     1.175652     1.164473     1.153293     1.142114     1.130934
      1.119755     1.108575     1.097396     1.086216     1.075037     1.063858     1.052678     1.041499     1.030319     1.019140
      1.007960     0.996781     0.985601     0.974422     0.963243     0.952063     0.940884     0.929704     0.918525     0.907345
      0.896166     0.884986     0.873807     0.862628     0.851448     0.840269     0.829089     0.817910     0.806730     0.795551
      0.784371     0.773192     0.762012     0.750833     0.739654     0.728474     0.717295     0.706115     0.694936     0.683756
      0.672577     0.661397     0.650218     0.639039     0.627859     0.616680     0.605500     0.594321     0.583141     0.571962
      0.560782     0.549603     0.538424     0.527244     0.516065     0.504885     0.493706     0.482526     0.471347     0.460167
      0.448988     0.437809     0.426629     0.415450     0.404270     0.393091     0.381911     0.370732     0.359552     0.348373
      0.337193     0.326014     0.314835     0.303655     0.292476     0.281296     0.270117     0.258937     0.247758     0.236578
      0.225399     0.214220     0.203040
 NY phased data points follow
   9.85451E-09  1.20801E-08  1.22715E-08  1.27591E-08  1.24715E-08  1.13156E-08  1.08879E-08  1.10549E-08  1.00911E-08  1.10357E-08
   9.97924E-09  1.04883E-08  1.05469E-08  1.11184E-08  1.10780E-08  1.23077E-08  1.17192E-08  1.23243E-08  1.17963E-08  1.20426E-08
   1.15792E-08  1.20020E-08  1.11470E-08  1.14376E-08  1.11037E-08  1.23178E-08  1.15880E-08  1.21868E-08  1.15444E-08  1.10541E-08
   1.08602E-08  1.17890E-08  1.24109E-08  1.38099E-08  1.47809E-08  1.40377E-08  1.35259E-08  1.34839E-08  1.21620E-08  1.24181E-08
   1.18662E-08  1.18997E-08  1.15345E-08  1.09874E-08  1.09045E-08  1.08624E-08  1.04164E-08  1.02082E-08  9.05842E-09  9.11003E-09
   9.23883E-09  9.09101E-09  9.15760E-09  8.71577E-09  8.27168E-09  7.96020E-09  7.81218E-09  7.75710E-09  7.28943E-09  7.76796E-09
   7.48387E-09  7.58498E-09  8.72438E-09  1.04466E-08  1.12484E-08  1.22399E-08  1.20711E-08  1.21271E-08  1.11787E-08  1.07092E-08
   9.87540E-09  9.35910E-09  8.53970E-09  8.60840E-09  7.49831E-09  7.04139E-09  6.92006E-09  6.65826E-09  7.95598E-09  9.89306E-09
   1.29627E-08  1.50966E-08  1.56774E-08  1.54519E-08  1.52830E-08  1.44979E-08  1.40394E-08  1.41572E-08  1.31004E-08  1.34878E-08
   1.29995E-08  1.28241E-08  1.29750E-08  1.19087E-08  1.15501E-08  1.14203E-08  1.11414E-08  1.09495E-08  1.01813E-08  9.66603E-09
   9.94173E-09  9.47304E-09  9.23428E-09  9.83777E-09  9.03967E-09  9.21364E-09  9.00548E-09  8.64566E-09  7.49944E-09  7.67258E-09
   6.77238E-09  6.17945E-09  6.06338E-09  6.02425E-09  6.41453E-09  6.53931E-09  6.04538E-09  6.52719E-09  6.30371E-09  6.09762E-09
   6.73113E-09  6.61192E-09  6.16414E-09  6.18162E-09  5.24307E-09  4.91075E-09  4.73118E-09  4.19148E-09  5.10540E-09  4.70665E-09
   4.52801E-09  4.60249E-09  4.67190E-09  5.16905E-09  4.71581E-09  4.76305E-09  4.93175E-09  4.81725E-09  4.98334E-09  5.18349E-09
   6.29945E-09  7.16972E-09  7.07967E-09  7.65582E-09  7.61847E-09  8.35425E-09  8.48238E-09  9.13392E-09  8.78075E-09  9.41336E-09
   8.74964E-09  8.88013E-09  9.16643E-09  8.94307E-09  8.76269E-09  8.30252E-09  8.98559E-09  8.63915E-09  8.38368E-09  8.76356E-09
   9.06813E-09  9.27753E-09  8.59457E-09  8.83831E-09  8.72656E-09  8.76671E-09  8.90383E-09  9.56235E-09  1.08578E-08  1.22813E-08
   1.49972E-08  1.86669E-08  2.00468E-08  1.99035E-08  1.89773E-08  1.85954E-08  1.70135E-08  1.60352E-08  1.48448E-08  1.45688E-08
   1.34509E-08  1.34593E-08  1.19295E-08  1.08779E-08  1.00096E-08  8.93130E-09  7.46871E-09  6.12682E-09  4.19372E-09  3.09842E-09
   7.14168E-10 -1.53572E-09 -3.41144E-09 -6.57124E-09 -8.95059E-09 -1.12393E-08 -1.39249E-08 -1.65400E-08 -1.87185E-08 -2.03673E-08
  -2.17627E-08 -2.26270E-08 -2.25764E-08 -2.33382E-08 -2.25672E-08 -2.09989E-08 -1.94048E-08 -1.69198E-08 -1.44701E-08 -1.26064E-08
  -1.02691E-08 -7.94368E-09 -6.25482E-09 -4.36484E-09 -3.51973E-09 -2.04355E-09 -2.58844E-09 -1.76914E-09 -1.99811E-09 -2.54399E-09
  -2.82062E-09 -2.94998E-09 -2.87123E-09 -2.84534E-09 -2.54724E-09 -2.01386E-09 -1.86760E-09 -1.47184E-09 -1.88309E-09 -1.49578E-09
  -2.04282E-09 -2.48507E-09 -2.75464E-09 -2.54300E-09 -2.41357E-09 -1.90488E-09 -1.75534E-09 -1.24570E-09 -1.24320E-09 -1.40331E-09
  -1.07304E-09 -1.62417E-09 -1.98764E-09 -1.82468E-09 -2.21920E-09 -1.75608E-09 -2.44932E-09 -1.71179E-09 -1.58819E-09 -8.33864E-10
  -8.12639E-10 -4.73962E-10 -1.30523E-10 -2.53676E-10 -1.02360E-09 -3.96321E-10 -1.12070E-09 -1.29224E-09 -1.12161E-09 -1.80298E-09
  -1.52690E-09 -1.54664E-09 -2.03122E-09 -1.98324E-09 -2.06042E-09 -1.33809E-09 -1.49482E-09 -9.81106E-10 -9.27189E-10 -7.14154E-10
  -2.27078E-10 -1.88848E-11 -1.09232E-10  4.04623E-10  1.53910E-10  7.63670E-10  4.86458E-10  1.46888E-10  1.76937E-10 -3.06463E-10
   1.06423E-11  5.36742E-12 -5.08648E-10 -5.97290E-10 -1.01053E-09 -1.05581E-10 -8.81767E-10 -6.14686E-10 -7.47229E-10 -1.31402E-09
  -1.36515E-09 -1.27445E-09 -1.05789E-09 -1.74613E-09 -8.64807E-10 -9.00323E-10 -1.13958E-09 -1.47495E-09 -1.38216E-09 -1.70857E-09
  -1.39292E-09 -6.57322E-10 -1.40079E-09 -1.10226E-09 -1.34815E-09 -8.30217E-10 -1.65935E-09 -7.18276E-10 -1.06398E-09 -6.35038E-10
  -8.76682E-10 -1.01089E-09 -1.17115E-09 -1.11699E-09 -6.95423E-10 -2.71084E-10 -1.01065E-09 -3.81579E-10 -6.71245E-10 -3.55301E-10
  -1.91592E-10 -4.46766E-10 -5.09485E-10 -2.84118E-10  2.86671E-10 -2.94950E-11 -2.71103E-10 -3.53830E-10 -1.63633E-10 -2.43198E-10
   2.80045E-10 -3.08822E-10  6.29753E-10 -6.91634E-11  5.50612E-10  4.36686E-10  1.10426E-10  4.91821E-10  6.79466E-10  3.12203E-10
   2.88992E-10  9.46565E-10  4.64001E-10  9.12395E-10  7.94730E-10  8.89818E-10  9.74682E-10  1.05319E-09  7.02599E-10  1.05306E-09
   7.25295E-10  9.91850E-10  1.28993E-09  1.30694E-09  9.76202E-10  9.37311E-10  1.07024E-09  1.45803E-09  1.55993E-09  1.40081E-09
   1.31778E-09  1.71892E-09  1.76245E-09
 NY points of the fit to the data follow
   1.00759E-08  1.19700E-08  1.23383E-08  1.18704E-08  1.21158E-08  1.26166E-08  1.23856E-08  1.14721E-08  1.04649E-08  9.87731E-09
   9.74322E-09  9.80156E-09  1.00743E-08  1.06020E-08  1.12985E-08  1.17555E-08  1.19385E-08  1.23711E-08  1.27578E-08  1.23946E-08
   1.17570E-08  1.13359E-08  1.10766E-08  1.08122E-08  1.07762E-08  1.09659E-08  1.13778E-08  1.18879E-08  1.22009E-08  1.21913E-08
   1.23712E-08  1.26050E-08  1.30260E-08  1.33306E-08  1.31473E-08  1.25624E-08  1.22673E-08  1.21280E-08  1.20765E-08  1.21136E-08
   1.21890E-08  1.21481E-08  1.17335E-08  1.09403E-08  1.04475E-08  1.01387E-08  9.89418E-09  9.67257E-09  9.47002E-09  9.31419E-09
   9.19185E-09  9.10831E-09  9.05726E-09  8.98591E-09  8.88162E-09  8.80782E-09  8.76812E-09  8.83131E-09  8.99580E-09  9.20314E-09
   9.36006E-09  9.47917E-09  9.68586E-09  9.95247E-09  1.02605E-08  1.06049E-08  1.08952E-08  1.10252E-08  1.09621E-08  1.07513E-08
   1.05558E-08  1.03887E-08  1.00631E-08  9.56237E-09  9.23437E-09  8.95767E-09  8.67705E-09  9.03734E-09  9.97974E-09  1.11235E-08
   1.23015E-08  1.34024E-08  1.43242E-08  1.50835E-08  1.56817E-08  1.60959E-08  1.61567E-08  1.54670E-08  1.38443E-08  1.25944E-08
   1.18884E-08  1.14005E-08  1.10417E-08  1.07380E-08  1.04771E-08  1.02644E-08  1.00682E-08  9.88123E-09  9.71703E-09  9.56753E-09
   9.42576E-09  9.29371E-09  9.16993E-09  9.05291E-09  8.94131E-09  8.83411E-09  8.73051E-09  8.62991E-09  8.53174E-09  8.43552E-09
   8.34099E-09  8.24769E-09  8.15539E-09  8.06382E-09  7.97278E-09  7.88207E-09  7.79154E-09  7.70101E-09  7.61031E-09  7.51939E-09
   7.42802E-09  7.33620E-09  7.24375E-09  7.15064E-09  7.05676E-09  6.96201E-09  6.86631E-09  6.76966E-09  6.67193E-09  6.57308E-09
   6.47305E-09  6.37176E-09  6.26922E-09  6.16533E-09  6.06005E-09  5.95330E-09  5.84515E-09  5.73543E-09  5.62418E-09  5.51130E-09
   5.39681E-09  5.28066E-09  5.16282E-09  5.04322E-09  4.92188E-09  4.79877E-09  4.67387E-09  4.54726E-09  4.41900E-09  4.28918E-09
   4.15788E-09  4.02524E-09  3.89136E-09  3.75641E-09  3.62059E-09  3.48416E-09  3.34750E-09  3.21111E-09  3.07578E-09  2.94269E-09
   2.81377E-09  2.69244E-09  2.58498E-09  2.50453E-09  2.48258E-09  2.61505E-09  3.34263E-09  6.51209E-09  1.04378E-08  1.39086E-08
   1.67492E-08  1.89118E-08  2.02736E-08  2.09277E-08  2.10183E-08  2.01972E-08  1.74431E-08  1.19611E-08  5.41783E-09  2.89438E-09
   1.90989E-09  1.34522E-09  9.50936E-10  6.43354E-10  3.86392E-10  1.61911E-10 -4.01935E-11 -2.25977E-10 -3.99395E-10 -5.62979E-10
  -7.18465E-10 -8.67163E-10 -1.00993E-09 -1.14745E-09 -1.28014E-09 -1.40843E-09 -1.53259E-09 -1.65277E-09 -1.76913E-09 -1.88183E-09
  -1.99091E-09 -2.09643E-09 -2.19842E-09 -2.29690E-09 -2.39190E-09 -2.48338E-09 -2.57135E-09 -2.65580E-09 -2.73671E-09 -2.81400E-09
  -2.88774E-09 -2.95781E-09 -3.02421E-09 -3.08691E-09 -3.14589E-09 -3.20106E-09 -3.25243E-09 -3.29997E-09 -3.34361E-09 -3.38342E-09
  -3.41948E-09 -3.45186E-09 -3.48064E-09 -3.50589E-09 -3.52768E-09 -3.54611E-09 -3.56124E-09 -3.57314E-09 -3.58189E-09 -3.58757E-09
  -3.59026E-09 -3.59003E-09 -3.58696E-09 -3.58111E-09 -3.57258E-09 -3.56144E-09 -3.54776E-09 -3.53161E-09 -3.51308E-09 -3.49224E-09
  -3.46916E-09 -3.44394E-09 -3.41663E-09 -3.38732E-09 -3.35607E-09 -3.32297E-09 -3.28809E-09 -3.25151E-09 -3.21331E-09 -3.17354E-09
  -3.13231E-09 -3.08965E-09 -3.04569E-09 -3.00044E-09 -2.95401E-09 -2.90648E-09 -2.85790E-09 -2.80835E-09 -2.75790E-09 -2.70662E-09
  -2.65457E-09 -2.60185E-09 -2.54850E-09 -2.49459E-09 -2.44019E-09 -2.38537E-09 -2.33021E-09 -2.27474E-09 -2.21904E-09 -2.16319E-09
  -2.10723E-09 -2.05122E-09 -1.99524E-09 -1.93933E-09 -1.88357E-09 -1.82799E-09 -1.77267E-09 -1.71765E-09 -1.66299E-09 -1.60874E-09
  -1.55496E-09 -1.50170E-09 -1.44900E-09 -1.39691E-09 -1.34549E-09 -1.29477E-09 -1.24481E-09 -1.19563E-09 -1.14730E-09 -1.09984E-09
  -1.05329E-09 -1.00769E-09 -9.63023E-10 -9.19291E-10 -8.76488E-10 -8.34622E-10 -7.93677E-10 -7.53662E-10 -7.14569E-10 -6.76398E-10
  -6.39150E-10 -6.02816E-10 -5.67403E-10 -5.32903E-10 -4.99313E-10 -4.66635E-10 -4.34870E-10 -4.04014E-10 -3.74062E-10 -3.45015E-10
  -3.16874E-10 -2.89633E-10 -2.63299E-10 -2.37862E-10 -2.13327E-10 -1.89690E-10 -1.66954E-10 -1.45112E-10 -1.24170E-10 -1.04127E-10
  -8.49827E-11 -6.67265E-11 -4.93737E-11 -3.29185E-11 -1.73579E-11 -2.68979E-12  1.10713E-11  2.39376E-11  3.59008E-11  4.69696E-11
   5.71325E-11  6.63942E-11  7.47554E-11  8.22112E-11  8.87570E-11  9.43964E-11  9.91239E-11  1.02943E-10  1.05842E-10  1.07834E-10
   1.08898E-10  1.09047E-10  1.08267E-10  1.06560E-10  1.03931E-10  1.00359E-10  9.58558E-11  9.04083E-11  8.40216E-11  7.66847E-11
   6.83957E-11  5.91538E-11  4.89500E-11  3.77841E-11  2.56469E-11  1.25385E-11 -1.55281E-12 -1.66244E-11 -3.26851E-11 -4.97414E-11
  -6.77955E-11 -8.68562E-11 -1.06931E-10
 NY background values follow
     1.947E-09    2.062E-09    2.175E-09    2.288E-09    2.399E-09    2.508E-09    2.616E-09    2.723E-09    2.828E-09    2.932E-09
     3.035E-09    3.136E-09    3.236E-09    3.334E-09    3.431E-09    3.526E-09    3.620E-09    3.713E-09    3.804E-09    3.893E-09
     3.982E-09    4.068E-09    4.154E-09    4.238E-09    4.320E-09    4.401E-09    4.480E-09    4.559E-09    4.635E-09    4.710E-09
     4.784E-09    4.856E-09    4.927E-09    4.996E-09    5.064E-09    5.131E-09    5.196E-09    5.259E-09    5.322E-09    5.382E-09
     5.442E-09    5.499E-09    5.556E-09    5.611E-09    5.665E-09    5.717E-09    5.768E-09    5.817E-09    5.865E-09    5.912E-09
     5.957E-09    6.001E-09    6.044E-09    6.085E-09    6.125E-09    6.163E-09    6.200E-09    6.236E-09    6.271E-09    6.304E-09
     6.336E-09    6.367E-09    6.396E-09    6.424E-09    6.451E-09    6.476E-09    6.501E-09    6.524E-09    6.546E-09    6.567E-09
     6.586E-09    6.604E-09    6.622E-09    6.638E-09    6.652E-09    6.666E-09    6.679E-09    6.690E-09    6.700E-09    6.709E-09
     6.717E-09    6.723E-09    6.728E-09    6.733E-09    6.735E-09    6.737E-09    6.737E-09    6.736E-09    6.734E-09    6.731E-09
     6.726E-09    6.720E-09    6.712E-09    6.704E-09    6.694E-09    6.682E-09    6.669E-09    6.655E-09    6.639E-09    6.622E-09
     6.604E-09    6.584E-09    6.563E-09    6.540E-09    6.516E-09    6.490E-09    6.462E-09    6.433E-09    6.403E-09    6.371E-09
     6.337E-09    6.302E-09    6.265E-09    6.227E-09    6.187E-09    6.145E-09    6.102E-09    6.057E-09    6.010E-09    5.962E-09
     5.911E-09    5.859E-09    5.805E-09    5.750E-09    5.693E-09    5.633E-09    5.572E-09    5.509E-09    5.445E-09    5.378E-09
     5.310E-09    5.239E-09    5.167E-09    5.092E-09    5.016E-09    4.938E-09    4.858E-09    4.775E-09    4.691E-09    4.605E-09
     4.517E-09    4.426E-09    4.334E-09    4.239E-09    4.143E-09    4.044E-09    3.943E-09    3.841E-09    3.736E-09    3.629E-09
     3.521E-09    3.411E-09    3.299E-09    3.186E-09    3.071E-09    2.955E-09    2.837E-09    2.719E-09    2.599E-09    2.478E-09
     2.356E-09    2.233E-09    2.110E-09    1.986E-09    1.861E-09    1.735E-09    1.609E-09    1.483E-09    1.357E-09    1.230E-09
     1.103E-09    9.765E-10    8.498E-10    7.233E-10    5.970E-10    4.712E-10    3.457E-10    2.208E-10    9.655E-11   -2.702E-11
    -1.498E-10   -2.716E-10   -3.925E-10   -5.123E-10   -6.309E-10   -7.483E-10   -8.643E-10   -9.789E-10   -1.092E-09   -1.204E-09
    -1.313E-09   -1.421E-09   -1.528E-09   -1.632E-09   -1.734E-09   -1.834E-09   -1.932E-09   -2.028E-09   -2.121E-09   -2.212E-09
    -2.301E-09   -2.387E-09   -2.470E-09   -2.551E-09   -2.628E-09   -2.703E-09   -2.775E-09   -2.844E-09   -2.910E-09   -2.973E-09
    -3.033E-09   -3.089E-09   -3.142E-09   -3.192E-09   -3.239E-09   -3.281E-09   -3.321E-09   -3.356E-09   -3.388E-09   -3.417E-09
    -3.442E-09   -3.463E-09   -3.481E-09   -3.496E-09   -3.508E-09   -3.516E-09   -3.521E-09   -3.523E-09   -3.522E-09   -3.519E-09
    -3.512E-09   -3.503E-09   -3.490E-09   -3.476E-09   -3.458E-09   -3.438E-09   -3.416E-09   -3.392E-09   -3.365E-09   -3.336E-09
    -3.304E-09   -3.271E-09   -3.236E-09   -3.199E-09   -3.160E-09   -3.119E-09   -3.077E-09   -3.033E-09   -2.987E-09   -2.940E-09
    -2.892E-09   -2.842E-09   -2.791E-09   -2.739E-09   -2.686E-09   -2.631E-09   -2.576E-09   -2.520E-09   -2.463E-09   -2.405E-09
    -2.347E-09   -2.288E-09   -2.228E-09   -2.168E-09   -2.107E-09   -2.046E-09   -1.985E-09   -1.924E-09   -1.862E-09   -1.801E-09
    -1.739E-09   -1.677E-09   -1.616E-09   -1.554E-09   -1.493E-09   -1.432E-09   -1.371E-09   -1.311E-09   -1.251E-09   -1.191E-09
    -1.132E-09   -1.074E-09   -1.016E-09   -9.590E-10   -9.026E-10   -8.469E-10   -7.921E-10   -7.381E-10   -6.850E-10   -6.328E-10
    -5.816E-10   -5.313E-10   -4.821E-10   -4.338E-10   -3.865E-10   -3.402E-10   -2.949E-10   -2.505E-10   -2.071E-10   -1.647E-10
    -1.232E-10   -8.274E-11   -4.320E-11   -4.619E-12    3.301E-11    6.969E-11    1.054E-10    1.402E-10    1.740E-10    2.069E-10
     2.388E-10    2.698E-10    2.998E-10    3.289E-10    3.571E-10    3.843E-10    4.106E-10    4.360E-10    4.604E-10    4.838E-10
     5.064E-10    5.280E-10    5.487E-10    5.684E-10    5.872E-10    6.051E-10    6.220E-10    6.380E-10    6.530E-10    6.672E-10
     6.803E-10    6.926E-10    7.039E-10    7.143E-10    7.237E-10    7.322E-10    7.397E-10    7.463E-10    7.519E-10    7.566E-10
     7.603E-10    7.631E-10    7.650E-10    7.658E-10    7.657E-10    7.646E-10    7.626E-10    7.596E-10    7.556E-10    7.506E-10
     7.447E-10    7.377E-10    7.298E-10    7.209E-10    7.109E-10    7.000E-10    6.880E-10    6.751E-10    6.611E-10    6.461E-10
     6.300E-10    6.129E-10    5.948E-10
 Cr       Conc. = 3.63E-10
   2.59754E-09  2.99911E-09  3.23485E-09  3.15195E-09  3.01173E-09  2.96834E-09  2.97195E-09  3.00081E-09  3.04460E-09  3.09770E-09
   3.15677E-09  3.21964E-09  3.28483E-09  3.35127E-09  3.41812E-09  3.48473E-09  3.55053E-09  3.61503E-09  3.67774E-09  3.73816E-09
   3.79577E-09  3.84996E-09  3.90001E-09  3.94499E-09  3.98369E-09  4.01450E-09  4.03501E-09  4.04166E-09  4.02860E-09  3.98573E-09
   3.89535E-09  3.77313E-09  3.93366E-09  4.28234E-09  4.70640E-09  5.16946E-09  5.64975E-09  6.11505E-09  6.56298E-09  7.02031E-09
   7.46927E-09  7.76178E-09  7.64808E-09  7.11640E-09  6.84534E-09  6.70261E-09  6.62055E-09  6.57216E-09  6.54451E-09  6.53051E-09
   6.52586E-09  6.52783E-09  6.53454E-09  6.54471E-09  6.55741E-09  6.57188E-09  6.58763E-09  6.60428E-09  6.62138E-09  6.63880E-09
   6.65629E-09  6.67364E-09  6.69077E-09  6.70753E-09  6.72388E-09  6.73966E-09  6.75486E-09  6.76939E-09  6.78323E-09  6.79635E-09
   6.80868E-09  6.82021E-09  6.83096E-09  6.84084E-09  6.84988E-09  6.85803E-09  6.86526E-09  6.87157E-09  6.87690E-09  6.88125E-09
   6.88458E-09  6.88688E-09  6.88813E-09  6.88830E-09  6.88741E-09  6.88539E-09  6.88224E-09  6.87796E-09  6.87252E-09  6.86589E-09
   6.85805E-09  6.84903E-09  6.83874E-09  6.82724E-09  6.81446E-09  6.80038E-09  6.78501E-09  6.76833E-09  6.75031E-09  6.73094E-09
   6.71020E-09  6.68808E-09  6.66455E-09  6.63962E-09  6.61324E-09  6.58540E-09  6.55609E-09  6.52532E-09  6.49303E-09  6.45918E-09
   6.42385E-09  6.38693E-09  6.34842E-09  6.30833E-09  6.26662E-09  6.22329E-09  6.17832E-09  6.13170E-09  6.08337E-09  6.03339E-09
   5.98164E-09  5.92821E-09  5.87300E-09  5.81604E-09  5.75730E-09  5.69676E-09  5.63437E-09  5.57020E-09  5.50416E-09  5.43625E-09
   5.36648E-09  5.29478E-09  5.22120E-09  5.14569E-09  5.06824E-09  4.98879E-09  4.90744E-09  4.82406E-09  4.73870E-09  4.65129E-09
   4.56188E-09  4.47043E-09  4.37693E-09  4.28133E-09  4.18367E-09  4.08392E-09  3.98209E-09  3.87825E-09  3.77246E-09  3.66482E-09
   3.55538E-09  3.44424E-09  3.33146E-09  3.21715E-09  3.10136E-09  2.98420E-09  2.86576E-09  2.74613E-09  2.62542E-09  2.50376E-09
   2.38127E-09  2.25820E-09  2.13485E-09  2.01184E-09  1.89058E-09  1.77546E-09  1.68837E-09  1.69972E-09  1.72825E-09  1.73537E-09
   1.71848E-09  1.67556E-09  1.60210E-09  1.50294E-09  1.38281E-09  1.22484E-09  9.87432E-10  6.45948E-10  2.83202E-10  8.85266E-11
  -6.28745E-11 -2.00405E-10 -3.31360E-10 -4.58258E-10 -5.82237E-10 -7.03841E-10 -8.23327E-10 -9.40791E-10 -1.05637E-09 -1.17004E-09
  -1.28175E-09 -1.39153E-09 -1.49930E-09 -1.60501E-09 -1.70857E-09 -1.80995E-09 -1.90910E-09 -2.00589E-09 -2.10028E-09 -2.19224E-09
  -2.28165E-09 -2.36846E-09 -2.45258E-09 -2.53397E-09 -2.61256E-09 -2.68824E-09 -2.76098E-09 -2.83071E-09 -2.89739E-09 -2.96087E-09
  -3.02120E-09 -3.07825E-09 -3.13196E-09 -3.18230E-09 -3.22923E-09 -3.27263E-09 -3.31249E-09 -3.34878E-09 -3.38140E-09 -3.41042E-09
  -3.43590E-09 -3.45792E-09 -3.47652E-09 -3.49178E-09 -3.50376E-09 -3.51254E-09 -3.51818E-09 -3.52076E-09 -3.52034E-09 -3.51698E-09
  -3.51078E-09 -3.50179E-09 -3.49009E-09 -3.47574E-09 -3.45883E-09 -3.43943E-09 -3.41760E-09 -3.39341E-09 -3.36696E-09 -3.33829E-09
  -3.30749E-09 -3.27465E-09 -3.23982E-09 -3.20307E-09 -3.16449E-09 -3.12414E-09 -3.08211E-09 -3.03846E-09 -2.99327E-09 -2.94660E-09
  -2.89854E-09 -2.84915E-09 -2.79852E-09 -2.74668E-09 -2.69374E-09 -2.63977E-09 -2.58482E-09 -2.52898E-09 -2.47230E-09 -2.41486E-09
  -2.35672E-09 -2.29797E-09 -2.23866E-09 -2.17887E-09 -2.11864E-09 -2.05805E-09 -1.99718E-09 -1.93606E-09 -1.87478E-09 -1.81340E-09
  -1.75197E-09 -1.69055E-09 -1.62922E-09 -1.56801E-09 -1.50701E-09 -1.44624E-09 -1.38578E-09 -1.32569E-09 -1.26600E-09 -1.20677E-09
  -1.14807E-09 -1.08993E-09 -1.03242E-09 -9.75552E-10 -9.19404E-10 -8.64012E-10 -8.09427E-10 -7.55664E-10 -7.02800E-10 -6.50859E-10
  -5.99871E-10 -5.49877E-10 -5.00862E-10 -4.52828E-10 -4.05768E-10 -3.59690E-10 -3.14576E-10 -2.70436E-10 -2.27261E-10 -1.85050E-10
  -1.43805E-10 -1.03517E-10 -6.41904E-11 -2.58188E-11  1.16017E-11  4.80700E-11  8.35849E-11  1.18150E-10  1.51771E-10  1.84449E-10
   2.16180E-10  2.46973E-10  2.76819E-10  3.05731E-10  3.33702E-10  3.60738E-10  3.86834E-10  4.11999E-10  4.36227E-10  4.59520E-10
   4.81877E-10  5.03309E-10  5.23802E-10  5.43361E-10  5.61989E-10  5.79690E-10  5.96448E-10  6.12277E-10  6.27167E-10  6.41128E-10
   6.54149E-10  6.66234E-10  6.77385E-10  6.87597E-10  6.96865E-10  7.05192E-10  7.12574E-10  7.19014E-10  7.24501E-10  7.29049E-10
   7.32636E-10  7.35275E-10  7.36952E-10  7.37671E-10  7.37435E-10  7.36225E-10  7.34051E-10  7.30901E-10  7.26781E-10  7.21678E-10
   7.15592E-10  7.08522E-10  7.00460E-10  6.91403E-10  6.81345E-10  6.70285E-10  6.58212E-10  6.45128E-10  6.31025E-10  6.15896E-10
   5.99739E-10  5.82546E-10  5.64309E-10
 GABA     Conc. = 8.20E-11
   1.90649E-09  2.02076E-09  2.13364E-09  2.24511E-09  2.35518E-09  2.46382E-09  2.57103E-09  2.67679E-09  2.78110E-09  2.88394E-09
   2.98530E-09  3.08518E-09  3.18355E-09  3.28040E-09  3.37573E-09  3.46950E-09  3.56170E-09  3.65231E-09  3.74130E-09  3.82864E-09
   3.91430E-09  3.99822E-09  4.08034E-09  4.16060E-09  4.23890E-09  4.31513E-09  4.38913E-09  4.46082E-09  4.53050E-09  4.60354E-09
   4.68064E-09  4.75350E-09  4.83217E-09  4.92267E-09  5.01367E-09  5.10549E-09  5.20209E-09  5.29977E-09  5.39238E-09  5.47494E-09
   5.54705E-09  5.61888E-09  5.68303E-09  5.72087E-09  5.75823E-09  5.80423E-09  5.83935E-09  5.87046E-09  5.90483E-09  5.94081E-09
   5.97730E-09  6.01373E-09  6.04964E-09  6.08481E-09  6.11907E-09  6.15219E-09  6.18410E-09  6.21474E-09  6.24392E-09  6.27180E-09
   6.29872E-09  6.32715E-09  6.36452E-09  6.40145E-09  6.43718E-09  6.48664E-09  6.53950E-09  6.58755E-09  6.63614E-09  6.68405E-09
   6.72574E-09  6.75581E-09  6.77217E-09  6.78136E-09  6.79473E-09  6.78820E-09  6.76808E-09  6.76766E-09  6.76606E-09  6.75692E-09
   6.75546E-09  6.75495E-09  6.75312E-09  6.76020E-09  6.76990E-09  6.77616E-09  6.78705E-09  6.80133E-09  6.81455E-09  6.82618E-09
   6.83238E-09  6.83617E-09  6.84232E-09  6.83549E-09  6.81635E-09  6.80634E-09  6.79002E-09  6.76085E-09  6.73637E-09  6.71239E-09
   6.68462E-09  6.65690E-09  6.62922E-09  6.60117E-09  6.57242E-09  6.54279E-09  6.51211E-09  6.48031E-09  6.44727E-09  6.41289E-09
   6.37723E-09  6.34011E-09  6.30154E-09  6.26147E-09  6.21988E-09  6.17674E-09  6.13204E-09  6.08573E-09  6.03776E-09  5.98819E-09
   5.93688E-09  5.88391E-09  5.82920E-09  5.77276E-09  5.71456E-09  5.65457E-09  5.59275E-09  5.52916E-09  5.46372E-09  5.39642E-09
   5.32725E-09  5.25618E-09  5.18322E-09  5.10835E-09  5.03153E-09  4.95273E-09  4.87203E-09  4.78930E-09  4.70459E-09  4.61785E-09
   4.52910E-09  4.43831E-09  4.34548E-09  4.25055E-09  4.15357E-09  4.05449E-09  3.95334E-09  3.85018E-09  3.74508E-09  3.63812E-09
   3.52937E-09  3.41893E-09  3.30684E-09  3.19322E-09  3.07812E-09  2.96164E-09  2.84386E-09  2.72486E-09  2.60475E-09  2.48361E-09
   2.36151E-09  2.23862E-09  2.11504E-09  1.99099E-09  1.86685E-09  1.74370E-09  1.62665E-09  1.53155E-09  1.44003E-09  1.34352E-09
   1.24151E-09  1.13361E-09  1.01889E-09  8.98490E-10  7.73567E-10  6.40313E-10  4.89378E-10  3.15369E-10  1.37336E-10 -2.18771E-12
  -1.31403E-10 -2.56807E-10 -3.79992E-10 -5.01413E-10 -6.21277E-10 -7.39642E-10 -8.56489E-10 -9.71744E-10 -1.08543E-09 -1.19746E-09
  -1.30771E-09 -1.41617E-09 -1.52275E-09 -1.62738E-09 -1.72993E-09 -1.83038E-09 -1.92866E-09 -2.02464E-09 -2.11825E-09 -2.20947E-09
  -2.29818E-09 -2.38432E-09 -2.46780E-09 -2.54856E-09 -2.62655E-09 -2.70165E-09 -2.77384E-09 -2.84303E-09 -2.90918E-09 -2.97215E-09
  -3.03198E-09 -3.08854E-09 -3.14178E-09 -3.19165E-09 -3.23812E-09 -3.28108E-09 -3.32050E-09 -3.35636E-09 -3.38855E-09 -3.41717E-09
  -3.44224E-09 -3.46385E-09 -3.48205E-09 -3.49693E-09 -3.50852E-09 -3.51693E-09 -3.52220E-09 -3.52441E-09 -3.52363E-09 -3.51992E-09
