 LCModel (Version 6.3-1R) Copyright: S.W. Provencher.          Ref.: Magn. Reson. Med. 30:672-679 (1993).                
 onepulse 14x28_ftSpec_smooth_lcm
 26 lines in following concentration table = NCONC+1
    Conc.  %SD /Cr+PCr  Metabolite                                         
    0.000 999%   0.000 Ala                                                 
    0.000 999%   0.000 Asp                                                 
    0.000 999%   0.000 Cr                                                  
 5.40E-10 155%   7.285 GABA                                                
 1.92E-10 524%   2.594 Glc                                                 
    0.000 999%   0.000 Gln                                                 
    0.000 999%   0.000 Glu                                                 
    0.000 999%   0.000 Glyc                                                
 8.76E-11 140%   1.182 GPC                                                 
    0.000 999%   0.000 GSH                                                 
 1.25E-09  52%  16.833 Ins                                                 
    0.000 999%   0.000 Lac                                                 
    0.000 999%   0.000 NAAG                                                
 7.01E-10  48%   9.459 NAA                                                 
    0.000 999%   0.000 PCh                                                 
 7.41E-11 550%   1.000 PCr                                                 
    0.000 999%   0.000 PE                                                  
 1.48E-10 166%   1.995 Scyllo                                              
 5.64E-09  22%  76.135 Ser                                                 
    0.000 999%   0.000 Tau                                                 
 8.76E-11 140%   1.182 GPC+PCh                                             
 7.01E-10  48%   9.459 NAA+NAAG                                            
 1.25E-09  52%  16.833 Ins+Glyc                                            
 7.41E-11 550%   1.000 Cr+PCr                                              
    0.000 999%   0.000 Glu+Gln                                             
   6 lines in following misc. output table
  FWHM = 0.089 ppm    S/N =   2                                            
  Data shift = 0.347 ppm                                                   
  Ph: -12 deg     -28.5 deg/ppm                                            
  alphaB,S = 1.3E+00,   3.4E+01                                            
    8 spline knots.   Ns = 5(1)                                            
  (10) 2 infls.   ( 5) 1 extrs.                                            
  363 points on ppm-axis = NY
      4.250000     4.238821     4.227641     4.216462     4.205282     4.194103     4.182923     4.171744     4.160564     4.149385
      4.138206     4.127026     4.115847     4.104667     4.093488     4.082308     4.071129     4.059949     4.048770     4.037591
      4.026411     4.015232     4.004052     3.992873     3.981693     3.970514     3.959334     3.948155     3.936975     3.925796
      3.914617     3.903437     3.892258     3.881078     3.869899     3.858719     3.847540     3.836360     3.825181     3.814002
      3.802822     3.791643     3.780463     3.769284     3.758104     3.746925     3.735745     3.724566     3.713387     3.702207
      3.691028     3.679848     3.668669     3.657489     3.646310     3.635130     3.623951     3.612772     3.601592     3.590413
      3.579233     3.568054     3.556874     3.545695     3.534515     3.523336     3.512156     3.500977     3.489798     3.478618
      3.467439     3.456259     3.445080     3.433900     3.422721     3.411541     3.400362     3.389183     3.378003     3.366824
      3.355644     3.344465     3.333285     3.322106     3.310926     3.299747     3.288568     3.277388     3.266209     3.255029
      3.243850     3.232670     3.221491     3.210311     3.199132     3.187953     3.176773     3.165594     3.154414     3.143235
      3.132055     3.120876     3.109696     3.098517     3.087337     3.076158     3.064979     3.053799     3.042620     3.031440
      3.020261     3.009081     2.997902     2.986722     2.975543     2.964364     2.953184     2.942005     2.930825     2.919646
      2.908466     2.897287     2.886107     2.874928     2.863749     2.852569     2.841390     2.830210     2.819031     2.807851
      2.796672     2.785492     2.774313     2.763134     2.751954     2.740775     2.729595     2.718416     2.707236     2.696057
      2.684877     2.673698     2.662519     2.651339     2.640160     2.628980     2.617801     2.606621     2.595442     2.584262
      2.573083     2.561903     2.550724     2.539545     2.528365     2.517186     2.506006     2.494827     2.483647     2.472468
      2.461288     2.450109     2.438930     2.427750     2.416571     2.405391     2.394212     2.383032     2.371853     2.360673
      2.349494     2.338315     2.327135     2.315956     2.304776     2.293597     2.282417     2.271238     2.260058     2.248879
      2.237700     2.226520     2.215341     2.204161     2.192982     2.181802     2.170623     2.159443     2.148264     2.137084
      2.125905     2.114726     2.103546     2.092367     2.081187     2.070008     2.058828     2.047649     2.036469     2.025290
      2.014111     2.002931     1.991752     1.980572     1.969393     1.958213     1.947034     1.935854     1.924675     1.913496
      1.902316     1.891137     1.879957     1.868778     1.857598     1.846419     1.835239     1.824060     1.812881     1.801701
      1.790522     1.779342     1.768163     1.756983     1.745804     1.734624     1.723445     1.712265     1.701086     1.689907
      1.678727     1.667548     1.656368     1.645189     1.634009     1.622830     1.611650     1.600471     1.589292     1.578112
      1.566933     1.555753     1.544574     1.533394     1.522215     1.511035     1.499856     1.488677     1.477497     1.466318
      1.455138     1.443959     1.432779     1.421600     1.410420     1.399241     1.388062     1.376882     1.365703     1.354523
      1.343344     1.332164     1.320985     1.309805     1.298626     1.287446     1.276267     1.265088     1.253908     1.242729
      1.231549     1.220370     1.209190     1.198011     1.186831     1.175652     1.164473     1.153293     1.142114     1.130934
      1.119755     1.108575     1.097396     1.086216     1.075037     1.063858     1.052678     1.041499     1.030319     1.019140
      1.007960     0.996781     0.985601     0.974422     0.963243     0.952063     0.940884     0.929704     0.918525     0.907345
      0.896166     0.884986     0.873807     0.862628     0.851448     0.840269     0.829089     0.817910     0.806730     0.795551
      0.784371     0.773192     0.762012     0.750833     0.739654     0.728474     0.717295     0.706115     0.694936     0.683756
      0.672577     0.661397     0.650218     0.639039     0.627859     0.616680     0.605500     0.594321     0.583141     0.571962
      0.560782     0.549603     0.538424     0.527244     0.516065     0.504885     0.493706     0.482526     0.471347     0.460167
      0.448988     0.437809     0.426629     0.415450     0.404270     0.393091     0.381911     0.370732     0.359552     0.348373
      0.337193     0.326014     0.314835     0.303655     0.292476     0.281296     0.270117     0.258937     0.247758     0.236578
      0.225399     0.214220     0.203040
 NY phased data points follow
   1.33163E-09  4.93984E-09  4.66755E-09  6.79529E-09  5.26054E-09  6.79318E-09  4.79347E-09  6.57961E-09  4.78219E-09  5.83569E-09
   4.67531E-09  5.96476E-09  4.75969E-09  6.08678E-09  4.96821E-09  7.06095E-09  5.75000E-09  7.83690E-09  6.19754E-09  7.50641E-09
   6.11255E-09  7.60158E-09  6.49796E-09  7.47167E-09  5.72404E-09  7.39891E-09  6.96636E-09  8.25587E-09  6.82811E-09  7.98893E-09
   5.93357E-09  7.43268E-09  6.71593E-09  8.81875E-09  8.14743E-09  1.03578E-08  8.76275E-09  9.92288E-09  8.32314E-09  9.43941E-09
   7.67429E-09  9.18385E-09  7.96949E-09  9.60333E-09  8.06097E-09  8.87749E-09  8.11061E-09  8.65715E-09  7.19659E-09  8.47706E-09
   6.87293E-09  8.32529E-09  7.03855E-09  8.29673E-09  7.22676E-09  7.79844E-09  6.34199E-09  6.97666E-09  6.28672E-09  6.76026E-09
   5.89159E-09  6.80545E-09  5.38941E-09  7.54499E-09  7.16421E-09  9.46581E-09  8.64578E-09  9.55424E-09  8.73017E-09  9.31908E-09
   7.47870E-09  8.46005E-09  7.46797E-09  7.68870E-09  6.71891E-09  6.65916E-09  5.46509E-09  6.02922E-09  3.88297E-09  6.08219E-09
   7.48183E-09  1.04001E-08  1.11573E-08  1.20761E-08  1.09060E-08  1.20173E-08  1.08453E-08  1.19751E-08  1.08477E-08  1.11924E-08
   1.06055E-08  1.16899E-08  1.04296E-08  1.12889E-08  1.02574E-08  1.07722E-08  9.97253E-09  1.03446E-08  9.16233E-09  1.01599E-08
   8.81878E-09  9.50765E-09  8.50285E-09  9.21033E-09  8.41341E-09  8.94973E-09  8.37719E-09  8.73403E-09  7.86848E-09  7.76863E-09
   6.95335E-09  7.05067E-09  5.73741E-09  6.56068E-09  5.85430E-09  6.79902E-09  5.70362E-09  5.92710E-09  5.67680E-09  6.39198E-09
   5.87442E-09  6.56852E-09  5.50510E-09  6.02909E-09  5.24666E-09  5.64684E-09  3.91690E-09  4.78750E-09  4.30198E-09  4.66137E-09
   4.17335E-09  4.19802E-09  4.05527E-09  4.62700E-09  4.33901E-09  4.82192E-09  4.27421E-09  4.32122E-09  3.92968E-09  4.67638E-09
   4.77379E-09  6.55512E-09  6.53640E-09  7.46027E-09  7.22598E-09  7.86216E-09  8.06518E-09  9.05951E-09  9.11655E-09  9.75577E-09
   9.31414E-09  9.66208E-09  9.23740E-09  9.84366E-09  9.17078E-09  9.95411E-09  9.31306E-09  9.82362E-09  9.59508E-09  9.89368E-09
   9.86237E-09  1.02458E-08  1.03182E-08  1.02847E-08  9.57121E-09  1.04738E-08  9.80271E-09  1.04603E-08  9.96431E-09  1.07608E-08
   1.08243E-08  1.47876E-08  1.70205E-08  1.86090E-08  1.78203E-08  1.69012E-08  1.60354E-08  1.58847E-08  1.45585E-08  1.45055E-08
   1.36518E-08  1.25642E-08  1.15790E-08  1.08243E-08  9.09553E-09  8.33419E-09  6.27645E-09  4.26597E-09  2.13576E-09  6.24344E-10
  -2.09690E-09 -4.03071E-09 -7.73888E-09 -1.02328E-08 -1.33072E-08 -1.59240E-08 -1.83332E-08 -2.01021E-08 -2.17919E-08 -2.30222E-08
  -2.37572E-08 -2.29971E-08 -2.26088E-08 -2.15766E-08 -2.00698E-08 -1.74051E-08 -1.48306E-08 -1.21871E-08 -9.39811E-09 -6.08504E-09
  -4.11374E-09 -1.49974E-09 -5.46026E-10  4.78994E-10  8.83957E-10  6.33099E-10 -1.06027E-10 -1.02444E-09 -1.95387E-09 -2.29463E-09
  -2.80852E-09 -2.13365E-09 -1.97400E-09 -1.11644E-09 -4.62598E-10 -6.14591E-10 -8.42391E-10 -1.53116E-09 -2.05929E-09 -2.38427E-09
  -2.65728E-09 -2.50392E-09 -2.68973E-09 -1.94624E-09 -1.57538E-09 -1.05701E-09 -1.45687E-09 -1.49036E-09 -2.10145E-09 -2.92359E-09
  -3.32627E-09 -3.02061E-09 -3.11059E-09 -2.57490E-09 -2.62780E-09 -2.58375E-09 -2.37501E-09 -1.84464E-09 -1.66871E-09 -1.51438E-09
  -1.87232E-09 -1.55307E-09 -2.00687E-09 -2.05466E-09 -2.75959E-09 -2.59835E-09 -2.14259E-09 -2.14972E-09 -2.46175E-09 -1.59629E-09
  -1.56684E-09 -1.28811E-09 -1.21454E-09 -1.17099E-09 -1.07047E-09 -1.12767E-09 -4.78471E-10 -4.27535E-10 -8.02482E-10 -3.75411E-10
  -3.29623E-10 -1.36545E-10  1.80808E-10 -1.64643E-10 -3.85857E-10  5.96506E-12 -5.51773E-10 -5.03542E-10 -1.06052E-09 -1.02945E-09
  -1.35682E-09 -8.54549E-10 -2.03055E-09 -1.38002E-09 -1.33616E-09 -1.93080E-09 -1.60055E-09 -1.58649E-09 -1.88290E-09 -1.47283E-09
  -1.65020E-09 -1.37316E-09 -1.43082E-09 -1.26995E-09 -1.77137E-09 -1.03318E-09 -9.32923E-10 -1.00114E-09 -1.04734E-09 -7.90392E-10
  -9.86924E-10 -5.36247E-10 -7.03862E-10 -4.96360E-10 -7.68638E-10 -9.30022E-10 -9.80545E-10 -6.60044E-10 -5.77042E-10 -6.34910E-10
  -7.83891E-10 -9.92505E-10 -8.15133E-10 -7.79960E-10 -6.52761E-10 -5.47575E-10 -5.79532E-10 -4.39250E-10 -8.07528E-10 -5.55287E-10
  -6.26210E-10 -4.64808E-10 -7.54054E-10 -5.28266E-10 -7.39965E-10 -4.21773E-10 -4.05083E-10 -1.75351E-10 -4.06038E-10 -5.56261E-10
  -5.44939E-10 -6.97962E-10 -7.04715E-10 -1.48692E-10 -5.24643E-10 -3.72223E-11 -7.19139E-10 -6.76908E-10 -6.06205E-10 -6.85979E-12
  -3.39667E-10 -1.77798E-10 -1.12846E-10 -3.16486E-10 -7.04673E-10 -2.60374E-10 -4.98511E-10 -3.25755E-11 -4.45076E-10 -1.91341E-10
  -1.31301E-12 -1.04231E-10  2.22745E-10  9.00431E-11  4.46480E-10  4.91006E-10  3.07220E-10  2.90591E-10  3.97545E-10  3.11666E-10
   5.80490E-10  6.19792E-10  3.92107E-10
 NY points of the fit to the data follow
   9.31551E-10  4.01953E-09  5.41233E-09  5.54200E-09  6.40777E-09  7.53547E-09  7.84526E-09  6.96722E-09  5.61731E-09  4.65963E-09
   4.09132E-09  3.94241E-09  4.08120E-09  4.61946E-09  5.41402E-09  6.12023E-09  6.61854E-09  7.20495E-09  7.64882E-09  7.43051E-09
   6.90093E-09  6.50836E-09  6.30490E-09  6.14078E-09  6.14464E-09  6.39458E-09  6.81196E-09  7.22654E-09  7.41678E-09  7.36214E-09
   7.58753E-09  7.90473E-09  8.20200E-09  8.42288E-09  8.44075E-09  8.23352E-09  8.13808E-09  8.17249E-09  8.28634E-09  8.41925E-09
   8.51889E-09  8.58241E-09  8.53424E-09  8.29440E-09  8.10539E-09  8.02727E-09  7.91601E-09  7.78383E-09  7.68284E-09  7.63303E-09
   7.61463E-09  7.62328E-09  7.64580E-09  7.65024E-09  7.61853E-09  7.58918E-09  7.59851E-09  7.67464E-09  7.76772E-09  7.81223E-09
   7.77472E-09  7.69232E-09  7.64039E-09  7.63594E-09  7.70367E-09  7.89050E-09  8.07279E-09  8.16070E-09  8.26104E-09  8.36204E-09
   8.49081E-09  8.57317E-09  8.53113E-09  8.36124E-09  8.18086E-09  7.84775E-09  7.40547E-09  7.39313E-09  7.76304E-09  8.24664E-09
   8.82559E-09  9.47367E-09  1.01986E-08  1.10440E-08  1.19112E-08  1.26107E-08  1.29177E-08  1.25336E-08  1.14705E-08  1.06718E-08
   1.02829E-08  1.00588E-08  9.93428E-09  9.78371E-09  9.60076E-09  9.49341E-09  9.36194E-09  9.17337E-09  9.02832E-09  8.89791E-09
   8.75791E-09  8.63127E-09  8.51714E-09  8.41227E-09  8.31421E-09  8.22125E-09  8.13215E-09  8.04607E-09  7.96232E-09  7.88032E-09
   7.79970E-09  7.71992E-09  7.64073E-09  7.56191E-09  7.48328E-09  7.40473E-09  7.32609E-09  7.24720E-09  7.16794E-09  7.08829E-09
   7.00807E-09  6.92734E-09  6.84595E-09  6.76392E-09  6.68119E-09  6.59771E-09  6.51343E-09  6.42843E-09  6.34261E-09  6.25599E-09
   6.16858E-09  6.08032E-09  5.99131E-09  5.90149E-09  5.81090E-09  5.71950E-09  5.62744E-09  5.53461E-09  5.44113E-09  5.34697E-09
   5.25224E-09  5.15696E-09  5.06121E-09  4.96499E-09  4.86847E-09  4.77169E-09  4.67479E-09  4.57791E-09  4.48125E-09  4.38500E-09
   4.28942E-09  4.19481E-09  4.10150E-09  4.00995E-09  3.92069E-09  3.83441E-09  3.75200E-09  3.67465E-09  3.60400E-09  3.54235E-09
   3.49309E-09  3.46157E-09  3.45656E-09  3.49419E-09  3.60801E-09  3.88486E-09  4.65229E-09  7.07203E-09  1.01871E-08  1.29365E-08
   1.52001E-08  1.71650E-08  1.88218E-08  1.99230E-08  2.00367E-08  1.85755E-08  1.49700E-08  9.36192E-09  3.70355E-09  1.40980E-09
   7.56221E-10  4.45533E-10  2.46655E-10  9.51277E-11 -3.30015E-11 -1.48253E-10 -2.55775E-10 -3.58262E-10 -4.57319E-10 -5.53784E-10
  -6.48141E-10 -7.40760E-10 -8.31780E-10 -9.21318E-10 -1.00937E-09 -1.09600E-09 -1.18123E-09 -1.26494E-09 -1.34716E-09 -1.42788E-09
  -1.50704E-09 -1.58459E-09 -1.66048E-09 -1.73470E-09 -1.80721E-09 -1.87794E-09 -1.94687E-09 -2.01397E-09 -2.07922E-09 -2.14252E-09
  -2.20393E-09 -2.26336E-09 -2.32078E-09 -2.37620E-09 -2.42959E-09 -2.48089E-09 -2.53010E-09 -2.57722E-09 -2.62220E-09 -2.66507E-09
  -2.70584E-09 -2.74454E-09 -2.78119E-09 -2.81580E-09 -2.84840E-09 -2.87902E-09 -2.90767E-09 -2.93438E-09 -2.95917E-09 -2.98207E-09
  -3.00311E-09 -3.02231E-09 -3.03970E-09 -3.05529E-09 -3.06913E-09 -3.08124E-09 -3.09164E-09 -3.10036E-09 -3.10743E-09 -3.11288E-09
  -3.11673E-09 -3.11902E-09 -3.11978E-09 -3.11903E-09 -3.11679E-09 -3.11311E-09 -3.10800E-09 -3.10151E-09 -3.09365E-09 -3.08445E-09
  -3.07395E-09 -3.06217E-09 -3.04915E-09 -3.03490E-09 -3.01945E-09 -3.00286E-09 -2.98512E-09 -2.96628E-09 -2.94636E-09 -2.92538E-09
  -2.90338E-09 -2.88038E-09 -2.85642E-09 -2.83151E-09 -2.80567E-09 -2.77895E-09 -2.75137E-09 -2.72293E-09 -2.69369E-09 -2.66365E-09
  -2.63284E-09 -2.60128E-09 -2.56901E-09 -2.53603E-09 -2.50238E-09 -2.46807E-09 -2.43312E-09 -2.39757E-09 -2.36142E-09 -2.32469E-09
  -2.28742E-09 -2.24961E-09 -2.21128E-09 -2.17245E-09 -2.13314E-09 -2.09336E-09 -2.05313E-09 -2.01247E-09 -1.97138E-09 -1.92989E-09
  -1.88801E-09 -1.84574E-09 -1.80310E-09 -1.76010E-09 -1.71674E-09 -1.67304E-09 -1.62900E-09 -1.58463E-09 -1.53995E-09 -1.49495E-09
  -1.44966E-09 -1.40408E-09 -1.35821E-09 -1.31207E-09 -1.26567E-09 -1.21902E-09 -1.17212E-09 -1.12498E-09 -1.07762E-09 -1.03004E-09
  -9.82251E-10 -9.34262E-10 -8.86083E-10 -8.37721E-10 -7.89187E-10 -7.40488E-10 -6.91634E-10 -6.42634E-10 -5.93496E-10 -5.44230E-10
  -4.94843E-10 -4.45345E-10 -3.95743E-10 -3.46048E-10 -2.96267E-10 -2.46410E-10 -1.96482E-10 -1.46495E-10 -9.64550E-11 -4.63726E-11
   3.74661E-12  5.38929E-11  1.04058E-10  1.54234E-10  2.04414E-10  2.54589E-10  3.04754E-10  3.54896E-10  4.05012E-10  4.55089E-10
   5.05126E-10  5.55109E-10  6.05036E-10  6.54897E-10  7.04682E-10  7.54390E-10  8.04008E-10  8.53535E-10  9.02956E-10  9.52273E-10
   1.00147E-09  1.05055E-09  1.09950E-09  1.14831E-09  1.19698E-09  1.24550E-09  1.29387E-09  1.34207E-09  1.39010E-09  1.43797E-09
   1.48565E-09  1.53314E-09  1.58045E-09
 NY background values follow
    -2.955E-09   -2.761E-09   -2.570E-09   -2.380E-09   -2.191E-09   -2.004E-09   -1.819E-09   -1.635E-09   -1.453E-09   -1.273E-09
    -1.094E-09   -9.175E-10   -7.424E-10   -5.690E-10   -3.975E-10   -2.278E-10   -5.986E-11    1.062E-10    2.703E-10    4.326E-10
     5.930E-10    7.514E-10    9.079E-10    1.062E-09    1.215E-09    1.365E-09    1.514E-09    1.661E-09    1.805E-09    1.947E-09
     2.088E-09    2.226E-09    2.362E-09    2.496E-09    2.628E-09    2.758E-09    2.886E-09    3.011E-09    3.135E-09    3.256E-09
     3.375E-09    3.492E-09    3.607E-09    3.719E-09    3.830E-09    3.938E-09    4.044E-09    4.147E-09    4.249E-09    4.348E-09
     4.445E-09    4.540E-09    4.632E-09    4.723E-09    4.811E-09    4.897E-09    4.981E-09    5.062E-09    5.141E-09    5.218E-09
     5.293E-09    5.365E-09    5.436E-09    5.504E-09    5.570E-09    5.633E-09    5.695E-09    5.754E-09    5.811E-09    5.866E-09
     5.919E-09    5.969E-09    6.018E-09    6.064E-09    6.108E-09    6.150E-09    6.190E-09    6.227E-09    6.263E-09    6.296E-09
     6.327E-09    6.356E-09    6.383E-09    6.408E-09    6.431E-09    6.452E-09    6.470E-09    6.487E-09    6.501E-09    6.513E-09
     6.523E-09    6.532E-09    6.538E-09    6.542E-09    6.544E-09    6.544E-09    6.542E-09    6.538E-09    6.532E-09    6.524E-09
     6.514E-09    6.502E-09    6.488E-09    6.472E-09    6.454E-09    6.434E-09    6.412E-09    6.388E-09    6.363E-09    6.335E-09
     6.306E-09    6.274E-09    6.241E-09    6.206E-09    6.169E-09    6.131E-09    6.090E-09    6.048E-09    6.003E-09    5.958E-09
     5.910E-09    5.860E-09    5.809E-09    5.756E-09    5.702E-09    5.645E-09    5.587E-09    5.528E-09    5.466E-09    5.404E-09
     5.339E-09    5.273E-09    5.205E-09    5.136E-09    5.065E-09    4.993E-09    4.919E-09    4.844E-09    4.767E-09    4.689E-09
     4.609E-09    4.528E-09    4.445E-09    4.362E-09    4.276E-09    4.190E-09    4.102E-09    4.013E-09    3.923E-09    3.832E-09
     3.739E-09    3.646E-09    3.552E-09    3.456E-09    3.360E-09    3.263E-09    3.166E-09    3.067E-09    2.968E-09    2.869E-09
     2.769E-09    2.668E-09    2.568E-09    2.467E-09    2.365E-09    2.264E-09    2.162E-09    2.060E-09    1.958E-09    1.856E-09
     1.755E-09    1.653E-09    1.552E-09    1.451E-09    1.350E-09    1.249E-09    1.149E-09    1.050E-09    9.510E-10    8.527E-10
     7.550E-10    6.581E-10    5.619E-10    4.666E-10    3.721E-10    2.786E-10    1.860E-10    9.452E-11    4.075E-12   -8.524E-11
    -1.733E-10   -2.602E-10   -3.458E-10   -4.302E-10   -5.131E-10   -5.946E-10   -6.747E-10   -7.532E-10   -8.302E-10   -9.057E-10
    -9.795E-10   -1.052E-09   -1.122E-09   -1.191E-09   -1.258E-09   -1.323E-09   -1.387E-09   -1.448E-09   -1.508E-09   -1.565E-09
    -1.621E-09   -1.675E-09   -1.727E-09   -1.777E-09   -1.824E-09   -1.870E-09   -1.914E-09   -1.955E-09   -1.995E-09   -2.032E-09
    -2.068E-09   -2.101E-09   -2.132E-09   -2.161E-09   -2.189E-09   -2.214E-09   -2.237E-09   -2.259E-09   -2.279E-09   -2.296E-09
    -2.312E-09   -2.327E-09   -2.339E-09   -2.350E-09   -2.359E-09   -2.366E-09   -2.372E-09   -2.376E-09   -2.378E-09   -2.379E-09
    -2.378E-09   -2.376E-09   -2.373E-09   -2.368E-09   -2.361E-09   -2.353E-09   -2.344E-09   -2.333E-09   -2.321E-09   -2.308E-09
    -2.294E-09   -2.278E-09   -2.261E-09   -2.243E-09   -2.224E-09   -2.204E-09   -2.183E-09   -2.160E-09   -2.137E-09   -2.112E-09
    -2.087E-09   -2.061E-09   -2.034E-09   -2.005E-09   -1.977E-09   -1.947E-09   -1.916E-09   -1.885E-09   -1.853E-09   -1.820E-09
    -1.786E-09   -1.752E-09   -1.717E-09   -1.682E-09   -1.645E-09   -1.609E-09   -1.571E-09   -1.533E-09   -1.495E-09   -1.456E-09
    -1.417E-09   -1.377E-09   -1.336E-09   -1.296E-09   -1.254E-09   -1.213E-09   -1.171E-09   -1.128E-09   -1.085E-09   -1.042E-09
    -9.988E-10   -9.550E-10   -9.108E-10   -8.664E-10   -8.217E-10   -7.767E-10   -7.314E-10   -6.858E-10   -6.400E-10   -5.939E-10
    -5.476E-10   -5.010E-10   -4.542E-10   -4.072E-10   -3.600E-10   -3.126E-10   -2.650E-10   -2.172E-10   -1.692E-10   -1.211E-10
    -7.281E-11   -2.437E-11    2.420E-11    7.290E-11    1.217E-10    1.706E-10    2.197E-10    2.688E-10    3.180E-10    3.673E-10
     4.167E-10    4.661E-10    5.156E-10    5.651E-10    6.147E-10    6.642E-10    7.138E-10    7.635E-10    8.131E-10    8.627E-10
     9.123E-10    9.619E-10    1.011E-09    1.061E-09    1.110E-09    1.160E-09    1.209E-09    1.258E-09    1.308E-09    1.357E-09
     1.406E-09    1.455E-09    1.504E-09    1.552E-09    1.601E-09    1.649E-09    1.698E-09    1.746E-09    1.794E-09    1.842E-09
     1.890E-09    1.937E-09    1.985E-09    2.032E-09    2.079E-09    2.126E-09    2.172E-09    2.219E-09    2.265E-09    2.311E-09
     2.357E-09    2.402E-09    2.448E-09
 GABA     Conc. = 5.40E-10
  -3.23376E-09 -3.04614E-09 -2.86028E-09 -2.67623E-09 -2.49403E-09 -2.31373E-09 -2.13539E-09 -1.95906E-09 -1.78481E-09 -1.61270E-09
  -1.44279E-09 -1.27519E-09 -1.10995E-09 -9.47182E-10 -7.86994E-10 -6.29481E-10 -4.74800E-10 -3.23139E-10 -1.74661E-10 -2.96151E-11
   1.11688E-10  2.48898E-10  3.81532E-10  5.08977E-10  6.30479E-10  7.44945E-10  8.50941E-10  9.46691E-10  1.03163E-09  1.13203E-09
   1.26562E-09  1.38171E-09  1.52239E-09  1.74638E-09  2.00369E-09  2.28227E-09  2.60659E-09  2.96329E-09  3.31687E-09  3.62901E-09
   3.88589E-09  4.13272E-09  4.33762E-09  4.38713E-09  4.41441E-09  4.49230E-09  4.50937E-09  4.49631E-09  4.50711E-09  4.53387E-09
   4.57045E-09  4.61305E-09  4.65902E-09  4.70662E-09  4.75456E-09  4.80159E-09  4.84679E-09  4.88931E-09  4.92828E-09  4.96345E-09
   4.99592E-09  5.03829E-09  5.13679E-09  5.24286E-09  5.34411E-09  5.53400E-09  5.77000E-09  6.00177E-09  6.25021E-09  6.50713E-09
   6.73930E-09  6.90655E-09  6.98824E-09  7.01801E-09  7.05599E-09  6.97037E-09  6.80882E-09  6.76602E-09  6.71721E-09  6.62628E-09
   6.58702E-09  6.56310E-09  6.53661E-09  6.56591E-09  6.62237E-09  6.66950E-09  6.74967E-09  6.86066E-09  6.97894E-09  7.09669E-09
   7.19075E-09  7.27865E-09  7.38018E-09  7.40517E-09  7.36501E-09  7.37769E-09  7.34965E-09  7.25192E-09  7.18789E-09  7.13066E-09
   7.05741E-09  6.99220E-09  6.93500E-09  6.88321E-09  6.83492E-09  6.78883E-09  6.74403E-09  6.69999E-09  6.65624E-09  6.61240E-09
   6.56829E-09  6.52348E-09  6.47788E-09  6.43136E-09  6.38384E-09  6.33527E-09  6.28559E-09  6.23468E-09  6.18248E-09  6.12902E-09
   6.07416E-09  6.01799E-09  5.96042E-09  5.90148E-09  5.84114E-09  5.77937E-09  5.71615E-09  5.65156E-09  5.58553E-09  5.51808E-09
   5.44922E-09  5.37893E-09  5.30726E-09  5.23420E-09  5.15976E-09  5.08390E-09  5.00676E-09  4.92822E-09  4.84838E-09  4.76718E-09
   4.68471E-09  4.60096E-09  4.51596E-09  4.42967E-09  4.34219E-09  4.25351E-09  4.16367E-09  4.07272E-09  3.98071E-09  3.88772E-09
   3.79380E-09  3.69903E-09  3.60346E-09  3.50719E-09  3.41030E-09  3.31287E-09  3.21504E-09  3.11690E-09  3.01864E-09  2.92046E-09
   2.82260E-09  2.72554E-09  2.62991E-09  2.53698E-09  2.44942E-09  2.37476E-09  2.34570E-09  2.43809E-09  2.54145E-09  2.61065E-09
   2.65227E-09  2.67864E-09  2.68354E-09  2.64707E-09  2.53808E-09  2.31636E-09  1.95006E-09  1.47236E-09  1.05103E-09  8.78488E-10
   7.56471E-10  6.48339E-10  5.45933E-10  4.46682E-10  3.49512E-10  2.53951E-10  1.59793E-10  6.69725E-11 -2.46312E-11 -1.14983E-10
  -2.04037E-10 -2.91833E-10 -3.78303E-10 -4.63432E-10 -5.47133E-10 -6.29415E-10 -7.10254E-10 -7.89542E-10 -8.67272E-10 -9.43438E-10
  -1.01797E-09 -1.09084E-09 -1.16200E-09 -1.23142E-09 -1.29909E-09 -1.36493E-09 -1.42894E-09 -1.49110E-09 -1.55137E-09 -1.60968E-09
  -1.66609E-09 -1.72050E-09 -1.77291E-09 -1.82330E-09 -1.87168E-09 -1.91797E-09 -1.96218E-09 -2.00432E-09 -2.04433E-09 -2.08225E-09
  -2.11810E-09 -2.15190E-09 -2.18368E-09 -2.21345E-09 -2.24124E-09 -2.26707E-09 -2.29098E-09 -2.31299E-09 -2.33311E-09 -2.35138E-09
  -2.36783E-09 -2.38248E-09 -2.39536E-09 -2.40649E-09 -2.41591E-09 -2.42365E-09 -2.42972E-09 -2.43416E-09 -2.43700E-09 -2.43826E-09
  -2.43798E-09 -2.43618E-09 -2.43290E-09 -2.42816E-09 -2.42198E-09 -2.41441E-09 -2.40547E-09 -2.39519E-09 -2.38360E-09 -2.37072E-09
  -2.35659E-09 -2.34123E-09 -2.32469E-09 -2.30697E-09 -2.28811E-09 -2.26814E-09 -2.24710E-09 -2.22499E-09 -2.20186E-09 -2.17773E-09
  -2.15263E-09 -2.12659E-09 -2.09963E-09 -2.07179E-09 -2.04307E-09 -2.01351E-09 -1.98315E-09 -1.95199E-09 -1.92007E-09 -1.88742E-09
  -1.85404E-09 -1.81998E-09 -1.78525E-09 -1.74986E-09 -1.71386E-09 -1.67725E-09 -1.64007E-09 -1.60232E-09 -1.56403E-09 -1.52522E-09
  -1.48592E-09 -1.44612E-09 -1.40587E-09 -1.36516E-09 -1.32403E-09 -1.28248E-09 -1.24054E-09 -1.19820E-09 -1.15551E-09 -1.11245E-09
  -1.06906E-09 -1.02533E-09 -9.81283E-10 -9.36923E-10 -8.92259E-10 -8.47303E-10 -8.02059E-10 -7.56540E-10 -7.10753E-10 -6.64707E-10
  -6.18412E-10 -5.71876E-10 -5.25110E-10 -4.78120E-10 -4.30917E-10 -3.83509E-10 -3.35906E-10 -2.88116E-10 -2.40148E-10 -1.92011E-10
  -1.43715E-10 -9.52664E-11 -4.66758E-11  2.04838E-12  5.08976E-11  9.98629E-11  1.48936E-10  1.98107E-10  2.47369E-10  2.96713E-10
   3.46130E-10  3.95611E-10  4.45149E-10  4.94735E-10  5.44360E-10  5.94015E-10  6.43695E-10  6.93388E-10  7.43089E-10  7.92788E-10
   8.42477E-10  8.92149E-10  9.41795E-10  9.91408E-10  1.04098E-09  1.09050E-09  1.13997E-09  1.18937E-09  1.23870E-09  1.28795E-09
   1.33712E-09  1.38619E-09  1.43516E-09  1.48402E-09  1.53277E-09  1.58139E-09  1.62988E-09  1.67824E-09  1.72645E-09  1.77452E-09
   1.82242E-09  1.87017E-09  1.91774E-09  1.96514E-09  2.01235E-09  2.05937E-09  2.10621E-09  2.15283E-09  2.19926E-09  2.24546E-09
   2.29145E-09  2.33721E-09  2.38274E-09
 Glc      Conc. = 1.92E-10
  -3.39208E-09 -3.15799E-09 -2.91891E-09 -2.66009E-09 -2.39176E-09 -2.12049E-09 -1.86753E-09 -1.63517E-09 -1.43471E-09 -1.28076E-09
  -1.13828E-09 -9.99578E-10 -8.65591E-10 -7.24743E-10 -5.60106E-10 -3.71220E-10 -1.62491E-10  6.86958E-11  3.12322E-10  5.63459E-10
   8.31817E-10  1.10594E-09  1.36674E-09  1.60070E-09  1.78031E-09  1.89626E-09  1.99242E-09  2.10144E-09  2.22712E-09  2.36404E-09
   2.49803E-09  2.62631E-09  2.75724E-09  2.88369E-09  2.99814E-09  3.11067E-09  3.22439E-09  3.33203E-09  3.43452E-09  3.53754E-09
   3.64102E-09  3.74422E-09  3.84679E-09  3.94839E-09  4.04883E-09  4.14793E-09  4.24558E-09  4.34165E-09  4.43607E-09  4.52877E-09
   4.61967E-09  4.70875E-09  4.79593E-09  4.88121E-09  4.96455E-09  5.04590E-09  5.12525E-09  5.20263E-09  5.27791E-09  5.35118E-09
   5.42240E-09  5.49152E-09  5.55859E-09  5.62355E-09  5.68646E-09  5.74726E-09  5.80596E-09  5.86255E-09  5.91705E-09  5.96947E-09
   6.01976E-09  6.06796E-09  6.11410E-09  6.15812E-09  6.20007E-09  6.23993E-09  6.27771E-09  6.31341E-09  6.34702E-09  6.37856E-09
   6.40801E-09  6.43539E-09  6.46070E-09  6.48393E-09  6.50512E-09  6.52423E-09  6.54128E-09  6.55629E-09  6.56925E-09  6.58017E-09
   6.58904E-09  6.59589E-09  6.60070E-09  6.60352E-09  6.60430E-09  6.60307E-09  6.59985E-09  6.59464E-09  6.58744E-09  6.57827E-09
   6.56712E-09  6.55402E-09  6.53895E-09  6.52196E-09  6.50302E-09  6.48215E-09  6.45936E-09  6.43470E-09  6.40813E-09  6.37962E-09
   6.34931E-09  6.31710E-09  6.28303E-09  6.24712E-09  6.20937E-09  6.16981E-09  6.12846E-09  6.08531E-09  6.04036E-09  5.99370E-09
   5.94522E-09  5.89505E-09  5.84312E-09  5.78951E-09  5.73420E-09  5.67719E-09  5.61849E-09  5.55820E-09  5.49625E-09  5.43268E-09
   5.36752E-09  5.30075E-09  5.23245E-09  5.16260E-09  5.09122E-09  5.01828E-09  4.94393E-09  4.86807E-09  4.79077E-09  4.71201E-09
   4.63187E-09  4.55033E-09  4.46744E-09  4.38317E-09  4.29761E-09  4.21075E-09  4.12261E-09  4.03327E-09  3.94278E-09  3.85119E-09
   3.75856E-09  3.66496E-09  3.57044E-09  3.47508E-09  3.37893E-09  3.28207E-09  3.18458E-09  3.08654E-09  2.98805E-09  2.88922E-09
   2.79016E-09  2.69110E-09  2.59229E-09  2.49422E-09  2.39787E-09  2.30592E-09  2.22988E-09  2.19733E-09  2.16884E-09  2.12818E-09
   2.07769E-09  2.02185E-09  1.95855E-09  1.88073E-09  1.77738E-09  1.63419E-09  1.43968E-09  1.20535E-09  9.90718E-10  8.65786E-10
   7.59493E-10  6.58631E-10  5.60281E-10  4.63596E-10  3.68209E-10  2.73982E-10  1.80885E-10  8.89519E-11 -1.88148E-12 -9.15437E-11
  -1.79964E-10 -2.67171E-10 -3.53082E-10 -4.37677E-10 -5.20865E-10 -6.02650E-10 -6.83007E-10 -7.61824E-10 -8.39095E-10 -9.14811E-10
  -9.88906E-10 -1.06134E-09 -1.13207E-09 -1.20108E-09 -1.26835E-09 -1.33379E-09 -1.39741E-09 -1.45917E-09 -1.51907E-09 -1.57701E-09
  -1.63305E-09 -1.68710E-09 -1.73916E-09 -1.78921E-09 -1.83725E-09 -1.88320E-09 -1.92709E-09 -1.96891E-09 -2.00860E-09 -2.04622E-09
  -2.08177E-09 -2.11528E-09 -2.14676E-09 -2.17625E-09 -2.20376E-09 -2.22933E-09 -2.25297E-09 -2.27471E-09 -2.29458E-09 -2.31260E-09
