 LCModel (Version 6.3-1R) Copyright: S.W. Provencher.          Ref.: Magn. Reson. Med. 30:672-679 (1993).                
 onepulse 14x23_ftSpec_smooth_lcm
 26 lines in following concentration table = NCONC+1
    Conc.  %SD   /Cr    Metabolite                                         
    0.000 999%   0.000 Ala                                                 
 1.19E-09  98%   0.000 Asp                                                 
    0.000 999%   0.000 Cr                                                  
 6.59E-10 136%   0.000 GABA                                                
    0.000 999%   0.000 Glc                                                 
 1.93E-09  52%   0.000 Gln                                                 
    0.000 999%   0.000 Glu                                                 
 5.25E-10 513%   0.000 Glyc                                                
    0.000 999%   0.000 GPC                                                 
 8.63E-10 110%   0.000 GSH                                                 
 1.53E-09 146%   0.000 Ins                                                 
    0.000 999%   0.000 Lac                                                 
 5.50E-10  91%   0.000 NAAG                                                
    0.000 999%   0.000 NAA                                                 
    0.000 999%   0.000 PCh                                                 
    0.000 999%   0.000 PCr                                                 
 1.87E-09  76%   0.000 PE                                                  
 3.64E-10 107%   0.000 Scyllo                                              
 7.75E-10 158%   0.000 Ser                                                 
 3.11E-10 429%   0.000 Tau                                                 
    0.000 999%   0.000 GPC+PCh                                             
 5.50E-10  80%   0.000 NAA+NAAG                                            
 2.06E-09  37%   0.000 Ins+Glyc                                            
    0.000 999%   0.000 Cr+PCr                                              
 1.93E-09  52%   0.000 Glu+Gln                                             
   6 lines in following misc. output table
  FWHM = 0.123 ppm    S/N =   2                                            
  Data shift = 0.425 ppm                                                   
  Ph: -30 deg     -41.2 deg/ppm                                            
  alphaB,S = 7.4E-01,   2.6E+01                                            
    8 spline knots.   Ns = 5(1)                                            
  (12) 4 infls.   (11) 3 extrs.                                            
  363 points on ppm-axis = NY
      4.250000     4.238821     4.227641     4.216462     4.205282     4.194103     4.182923     4.171744     4.160564     4.149385
      4.138206     4.127026     4.115847     4.104667     4.093488     4.082308     4.071129     4.059949     4.048770     4.037591
      4.026411     4.015232     4.004052     3.992873     3.981693     3.970514     3.959334     3.948155     3.936975     3.925796
      3.914617     3.903437     3.892258     3.881078     3.869899     3.858719     3.847540     3.836360     3.825181     3.814002
      3.802822     3.791643     3.780463     3.769284     3.758104     3.746925     3.735745     3.724566     3.713387     3.702207
      3.691028     3.679848     3.668669     3.657489     3.646310     3.635130     3.623951     3.612772     3.601592     3.590413
      3.579233     3.568054     3.556874     3.545695     3.534515     3.523336     3.512156     3.500977     3.489798     3.478618
      3.467439     3.456259     3.445080     3.433900     3.422721     3.411541     3.400362     3.389183     3.378003     3.366824
      3.355644     3.344465     3.333285     3.322106     3.310926     3.299747     3.288568     3.277388     3.266209     3.255029
      3.243850     3.232670     3.221491     3.210311     3.199132     3.187953     3.176773     3.165594     3.154414     3.143235
      3.132055     3.120876     3.109696     3.098517     3.087337     3.076158     3.064979     3.053799     3.042620     3.031440
      3.020261     3.009081     2.997902     2.986722     2.975543     2.964364     2.953184     2.942005     2.930825     2.919646
      2.908466     2.897287     2.886107     2.874928     2.863749     2.852569     2.841390     2.830210     2.819031     2.807851
      2.796672     2.785492     2.774313     2.763134     2.751954     2.740775     2.729595     2.718416     2.707236     2.696057
      2.684877     2.673698     2.662519     2.651339     2.640160     2.628980     2.617801     2.606621     2.595442     2.584262
      2.573083     2.561903     2.550724     2.539545     2.528365     2.517186     2.506006     2.494827     2.483647     2.472468
      2.461288     2.450109     2.438930     2.427750     2.416571     2.405391     2.394212     2.383032     2.371853     2.360673
      2.349494     2.338315     2.327135     2.315956     2.304776     2.293597     2.282417     2.271238     2.260058     2.248879
      2.237700     2.226520     2.215341     2.204161     2.192982     2.181802     2.170623     2.159443     2.148264     2.137084
      2.125905     2.114726     2.103546     2.092367     2.081187     2.070008     2.058828     2.047649     2.036469     2.025290
      2.014111     2.002931     1.991752     1.980572     1.969393     1.958213     1.947034     1.935854     1.924675     1.913496
      1.902316     1.891137     1.879957     1.868778     1.857598     1.846419     1.835239     1.824060     1.812881     1.801701
      1.790522     1.779342     1.768163     1.756983     1.745804     1.734624     1.723445     1.712265     1.701086     1.689907
      1.678727     1.667548     1.656368     1.645189     1.634009     1.622830     1.611650     1.600471     1.589292     1.578112
      1.566933     1.555753     1.544574     1.533394     1.522215     1.511035     1.499856     1.488677     1.477497     1.466318
      1.455138     1.443959     1.432779     1.421600     1.410420     1.399241     1.388062     1.376882     1.365703     1.354523
      1.343344     1.332164     1.320985     1.309805     1.298626     1.287446     1.276267     1.265088     1.253908     1.242729
      1.231549     1.220370     1.209190     1.198011     1.186831     1.175652     1.164473     1.153293     1.142114     1.130934
      1.119755     1.108575     1.097396     1.086216     1.075037     1.063858     1.052678     1.041499     1.030319     1.019140
      1.007960     0.996781     0.985601     0.974422     0.963243     0.952063     0.940884     0.929704     0.918525     0.907345
      0.896166     0.884986     0.873807     0.862628     0.851448     0.840269     0.829089     0.817910     0.806730     0.795551
      0.784371     0.773192     0.762012     0.750833     0.739654     0.728474     0.717295     0.706115     0.694936     0.683756
      0.672577     0.661397     0.650218     0.639039     0.627859     0.616680     0.605500     0.594321     0.583141     0.571962
      0.560782     0.549603     0.538424     0.527244     0.516065     0.504885     0.493706     0.482526     0.471347     0.460167
      0.448988     0.437809     0.426629     0.415450     0.404270     0.393091     0.381911     0.370732     0.359552     0.348373
      0.337193     0.326014     0.314835     0.303655     0.292476     0.281296     0.270117     0.258937     0.247758     0.236578
      0.225399     0.214220     0.203040
 NY phased data points follow
   1.09396E-08  1.00509E-08  1.04336E-08  1.01937E-08  1.03388E-08  1.06359E-08  1.09294E-08  1.09449E-08  1.13201E-08  1.11931E-08
   1.09898E-08  1.08754E-08  1.01905E-08  1.02464E-08  1.01647E-08  9.96185E-09  9.72405E-09  9.86159E-09  1.02305E-08  1.06903E-08
   9.79893E-09  1.05604E-08  9.48215E-09  9.73054E-09  9.97008E-09  1.12686E-08  1.12715E-08  1.22357E-08  1.14627E-08  1.00008E-08
   9.61235E-09  8.79314E-09  8.06970E-09  8.30392E-09  7.72585E-09  8.02897E-09  7.21887E-09  7.30306E-09  7.18932E-09  6.86002E-09
   6.69965E-09  6.28969E-09  5.92832E-09  6.66662E-09  6.49330E-09  6.43030E-09  6.56075E-09  6.26737E-09  6.33499E-09  6.37061E-09
   6.53757E-09  6.33097E-09  6.66529E-09  7.26932E-09  7.35520E-09  8.14374E-09  9.58637E-09  1.11092E-08  1.10279E-08  1.11990E-08
   1.05239E-08  1.04054E-08  9.13769E-09  8.50884E-09  7.70605E-09  7.34934E-09  7.01481E-09  7.30799E-09  6.34994E-09  6.77516E-09
   7.26362E-09  7.94623E-09  9.49659E-09  1.14700E-08  1.37746E-08  1.48186E-08  1.48246E-08  1.36784E-08  1.32014E-08  1.22454E-08
   1.21413E-08  1.17674E-08  1.08134E-08  1.09666E-08  1.04479E-08  1.04875E-08  1.04052E-08  9.34086E-09  8.88343E-09  9.06295E-09
   8.79616E-09  8.54711E-09  7.62230E-09  7.56021E-09  8.09528E-09  7.35080E-09  7.36753E-09  7.88532E-09  7.07076E-09  7.43518E-09
   6.93595E-09  6.77289E-09  5.85750E-09  6.12845E-09  5.41121E-09  4.90966E-09  5.01002E-09  4.94855E-09  5.39897E-09  5.80535E-09
   5.30675E-09  5.81704E-09  5.58129E-09  5.39499E-09  6.06817E-09  6.08666E-09  5.50297E-09  5.62297E-09  4.88323E-09  4.71786E-09
   4.20456E-09  4.05141E-09  4.83166E-09  4.44498E-09  4.27532E-09  4.40371E-09  4.15788E-09  5.11247E-09  4.45719E-09  4.36752E-09
   4.80033E-09  4.56192E-09  4.62570E-09  4.76391E-09  5.80182E-09  6.33495E-09  6.31722E-09  6.80544E-09  6.80834E-09  7.44071E-09
   7.57802E-09  8.14112E-09  7.81400E-09  8.50734E-09  8.07489E-09  8.17734E-09  8.64244E-09  8.44664E-09  8.13717E-09  7.88127E-09
   8.30143E-09  8.21370E-09  8.01928E-09  8.27106E-09  8.58767E-09  8.90517E-09  8.25720E-09  8.32267E-09  8.21462E-09  8.12560E-09
   7.86325E-09  8.37936E-09  9.40274E-09  1.08953E-08  1.24643E-08  1.62194E-08  1.84237E-08  1.99779E-08  1.99068E-08  2.06071E-08
   1.98932E-08  2.00558E-08  1.88788E-08  1.92811E-08  1.87989E-08  1.96122E-08  1.89078E-08  1.85578E-08  1.83310E-08  1.82643E-08
   1.75833E-08  1.74972E-08  1.63552E-08  1.59523E-08  1.50402E-08  1.35034E-08  1.27825E-08  1.06981E-08  8.74561E-09  6.95248E-09
   4.33551E-09  1.80609E-09 -9.39762E-10 -3.16706E-09 -5.90409E-09 -8.20736E-09 -9.72210E-09 -1.18084E-08 -1.39805E-08 -1.42494E-08
  -1.52247E-08 -1.48392E-08 -1.40859E-08 -1.33768E-08 -1.25271E-08 -1.06218E-08 -9.39709E-09 -7.56466E-09 -6.08917E-09 -4.05247E-09
  -3.83963E-09 -3.10816E-09 -2.33091E-09 -2.01894E-09 -2.37550E-09 -2.53680E-09 -2.54118E-09 -2.65861E-09 -2.60840E-09 -2.35619E-09
  -1.84268E-09 -1.41805E-09 -1.47917E-09 -8.12643E-10 -9.70533E-10 -1.36622E-09 -1.79312E-09 -2.02045E-09 -2.13786E-09 -1.83773E-09
  -1.68480E-09 -1.54211E-09 -9.98750E-10 -1.20037E-09 -8.58549E-10 -4.41196E-10 -1.25553E-09 -9.92182E-10 -1.49797E-09 -1.15862E-09
  -1.78353E-09 -1.96556E-09 -2.08369E-09 -1.63539E-09 -1.33508E-09 -1.45356E-09 -9.97472E-10 -2.39995E-10 -6.91872E-10 -4.58442E-10
  -1.04524E-10 -7.97519E-10 -4.19745E-10 -5.19279E-10 -9.30016E-10 -7.86110E-10 -9.46685E-10 -1.45415E-09 -1.86643E-09 -1.77728E-09
  -1.88054E-09 -2.01331E-09 -1.65027E-09 -2.01948E-09 -1.90667E-09 -1.60317E-09 -1.91383E-09 -1.35058E-09 -1.31976E-09 -1.16185E-09
  -4.65482E-10 -8.37123E-10 -4.53709E-10 -4.86277E-10 -7.28208E-10 -1.11510E-10 -2.69592E-10 -3.34978E-10 -6.65328E-10 -5.67373E-10
  -1.44987E-10 -6.76750E-10 -9.32331E-11 -3.89696E-10 -4.04908E-10 -8.04947E-10 -4.55403E-10 -8.25060E-10 -1.25269E-09 -7.39185E-10
  -6.55649E-10 -8.19401E-10 -9.06116E-10 -7.91255E-10 -1.94604E-09 -1.09575E-09 -1.16018E-09 -1.24751E-09 -1.70815E-09 -1.40004E-09
  -1.58412E-09 -1.85200E-09 -1.59191E-09 -1.97688E-09 -1.30968E-09 -1.65341E-09 -1.63488E-09 -2.01754E-09 -2.19670E-09 -2.01204E-09
  -1.68966E-09 -2.60700E-09 -1.73845E-09 -2.55036E-09 -2.07101E-09 -2.04225E-09 -2.16568E-09 -2.67732E-09 -2.44222E-09 -1.88928E-09
  -1.90320E-09 -2.38079E-09 -2.27306E-09 -2.60579E-09 -2.31670E-09 -2.46539E-09 -2.58693E-09 -2.30217E-09 -3.02122E-09 -2.53048E-09
  -2.58852E-09 -2.67932E-09 -2.64941E-09 -2.34406E-09 -2.82470E-09 -2.96885E-09 -2.43926E-09 -3.15999E-09 -2.74468E-09 -2.94634E-09
  -2.68943E-09 -2.59450E-09 -2.36930E-09 -2.90915E-09 -2.57881E-09 -2.88159E-09 -2.89429E-09 -2.65135E-09 -2.43537E-09 -2.67147E-09
  -2.88413E-09 -3.11724E-09 -2.90203E-09 -2.86441E-09 -2.91958E-09 -3.27416E-09 -2.90326E-09 -2.67940E-09 -2.58857E-09 -2.78733E-09
  -3.15737E-09 -3.28033E-09 -2.43813E-09
 NY points of the fit to the data follow
   1.21011E-08  1.13212E-08  1.05695E-08  1.00027E-08  1.00596E-08  1.03569E-08  1.03200E-08  1.04023E-08  1.14299E-08  1.17135E-08
   1.13208E-08  1.09181E-08  1.03633E-08  1.02173E-08  1.00995E-08  9.85365E-09  1.00290E-08  1.06748E-08  1.07446E-08  9.47237E-09
   8.86223E-09  9.42854E-09  9.98609E-09  1.04986E-08  1.10286E-08  1.18248E-08  1.23022E-08  1.19385E-08  1.08318E-08  9.93257E-09
   9.58987E-09  8.90091E-09  8.19531E-09  7.95111E-09  7.73329E-09  7.37061E-09  7.12841E-09  7.17175E-09  7.18066E-09  7.02683E-09
   6.88225E-09  6.89385E-09  6.89906E-09  6.76766E-09  6.75723E-09  6.71734E-09  6.45961E-09  5.92972E-09  5.92907E-09  6.17809E-09
   6.62824E-09  7.09948E-09  7.37548E-09  7.69994E-09  8.31368E-09  8.64019E-09  8.93570E-09  9.75167E-09  1.02718E-08  1.00887E-08
   1.00153E-08  1.00142E-08  1.00624E-08  9.88224E-09  9.41923E-09  9.11812E-09  8.99087E-09  8.52196E-09  8.00642E-09  8.12294E-09
   8.55768E-09  8.95697E-09  9.43699E-09  9.88132E-09  1.05718E-08  1.14460E-08  1.26281E-08  1.34991E-08  1.37161E-08  1.35150E-08
   1.31304E-08  1.25604E-08  1.20699E-08  1.19157E-08  1.15760E-08  1.06309E-08  9.42268E-09  8.31194E-09  7.82078E-09  7.56584E-09
   7.36054E-09  7.24027E-09  7.17852E-09  7.02611E-09  6.85397E-09  6.81745E-09  6.71707E-09  6.56970E-09  6.50897E-09  6.44307E-09
   6.38794E-09  6.36607E-09  6.34999E-09  6.34012E-09  6.34069E-09  6.34818E-09  6.36007E-09  6.37503E-09  6.39167E-09  6.40963E-09
   6.42833E-09  6.44726E-09  6.46610E-09  6.48459E-09  6.50251E-09  6.51972E-09  6.53601E-09  6.55117E-09  6.56507E-09  6.57759E-09
   6.58861E-09  6.59805E-09  6.60581E-09  6.61179E-09  6.61591E-09  6.61810E-09  6.61828E-09  6.61637E-09  6.61232E-09  6.60606E-09
   6.59754E-09  6.58668E-09  6.57345E-09  6.55779E-09  6.53965E-09  6.51899E-09  6.49575E-09  6.46990E-09  6.44139E-09  6.41020E-09
   6.37630E-09  6.33966E-09  6.30025E-09  6.25808E-09  6.21313E-09  6.16539E-09  6.11494E-09  6.06192E-09  6.00652E-09  5.94896E-09
   5.88946E-09  5.82833E-09  5.76594E-09  5.70273E-09  5.63928E-09  5.57636E-09  5.51503E-09  5.45676E-09  5.40374E-09  5.35931E-09
   5.32887E-09  5.32180E-09  5.35571E-09  5.46783E-09  5.75119E-09  6.50929E-09  9.26704E-09  1.67540E-08  2.16345E-08  2.27605E-08
   2.18775E-08  2.06313E-08  1.98656E-08  1.99833E-08  2.07868E-08  2.13007E-08  1.95468E-08  1.39193E-08  6.83645E-09  4.88823E-09
   4.10549E-09  3.65734E-09  3.34582E-09  3.10257E-09  2.89807E-09  2.71757E-09  2.55297E-09  2.39948E-09  2.25405E-09  2.11476E-09
   1.98028E-09  1.84969E-09  1.72236E-09  1.59785E-09  1.47584E-09  1.35609E-09  1.23843E-09  1.12279E-09  1.00906E-09  8.97218E-10
   7.87242E-10  6.79129E-10  5.72895E-10  4.68562E-10  3.66167E-10  2.65752E-10  1.67364E-10  7.10507E-11 -2.31299E-11 -1.15100E-10
  -2.04826E-10 -2.92220E-10 -3.77220E-10 -4.59758E-10 -5.39770E-10 -6.17164E-10 -6.91875E-10 -7.63841E-10 -8.32975E-10 -8.99313E-10
  -9.62896E-10 -1.02381E-09 -1.08207E-09 -1.13776E-09 -1.19092E-09 -1.24162E-09 -1.28990E-09 -1.33581E-09 -1.37942E-09 -1.42076E-09
  -1.45991E-09 -1.49690E-09 -1.53179E-09 -1.56464E-09 -1.59550E-09 -1.62441E-09 -1.65144E-09 -1.67662E-09 -1.70002E-09 -1.72169E-09
  -1.74166E-09 -1.76002E-09 -1.77679E-09 -1.79203E-09 -1.80579E-09 -1.81812E-09 -1.82909E-09 -1.83872E-09 -1.84709E-09 -1.85423E-09
  -1.86021E-09 -1.86505E-09 -1.86886E-09 -1.87161E-09 -1.87340E-09 -1.87429E-09 -1.87431E-09 -1.87351E-09 -1.87195E-09 -1.86967E-09
  -1.86672E-09 -1.86318E-09 -1.85908E-09 -1.85447E-09 -1.84939E-09 -1.84390E-09 -1.83808E-09 -1.83192E-09 -1.82551E-09 -1.81891E-09
  -1.81215E-09 -1.80527E-09 -1.79836E-09 -1.79142E-09 -1.78455E-09 -1.77777E-09 -1.77114E-09 -1.76471E-09 -1.75852E-09 -1.75264E-09
  -1.74712E-09 -1.74199E-09 -1.73732E-09 -1.73315E-09 -1.72953E-09 -1.72652E-09 -1.72418E-09 -1.72250E-09 -1.72161E-09 -1.72152E-09
  -1.72227E-09 -1.72392E-09 -1.72643E-09 -1.72978E-09 -1.73396E-09 -1.73896E-09 -1.74474E-09 -1.75131E-09 -1.75863E-09 -1.76670E-09
  -1.77550E-09 -1.78500E-09 -1.79520E-09 -1.80607E-09 -1.81759E-09 -1.82976E-09 -1.84255E-09 -1.85594E-09 -1.86993E-09 -1.88448E-09
  -1.89959E-09 -1.91524E-09 -1.93141E-09 -1.94807E-09 -1.96523E-09 -1.98285E-09 -2.00093E-09 -2.01943E-09 -2.03836E-09 -2.05768E-09
  -2.07739E-09 -2.09746E-09 -2.11788E-09 -2.13863E-09 -2.15969E-09 -2.18104E-09 -2.20269E-09 -2.22459E-09 -2.24674E-09 -2.26910E-09
  -2.29169E-09 -2.31447E-09 -2.33742E-09 -2.36053E-09 -2.38378E-09 -2.40716E-09 -2.43064E-09 -2.45422E-09 -2.47787E-09 -2.50156E-09
  -2.52531E-09 -2.54906E-09 -2.57283E-09 -2.59659E-09 -2.62029E-09 -2.64398E-09 -2.66758E-09 -2.69111E-09 -2.71453E-09 -2.73785E-09
  -2.76103E-09 -2.78405E-09 -2.80691E-09 -2.82958E-09 -2.85205E-09 -2.87429E-09 -2.89631E-09 -2.91806E-09 -2.93955E-09 -2.96075E-09
  -2.98164E-09 -3.00220E-09 -3.02244E-09
 NY background values follow
    -1.905E-09   -1.833E-09   -1.760E-09   -1.688E-09   -1.616E-09   -1.544E-09   -1.472E-09   -1.400E-09   -1.328E-09   -1.257E-09
    -1.185E-09   -1.114E-09   -1.043E-09   -9.721E-10   -9.012E-10   -8.305E-10   -7.598E-10   -6.893E-10   -6.189E-10   -5.486E-10
    -4.784E-10   -4.083E-10   -3.383E-10   -2.684E-10   -1.986E-10   -1.289E-10   -5.923E-11    1.030E-11    7.974E-11    1.491E-10
     2.184E-10    2.876E-10    3.567E-10    4.257E-10    4.947E-10    5.636E-10    6.325E-10    7.012E-10    7.699E-10    8.386E-10
     9.072E-10    9.757E-10    1.044E-09    1.113E-09    1.181E-09    1.249E-09    1.318E-09    1.386E-09    1.454E-09    1.522E-09
     1.590E-09    1.658E-09    1.726E-09    1.795E-09    1.863E-09    1.931E-09    1.998E-09    2.066E-09    2.134E-09    2.202E-09
     2.270E-09    2.338E-09    2.406E-09    2.474E-09    2.542E-09    2.610E-09    2.678E-09    2.745E-09    2.813E-09    2.881E-09
     2.949E-09    3.017E-09    3.085E-09    3.153E-09    3.221E-09    3.289E-09    3.357E-09    3.424E-09    3.492E-09    3.559E-09
     3.626E-09    3.693E-09    3.759E-09    3.825E-09    3.890E-09    3.955E-09    4.019E-09    4.083E-09    4.146E-09    4.208E-09
     4.270E-09    4.331E-09    4.391E-09    4.450E-09    4.509E-09    4.566E-09    4.622E-09    4.677E-09    4.731E-09    4.784E-09
     4.836E-09    4.887E-09    4.936E-09    4.984E-09    5.031E-09    5.076E-09    5.120E-09    5.162E-09    5.202E-09    5.241E-09
     5.279E-09    5.315E-09    5.349E-09    5.381E-09    5.411E-09    5.440E-09    5.466E-09    5.491E-09    5.513E-09    5.534E-09
     5.552E-09    5.569E-09    5.583E-09    5.595E-09    5.604E-09    5.612E-09    5.617E-09    5.619E-09    5.619E-09    5.617E-09
     5.612E-09    5.604E-09    5.594E-09    5.581E-09    5.565E-09    5.547E-09    5.525E-09    5.501E-09    5.474E-09    5.444E-09
     5.411E-09    5.375E-09    5.336E-09    5.293E-09    5.248E-09    5.199E-09    5.147E-09    5.092E-09    5.033E-09    4.972E-09
     4.908E-09    4.841E-09    4.771E-09    4.698E-09    4.623E-09    4.546E-09    4.466E-09    4.383E-09    4.299E-09    4.212E-09
     4.123E-09    4.032E-09    3.940E-09    3.845E-09    3.749E-09    3.651E-09    3.551E-09    3.450E-09    3.347E-09    3.243E-09
     3.138E-09    3.032E-09    2.924E-09    2.816E-09    2.707E-09    2.596E-09    2.485E-09    2.374E-09    2.262E-09    2.149E-09
     2.036E-09    1.922E-09    1.809E-09    1.695E-09    1.581E-09    1.467E-09    1.353E-09    1.239E-09    1.126E-09    1.013E-09
     8.998E-10    7.875E-10    6.758E-10    5.648E-10    4.545E-10    3.451E-10    2.366E-10    1.290E-10    2.256E-11   -8.274E-11
    -1.868E-10   -2.895E-10   -3.908E-10   -4.906E-10   -5.889E-10   -6.855E-10   -7.803E-10   -8.733E-10   -9.644E-10   -1.053E-09
    -1.140E-09   -1.225E-09   -1.308E-09   -1.388E-09   -1.466E-09   -1.541E-09   -1.614E-09   -1.684E-09   -1.752E-09   -1.816E-09
    -1.878E-09   -1.938E-09   -1.995E-09   -2.049E-09   -2.101E-09   -2.150E-09   -2.197E-09   -2.242E-09   -2.284E-09   -2.325E-09
    -2.363E-09   -2.399E-09   -2.432E-09   -2.464E-09   -2.494E-09   -2.522E-09   -2.548E-09   -2.573E-09   -2.595E-09   -2.616E-09
    -2.635E-09   -2.653E-09   -2.669E-09   -2.683E-09   -2.696E-09   -2.708E-09   -2.718E-09   -2.727E-09   -2.735E-09   -2.741E-09
    -2.746E-09   -2.751E-09   -2.754E-09   -2.756E-09   -2.757E-09   -2.757E-09   -2.757E-09   -2.755E-09   -2.753E-09   -2.750E-09
    -2.747E-09   -2.743E-09   -2.738E-09   -2.733E-09   -2.727E-09   -2.721E-09   -2.715E-09   -2.708E-09   -2.701E-09   -2.694E-09
    -2.687E-09   -2.680E-09   -2.672E-09   -2.665E-09   -2.658E-09   -2.650E-09   -2.643E-09   -2.636E-09   -2.630E-09   -2.623E-09
    -2.617E-09   -2.612E-09   -2.607E-09   -2.602E-09   -2.598E-09   -2.594E-09   -2.592E-09   -2.590E-09   -2.588E-09   -2.588E-09
    -2.588E-09   -2.589E-09   -2.591E-09   -2.594E-09   -2.598E-09   -2.603E-09   -2.608E-09   -2.614E-09   -2.621E-09   -2.629E-09
    -2.637E-09   -2.646E-09   -2.656E-09   -2.666E-09   -2.677E-09   -2.689E-09   -2.702E-09   -2.715E-09   -2.728E-09   -2.742E-09
    -2.757E-09   -2.772E-09   -2.788E-09   -2.804E-09   -2.821E-09   -2.838E-09   -2.856E-09   -2.874E-09   -2.892E-09   -2.911E-09
    -2.931E-09   -2.950E-09   -2.970E-09   -2.991E-09   -3.011E-09   -3.032E-09   -3.053E-09   -3.075E-09   -3.097E-09   -3.119E-09
    -3.141E-09   -3.163E-09   -3.186E-09   -3.208E-09   -3.231E-09   -3.254E-09   -3.277E-09   -3.300E-09   -3.324E-09   -3.347E-09
    -3.370E-09   -3.394E-09   -3.417E-09   -3.440E-09   -3.464E-09   -3.487E-09   -3.510E-09   -3.533E-09   -3.556E-09   -3.579E-09
    -3.602E-09   -3.624E-09   -3.647E-09   -3.669E-09   -3.691E-09   -3.713E-09   -3.734E-09   -3.756E-09   -3.777E-09   -3.797E-09
    -3.818E-09   -3.838E-09   -3.858E-09
 Asp      Conc. = 1.19E-09
  -6.70689E-10 -7.91751E-10 -8.37274E-10 -9.11921E-10 -9.36485E-10 -1.01526E-09 -1.10797E-09 -1.16036E-09 -1.14582E-09 -1.10654E-09
  -1.05566E-09 -9.97997E-10 -9.35251E-10 -8.68616E-10 -8.01185E-10 -7.33061E-10 -6.64174E-10 -5.94636E-10 -5.24529E-10 -4.53912E-10
  -3.82824E-10 -3.11273E-10 -2.39241E-10 -1.66693E-10 -9.35497E-11 -1.97343E-11  5.49090E-11  1.30561E-10  2.07504E-10  2.86135E-10
   3.67019E-10  4.51057E-10  5.39723E-10  6.35635E-10  7.44240E-10  8.79153E-10  1.07124E-09  1.22818E-09  1.38810E-09  1.47198E-09
   1.51503E-09  1.58236E-09  1.77139E-09  2.08766E-09  2.52085E-09  2.96080E-09  3.07589E-09  2.97209E-09  3.08181E-09  3.23722E-09
   3.43469E-09  3.64091E-09  3.73040E-09  3.59334E-09  3.31360E-09  3.05520E-09  2.95939E-09  3.07838E-09  3.07555E-09  2.90438E-09
   2.85694E-09  2.83632E-09  2.81330E-09  2.87965E-09  2.97163E-09  3.00354E-09  2.98153E-09  2.99747E-09  3.03152E-09  3.07520E-09
   3.12477E-09  3.17826E-09  3.23451E-09  3.29283E-09  3.35267E-09  3.41367E-09  3.47554E-09  3.53804E-09  3.60100E-09  3.66425E-09
   3.72767E-09  3.79114E-09  3.85457E-09  3.91786E-09  3.98093E-09  4.04370E-09  4.10611E-09  4.16807E-09  4.22955E-09  4.29046E-09
   4.35075E-09  4.41036E-09  4.46924E-09  4.52733E-09  4.58458E-09  4.64094E-09  4.69635E-09  4.75076E-09  4.80413E-09  4.85639E-09
   4.90752E-09  4.95745E-09  5.00613E-09  5.05352E-09  5.09958E-09  5.14425E-09  5.18748E-09  5.22922E-09  5.26944E-09  5.30809E-09
   5.34511E-09  5.38046E-09  5.41410E-09  5.44597E-09  5.47604E-09  5.50424E-09  5.53055E-09  5.55490E-09  5.57727E-09  5.59759E-09
   5.61583E-09  5.63193E-09  5.64586E-09  5.65756E-09  5.66699E-09  5.67411E-09  5.67888E-09  5.68123E-09  5.68113E-09  5.67854E-09
   5.67340E-09  5.66569E-09  5.65533E-09  5.64231E-09  5.62655E-09  5.60804E-09  5.58671E-09  5.56253E-09  5.53546E-09  5.50544E-09
   5.47244E-09  5.43641E-09  5.39730E-09  5.35510E-09  5.30974E-09  5.26119E-09  5.20945E-09  5.15460E-09  5.09673E-09  5.03594E-09
   4.97235E-09  4.90604E-09  4.83714E-09  4.76577E-09  4.69207E-09  4.61621E-09  4.53836E-09  4.45877E-09  4.37777E-09  4.29580E-09
   4.21352E-09  4.13207E-09  4.05347E-09  3.98194E-09  3.92788E-09  3.92488E-09  4.14072E-09  4.89666E-09  5.35968E-09  5.39676E-09
   5.20454E-09  4.96942E-09  4.78698E-09  4.70329E-09  4.69693E-09  4.65928E-09  4.36771E-09  3.63792E-09  2.73458E-09  2.41377E-09
   2.22497E-09  2.07375E-09  1.93775E-09  1.80931E-09  1.68516E-09  1.56371E-09  1.44412E-09  1.32594E-09  1.20887E-09  1.09278E-09
   9.77611E-10  8.63309E-10  7.49890E-10  6.37372E-10  5.25804E-10  4.15220E-10  3.05676E-10  1.97249E-10  8.99968E-11 -1.60188E-11
  -1.20715E-10 -2.24025E-10 -3.25871E-10 -4.26177E-10 -5.24863E-10 -6.21851E-10 -7.17060E-10 -8.10417E-10 -9.01839E-10 -9.91230E-10
  -1.07854E-09 -1.16366E-09 -1.24651E-09 -1.32703E-09 -1.40512E-09 -1.48070E-09 -1.55369E-09 -1.62402E-09 -1.69159E-09 -1.75644E-09
  -1.81859E-09 -1.87814E-09 -1.93509E-09 -1.98953E-09 -2.04148E-09 -2.09102E-09 -2.13817E-09 -2.18301E-09 -2.22557E-09 -2.26590E-09
  -2.30408E-09 -2.34012E-09 -2.37410E-09 -2.40606E-09 -2.43605E-09 -2.46412E-09 -2.49034E-09 -2.51472E-09 -2.53735E-09 -2.55825E-09
  -2.57749E-09 -2.59513E-09 -2.61119E-09 -2.62575E-09 -2.63883E-09 -2.65050E-09 -2.66081E-09 -2.66982E-09 -2.67757E-09 -2.68409E-09
  -2.68947E-09 -2.69373E-09 -2.69695E-09 -2.69914E-09 -2.70036E-09 -2.70071E-09 -2.70018E-09 -2.69885E-09 -2.69676E-09 -2.69395E-09
  -2.69050E-09 -2.68645E-09 -2.68185E-09 -2.67674E-09 -2.67118E-09 -2.66521E-09 -2.65890E-09 -2.65227E-09 -2.64540E-09 -2.63834E-09
  -2.63111E-09 -2.62378E-09 -2.61642E-09 -2.60904E-09 -2.60173E-09 -2.59451E-09 -2.58745E-09 -2.58059E-09 -2.57397E-09 -2.56766E-09
  -2.56172E-09 -2.55618E-09 -2.55110E-09 -2.54651E-09 -2.54248E-09 -2.53906E-09 -2.53631E-09 -2.53423E-09 -2.53294E-09 -2.53245E-09
  -2.53281E-09 -2.53405E-09 -2.53617E-09 -2.53913E-09 -2.54291E-09 -2.54752E-09 -2.55292E-09 -2.55909E-09 -2.56603E-09 -2.57371E-09
  -2.58213E-09 -2.59124E-09 -2.60106E-09 -2.61155E-09 -2.62269E-09 -2.63447E-09 -2.64688E-09 -2.65990E-09 -2.67351E-09 -2.68768E-09
  -2.70241E-09 -2.71768E-09 -2.73347E-09 -2.74976E-09 -2.76654E-09 -2.78378E-09 -2.80148E-09 -2.81961E-09 -2.83815E-09 -2.85710E-09
  -2.87643E-09 -2.89612E-09 -2.91616E-09 -2.93653E-09 -2.95722E-09 -2.97819E-09 -2.99945E-09 -3.02097E-09 -3.04274E-09 -3.06473E-09
  -3.08693E-09 -3.10933E-09 -3.13189E-09 -3.15461E-09 -3.17748E-09 -3.20047E-09 -3.22357E-09 -3.24675E-09 -3.27002E-09 -3.29332E-09
  -3.31668E-09 -3.34004E-09 -3.36341E-09 -3.38678E-09 -3.41009E-09 -3.43337E-09 -3.45658E-09 -3.47971E-09 -3.50273E-09 -3.52564E-09
  -3.54841E-09 -3.57103E-09 -3.59348E-09 -3.61574E-09 -3.63780E-09 -3.65963E-09 -3.68123E-09 -3.70257E-09 -3.72364E-09 -3.74442E-09
  -3.76489E-09 -3.78503E-09 -3.80484E-09
 GABA     Conc. = 6.59E-10
  -1.83574E-09 -1.76224E-09 -1.68881E-09 -1.61546E-09 -1.54216E-09 -1.46893E-09 -1.39572E-09 -1.32253E-09 -1.24935E-09 -1.17611E-09
  -1.10285E-09 -1.02951E-09 -9.56006E-10 -8.82384E-10 -8.08485E-10 -7.34286E-10 -6.59826E-10 -5.84826E-10 -5.09138E-10 -4.32715E-10
  -3.55169E-10 -2.76115E-10 -1.95025E-10 -1.11027E-10 -2.27821E-11  7.19071E-11  1.77569E-10  3.03742E-10  4.76435E-10  7.63700E-10
   9.40624E-10  1.06039E-09  1.41631E-09  1.70691E-09  1.81201E-09  1.97902E-09  2.14833E-09  2.24855E-09  2.26134E-09  2.19810E-09
   2.12797E-09  2.16149E-09  2.04100E-09  1.79632E-09  1.78834E-09  1.79039E-09  1.67434E-09  1.64771E-09  1.67022E-09  1.71327E-09
   1.76742E-09  1.82821E-09  1.89377E-09  1.96349E-09  2.03704E-09  2.11457E-09  2.19698E-09  2.28595E-09  2.38492E-09  2.50079E-09
   2.64986E-09  2.88154E-09  3.16029E-09  3.30553E-09  3.51197E-09  3.82338E-09  3.97472E-09  4.04011E-09  4.13795E-09  4.22329E-09
   4.25491E-09  4.21116E-09  4.11084E-09  4.05097E-09  4.02502E-09  3.84051E-09  3.72171E-09  3.78171E-09  3.78336E-09  3.80460E-09
   3.92152E-09  3.98372E-09  4.08038E-09  4.31493E-09  4.46379E-09  4.56143E-09  4.74819E-09  4.91209E-09  5.02788E-09  5.12277E-09
   5.17344E-09  5.23422E-09  5.31521E-09  5.27312E-09  5.20580E-09  5.25849E-09  5.22934E-09  5.14314E-09  5.14369E-09  5.14550E-09
   5.13245E-09  5.13884E-09  5.15691E-09  5.18157E-09  5.21000E-09  5.24046E-09  5.27204E-09  5.30411E-09  5.33625E-09  5.36812E-09
   5.39934E-09  5.42958E-09  5.45869E-09  5.48655E-09  5.51306E-09  5.53815E-09  5.56170E-09  5.58357E-09  5.60368E-09  5.62194E-09
   5.63830E-09  5.65270E-09  5.66507E-09  5.67534E-09  5.68345E-09  5.68935E-09  5.69298E-09  5.69428E-09  5.69321E-09  5.68971E-09
   5.68372E-09  5.67520E-09  5.66409E-09  5.65035E-09  5.63393E-09  5.61479E-09  5.59286E-09  5.56811E-09  5.54047E-09  5.50992E-09
   5.47641E-09  5.43989E-09  5.40030E-09  5.35763E-09  5.31179E-09  5.26276E-09  5.21054E-09  5.15521E-09  5.09684E-09  5.03553E-09
   4.97138E-09  4.90447E-09  4.83491E-09  4.76281E-09  4.68827E-09  4.61143E-09  4.53242E-09  4.45142E-09  4.36863E-09  4.28434E-09
   4.19895E-09  4.11311E-09  4.02794E-09  3.94573E-09  3.87198E-09  3.82410E-09  3.88675E-09  4.26697E-09  4.49029E-09  4.47124E-09
   4.31858E-09  4.13877E-09  3.98667E-09  3.88948E-09  3.83699E-09  3.77127E-09  3.56872E-09  3.11921E-09  2.55274E-09  2.31815E-09
   2.16185E-09  2.02713E-09  1.90094E-09  1.77895E-09  1.65930E-09  1.54116E-09  1.42408E-09  1.30786E-09  1.19235E-09  1.07754E-09
   9.63415E-10  8.49988E-10  7.37307E-10  6.25419E-10  5.14391E-10  4.04275E-10  2.95139E-10  1.87070E-10  8.01329E-11 -2.56036E-11
  -1.30052E-10 -2.33140E-10 -3.34788E-10 -4.34915E-10 -5.33440E-10 -6.30281E-10 -7.25359E-10 -8.18595E-10 -9.09909E-10 -9.99199E-10
  -1.08641E-09 -1.17145E-09 -1.25423E-09 -1.33467E-09 -1.41270E-09 -1.48822E-09 -1.56116E-09 -1.63143E-09 -1.69895E-09 -1.76376E-09
  -1.82587E-09 -1.88538E-09 -1.94230E-09 -1.99670E-09 -2.04862E-09 -2.09813E-09 -2.14526E-09 -2.19007E-09 -2.23260E-09 -2.27292E-09
