 LCModel (Version 6.3-1R) Copyright: S.W. Provencher.          Ref.: Magn. Reson. Med. 30:672-679 (1993).                
 onepulse 14x25_ftSpec_smooth_lcm
 26 lines in following concentration table = NCONC+1
    Conc.  %SD /Cr+PCr  Metabolite                                         
    0.000 999%   0.000 Ala                                                 
    0.000 999%   0.000 Asp                                                 
    0.000 999%   0.000 Cr                                                  
 6.11E-11 999%   0.230 GABA                                                
 1.66E-10 716%   0.622 Glc                                                 
 1.02E-09  94%   3.819 Gln                                                 
    0.000 999%   0.000 Glu                                                 
    0.000 999%   0.000 Glyc                                                
 1.82E-10  75%   0.684 GPC                                                 
    0.000 999%   0.000 GSH                                                 
 1.77E-09  42%   6.662 Ins                                                 
    0.000 999%   0.000 Lac                                                 
 3.44E-10 164%   1.294 NAAG                                                
 4.69E-10 163%   1.762 NAA                                                 
    0.000 999%   0.000 PCh                                                 
 2.66E-10 181%   1.000 PCr                                                 
    0.000 999%   0.000 PE                                                  
 2.28E-10 128%   0.855 Scyllo                                              
 6.57E-09  21%  24.697 Ser                                                 
    0.000 999%   0.000 Tau                                                 
 1.82E-10  75%   0.684 GPC+PCh                                             
 8.13E-10  55%   3.056 NAA+NAAG                                            
 1.77E-09  42%   6.662 Ins+Glyc                                            
 2.66E-10 181%   1.000 Cr+PCr                                              
 1.02E-09  94%   3.819 Glu+Gln                                             
   6 lines in following misc. output table
  FWHM = 0.101 ppm    S/N =   2                                            
  Data shift = 0.380 ppm                                                   
  Ph: -31 deg     -36.9 deg/ppm                                            
  alphaB,S = 1.5E+00,   4.5E+01                                            
    9 spline knots.   Ns = 5(1)                                            
  (10) 2 infls.   ( 3) 1 extrs.                                            
  363 points on ppm-axis = NY
      4.250000     4.238821     4.227641     4.216462     4.205282     4.194103     4.182923     4.171744     4.160564     4.149385
      4.138206     4.127026     4.115847     4.104667     4.093488     4.082308     4.071129     4.059949     4.048770     4.037591
      4.026411     4.015232     4.004052     3.992873     3.981693     3.970514     3.959334     3.948155     3.936975     3.925796
      3.914617     3.903437     3.892258     3.881078     3.869899     3.858719     3.847540     3.836360     3.825181     3.814002
      3.802822     3.791643     3.780463     3.769284     3.758104     3.746925     3.735745     3.724566     3.713387     3.702207
      3.691028     3.679848     3.668669     3.657489     3.646310     3.635130     3.623951     3.612772     3.601592     3.590413
      3.579233     3.568054     3.556874     3.545695     3.534515     3.523336     3.512156     3.500977     3.489798     3.478618
      3.467439     3.456259     3.445080     3.433900     3.422721     3.411541     3.400362     3.389183     3.378003     3.366824
      3.355644     3.344465     3.333285     3.322106     3.310926     3.299747     3.288568     3.277388     3.266209     3.255029
      3.243850     3.232670     3.221491     3.210311     3.199132     3.187953     3.176773     3.165594     3.154414     3.143235
      3.132055     3.120876     3.109696     3.098517     3.087337     3.076158     3.064979     3.053799     3.042620     3.031440
      3.020261     3.009081     2.997902     2.986722     2.975543     2.964364     2.953184     2.942005     2.930825     2.919646
      2.908466     2.897287     2.886107     2.874928     2.863749     2.852569     2.841390     2.830210     2.819031     2.807851
      2.796672     2.785492     2.774313     2.763134     2.751954     2.740775     2.729595     2.718416     2.707236     2.696057
      2.684877     2.673698     2.662519     2.651339     2.640160     2.628980     2.617801     2.606621     2.595442     2.584262
      2.573083     2.561903     2.550724     2.539545     2.528365     2.517186     2.506006     2.494827     2.483647     2.472468
      2.461288     2.450109     2.438930     2.427750     2.416571     2.405391     2.394212     2.383032     2.371853     2.360673
      2.349494     2.338315     2.327135     2.315956     2.304776     2.293597     2.282417     2.271238     2.260058     2.248879
      2.237700     2.226520     2.215341     2.204161     2.192982     2.181802     2.170623     2.159443     2.148264     2.137084
      2.125905     2.114726     2.103546     2.092367     2.081187     2.070008     2.058828     2.047649     2.036469     2.025290
      2.014111     2.002931     1.991752     1.980572     1.969393     1.958213     1.947034     1.935854     1.924675     1.913496
      1.902316     1.891137     1.879957     1.868778     1.857598     1.846419     1.835239     1.824060     1.812881     1.801701
      1.790522     1.779342     1.768163     1.756983     1.745804     1.734624     1.723445     1.712265     1.701086     1.689907
      1.678727     1.667548     1.656368     1.645189     1.634009     1.622830     1.611650     1.600471     1.589292     1.578112
      1.566933     1.555753     1.544574     1.533394     1.522215     1.511035     1.499856     1.488677     1.477497     1.466318
      1.455138     1.443959     1.432779     1.421600     1.410420     1.399241     1.388062     1.376882     1.365703     1.354523
      1.343344     1.332164     1.320985     1.309805     1.298626     1.287446     1.276267     1.265088     1.253908     1.242729
      1.231549     1.220370     1.209190     1.198011     1.186831     1.175652     1.164473     1.153293     1.142114     1.130934
      1.119755     1.108575     1.097396     1.086216     1.075037     1.063858     1.052678     1.041499     1.030319     1.019140
      1.007960     0.996781     0.985601     0.974422     0.963243     0.952063     0.940884     0.929704     0.918525     0.907345
      0.896166     0.884986     0.873807     0.862628     0.851448     0.840269     0.829089     0.817910     0.806730     0.795551
      0.784371     0.773192     0.762012     0.750833     0.739654     0.728474     0.717295     0.706115     0.694936     0.683756
      0.672577     0.661397     0.650218     0.639039     0.627859     0.616680     0.605500     0.594321     0.583141     0.571962
      0.560782     0.549603     0.538424     0.527244     0.516065     0.504885     0.493706     0.482526     0.471347     0.460167
      0.448988     0.437809     0.426629     0.415450     0.404270     0.393091     0.381911     0.370732     0.359552     0.348373
      0.337193     0.326014     0.314835     0.303655     0.292476     0.281296     0.270117     0.258937     0.247758     0.236578
      0.225399     0.214220     0.203040
 NY phased data points follow
   9.76974E-09  1.04497E-08  1.03486E-08  9.63431E-09  8.80924E-09  9.20917E-09  8.07743E-09  9.19239E-09  8.31258E-09  8.58815E-09
   8.59015E-09  9.33861E-09  9.34173E-09  1.07454E-08  1.03517E-08  1.06972E-08  1.04871E-08  1.08597E-08  1.04128E-08  1.09403E-08
   1.00226E-08  1.01782E-08  1.00178E-08  1.12608E-08  1.07976E-08  1.11910E-08  1.07501E-08  9.97432E-09  9.75599E-09  1.06037E-08
   1.13337E-08  1.28221E-08  1.39763E-08  1.35219E-08  1.29865E-08  1.31175E-08  1.20170E-08  1.20925E-08  1.18506E-08  1.19093E-08
   1.18133E-08  1.12413E-08  1.09239E-08  1.12196E-08  1.06692E-08  1.06362E-08  9.56946E-09  9.18770E-09  9.45927E-09  9.51418E-09
   9.59574E-09  9.32754E-09  8.68332E-09  8.18008E-09  7.80198E-09  8.02040E-09  7.36847E-09  7.81463E-09  7.41862E-09  7.17293E-09
   8.37364E-09  9.86960E-09  1.08984E-08  1.20895E-08  1.21487E-08  1.21816E-08  1.11864E-08  1.07986E-08  1.01981E-08  9.69742E-09
   8.89822E-09  8.82580E-09  7.70696E-09  7.06185E-09  6.54482E-09  5.65917E-09  6.99681E-09  9.22045E-09  1.24838E-08  1.51243E-08
   1.53957E-08  1.55659E-08  1.56541E-08  1.50398E-08  1.44832E-08  1.46237E-08  1.37144E-08  1.41953E-08  1.40332E-08  1.35939E-08
   1.37522E-08  1.27725E-08  1.26533E-08  1.23903E-08  1.19640E-08  1.19221E-08  1.13806E-08  1.08190E-08  1.07932E-08  1.05019E-08
   1.03161E-08  1.08599E-08  1.01946E-08  1.02548E-08  1.02504E-08  9.91930E-09  8.60260E-09  8.76339E-09  7.70810E-09  7.12445E-09
   6.88539E-09  6.98085E-09  7.36174E-09  7.18588E-09  6.72848E-09  7.37227E-09  7.07138E-09  6.99047E-09  7.44521E-09  7.38910E-09
   7.02479E-09  7.03614E-09  6.02551E-09  5.37788E-09  5.53365E-09  4.80205E-09  5.58773E-09  5.28570E-09  5.05073E-09  5.10556E-09
   5.44497E-09  5.53660E-09  5.16265E-09  5.28613E-09  5.14774E-09  5.11101E-09  5.24612E-09  5.60080E-09  6.71286E-09  7.86066E-09
   7.80393E-09  8.39716E-09  8.34440E-09  9.30435E-09  9.45897E-09  1.01935E-08  1.00128E-08  1.06051E-08  1.00488E-08  9.99726E-09
   1.02152E-08  1.00375E-08  1.01185E-08  9.43462E-09  1.01712E-08  9.94066E-09  9.52704E-09  9.98541E-09  1.00625E-08  1.06326E-08
   9.76592E-09  9.95490E-09  9.88180E-09  9.89333E-09  9.96863E-09  1.03775E-08  1.12494E-08  1.25037E-08  1.60268E-08  2.00595E-08
   2.18155E-08  2.13553E-08  2.03747E-08  1.99712E-08  1.84197E-08  1.72268E-08  1.64648E-08  1.60761E-08  1.47884E-08  1.45894E-08
   1.32610E-08  1.20152E-08  1.11883E-08  9.72505E-09  8.09993E-09  6.44758E-09  4.58329E-09  3.15411E-09  6.42636E-10 -2.15584E-09
  -4.45248E-09 -7.77193E-09 -1.05468E-08 -1.30094E-08 -1.56057E-08 -1.85043E-08 -2.07998E-08 -2.25760E-08 -2.37167E-08 -2.45198E-08
  -2.44017E-08 -2.47630E-08 -2.34815E-08 -2.16910E-08 -1.95609E-08 -1.68760E-08 -1.38717E-08 -1.17170E-08 -9.16090E-09 -7.14928E-09
  -5.46949E-09 -3.75001E-09 -3.48595E-09 -2.06071E-09 -2.77567E-09 -1.88577E-09 -2.44979E-09 -3.09351E-09 -2.90516E-09 -3.09302E-09
  -2.84450E-09 -2.72039E-09 -2.55398E-09 -2.02268E-09 -2.25191E-09 -1.57285E-09 -2.20552E-09 -1.81661E-09 -2.13651E-09 -2.61838E-09
  -2.76931E-09 -2.62379E-09 -2.54767E-09 -2.10397E-09 -1.85852E-09 -1.30518E-09 -1.46192E-09 -1.43987E-09 -1.38893E-09 -1.85614E-09
  -2.14753E-09 -2.10682E-09 -2.52778E-09 -1.90365E-09 -2.49801E-09 -1.63795E-09 -1.60884E-09 -1.04781E-09 -6.64389E-10 -3.99402E-10
  -2.62586E-10 -5.18606E-10 -1.13459E-09 -5.40932E-10 -1.28493E-09 -1.45320E-09 -1.36540E-09 -2.08886E-09 -1.60646E-09 -1.78794E-09
  -2.14873E-09 -1.99484E-09 -2.17411E-09 -1.20784E-09 -1.38942E-09 -9.41752E-10 -7.90563E-10 -3.79177E-10 -2.75512E-11  3.74530E-10
   4.96503E-11  5.54321E-10  4.19122E-10  8.77033E-10  7.03619E-10  2.24125E-10  7.35142E-11 -3.18122E-10  5.58282E-11 -2.34564E-10
  -5.07645E-10 -6.97105E-10 -1.10183E-09 -1.14835E-10 -9.65179E-10 -7.44763E-10 -9.52644E-10 -1.42439E-09 -1.51067E-09 -1.22632E-09
  -1.08408E-09 -1.78374E-09 -7.75441E-10 -9.83948E-10 -1.14335E-09 -1.51058E-09 -1.42280E-09 -1.40546E-09 -1.30698E-09 -5.99611E-10
  -1.23271E-09 -8.22648E-10 -1.16736E-09 -7.86429E-10 -1.50833E-09 -5.72781E-10 -7.91703E-10 -5.53600E-10 -7.17306E-10 -7.49934E-10
  -8.73382E-10 -7.38991E-10 -2.73193E-10 -7.38731E-12 -5.92457E-10 -6.46430E-11 -3.72058E-10  1.71471E-10  1.42063E-11 -2.08821E-11
  -1.84130E-10  1.06785E-10  5.03048E-10  3.94279E-10  2.71214E-10  1.21140E-10  2.64488E-10  1.61101E-10  5.99269E-10  1.97982E-10
   1.24595E-09  4.44262E-10  1.22129E-09  7.09548E-10  5.01454E-10  9.76983E-10  1.28499E-09  7.78924E-10  9.01863E-10  1.36805E-09
   1.06105E-09  1.29121E-09  1.14075E-09  1.21902E-09  1.39466E-09  1.46496E-09  1.28519E-09  1.59519E-09  1.08026E-09  1.69454E-09
   1.74083E-09  2.03927E-09  1.63256E-09  1.65267E-09  1.73870E-09  2.09958E-09  2.17826E-09  2.10761E-09  1.97317E-09  2.30797E-09
   2.29934E-09  2.37234E-09  1.94231E-09
 NY points of the fit to the data follow
   6.79174E-09  9.52474E-09  1.03793E-08  1.00521E-08  1.03738E-08  1.08862E-08  1.06958E-08  9.56430E-09  8.20930E-09  7.54924E-09
   7.55232E-09  8.02915E-09  8.74351E-09  9.60627E-09  1.04820E-08  1.10506E-08  1.12720E-08  1.14808E-08  1.15681E-08  1.10567E-08
   1.03583E-08  9.85275E-09  9.47142E-09  9.09408E-09  9.13560E-09  9.72690E-09  1.06382E-08  1.14827E-08  1.18945E-08  1.18552E-08
   1.20294E-08  1.22693E-08  1.25696E-08  1.27541E-08  1.26022E-08  1.21247E-08  1.17877E-08  1.15712E-08  1.14559E-08  1.14173E-08
   1.13880E-08  1.12581E-08  1.09063E-08  1.04070E-08  1.00916E-08  9.87581E-09  9.69275E-09  9.52502E-09  9.36929E-09  9.25037E-09
   9.15503E-09  9.08543E-09  9.02801E-09  8.95688E-09  8.91560E-09  8.99399E-09  9.11620E-09  9.33274E-09  9.67950E-09  1.00483E-08
   1.03434E-08  1.05915E-08  1.07976E-08  1.09625E-08  1.10357E-08  1.09803E-08  1.08429E-08  1.06138E-08  1.02414E-08  9.91125E-09
   9.70610E-09  9.59333E-09  9.55346E-09  9.52715E-09  9.53430E-09  9.60154E-09  9.96240E-09  1.08473E-08  1.21184E-08  1.34156E-08
   1.45048E-08  1.52743E-08  1.57606E-08  1.61831E-08  1.64671E-08  1.63296E-08  1.56768E-08  1.45387E-08  1.33441E-08  1.25182E-08
   1.20016E-08  1.16234E-08  1.13219E-08  1.10606E-08  1.08245E-08  1.06179E-08  1.04296E-08  1.02507E-08  1.00827E-08  9.92039E-09
   9.77010E-09  9.63271E-09  9.49995E-09  9.36961E-09  9.24509E-09  9.12557E-09  9.00993E-09  8.89742E-09  8.78727E-09  8.67909E-09
   8.57259E-09  8.46738E-09  8.36330E-09  8.26004E-09  8.15748E-09  8.05544E-09  7.95378E-09  7.85240E-09  7.75118E-09  7.65011E-09
   7.54895E-09  7.44779E-09  7.34653E-09  7.24517E-09  7.14369E-09  7.04208E-09  6.94034E-09  6.83848E-09  6.73654E-09  6.63451E-09
   6.53244E-09  6.43036E-09  6.32831E-09  6.22636E-09  6.12454E-09  6.02294E-09  5.92161E-09  5.82065E-09  5.72017E-09  5.62024E-09
   5.52101E-09  5.42260E-09  5.32516E-09  5.22889E-09  5.13393E-09  5.04053E-09  4.94896E-09  4.85953E-09  4.77255E-09  4.68848E-09
   4.60782E-09  4.53112E-09  4.45915E-09  4.39286E-09  4.33332E-09  4.28202E-09  4.24092E-09  4.21253E-09  4.20033E-09  4.20934E-09
   4.24676E-09  4.32389E-09  4.45923E-09  4.68608E-09  5.07251E-09  5.78937E-09  7.44638E-09  1.18747E-08  1.71353E-08  2.12516E-08
   2.34821E-08  2.40463E-08  2.35941E-08  2.25895E-08  2.09340E-08  1.79994E-08  1.31500E-08  6.75927E-09  1.15398E-09 -4.31427E-10
  -7.54006E-10 -8.56967E-10 -9.06210E-10 -9.42062E-10 -9.76713E-10 -1.01403E-09 -1.05508E-09 -1.09987E-09 -1.14804E-09 -1.19912E-09
  -1.25264E-09 -1.30814E-09 -1.36523E-09 -1.42354E-09 -1.48275E-09 -1.54262E-09 -1.60287E-09 -1.66330E-09 -1.72374E-09 -1.78401E-09
  -1.84396E-09 -1.90348E-09 -1.96244E-09 -2.02074E-09 -2.07828E-09 -2.13498E-09 -2.19078E-09 -2.24557E-09 -2.29932E-09 -2.35196E-09
  -2.40344E-09 -2.45372E-09 -2.50273E-09 -2.55045E-09 -2.59686E-09 -2.64189E-09 -2.68552E-09 -2.72773E-09 -2.76849E-09 -2.80777E-09
  -2.84554E-09 -2.88180E-09 -2.91652E-09 -2.94968E-09 -2.98129E-09 -3.01129E-09 -3.03971E-09 -3.06652E-09 -3.09170E-09 -3.11527E-09
  -3.13720E-09 -3.15749E-09 -3.17613E-09 -3.19314E-09 -3.20849E-09 -3.22219E-09 -3.23424E-09 -3.24464E-09 -3.25339E-09 -3.26049E-09
  -3.26596E-09 -3.26978E-09 -3.27197E-09 -3.27254E-09 -3.27151E-09 -3.26888E-09 -3.26467E-09 -3.25891E-09 -3.25160E-09 -3.24277E-09
  -3.23242E-09 -3.22058E-09 -3.20726E-09 -3.19248E-09 -3.17626E-09 -3.15861E-09 -3.13955E-09 -3.11910E-09 -3.09728E-09 -3.07410E-09
  -3.04958E-09 -3.02375E-09 -2.99660E-09 -2.96818E-09 -2.93848E-09 -2.90754E-09 -2.87536E-09 -2.84196E-09 -2.80737E-09 -2.77160E-09
  -2.73467E-09 -2.69659E-09 -2.65738E-09 -2.61706E-09 -2.57564E-09 -2.53315E-09 -2.48960E-09 -2.44500E-09 -2.39938E-09 -2.35274E-09
  -2.30511E-09 -2.25650E-09 -2.20693E-09 -2.15641E-09 -2.10495E-09 -2.05258E-09 -1.99931E-09 -1.94514E-09 -1.89011E-09 -1.83421E-09
  -1.77747E-09 -1.71990E-09 -1.66151E-09 -1.60231E-09 -1.54233E-09 -1.48156E-09 -1.42003E-09 -1.35774E-09 -1.29472E-09 -1.23096E-09
  -1.16649E-09 -1.10130E-09 -1.03542E-09 -9.68860E-10 -9.01621E-10 -8.33719E-10 -7.65165E-10 -6.95971E-10 -6.26148E-10 -5.55707E-10
  -4.84660E-10 -4.13019E-10 -3.40796E-10 -2.68003E-10 -1.94651E-10 -1.20754E-10 -4.63226E-11  2.86311E-11  1.04093E-10  1.80054E-10
   2.56498E-10  3.33414E-10  4.10791E-10  4.88615E-10  5.66874E-10  6.45553E-10  7.24641E-10  8.04124E-10  8.83993E-10  9.64229E-10
   1.04483E-09  1.12577E-09  1.20704E-09  1.28863E-09  1.37053E-09  1.45271E-09  1.53518E-09  1.61791E-09  1.70090E-09  1.78412E-09
   1.86757E-09  1.95123E-09  2.03509E-09  2.11914E-09  2.20336E-09  2.28774E-09  2.37226E-09  2.45692E-09  2.54170E-09  2.62658E-09
   2.71155E-09  2.79660E-09  2.88172E-09  2.96688E-09  3.05209E-09  3.13731E-09  3.22256E-09  3.30779E-09  3.39301E-09  3.47821E-09
   3.56336E-09  3.64845E-09  3.73347E-09
 NY background values follow
    -1.185E-09   -1.000E-09   -8.164E-10   -6.345E-10   -4.543E-10   -2.759E-10   -9.932E-11    7.544E-11    2.483E-10    4.194E-10
     5.885E-10    7.558E-10    9.211E-10    1.084E-09    1.246E-09    1.405E-09    1.563E-09    1.718E-09    1.871E-09    2.023E-09
     2.172E-09    2.319E-09    2.464E-09    2.607E-09    2.748E-09    2.887E-09    3.023E-09    3.158E-09    3.290E-09    3.420E-09
     3.548E-09    3.674E-09    3.797E-09    3.919E-09    4.038E-09    4.155E-09    4.269E-09    4.382E-09    4.492E-09    4.600E-09
     4.705E-09    4.809E-09    4.910E-09    5.009E-09    5.105E-09    5.200E-09    5.292E-09    5.382E-09    5.469E-09    5.554E-09
     5.637E-09    5.718E-09    5.797E-09    5.873E-09    5.947E-09    6.018E-09    6.088E-09    6.155E-09    6.220E-09    6.283E-09
     6.343E-09    6.401E-09    6.457E-09    6.511E-09    6.563E-09    6.612E-09    6.659E-09    6.704E-09    6.747E-09    6.787E-09
     6.825E-09    6.861E-09    6.895E-09    6.927E-09    6.957E-09    6.984E-09    7.009E-09    7.032E-09    7.053E-09    7.072E-09
     7.089E-09    7.103E-09    7.115E-09    7.125E-09    7.134E-09    7.140E-09    7.143E-09    7.145E-09    7.145E-09    7.142E-09
     7.138E-09    7.131E-09    7.123E-09    7.112E-09    7.100E-09    7.085E-09    7.068E-09    7.050E-09    7.029E-09    7.006E-09
     6.982E-09    6.955E-09    6.927E-09    6.896E-09    6.864E-09    6.830E-09    6.794E-09    6.756E-09    6.716E-09    6.674E-09
     6.631E-09    6.585E-09    6.538E-09    6.489E-09    6.439E-09    6.386E-09    6.332E-09    6.276E-09    6.218E-09    6.159E-09
     6.098E-09    6.036E-09    5.971E-09    5.905E-09    5.838E-09    5.769E-09    5.699E-09    5.627E-09    5.554E-09    5.479E-09
     5.403E-09    5.326E-09    5.248E-09    5.168E-09    5.087E-09    5.005E-09    4.922E-09    4.838E-09    4.753E-09    4.667E-09
     4.580E-09    4.493E-09    4.404E-09    4.315E-09    4.225E-09    4.134E-09    4.042E-09    3.950E-09    3.858E-09    3.765E-09
     3.671E-09    3.577E-09    3.483E-09    3.388E-09    3.293E-09    3.198E-09    3.102E-09    3.007E-09    2.911E-09    2.815E-09
     2.719E-09    2.624E-09    2.528E-09    2.432E-09    2.337E-09    2.242E-09    2.147E-09    2.052E-09    1.957E-09    1.863E-09
     1.770E-09    1.677E-09    1.584E-09    1.492E-09    1.400E-09    1.309E-09    1.219E-09    1.129E-09    1.040E-09    9.522E-10
     8.649E-10    7.784E-10    6.928E-10    6.081E-10    5.244E-10    4.416E-10    3.598E-10    2.791E-10    1.994E-10    1.208E-10
     4.329E-11   -3.308E-11   -1.083E-10   -1.823E-10   -2.551E-10   -3.267E-10   -3.971E-10   -4.661E-10   -5.339E-10   -6.003E-10
    -6.654E-10   -7.292E-10   -7.915E-10   -8.525E-10   -9.121E-10   -9.702E-10   -1.027E-09   -1.082E-09   -1.136E-09   -1.188E-09
    -1.239E-09   -1.288E-09   -1.336E-09   -1.382E-09   -1.426E-09   -1.469E-09   -1.510E-09   -1.550E-09   -1.588E-09   -1.625E-09
    -1.660E-09   -1.693E-09   -1.725E-09   -1.755E-09   -1.783E-09   -1.810E-09   -1.835E-09   -1.859E-09   -1.881E-09   -1.901E-09
    -1.919E-09   -1.936E-09   -1.951E-09   -1.965E-09   -1.977E-09   -1.987E-09   -1.996E-09   -2.003E-09   -2.008E-09   -2.012E-09
    -2.014E-09   -2.014E-09   -2.013E-09   -2.011E-09   -2.006E-09   -2.001E-09   -1.993E-09   -1.984E-09   -1.974E-09   -1.962E-09
    -1.949E-09   -1.934E-09   -1.918E-09   -1.900E-09   -1.881E-09   -1.861E-09   -1.839E-09   -1.816E-09   -1.792E-09   -1.766E-09
    -1.739E-09   -1.711E-09   -1.682E-09   -1.651E-09   -1.619E-09   -1.586E-09   -1.552E-09   -1.517E-09   -1.480E-09   -1.443E-09
    -1.404E-09   -1.364E-09   -1.323E-09   -1.282E-09   -1.239E-09   -1.195E-09   -1.150E-09   -1.104E-09   -1.057E-09   -1.009E-09
    -9.605E-10   -9.109E-10   -8.604E-10   -8.090E-10   -7.567E-10   -7.036E-10   -6.496E-10   -5.949E-10   -5.393E-10   -4.829E-10
    -4.258E-10   -3.679E-10   -3.093E-10   -2.499E-10   -1.898E-10   -1.290E-10   -6.744E-11   -5.247E-12    5.762E-11    1.212E-10
     1.853E-10    2.502E-10    3.156E-10    3.817E-10    4.483E-10    5.156E-10    5.834E-10    6.519E-10    7.209E-10    7.904E-10
     8.605E-10    9.311E-10    1.002E-09    1.074E-09    1.146E-09    1.218E-09    1.292E-09    1.365E-09    1.439E-09    1.513E-09
     1.588E-09    1.663E-09    1.739E-09    1.815E-09    1.891E-09    1.968E-09    2.045E-09    2.123E-09    2.200E-09    2.278E-09
     2.357E-09    2.435E-09    2.514E-09    2.593E-09    2.673E-09    2.752E-09    2.832E-09    2.912E-09    2.992E-09    3.073E-09
     3.153E-09    3.234E-09    3.315E-09    3.396E-09    3.477E-09    3.558E-09    3.639E-09    3.721E-09    3.802E-09    3.884E-09
     3.965E-09    4.047E-09    4.128E-09    4.210E-09    4.291E-09    4.373E-09    4.454E-09    4.536E-09    4.617E-09    4.698E-09
     4.779E-09    4.860E-09    4.941E-09
 GABA     Conc. = 6.11E-11
  -1.21707E-09 -1.03228E-09 -8.49244E-10 -6.67971E-10 -4.88490E-10 -3.10828E-10 -1.35010E-10  3.89391E-11  2.10993E-10  3.81128E-10
   5.49317E-10  7.15533E-10  8.79753E-10  1.04195E-09  1.20209E-09  1.36016E-09  1.51611E-09  1.66992E-09  1.82155E-09  1.97095E-09
   2.11809E-09  2.26290E-09  2.40532E-09  2.54528E-09  2.68267E-09  2.81738E-09  2.94922E-09  3.07805E-09  3.20396E-09  3.33091E-09
   3.46119E-09  3.58825E-09  3.71687E-09  3.85354E-09  3.99204E-09  4.13011E-09  4.26885E-09  4.40619E-09  4.53886E-09  4.66375E-09
   4.78008E-09  4.89221E-09  4.99656E-09  5.08482E-09  5.17086E-09  5.25947E-09  5.34046E-09  5.41782E-09  5.49586E-09  5.57355E-09
   5.65023E-09  5.72548E-09  5.79908E-09  5.87082E-09  5.94055E-09  6.00817E-09  6.07361E-09  6.13680E-09  6.19766E-09  6.25628E-09
   6.31289E-09  6.36955E-09  6.43243E-09  6.49534E-09  6.55562E-09  6.62357E-09  6.69388E-09  6.75997E-09  6.82289E-09  6.88132E-09
   6.93296E-09  6.97532E-09  7.00758E-09  7.03328E-09  7.05726E-09  7.06828E-09  7.07267E-09  7.08686E-09  7.09821E-09  7.10457E-09
   7.11533E-09  7.12601E-09  7.13433E-09  7.14745E-09  7.16208E-09  7.17368E-09  7.18667E-09  7.20023E-09  7.21164E-09  7.22004E-09
   7.22334E-09  7.22334E-09  7.22146E-09  7.20991E-09  7.19107E-09  7.17516E-09  7.15326E-09  7.12398E-09  7.09665E-09  7.06823E-09
   7.03686E-09  7.00477E-09  6.97181E-09  6.93769E-09  6.90223E-09  6.86530E-09  6.82680E-09  6.78672E-09  6.74502E-09  6.70164E-09
   6.65661E-09  6.60986E-09  6.56145E-09  6.51132E-09  6.45954E-09  6.40607E-09  6.35095E-09  6.29417E-09  6.23574E-09  6.17574E-09
   6.11401E-09  6.05071E-09  5.98583E-09  5.91940E-09  5.85145E-09  5.78201E-09  5.71112E-09  5.63881E-09  5.56513E-09  5.49010E-09
   5.41378E-09  5.33620E-09  5.25738E-09  5.17739E-09  5.09624E-09  5.01401E-09  4.93069E-09  4.84636E-09  4.76106E-09  4.67482E-09
   4.58769E-09  4.49971E-09  4.41092E-09  4.32139E-09  4.23112E-09  4.14017E-09  4.04859E-09  3.95645E-09  3.86375E-09  3.77057E-09
   3.67697E-09  3.58293E-09  3.48856E-09  3.39391E-09  3.29899E-09  3.20387E-09  3.10863E-09  3.01330E-09  2.91793E-09  2.82265E-09
   2.72747E-09  2.63258E-09  2.53807E-09  2.44425E-09  2.35156E-09  2.26125E-09  2.17821E-09  2.11163E-09  2.04682E-09  1.97427E-09
   1.89138E-09  1.80034E-09  1.70497E-09  1.60732E-09  1.50614E-09  1.39750E-09  1.27841E-09  1.15300E-09  1.03689E-09  9.44161E-10
   8.55974E-10  7.69383E-10  6.83896E-10  5.99389E-10  5.15822E-10  4.33216E-10  3.51593E-10  2.70972E-10  1.91389E-10  1.12874E-10
   3.54419E-11 -4.08620E-11 -1.16027E-10 -1.90008E-10 -2.62795E-10 -3.34367E-10 -4.04685E-10 -4.73731E-10 -5.41489E-10 -6.07927E-10
  -6.73026E-10 -7.36779E-10 -7.99154E-10 -8.60128E-10 -9.19693E-10 -9.77826E-10 -1.03452E-09 -1.08972E-09 -1.14346E-09 -1.19570E-09
  -1.24644E-09 -1.29564E-09 -1.34331E-09 -1.38942E-09 -1.43398E-09 -1.47696E-09 -1.51835E-09 -1.55816E-09 -1.59637E-09 -1.63296E-09
  -1.66793E-09 -1.70128E-09 -1.73299E-09 -1.76308E-09 -1.79153E-09 -1.81832E-09 -1.84348E-09 -1.86698E-09 -1.88883E-09 -1.90902E-09
  -1.92756E-09 -1.94445E-09 -1.95968E-09 -1.97326E-09 -1.98520E-09 -1.99548E-09 -2.00413E-09 -2.01115E-09 -2.01653E-09 -2.02028E-09
  -2.02242E-09 -2.02295E-09 -2.02187E-09 -2.01921E-09 -2.01498E-09 -2.00919E-09 -2.00186E-09 -1.99302E-09 -1.98268E-09 -1.97086E-09
  -1.95757E-09 -1.94284E-09 -1.92668E-09 -1.90912E-09 -1.89016E-09 -1.86983E-09 -1.84815E-09 -1.82513E-09 -1.80080E-09 -1.77517E-09
  -1.74826E-09 -1.72009E-09 -1.69067E-09 -1.66004E-09 -1.62819E-09 -1.59516E-09 -1.56097E-09 -1.52562E-09 -1.48913E-09 -1.45154E-09
  -1.41284E-09 -1.37307E-09 -1.33223E-09 -1.29035E-09 -1.24744E-09 -1.20352E-09 -1.15861E-09 -1.11273E-09 -1.06588E-09 -1.01809E-09
  -9.69367E-10 -9.19738E-10 -8.69213E-10 -8.17809E-10 -7.65540E-10 -7.12423E-10 -6.58471E-10 -6.03701E-10 -5.48126E-10 -4.91760E-10
  -4.34618E-10 -3.76714E-10 -3.18060E-10 -2.58671E-10 -1.98559E-10 -1.37737E-10 -7.62178E-11 -1.40131E-11  4.88649E-11  1.12405E-10
   1.76595E-10  2.41424E-10  3.06881E-10  3.72957E-10  4.39639E-10  5.06916E-10  5.74778E-10  6.43214E-10  7.12210E-10  7.81758E-10
   8.51844E-10  9.22458E-10  9.93588E-10  1.06522E-09  1.13735E-09  1.20995E-09  1.28303E-09  1.35656E-09  1.43053E-09  1.50494E-09
   1.57977E-09  1.65500E-09  1.73063E-09  1.80665E-09  1.88303E-09  1.95977E-09  2.03686E-09  2.11428E-09  2.19203E-09  2.27007E-09
   2.34842E-09  2.42705E-09  2.50595E-09  2.58510E-09  2.66450E-09  2.74413E-09  2.82398E-09  2.90403E-09  2.98428E-09  3.06470E-09
   3.14530E-09  3.22604E-09  3.30693E-09  3.38794E-09  3.46907E-09  3.55030E-09  3.63162E-09  3.71301E-09  3.79447E-09  3.87597E-09
   3.95750E-09  4.03907E-09  4.12064E-09  4.20220E-09  4.28375E-09  4.36527E-09  4.44674E-09  4.52816E-09  4.60951E-09  4.69078E-09
   4.77194E-09  4.85300E-09  4.93394E-09
 Glc      Conc. = 1.66E-10
  -1.50110E-09 -1.26087E-09 -1.02138E-09 -7.77663E-10 -5.38592E-10 -3.05422E-10 -8.93400E-11  1.10515E-10  2.86518E-10  4.30946E-10
   5.67948E-10  7.02819E-10  8.35128E-10  9.74533E-10  1.13960E-09  1.33620E-09  1.55933E-09  1.80077E-09  2.04025E-09  2.26781E-09
   2.49228E-09  2.71136E-09  2.91568E-09  3.09904E-09  3.24446E-09  3.34843E-09  3.44350E-09  3.54925E-09  3.66648E-09  3.79019E-09
   3.91017E-09  4.02498E-09  4.14003E-09  4.25020E-09  4.35145E-09  4.45175E-09  4.55235E-09  4.64821E-09  4.74067E-09  4.83339E-09
   4.92603E-09  5.01800E-09  5.10898E-09  5.19873E-09  5.28704E-09  5.37383E-09  5.45896E-09  5.54234E-09  5.62395E-09  5.70368E-09
   5.78151E-09  5.85738E-09  5.93129E-09  6.00320E-09  6.07307E-09  6.14089E-09  6.20666E-09  6.27038E-09  6.33199E-09  6.39155E-09
   6.44900E-09  6.50434E-09  6.55758E-09  6.60872E-09  6.65774E-09  6.70464E-09  6.74941E-09  6.79207E-09  6.83260E-09  6.87101E-09
   6.90728E-09  6.94144E-09  6.97347E-09  7.00336E-09  7.03114E-09  7.05681E-09  7.08034E-09  7.10179E-09  7.12109E-09  7.13831E-09
   7.15342E-09  7.16643E-09  7.17733E-09  7.18617E-09  7.19293E-09  7.19759E-09  7.20020E-09  7.20074E-09  7.19922E-09  7.19566E-09
   7.19005E-09  7.18243E-09  7.17278E-09  7.16110E-09  7.14743E-09  7.13176E-09  7.11410E-09  7.09446E-09  7.07285E-09  7.04931E-09
   7.02381E-09  6.99637E-09  6.96702E-09  6.93575E-09  6.90259E-09  6.86755E-09  6.83062E-09  6.79185E-09  6.75125E-09  6.70879E-09
   6.66454E-09  6.61845E-09  6.57061E-09  6.52097E-09  6.46959E-09  6.41647E-09  6.36163E-09  6.30509E-09  6.24686E-09  6.18702E-09
   6.12542E-09  6.06222E-09  5.99741E-09  5.93104E-09  5.86312E-09  5.79370E-09  5.72281E-09  5.65049E-09  5.57680E-09  5.50175E-09
   5.42539E-09  5.34776E-09  5.26890E-09  5.18886E-09  5.10766E-09  5.02537E-09  4.94201E-09  4.85762E-09  4.77228E-09  4.68599E-09
   4.59882E-09  4.51080E-09  4.42199E-09  4.33245E-09  4.24217E-09  4.15123E-09  4.05968E-09  3.96759E-09  3.87495E-09  3.78186E-09
   3.68839E-09  3.59451E-09  3.50034E-09  3.40595E-09  3.31134E-09  3.21660E-09  3.12184E-09  3.02711E-09  2.93249E-09  2.83816E-09
   2.74421E-09  2.65091E-09  2.55859E-09  2.46787E-09  2.37997E-09  2.29818E-09  2.23547E-09  2.21705E-09  2.20306E-09  2.16751E-09
   2.10319E-09  2.01593E-09  1.91604E-09  1.80912E-09  1.69166E-09  1.55294E-09  1.38479E-09  1.19811E-09  1.03503E-09  9.34357E-10
   8.44663E-10  7.57906E-10  6.72618E-10  5.88407E-10  5.05143E-10  4.22817E-10  3.41440E-10  2.61031E-10  1.81627E-10  1.03260E-10
   2.59489E-11 -5.02580E-11 -1.25347E-10 -1.99272E-10 -2.72018E-10 -3.43566E-10 -4.13871E-10 -4.82917E-10 -5.50685E-10 -6.17142E-10
  -6.82268E-10 -7.46056E-10 -8.08472E-10 -8.69492E-10 -9.29110E-10 -9.87300E-10 -1.04405E-09 -1.09932E-09 -1.15313E-09 -1.20544E-09
  -1.25625E-09 -1.30553E-09 -1.35327E-09 -1.39946E-09 -1.44411E-09 -1.48717E-09 -1.52865E-09 -1.56854E-09 -1.60684E-09 -1.64352E-09
  -1.67858E-09 -1.71201E-09 -1.74382E-09 -1.77399E-09 -1.80254E-09 -1.82942E-09 -1.85466E-09 -1.87826E-09 -1.90019E-09 -1.92047E-09
