 LCModel (Version 6.3-1R) Copyright: S.W. Provencher.          Ref.: Magn. Reson. Med. 30:672-679 (1993).                
 onepulse 14x29_ftSpec_smooth_lcm
 26 lines in following concentration table = NCONC+1
    Conc.  %SD   /Cr    Metabolite                                         
    0.000 999%   0.000 Ala                                                 
    0.000 999%   0.000 Asp                                                 
    0.000 999%   0.000 Cr                                                  
    0.000 999%   0.000 GABA                                                
    0.000 999%   0.000 Glc                                                 
    0.000 999%   0.000 Gln                                                 
    0.000 999%   0.000 Glu                                                 
    0.000 999%   0.000 Glyc                                                
    0.000 999%   0.000 GPC                                                 
    0.000 999%   0.000 GSH                                                 
 2.23E-10 139%   0.000 Ins                                                 
    0.000 999%   0.000 Lac                                                 
    0.000 999%   0.000 NAAG                                                
    0.000 999%   0.000 NAA                                                 
    0.000 999%   0.000 PCh                                                 
    0.000 999%   0.000 PCr                                                 
    0.000 999%   0.000 PE                                                  
    0.000 999%   0.000 Scyllo                                              
    0.000 999%   0.000 Ser                                                 
    0.000 999%   0.000 Tau                                                 
    0.000 999%   0.000 GPC+PCh                                             
    0.000 999%   0.000 NAA+NAAG                                            
 2.23E-10 139%   0.000 Ins+Glyc                                            
    0.000 999%   0.000 Cr+PCr                                              
    0.000 999%   0.000 Glu+Gln                                             
   6 lines in following misc. output table
  FWHM = 0.078 ppm    S/N =   0                                            
  Data shift = 0.145 ppm                                                   
  Ph:-100 deg      25.6 deg/ppm                                            
  alphaB,S = 1.1E+00,   1.6E+00                                            
    8 spline knots.   Ns = 5(1)                                            
  ( 7) 2 infls.   ( 2) 2 extrs.                                            
  363 points on ppm-axis = NY
      4.250000     4.238821     4.227641     4.216462     4.205282     4.194103     4.182923     4.171744     4.160564     4.149385
      4.138206     4.127026     4.115847     4.104667     4.093488     4.082308     4.071129     4.059949     4.048770     4.037591
      4.026411     4.015232     4.004052     3.992873     3.981693     3.970514     3.959334     3.948155     3.936975     3.925796
      3.914617     3.903437     3.892258     3.881078     3.869899     3.858719     3.847540     3.836360     3.825181     3.814002
      3.802822     3.791643     3.780463     3.769284     3.758104     3.746925     3.735745     3.724566     3.713387     3.702207
      3.691028     3.679848     3.668669     3.657489     3.646310     3.635130     3.623951     3.612772     3.601592     3.590413
      3.579233     3.568054     3.556874     3.545695     3.534515     3.523336     3.512156     3.500977     3.489798     3.478618
      3.467439     3.456259     3.445080     3.433900     3.422721     3.411541     3.400362     3.389183     3.378003     3.366824
      3.355644     3.344465     3.333285     3.322106     3.310926     3.299747     3.288568     3.277388     3.266209     3.255029
      3.243850     3.232670     3.221491     3.210311     3.199132     3.187953     3.176773     3.165594     3.154414     3.143235
      3.132055     3.120876     3.109696     3.098517     3.087337     3.076158     3.064979     3.053799     3.042620     3.031440
      3.020261     3.009081     2.997902     2.986722     2.975543     2.964364     2.953184     2.942005     2.930825     2.919646
      2.908466     2.897287     2.886107     2.874928     2.863749     2.852569     2.841390     2.830210     2.819031     2.807851
      2.796672     2.785492     2.774313     2.763134     2.751954     2.740775     2.729595     2.718416     2.707236     2.696057
      2.684877     2.673698     2.662519     2.651339     2.640160     2.628980     2.617801     2.606621     2.595442     2.584262
      2.573083     2.561903     2.550724     2.539545     2.528365     2.517186     2.506006     2.494827     2.483647     2.472468
      2.461288     2.450109     2.438930     2.427750     2.416571     2.405391     2.394212     2.383032     2.371853     2.360673
      2.349494     2.338315     2.327135     2.315956     2.304776     2.293597     2.282417     2.271238     2.260058     2.248879
      2.237700     2.226520     2.215341     2.204161     2.192982     2.181802     2.170623     2.159443     2.148264     2.137084
      2.125905     2.114726     2.103546     2.092367     2.081187     2.070008     2.058828     2.047649     2.036469     2.025290
      2.014111     2.002931     1.991752     1.980572     1.969393     1.958213     1.947034     1.935854     1.924675     1.913496
      1.902316     1.891137     1.879957     1.868778     1.857598     1.846419     1.835239     1.824060     1.812881     1.801701
      1.790522     1.779342     1.768163     1.756983     1.745804     1.734624     1.723445     1.712265     1.701086     1.689907
      1.678727     1.667548     1.656368     1.645189     1.634009     1.622830     1.611650     1.600471     1.589292     1.578112
      1.566933     1.555753     1.544574     1.533394     1.522215     1.511035     1.499856     1.488677     1.477497     1.466318
      1.455138     1.443959     1.432779     1.421600     1.410420     1.399241     1.388062     1.376882     1.365703     1.354523
      1.343344     1.332164     1.320985     1.309805     1.298626     1.287446     1.276267     1.265088     1.253908     1.242729
      1.231549     1.220370     1.209190     1.198011     1.186831     1.175652     1.164473     1.153293     1.142114     1.130934
      1.119755     1.108575     1.097396     1.086216     1.075037     1.063858     1.052678     1.041499     1.030319     1.019140
      1.007960     0.996781     0.985601     0.974422     0.963243     0.952063     0.940884     0.929704     0.918525     0.907345
      0.896166     0.884986     0.873807     0.862628     0.851448     0.840269     0.829089     0.817910     0.806730     0.795551
      0.784371     0.773192     0.762012     0.750833     0.739654     0.728474     0.717295     0.706115     0.694936     0.683756
      0.672577     0.661397     0.650218     0.639039     0.627859     0.616680     0.605500     0.594321     0.583141     0.571962
      0.560782     0.549603     0.538424     0.527244     0.516065     0.504885     0.493706     0.482526     0.471347     0.460167
      0.448988     0.437809     0.426629     0.415450     0.404270     0.393091     0.381911     0.370732     0.359552     0.348373
      0.337193     0.326014     0.314835     0.303655     0.292476     0.281296     0.270117     0.258937     0.247758     0.236578
      0.225399     0.214220     0.203040
 NY phased data points follow
  -5.42275E-09 -5.29607E-09 -5.07860E-09 -4.99334E-09 -5.10367E-09 -5.61185E-09 -5.51918E-09 -6.08098E-09 -5.71982E-09 -5.33070E-09
  -5.19885E-09 -5.33918E-09 -4.79749E-09 -5.10436E-09 -4.83940E-09 -5.07378E-09 -4.88938E-09 -6.26538E-09 -7.48989E-09 -8.65989E-09
  -8.67247E-09 -8.83385E-09 -8.09701E-09 -8.13390E-09 -7.56307E-09 -8.11898E-09 -7.30511E-09 -7.47102E-09 -7.41658E-09 -7.52175E-09
  -7.64483E-09 -7.72587E-09 -7.78554E-09 -8.24234E-09 -7.88421E-09 -8.52269E-09 -7.72831E-09 -7.89676E-09 -7.54905E-09 -7.94339E-09
  -7.67804E-09 -7.52195E-09 -7.24074E-09 -7.85704E-09 -7.99376E-09 -7.87083E-09 -7.49659E-09 -7.45691E-09 -7.03841E-09 -7.68012E-09
  -7.97814E-09 -8.56100E-09 -8.39964E-09 -8.86862E-09 -8.16036E-09 -8.14285E-09 -7.52622E-09 -7.69557E-09 -7.07966E-09 -7.55227E-09
  -7.18546E-09 -7.65538E-09 -6.87031E-09 -7.11645E-09 -6.99468E-09 -6.55295E-09 -6.19728E-09 -6.68569E-09 -6.15686E-09 -6.65054E-09
  -6.05473E-09 -6.61850E-09 -6.00212E-09 -5.95263E-09 -5.62615E-09 -5.68586E-09 -5.74865E-09 -5.63645E-09 -5.66545E-09 -5.70780E-09
  -5.84822E-09 -6.88444E-09 -6.98730E-09 -7.81410E-09 -7.05661E-09 -7.11897E-09 -6.78542E-09 -6.53708E-09 -5.69405E-09 -6.11064E-09
  -5.70654E-09 -5.41705E-09 -5.15161E-09 -4.78111E-09 -4.86492E-09 -4.98187E-09 -4.86166E-09 -6.75414E-09 -7.97458E-09 -9.00370E-09
  -8.98302E-09 -8.57340E-09 -7.94868E-09 -8.02791E-09 -7.48131E-09 -7.85751E-09 -6.96272E-09 -6.85246E-09 -6.82690E-09 -6.89664E-09
  -6.29304E-09 -6.52015E-09 -6.01298E-09 -5.86000E-09 -5.65479E-09 -5.37013E-09 -4.89337E-09 -5.22408E-09 -4.48591E-09 -4.71483E-09
  -4.27433E-09 -4.45940E-09 -4.05633E-09 -4.15326E-09 -3.95330E-09 -3.70447E-09 -3.34117E-09 -2.96008E-09 -2.82352E-09 -2.57767E-09
  -2.26687E-09 -2.75005E-09 -2.61124E-09 -2.86880E-09 -2.33347E-09 -2.45976E-09 -2.54651E-09 -2.85395E-09 -2.77730E-09 -2.60684E-09
  -2.08620E-09 -2.25065E-09 -1.99257E-09 -2.01008E-09 -1.19645E-09 -2.04643E-09 -1.95301E-09 -1.95861E-09 -2.00361E-09 -1.85561E-09
  -2.36828E-09 -2.37995E-09 -2.70427E-09 -2.84499E-09 -2.68988E-09 -2.51356E-09 -3.02620E-09 -3.46194E-09 -4.12221E-09 -4.89455E-09
  -4.88032E-09 -5.18186E-09 -5.07106E-09 -5.26463E-09 -5.54505E-09 -5.74354E-09 -5.87525E-09 -5.66088E-09 -5.32359E-09 -5.18899E-09
  -5.19443E-09 -5.10845E-09 -4.92011E-09 -5.02100E-09 -4.86880E-09 -4.87725E-09 -4.78790E-09 -4.68866E-09 -4.98446E-09 -4.81960E-09
  -4.97518E-09 -4.41257E-09 -4.43371E-09 -4.58559E-09 -4.39998E-09 -4.61776E-09 -4.55972E-09 -5.02566E-09 -5.77692E-09 -7.94894E-09
  -8.13610E-09 -7.64827E-09 -6.22153E-09 -4.68125E-09 -4.04394E-09 -3.20624E-09 -2.15835E-09 -1.44756E-09 -3.22822E-10  1.17678E-09
   1.88564E-09  3.31877E-09  4.66990E-09  5.91207E-09  7.66877E-09  9.64910E-09  1.09298E-08  1.24723E-08  1.42229E-08  1.57991E-08
   1.78002E-08  1.89246E-08  2.01273E-08  2.08389E-08  2.08732E-08  2.07333E-08  1.99040E-08  1.92338E-08  1.72913E-08  1.51646E-08
   1.30997E-08  1.12172E-08  8.32280E-09  5.81256E-09  3.25854E-09  1.72470E-09 -5.85268E-10 -1.77178E-09 -2.71688E-09 -3.16817E-09
  -3.02047E-09 -2.59987E-09 -2.21568E-09 -1.01305E-09 -9.37743E-11  1.01401E-09  1.47485E-09  1.69980E-09  1.43344E-09  1.12163E-09
   6.57641E-10  1.93722E-10 -1.34910E-10  6.28547E-10  9.54907E-10  2.12051E-09  2.28581E-09  2.77264E-09  2.43159E-09  2.47159E-09
   1.84043E-09  1.40573E-09  8.20844E-10  1.18635E-09  1.64062E-09  2.39880E-09  3.14860E-09  4.04946E-09  3.47765E-09  3.01941E-09
   2.17054E-09  1.92238E-09  1.51661E-09  1.68598E-09  1.28512E-09  1.22252E-09  1.07518E-09  1.46267E-09  1.55592E-09  1.80506E-09
   1.86864E-09  2.05043E-09  2.00918E-09  1.62147E-09  8.66570E-10  1.01962E-09  6.88896E-10 -3.39164E-11 -2.28386E-10 -1.60161E-10
  -4.17477E-10  2.11672E-11 -2.93429E-10  3.54588E-11 -5.57786E-10  5.29585E-11  2.58338E-11  6.34054E-11 -5.72493E-11  1.50150E-10
  -1.06743E-10  7.71890E-10  4.68595E-10  7.26696E-10  8.99535E-10  1.22224E-09  1.19529E-09  1.43826E-09  1.18934E-09  1.35793E-09
   1.82760E-09  1.12867E-09  1.11741E-09  1.66258E-09  9.55780E-10  1.17880E-09  9.35895E-10  7.66024E-10  5.79852E-10  5.84628E-10
   4.16910E-10  5.32635E-10  4.40694E-10 -2.01481E-11 -2.36149E-10  9.20219E-11 -3.27791E-10 -1.22390E-10 -2.43214E-10 -3.27043E-10
  -1.28398E-10 -2.35972E-10  9.24319E-11  2.59822E-10 -4.80900E-11 -1.64689E-10 -1.32321E-10  1.92051E-10  1.48086E-10  4.80239E-10
   1.04330E-11  2.92476E-10 -6.79189E-11  2.45641E-10 -2.15050E-12  2.53634E-10  2.17983E-10  2.35861E-10  1.75158E-10  2.74894E-10
   2.41514E-10  2.61703E-10  1.50567E-10  1.22767E-10 -1.03107E-10  4.31969E-11  1.72794E-10  4.48327E-10  1.51264E-10  5.70115E-10
   1.00666E-10  9.80703E-11  2.32553E-11  1.21860E-10  3.41961E-10  3.23659E-10  4.91168E-12 -1.77980E-10 -1.02391E-10 -2.16339E-11
  -1.33613E-10  2.74860E-10  1.23020E-10
 NY points of the fit to the data follow
  -7.77453E-09 -7.71293E-09 -7.66275E-09 -7.61420E-09 -7.52037E-09 -7.39418E-09 -7.29818E-09 -7.18994E-09 -6.97838E-09 -6.74233E-09
  -6.58394E-09 -6.46792E-09 -6.37734E-09 -6.42944E-09 -6.59411E-09 -6.74981E-09 -6.96619E-09 -7.31137E-09 -7.54722E-09 -7.54176E-09
  -7.50643E-09 -7.50797E-09 -7.48970E-09 -7.45182E-09 -7.40030E-09 -7.34721E-09 -7.30475E-09 -7.28702E-09 -7.27861E-09 -7.28221E-09
  -7.32189E-09 -7.35432E-09 -7.33704E-09 -7.34645E-09 -7.37872E-09 -7.38215E-09 -7.36368E-09 -7.34822E-09 -7.33474E-09 -7.32154E-09
  -7.30674E-09 -7.29081E-09 -7.27426E-09 -7.25712E-09 -7.23945E-09 -7.22127E-09 -7.20262E-09 -7.18349E-09 -7.16392E-09 -7.14393E-09
  -7.12350E-09 -7.10267E-09 -7.08141E-09 -7.05975E-09 -7.03769E-09 -7.01519E-09 -6.99230E-09 -6.96902E-09 -6.94527E-09 -6.92113E-09
  -6.89657E-09 -6.87158E-09 -6.84616E-09 -6.82031E-09 -6.79404E-09 -6.76731E-09 -6.74014E-09 -6.71250E-09 -6.68441E-09 -6.65587E-09
  -6.62685E-09 -6.59735E-09 -6.56740E-09 -6.53693E-09 -6.50600E-09 -6.47457E-09 -6.44266E-09 -6.41026E-09 -6.37736E-09 -6.34398E-09
  -6.31009E-09 -6.27572E-09 -6.24085E-09 -6.20547E-09 -6.16961E-09 -6.13324E-09 -6.09637E-09 -6.05900E-09 -6.02113E-09 -5.98275E-09
  -5.94385E-09 -5.90447E-09 -5.86455E-09 -5.82415E-09 -5.78322E-09 -5.74177E-09 -5.69981E-09 -5.65734E-09 -5.61434E-09 -5.57083E-09
  -5.52679E-09 -5.48224E-09 -5.43715E-09 -5.39155E-09 -5.34542E-09 -5.29875E-09 -5.25156E-09 -5.20384E-09 -5.15559E-09 -5.10678E-09
  -5.05747E-09 -5.00760E-09 -4.95719E-09 -4.90624E-09 -4.85474E-09 -4.80271E-09 -4.75013E-09 -4.69701E-09 -4.64332E-09 -4.58911E-09
  -4.53432E-09 -4.47899E-09 -4.42310E-09 -4.36666E-09 -4.30966E-09 -4.25210E-09 -4.19395E-09 -4.13528E-09 -4.07602E-09 -4.01620E-09
  -3.95581E-09 -3.89484E-09 -3.83331E-09 -3.77121E-09 -3.70852E-09 -3.64524E-09 -3.58142E-09 -3.51699E-09 -3.45199E-09 -3.38638E-09
  -3.32020E-09 -3.25343E-09 -3.18606E-09 -3.11809E-09 -3.04952E-09 -2.98035E-09 -2.91058E-09 -2.84023E-09 -2.76934E-09 -2.69792E-09
  -2.62599E-09 -2.55360E-09 -2.48074E-09 -2.40744E-09 -2.33371E-09 -2.25957E-09 -2.18501E-09 -2.11002E-09 -2.03459E-09 -1.95865E-09
  -1.88208E-09 -1.80472E-09 -1.72616E-09 -1.64566E-09 -1.56136E-09 -1.46771E-09 -1.33939E-09 -1.12008E-09 -9.10713E-10 -7.35610E-10
  -5.85203E-10 -4.57341E-10 -3.83273E-10 -3.94559E-10 -4.57674E-10 -5.72267E-10 -7.09150E-10 -7.32295E-10 -5.66922E-10 -4.78258E-10
  -4.03954E-10 -3.32370E-10 -2.61639E-10 -1.91430E-10 -1.21667E-10 -5.23662E-11  1.64259E-11  8.46420E-11  1.52297E-10  2.19325E-10
   2.85666E-10  3.51329E-10  4.16255E-10  4.80426E-10  5.43776E-10  6.06305E-10  6.67996E-10  7.28767E-10  7.88613E-10  8.47526E-10
   9.05454E-10  9.62372E-10  1.01824E-09  1.07304E-09  1.12676E-09  1.17932E-09  1.23073E-09  1.28096E-09  1.32999E-09  1.37773E-09
   1.42424E-09  1.46942E-09  1.51327E-09  1.55576E-09  1.59687E-09  1.63654E-09  1.67476E-09  1.71153E-09  1.74676E-09  1.78051E-09
   1.81277E-09  1.84359E-09  1.87295E-09  1.90090E-09  1.92745E-09  1.95261E-09  1.97642E-09  1.99888E-09  2.02001E-09  2.03984E-09
   2.05839E-09  2.07568E-09  2.09171E-09  2.10652E-09  2.12013E-09  2.13255E-09  2.14380E-09  2.15390E-09  2.16287E-09  2.17074E-09
   2.17751E-09  2.18321E-09  2.18787E-09  2.19149E-09  2.19410E-09  2.19571E-09  2.19635E-09  2.19605E-09  2.19480E-09  2.19264E-09
   2.18959E-09  2.18565E-09  2.18088E-09  2.17524E-09  2.16880E-09  2.16156E-09  2.15354E-09  2.14476E-09  2.13525E-09  2.12500E-09
   2.11406E-09  2.10244E-09  2.09016E-09  2.07724E-09  2.06369E-09  2.04953E-09  2.03480E-09  2.01950E-09  2.00365E-09  1.98728E-09
   1.97040E-09  1.95303E-09  1.93520E-09  1.91691E-09  1.89820E-09  1.87908E-09  1.85957E-09  1.83969E-09  1.81945E-09  1.79889E-09
   1.77801E-09  1.75684E-09  1.73540E-09  1.71370E-09  1.69177E-09  1.66963E-09  1.64729E-09  1.62477E-09  1.60209E-09  1.57928E-09
   1.55634E-09  1.53331E-09  1.51017E-09  1.48693E-09  1.46358E-09  1.44015E-09  1.41662E-09  1.39299E-09  1.36928E-09  1.34548E-09
   1.32159E-09  1.29762E-09  1.27357E-09  1.24944E-09  1.22523E-09  1.20095E-09  1.17660E-09  1.15218E-09  1.12768E-09  1.10313E-09
   1.07851E-09  1.05382E-09  1.02909E-09  1.00429E-09  9.79437E-10  9.54533E-10  9.29582E-10  9.04578E-10  8.79531E-10  8.54442E-10
   8.29314E-10  8.04139E-10  7.78933E-10  7.53694E-10  7.28420E-10  7.03111E-10  6.77783E-10  6.52425E-10  6.27049E-10  6.01644E-10
   5.76226E-10  5.50791E-10  5.25337E-10  4.99871E-10  4.74399E-10  4.48917E-10  4.23432E-10  3.97940E-10  3.72454E-10  3.46956E-10
   3.21473E-10  2.95987E-10  2.70516E-10  2.45054E-10  2.19592E-10  1.94158E-10  1.68734E-10  1.43335E-10  1.17949E-10  9.25923E-11
   6.72605E-11  4.19529E-11  1.66773E-11 -8.56953E-12 -3.37778E-11 -5.89545E-11 -8.40835E-11 -1.09180E-10 -1.34232E-10 -1.59236E-10
  -1.84198E-10 -2.09108E-10 -2.33959E-10
 NY background values follow
    -7.928E-09   -7.916E-09   -7.904E-09   -7.891E-09   -7.879E-09   -7.866E-09   -7.854E-09   -7.841E-09   -7.829E-09   -7.816E-09
    -7.803E-09   -7.790E-09   -7.777E-09   -7.764E-09   -7.751E-09   -7.738E-09   -7.724E-09   -7.711E-09   -7.697E-09   -7.683E-09
    -7.670E-09   -7.655E-09   -7.641E-09   -7.627E-09   -7.612E-09   -7.597E-09   -7.582E-09   -7.567E-09   -7.552E-09   -7.536E-09
    -7.521E-09   -7.505E-09   -7.488E-09   -7.472E-09   -7.455E-09   -7.438E-09   -7.421E-09   -7.404E-09   -7.386E-09   -7.368E-09
    -7.350E-09   -7.332E-09   -7.313E-09   -7.294E-09   -7.275E-09   -7.255E-09   -7.235E-09   -7.215E-09   -7.194E-09   -7.173E-09
    -7.152E-09   -7.131E-09   -7.109E-09   -7.086E-09   -7.064E-09   -7.041E-09   -7.018E-09   -6.994E-09   -6.970E-09   -6.945E-09
    -6.920E-09   -6.895E-09   -6.869E-09   -6.843E-09   -6.817E-09   -6.790E-09   -6.762E-09   -6.735E-09   -6.706E-09   -6.678E-09
    -6.648E-09   -6.619E-09   -6.589E-09   -6.558E-09   -6.527E-09   -6.495E-09   -6.463E-09   -6.431E-09   -6.398E-09   -6.364E-09
    -6.330E-09   -6.296E-09   -6.261E-09   -6.226E-09   -6.190E-09   -6.153E-09   -6.116E-09   -6.079E-09   -6.041E-09   -6.002E-09
    -5.963E-09   -5.924E-09   -5.884E-09   -5.844E-09   -5.803E-09   -5.761E-09   -5.719E-09   -5.677E-09   -5.634E-09   -5.590E-09
    -5.546E-09   -5.501E-09   -5.456E-09   -5.411E-09   -5.365E-09   -5.318E-09   -5.271E-09   -5.223E-09   -5.175E-09   -5.126E-09
    -5.077E-09   -5.027E-09   -4.976E-09   -4.925E-09   -4.874E-09   -4.822E-09   -4.769E-09   -4.716E-09   -4.662E-09   -4.608E-09
    -4.553E-09   -4.498E-09   -4.442E-09   -4.386E-09   -4.329E-09   -4.271E-09   -4.213E-09   -4.154E-09   -4.095E-09   -4.035E-09
    -3.975E-09   -3.914E-09   -3.853E-09   -3.791E-09   -3.728E-09   -3.665E-09   -3.601E-09   -3.537E-09   -3.472E-09   -3.406E-09
    -3.340E-09   -3.273E-09   -3.206E-09   -3.138E-09   -3.070E-09   -3.001E-09   -2.931E-09   -2.861E-09   -2.790E-09   -2.719E-09
    -2.647E-09   -2.575E-09   -2.503E-09   -2.430E-09   -2.357E-09   -2.283E-09   -2.209E-09   -2.135E-09   -2.061E-09   -1.986E-09
    -1.912E-09   -1.837E-09   -1.762E-09   -1.687E-09   -1.611E-09   -1.536E-09   -1.461E-09   -1.386E-09   -1.311E-09   -1.236E-09
    -1.161E-09   -1.086E-09   -1.012E-09   -9.373E-10   -8.631E-10   -7.892E-10   -7.156E-10   -6.423E-10   -5.694E-10   -4.968E-10
    -4.247E-10   -3.530E-10   -2.817E-10   -2.109E-10   -1.407E-10   -7.099E-11   -1.871E-12    6.661E-11    1.345E-10    2.017E-10
     2.682E-10    3.340E-10    3.990E-10    4.633E-10    5.267E-10    5.893E-10    6.510E-10    7.119E-10    7.717E-10    8.307E-10
     8.886E-10    9.456E-10    1.001E-09    1.056E-09    1.110E-09    1.163E-09    1.214E-09    1.264E-09    1.313E-09    1.361E-09
     1.408E-09    1.453E-09    1.497E-09    1.539E-09    1.580E-09    1.620E-09    1.658E-09    1.695E-09    1.730E-09    1.764E-09
     1.796E-09    1.827E-09    1.856E-09    1.884E-09    1.911E-09    1.936E-09    1.960E-09    1.982E-09    2.003E-09    2.023E-09
     2.042E-09    2.059E-09    2.075E-09    2.090E-09    2.104E-09    2.116E-09    2.127E-09    2.137E-09    2.146E-09    2.154E-09
     2.161E-09    2.167E-09    2.171E-09    2.175E-09    2.178E-09    2.179E-09    2.180E-09    2.179E-09    2.178E-09    2.176E-09
     2.173E-09    2.169E-09    2.164E-09    2.159E-09    2.152E-09    2.145E-09    2.137E-09    2.128E-09    2.119E-09    2.108E-09
     2.098E-09    2.086E-09    2.074E-09    2.061E-09    2.047E-09    2.033E-09    2.018E-09    2.003E-09    1.987E-09    1.971E-09
     1.954E-09    1.936E-09    1.919E-09    1.900E-09    1.882E-09    1.863E-09    1.843E-09    1.823E-09    1.803E-09    1.782E-09
     1.761E-09    1.740E-09    1.719E-09    1.697E-09    1.675E-09    1.653E-09    1.631E-09    1.608E-09    1.586E-09    1.563E-09
     1.540E-09    1.517E-09    1.494E-09    1.470E-09    1.447E-09    1.424E-09    1.400E-09    1.377E-09    1.353E-09    1.329E-09
     1.305E-09    1.281E-09    1.257E-09    1.233E-09    1.209E-09    1.184E-09    1.160E-09    1.136E-09    1.111E-09    1.087E-09
     1.062E-09    1.037E-09    1.013E-09    9.878E-10    9.630E-10    9.381E-10    9.132E-10    8.882E-10    8.631E-10    8.380E-10
     8.129E-10    7.877E-10    7.625E-10    7.373E-10    7.120E-10    6.867E-10    6.614E-10    6.360E-10    6.107E-10    5.853E-10
     5.598E-10    5.344E-10    5.090E-10    4.835E-10    4.580E-10    4.326E-10    4.071E-10    3.816E-10    3.561E-10    3.306E-10
     3.051E-10    2.796E-10    2.542E-10    2.287E-10    2.033E-10    1.778E-10    1.524E-10    1.270E-10    1.016E-10    7.629E-11
     5.096E-11    2.566E-11    3.875E-13   -2.485E-11   -5.006E-11   -7.523E-11   -1.004E-10   -1.254E-10   -1.505E-10   -1.755E-10
    -2.004E-10   -2.254E-10   -2.502E-10
 Ins      Conc. = 2.23E-10
  -7.77453E-09 -7.71293E-09 -7.66275E-09 -7.61420E-09 -7.52037E-09 -7.39418E-09 -7.29818E-09 -7.18994E-09 -6.97838E-09 -6.74233E-09
  -6.58394E-09 -6.46792E-09 -6.37734E-09 -6.42944E-09 -6.59411E-09 -6.74981E-09 -6.96619E-09 -7.31137E-09 -7.54722E-09 -7.54176E-09
  -7.50643E-09 -7.50797E-09 -7.48970E-09 -7.45182E-09 -7.40030E-09 -7.34721E-09 -7.30475E-09 -7.28702E-09 -7.27861E-09 -7.28221E-09
  -7.32189E-09 -7.35432E-09 -7.33704E-09 -7.34645E-09 -7.37872E-09 -7.38215E-09 -7.36368E-09 -7.34822E-09 -7.33474E-09 -7.32154E-09
  -7.30674E-09 -7.29081E-09 -7.27426E-09 -7.25712E-09 -7.23945E-09 -7.22127E-09 -7.20262E-09 -7.18349E-09 -7.16392E-09 -7.14393E-09
  -7.12350E-09 -7.10267E-09 -7.08141E-09 -7.05975E-09 -7.03769E-09 -7.01519E-09 -6.99230E-09 -6.96902E-09 -6.94527E-09 -6.92113E-09
  -6.89657E-09 -6.87158E-09 -6.84616E-09 -6.82031E-09 -6.79404E-09 -6.76731E-09 -6.74014E-09 -6.71250E-09 -6.68441E-09 -6.65587E-09
  -6.62685E-09 -6.59735E-09 -6.56740E-09 -6.53693E-09 -6.50600E-09 -6.47457E-09 -6.44266E-09 -6.41026E-09 -6.37736E-09 -6.34398E-09
  -6.31009E-09 -6.27572E-09 -6.24085E-09 -6.20547E-09 -6.16961E-09 -6.13324E-09 -6.09637E-09 -6.05900E-09 -6.02113E-09 -5.98275E-09
  -5.94385E-09 -5.90447E-09 -5.86455E-09 -5.82415E-09 -5.78322E-09 -5.74177E-09 -5.69981E-09 -5.65734E-09 -5.61434E-09 -5.57083E-09
  -5.52679E-09 -5.48224E-09 -5.43715E-09 -5.39155E-09 -5.34542E-09 -5.29875E-09 -5.25156E-09 -5.20384E-09 -5.15559E-09 -5.10678E-09
  -5.05747E-09 -5.00760E-09 -4.95719E-09 -4.90624E-09 -4.85474E-09 -4.80271E-09 -4.75013E-09 -4.69701E-09 -4.64332E-09 -4.58911E-09
  -4.53432E-09 -4.47899E-09 -4.42310E-09 -4.36666E-09 -4.30966E-09 -4.25210E-09 -4.19395E-09 -4.13528E-09 -4.07602E-09 -4.01620E-09
  -3.95581E-09 -3.89484E-09 -3.83331E-09 -3.77121E-09 -3.70852E-09 -3.64524E-09 -3.58142E-09 -3.51699E-09 -3.45199E-09 -3.38638E-09
  -3.32020E-09 -3.25343E-09 -3.18606E-09 -3.11809E-09 -3.04952E-09 -2.98035E-09 -2.91058E-09 -2.84023E-09 -2.76934E-09 -2.69792E-09
  -2.62599E-09 -2.55360E-09 -2.48074E-09 -2.40744E-09 -2.33371E-09 -2.25957E-09 -2.18501E-09 -2.11002E-09 -2.03459E-09 -1.95865E-09
  -1.88208E-09 -1.80472E-09 -1.72616E-09 -1.64566E-09 -1.56136E-09 -1.46771E-09 -1.33939E-09 -1.12008E-09 -9.10713E-10 -7.35610E-10
  -5.85203E-10 -4.57341E-10 -3.83273E-10 -3.94559E-10 -4.57674E-10 -5.72267E-10 -7.09150E-10 -7.32295E-10 -5.66922E-10 -4.78258E-10
  -4.03954E-10 -3.32370E-10 -2.61639E-10 -1.91430E-10 -1.21667E-10 -5.23662E-11  1.64259E-11  8.46420E-11  1.52297E-10  2.19325E-10
   2.85666E-10  3.51329E-10  4.16255E-10  4.80426E-10  5.43776E-10  6.06305E-10  6.67996E-10  7.28767E-10  7.88613E-10  8.47526E-10
   9.05454E-10  9.62372E-10  1.01824E-09  1.07304E-09  1.12676E-09  1.17932E-09  1.23073E-09  1.28096E-09  1.32999E-09  1.37773E-09
   1.42424E-09  1.46942E-09  1.51327E-09  1.55576E-09  1.59687E-09  1.63654E-09  1.67476E-09  1.71153E-09  1.74676E-09  1.78051E-09
   1.81277E-09  1.84359E-09  1.87295E-09  1.90090E-09  1.92745E-09  1.95261E-09  1.97642E-09  1.99888E-09  2.02001E-09  2.03984E-09
   2.05839E-09  2.07568E-09  2.09171E-09  2.10652E-09  2.12013E-09  2.13255E-09  2.14380E-09  2.15390E-09  2.16287E-09  2.17074E-09
   2.17751E-09  2.18321E-09  2.18787E-09  2.19149E-09  2.19410E-09  2.19571E-09  2.19635E-09  2.19605E-09  2.19480E-09  2.19264E-09
   2.18959E-09  2.18565E-09  2.18088E-09  2.17524E-09  2.16880E-09  2.16156E-09  2.15354E-09  2.14476E-09  2.13525E-09  2.12500E-09
   2.11406E-09  2.10244E-09  2.09016E-09  2.07724E-09  2.06369E-09  2.04953E-09  2.03480E-09  2.01950E-09  2.00365E-09  1.98728E-09
   1.97040E-09  1.95303E-09  1.93520E-09  1.91691E-09  1.89820E-09  1.87908E-09  1.85957E-09  1.83969E-09  1.81945E-09  1.79889E-09
   1.77801E-09  1.75684E-09  1.73540E-09  1.71370E-09  1.69177E-09  1.66963E-09  1.64729E-09  1.62477E-09  1.60209E-09  1.57928E-09
   1.55634E-09  1.53331E-09  1.51017E-09  1.48693E-09  1.46358E-09  1.44015E-09  1.41662E-09  1.39299E-09  1.36928E-09  1.34548E-09
   1.32159E-09  1.29762E-09  1.27357E-09  1.24944E-09  1.22523E-09  1.20095E-09  1.17660E-09  1.15218E-09  1.12768E-09  1.10313E-09
   1.07851E-09  1.05382E-09  1.02909E-09  1.00429E-09  9.79437E-10  9.54533E-10  9.29582E-10  9.04578E-10  8.79531E-10  8.54442E-10
   8.29314E-10  8.04139E-10  7.78933E-10  7.53694E-10  7.28420E-10  7.03111E-10  6.77783E-10  6.52425E-10  6.27049E-10  6.01644E-10
   5.76226E-10  5.50791E-10  5.25337E-10  4.99871E-10  4.74399E-10  4.48917E-10  4.23432E-10  3.97940E-10  3.72454E-10  3.46956E-10
   3.21473E-10  2.95987E-10  2.70516E-10  2.45054E-10  2.19592E-10  1.94158E-10  1.68734E-10  1.43335E-10  1.17949E-10  9.25923E-11
   6.72605E-11  4.19529E-11  1.66773E-11 -8.56953E-12 -3.37778E-11 -5.89545E-11 -8.40835E-11 -1.09180E-10 -1.34232E-10 -1.59236E-10
  -1.84198E-10 -2.09108E-10 -2.33959E-10
   8 lines in following diagnostic table:
   1 ERROR     MYBASI 10                                                  
   4 ERRORS    AREABA  3                                                  
   1 info      PNNLS   1                                                  
   1 warning   STARTV 25                                                  
   1 info      STARTV 20                                                  
   1 info      TWOREG  8                                                  
   1 info      RFALSI 11                                                  
   1 info      FINOUT  9                                                  
  79 lines in following table of input changes:
ATTH2O=1.0                                                                
FILH2O='/mnt/c/Users/divya/Downloads/Lexar/DataFo                         
   rDivya/meas_MID01415_FID95676_lb_RosetteSpinEc                         
   ho_ek_v1a_lcm/14x29_ftSpec_smooth_lcm_w'                               
DOWS=T                                                                    
DOECC=T                                                                   
CHRATO(8)='MM9/MM1 = 1.40 +- 0.7'                                         
CHRATO(7)='MM8/MM1 = 0.33 +- 0.17'                                        
CHRATO(6)='MM7/MM1 = 0.54 +- 0.27'                                        
CHRATO(5)='MM6/MM1 = 0.63 +- 0.16'                                        
CHRATO(4)='MM5/MM1 = 3.16 +- 0.79'                                        
CHRATO(3)='MM4/MM1 = 1.29 +- 1.03'                                        
CHRATO(2)='MM3/MM1 = 1.05 +- 0.63'                                        
CHRATO(1)='MM2/MM1 = 0.51 +- 0.17'                                        
NRATIO=8                                                                  
NORATO(7)='-CrCH2/totCr'                                                  
NORATO(6)='MM17/MM09*'                                                    
NORATO(5)='MM14/MM09*'                                                    
NORATO(4)='MM12/MM09*'                                                    
NORATO(3)='MM20/MM09*'                                                    
NORATO(2)='Lip20/Lip13*'                                                  
NORATO(1)='Lip09/Lip13*'                                                  
NNORAT=7                                                                  
CHOMIT(14)='-CrCH2'                                                       
CHOMIT(13)='MM17'                                                         
CHOMIT(12)='MM14'                                                         
CHOMIT(11)='MM12'                                                         
CHOMIT(10)='MM20'                                                         
CHOMIT(9)='Lip20'                                                         
CHOMIT(8)='MM09'                                                          
CHOMIT(7)='Lip09'                                                         
CHOMIT(6)='Lip13d'                                                        
CHOMIT(5)='Lip13c'                                                        
