 LCModel (Version 6.3-1R) Copyright: S.W. Provencher.          Ref.: Magn. Reson. Med. 30:672-679 (1993).                
 onepulse 14x20_ftSpec_smooth_lcm
 26 lines in following concentration table = NCONC+1
    Conc.  %SD /Cr+PCr  Metabolite                                         
    0.000 999%   0.000 Ala                                                 
    0.000 999%   0.000 Asp                                                 
    0.000 999%   0.000 Cr                                                  
    0.000 999%   0.000 GABA                                                
 4.72E-10 217%   2.139 Glc                                                 
 1.29E-09  66%   5.872 Gln                                                 
 3.17E-10 250%   1.438 Glu                                                 
    0.000 999%   0.000 Glyc                                                
 1.82E-10  79%   0.825 GPC                                                 
    0.000 999%   0.000 GSH                                                 
 1.10E-09  46%   4.993 Ins                                                 
    0.000 999%   0.000 Lac                                                 
 1.36E-10 293%   0.617 NAAG                                                
 3.59E-10 142%   1.629 NAA                                                 
    0.000 999%   0.000 PCh                                                 
 2.20E-10 125%   1.000 PCr                                                 
    0.000 999%   0.000 PE                                                  
 1.66E-10 184%   0.751 Scyllo                                              
 3.83E-09  28%  17.374 Ser                                                 
 3.08E-11 999%   0.140 Tau                                                 
 1.82E-10  79%   0.825 GPC+PCh                                             
 4.95E-10  61%   2.246 NAA+NAAG                                            
 1.10E-09  46%   4.993 Ins+Glyc                                            
 2.20E-10 125%   1.000 Cr+PCr                                              
 1.61E-09  43%   7.310 Glu+Gln                                             
   6 lines in following misc. output table
  FWHM = 0.101 ppm    S/N =   2                                            
  Data shift = 0.369 ppm                                                   
  Ph: -53 deg     -40.7 deg/ppm                                            
  alphaB,S = 6.8E-01,   4.5E+01                                            
    8 spline knots.   Ns = 5(1)                                            
  ( 8) 2 infls.   ( 3) 1 extrs.                                            
  363 points on ppm-axis = NY
      4.250000     4.238821     4.227641     4.216462     4.205282     4.194103     4.182923     4.171744     4.160564     4.149385
      4.138206     4.127026     4.115847     4.104667     4.093488     4.082308     4.071129     4.059949     4.048770     4.037591
      4.026411     4.015232     4.004052     3.992873     3.981693     3.970514     3.959334     3.948155     3.936975     3.925796
      3.914617     3.903437     3.892258     3.881078     3.869899     3.858719     3.847540     3.836360     3.825181     3.814002
      3.802822     3.791643     3.780463     3.769284     3.758104     3.746925     3.735745     3.724566     3.713387     3.702207
      3.691028     3.679848     3.668669     3.657489     3.646310     3.635130     3.623951     3.612772     3.601592     3.590413
      3.579233     3.568054     3.556874     3.545695     3.534515     3.523336     3.512156     3.500977     3.489798     3.478618
      3.467439     3.456259     3.445080     3.433900     3.422721     3.411541     3.400362     3.389183     3.378003     3.366824
      3.355644     3.344465     3.333285     3.322106     3.310926     3.299747     3.288568     3.277388     3.266209     3.255029
      3.243850     3.232670     3.221491     3.210311     3.199132     3.187953     3.176773     3.165594     3.154414     3.143235
      3.132055     3.120876     3.109696     3.098517     3.087337     3.076158     3.064979     3.053799     3.042620     3.031440
      3.020261     3.009081     2.997902     2.986722     2.975543     2.964364     2.953184     2.942005     2.930825     2.919646
      2.908466     2.897287     2.886107     2.874928     2.863749     2.852569     2.841390     2.830210     2.819031     2.807851
      2.796672     2.785492     2.774313     2.763134     2.751954     2.740775     2.729595     2.718416     2.707236     2.696057
      2.684877     2.673698     2.662519     2.651339     2.640160     2.628980     2.617801     2.606621     2.595442     2.584262
      2.573083     2.561903     2.550724     2.539545     2.528365     2.517186     2.506006     2.494827     2.483647     2.472468
      2.461288     2.450109     2.438930     2.427750     2.416571     2.405391     2.394212     2.383032     2.371853     2.360673
      2.349494     2.338315     2.327135     2.315956     2.304776     2.293597     2.282417     2.271238     2.260058     2.248879
      2.237700     2.226520     2.215341     2.204161     2.192982     2.181802     2.170623     2.159443     2.148264     2.137084
      2.125905     2.114726     2.103546     2.092367     2.081187     2.070008     2.058828     2.047649     2.036469     2.025290
      2.014111     2.002931     1.991752     1.980572     1.969393     1.958213     1.947034     1.935854     1.924675     1.913496
      1.902316     1.891137     1.879957     1.868778     1.857598     1.846419     1.835239     1.824060     1.812881     1.801701
      1.790522     1.779342     1.768163     1.756983     1.745804     1.734624     1.723445     1.712265     1.701086     1.689907
      1.678727     1.667548     1.656368     1.645189     1.634009     1.622830     1.611650     1.600471     1.589292     1.578112
      1.566933     1.555753     1.544574     1.533394     1.522215     1.511035     1.499856     1.488677     1.477497     1.466318
      1.455138     1.443959     1.432779     1.421600     1.410420     1.399241     1.388062     1.376882     1.365703     1.354523
      1.343344     1.332164     1.320985     1.309805     1.298626     1.287446     1.276267     1.265088     1.253908     1.242729
      1.231549     1.220370     1.209190     1.198011     1.186831     1.175652     1.164473     1.153293     1.142114     1.130934
      1.119755     1.108575     1.097396     1.086216     1.075037     1.063858     1.052678     1.041499     1.030319     1.019140
      1.007960     0.996781     0.985601     0.974422     0.963243     0.952063     0.940884     0.929704     0.918525     0.907345
      0.896166     0.884986     0.873807     0.862628     0.851448     0.840269     0.829089     0.817910     0.806730     0.795551
      0.784371     0.773192     0.762012     0.750833     0.739654     0.728474     0.717295     0.706115     0.694936     0.683756
      0.672577     0.661397     0.650218     0.639039     0.627859     0.616680     0.605500     0.594321     0.583141     0.571962
      0.560782     0.549603     0.538424     0.527244     0.516065     0.504885     0.493706     0.482526     0.471347     0.460167
      0.448988     0.437809     0.426629     0.415450     0.404270     0.393091     0.381911     0.370732     0.359552     0.348373
      0.337193     0.326014     0.314835     0.303655     0.292476     0.281296     0.270117     0.258937     0.247758     0.236578
      0.225399     0.214220     0.203040
 NY phased data points follow
   1.39698E-08  1.29605E-08  1.38557E-08  1.21672E-08  1.31689E-08  1.10663E-08  1.22349E-08  1.05020E-08  1.16237E-08  1.07665E-08
   1.21024E-08  1.03433E-08  1.20472E-08  1.07734E-08  1.19622E-08  1.09290E-08  1.23969E-08  1.11152E-08  1.20123E-08  1.05810E-08
   1.15896E-08  1.01690E-08  1.16375E-08  1.02950E-08  1.23653E-08  1.01267E-08  1.24220E-08  1.07395E-08  1.13438E-08  1.04528E-08
   1.26396E-08  1.21487E-08  1.31073E-08  1.33995E-08  1.32926E-08  1.15978E-08  1.24332E-08  1.02610E-08  1.11730E-08  9.70781E-09
   1.10382E-08  8.80531E-09  1.03181E-08  9.35074E-09  9.21148E-09  8.23406E-09  8.02086E-09  7.28181E-09  8.50541E-09  7.45372E-09
   8.06853E-09  7.34694E-09  7.97430E-09  6.97337E-09  8.10975E-09  6.70550E-09  7.01370E-09  5.50588E-09  7.01384E-09  5.62108E-09
   8.24250E-09  7.85101E-09  1.13572E-08  1.03291E-08  1.19997E-08  1.07964E-08  1.16247E-08  9.57939E-09  1.04138E-08  8.38385E-09
   9.07534E-09  7.70371E-09  8.29735E-09  6.11732E-09  6.98676E-09  6.80114E-09  7.70301E-09  8.30326E-09  1.05604E-08  1.16561E-08
   1.37105E-08  1.33254E-08  1.37505E-08  1.25790E-08  1.32925E-08  1.20949E-08  1.25945E-08  1.09746E-08  1.16646E-08  1.11033E-08
   1.14548E-08  1.02123E-08  1.06378E-08  9.16729E-09  9.66701E-09  8.91294E-09  9.11184E-09  8.26817E-09  8.48362E-09  8.27098E-09
   8.48499E-09  7.32252E-09  8.39737E-09  7.02419E-09  7.84632E-09  6.70300E-09  7.36914E-09  5.72114E-09  6.15925E-09  5.43156E-09
   5.27930E-09  5.25019E-09  5.29259E-09  5.17327E-09  5.66094E-09  5.22600E-09  6.67605E-09  5.10649E-09  6.04475E-09  5.61018E-09
   6.76738E-09  5.33376E-09  5.80334E-09  5.16820E-09  4.86441E-09  3.76622E-09  4.49103E-09  4.20079E-09  4.73277E-09  3.82978E-09
   4.34034E-09  3.93474E-09  4.94151E-09  3.89066E-09  4.23371E-09  4.33370E-09  4.12342E-09  3.92301E-09  4.76869E-09  5.36423E-09
   5.76746E-09  5.24302E-09  5.80957E-09  5.41565E-09  6.69104E-09  6.44690E-09  6.70935E-09  6.74710E-09  6.84117E-09  6.89189E-09
   6.99818E-09  6.79525E-09  6.94556E-09  6.33612E-09  6.53059E-09  6.27942E-09  6.56820E-09  6.78121E-09  6.99947E-09  6.98977E-09
   7.52070E-09  6.30028E-09  6.19392E-09  6.36765E-09  6.37739E-09  6.01403E-09  7.18560E-09  8.28935E-09  1.04982E-08  1.26996E-08
   1.48437E-08  1.61706E-08  1.65457E-08  1.55373E-08  1.49360E-08  1.41193E-08  1.42638E-08  1.23038E-08  1.23413E-08  1.16714E-08
   1.14960E-08  9.88955E-09  9.81470E-09  8.74548E-09  7.73211E-09  6.30018E-09  5.70005E-09  4.24492E-09  2.97633E-09  1.38324E-09
  -6.81382E-10 -2.51355E-09 -4.44398E-09 -6.06442E-09 -8.43529E-09 -1.05472E-08 -1.20838E-08 -1.43005E-08 -1.48263E-08 -1.66093E-08
  -1.59566E-08 -1.73227E-08 -1.70777E-08 -1.65453E-08 -1.47068E-08 -1.43337E-08 -1.23454E-08 -1.11340E-08 -9.33272E-09 -7.58703E-09
  -6.33295E-09 -4.56459E-09 -3.12889E-09 -2.74325E-09 -2.47070E-09 -3.13837E-09 -1.84742E-09 -2.53794E-09 -2.38971E-09 -3.10589E-09
  -2.16217E-09 -2.96411E-09 -2.09387E-09 -2.24536E-09 -1.98419E-09 -1.65829E-09 -1.88853E-09 -1.40634E-09 -1.60340E-09 -2.56874E-09
  -2.46959E-09 -2.26789E-09 -2.33935E-09 -1.91281E-09 -1.53462E-09 -1.26597E-09 -1.29571E-09 -1.30406E-09 -1.51493E-09 -1.52696E-09
  -1.60479E-09 -2.11203E-09 -2.10852E-09 -1.52721E-09 -1.85557E-09 -1.72206E-09 -1.60840E-09 -1.26916E-09 -1.17250E-09 -1.28317E-09
  -8.83186E-10 -7.06181E-10 -5.36456E-10 -6.91160E-10 -6.54512E-10 -9.32546E-10 -1.09513E-09 -1.24241E-09 -1.33482E-09 -2.07727E-09
  -1.66444E-09 -1.79578E-09 -2.40418E-09 -1.95338E-09 -1.77655E-09 -1.86734E-09 -1.33964E-09 -8.70881E-10 -1.06969E-09 -9.07543E-10
  -9.45975E-10 -8.47979E-10 -3.17664E-10 -6.03809E-10 -2.64577E-11 -2.76716E-10 -7.09550E-11 -3.33715E-10 -3.81212E-10 -5.57298E-10
  -3.82707E-10 -6.62492E-10 -1.16519E-09 -9.46790E-10 -4.75840E-10 -4.43654E-10 -9.45739E-10 -1.07886E-09 -5.32138E-10 -1.77160E-09
  -1.54537E-09 -8.23512E-10 -1.64127E-09 -1.27364E-09 -1.18038E-09 -1.97759E-09 -1.85776E-09 -1.24543E-09 -1.55134E-09 -1.79601E-09
  -1.93958E-09 -1.99626E-09 -1.44599E-09 -2.10870E-09 -1.60613E-09 -1.90644E-09 -1.87140E-09 -1.86297E-09 -1.57220E-09 -1.75312E-09
  -1.57001E-09 -2.22227E-09 -1.39420E-09 -2.02031E-09 -1.76575E-09 -2.23672E-09 -1.71976E-09 -1.94986E-09 -1.63282E-09 -1.74224E-09
  -1.55412E-09 -2.04672E-09 -1.67650E-09 -1.71647E-09 -1.39906E-09 -1.57684E-09 -1.60523E-09 -1.94383E-09 -1.20588E-09 -2.15910E-09
  -1.39987E-09 -1.45962E-09 -1.96283E-09 -1.42626E-09 -1.11295E-09 -1.62329E-09 -1.09168E-09 -1.52724E-09 -1.10931E-09 -1.66001E-09
  -6.61370E-10 -1.52665E-09 -1.46828E-09 -1.21363E-09 -9.83764E-10 -1.31765E-09 -1.15389E-09 -1.68229E-09 -1.30771E-09 -4.07654E-10
  -1.02731E-09 -1.35911E-09 -7.26062E-10 -8.88455E-10 -9.77710E-10 -9.67806E-10 -1.01201E-09 -1.08082E-09 -2.63894E-10 -1.00201E-09
  -7.47263E-10 -5.95928E-10 -4.26679E-10
 NY points of the fit to the data follow
   1.23866E-08  1.31853E-08  1.30384E-08  1.26478E-08  1.27804E-08  1.29374E-08  1.25917E-08  1.18115E-08  1.10411E-08  1.06992E-08
   1.06868E-08  1.08274E-08  1.10978E-08  1.13969E-08  1.17059E-08  1.18264E-08  1.17896E-08  1.18047E-08  1.17417E-08  1.13089E-08
   1.08551E-08  1.05746E-08  1.03414E-08  1.01357E-08  1.02653E-08  1.07247E-08  1.13667E-08  1.19283E-08  1.21797E-08  1.21596E-08
   1.23004E-08  1.24587E-08  1.26121E-08  1.25393E-08  1.20601E-08  1.13781E-08  1.09518E-08  1.06621E-08  1.04614E-08  1.03210E-08
   1.01770E-08  9.93275E-09  9.51503E-09  9.02751E-09  8.71455E-09  8.48513E-09  8.29171E-09  8.11266E-09  7.94332E-09  7.79650E-09
   7.66639E-09  7.55255E-09  7.45138E-09  7.35004E-09  7.30307E-09  7.39403E-09  7.53140E-09  7.75758E-09  8.14306E-09  8.60402E-09
   9.02574E-09  9.41724E-09  9.79678E-09  1.01086E-08  1.02854E-08  1.03011E-08  1.02107E-08  1.00150E-08  9.59484E-09  9.14681E-09
   8.81693E-09  8.57499E-09  8.36802E-09  8.20997E-09  8.20592E-09  8.35265E-09  8.66370E-09  9.34073E-09  1.02963E-08  1.12965E-08
   1.21736E-08  1.28152E-08  1.31841E-08  1.34291E-08  1.35182E-08  1.32797E-08  1.27323E-08  1.18913E-08  1.08975E-08  1.01929E-08
   9.74051E-09  9.40532E-09  9.13987E-09  8.91678E-09  8.72489E-09  8.55647E-09  8.40606E-09  8.27025E-09  8.14430E-09  8.02590E-09
   7.91720E-09  7.81688E-09  7.72114E-09  7.62876E-09  7.54074E-09  7.45647E-09  7.37521E-09  7.29645E-09  7.21966E-09  7.14449E-09
   7.07074E-09  6.99805E-09  6.92622E-09  6.85504E-09  6.78434E-09  6.71393E-09  6.64369E-09  6.57347E-09  6.50311E-09  6.43258E-09
   6.36167E-09  6.29036E-09  6.21852E-09  6.14608E-09  6.07297E-09  5.99909E-09  5.92436E-09  5.84878E-09  5.77223E-09  5.69465E-09
   5.61601E-09  5.53622E-09  5.45528E-09  5.37310E-09  5.28965E-09  5.20484E-09  5.11874E-09  5.03120E-09  4.94223E-09  4.85177E-09
   4.75983E-09  4.66636E-09  4.57133E-09  4.47471E-09  4.37651E-09  4.27670E-09  4.17530E-09  4.07241E-09  3.96812E-09  3.86256E-09
   3.75586E-09  3.64818E-09  3.53970E-09  3.43066E-09  3.32135E-09  3.21214E-09  3.10352E-09  2.99619E-09  2.89112E-09  2.78978E-09
   2.69441E-09  2.60886E-09  2.53988E-09  2.50092E-09  2.52267E-09  2.69327E-09  3.38894E-09  6.13608E-09  9.82748E-09  1.31764E-08
   1.56064E-08  1.70563E-08  1.77139E-08  1.78092E-08  1.73457E-08  1.59265E-08  1.29546E-08  8.39310E-09  3.77565E-09  1.96321E-09
   1.26016E-09  8.52158E-10  5.61997E-10  3.31148E-10  1.34631E-10 -3.99916E-11 -1.99587E-10 -3.48225E-10 -4.88545E-10 -6.22207E-10
  -7.50333E-10 -8.73764E-10 -9.93034E-10 -1.10856E-09 -1.22059E-09 -1.32937E-09 -1.43505E-09 -1.53769E-09 -1.63738E-09 -1.73420E-09
  -1.82813E-09 -1.91919E-09 -2.00737E-09 -2.09268E-09 -2.17509E-09 -2.25455E-09 -2.33106E-09 -2.40458E-09 -2.47508E-09 -2.54247E-09
  -2.60679E-09 -2.66794E-09 -2.72589E-09 -2.78060E-09 -2.83205E-09 -2.88015E-09 -2.92489E-09 -2.96624E-09 -3.00412E-09 -3.03862E-09
  -3.06980E-09 -3.09775E-09 -3.12254E-09 -3.14426E-09 -3.16298E-09 -3.17879E-09 -3.19177E-09 -3.20198E-09 -3.20952E-09 -3.21446E-09
  -3.21689E-09 -3.21688E-09 -3.21451E-09 -3.20986E-09 -3.20300E-09 -3.19403E-09 -3.18301E-09 -3.17001E-09 -3.15513E-09 -3.13844E-09
  -3.12000E-09 -3.09992E-09 -3.07824E-09 -3.05507E-09 -3.03045E-09 -3.00448E-09 -2.97722E-09 -2.94876E-09 -2.91917E-09 -2.88850E-09
  -2.85686E-09 -2.82428E-09 -2.79088E-09 -2.75667E-09 -2.72176E-09 -2.68623E-09 -2.65011E-09 -2.61349E-09 -2.57643E-09 -2.53899E-09
  -2.50124E-09 -2.46326E-09 -2.42510E-09 -2.38681E-09 -2.34846E-09 -2.31011E-09 -2.27183E-09 -2.23366E-09 -2.19566E-09 -2.15789E-09
  -2.12040E-09 -2.08324E-09 -2.04648E-09 -2.01015E-09 -1.97431E-09 -1.93900E-09 -1.90428E-09 -1.87019E-09 -1.83676E-09 -1.80404E-09
  -1.77209E-09 -1.74093E-09 -1.71061E-09 -1.68115E-09 -1.65260E-09 -1.62499E-09 -1.59836E-09 -1.57272E-09 -1.54812E-09 -1.52458E-09
  -1.50212E-09 -1.48075E-09 -1.46043E-09 -1.44113E-09 -1.42279E-09 -1.40541E-09 -1.38893E-09 -1.37331E-09 -1.35854E-09 -1.34456E-09
  -1.33135E-09 -1.31887E-09 -1.30710E-09 -1.29599E-09 -1.28551E-09 -1.27563E-09 -1.26633E-09 -1.25756E-09 -1.24930E-09 -1.24152E-09
  -1.23418E-09 -1.22726E-09 -1.22074E-09 -1.21457E-09 -1.20874E-09 -1.20321E-09 -1.19796E-09 -1.19296E-09 -1.18820E-09 -1.18363E-09
  -1.17925E-09 -1.17501E-09 -1.17091E-09 -1.16691E-09 -1.16300E-09 -1.15915E-09 -1.15536E-09 -1.15159E-09 -1.14782E-09 -1.14404E-09
  -1.14023E-09 -1.13637E-09 -1.13244E-09 -1.12843E-09 -1.12432E-09 -1.12011E-09 -1.11577E-09 -1.11129E-09 -1.10667E-09 -1.10187E-09
  -1.09692E-09 -1.09177E-09 -1.08644E-09 -1.08091E-09 -1.07516E-09 -1.06921E-09 -1.06303E-09 -1.05663E-09 -1.04999E-09 -1.04312E-09
  -1.03602E-09 -1.02867E-09 -1.02108E-09 -1.01325E-09 -1.00518E-09 -9.96868E-10 -9.88320E-10 -9.79532E-10 -9.70512E-10 -9.61266E-10
  -9.51794E-10 -9.42105E-10 -9.32210E-10
 NY background values follow
     3.208E-09    3.276E-09    3.344E-09    3.410E-09    3.476E-09    3.540E-09    3.604E-09    3.666E-09    3.727E-09    3.788E-09
     3.847E-09    3.905E-09    3.962E-09    4.019E-09    4.074E-09    4.128E-09    4.181E-09    4.233E-09    4.284E-09    4.334E-09
     4.383E-09    4.431E-09    4.478E-09    4.525E-09    4.570E-09    4.614E-09    4.657E-09    4.699E-09    4.740E-09    4.780E-09
     4.819E-09    4.857E-09    4.894E-09    4.930E-09    4.966E-09    5.000E-09    5.033E-09    5.066E-09    5.097E-09    5.128E-09
     5.158E-09    5.186E-09    5.214E-09    5.241E-09    5.267E-09    5.293E-09    5.317E-09    5.341E-09    5.364E-09    5.385E-09
     5.407E-09    5.427E-09    5.446E-09    5.465E-09    5.483E-09    5.500E-09    5.517E-09    5.532E-09    5.547E-09    5.562E-09
     5.575E-09    5.588E-09    5.600E-09    5.612E-09    5.623E-09    5.633E-09    5.643E-09    5.652E-09    5.660E-09    5.668E-09
     5.676E-09    5.682E-09    5.688E-09    5.694E-09    5.699E-09    5.704E-09    5.708E-09    5.712E-09    5.715E-09    5.717E-09
     5.719E-09    5.720E-09    5.721E-09    5.720E-09    5.720E-09    5.718E-09    5.716E-09    5.713E-09    5.710E-09    5.706E-09
     5.700E-09    5.695E-09    5.688E-09    5.681E-09    5.672E-09    5.663E-09    5.653E-09    5.642E-09    5.630E-09    5.617E-09
     5.603E-09    5.589E-09    5.573E-09    5.556E-09    5.538E-09    5.519E-09    5.499E-09    5.478E-09    5.455E-09    5.432E-09
     5.407E-09    5.381E-09    5.353E-09    5.325E-09    5.295E-09    5.264E-09    5.231E-09    5.197E-09    5.162E-09    5.125E-09
     5.086E-09    5.047E-09    5.005E-09    4.962E-09    4.918E-09    4.872E-09    4.824E-09    4.775E-09    4.724E-09    4.672E-09
     4.617E-09    4.561E-09    4.503E-09    4.444E-09    4.382E-09    4.319E-09    4.254E-09    4.187E-09    4.118E-09    4.047E-09
     3.974E-09    3.899E-09    3.822E-09    3.744E-09    3.663E-09    3.580E-09    3.495E-09    3.408E-09    3.319E-09    3.228E-09
     3.135E-09    3.041E-09    2.945E-09    2.847E-09    2.748E-09    2.647E-09    2.546E-09    2.442E-09    2.338E-09    2.233E-09
     2.126E-09    2.019E-09    1.911E-09    1.802E-09    1.692E-09    1.582E-09    1.471E-09    1.360E-09    1.248E-09    1.136E-09
     1.024E-09    9.115E-10    7.992E-10    6.869E-10    5.747E-10    4.628E-10    3.511E-10    2.398E-10    1.290E-10    1.868E-11
    -9.097E-11   -1.999E-10   -3.081E-10   -4.153E-10   -5.217E-10   -6.270E-10   -7.311E-10   -8.341E-10   -9.358E-10   -1.036E-09
    -1.135E-09   -1.232E-09   -1.328E-09   -1.422E-09   -1.515E-09   -1.605E-09   -1.694E-09   -1.780E-09   -1.865E-09   -1.947E-09
    -2.028E-09   -2.106E-09   -2.181E-09   -2.255E-09   -2.325E-09   -2.394E-09   -2.459E-09   -2.522E-09   -2.583E-09   -2.640E-09
    -2.695E-09   -2.746E-09   -2.795E-09   -2.841E-09   -2.883E-09   -2.923E-09   -2.959E-09   -2.992E-09   -3.022E-09   -3.048E-09
    -3.072E-09   -3.092E-09   -3.109E-09   -3.123E-09   -3.134E-09   -3.143E-09   -3.149E-09   -3.152E-09   -3.152E-09   -3.151E-09
    -3.146E-09   -3.139E-09   -3.131E-09   -3.119E-09   -3.106E-09   -3.091E-09   -3.073E-09   -3.054E-09   -3.033E-09   -3.011E-09
    -2.986E-09   -2.960E-09   -2.933E-09   -2.904E-09   -2.873E-09   -2.842E-09   -2.809E-09   -2.775E-09   -2.740E-09   -2.704E-09
    -2.667E-09   -2.629E-09   -2.590E-09   -2.551E-09   -2.511E-09   -2.470E-09   -2.429E-09   -2.387E-09   -2.346E-09   -2.303E-09
    -2.261E-09   -2.218E-09   -2.175E-09   -2.132E-09   -2.089E-09   -2.046E-09   -2.003E-09   -1.961E-09   -1.918E-09   -1.876E-09
    -1.834E-09   -1.793E-09   -1.752E-09   -1.711E-09   -1.671E-09   -1.631E-09   -1.593E-09   -1.554E-09   -1.517E-09   -1.480E-09
    -1.444E-09   -1.409E-09   -1.375E-09   -1.342E-09   -1.309E-09   -1.278E-09   -1.247E-09   -1.218E-09   -1.190E-09   -1.163E-09
    -1.136E-09   -1.112E-09   -1.088E-09   -1.065E-09   -1.043E-09   -1.022E-09   -1.002E-09   -9.832E-10   -9.651E-10   -9.478E-10
    -9.313E-10   -9.155E-10   -9.005E-10   -8.862E-10   -8.726E-10   -8.595E-10   -8.471E-10   -8.353E-10   -8.239E-10   -8.131E-10
    -8.028E-10   -7.929E-10   -7.834E-10   -7.744E-10   -7.656E-10   -7.573E-10   -7.492E-10   -7.414E-10   -7.338E-10   -7.265E-10
    -7.194E-10   -7.125E-10   -7.057E-10   -6.991E-10   -6.925E-10   -6.861E-10   -6.798E-10   -6.734E-10   -6.672E-10   -6.609E-10
    -6.546E-10   -6.483E-10   -6.420E-10   -6.356E-10   -6.291E-10   -6.226E-10   -6.159E-10   -6.092E-10   -6.023E-10   -5.952E-10
    -5.881E-10   -5.807E-10   -5.732E-10   -5.656E-10   -5.577E-10   -5.497E-10   -5.414E-10   -5.330E-10   -5.243E-10   -5.154E-10
    -5.063E-10   -4.970E-10   -4.875E-10   -4.778E-10   -4.678E-10   -4.576E-10   -4.472E-10   -4.366E-10   -4.258E-10   -4.148E-10
    -4.036E-10   -3.921E-10   -3.805E-10
 Glc      Conc. = 4.72E-10
   2.76899E-09  3.00636E-09  3.24177E-09  3.48483E-09  3.70647E-09  3.90083E-09  4.03689E-09  4.12800E-09  4.14986E-09  4.10461E-09
   4.06425E-09  4.03678E-09  4.02088E-09  4.04683E-09  4.15853E-09  4.35376E-09  4.61139E-09  4.90905E-09  5.19439E-09  5.44785E-09
   5.68837E-09  5.90182E-09  6.06098E-09  6.15465E-09  6.14065E-09  6.02918E-09  5.92828E-09  5.87678E-09  5.86681E-09  5.87801E-09
   5.88115E-09  5.87717E-09  5.88007E-09  5.87252E-09  5.84660E-09  5.82801E-09  5.81555E-09  5.79515E-09  5.77384E-09  5.76050E-09
   5.75321E-09  5.74983E-09  5.74941E-09  5.75112E-09  5.75445E-09  5.75901E-09  5.76450E-09  5.77066E-09  5.77731E-09  5.78431E-09
   5.79151E-09  5.79883E-09  5.80615E-09  5.81343E-09  5.82062E-09  5.82761E-09  5.83442E-09  5.84103E-09  5.84731E-09  5.85333E-09
   5.85905E-09  5.86442E-09  5.86947E-09  5.87415E-09  5.87850E-09  5.88247E-09  5.88608E-09  5.88929E-09  5.89215E-09  5.89465E-09
   5.89675E-09  5.89849E-09  5.89990E-09  5.90092E-09  5.90158E-09  5.90186E-09  5.90173E-09  5.90119E-09  5.90019E-09  5.89874E-09
   5.89679E-09  5.89434E-09  5.89137E-09  5.88785E-09  5.88377E-09  5.87911E-09  5.87383E-09  5.86794E-09  5.86139E-09  5.85418E-09
   5.84626E-09  5.83765E-09  5.82827E-09  5.81817E-09  5.80727E-09  5.79555E-09  5.78302E-09  5.76964E-09  5.75538E-09  5.74022E-09
   5.72414E-09  5.70711E-09  5.68910E-09  5.67012E-09  5.65009E-09  5.62903E-09  5.60688E-09  5.58366E-09  5.55931E-09  5.53378E-09
   5.50713E-09  5.47924E-09  5.45013E-09  5.41976E-09  5.38811E-09  5.35516E-09  5.32089E-09  5.28526E-09  5.24823E-09  5.20983E-09
   5.16995E-09  5.12863E-09  5.08581E-09  5.04148E-09  4.99562E-09  4.94818E-09  4.89911E-09  4.84847E-09  4.79617E-09  4.74219E-09
   4.68652E-09  4.62911E-09  4.56997E-09  4.50905E-09  4.44633E-09  4.38176E-09  4.31540E-09  4.24713E-09  4.17697E-09  4.10487E-09
   4.03085E-09  3.95486E-09  3.87688E-09  3.79687E-09  3.71484E-09  3.63076E-09  3.54463E-09  3.45650E-09  3.36647E-09  3.27459E-09
   3.18095E-09  3.08563E-09  2.98869E-09  2.89023E-09  2.79033E-09  2.68909E-09  2.58660E-09  2.48297E-09  2.37834E-09  2.27286E-09
   2.16673E-09  2.06026E-09  1.95393E-09  1.84867E-09  1.74658E-09  1.65397E-09  1.60026E-09  1.67781E-09  1.79461E-09  1.88084E-09
   1.90948E-09  1.88114E-09  1.80863E-09  1.70501E-09  1.56727E-09  1.36798E-09  1.07205E-09  6.86969E-10  3.21756E-10  1.37058E-10
  -2.29658E-12 -1.27367E-10 -2.45815E-10 -3.60306E-10 -4.72031E-10 -5.81565E-10 -6.89186E-10 -7.95018E-10 -8.99187E-10 -1.00168E-09
  -1.10247E-09 -1.20157E-09 -1.29891E-09 -1.39447E-09 -1.48814E-09 -1.57991E-09 -1.66972E-09 -1.75747E-09 -1.84310E-09 -1.92658E-09
  -2.00782E-09 -2.08675E-09 -2.16331E-09 -2.23743E-09 -2.30907E-09 -2.37813E-09 -2.44456E-09 -2.50830E-09 -2.56930E-09 -2.62746E-09
  -2.68278E-09 -2.73515E-09 -2.78452E-09 -2.83085E-09 -2.87410E-09 -2.91417E-09 -2.95104E-09 -2.98467E-09 -3.01497E-09 -3.04203E-09
  -3.06590E-09 -3.08667E-09 -3.10439E-09 -3.11916E-09 -3.13103E-09 -3.14010E-09 -3.14643E-09 -3.15011E-09 -3.15120E-09 -3.14978E-09
  -3.14594E-09 -3.13974E-09 -3.13126E-09 -3.12058E-09 -3.10778E-09 -3.09293E-09 -3.07610E-09 -3.05738E-09 -3.03684E-09 -3.01455E-09
  -2.99059E-09 -2.96504E-09 -2.93797E-09 -2.90945E-09 -2.87956E-09 -2.84837E-09 -2.81595E-09 -2.78239E-09 -2.74774E-09 -2.71208E-09
  -2.67550E-09 -2.63803E-09 -2.59979E-09 -2.56080E-09 -2.52115E-09 -2.48093E-09 -2.44017E-09 -2.39896E-09 -2.35735E-09 -2.31541E-09
  -2.27321E-09 -2.23082E-09 -2.18828E-09 -2.14567E-09 -2.10304E-09 -2.06045E-09 -2.01798E-09 -1.97564E-09 -1.93352E-09 -1.89168E-09
  -1.85015E-09 -1.80900E-09 -1.76828E-09 -1.72802E-09 -1.68830E-09 -1.64914E-09 -1.61060E-09 -1.57274E-09 -1.53557E-09 -1.49915E-09
  -1.46353E-09 -1.42873E-09 -1.39481E-09 -1.36178E-09 -1.32970E-09 -1.29859E-09 -1.26850E-09 -1.23942E-09 -1.21141E-09 -1.18450E-09
  -1.15870E-09 -1.13403E-09 -1.11043E-09 -1.08788E-09 -1.06633E-09 -1.04576E-09 -1.02612E-09 -1.00738E-09 -9.89504E-10 -9.72459E-10
  -9.56212E-10 -9.40723E-10 -9.25966E-10 -9.11903E-10 -8.98498E-10 -8.85722E-10 -8.73547E-10 -8.61940E-10 -8.50864E-10 -8.40291E-10
  -8.30195E-10 -8.20540E-10 -8.11307E-10 -8.02455E-10 -7.93966E-10 -7.85806E-10 -7.77954E-10 -7.70376E-10 -7.63053E-10 -7.55958E-10
  -7.49069E-10 -7.42350E-10 -7.35794E-10 -7.29370E-10 -7.23056E-10 -7.16825E-10 -7.10673E-10 -7.04565E-10 -6.98490E-10 -6.92419E-10
  -6.86345E-10 -6.80245E-10 -6.74099E-10 -6.67896E-10 -6.61623E-10 -6.55261E-10 -6.48798E-10 -6.42218E-10 -6.35516E-10 -6.28664E-10
  -6.21672E-10 -6.14514E-10 -6.07191E-10 -5.99691E-10 -5.91995E-10 -5.84117E-10 -5.76035E-10 -5.67752E-10 -5.59255E-10 -5.50548E-10
  -5.41626E-10 -5.32481E-10 -5.23119E-10 -5.13533E-10 -5.03730E-10 -4.93703E-10 -4.83464E-10 -4.73005E-10 -4.62335E-10 -4.51458E-10
  -4.40377E-10 -4.29099E-10 -4.17635E-10
 Gln      Conc. = 1.29E-09
   2.21617E-09  2.43747E-09  2.73710E-09  3.10413E-09  3.50420E-09  3.89818E-09  4.24796E-09  4.52158E-09  4.71593E-09  4.88118E-09
   4.90576E-09  4.83922E-09  4.79464E-09  4.67368E-09  4.58816E-09  4.53729E-09  4.50821E-09  4.49329E-09  4.48804E-09  4.48959E-09
   4.49602E-09  4.50596E-09  4.51844E-09  4.53278E-09  4.54857E-09  4.56543E-09  4.58280E-09  4.60050E-09  4.61832E-09  4.63590E-09
   4.65308E-09  4.66967E-09  4.68554E-09  4.70058E-09  4.71463E-09  4.72762E-09  4.73937E-09  4.74978E-09  4.75871E-09  4.76600E-09
   4.77154E-09  4.77515E-09  4.77677E-09  4.77619E-09  4.77317E-09  4.76749E-09  4.75888E-09  4.74658E-09  4.73055E-09  4.71103E-09
   4.68692E-09  4.65854E-09  4.62835E-09  4.60678E-09  4.65563E-09  4.84208E-09  5.05926E-09  5.34089E-09  5.76662E-09  6.26376E-09
   6.74029E-09  7.19976E-09  7.59546E-09  7.86324E-09  7.95388E-09  7.87062E-09  7.71176E-09  7.50816E-09  7.11481E-09  6.72749E-09
   6.46350E-09  6.29069E-09  6.20739E-09  6.22102E-09  6.35729E-09  6.63298E-09  6.95370E-09  7.30280E-09  7.66048E-09  7.98999E-09
   8.25789E-09  8.41244E-09  8.41113E-09  8.36229E-09  8.25117E-09  7.98997E-09  7.74196E-09  7.54476E-09  7.31102E-09  7.11563E-09
   6.96601E-09  6.84631E-09  6.74736E-09  6.66279E-09  6.58802E-09  6.52117E-09  6.46061E-09  6.40480E-09  6.35291E-09  6.30418E-09
   6.25778E-09  6.21314E-09  6.16989E-09  6.12777E-09  6.08652E-09  6.04590E-09  6.00562E-09  5.96554E-09  5.92548E-09  5.88526E-09
   5.84484E-09  5.80403E-09  5.76276E-09  5.72093E-09  5.67846E-09  5.63527E-09  5.59129E-09  5.54645E-09  5.50066E-09  5.45393E-09
   5.40610E-09  5.35721E-09  5.30715E-09  5.25590E-09  5.20341E-09  5.14962E-09  5.09447E-09  5.03798E-09  4.98006E-09  4.92068E-09
   4.85982E-09  4.79740E-09  4.73343E-09  4.66787E-09  4.60066E-09  4.53176E-09  4.46121E-09  4.38889E-09  4.31483E-09  4.23895E-09
   4.16126E-09  4.08174E-09  4.00034E-09  3.91702E-09  3.83180E-09  3.74463E-09  3.65552E-09  3.56453E-09  3.47173E-09  3.37721E-09
   3.28103E-09  3.18330E-09  3.08409E-09  2.98351E-09  2.88167E-09  2.77867E-09  2.67468E-09  2.56986E-09  2.46444E-09  2.35871E-09
   2.25309E-09  2.14830E-09  2.04549E-09  1.94695E-09  1.85785E-09  1.79308E-09  1.81695E-09  2.19953E-09  2.71313E-09  3.15517E-09
   3.44173E-09  3.56931E-09  3.57138E-09  3.48591E-09  3.31040E-09  2.97487E-09  2.37941E-09  1.52520E-09  6.82467E-10  3.38070E-10
   1.41533E-10 -1.27801E-11 -1.49198E-10 -2.76002E-10 -3.96804E-10 -5.13386E-10 -6.26706E-10 -7.37288E-10 -8.45518E-10 -9.51555E-10
  -1.05549E-09 -1.15742E-09 -1.25734E-09 -1.35526E-09 -1.45113E-09 -1.54496E-09 -1.63670E-09 -1.72627E-09 -1.81364E-09 -1.89877E-09
  -1.98159E-09 -2.06205E-09 -2.14006E-09 -2.21560E-09 -2.28860E-09 -2.35897E-09 -2.42669E-09 -2.49168E-09 -2.55389E-09 -2.61323E-09
  -2.66970E-09 -2.72320E-09 -2.77367E-09 -2.82108E-09 -2.86539E-09 -2.90649E-09 -2.94437E-09 -2.97899E-09 -3.01027E-09 -3.03829E-09
  -3.06309E-09 -3.08478E-09 -3.10341E-09 -3.11907E-09 -3.13182E-09 -3.14176E-09 -3.14894E-09 -3.15346E-09 -3.15537E-09 -3.15477E-09
