 LCModel (Version 6.3-1R) Copyright: S.W. Provencher.          Ref.: Magn. Reson. Med. 30:672-679 (1993).                
 onepulse 14x22_ftSpec_smooth_lcm
 26 lines in following concentration table = NCONC+1
    Conc.  %SD /Cr+PCr  Metabolite                                         
    0.000 999%   0.000 Ala                                                 
    0.000 999%   0.000 Asp                                                 
    0.000 999%   0.000 Cr                                                  
    0.000 999%   0.000 GABA                                                
 5.53E-10 169%   2.189 Glc                                                 
 1.05E-09  91%   4.175 Gln                                                 
 4.02E-10 214%   1.593 Glu                                                 
    0.000 999%   0.000 Glyc                                                
 1.88E-10  58%   0.745 GPC                                                 
    0.000 999%   0.000 GSH                                                 
 1.23E-09  46%   4.855 Ins                                                 
    0.000 999%   0.000 Lac                                                 
 1.23E-10 361%   0.488 NAAG                                                
 4.89E-10 117%   1.937 NAA                                                 
    0.000 999%   0.000 PCh                                                 
 2.52E-10 120%   1.000 PCr                                                 
    0.000 999%   0.000 PE                                                  
 1.65E-10 134%   0.655 Scyllo                                              
 4.30E-09  27%  17.043 Ser                                                 
    0.000 999%   0.000 Tau                                                 
 1.88E-10  58%   0.745 GPC+PCh                                             
 6.12E-10  56%   2.425 NAA+NAAG                                            
 1.23E-09  46%   4.855 Ins+Glyc                                            
 2.52E-10 120%   1.000 Cr+PCr                                              
 1.46E-09  52%   5.768 Glu+Gln                                             
   6 lines in following misc. output table
  FWHM = 0.101 ppm    S/N =   2                                            
  Data shift = 0.369 ppm                                                   
  Ph: -45 deg     -36.3 deg/ppm                                            
  alphaB,S = 7.8E-01,   4.8E+01                                            
    8 spline knots.   Ns = 5(1)                                            
  ( 8) 2 infls.   ( 5) 1 extrs.                                            
  363 points on ppm-axis = NY
      4.250000     4.238821     4.227641     4.216462     4.205282     4.194103     4.182923     4.171744     4.160564     4.149385
      4.138206     4.127026     4.115847     4.104667     4.093488     4.082308     4.071129     4.059949     4.048770     4.037591
      4.026411     4.015232     4.004052     3.992873     3.981693     3.970514     3.959334     3.948155     3.936975     3.925796
      3.914617     3.903437     3.892258     3.881078     3.869899     3.858719     3.847540     3.836360     3.825181     3.814002
      3.802822     3.791643     3.780463     3.769284     3.758104     3.746925     3.735745     3.724566     3.713387     3.702207
      3.691028     3.679848     3.668669     3.657489     3.646310     3.635130     3.623951     3.612772     3.601592     3.590413
      3.579233     3.568054     3.556874     3.545695     3.534515     3.523336     3.512156     3.500977     3.489798     3.478618
      3.467439     3.456259     3.445080     3.433900     3.422721     3.411541     3.400362     3.389183     3.378003     3.366824
      3.355644     3.344465     3.333285     3.322106     3.310926     3.299747     3.288568     3.277388     3.266209     3.255029
      3.243850     3.232670     3.221491     3.210311     3.199132     3.187953     3.176773     3.165594     3.154414     3.143235
      3.132055     3.120876     3.109696     3.098517     3.087337     3.076158     3.064979     3.053799     3.042620     3.031440
      3.020261     3.009081     2.997902     2.986722     2.975543     2.964364     2.953184     2.942005     2.930825     2.919646
      2.908466     2.897287     2.886107     2.874928     2.863749     2.852569     2.841390     2.830210     2.819031     2.807851
      2.796672     2.785492     2.774313     2.763134     2.751954     2.740775     2.729595     2.718416     2.707236     2.696057
      2.684877     2.673698     2.662519     2.651339     2.640160     2.628980     2.617801     2.606621     2.595442     2.584262
      2.573083     2.561903     2.550724     2.539545     2.528365     2.517186     2.506006     2.494827     2.483647     2.472468
      2.461288     2.450109     2.438930     2.427750     2.416571     2.405391     2.394212     2.383032     2.371853     2.360673
      2.349494     2.338315     2.327135     2.315956     2.304776     2.293597     2.282417     2.271238     2.260058     2.248879
      2.237700     2.226520     2.215341     2.204161     2.192982     2.181802     2.170623     2.159443     2.148264     2.137084
      2.125905     2.114726     2.103546     2.092367     2.081187     2.070008     2.058828     2.047649     2.036469     2.025290
      2.014111     2.002931     1.991752     1.980572     1.969393     1.958213     1.947034     1.935854     1.924675     1.913496
      1.902316     1.891137     1.879957     1.868778     1.857598     1.846419     1.835239     1.824060     1.812881     1.801701
      1.790522     1.779342     1.768163     1.756983     1.745804     1.734624     1.723445     1.712265     1.701086     1.689907
      1.678727     1.667548     1.656368     1.645189     1.634009     1.622830     1.611650     1.600471     1.589292     1.578112
      1.566933     1.555753     1.544574     1.533394     1.522215     1.511035     1.499856     1.488677     1.477497     1.466318
      1.455138     1.443959     1.432779     1.421600     1.410420     1.399241     1.388062     1.376882     1.365703     1.354523
      1.343344     1.332164     1.320985     1.309805     1.298626     1.287446     1.276267     1.265088     1.253908     1.242729
      1.231549     1.220370     1.209190     1.198011     1.186831     1.175652     1.164473     1.153293     1.142114     1.130934
      1.119755     1.108575     1.097396     1.086216     1.075037     1.063858     1.052678     1.041499     1.030319     1.019140
      1.007960     0.996781     0.985601     0.974422     0.963243     0.952063     0.940884     0.929704     0.918525     0.907345
      0.896166     0.884986     0.873807     0.862628     0.851448     0.840269     0.829089     0.817910     0.806730     0.795551
      0.784371     0.773192     0.762012     0.750833     0.739654     0.728474     0.717295     0.706115     0.694936     0.683756
      0.672577     0.661397     0.650218     0.639039     0.627859     0.616680     0.605500     0.594321     0.583141     0.571962
      0.560782     0.549603     0.538424     0.527244     0.516065     0.504885     0.493706     0.482526     0.471347     0.460167
      0.448988     0.437809     0.426629     0.415450     0.404270     0.393091     0.381911     0.370732     0.359552     0.348373
      0.337193     0.326014     0.314835     0.303655     0.292476     0.281296     0.270117     0.258937     0.247758     0.236578
      0.225399     0.214220     0.203040
 NY phased data points follow
   1.26144E-08  1.22552E-08  1.30258E-08  1.22450E-08  1.18591E-08  1.11831E-08  1.15314E-08  1.05331E-08  1.08834E-08  1.02528E-08
   1.11233E-08  1.02719E-08  1.13453E-08  1.08408E-08  1.18140E-08  1.11691E-08  1.23660E-08  1.10584E-08  1.16841E-08  1.10516E-08
   1.15846E-08  1.04951E-08  1.11886E-08  1.03694E-08  1.22334E-08  1.05490E-08  1.21091E-08  1.11036E-08  1.12131E-08  1.03048E-08
   1.20609E-08  1.20144E-08  1.33359E-08  1.39459E-08  1.34982E-08  1.26068E-08  1.25705E-08  1.12786E-08  1.14910E-08  1.04966E-08
   1.13041E-08  1.00445E-08  1.02773E-08  9.90355E-09  9.54307E-09  8.98086E-09  8.71938E-09  7.76178E-09  8.48713E-09  8.10190E-09
   7.96678E-09  7.67688E-09  7.82214E-09  7.21934E-09  7.66622E-09  7.06242E-09  6.98637E-09  6.24633E-09  7.17359E-09  6.38763E-09
   7.43951E-09  7.76086E-09  1.05259E-08  1.04357E-08  1.14352E-08  1.09113E-08  1.17007E-08  1.05321E-08  1.01282E-08  8.91413E-09
   8.59977E-09  7.82924E-09  8.15139E-09  6.72228E-09  6.67981E-09  6.81347E-09  7.23931E-09  7.95505E-09  9.74272E-09  1.16746E-08
   1.36656E-08  1.43722E-08  1.40666E-08  1.35527E-08  1.34253E-08  1.30672E-08  1.31683E-08  1.19840E-08  1.21540E-08  1.16676E-08
   1.18760E-08  1.15712E-08  1.11330E-08  9.94248E-09  1.04901E-08  9.87412E-09  1.00416E-08  8.71682E-09  8.87248E-09  9.15578E-09
   8.69336E-09  8.15336E-09  8.97757E-09  7.78445E-09  8.46766E-09  7.50805E-09  7.76578E-09  6.57537E-09  6.86531E-09  6.13171E-09
   5.58694E-09  5.49728E-09  5.50632E-09  5.48265E-09  6.26060E-09  5.56660E-09  6.33495E-09  5.68214E-09  5.73337E-09  5.96831E-09
   6.50116E-09  5.48018E-09  5.83947E-09  5.02742E-09  4.98810E-09  3.99479E-09  4.29283E-09  4.58623E-09  4.43748E-09  4.02504E-09
   4.30923E-09  3.78044E-09  5.10278E-09  4.03577E-09  4.11477E-09  4.48998E-09  4.31106E-09  4.20030E-09  4.68568E-09  5.60467E-09
   5.82601E-09  5.82628E-09  6.23894E-09  6.19388E-09  6.96684E-09  6.90232E-09  7.30700E-09  7.04874E-09  7.70674E-09  7.24221E-09
   7.50118E-09  7.71448E-09  7.49770E-09  6.99582E-09  7.10523E-09  7.21289E-09  7.25867E-09  7.24669E-09  7.51031E-09  7.65888E-09
   8.02142E-09  7.20707E-09  7.28385E-09  7.30282E-09  7.35532E-09  7.23886E-09  8.35574E-09  9.67873E-09  1.15317E-08  1.31631E-08
   1.62019E-08  1.73780E-08  1.80330E-08  1.70149E-08  1.68765E-08  1.55116E-08  1.54418E-08  1.34343E-08  1.37671E-08  1.27332E-08
   1.30864E-08  1.11877E-08  1.09462E-08  9.88841E-09  9.24000E-09  7.65053E-09  7.28545E-09  5.18411E-09  4.39334E-09  2.39662E-09
   7.11728E-10 -1.04161E-09 -3.38203E-09 -5.50262E-09 -7.76511E-09 -1.04750E-08 -1.24111E-08 -1.46956E-08 -1.58638E-08 -1.80902E-08
  -1.83880E-08 -1.91810E-08 -1.97088E-08 -1.97863E-08 -1.80516E-08 -1.78458E-08 -1.54043E-08 -1.38471E-08 -1.18275E-08 -9.94828E-09
  -7.60233E-09 -6.22652E-09 -4.21181E-09 -2.92155E-09 -2.06802E-09 -2.91369E-09 -1.83465E-09 -2.13779E-09 -1.86550E-09 -2.96840E-09
  -2.47778E-09 -2.90894E-09 -2.39892E-09 -2.51074E-09 -1.95896E-09 -1.59635E-09 -1.66248E-09 -1.51062E-09 -1.21296E-09 -2.31647E-09
  -2.27056E-09 -2.56550E-09 -2.34731E-09 -2.22197E-09 -1.46127E-09 -1.65307E-09 -1.26111E-09 -1.19776E-09 -1.40472E-09 -1.07457E-09
  -1.34753E-09 -2.01636E-09 -1.70976E-09 -1.89960E-09 -1.62783E-09 -2.13877E-09 -1.65173E-09 -1.61028E-09 -7.92875E-10 -1.09773E-09
  -8.04866E-10 -4.82043E-10 -2.64189E-10 -9.92153E-10 -2.71319E-10 -1.10841E-09 -1.09478E-09 -1.07681E-09 -1.15466E-09 -1.82468E-09
  -1.35409E-09 -1.88134E-09 -2.07011E-09 -1.87437E-09 -1.39643E-09 -1.65096E-09 -9.68425E-10 -1.00168E-09 -1.06490E-09 -7.74757E-10
  -7.20364E-10 -6.85671E-10  2.04477E-10 -4.42253E-10  3.43109E-10 -1.69550E-10 -8.54361E-11 -8.73503E-11 -2.08205E-10 -2.47886E-10
  -4.92797E-11 -7.56358E-10 -5.75142E-10 -7.91313E-10 -2.00025E-10 -7.26561E-10 -6.87326E-10 -8.39690E-10 -7.46255E-10 -1.23705E-09
  -1.08881E-09 -1.04011E-09 -1.49836E-09 -1.17114E-09 -9.44997E-10 -1.39086E-09 -1.46749E-09 -1.19382E-09 -1.75030E-09 -1.65894E-09
  -1.02775E-09 -1.69156E-09 -1.47026E-09 -1.79850E-09 -1.12190E-09 -1.74318E-09 -1.11926E-09 -1.72404E-09 -8.82327E-10 -1.36124E-09
  -1.28873E-09 -1.65253E-09 -1.17559E-09 -1.51916E-09 -8.67202E-10 -1.88953E-09 -9.73421E-10 -1.07990E-09 -1.24172E-09 -7.60181E-10
  -1.10456E-09 -1.29389E-09 -9.49474E-10 -5.53004E-10 -6.11910E-10 -1.30313E-09 -9.18622E-10 -1.04706E-09 -6.41608E-10 -1.00578E-09
  -7.59754E-10 -8.00160E-10 -1.07404E-09 -7.83841E-10 -2.30546E-10 -6.11454E-10 -2.86462E-10 -5.32397E-10 -2.73016E-10 -8.74585E-10
   2.43593E-10 -6.94149E-10 -2.11052E-10 -1.09206E-10  1.38402E-10 -7.83434E-12 -3.52877E-11 -5.36502E-10 -2.09665E-10  1.65174E-10
  -1.17837E-10  2.84819E-11  1.91821E-10 -1.37837E-10 -1.93972E-10 -7.83847E-11  1.50565E-10  1.22942E-10  3.41130E-10  1.13334E-10
   5.54389E-10  6.62971E-10  4.10926E-10
 NY points of the fit to the data follow
   1.13246E-08  1.23952E-08  1.24371E-08  1.21803E-08  1.23860E-08  1.25563E-08  1.21671E-08  1.13007E-08  1.04315E-08  1.00050E-08
   9.99312E-09  1.02067E-08  1.05724E-08  1.10076E-08  1.14657E-08  1.17349E-08  1.18179E-08  1.19084E-08  1.18746E-08  1.14358E-08
   1.09519E-08  1.06392E-08  1.03754E-08  1.01159E-08  1.01845E-08  1.05941E-08  1.12078E-08  1.17880E-08  1.21081E-08  1.21837E-08
   1.23976E-08  1.25991E-08  1.27840E-08  1.27501E-08  1.23262E-08  1.16945E-08  1.13114E-08  1.10667E-08  1.09089E-08  1.08022E-08
   1.06732E-08  1.04220E-08  9.97694E-09  9.45285E-09  9.11797E-09  8.88099E-09  8.68642E-09  8.50661E-09  8.33439E-09  8.18697E-09
   8.05816E-09  7.94905E-09  7.85620E-09  7.76071E-09  7.70237E-09  7.74956E-09  7.83834E-09  8.01654E-09  8.33320E-09  8.71728E-09
   9.07043E-09  9.39288E-09  9.72353E-09  1.00244E-08  1.02365E-08  1.03269E-08  1.03114E-08  1.01697E-08  9.83317E-09  9.45931E-09
   9.15846E-09  8.91336E-09  8.67222E-09  8.44450E-09  8.35926E-09  8.39731E-09  8.58177E-09  9.20166E-09  1.02020E-08  1.13179E-08
   1.23512E-08  1.31711E-08  1.37352E-08  1.41456E-08  1.43563E-08  1.42184E-08  1.37051E-08  1.27947E-08  1.16645E-08  1.08595E-08
   1.03545E-08  9.98468E-09  9.69418E-09  9.45115E-09  9.24348E-09  9.06179E-09  8.89923E-09  8.75250E-09  8.61689E-09  8.48990E-09
   8.37279E-09  8.26419E-09  8.16066E-09  8.06095E-09  7.96571E-09  7.87432E-09  7.78604E-09  7.70034E-09  7.61670E-09  7.53473E-09
   7.45424E-09  7.37485E-09  7.29635E-09  7.21854E-09  7.14121E-09  7.06422E-09  6.98740E-09  6.91061E-09  6.83372E-09  6.75666E-09
   6.67923E-09  6.60143E-09  6.52312E-09  6.44423E-09  6.36469E-09  6.28441E-09  6.20331E-09  6.12138E-09  6.03851E-09  5.95466E-09
   5.86979E-09  5.78381E-09  5.69672E-09  5.60845E-09  5.51897E-09  5.42819E-09  5.33617E-09  5.24278E-09  5.14804E-09  5.05188E-09
   4.95432E-09  4.85531E-09  4.75483E-09  4.65284E-09  4.54937E-09  4.44439E-09  4.33792E-09  4.23005E-09  4.12087E-09  4.01049E-09
   3.89906E-09  3.78672E-09  3.67364E-09  3.56007E-09  3.44627E-09  3.33264E-09  3.21966E-09  3.10802E-09  2.99873E-09  2.89327E-09
   2.79400E-09  2.70487E-09  2.63299E-09  2.59255E-09  2.61623E-09  2.79882E-09  3.55125E-09  6.52016E-09  1.04940E-08  1.41434E-08
   1.68850E-08  1.86216E-08  1.94986E-08  1.96668E-08  1.90515E-08  1.72451E-08  1.37772E-08  8.80877E-09  4.01818E-09  2.19190E-09
   1.46246E-09  1.03396E-09  7.28347E-10  4.85498E-10  2.79366E-10  9.68250E-11 -6.94378E-11 -2.23794E-10 -3.69101E-10 -5.07167E-10
  -6.39228E-10 -7.66213E-10 -8.88720E-10 -1.00722E-09 -1.12199E-09 -1.23333E-09 -1.34141E-09 -1.44630E-09 -1.54813E-09 -1.64698E-09
  -1.74287E-09 -1.83581E-09 -1.92581E-09 -2.01288E-09 -2.09702E-09 -2.17818E-09 -2.25636E-09 -2.33154E-09 -2.40369E-09 -2.47273E-09
  -2.53871E-09 -2.60153E-09 -2.66116E-09 -2.71760E-09 -2.77080E-09 -2.82069E-09 -2.86726E-09 -2.91050E-09 -2.95033E-09 -2.98682E-09
  -3.02003E-09 -3.05005E-09 -3.07693E-09 -3.10076E-09 -3.12158E-09 -3.13950E-09 -3.15456E-09 -3.16684E-09 -3.17642E-09 -3.18335E-09
  -3.18772E-09 -3.18960E-09 -3.18905E-09 -3.18614E-09 -3.18095E-09 -3.17354E-09 -3.16399E-09 -3.15237E-09 -3.13874E-09 -3.12318E-09
  -3.10575E-09 -3.08653E-09 -3.06559E-09 -3.04299E-09 -3.01880E-09 -2.99309E-09 -2.96593E-09 -2.93739E-09 -2.90754E-09 -2.87643E-09
  -2.84415E-09 -2.81074E-09 -2.77630E-09 -2.74086E-09 -2.70450E-09 -2.66730E-09 -2.62930E-09 -2.59057E-09 -2.55117E-09 -2.51117E-09
  -2.47062E-09 -2.42960E-09 -2.38815E-09 -2.34634E-09 -2.30421E-09 -2.26183E-09 -2.21927E-09 -2.17656E-09 -2.13377E-09 -2.09096E-09
  -2.04816E-09 -2.00543E-09 -1.96284E-09 -1.92041E-09 -1.87821E-09 -1.83628E-09 -1.79467E-09 -1.75342E-09 -1.71257E-09 -1.67218E-09
  -1.63228E-09 -1.59291E-09 -1.55412E-09 -1.51593E-09 -1.47839E-09 -1.44154E-09 -1.40541E-09 -1.37001E-09 -1.33540E-09 -1.30161E-09
  -1.26866E-09 -1.23656E-09 -1.20530E-09 -1.17486E-09 -1.14523E-09 -1.11641E-09 -1.08836E-09 -1.06108E-09 -1.03456E-09 -1.00878E-09
  -9.83729E-10 -9.59395E-10 -9.35768E-10 -9.12832E-10 -8.90572E-10 -8.68980E-10 -8.48045E-10 -8.27756E-10 -8.08095E-10 -7.89055E-10
  -7.70626E-10 -7.52793E-10 -7.35554E-10 -7.18889E-10 -7.02794E-10 -6.87256E-10 -6.72270E-10 -6.57820E-10 -6.43903E-10 -6.30510E-10
  -6.17632E-10 -6.05253E-10 -5.93377E-10 -5.81993E-10 -5.71090E-10 -5.60660E-10 -5.50708E-10 -5.41217E-10 -5.32187E-10 -5.23605E-10
  -5.15475E-10 -5.07786E-10 -5.00532E-10 -4.93713E-10 -4.87326E-10 -4.81365E-10 -4.75828E-10 -4.70708E-10 -4.66012E-10 -4.61723E-10
  -4.57856E-10 -4.54397E-10 -4.51354E-10 -4.48721E-10 -4.46493E-10 -4.44684E-10 -4.43282E-10 -4.42296E-10 -4.41719E-10 -4.41560E-10
  -4.41818E-10 -4.42494E-10 -4.43593E-10 -4.45116E-10 -4.47070E-10 -4.49454E-10 -4.52280E-10 -4.55544E-10 -4.59255E-10 -4.63419E-10
  -4.68040E-10 -4.73126E-10 -4.78685E-10
 NY background values follow
     2.418E-09    2.507E-09    2.595E-09    2.682E-09    2.767E-09    2.851E-09    2.935E-09    3.017E-09    3.098E-09    3.177E-09
     3.256E-09    3.333E-09    3.409E-09    3.484E-09    3.558E-09    3.631E-09    3.702E-09    3.773E-09    3.842E-09    3.909E-09
     3.976E-09    4.042E-09    4.106E-09    4.169E-09    4.231E-09    4.292E-09    4.351E-09    4.410E-09    4.467E-09    4.523E-09
     4.578E-09    4.632E-09    4.684E-09    4.736E-09    4.786E-09    4.835E-09    4.883E-09    4.930E-09    4.975E-09    5.020E-09
     5.063E-09    5.105E-09    5.147E-09    5.187E-09    5.226E-09    5.263E-09    5.300E-09    5.336E-09    5.370E-09    5.404E-09
     5.436E-09    5.468E-09    5.498E-09    5.527E-09    5.556E-09    5.583E-09    5.609E-09    5.635E-09    5.659E-09    5.682E-09
     5.705E-09    5.726E-09    5.747E-09    5.766E-09    5.785E-09    5.803E-09    5.820E-09    5.836E-09    5.851E-09    5.865E-09
     5.879E-09    5.891E-09    5.903E-09    5.914E-09    5.924E-09    5.933E-09    5.942E-09    5.949E-09    5.956E-09    5.962E-09
     5.967E-09    5.972E-09    5.975E-09    5.978E-09    5.979E-09    5.980E-09    5.980E-09    5.978E-09    5.976E-09    5.973E-09
     5.969E-09    5.964E-09    5.958E-09    5.951E-09    5.942E-09    5.933E-09    5.923E-09    5.911E-09    5.899E-09    5.885E-09
     5.871E-09    5.855E-09    5.837E-09    5.819E-09    5.800E-09    5.779E-09    5.757E-09    5.734E-09    5.709E-09    5.683E-09
     5.656E-09    5.627E-09    5.598E-09    5.566E-09    5.534E-09    5.499E-09    5.464E-09    5.427E-09    5.388E-09    5.348E-09
     5.307E-09    5.264E-09    5.219E-09    5.173E-09    5.125E-09    5.076E-09    5.025E-09    4.972E-09    4.918E-09    4.862E-09
     4.804E-09    4.744E-09    4.683E-09    4.620E-09    4.555E-09    4.488E-09    4.420E-09    4.350E-09    4.277E-09    4.203E-09
     4.127E-09    4.050E-09    3.970E-09    3.888E-09    3.804E-09    3.719E-09    3.631E-09    3.541E-09    3.450E-09    3.357E-09
     3.262E-09    3.165E-09    3.067E-09    2.968E-09    2.867E-09    2.765E-09    2.661E-09    2.556E-09    2.451E-09    2.344E-09
     2.236E-09    2.127E-09    2.018E-09    1.908E-09    1.797E-09    1.686E-09    1.574E-09    1.462E-09    1.349E-09    1.236E-09
     1.123E-09    1.010E-09    8.974E-10    7.846E-10    6.719E-10    5.595E-10    4.474E-10    3.357E-10    2.246E-10    1.140E-10
     4.141E-12   -1.050E-10   -2.133E-10   -3.207E-10   -4.272E-10   -5.325E-10   -6.367E-10   -7.397E-10   -8.414E-10   -9.417E-10
    -1.041E-09   -1.138E-09   -1.234E-09   -1.328E-09   -1.420E-09   -1.510E-09   -1.599E-09   -1.685E-09   -1.770E-09   -1.852E-09
    -1.932E-09   -2.010E-09   -2.086E-09   -2.159E-09   -2.230E-09   -2.298E-09   -2.364E-09   -2.427E-09   -2.488E-09   -2.545E-09
    -2.600E-09   -2.652E-09   -2.701E-09   -2.747E-09   -2.790E-09   -2.830E-09   -2.867E-09   -2.901E-09   -2.931E-09   -2.958E-09
    -2.982E-09   -3.004E-09   -3.022E-09   -3.037E-09   -3.049E-09   -3.059E-09   -3.066E-09   -3.070E-09   -3.072E-09   -3.071E-09
    -3.067E-09   -3.061E-09   -3.053E-09   -3.043E-09   -3.030E-09   -3.016E-09   -2.999E-09   -2.980E-09   -2.960E-09   -2.937E-09
    -2.913E-09   -2.887E-09   -2.860E-09   -2.830E-09   -2.800E-09   -2.767E-09   -2.734E-09   -2.699E-09   -2.663E-09   -2.626E-09
    -2.587E-09   -2.548E-09   -2.508E-09   -2.466E-09   -2.424E-09   -2.381E-09   -2.337E-09   -2.293E-09   -2.248E-09   -2.203E-09
    -2.157E-09   -2.110E-09   -2.063E-09   -2.016E-09   -1.969E-09   -1.921E-09   -1.874E-09   -1.826E-09   -1.778E-09   -1.730E-09
    -1.682E-09   -1.635E-09   -1.587E-09   -1.540E-09   -1.493E-09   -1.447E-09   -1.400E-09   -1.355E-09   -1.309E-09   -1.264E-09
    -1.220E-09   -1.176E-09   -1.133E-09   -1.090E-09   -1.049E-09   -1.007E-09   -9.672E-10   -9.276E-10   -8.889E-10   -8.510E-10
    -8.140E-10   -7.779E-10   -7.427E-10   -7.084E-10   -6.749E-10   -6.422E-10   -6.104E-10   -5.793E-10   -5.491E-10   -5.196E-10
    -4.909E-10   -4.630E-10   -4.358E-10   -4.093E-10   -3.836E-10   -3.585E-10   -3.342E-10   -3.105E-10   -2.875E-10   -2.651E-10
    -2.434E-10   -2.223E-10   -2.019E-10   -1.820E-10   -1.628E-10   -1.441E-10   -1.261E-10   -1.086E-10   -9.165E-11   -7.528E-11
    -5.946E-11   -4.417E-11   -2.941E-11   -1.518E-11   -1.467E-12    1.174E-11    2.445E-11    3.666E-11    4.837E-11    5.961E-11
     7.037E-11    8.065E-11    9.046E-11    9.982E-11    1.087E-10    1.171E-10    1.251E-10    1.326E-10    1.397E-10    1.464E-10
     1.525E-10    1.583E-10    1.636E-10    1.685E-10    1.729E-10    1.769E-10    1.804E-10    1.835E-10    1.862E-10    1.884E-10
     1.902E-10    1.915E-10    1.924E-10    1.928E-10    1.928E-10    1.923E-10    1.913E-10    1.899E-10    1.880E-10    1.856E-10
     1.828E-10    1.794E-10    1.755E-10
 Glc      Conc. = 5.53E-10
   1.74342E-09  2.02789E-09  2.31764E-09  2.62063E-09  2.90148E-09  3.15054E-09  3.33133E-09  3.45429E-09  3.49777E-09  3.46101E-09
   3.42397E-09  3.39851E-09  3.38291E-09  3.40843E-09  3.52763E-09  3.74629E-09  4.04518E-09  4.40122E-09  4.75561E-09  5.08139E-09
   5.39551E-09  5.67670E-09  5.88966E-09  6.02008E-09  6.02649E-09  5.92154E-09  5.82155E-09  5.77572E-09  5.77661E-09  5.80208E-09
   5.81980E-09  5.82876E-09  5.84405E-09  5.84773E-09  5.83058E-09  5.81924E-09  5.81423E-09  5.80058E-09  5.78509E-09  5.77821E-09
   5.77807E-09  5.78235E-09  5.78996E-09  5.79996E-09  5.81178E-09  5.82495E-09  5.83914E-09  5.85402E-09  5.86939E-09  5.88509E-09
   5.90093E-09  5.91681E-09  5.93260E-09  5.94823E-09  5.96365E-09  5.97874E-09  5.99348E-09  6.00787E-09  6.02174E-09  6.03519E-09
   6.04815E-09  6.06055E-09  6.07244E-09  6.08375E-09  6.09452E-09  6.10468E-09  6.11425E-09  6.12321E-09  6.13157E-09  6.13933E-09
   6.14646E-09  6.15297E-09  6.15891E-09  6.16419E-09  6.16887E-09  6.17292E-09  6.17630E-09  6.17902E-09  6.18105E-09  6.18238E-09
   6.18297E-09  6.18283E-09  6.18193E-09  6.18025E-09  6.17779E-09  6.17452E-09  6.17042E-09  6.16548E-09  6.15969E-09  6.15301E-09
   6.14543E-09  6.13695E-09  6.12752E-09  6.11717E-09  6.10583E-09  6.09350E-09  6.08017E-09  6.06581E-09  6.05041E-09  6.03395E-09
   6.01640E-09  5.99776E-09  5.97798E-09  5.95709E-09  5.93501E-09  5.91175E-09  5.88729E-09  5.86163E-09  5.83472E-09  5.80651E-09
   5.77707E-09  5.74630E-09  5.71420E-09  5.68075E-09  5.64594E-09  5.60974E-09  5.57214E-09  5.53312E-09  5.49263E-09  5.45071E-09
   5.40725E-09  5.36231E-09  5.31582E-09  5.26780E-09  5.21820E-09  5.16700E-09  5.11417E-09  5.05974E-09  5.00364E-09  4.94587E-09
   4.88641E-09  4.82521E-09  4.76231E-09  4.69766E-09  4.63123E-09  4.56298E-09  4.49299E-09  4.42114E-09  4.34745E-09  4.27188E-09
   4.19445E-09  4.11513E-09  4.03390E-09  3.95072E-09  3.86562E-09  3.77856E-09  3.68955E-09  3.59865E-09  3.50593E-09  3.41148E-09
   3.31534E-09  3.21763E-09  3.11838E-09  3.01771E-09  2.91568E-09  2.81239E-09  2.70795E-09  2.60245E-09  2.49605E-09  2.38889E-09
   2.28118E-09  2.17328E-09  2.06570E-09  1.95948E-09  1.85697E-09  1.76532E-09  1.71797E-09  1.82249E-09  1.97565E-09  2.09828E-09
   2.15965E-09  2.15722E-09  2.10182E-09  2.00231E-09  1.85119E-09  1.61959E-09  1.27860E-09  8.47525E-10  4.49578E-10  2.53640E-10
   1.09112E-10 -1.90671E-11 -1.39647E-10 -2.55711E-10 -3.68656E-10 -4.79166E-10 -5.87587E-10 -6.94081E-10 -7.98809E-10 -9.01779E-10
  -1.00297E-09 -1.10242E-09 -1.20007E-09 -1.29590E-09 -1.38981E-09 -1.48179E-09 -1.57179E-09 -1.65971E-09 -1.74552E-09 -1.82916E-09
  -1.91057E-09 -1.98967E-09 -2.06641E-09 -2.14072E-09 -2.21257E-09 -2.28185E-09 -2.34853E-09 -2.41256E-09 -2.47388E-09 -2.53239E-09
  -2.58810E-09 -2.64091E-09 -2.69078E-09 -2.73766E-09 -2.78152E-09 -2.82226E-09 -2.85987E-09 -2.89431E-09 -2.92551E-09 -2.95354E-09
  -2.97844E-09 -3.00028E-09 -3.01913E-09 -3.03504E-09 -3.04809E-09 -3.05834E-09 -3.06586E-09 -3.07071E-09 -3.07296E-09 -3.07268E-09
  -3.06993E-09 -3.06479E-09 -3.05731E-09 -3.04757E-09 -3.03563E-09 -3.02157E-09 -3.00545E-09 -2.98733E-09 -2.96730E-09 -2.94540E-09
  -2.92172E-09 -2.89632E-09 -2.86927E-09 -2.84064E-09 -2.81048E-09 -2.77887E-09 -2.74589E-09 -2.71158E-09 -2.67603E-09 -2.63928E-09
  -2.60143E-09 -2.56251E-09 -2.52263E-09 -2.48179E-09 -2.44009E-09 -2.39762E-09 -2.35439E-09 -2.31050E-09 -2.26599E-09 -2.22093E-09
  -2.17537E-09 -2.12940E-09 -2.08305E-09 -2.03638E-09 -1.98945E-09 -1.94233E-09 -1.89506E-09 -1.84770E-09 -1.80030E-09 -1.75292E-09
  -1.70561E-09 -1.65841E-09 -1.61140E-09 -1.56459E-09 -1.51806E-09 -1.47183E-09 -1.42597E-09 -1.38052E-09 -1.33551E-09 -1.29099E-09
  -1.24702E-09 -1.20361E-09 -1.16082E-09 -1.11867E-09 -1.07722E-09 -1.03648E-09 -9.96513E-10 -9.57314E-10 -9.18949E-10 -8.81433E-10
  -8.44788E-10 -8.09041E-10 -7.74166E-10 -7.40154E-10 -7.06986E-10 -6.74657E-10 -6.43140E-10 -6.12431E-10 -5.82512E-10 -5.53370E-10
  -5.24995E-10 -4.97368E-10 -4.70482E-10 -4.44321E-10 -4.18870E-10 -3.94119E-10 -3.70060E-10 -3.46679E-10 -3.23959E-10 -3.01892E-10
  -2.80469E-10 -2.59674E-10 -2.39505E-10 -2.19941E-10 -2.00979E-10 -1.82605E-10 -1.64814E-10 -1.47590E-10 -1.30930E-10 -1.14823E-10
  -9.92623E-11 -8.42306E-11 -6.97327E-11 -5.57557E-11 -4.22897E-11 -2.93257E-11 -1.68689E-11 -4.90196E-12  6.57475E-12  1.75748E-11
   2.80948E-11  3.81447E-11  4.77311E-11  5.68552E-11  6.55183E-11  7.37284E-11  8.14859E-11  8.87980E-11  9.56600E-11  1.02087E-10
   1.08065E-10  1.13608E-10  1.18709E-10  1.23371E-10  1.27603E-10  1.31389E-10  1.34742E-10  1.37652E-10  1.40126E-10  1.42156E-10
   1.43743E-10  1.44886E-10  1.45580E-10  1.45824E-10  1.45612E-10  1.44944E-10  1.43809E-10  1.42210E-10  1.40139E-10  1.37589E-10
   1.34558E-10  1.31037E-10  1.27018E-10
 Gln      Conc. = 1.05E-09
   1.51610E-09  1.71675E-09  1.98432E-09  2.31180E-09  2.67142E-09  3.03155E-09  3.35976E-09  3.62775E-09  3.82958E-09  4.00218E-09
   4.06056E-09  4.05174E-09  4.05051E-09  3.98962E-09  3.95471E-09  3.94488E-09  3.95103E-09  3.96762E-09  3.99127E-09  4.01981E-09
   4.05175E-09  4.08605E-09  4.12194E-09  4.15891E-09  4.19661E-09  4.23476E-09  4.27291E-09  4.31091E-09  4.34858E-09  4.38563E-09
   4.42194E-09  4.45735E-09  4.49174E-09  4.52501E-09  4.55705E-09  4.58777E-09  4.61702E-09  4.64472E-09  4.67075E-09  4.69494E-09
   4.71720E-09  4.73737E-09  4.75536E-09  4.77099E-09  4.78403E-09  4.79425E-09  4.80139E-09  4.80473E-09  4.80417E-09  4.79969E-09
   4.79023E-09  4.77573E-09  4.75773E-09  4.74420E-09  4.78808E-09  4.94140E-09  5.11892E-09  5.35730E-09  5.71691E-09  6.13733E-09
   6.54923E-09  6.94962E-09  7.29637E-09  7.53678E-09  7.63246E-09  7.58511E-09  7.47068E-09  7.30615E-09  6.99304E-09  6.69285E-09
   6.48079E-09  6.33811E-09  6.27272E-09  6.28251E-09  6.39627E-09  6.62374E-09  6.89138E-09  7.18818E-09  7.49505E-09  7.77937E-09
   8.01202E-09  8.14953E-09  8.16306E-09  8.13368E-09  8.04458E-09  7.83800E-09  7.64532E-09  7.48419E-09  7.29681E-09  7.14164E-09
   7.02117E-09  6.92368E-09  6.84217E-09  6.77169E-09  6.70876E-09  6.65186E-09  6.59970E-09  6.55107E-09  6.50528E-09  6.46171E-09
   6.41970E-09  6.37880E-09  6.33871E-09  6.29924E-09  6.26014E-09  6.22122E-09  6.18227E-09  6.14315E-09  6.10373E-09  6.06384E-09
   6.02348E-09  5.98247E-09  5.94076E-09  5.89827E-09  5.85494E-09  5.81070E-09  5.76549E-09  5.71926E-09  5.67194E-09  5.62353E-09
   5.57389E-09  5.52308E-09  5.47099E-09  5.41762E-09  5.36292E-09  5.30683E-09  5.24932E-09  5.19041E-09  5.13002E-09  5.06812E-09
   5.00470E-09  4.93970E-09  4.87314E-09  4.80496E-09  4.73513E-09  4.66361E-09  4.59045E-09  4.51554E-09  4.43892E-09  4.36050E-09
   4.28032E-09  4.19833E-09  4.11453E-09  4.02886E-09  3.94135E-09  3.85196E-09  3.76070E-09  3.66763E-09  3.57281E-09  3.47633E-09
   3.37825E-09  3.27867E-09  3.17764E-09  3.07527E-09  2.97165E-09  2.86689E-09  2.76111E-09  2.65445E-09  2.54711E-09  2.43932E-09
   2.33142E-09  2.22398E-09  2.11791E-09  2.01508E-09  1.91971E-09  1.84436E-09  1.84568E-09  2.13779E-09  2.53186E-09  2.87221E-09
   3.09656E-09  3.19822E-09  3.19741E-09  3.11210E-09  2.92991E-09  2.59693E-09  2.05574E-09  1.33550E-09  6.61404E-10  3.77048E-10
   1.99024E-10  5.30780E-11 -7.87023E-11 -2.02592E-10 -3.21392E-10 -4.36507E-10 -5.48686E-10 -6.58338E-10 -7.65784E-10 -8.71137E-10
  -9.74453E-10 -1.07582E-09 -1.17522E-09 -1.27265E-09 -1.36806E-09 -1.46144E-09 -1.55276E-09 -1.64192E-09 -1.72890E-09 -1.81367E-09
  -1.89615E-09 -1.97629E-09 -2.05401E-09 -2.12928E-09 -2.20205E-09 -2.27222E-09 -2.33977E-09 -2.40463E-09 -2.46677E-09 -2.52607E-09
  -2.58255E-09 -2.63611E-09 -2.68672E-09 -2.73431E-09 -2.77887E-09 -2.82030E-09 -2.85858E-09 -2.89369E-09 -2.92553E-09 -2.95419E-09
  -2.97970E-09 -3.00215E-09 -3.02159E-09 -3.03810E-09 -3.05172E-09 -3.06254E-09 -3.07061E-09 -3.07601E-09 -3.07880E-09 -3.07904E-09
