 LCModel (Version 6.3-1R) Copyright: S.W. Provencher.          Ref.: Magn. Reson. Med. 30:672-679 (1993).                
 onepulse 14x27_ftSpec_smooth_lcm
 26 lines in following concentration table = NCONC+1
    Conc.  %SD /Cr+PCr  Metabolite                                         
    0.000 999%   0.000 Ala                                                 
    0.000 999%   0.000 Asp                                                 
    0.000 999%   0.000 Cr                                                  
 7.62E-11 999%   0.503 GABA                                                
    0.000 999%   0.000 Glc                                                 
 1.13E-09 115%   7.445 Gln                                                 
    0.000 999%   0.000 Glu                                                 
    0.000 999%   0.000 Glyc                                                
    0.000 999%   0.000 GPC                                                 
 3.81E-11 999%   0.252 GSH                                                 
 2.04E-09  34%  13.481 Ins                                                 
    0.000 999%   0.000 Lac                                                 
 3.54E-10 165%   2.339 NAAG                                                
 3.44E-10 240%   2.273 NAA                                                 
    0.000 999%   0.000 PCh                                                 
 1.51E-10 406%   1.000 PCr                                                 
 1.09E-09 137%   7.179 PE                                                  
 1.36E-10 351%   0.899 Scyllo                                              
 6.58E-09  20%  43.467 Ser                                                 
 2.06E-10 811%   1.361 Tau                                                 
    0.000 999%   0.000 GPC+PCh                                             
 6.99E-10  71%   4.612 NAA+NAAG                                            
 2.04E-09  34%  13.481 Ins+Glyc                                            
 1.51E-10 406%   1.000 Cr+PCr                                              
 1.13E-09 115%   7.445 Glu+Gln                                             
   6 lines in following misc. output table
  FWHM = 0.123 ppm    S/N =   2                                            
  Data shift = 0.391 ppm                                                   
  Ph: -29 deg     -41.3 deg/ppm                                            
  alphaB,S = 5.4E+01,   1.5E+01                                            
    9 spline knots.   Ns = 5(1)                                            
  (10) 4 infls.   ( 3) 1 extrs.                                            
  363 points on ppm-axis = NY
      4.250000     4.238821     4.227641     4.216462     4.205282     4.194103     4.182923     4.171744     4.160564     4.149385
      4.138206     4.127026     4.115847     4.104667     4.093488     4.082308     4.071129     4.059949     4.048770     4.037591
      4.026411     4.015232     4.004052     3.992873     3.981693     3.970514     3.959334     3.948155     3.936975     3.925796
      3.914617     3.903437     3.892258     3.881078     3.869899     3.858719     3.847540     3.836360     3.825181     3.814002
      3.802822     3.791643     3.780463     3.769284     3.758104     3.746925     3.735745     3.724566     3.713387     3.702207
      3.691028     3.679848     3.668669     3.657489     3.646310     3.635130     3.623951     3.612772     3.601592     3.590413
      3.579233     3.568054     3.556874     3.545695     3.534515     3.523336     3.512156     3.500977     3.489798     3.478618
      3.467439     3.456259     3.445080     3.433900     3.422721     3.411541     3.400362     3.389183     3.378003     3.366824
      3.355644     3.344465     3.333285     3.322106     3.310926     3.299747     3.288568     3.277388     3.266209     3.255029
      3.243850     3.232670     3.221491     3.210311     3.199132     3.187953     3.176773     3.165594     3.154414     3.143235
      3.132055     3.120876     3.109696     3.098517     3.087337     3.076158     3.064979     3.053799     3.042620     3.031440
      3.020261     3.009081     2.997902     2.986722     2.975543     2.964364     2.953184     2.942005     2.930825     2.919646
      2.908466     2.897287     2.886107     2.874928     2.863749     2.852569     2.841390     2.830210     2.819031     2.807851
      2.796672     2.785492     2.774313     2.763134     2.751954     2.740775     2.729595     2.718416     2.707236     2.696057
      2.684877     2.673698     2.662519     2.651339     2.640160     2.628980     2.617801     2.606621     2.595442     2.584262
      2.573083     2.561903     2.550724     2.539545     2.528365     2.517186     2.506006     2.494827     2.483647     2.472468
      2.461288     2.450109     2.438930     2.427750     2.416571     2.405391     2.394212     2.383032     2.371853     2.360673
      2.349494     2.338315     2.327135     2.315956     2.304776     2.293597     2.282417     2.271238     2.260058     2.248879
      2.237700     2.226520     2.215341     2.204161     2.192982     2.181802     2.170623     2.159443     2.148264     2.137084
      2.125905     2.114726     2.103546     2.092367     2.081187     2.070008     2.058828     2.047649     2.036469     2.025290
      2.014111     2.002931     1.991752     1.980572     1.969393     1.958213     1.947034     1.935854     1.924675     1.913496
      1.902316     1.891137     1.879957     1.868778     1.857598     1.846419     1.835239     1.824060     1.812881     1.801701
      1.790522     1.779342     1.768163     1.756983     1.745804     1.734624     1.723445     1.712265     1.701086     1.689907
      1.678727     1.667548     1.656368     1.645189     1.634009     1.622830     1.611650     1.600471     1.589292     1.578112
      1.566933     1.555753     1.544574     1.533394     1.522215     1.511035     1.499856     1.488677     1.477497     1.466318
      1.455138     1.443959     1.432779     1.421600     1.410420     1.399241     1.388062     1.376882     1.365703     1.354523
      1.343344     1.332164     1.320985     1.309805     1.298626     1.287446     1.276267     1.265088     1.253908     1.242729
      1.231549     1.220370     1.209190     1.198011     1.186831     1.175652     1.164473     1.153293     1.142114     1.130934
      1.119755     1.108575     1.097396     1.086216     1.075037     1.063858     1.052678     1.041499     1.030319     1.019140
      1.007960     0.996781     0.985601     0.974422     0.963243     0.952063     0.940884     0.929704     0.918525     0.907345
      0.896166     0.884986     0.873807     0.862628     0.851448     0.840269     0.829089     0.817910     0.806730     0.795551
      0.784371     0.773192     0.762012     0.750833     0.739654     0.728474     0.717295     0.706115     0.694936     0.683756
      0.672577     0.661397     0.650218     0.639039     0.627859     0.616680     0.605500     0.594321     0.583141     0.571962
      0.560782     0.549603     0.538424     0.527244     0.516065     0.504885     0.493706     0.482526     0.471347     0.460167
      0.448988     0.437809     0.426629     0.415450     0.404270     0.393091     0.381911     0.370732     0.359552     0.348373
      0.337193     0.326014     0.314835     0.303655     0.292476     0.281296     0.270117     0.258937     0.247758     0.236578
      0.225399     0.214220     0.203040
 NY phased data points follow
   1.06972E-08  1.07241E-08  9.70769E-09  9.87575E-09  9.15520E-09  8.98764E-09  9.04481E-09  9.14284E-09  8.84922E-09  9.07553E-09
   9.27751E-09  1.02166E-08  1.02559E-08  1.10082E-08  1.02091E-08  1.06484E-08  1.01983E-08  1.06415E-08  1.03606E-08  1.02071E-08
   9.32557E-09  1.02490E-08  1.07717E-08  1.10436E-08  1.04403E-08  1.06476E-08  9.14934E-09  9.90343E-09  1.00689E-08  1.15304E-08
   1.19496E-08  1.34969E-08  1.22243E-08  1.25486E-08  1.15621E-08  1.17555E-08  1.06311E-08  1.15286E-08  1.08975E-08  1.18849E-08
   1.06826E-08  1.08537E-08  1.05437E-08  1.04822E-08  9.72011E-09  1.00740E-08  8.79858E-09  9.81324E-09  9.12622E-09  9.86077E-09
   9.16471E-09  9.21210E-09  7.88723E-09  8.09221E-09  7.83147E-09  7.77311E-09  7.47660E-09  7.89596E-09  6.71040E-09  8.68813E-09
   8.96185E-09  1.09709E-08  1.07841E-08  1.14471E-08  1.08643E-08  1.08400E-08  9.28142E-09  9.93687E-09  8.96189E-09  8.86606E-09
   8.15193E-09  7.67326E-09  6.56832E-09  6.59152E-09  4.34277E-09  6.39412E-09  8.38159E-09  1.16759E-08  1.33996E-08  1.40444E-08
   1.32635E-08  1.42462E-08  1.32244E-08  1.38680E-08  1.30624E-08  1.31557E-08  1.28115E-08  1.38098E-08  1.26247E-08  1.32944E-08
   1.22034E-08  1.26701E-08  1.19545E-08  1.20308E-08  1.12215E-08  1.18944E-08  1.06866E-08  1.11939E-08  1.02860E-08  1.08644E-08
   1.03901E-08  1.07508E-08  1.02251E-08  1.06468E-08  9.96961E-09  9.50450E-09  8.88372E-09  8.64997E-09  7.31853E-09  7.85845E-09
   7.21936E-09  8.20904E-09  7.19265E-09  7.18862E-09  7.22798E-09  7.74698E-09  7.18986E-09  8.03113E-09  7.22999E-09  7.68339E-09
   6.99837E-09  7.17529E-09  5.31941E-09  6.13024E-09  5.30244E-09  5.89036E-09  5.25526E-09  5.31343E-09  4.92008E-09  5.69160E-09
   5.24247E-09  5.45874E-09  4.92151E-09  4.96610E-09  4.30420E-09  4.83351E-09  4.69696E-09  6.49968E-09  6.81589E-09  7.70508E-09
   7.59049E-09  8.17936E-09  8.50883E-09  9.68031E-09  9.80684E-09  1.06434E-08  1.04511E-08  1.10088E-08  1.03725E-08  1.12129E-08
   1.04182E-08  1.14507E-08  1.05373E-08  1.12197E-08  1.10766E-08  1.13670E-08  1.12659E-08  1.17091E-08  1.19683E-08  1.20872E-08
   1.11128E-08  1.21420E-08  1.13699E-08  1.20244E-08  1.13389E-08  1.20984E-08  1.15494E-08  1.57701E-08  1.94520E-08  2.28053E-08
   2.29527E-08  2.28824E-08  2.24424E-08  2.27423E-08  2.15350E-08  2.19545E-08  2.17433E-08  2.13352E-08  2.06622E-08  2.07239E-08
   1.93543E-08  1.94307E-08  1.78831E-08  1.66737E-08  1.47668E-08  1.39011E-08  1.16397E-08  1.03589E-08  6.68961E-09  4.18540E-09
   6.33105E-10 -2.46119E-09 -6.06852E-09 -8.61594E-09 -1.21613E-08 -1.47821E-08 -1.78875E-08 -1.90970E-08 -2.09574E-08 -2.15424E-08
  -2.25320E-08 -2.15040E-08 -2.05677E-08 -1.85506E-08 -1.68113E-08 -1.32425E-08 -1.11236E-08 -7.69880E-09 -5.86138E-09 -3.89552E-09
  -2.40928E-09 -1.75801E-09 -1.53773E-09 -1.80695E-09 -2.41059E-09 -2.37891E-09 -3.63806E-09 -2.86095E-09 -3.06286E-09 -2.24409E-09
  -1.67673E-09 -1.31662E-09 -1.36674E-09 -1.46093E-09 -1.88575E-09 -1.78528E-09 -2.45162E-09 -1.89239E-09 -2.76569E-09 -2.12152E-09
  -2.32082E-09 -1.53782E-09 -1.90968E-09 -1.39242E-09 -1.55531E-09 -1.55077E-09 -2.26285E-09 -1.76387E-09 -2.56537E-09 -2.14215E-09
  -2.59533E-09 -2.71640E-09 -2.85906E-09 -2.30723E-09 -2.33850E-09 -1.56071E-09 -2.20729E-09 -1.15034E-09 -1.51758E-09 -1.02728E-09
  -1.93141E-09 -1.95835E-09 -1.94651E-09 -1.63110E-09 -2.66424E-09 -1.84756E-09 -2.52592E-09 -1.99969E-09 -2.39468E-09 -2.20871E-09
  -2.45588E-09 -2.46767E-09 -2.23769E-09 -1.45981E-09 -2.21415E-09 -1.47521E-09 -1.65286E-09 -9.75082E-10 -8.43017E-10 -3.13245E-10
  -9.71856E-10  9.79654E-11 -5.30393E-10  2.76286E-10 -6.62593E-10 -2.31956E-10 -1.20618E-09 -1.21982E-10 -1.27098E-09 -1.00963E-09
  -1.02728E-09 -1.39003E-09 -1.47761E-09 -1.02307E-09 -1.93899E-09 -1.31102E-09 -2.06795E-09 -1.63517E-09 -2.11317E-09 -1.35197E-09
  -2.58643E-09 -1.78045E-09 -1.94025E-09 -1.61488E-09 -2.25401E-09 -1.88857E-09 -2.31791E-09 -1.93442E-09 -2.02445E-09 -1.64793E-09
  -2.02090E-09 -1.74445E-09 -2.35633E-09 -2.05703E-09 -2.29415E-09 -1.68140E-09 -2.25049E-09 -1.95283E-09 -2.48067E-09 -1.98028E-09
  -2.49967E-09 -1.75450E-09 -2.20051E-09 -1.58170E-09 -2.30829E-09 -1.80520E-09 -2.25794E-09 -1.49830E-09 -2.30128E-09 -1.68232E-09
  -2.46274E-09 -1.71605E-09 -2.18057E-09 -1.42590E-09 -2.01976E-09 -1.52857E-09 -2.23168E-09 -1.65021E-09 -2.66228E-09 -1.32995E-09
  -2.25638E-09 -1.22709E-09 -1.88104E-09 -1.93777E-09 -2.43294E-09 -1.43372E-09 -1.94236E-09 -1.69901E-09 -1.80491E-09 -1.33666E-09
  -2.19549E-09 -1.67278E-09 -2.35414E-09 -1.72273E-09 -2.07726E-09 -1.95485E-09 -1.91200E-09 -2.06499E-09 -2.07406E-09 -1.68128E-09
  -1.88724E-09 -1.14527E-09 -1.79439E-09 -1.40650E-09 -1.77509E-09 -1.31705E-09 -1.72492E-09 -1.03801E-09 -1.63265E-09 -1.14924E-09
  -1.30156E-09 -1.03144E-09 -1.53093E-09
 NY points of the fit to the data follow
   7.52099E-09  1.12154E-08  1.23135E-08  1.02250E-08  9.47013E-09  1.05565E-08  1.11835E-08  1.01283E-08  8.61248E-09  8.43090E-09
   8.70240E-09  8.95616E-09  9.02687E-09  9.29604E-09  1.00089E-08  1.04870E-08  1.01962E-08  1.08425E-08  1.22601E-08  1.21832E-08
   1.09589E-08  1.00063E-08  9.82516E-09  9.75808E-09  9.62457E-09  9.75027E-09  1.03305E-08  1.10889E-08  1.16167E-08  1.15010E-08
   1.17274E-08  1.21027E-08  1.23266E-08  1.22891E-08  1.24072E-08  1.23460E-08  1.19374E-08  1.13481E-08  1.09187E-08  1.06412E-08
   1.05083E-08  1.04889E-08  1.03679E-08  9.95321E-09  9.64870E-09  9.41011E-09  9.18961E-09  8.97060E-09  8.76518E-09  8.63920E-09
   8.54788E-09  8.49013E-09  8.41578E-09  8.29264E-09  8.21529E-09  8.34615E-09  8.44112E-09  8.67271E-09  9.11559E-09  9.50873E-09
   9.69860E-09  9.85874E-09  1.00093E-08  1.01995E-08  1.03371E-08  1.02994E-08  1.02351E-08  1.02308E-08  9.87112E-09  9.41632E-09
   9.19111E-09  9.17208E-09  9.17576E-09  9.07657E-09  9.04048E-09  9.12214E-09  9.66806E-09  1.07614E-08  1.20331E-08  1.30217E-08
   1.36928E-08  1.40494E-08  1.40357E-08  1.42022E-08  1.47390E-08  1.51626E-08  1.52169E-08  1.44527E-08  1.33399E-08  1.24559E-08
   1.19119E-08  1.15183E-08  1.12283E-08  1.09845E-08  1.07494E-08  1.05519E-08  1.03807E-08  1.02134E-08  1.00629E-08  9.91091E-09
   9.76503E-09  9.64095E-09  9.52567E-09  9.40834E-09  9.29689E-09  9.19126E-09  9.09029E-09  8.99332E-09  8.89921E-09  8.80757E-09
   8.71809E-09  8.63038E-09  8.54421E-09  8.45929E-09  8.37545E-09  8.29249E-09  8.21028E-09  8.12867E-09  8.04753E-09  7.96683E-09
   7.88631E-09  7.80604E-09  7.72590E-09  7.64584E-09  7.56581E-09  7.48576E-09  7.40564E-09  7.32543E-09  7.24511E-09  7.16463E-09
   7.08399E-09  7.00317E-09  6.92215E-09  6.84095E-09  6.75953E-09  6.67792E-09  6.59610E-09  6.51409E-09  6.43192E-09  6.34957E-09
   6.26711E-09  6.18454E-09  6.10189E-09  6.01926E-09  5.93662E-09  5.85406E-09  5.77169E-09  5.68960E-09  5.60788E-09  5.52671E-09
   5.44628E-09  5.36676E-09  5.28849E-09  5.21189E-09  5.13740E-09  5.06572E-09  4.99784E-09  4.93506E-09  4.87935E-09  4.83373E-09
   4.80287E-09  4.79489E-09  4.82436E-09  4.92099E-09  5.15466E-09  5.73482E-09  7.60048E-09  1.42547E-08  2.06776E-08  2.38832E-08
   2.43498E-08  2.34664E-08  2.24700E-08  2.21508E-08  2.27916E-08  2.40512E-08  2.39402E-08  1.90757E-08  9.22608E-09  5.13437E-09
   3.92510E-09  3.35777E-09  3.01183E-09  2.76517E-09  2.57065E-09  2.40661E-09  2.26176E-09  2.12972E-09  2.00665E-09  1.89007E-09
   1.77836E-09  1.67041E-09  1.56542E-09  1.46285E-09  1.36227E-09  1.26336E-09  1.16592E-09  1.06974E-09  9.74697E-10  8.80692E-10
   7.87638E-10  6.95461E-10  6.04128E-10  5.13604E-10  4.23849E-10  3.34850E-10  2.46585E-10  1.59072E-10  7.22730E-11 -1.38065E-11
  -9.91603E-11 -1.83779E-10 -2.67668E-10 -3.50812E-10 -4.33225E-10 -5.14880E-10 -5.95759E-10 -6.75867E-10 -7.55200E-10 -8.33727E-10
  -9.11438E-10 -9.88323E-10 -1.06437E-09 -1.13958E-09 -1.21393E-09 -1.28739E-09 -1.35996E-09 -1.43164E-09 -1.50238E-09 -1.57219E-09
  -1.64105E-09 -1.70895E-09 -1.77587E-09 -1.84181E-09 -1.90673E-09 -1.97063E-09 -2.03350E-09 -2.09532E-09 -2.15608E-09 -2.21575E-09
  -2.27434E-09 -2.33183E-09 -2.38819E-09 -2.44342E-09 -2.49750E-09 -2.55042E-09 -2.60217E-09 -2.65272E-09 -2.70208E-09 -2.75023E-09
  -2.79715E-09 -2.84284E-09 -2.88727E-09 -2.93044E-09 -2.97233E-09 -3.01293E-09 -3.05224E-09 -3.09024E-09 -3.12691E-09 -3.16225E-09
  -3.19624E-09 -3.22888E-09 -3.26015E-09 -3.29004E-09 -3.31855E-09 -3.34566E-09 -3.37136E-09 -3.39564E-09 -3.41850E-09 -3.43992E-09
  -3.45990E-09 -3.47842E-09 -3.49547E-09 -3.51106E-09 -3.52516E-09 -3.53778E-09 -3.54890E-09 -3.55852E-09 -3.56662E-09 -3.57321E-09
  -3.57827E-09 -3.58180E-09 -3.58380E-09 -3.58424E-09 -3.58314E-09 -3.58048E-09 -3.57626E-09 -3.57047E-09 -3.56311E-09 -3.55417E-09
  -3.54365E-09 -3.53155E-09 -3.51785E-09 -3.50256E-09 -3.48567E-09 -3.46718E-09 -3.44708E-09 -3.42538E-09 -3.40207E-09 -3.37714E-09
  -3.35061E-09 -3.32245E-09 -3.29268E-09 -3.26129E-09 -3.22827E-09 -3.19364E-09 -3.15738E-09 -3.11951E-09 -3.08001E-09 -3.03888E-09
  -2.99614E-09 -2.95177E-09 -2.90579E-09 -2.85818E-09 -2.80896E-09 -2.75813E-09 -2.70567E-09 -2.65161E-09 -2.59594E-09 -2.53866E-09
  -2.47978E-09 -2.41930E-09 -2.35722E-09 -2.29355E-09 -2.22829E-09 -2.16145E-09 -2.09302E-09 -2.02303E-09 -1.95146E-09 -1.87833E-09
  -1.80364E-09 -1.72740E-09 -1.64961E-09 -1.57028E-09 -1.48941E-09 -1.40703E-09 -1.32312E-09 -1.23769E-09 -1.15077E-09 -1.06235E-09
  -9.72438E-10 -8.81049E-10 -7.88189E-10 -6.93866E-10 -5.98090E-10 -5.00871E-10 -4.02219E-10 -3.02143E-10 -2.00653E-10 -9.77598E-11
   6.52567E-12  1.12193E-10  2.19230E-10  3.27626E-10  4.37370E-10  5.48447E-10  6.60848E-10  7.74560E-10  8.89570E-10  1.00587E-09
   1.12343E-09  1.24226E-09  1.36233E-09
 NY background values follow
    -8.772E-10   -7.207E-10   -5.655E-10   -4.117E-10   -2.594E-10   -1.084E-10    4.111E-11    1.892E-10    3.358E-10    4.810E-10
     6.247E-10    7.669E-10    9.076E-10    1.047E-09    1.184E-09    1.321E-09    1.455E-09    1.588E-09    1.720E-09    1.849E-09
     1.978E-09    2.104E-09    2.229E-09    2.353E-09    2.475E-09    2.595E-09    2.713E-09    2.830E-09    2.945E-09    3.059E-09
     3.171E-09    3.281E-09    3.390E-09    3.496E-09    3.601E-09    3.705E-09    3.807E-09    3.907E-09    4.005E-09    4.101E-09
     4.196E-09    4.289E-09    4.380E-09    4.470E-09    4.558E-09    4.644E-09    4.728E-09    4.811E-09    4.892E-09    4.971E-09
     5.048E-09    5.123E-09    5.197E-09    5.269E-09    5.339E-09    5.408E-09    5.475E-09    5.540E-09    5.603E-09    5.664E-09
     5.724E-09    5.782E-09    5.838E-09    5.892E-09    5.945E-09    5.996E-09    6.045E-09    6.092E-09    6.138E-09    6.181E-09
     6.224E-09    6.264E-09    6.303E-09    6.340E-09    6.375E-09    6.408E-09    6.440E-09    6.470E-09    6.498E-09    6.525E-09
     6.550E-09    6.573E-09    6.595E-09    6.615E-09    6.633E-09    6.650E-09    6.665E-09    6.678E-09    6.690E-09    6.700E-09
     6.709E-09    6.716E-09    6.721E-09    6.725E-09    6.727E-09    6.727E-09    6.726E-09    6.724E-09    6.720E-09    6.714E-09
     6.707E-09    6.698E-09    6.688E-09    6.677E-09    6.664E-09    6.649E-09    6.633E-09    6.616E-09    6.597E-09    6.577E-09
     6.555E-09    6.533E-09    6.508E-09    6.482E-09    6.455E-09    6.427E-09    6.397E-09    6.367E-09    6.334E-09    6.301E-09
     6.266E-09    6.230E-09    6.193E-09    6.154E-09    6.115E-09    6.074E-09    6.032E-09    5.989E-09    5.945E-09    5.899E-09
     5.853E-09    5.806E-09    5.757E-09    5.707E-09    5.657E-09    5.605E-09    5.552E-09    5.499E-09    5.444E-09    5.389E-09
     5.332E-09    5.275E-09    5.217E-09    5.158E-09    5.098E-09    5.037E-09    4.975E-09    4.913E-09    4.850E-09    4.786E-09
     4.721E-09    4.656E-09    4.590E-09    4.523E-09    4.456E-09    4.388E-09    4.319E-09    4.250E-09    4.180E-09    4.109E-09
     4.038E-09    3.967E-09    3.895E-09    3.822E-09    3.750E-09    3.676E-09    3.602E-09    3.528E-09    3.454E-09    3.379E-09
     3.303E-09    3.228E-09    3.152E-09    3.075E-09    2.999E-09    2.922E-09    2.845E-09    2.768E-09    2.691E-09    2.613E-09
     2.536E-09    2.458E-09    2.380E-09    2.302E-09    2.224E-09    2.146E-09    2.068E-09    1.990E-09    1.912E-09    1.834E-09
     1.756E-09    1.678E-09    1.601E-09    1.523E-09    1.446E-09    1.368E-09    1.291E-09    1.214E-09    1.138E-09    1.061E-09
     9.853E-10    9.094E-10    8.338E-10    7.586E-10    6.837E-10    6.092E-10    5.351E-10    4.614E-10    3.880E-10    3.152E-10
     2.428E-10    1.709E-10    9.944E-11    2.855E-11   -4.182E-11   -1.116E-10   -1.809E-10   -2.495E-10   -3.175E-10   -3.849E-10
    -4.516E-10   -5.177E-10   -5.831E-10   -6.478E-10   -7.118E-10   -7.750E-10   -8.374E-10   -8.991E-10   -9.600E-10   -1.020E-09
    -1.079E-09   -1.138E-09   -1.195E-09   -1.252E-09   -1.308E-09   -1.363E-09   -1.417E-09   -1.470E-09   -1.522E-09   -1.573E-09
    -1.623E-09   -1.672E-09   -1.720E-09   -1.767E-09   -1.813E-09   -1.858E-09   -1.902E-09   -1.945E-09   -1.987E-09   -2.027E-09
    -2.066E-09   -2.105E-09   -2.142E-09   -2.178E-09   -2.212E-09   -2.246E-09   -2.278E-09   -2.309E-09   -2.339E-09   -2.368E-09
    -2.395E-09   -2.421E-09   -2.446E-09   -2.470E-09   -2.492E-09   -2.513E-09   -2.532E-09   -2.551E-09   -2.567E-09   -2.583E-09
    -2.597E-09   -2.610E-09   -2.621E-09   -2.631E-09   -2.640E-09   -2.647E-09   -2.653E-09   -2.657E-09   -2.660E-09   -2.661E-09
    -2.661E-09   -2.660E-09   -2.657E-09   -2.652E-09   -2.647E-09   -2.639E-09   -2.630E-09   -2.620E-09   -2.608E-09   -2.595E-09
    -2.580E-09   -2.563E-09   -2.545E-09   -2.526E-09   -2.505E-09   -2.482E-09   -2.458E-09   -2.433E-09   -2.406E-09   -2.377E-09
    -2.347E-09   -2.315E-09   -2.282E-09   -2.247E-09   -2.210E-09   -2.172E-09   -2.133E-09   -2.091E-09   -2.049E-09   -2.005E-09
    -1.959E-09   -1.911E-09   -1.862E-09   -1.812E-09   -1.760E-09   -1.706E-09   -1.651E-09   -1.594E-09   -1.536E-09   -1.476E-09
    -1.415E-09   -1.352E-09   -1.288E-09   -1.222E-09   -1.154E-09   -1.085E-09   -1.015E-09   -9.428E-10   -8.693E-10   -7.942E-10
    -7.176E-10   -6.396E-10   -5.600E-10   -4.790E-10   -3.965E-10   -3.126E-10   -2.271E-10   -1.402E-10   -5.189E-11    3.789E-11
     1.291E-10    2.217E-10    3.158E-10    4.113E-10    5.081E-10    6.064E-10    7.060E-10    8.070E-10    9.093E-10    1.013E-09
     1.118E-09    1.224E-09    1.332E-09    1.441E-09    1.551E-09    1.663E-09    1.776E-09    1.890E-09    2.005E-09    2.122E-09
     2.240E-09    2.359E-09    2.479E-09
 GABA     Conc. = 7.62E-11
  -9.16543E-10 -7.60770E-10 -6.06404E-10 -4.53462E-10 -3.01959E-10 -1.51915E-10 -3.34738E-12  1.43726E-10  2.89286E-10  4.33315E-10
   5.75793E-10  7.16694E-10  8.56008E-10  9.93705E-10  1.12976E-09  1.26416E-09  1.39686E-09  1.52782E-09  1.65702E-09  1.78441E-09
   1.90993E-09  2.03352E-09  2.15511E-09  2.27458E-09  2.39183E-09  2.50666E-09  2.61884E-09  2.72817E-09  2.83501E-09  2.94801E-09
   3.06835E-09  3.17735E-09  3.29211E-09  3.42440E-09  3.55120E-09  3.67263E-09  3.79779E-09  3.92464E-09  4.04981E-09  4.16615E-09
   4.26697E-09  4.37175E-09  4.48457E-09  4.56216E-09  4.63038E-09  4.71786E-09  4.79360E-09  4.85905E-09  4.92683E-09  4.99561E-09
   5.06443E-09  5.13266E-09  5.19992E-09  5.26594E-09  5.33053E-09  5.39353E-09  5.45481E-09  5.51426E-09  5.57174E-09  5.62734E-09
   5.68154E-09  5.73823E-09  5.80979E-09  5.87509E-09  5.93224E-09  6.01037E-09  6.08719E-09  6.15007E-09  6.21207E-09  6.27415E-09
   6.33503E-09  6.38925E-09  6.42766E-09  6.45435E-09  6.50015E-09  6.52545E-09  6.51820E-09  6.53830E-09  6.56057E-09  6.56924E-09
   6.58812E-09  6.60488E-09  6.61683E-09  6.64385E-09  6.67177E-09  6.69025E-09  6.71500E-09  6.74174E-09  6.76545E-09  6.78941E-09
   6.80477E-09  6.81473E-09  6.83626E-09  6.84576E-09  6.83245E-09  6.83647E-09  6.83914E-09  6.82056E-09  6.80805E-09  6.79826E-09
   6.78266E-09  6.76666E-09  6.75060E-09  6.73409E-09  6.71691E-09  6.69884E-09  6.67975E-09  6.65961E-09  6.63836E-09  6.61594E-09
   6.59237E-09  6.56756E-09  6.54156E-09  6.51430E-09  6.48583E-09  6.45614E-09  6.42524E-09  6.39312E-09  6.35979E-09  6.32532E-09
   6.28955E-09  6.25264E-09  6.21455E-09  6.17531E-09  6.13490E-09  6.09337E-09  6.05070E-09  6.00692E-09  5.96205E-09  5.91610E-09
   5.86907E-09  5.82100E-09  5.77187E-09  5.72173E-09  5.67058E-09  5.61845E-09  5.56532E-09  5.51124E-09  5.45624E-09  5.40029E-09
   5.34345E-09  5.28571E-09  5.22709E-09  5.16766E-09  5.10735E-09  5.04622E-09  4.98430E-09  4.92161E-09  4.85813E-09  4.79392E-09
   4.72901E-09  4.66336E-09  4.59703E-09  4.53008E-09  4.46245E-09  4.39419E-09  4.32537E-09  4.25597E-09  4.18603E-09  4.11562E-09
   4.04472E-09  3.97348E-09  3.90197E-09  3.83046E-09  3.75945E-09  3.69068E-09  3.63272E-09  3.60782E-09  3.57150E-09  3.51258E-09
   3.43750E-09  3.35557E-09  3.27422E-09  3.19779E-09  3.12745E-09  3.05967E-09  2.97892E-09  2.86309E-09  2.72128E-09  2.62777E-09
   2.54467E-09  2.46423E-09  2.38478E-09  2.30579E-09  2.22702E-09  2.14840E-09  2.06987E-09  1.99143E-09  1.91306E-09  1.83479E-09
   1.75660E-09  1.67853E-09  1.60058E-09  1.52279E-09  1.44515E-09  1.36767E-09  1.29040E-09  1.21335E-09  1.13653E-09  1.05996E-09
   9.83670E-10  9.07660E-10  8.31962E-10  7.56601E-10  6.81583E-10  6.06933E-10  5.32665E-10  4.58824E-10  3.85396E-10  3.12410E-10
   2.39888E-10  1.67858E-10  9.63289E-11  2.53278E-11 -4.51483E-11 -1.15062E-10 -1.84387E-10 -2.53120E-10 -3.21250E-10 -3.88738E-10
  -4.55569E-10 -5.21730E-10 -5.87206E-10 -6.51983E-10 -7.16046E-10 -7.79345E-10 -8.41904E-10 -9.03689E-10 -9.64669E-10 -1.02484E-09
  -1.08419E-09 -1.14269E-09 -1.20033E-09 -1.25710E-09 -1.31297E-09 -1.36793E-09 -1.42197E-09 -1.47506E-09 -1.52720E-09 -1.57836E-09
  -1.62854E-09 -1.67771E-09 -1.72586E-09 -1.77297E-09 -1.81904E-09 -1.86404E-09 -1.90797E-09 -1.95080E-09 -1.99252E-09 -2.03312E-09
  -2.07259E-09 -2.11091E-09 -2.14807E-09 -2.18405E-09 -2.21885E-09 -2.25244E-09 -2.28482E-09 -2.31598E-09 -2.34590E-09 -2.37456E-09
  -2.40197E-09 -2.42810E-09 -2.45295E-09 -2.47650E-09 -2.49874E-09 -2.51967E-09 -2.53926E-09 -2.55752E-09 -2.57443E-09 -2.58998E-09
  -2.60417E-09 -2.61697E-09 -2.62839E-09 -2.63841E-09 -2.64703E-09 -2.65423E-09 -2.66001E-09 -2.66436E-09 -2.66727E-09 -2.66874E-09
  -2.66875E-09 -2.66731E-09 -2.66440E-09 -2.66001E-09 -2.65414E-09 -2.64679E-09 -2.63795E-09 -2.62760E-09 -2.61576E-09 -2.60241E-09
  -2.58754E-09 -2.57115E-09 -2.55324E-09 -2.53381E-09 -2.51284E-09 -2.49034E-09 -2.46630E-09 -2.44072E-09 -2.41359E-09 -2.38492E-09
  -2.35470E-09 -2.32293E-09 -2.28960E-09 -2.25472E-09 -2.21828E-09 -2.18029E-09 -2.14073E-09 -2.09962E-09 -2.05694E-09 -2.01271E-09
  -1.96692E-09 -1.91957E-09 -1.87065E-09 -1.82019E-09 -1.76816E-09 -1.71458E-09 -1.65945E-09 -1.60277E-09 -1.54453E-09 -1.48475E-09
  -1.42343E-09 -1.36057E-09 -1.29616E-09 -1.23023E-09 -1.16277E-09 -1.09377E-09 -1.02326E-09 -9.51232E-10 -8.77691E-10 -8.02643E-10
  -7.26093E-10 -6.48048E-10 -5.68512E-10 -4.87493E-10 -4.04997E-10 -3.21030E-10 -2.35599E-10 -1.48712E-10 -6.03759E-11  2.94013E-11
   1.20612E-10  2.13247E-10  3.07299E-10  4.02758E-10  4.99616E-10  5.97864E-10  6.97491E-10  7.98489E-10  9.00847E-10  1.00455E-09
   1.10960E-09  1.21598E-09  1.32367E-09  1.43267E-09  1.54296E-09  1.65454E-09  1.76739E-09  1.88150E-09  1.99685E-09  2.11344E-09
   2.23125E-09  2.35027E-09  2.47048E-09
 Gln      Conc. = 1.13E-09
  -1.97885E-09 -1.72462E-09 -1.40516E-09 -1.04160E-09 -6.71987E-10 -2.98813E-10  7.38050E-11  4.02654E-10  6.44008E-10  1.01520E-09
   1.26399E-09  1.34532E-09  1.53675E-09  1.55604E-09  1.57839E-09  1.62528E-09  1.68891E-09  1.76341E-09  1.84522E-09  1.93204E-09
   2.02226E-09  2.11472E-09  2.20847E-09  2.30277E-09  2.39731E-09  2.49203E-09  2.58616E-09  2.67958E-09  2.77227E-09  2.86384E-09
   2.95409E-09  3.04284E-09  3.12994E-09  3.21528E-09  3.29868E-09  3.38001E-09  3.45915E-09  3.53592E-09  3.61010E-09  3.68157E-09
   3.75012E-09  3.81556E-09  3.87774E-09  3.93642E-09  3.99105E-09  4.04139E-09  4.08687E-09  4.12616E-09  4.15942E-09  4.18660E-09
   4.20487E-09  4.21386E-09  4.21520E-09  4.22035E-09  4.33425E-09  4.62125E-09  4.82718E-09  5.08881E-09  5.53045E-09  5.97057E-09
   6.30958E-09  6.65278E-09  6.99675E-09  7.31852E-09  7.53351E-09  7.53052E-09  7.49080E-09  7.60686E-09  7.38962E-09  7.04218E-09
   6.84463E-09  6.79208E-09  6.77000E-09  6.76072E-09  6.89372E-09  7.17067E-09  7.42076E-09  7.68632E-09  7.95512E-09  8.20450E-09
   8.46696E-09  8.68928E-09  8.70311E-09  8.74301E-09  8.83918E-09  8.65639E-09  8.47077E-09  8.39150E-09  8.20538E-09  8.03708E-09
   7.90926E-09  7.80815E-09  7.72637E-09  7.65785E-09  7.59721E-09  7.54302E-09  7.49411E-09  7.44874E-09  7.40633E-09  7.36640E-09
   7.32815E-09  7.29094E-09  7.25447E-09  7.21845E-09  7.18285E-09  7.14741E-09  7.11190E-09  7.07622E-09  7.04025E-09  7.00386E-09
   6.96701E-09  6.92958E-09  6.89157E-09  6.85287E-09  6.81350E-09  6.77337E-09  6.73249E-09  6.69081E-09  6.64831E-09  6.60504E-09
   6.56083E-09  6.51578E-09  6.46986E-09  6.42308E-09  6.37541E-09  6.32686E-09  6.27741E-09  6.22708E-09  6.17588E-09  6.12379E-09
   6.07083E-09  6.01701E-09  5.96231E-09  5.90677E-09  5.85038E-09  5.79316E-09  5.73510E-09  5.67623E-09  5.61656E-09  5.55610E-09
   5.49488E-09  5.43288E-09  5.37014E-09  5.30671E-09  5.24253E-09  5.17765E-09  5.11211E-09  5.04593E-09  4.97911E-09  4.91170E-09
   4.84375E-09  4.77523E-09  4.70622E-09  4.63680E-09  4.56697E-09  4.49683E-09  4.42651E-09  4.35611E-09  4.28582E-09  4.21600E-09
   4.14703E-09  4.07979E-09  4.01571E-09  3.95790E-09  3.91388E-09  3.90763E-09  4.05638E-09  4.71039E-09  5.21251E-09  5.38398E-09
   5.31641E-09  5.14769E-09  4.98916E-09  4.90687E-09  4.91855E-09  4.97608E-09  4.85480E-09  4.22144E-09  3.17246E-09  2.84593E-09
   2.68514E-09  2.56731E-09  2.46587E-09  2.37225E-09  2.28289E-09  2.19612E-09  2.11102E-09  2.02708E-09  1.94399E-09  1.86156E-09
   1.77965E-09  1.69819E-09  1.61711E-09  1.53641E-09  1.45604E-09  1.37599E-09  1.29626E-09  1.21687E-09  1.13779E-09  1.05906E-09
   9.80678E-10  9.02641E-10  8.24975E-10  7.47700E-10  6.70818E-10  5.94348E-10  5.18303E-10  4.42722E-10  3.67592E-10  2.92937E-10
   2.18778E-10  1.45141E-10  7.20347E-11 -5.16837E-13 -7.25174E-11 -1.43930E-10 -2.14731E-10 -2.84917E-10 -3.54477E-10 -4.23374E-10
  -4.91593E-10 -5.59122E-10 -6.25946E-10 -6.92053E-10 -7.57428E-10 -8.22021E-10 -8.85855E-10 -9.48900E-10 -1.01112E-09 -1.07252E-09
