 LCModel (Version 6.3-1R) Copyright: S.W. Provencher.          Ref.: Magn. Reson. Med. 30:672-679 (1993).                
 onepulse 14x26_ftSpec_smooth_lcm
 26 lines in following concentration table = NCONC+1
    Conc.  %SD /Cr+PCr  Metabolite                                         
    0.000 999%   0.000 Ala                                                 
    0.000 999%   0.000 Asp                                                 
 1.46E-10 460%   1.000 Cr                                                  
 9.17E-10 186%   6.269 GABA                                                
 6.89E-10 178%   4.714 Glc                                                 
 5.56E-10 262%   3.800 Gln                                                 
 5.99E-11 999%   0.409 Glu                                                 
    0.000 999%   0.000 Glyc                                                
    0.000 999%   0.000 GPC                                                 
    0.000 999%   0.000 GSH                                                 
 1.46E-09  52%  10.010 Ins                                                 
    0.000 999%   0.000 Lac                                                 
    0.000 999%   0.000 NAAG                                                
 1.01E-09  49%   6.895 NAA                                                 
 1.50E-10  92%   1.023 PCh                                                 
    0.000 999%   0.000 PCr                                                 
    0.000 999%   0.000 PE                                                  
 1.62E-10 182%   1.110 Scyllo                                              
 4.80E-09  31%  32.854 Ser                                                 
    0.000 999%   0.000 Tau                                                 
 1.50E-10  92%   1.023 GPC+PCh                                             
 1.01E-09  49%   6.895 NAA+NAAG                                            
 1.46E-09  52%  10.010 Ins+Glyc                                            
 1.46E-10 460%   1.000 Cr+PCr                                              
 6.16E-10 194%   4.210 Glu+Gln                                             
   6 lines in following misc. output table
  FWHM = 0.089 ppm    S/N =   2                                            
  Data shift = 0.358 ppm                                                   
  Ph: -11 deg     -21.0 deg/ppm                                            
  alphaB,S = 8.9E-01,   2.7E+01                                            
    8 spline knots.   Ns = 5(1)                                            
  ( 8) 2 infls.   ( 5) 1 extrs.                                            
  363 points on ppm-axis = NY
      4.250000     4.238821     4.227641     4.216462     4.205282     4.194103     4.182923     4.171744     4.160564     4.149385
      4.138206     4.127026     4.115847     4.104667     4.093488     4.082308     4.071129     4.059949     4.048770     4.037591
      4.026411     4.015232     4.004052     3.992873     3.981693     3.970514     3.959334     3.948155     3.936975     3.925796
      3.914617     3.903437     3.892258     3.881078     3.869899     3.858719     3.847540     3.836360     3.825181     3.814002
      3.802822     3.791643     3.780463     3.769284     3.758104     3.746925     3.735745     3.724566     3.713387     3.702207
      3.691028     3.679848     3.668669     3.657489     3.646310     3.635130     3.623951     3.612772     3.601592     3.590413
      3.579233     3.568054     3.556874     3.545695     3.534515     3.523336     3.512156     3.500977     3.489798     3.478618
      3.467439     3.456259     3.445080     3.433900     3.422721     3.411541     3.400362     3.389183     3.378003     3.366824
      3.355644     3.344465     3.333285     3.322106     3.310926     3.299747     3.288568     3.277388     3.266209     3.255029
      3.243850     3.232670     3.221491     3.210311     3.199132     3.187953     3.176773     3.165594     3.154414     3.143235
      3.132055     3.120876     3.109696     3.098517     3.087337     3.076158     3.064979     3.053799     3.042620     3.031440
      3.020261     3.009081     2.997902     2.986722     2.975543     2.964364     2.953184     2.942005     2.930825     2.919646
      2.908466     2.897287     2.886107     2.874928     2.863749     2.852569     2.841390     2.830210     2.819031     2.807851
      2.796672     2.785492     2.774313     2.763134     2.751954     2.740775     2.729595     2.718416     2.707236     2.696057
      2.684877     2.673698     2.662519     2.651339     2.640160     2.628980     2.617801     2.606621     2.595442     2.584262
      2.573083     2.561903     2.550724     2.539545     2.528365     2.517186     2.506006     2.494827     2.483647     2.472468
      2.461288     2.450109     2.438930     2.427750     2.416571     2.405391     2.394212     2.383032     2.371853     2.360673
      2.349494     2.338315     2.327135     2.315956     2.304776     2.293597     2.282417     2.271238     2.260058     2.248879
      2.237700     2.226520     2.215341     2.204161     2.192982     2.181802     2.170623     2.159443     2.148264     2.137084
      2.125905     2.114726     2.103546     2.092367     2.081187     2.070008     2.058828     2.047649     2.036469     2.025290
      2.014111     2.002931     1.991752     1.980572     1.969393     1.958213     1.947034     1.935854     1.924675     1.913496
      1.902316     1.891137     1.879957     1.868778     1.857598     1.846419     1.835239     1.824060     1.812881     1.801701
      1.790522     1.779342     1.768163     1.756983     1.745804     1.734624     1.723445     1.712265     1.701086     1.689907
      1.678727     1.667548     1.656368     1.645189     1.634009     1.622830     1.611650     1.600471     1.589292     1.578112
      1.566933     1.555753     1.544574     1.533394     1.522215     1.511035     1.499856     1.488677     1.477497     1.466318
      1.455138     1.443959     1.432779     1.421600     1.410420     1.399241     1.388062     1.376882     1.365703     1.354523
      1.343344     1.332164     1.320985     1.309805     1.298626     1.287446     1.276267     1.265088     1.253908     1.242729
      1.231549     1.220370     1.209190     1.198011     1.186831     1.175652     1.164473     1.153293     1.142114     1.130934
      1.119755     1.108575     1.097396     1.086216     1.075037     1.063858     1.052678     1.041499     1.030319     1.019140
      1.007960     0.996781     0.985601     0.974422     0.963243     0.952063     0.940884     0.929704     0.918525     0.907345
      0.896166     0.884986     0.873807     0.862628     0.851448     0.840269     0.829089     0.817910     0.806730     0.795551
      0.784371     0.773192     0.762012     0.750833     0.739654     0.728474     0.717295     0.706115     0.694936     0.683756
      0.672577     0.661397     0.650218     0.639039     0.627859     0.616680     0.605500     0.594321     0.583141     0.571962
      0.560782     0.549603     0.538424     0.527244     0.516065     0.504885     0.493706     0.482526     0.471347     0.460167
      0.448988     0.437809     0.426629     0.415450     0.404270     0.393091     0.381911     0.370732     0.359552     0.348373
      0.337193     0.326014     0.314835     0.303655     0.292476     0.281296     0.270117     0.258937     0.247758     0.236578
      0.225399     0.214220     0.203040
 NY phased data points follow
   7.53179E-09  9.78714E-09  1.00494E-08  1.05296E-08  1.02903E-08  9.73523E-09  9.04375E-09  9.17572E-09  8.27148E-09  9.13497E-09
   8.57108E-09  8.74996E-09  8.60965E-09  9.42234E-09  9.68184E-09  1.07728E-08  1.06936E-08  1.06908E-08  1.06343E-08  1.09186E-08
   1.06364E-08  1.10683E-08  1.02121E-08  1.01053E-08  1.02666E-08  1.15047E-08  1.11522E-08  1.13223E-08  1.09315E-08  1.00054E-08
   9.97884E-09  1.08413E-08  1.17045E-08  1.30753E-08  1.41392E-08  1.35226E-08  1.30977E-08  1.29564E-08  1.22185E-08  1.19789E-08
   1.20492E-08  1.21047E-08  1.22708E-08  1.16508E-08  1.12161E-08  1.15478E-08  1.09227E-08  1.08826E-08  1.01600E-08  9.55552E-09
   9.94959E-09  1.00254E-08  1.01148E-08  9.95506E-09  9.30508E-09  8.60892E-09  8.21984E-09  8.57099E-09  7.91352E-09  8.38046E-09
   8.02593E-09  7.62065E-09  9.04962E-09  1.02737E-08  1.15051E-08  1.23301E-08  1.23879E-08  1.23121E-08  1.13570E-08  1.07011E-08
   1.04845E-08  9.94210E-09  9.25722E-09  9.12953E-09  8.01545E-09  7.47331E-09  6.81478E-09  5.59822E-09  7.34542E-09  1.00129E-08
   1.31681E-08  1.56786E-08  1.54897E-08  1.55266E-08  1.57015E-08  1.50999E-08  1.47380E-08  1.46390E-08  1.39307E-08  1.43430E-08
   1.44335E-08  1.37966E-08  1.38218E-08  1.30007E-08  1.29518E-08  1.26481E-08  1.20806E-08  1.20579E-08  1.17447E-08  1.11579E-08
   1.10382E-08  1.07235E-08  1.06934E-08  1.09926E-08  1.05217E-08  1.05013E-08  1.04522E-08  1.01464E-08  8.84395E-09  8.96906E-09
   7.84646E-09  7.32383E-09  7.14788E-09  7.31126E-09  7.70374E-09  7.27548E-09  6.84891E-09  7.64726E-09  7.30141E-09  7.38002E-09
   7.63421E-09  7.55196E-09  7.24382E-09  7.19937E-09  6.27850E-09  5.38030E-09  5.73000E-09  5.17384E-09  5.68706E-09  5.44547E-09
   5.19334E-09  5.34893E-09  5.78040E-09  5.70717E-09  5.33893E-09  5.49834E-09  5.16390E-09  5.24545E-09  5.38635E-09  6.04047E-09
   7.29254E-09  8.32995E-09  8.40875E-09  8.91947E-09  8.91241E-09  9.99087E-09  1.02599E-08  1.09248E-08  1.08535E-08  1.13338E-08
   1.08902E-08  1.07970E-08  1.08868E-08  1.07056E-08  1.09498E-08  1.02797E-08  1.08225E-08  1.08419E-08  1.04404E-08  1.08938E-08
   1.07703E-08  1.15605E-08  1.05798E-08  1.06615E-08  1.07716E-08  1.07454E-08  1.07909E-08  1.10892E-08  1.16031E-08  1.27425E-08
   1.69245E-08  2.08111E-08  2.23923E-08  2.15035E-08  2.02060E-08  1.96480E-08  1.81795E-08  1.68775E-08  1.62944E-08  1.58336E-08
   1.42629E-08  1.38213E-08  1.24285E-08  1.11132E-08  1.00392E-08  8.25351E-09  6.18112E-09  4.42298E-09  2.39909E-09  5.63492E-10
  -2.10236E-09 -5.40818E-09 -8.22391E-09 -1.14415E-08 -1.45737E-08 -1.70540E-08 -1.95342E-08 -2.21584E-08 -2.43138E-08 -2.57199E-08
  -2.63912E-08 -2.66136E-08 -2.62469E-08 -2.56266E-08 -2.36825E-08 -2.12095E-08 -1.86150E-08 -1.54161E-08 -1.19597E-08 -9.32419E-09
  -6.56943E-09 -4.81462E-09 -3.42215E-09 -2.04726E-09 -2.39378E-09 -1.52722E-09 -2.67693E-09 -2.03700E-09 -2.94752E-09 -3.40056E-09
  -2.97928E-09 -2.89254E-09 -2.55582E-09 -2.09104E-09 -2.30553E-09 -1.82410E-09 -2.48882E-09 -1.80423E-09 -2.56696E-09 -2.16025E-09
  -2.42845E-09 -2.68168E-09 -2.70630E-09 -2.42916E-09 -2.42424E-09 -2.05922E-09 -1.94650E-09 -1.40316E-09 -1.88258E-09 -1.66673E-09
  -1.90355E-09 -2.17186E-09 -2.40840E-09 -2.36478E-09 -2.86769E-09 -1.99633E-09 -2.42838E-09 -1.43978E-09 -1.61553E-09 -1.16235E-09
  -7.25476E-10 -5.29925E-10 -7.43780E-10 -1.04015E-09 -1.53257E-09 -8.39849E-10 -1.68793E-09 -1.68777E-09 -1.69275E-09 -2.09000E-09
  -1.78379E-09 -1.85007E-09 -2.13876E-09 -1.78576E-09 -2.10038E-09 -8.59811E-10 -1.20745E-09 -7.97452E-10 -6.68763E-10 -7.58269E-11
   1.14281E-11  6.69530E-10  7.21903E-11  6.16871E-10  4.78989E-10  7.89133E-10  5.23088E-10  1.20733E-10 -2.49143E-10 -3.81660E-10
  -1.06809E-10 -6.32180E-10 -7.06404E-10 -7.04920E-10 -1.31227E-09 -2.82884E-10 -1.18473E-09 -9.50270E-10 -1.24292E-09 -1.36318E-09
  -1.58296E-09 -1.06617E-09 -1.23683E-09 -1.67177E-09 -9.22942E-10 -9.55667E-10 -1.24121E-09 -1.37333E-09 -1.43932E-09 -1.12669E-09
  -1.28253E-09 -5.21215E-10 -1.15551E-09 -6.22179E-10 -1.14638E-09 -7.87179E-10 -1.36200E-09 -4.33358E-10 -7.58809E-10 -4.88982E-10
  -8.09458E-10 -4.95956E-10 -7.57852E-10 -3.20331E-10 -2.10194E-10  1.54336E-10 -3.99590E-10  6.90475E-11 -2.98504E-10  3.94790E-10
  -2.48790E-12  1.79321E-10 -1.25936E-10  2.63299E-10  3.74291E-10  6.26314E-10  3.91418E-10  4.73151E-10  2.88908E-10  4.44943E-10
   3.92126E-10  5.26663E-10  1.18347E-09  6.83570E-10  1.26497E-09  7.31695E-10  4.42891E-10  1.10024E-09  1.29739E-09  9.88965E-10
   9.40184E-10  1.47972E-09  1.01951E-09  1.20072E-09  9.95552E-10  1.17692E-09  1.32462E-09  1.44872E-09  1.28248E-09  1.68584E-09
   9.99352E-10  2.00701E-09  1.61391E-09  2.34593E-09  1.74800E-09  1.95230E-09  1.75692E-09  2.26876E-09  2.04146E-09  2.38124E-09
   2.04335E-09  2.42931E-09  2.23540E-09
 NY points of the fit to the data follow
   8.56020E-09  1.01519E-08  1.04038E-08  1.02146E-08  1.06319E-08  1.10702E-08  1.06375E-08  9.52973E-09  8.38671E-09  7.66745E-09
   7.47127E-09  7.58891E-09  7.95689E-09  8.65355E-09  9.52966E-09  1.02276E-08  1.06470E-08  1.12516E-08  1.17251E-08  1.14394E-08
   1.08895E-08  1.05725E-08  1.04335E-08  1.02067E-08  1.01287E-08  1.02662E-08  1.06258E-08  1.10870E-08  1.13591E-08  1.13674E-08
   1.16333E-08  1.19194E-08  1.22773E-08  1.26236E-08  1.26275E-08  1.22070E-08  1.20734E-08  1.21158E-08  1.22077E-08  1.22830E-08
   1.22964E-08  1.22710E-08  1.20572E-08  1.14998E-08  1.10747E-08  1.08561E-08  1.05862E-08  1.02880E-08  1.00370E-08  9.85133E-09
   9.70900E-09  9.61607E-09  9.56695E-09  9.50665E-09  9.42098E-09  9.37621E-09  9.37295E-09  9.48042E-09  9.68292E-09  9.87164E-09
   9.97527E-09  1.00485E-08  1.01842E-08  1.03253E-08  1.04938E-08  1.07957E-08  1.10726E-08  1.11781E-08  1.11773E-08  1.11340E-08
   1.11457E-08  1.11000E-08  1.08850E-08  1.05235E-08  1.02532E-08  9.81739E-09  9.24165E-09  9.43258E-09  1.02389E-08  1.12388E-08
   1.24229E-08  1.36038E-08  1.46125E-08  1.55497E-08  1.63643E-08  1.69162E-08  1.71212E-08  1.65325E-08  1.49723E-08  1.38140E-08
   1.32279E-08  1.28700E-08  1.26672E-08  1.24144E-08  1.20946E-08  1.19094E-08  1.16958E-08  1.13818E-08  1.11430E-08  1.09358E-08
   1.07135E-08  1.05141E-08  1.03366E-08  1.01756E-08  1.00272E-08  9.88846E-09  9.75728E-09  9.63224E-09  9.51217E-09  9.39613E-09
   9.28347E-09  9.17328E-09  9.06511E-09  8.95855E-09  8.85326E-09  8.74898E-09  8.64544E-09  8.54232E-09  8.43939E-09  8.33654E-09
   8.23348E-09  8.13018E-09  8.02645E-09  7.92218E-09  7.81726E-09  7.71157E-09  7.60499E-09  7.49751E-09  7.38900E-09  7.27939E-09
   7.16863E-09  7.05661E-09  6.94335E-09  6.82874E-09  6.71274E-09  6.59526E-09  6.47638E-09  6.35592E-09  6.23392E-09  6.11029E-09
   5.98505E-09  5.85815E-09  5.72958E-09  5.59926E-09  5.46723E-09  5.33345E-09  5.19795E-09  5.06079E-09  4.92207E-09  4.78190E-09
   4.64038E-09  4.49767E-09  4.35391E-09  4.20934E-09  4.06417E-09  3.91878E-09  3.77359E-09  3.62924E-09  3.48666E-09  3.34725E-09
   3.21323E-09  3.08848E-09  2.97998E-09  2.90212E-09  2.88876E-09  3.04162E-09  3.82224E-09  7.09159E-09  1.11286E-08  1.48523E-08
   1.80478E-08  2.04798E-08  2.19130E-08  2.24134E-08  2.21379E-08  2.07760E-08  1.74203E-08  1.15486E-08  5.07386E-09  2.77254E-09
   1.84680E-09  1.30400E-09  9.18665E-10  6.14046E-10  3.56759E-10  1.29956E-10 -7.57650E-11 -2.66033E-10 -4.44544E-10 -6.13641E-10
  -7.74925E-10 -9.29618E-10 -1.07850E-09 -1.22219E-09 -1.36108E-09 -1.49555E-09 -1.62585E-09 -1.75208E-09 -1.87440E-09 -1.99296E-09
  -2.10777E-09 -2.21888E-09 -2.32630E-09 -2.43006E-09 -2.53018E-09 -2.62658E-09 -2.71930E-09 -2.80832E-09 -2.89360E-09 -2.97507E-09
  -3.05278E-09 -3.12662E-09 -3.19658E-09 -3.26264E-09 -3.32478E-09 -3.38289E-09 -3.43699E-09 -3.48705E-09 -3.53300E-09 -3.57492E-09
  -3.61288E-09 -3.64696E-09 -3.67723E-09 -3.70378E-09 -3.72668E-09 -3.74601E-09 -3.76185E-09 -3.77427E-09 -3.78337E-09 -3.78920E-09
  -3.79186E-09 -3.79143E-09 -3.78798E-09 -3.78159E-09 -3.77234E-09 -3.76032E-09 -3.74561E-09 -3.72827E-09 -3.70840E-09 -3.68607E-09
  -3.66136E-09 -3.63436E-09 -3.60514E-09 -3.57379E-09 -3.54037E-09 -3.50498E-09 -3.46770E-09 -3.42860E-09 -3.38776E-09 -3.34525E-09
  -3.30118E-09 -3.25558E-09 -3.20859E-09 -3.16022E-09 -3.11058E-09 -3.05977E-09 -3.00783E-09 -2.95485E-09 -2.90090E-09 -2.84605E-09
  -2.79039E-09 -2.73399E-09 -2.67692E-09 -2.61924E-09 -2.56103E-09 -2.50237E-09 -2.44332E-09 -2.38394E-09 -2.32432E-09 -2.26451E-09
  -2.20458E-09 -2.14459E-09 -2.08462E-09 -2.02471E-09 -1.96495E-09 -1.90538E-09 -1.84607E-09 -1.78708E-09 -1.72845E-09 -1.67025E-09
  -1.61255E-09 -1.55538E-09 -1.49881E-09 -1.44288E-09 -1.38764E-09 -1.33315E-09 -1.27946E-09 -1.22659E-09 -1.17461E-09 -1.12356E-09
  -1.07347E-09 -1.02438E-09 -9.76290E-10 -9.29210E-10 -8.83141E-10 -8.38101E-10 -7.94080E-10 -7.51096E-10 -7.09151E-10 -6.68250E-10
  -6.28403E-10 -5.89610E-10 -5.51884E-10 -5.15225E-10 -4.79638E-10 -4.45132E-10 -4.11715E-10 -3.79391E-10 -3.48160E-10 -3.18031E-10
  -2.89012E-10 -2.61104E-10 -2.34319E-10 -2.08654E-10 -1.84120E-10 -1.60719E-10 -1.38460E-10 -1.17342E-10 -9.73759E-11 -7.85656E-11
  -6.09163E-11 -4.44240E-11 -2.91072E-11 -1.49650E-11 -1.99962E-12  9.78606E-12  2.03749E-11  2.97740E-11  3.79717E-11  4.49717E-11
   5.07606E-11  5.53386E-11  5.87032E-11  6.08469E-11  6.17626E-11  6.14505E-11  5.99032E-11  5.71204E-11  5.30911E-11  4.78230E-11
   4.12970E-11  3.35210E-11  2.44824E-11  1.41811E-11  2.61957E-12 -1.02207E-11 -2.43321E-11 -3.97249E-11 -5.63969E-11 -7.43572E-11
  -9.36077E-11 -1.14150E-10 -1.35992E-10 -1.59133E-10 -1.83580E-10 -2.09335E-10 -2.36403E-10 -2.64785E-10 -2.94485E-10 -3.25509E-10
  -3.57857E-10 -3.91533E-10 -4.26543E-10
 NY background values follow
     1.424E-09    1.563E-09    1.700E-09    1.836E-09    1.970E-09    2.103E-09    2.234E-09    2.364E-09    2.492E-09    2.618E-09
     2.743E-09    2.866E-09    2.988E-09    3.108E-09    3.227E-09    3.343E-09    3.459E-09    3.572E-09    3.684E-09    3.795E-09
     3.903E-09    4.011E-09    4.116E-09    4.220E-09    4.322E-09    4.423E-09    4.521E-09    4.619E-09    4.714E-09    4.808E-09
     4.900E-09    4.991E-09    5.080E-09    5.167E-09    5.253E-09    5.337E-09    5.419E-09    5.499E-09    5.578E-09    5.656E-09
     5.731E-09    5.805E-09    5.877E-09    5.948E-09    6.017E-09    6.084E-09    6.150E-09    6.214E-09    6.276E-09    6.337E-09
     6.396E-09    6.454E-09    6.509E-09    6.564E-09    6.616E-09    6.667E-09    6.717E-09    6.765E-09    6.811E-09    6.855E-09
     6.899E-09    6.940E-09    6.980E-09    7.018E-09    7.055E-09    7.091E-09    7.124E-09    7.157E-09    7.187E-09    7.217E-09
     7.244E-09    7.271E-09    7.296E-09    7.319E-09    7.341E-09    7.361E-09    7.380E-09    7.398E-09    7.414E-09    7.428E-09
     7.441E-09    7.453E-09    7.463E-09    7.471E-09    7.478E-09    7.483E-09    7.487E-09    7.489E-09    7.490E-09    7.489E-09
     7.487E-09    7.483E-09    7.477E-09    7.470E-09    7.461E-09    7.450E-09    7.438E-09    7.424E-09    7.409E-09    7.391E-09
     7.372E-09    7.352E-09    7.329E-09    7.305E-09    7.279E-09    7.252E-09    7.222E-09    7.191E-09    7.158E-09    7.123E-09
     7.087E-09    7.048E-09    7.008E-09    6.965E-09    6.921E-09    6.875E-09    6.827E-09    6.777E-09    6.726E-09    6.672E-09
     6.616E-09    6.559E-09    6.499E-09    6.437E-09    6.374E-09    6.308E-09    6.240E-09    6.170E-09    6.098E-09    6.025E-09
     5.949E-09    5.870E-09    5.790E-09    5.708E-09    5.623E-09    5.537E-09    5.448E-09    5.357E-09    5.264E-09    5.169E-09
     5.072E-09    4.972E-09    4.870E-09    4.766E-09    4.660E-09    4.552E-09    4.441E-09    4.328E-09    4.213E-09    4.097E-09
     3.978E-09    3.857E-09    3.735E-09    3.611E-09    3.486E-09    3.359E-09    3.231E-09    3.102E-09    2.971E-09    2.840E-09
     2.707E-09    2.573E-09    2.439E-09    2.304E-09    2.168E-09    2.032E-09    1.895E-09    1.759E-09    1.621E-09    1.484E-09
     1.347E-09    1.209E-09    1.072E-09    9.353E-10    7.987E-10    6.626E-10    5.270E-10    3.921E-10    2.579E-10    1.245E-10
    -7.978E-12   -1.394E-10   -2.697E-10   -3.988E-10   -5.267E-10   -6.531E-10   -7.780E-10   -9.013E-10   -1.023E-09   -1.143E-09
    -1.261E-09   -1.377E-09   -1.491E-09   -1.603E-09   -1.713E-09   -1.820E-09   -1.925E-09   -2.028E-09   -2.128E-09   -2.226E-09
    -2.320E-09   -2.412E-09   -2.501E-09   -2.588E-09   -2.671E-09   -2.751E-09   -2.828E-09   -2.902E-09   -2.972E-09   -3.039E-09
    -3.103E-09   -3.163E-09   -3.220E-09   -3.273E-09   -3.323E-09   -3.368E-09   -3.410E-09   -3.449E-09   -3.483E-09   -3.514E-09
    -3.540E-09   -3.564E-09   -3.583E-09   -3.599E-09   -3.612E-09   -3.621E-09   -3.626E-09   -3.629E-09   -3.628E-09   -3.625E-09
    -3.618E-09   -3.608E-09   -3.596E-09   -3.580E-09   -3.562E-09   -3.541E-09   -3.518E-09   -3.492E-09   -3.464E-09   -3.433E-09
    -3.400E-09   -3.365E-09   -3.328E-09   -3.288E-09   -3.247E-09   -3.204E-09   -3.159E-09   -3.113E-09   -3.064E-09   -3.014E-09
    -2.963E-09   -2.910E-09   -2.856E-09   -2.801E-09   -2.744E-09   -2.687E-09   -2.628E-09   -2.568E-09   -2.508E-09   -2.446E-09
    -2.384E-09   -2.321E-09   -2.258E-09   -2.194E-09   -2.130E-09   -2.065E-09   -2.000E-09   -1.934E-09   -1.869E-09   -1.803E-09
    -1.738E-09   -1.672E-09   -1.606E-09   -1.541E-09   -1.475E-09   -1.410E-09   -1.346E-09   -1.281E-09   -1.217E-09   -1.154E-09
    -1.091E-09   -1.029E-09   -9.673E-10   -9.063E-10   -8.461E-10   -7.867E-10   -7.282E-10   -6.706E-10   -6.138E-10   -5.581E-10
    -5.034E-10   -4.497E-10   -3.971E-10   -3.456E-10   -2.951E-10   -2.457E-10   -1.973E-10   -1.501E-10   -1.039E-10   -5.883E-11
    -1.486E-11    2.801E-11    6.977E-11    1.104E-10    1.499E-10    1.883E-10    2.256E-10    2.617E-10    2.967E-10    3.305E-10
     3.632E-10    3.947E-10    4.251E-10    4.543E-10    4.823E-10    5.091E-10    5.348E-10    5.593E-10    5.825E-10    6.046E-10
     6.255E-10    6.452E-10    6.636E-10    6.809E-10    6.969E-10    7.117E-10    7.253E-10    7.376E-10    7.487E-10    7.586E-10
     7.672E-10    7.745E-10    7.806E-10    7.855E-10    7.890E-10    7.913E-10    7.924E-10    7.921E-10    7.906E-10    7.878E-10
     7.837E-10    7.783E-10    7.716E-10    7.636E-10    7.543E-10    7.437E-10    7.318E-10    7.186E-10    7.041E-10    6.882E-10
     6.710E-10    6.525E-10    6.326E-10    6.114E-10    5.889E-10    5.650E-10    5.398E-10    5.132E-10    4.853E-10    4.560E-10
     4.253E-10    3.933E-10    3.599E-10
 Cr       Conc. = 1.46E-10
   1.68011E-09  1.93017E-09  2.11295E-09  2.17508E-09  2.21259E-09  2.28543E-09  2.37529E-09  2.47393E-09  2.57739E-09  2.68348E-09
   2.79090E-09  2.89880E-09  3.00658E-09  3.11381E-09  3.22017E-09  3.32538E-09  3.42921E-09  3.53147E-09  3.63194E-09  3.73043E-09
   3.82671E-09  3.92054E-09  4.01161E-09  4.09955E-09  4.18386E-09  4.26387E-09  4.33859E-09  4.40658E-09  4.46542E-09  4.51096E-09
   4.53578E-09  4.54389E-09  4.65571E-09  4.84232E-09  5.06734E-09  5.31871E-09  5.58246E-09  5.83999E-09  6.08520E-09  6.32497E-09
   6.55099E-09  6.70758E-09  6.70646E-09  6.55075E-09  6.49245E-09  6.48250E-09  6.49515E-09  6.51997E-09  6.55192E-09  6.58823E-09
   6.62717E-09  6.66771E-09  6.70905E-09  6.75072E-09  6.79236E-09  6.83362E-09  6.87434E-09  6.91439E-09  6.95351E-09  6.99174E-09
   7.02895E-09  7.06504E-09  7.10002E-09  7.13379E-09  7.16639E-09  7.19771E-09  7.22778E-09  7.25653E-09  7.28400E-09  7.31018E-09
   7.33501E-09  7.35852E-09  7.38074E-09  7.40158E-09  7.42111E-09  7.43928E-09  7.45608E-09  7.47150E-09  7.48553E-09  7.49815E-09
   7.50934E-09  7.51910E-09  7.52742E-09  7.53426E-09  7.53966E-09  7.54356E-09  7.54596E-09  7.54685E-09  7.54623E-09  7.54408E-09
   7.54036E-09  7.53511E-09  7.52825E-09  7.51986E-09  7.50984E-09  7.49820E-09  7.48495E-09  7.47006E-09  7.45352E-09  7.43532E-09
   7.41544E-09  7.39387E-09  7.37059E-09  7.34562E-09  7.31889E-09  7.29042E-09  7.26019E-09  7.22821E-09  7.19444E-09  7.15882E-09
   7.12145E-09  7.08222E-09  7.04114E-09  6.99821E-09  6.95340E-09  6.90672E-09  6.85815E-09  6.80767E-09  6.75524E-09  6.70093E-09
   6.64460E-09  6.58635E-09  6.52610E-09  6.46387E-09  6.39965E-09  6.33340E-09  6.26509E-09  6.19479E-09  6.12242E-09  6.04798E-09
   5.97147E-09  5.89285E-09  5.81216E-09  5.72936E-09  5.64443E-09  5.55733E-09  5.46817E-09  5.37681E-09  5.28332E-09  5.18761E-09
   5.08976E-09  4.98972E-09  4.88750E-09  4.78303E-09  4.67639E-09  4.56753E-09  4.45647E-09  4.34329E-09  4.22806E-09  4.11087E-09
   3.99181E-09  3.87096E-09  3.74840E-09  3.62423E-09  3.49853E-09  3.37139E-09  3.24292E-09  3.11319E-09  2.98234E-09  2.85045E-09
   2.71764E-09  2.58408E-09  2.44995E-09  2.31558E-09  2.18159E-09  2.04980E-09  1.92887E-09  1.84559E-09  1.77039E-09  1.68948E-09
   1.60055E-09  1.50007E-09  1.38486E-09  1.25642E-09  1.11690E-09  9.60744E-10  7.74075E-10  5.51365E-10  3.26532E-10  1.66566E-10
   2.34351E-11 -1.13827E-10 -2.47912E-10 -3.79662E-10 -5.09458E-10 -6.37448E-10 -7.63656E-10 -8.88032E-10 -1.01063E-09 -1.13134E-09
  -1.25008E-09 -1.36684E-09 -1.48150E-09 -1.59401E-09 -1.70424E-09 -1.81216E-09 -1.91771E-09 -2.02073E-09 -2.12119E-09 -2.21904E-09
  -2.31417E-09 -2.40650E-09 -2.49596E-09 -2.58248E-09 -2.66601E-09 -2.74642E-09 -2.82368E-09 -2.89774E-09 -2.96852E-09 -3.03589E-09
  -3.09990E-09 -3.16041E-09 -3.21737E-09 -3.27073E-09 -3.32048E-09 -3.36647E-09 -3.40871E-09 -3.44717E-09 -3.48174E-09 -3.51251E-09
  -3.53952E-09 -3.56287E-09 -3.58259E-09 -3.59878E-09 -3.61148E-09 -3.62080E-09 -3.62679E-09 -3.62951E-09 -3.62906E-09 -3.62549E-09
  -3.61890E-09 -3.60935E-09 -3.59690E-09 -3.58165E-09 -3.56368E-09 -3.54304E-09 -3.51983E-09 -3.49411E-09 -3.46596E-09 -3.43547E-09
  -3.40270E-09 -3.36776E-09 -3.33069E-09 -3.29158E-09 -3.25051E-09 -3.20756E-09 -3.16281E-09 -3.11633E-09 -3.06820E-09 -3.01849E-09
  -2.96730E-09 -2.91468E-09 -2.86073E-09 -2.80550E-09 -2.74907E-09 -2.69155E-09 -2.63298E-09 -2.57344E-09 -2.51301E-09 -2.45176E-09
  -2.38976E-09 -2.32710E-09 -2.26383E-09 -2.20003E-09 -2.13577E-09 -2.07111E-09 -2.00615E-09 -1.94091E-09 -1.87549E-09 -1.80996E-09
  -1.74437E-09 -1.67878E-09 -1.61327E-09 -1.54788E-09 -1.48271E-09 -1.41778E-09 -1.35317E-09 -1.28894E-09 -1.22513E-09 -1.16181E-09
  -1.09903E-09 -1.03686E-09 -9.75331E-10 -9.14495E-10 -8.54413E-10 -7.95131E-10 -7.36699E-10 -6.79139E-10 -6.22528E-10 -5.66894E-10
  -5.12270E-10 -4.58701E-10 -4.06183E-10 -3.54723E-10 -3.04326E-10 -2.55006E-10 -2.06753E-10 -1.59588E-10 -1.13508E-10 -6.85203E-11
  -2.46343E-11  1.81508E-11  5.98221E-11  1.00379E-10  1.39819E-10  1.78132E-10  2.15311E-10  2.51352E-10  2.86254E-10  3.20010E-10
   3.52612E-10  3.84059E-10  4.14339E-10  4.43457E-10  4.71400E-10  4.98167E-10  5.23749E-10  5.48149E-10  5.71355E-10  5.93363E-10
   6.14169E-10  6.33776E-10  6.52166E-10  6.69341E-10  6.85299E-10  7.00037E-10  7.13537E-10  7.25809E-10  7.36839E-10  7.46632E-10
   7.55175E-10  7.62468E-10  7.68509E-10  7.73290E-10  7.76805E-10  7.79053E-10  7.80028E-10  7.79730E-10  7.78148E-10  7.75289E-10
   7.71135E-10  7.65694E-10  7.58953E-10  7.50913E-10  7.41576E-10  7.30923E-10  7.18964E-10  7.05686E-10  6.91093E-10  6.75176E-10
   6.57932E-10  6.39361E-10  6.19456E-10  5.98215E-10  5.75633E-10  5.51709E-10  5.26436E-10  4.99815E-10  4.71841E-10  4.42509E-10
   4.11819E-10  3.79765E-10  3.46345E-10
 GABA     Conc. = 9.17E-10
   9.67332E-10  1.09776E-09  1.22630E-09  1.35291E-09  1.47754E-09  1.60015E-09  1.72068E-09  1.83907E-09  1.95526E-09  2.06916E-09
   2.18071E-09  2.28980E-09  2.39634E-09  2.50020E-09  2.60126E-09  2.69938E-09  2.79434E-09  2.88589E-09  2.97382E-09  3.05774E-09
   3.13722E-09  3.21177E-09  3.28073E-09  3.34323E-09  3.39825E-09  3.44437E-09  3.47986E-09  3.50314E-09  3.51675E-09  3.57358E-09
   3.69221E-09  3.78735E-09  3.95370E-09  4.26540E-09  4.60919E-09  4.98131E-09  5.42268E-09  5.89074E-09  6.31856E-09  6.65257E-09
   6.88543E-09  7.11143E-09  7.26801E-09  7.16572E-09  7.05413E-09  7.04517E-09  6.94217E-09  6.80482E-09  6.71557E-09  6.65701E-09
   6.61772E-09  6.59093E-09  6.57204E-09  6.55815E-09  6.54715E-09  6.53709E-09  6.52655E-09  6.51435E-09  6.49947E-09  6.48215E-09
   6.46582E-09  6.47547E-09  6.59196E-09  6.72499E-09  6.86144E-09  7.15955E-09  7.51406E-09  7.83678E-09  8.17938E-09  8.52102E-09
   8.80030E-09  8.96046E-09  8.98171E-09  8.93150E-09  8.92396E-09  8.72125E-09  8.38774E-09  8.26788E-09  8.14941E-09  7.96345E-09
   7.86977E-09  7.80169E-09  7.73279E-09  7.76886E-09  7.84872E-09  7.90868E-09  8.03186E-09  8.20494E-09  8.38005E-09  8.55103E-09
   8.67784E-09  8.78827E-09  8.92790E-09  8.94322E-09  8.84197E-09  8.84050E-09  8.78523E-09  8.60997E-09  8.49425E-09  8.39757E-09
   8.27562E-09  8.16812E-09  8.07529E-09  7.99284E-09  7.91762E-09  7.84741E-09  7.78072E-09  7.71656E-09  7.65416E-09  7.59292E-09
   7.53246E-09  7.47213E-09  7.41168E-09  7.35088E-09  7.28956E-09  7.22761E-09  7.16487E-09  7.10115E-09  7.03631E-09  6.97034E-09
   6.90302E-09  6.83440E-09  6.76435E-09  6.69284E-09  6.61980E-09  6.54516E-09  6.46885E-09  6.39092E-09  6.31125E-09  6.22982E-09
   6.14662E-09  6.06157E-09  5.97471E-09  5.88597E-09  5.79532E-09  5.70271E-09  5.60823E-09  5.51174E-09  5.41327E-09  5.31275E-09
   5.21024E-09  5.10569E-09  4.99909E-09  4.89038E-09  4.77960E-09  4.66672E-09  4.55175E-09  4.43476E-09  4.31583E-09  4.19504E-09
   4.07246E-09  3.94820E-09  3.82232E-09  3.69493E-09  3.56611E-09  3.43598E-09  3.30466E-09  3.17227E-09  3.03899E-09  2.90500E-09
   2.77058E-09  2.63618E-09  2.50253E-09  2.37110E-09  2.24537E-09  2.13609E-09  2.09559E-09  2.29313E-09  2.54407E-09  2.76016E-09
   2.92640E-09  3.02008E-09  3.02066E-09  2.93683E-09  2.78177E-09  2.52074E-09  2.06648E-09  1.38218E-09  6.76510E-10  3.73798E-10
   1.73501E-10  4.99224E-12 -1.49167E-10 -2.95125E-10 -4.35654E-10 -5.72139E-10 -7.05312E-10 -8.35558E-10 -9.63212E-10 -1.08837E-09
  -1.21105E-09 -1.33137E-09 -1.44927E-09 -1.56477E-09 -1.67776E-09 -1.78825E-09 -1.89622E-09 -2.00152E-09 -2.10413E-09 -2.20402E-09
  -2.30110E-09 -2.39530E-09 -2.48654E-09 -2.57478E-09 -2.65996E-09 -2.74197E-09 -2.82077E-09 -2.89632E-09 -2.96854E-09 -3.03732E-09
  -3.10269E-09 -3.16452E-09 -3.22277E-09 -3.27739E-09 -3.32836E-09 -3.37555E-09 -3.41895E-09 -3.45855E-09 -3.49423E-09 -3.52609E-09
  -3.55417E-09 -3.57856E-09 -3.59930E-09 -3.61649E-09 -3.63018E-09 -3.64046E-09 -3.64739E-09 -3.65104E-09 -3.65150E-09 -3.64882E-09
