 LCModel (Version 6.3-1R) Copyright: S.W. Provencher.          Ref.: Magn. Reson. Med. 30:672-679 (1993).                
 onepulse 14x21_ftSpec_smooth_lcm
 26 lines in following concentration table = NCONC+1
    Conc.  %SD /Cr+PCr  Metabolite                                         
    0.000 999%   0.000 Ala                                                 
    0.000 999%   0.000 Asp                                                 
 2.22E-10 194%   1.000 Cr                                                  
 5.03E-10 155%   2.262 GABA                                                
    0.000 999%   0.000 Glc                                                 
 1.04E-10 845%   0.469 Gln                                                 
    0.000 999%   0.000 Glu                                                 
    0.000 999%   0.000 Glyc                                                
    0.000 999%   0.000 GPC                                                 
 1.11E-09  53%   4.990 GSH                                                 
 2.19E-09  17%   9.878 Ins                                                 
    0.000 999%   0.000 Lac                                                 
 1.49E-10 248%   0.669 NAAG                                                
 5.40E-10  90%   2.428 NAA                                                 
    0.000 999%   0.000 PCh                                                 
    0.000 999%   0.000 PCr                                                 
 2.73E-09  29%  12.291 PE                                                  
 2.15E-10  93%   0.967 Scyllo                                              
 3.16E-09  47%  14.235 Ser                                                 
    0.000 999%   0.000 Tau                                                 
    0.000 999%   0.000 GPC+PCh                                             
 6.88E-10  45%   3.097 NAA+NAAG                                            
 2.19E-09  17%   9.878 Ins+Glyc                                            
 2.22E-10 194%   1.000 Cr+PCr                                              
 1.04E-10 845%   0.469 Glu+Gln                                             
   6 lines in following misc. output table
  FWHM = 0.123 ppm    S/N =   3                                            
  Data shift = 0.447 ppm                                                   
  Ph:  85 deg       2.4 deg/ppm                                            
  alphaB,S = 1.0E+00,   1.3E+01                                            
    8 spline knots.   Ns = 5(1)                                            
  (12) 4 infls.   (11) 3 extrs.                                            
  363 points on ppm-axis = NY
      4.250000     4.238821     4.227641     4.216462     4.205282     4.194103     4.182923     4.171744     4.160564     4.149385
      4.138206     4.127026     4.115847     4.104667     4.093488     4.082308     4.071129     4.059949     4.048770     4.037591
      4.026411     4.015232     4.004052     3.992873     3.981693     3.970514     3.959334     3.948155     3.936975     3.925796
      3.914617     3.903437     3.892258     3.881078     3.869899     3.858719     3.847540     3.836360     3.825181     3.814002
      3.802822     3.791643     3.780463     3.769284     3.758104     3.746925     3.735745     3.724566     3.713387     3.702207
      3.691028     3.679848     3.668669     3.657489     3.646310     3.635130     3.623951     3.612772     3.601592     3.590413
      3.579233     3.568054     3.556874     3.545695     3.534515     3.523336     3.512156     3.500977     3.489798     3.478618
      3.467439     3.456259     3.445080     3.433900     3.422721     3.411541     3.400362     3.389183     3.378003     3.366824
      3.355644     3.344465     3.333285     3.322106     3.310926     3.299747     3.288568     3.277388     3.266209     3.255029
      3.243850     3.232670     3.221491     3.210311     3.199132     3.187953     3.176773     3.165594     3.154414     3.143235
      3.132055     3.120876     3.109696     3.098517     3.087337     3.076158     3.064979     3.053799     3.042620     3.031440
      3.020261     3.009081     2.997902     2.986722     2.975543     2.964364     2.953184     2.942005     2.930825     2.919646
      2.908466     2.897287     2.886107     2.874928     2.863749     2.852569     2.841390     2.830210     2.819031     2.807851
      2.796672     2.785492     2.774313     2.763134     2.751954     2.740775     2.729595     2.718416     2.707236     2.696057
      2.684877     2.673698     2.662519     2.651339     2.640160     2.628980     2.617801     2.606621     2.595442     2.584262
      2.573083     2.561903     2.550724     2.539545     2.528365     2.517186     2.506006     2.494827     2.483647     2.472468
      2.461288     2.450109     2.438930     2.427750     2.416571     2.405391     2.394212     2.383032     2.371853     2.360673
      2.349494     2.338315     2.327135     2.315956     2.304776     2.293597     2.282417     2.271238     2.260058     2.248879
      2.237700     2.226520     2.215341     2.204161     2.192982     2.181802     2.170623     2.159443     2.148264     2.137084
      2.125905     2.114726     2.103546     2.092367     2.081187     2.070008     2.058828     2.047649     2.036469     2.025290
      2.014111     2.002931     1.991752     1.980572     1.969393     1.958213     1.947034     1.935854     1.924675     1.913496
      1.902316     1.891137     1.879957     1.868778     1.857598     1.846419     1.835239     1.824060     1.812881     1.801701
      1.790522     1.779342     1.768163     1.756983     1.745804     1.734624     1.723445     1.712265     1.701086     1.689907
      1.678727     1.667548     1.656368     1.645189     1.634009     1.622830     1.611650     1.600471     1.589292     1.578112
      1.566933     1.555753     1.544574     1.533394     1.522215     1.511035     1.499856     1.488677     1.477497     1.466318
      1.455138     1.443959     1.432779     1.421600     1.410420     1.399241     1.388062     1.376882     1.365703     1.354523
      1.343344     1.332164     1.320985     1.309805     1.298626     1.287446     1.276267     1.265088     1.253908     1.242729
      1.231549     1.220370     1.209190     1.198011     1.186831     1.175652     1.164473     1.153293     1.142114     1.130934
      1.119755     1.108575     1.097396     1.086216     1.075037     1.063858     1.052678     1.041499     1.030319     1.019140
      1.007960     0.996781     0.985601     0.974422     0.963243     0.952063     0.940884     0.929704     0.918525     0.907345
      0.896166     0.884986     0.873807     0.862628     0.851448     0.840269     0.829089     0.817910     0.806730     0.795551
      0.784371     0.773192     0.762012     0.750833     0.739654     0.728474     0.717295     0.706115     0.694936     0.683756
      0.672577     0.661397     0.650218     0.639039     0.627859     0.616680     0.605500     0.594321     0.583141     0.571962
      0.560782     0.549603     0.538424     0.527244     0.516065     0.504885     0.493706     0.482526     0.471347     0.460167
      0.448988     0.437809     0.426629     0.415450     0.404270     0.393091     0.381911     0.370732     0.359552     0.348373
      0.337193     0.326014     0.314835     0.303655     0.292476     0.281296     0.270117     0.258937     0.247758     0.236578
      0.225399     0.214220     0.203040
 NY phased data points follow
   1.11487E-08  1.15693E-08  1.14308E-08  1.19725E-08  1.09948E-08  1.21836E-08  1.14675E-08  1.22048E-08  1.16444E-08  1.25472E-08
   1.12150E-08  1.19660E-08  1.10849E-08  1.15376E-08  1.05649E-08  1.14636E-08  1.07518E-08  1.24406E-08  1.04492E-08  1.25299E-08
   1.09340E-08  1.13664E-08  1.05374E-08  1.27736E-08  1.21509E-08  1.33276E-08  1.33855E-08  1.28392E-08  1.14974E-08  1.17280E-08
   1.02210E-08  1.05830E-08  9.55426E-09  1.06329E-08  8.76340E-09  9.83754E-09  8.99719E-09  8.74549E-09  8.02323E-09  7.78723E-09
   7.12744E-09  8.19630E-09  7.48049E-09  7.70812E-09  7.26409E-09  7.71800E-09  6.93411E-09  7.82792E-09  6.73771E-09  6.89659E-09
   5.86713E-09  7.17898E-09  6.08853E-09  8.04359E-09  7.96922E-09  1.11768E-08  1.03556E-08  1.16878E-08  1.07485E-08  1.16828E-08
   9.92831E-09  1.01324E-08  8.46291E-09  8.68603E-09  7.69274E-09  8.15921E-09  6.32484E-09  6.82587E-09  6.80094E-09  7.52592E-09
   8.04582E-09  1.00540E-08  1.14123E-08  1.35400E-08  1.36625E-08  1.37962E-08  1.29720E-08  1.33952E-08  1.26420E-08  1.29438E-08
   1.15907E-08  1.19658E-08  1.15063E-08  1.18662E-08  1.11146E-08  1.12087E-08  9.81737E-09  1.04686E-08  9.68812E-09  1.00847E-08
   8.84187E-09  9.19443E-09  9.20221E-09  9.19008E-09  8.28927E-09  9.32167E-09  7.96217E-09  8.85663E-09  7.75958E-09  8.32706E-09
   6.97650E-09  7.24336E-09  6.62297E-09  6.15770E-09  6.04502E-09  6.11682E-09  5.78103E-09  6.64750E-09  5.94096E-09  7.13766E-09
   6.10205E-09  6.46685E-09  6.32626E-09  7.35632E-09  6.25165E-09  6.64527E-09  6.05910E-09  5.95984E-09  4.77918E-09  5.09476E-09
   5.09924E-09  5.26737E-09  4.59475E-09  4.87724E-09  4.23729E-09  5.46665E-09  4.58377E-09  4.36907E-09  4.75203E-09  4.45800E-09
   4.13262E-09  4.52030E-09  5.31710E-09  5.59312E-09  5.42346E-09  5.80949E-09  5.54251E-09  6.45454E-09  6.50187E-09  6.74074E-09
   6.80323E-09  7.19843E-09  7.12865E-09  7.27542E-09  7.46871E-09  7.49498E-09  6.98864E-09  7.05608E-09  6.96871E-09  7.04800E-09
   7.10757E-09  7.41014E-09  7.30280E-09  8.09973E-09  7.27430E-09  6.88738E-09  6.78187E-09  6.78451E-09  5.98062E-09  6.51640E-09
   7.15159E-09  8.87923E-09  1.04600E-08  1.33927E-08  1.55651E-08  1.75957E-08  1.76087E-08  1.82722E-08  1.76915E-08  1.87372E-08
   1.74399E-08  1.78290E-08  1.76739E-08  1.84508E-08  1.76312E-08  1.76889E-08  1.77241E-08  1.75143E-08  1.67346E-08  1.68178E-08
   1.61691E-08  1.55652E-08  1.49689E-08  1.36046E-08  1.25788E-08  1.09864E-08  9.53931E-09  7.68551E-09  5.05444E-09  3.25792E-09
   2.74426E-10 -1.23327E-09 -4.29325E-09 -5.64895E-09 -7.59375E-09 -9.49131E-09 -1.12325E-08 -1.11497E-08 -1.21861E-08 -1.21199E-08
  -1.14782E-08 -1.10122E-08 -9.83372E-09 -8.71153E-09 -7.50690E-09 -5.81567E-09 -4.33285E-09 -2.95264E-09 -3.49416E-09 -2.45677E-09
  -2.13569E-09 -1.73419E-09 -2.20027E-09 -2.14858E-09 -2.19276E-09 -2.29695E-09 -1.85238E-09 -2.16701E-09 -1.23192E-09 -1.58399E-09
  -1.03665E-09 -5.10486E-10 -1.04231E-09 -1.67244E-09 -1.50250E-09 -1.97030E-09 -1.90441E-09 -1.61804E-09 -1.14825E-09 -1.28319E-09
  -7.50546E-10 -1.04026E-09 -7.63899E-10 -6.35424E-10 -1.04062E-09 -1.49104E-09 -1.25344E-09 -1.33233E-09 -1.53654E-09 -1.64197E-09
  -1.63693E-09 -1.32737E-09 -1.23277E-09 -1.28605E-09 -9.84201E-10 -4.90677E-10 -6.60390E-10 -3.04352E-10 -2.42388E-10 -5.68946E-10
  -5.08576E-10 -3.27610E-10 -8.35631E-10 -1.13381E-09 -7.66774E-10 -1.66623E-09 -1.85808E-09 -1.73106E-09 -1.93679E-09 -1.97583E-09
  -1.39167E-09 -1.56971E-09 -1.57663E-09 -1.43197E-09 -1.89684E-09 -1.15006E-09 -1.19851E-09 -1.02581E-09 -6.11540E-10 -8.15309E-10
  -4.68249E-10 -6.07836E-10 -4.51758E-10 -3.74140E-10 -2.49269E-10 -7.51074E-10 -8.42648E-10 -6.84875E-10 -1.66801E-10 -4.19468E-10
  -6.20875E-10 -3.15913E-10 -2.77086E-10 -1.17836E-09 -3.99677E-10 -8.52102E-10 -1.00537E-09 -6.35412E-10 -7.32877E-10 -1.34069E-09
  -1.03256E-09 -8.27269E-10 -1.37633E-09 -1.08479E-09 -1.46308E-09 -1.23224E-09 -1.65213E-09 -1.57111E-09 -1.57313E-09 -1.62577E-09
  -1.87643E-09 -1.81617E-09 -1.57438E-09 -1.59465E-09 -1.91058E-09 -1.89810E-09 -1.77790E-09 -1.85741E-09 -1.94140E-09 -2.67387E-09
  -1.83089E-09 -2.45034E-09 -2.05651E-09 -2.04563E-09 -2.17897E-09 -2.57939E-09 -2.33212E-09 -2.09089E-09 -2.11805E-09 -2.35189E-09
  -2.44471E-09 -2.35086E-09 -2.22143E-09 -2.84691E-09 -2.07207E-09 -2.78523E-09 -3.02564E-09 -2.74692E-09 -2.61169E-09 -2.70119E-09
  -2.60071E-09 -2.61345E-09 -2.72451E-09 -2.94742E-09 -2.03479E-09 -3.24233E-09 -2.60629E-09 -2.94116E-09 -2.24461E-09 -2.73889E-09
  -2.36235E-09 -3.61546E-09 -2.69238E-09 -2.63463E-09 -2.80648E-09 -3.02927E-09 -2.44109E-09 -3.00361E-09 -2.81371E-09 -3.01532E-09
  -3.05341E-09 -3.14130E-09 -2.67725E-09 -3.37172E-09 -2.72979E-09 -2.81649E-09 -2.53624E-09 -3.10274E-09 -3.18621E-09 -3.12010E-09
  -2.30033E-09 -2.82749E-09 -2.79923E-09
 NY points of the fit to the data follow
   1.33705E-08  1.10710E-08  1.07807E-08  1.09361E-08  1.16429E-08  1.16854E-08  1.13168E-08  1.20985E-08  1.29357E-08  1.16837E-08
   1.12127E-08  1.08831E-08  1.10166E-08  1.18179E-08  1.18094E-08  1.11312E-08  1.11286E-08  1.25794E-08  1.18329E-08  9.57188E-09
   9.70224E-09  1.14580E-08  1.23352E-08  1.26125E-08  1.27131E-08  1.33826E-08  1.32185E-08  1.24153E-08  1.12799E-08  1.12026E-08
   1.12243E-08  1.08738E-08  1.00005E-08  9.46921E-09  9.01015E-09  8.58719E-09  8.16019E-09  8.24645E-09  8.22457E-09  8.21746E-09
   8.25613E-09  8.22391E-09  7.69091E-09  7.25726E-09  7.03843E-09  6.89608E-09  6.90143E-09  6.71178E-09  7.14986E-09  7.70021E-09
   8.34680E-09  8.67387E-09  8.86222E-09  9.27028E-09  9.42205E-09  9.37245E-09  9.68449E-09  9.86592E-09  9.85103E-09  9.69179E-09
   9.55002E-09  9.38470E-09  9.45141E-09  9.34724E-09  9.20309E-09  9.40016E-09  9.52560E-09  9.41501E-09  9.55199E-09  1.00154E-08
   1.03016E-08  1.03553E-08  1.06812E-08  1.08986E-08  1.11010E-08  1.14950E-08  1.21474E-08  1.32232E-08  1.29419E-08  1.22945E-08
   1.16394E-08  1.13895E-08  1.12549E-08  1.08169E-08  1.06332E-08  1.04918E-08  9.90679E-09  8.79613E-09  7.29896E-09  7.22661E-09
   7.26200E-09  7.35692E-09  7.46887E-09  7.40694E-09  7.35177E-09  7.44446E-09  7.40070E-09  7.31722E-09  7.33685E-09  7.32572E-09
   7.30840E-09  7.31173E-09  7.31449E-09  7.31779E-09  7.32158E-09  7.32431E-09  7.32510E-09  7.32376E-09  7.31996E-09  7.31382E-09
   7.30537E-09  7.29446E-09  7.28124E-09  7.26574E-09  7.24805E-09  7.22833E-09  7.20655E-09  7.18272E-09  7.15688E-09  7.12915E-09
   7.09946E-09  7.06799E-09  7.03469E-09  6.99965E-09  6.96289E-09  6.92442E-09  6.88427E-09  6.84256E-09  6.79924E-09  6.75437E-09
   6.70799E-09  6.66009E-09  6.61079E-09  6.56007E-09  6.50797E-09  6.45449E-09  6.39979E-09  6.34379E-09  6.28661E-09  6.22824E-09
   6.16880E-09  6.10833E-09  6.04692E-09  5.98459E-09  5.92151E-09  5.85777E-09  5.79350E-09  5.72892E-09  5.66424E-09  5.59975E-09
   5.53577E-09  5.47273E-09  5.41111E-09  5.35159E-09  5.29499E-09  5.24245E-09  5.19550E-09  5.15632E-09  5.12813E-09  5.11577E-09
   5.12710E-09  5.17570E-09  5.28702E-09  5.51527E-09  5.99826E-09  7.20298E-09  1.15101E-08  1.90866E-08  2.08313E-08  1.95999E-08
   1.86264E-08  1.84364E-08  1.84449E-08  1.85420E-08  1.89886E-08  2.01802E-08  2.05951E-08  1.59306E-08  7.25460E-09  4.45448E-09
   3.52392E-09  3.05844E-09  2.76431E-09  2.54968E-09  2.37753E-09  2.23041E-09  2.09915E-09  1.97857E-09  1.86542E-09  1.75776E-09
   1.65431E-09  1.55413E-09  1.45663E-09  1.36139E-09  1.26815E-09  1.17664E-09  1.08670E-09  9.98298E-10  9.11319E-10  8.25678E-10
   7.41376E-10  6.58393E-10  5.76736E-10  4.96386E-10  4.17332E-10  3.39645E-10  2.63298E-10  1.88313E-10  1.14702E-10  4.25578E-11
  -2.81983E-11 -9.74582E-11 -1.65217E-10 -2.31458E-10 -2.96174E-10 -3.59272E-10 -4.20766E-10 -4.80645E-10 -5.38828E-10 -5.95377E-10
  -6.50296E-10 -7.03632E-10 -7.55396E-10 -8.05632E-10 -8.54350E-10 -9.01602E-10 -9.47404E-10 -9.91784E-10 -1.03477E-09 -1.07640E-09
  -1.11669E-09 -1.15568E-09 -1.19340E-09 -1.22986E-09 -1.26511E-09 -1.29918E-09 -1.33208E-09 -1.36385E-09 -1.39452E-09 -1.42411E-09
  -1.45266E-09 -1.48020E-09 -1.50675E-09 -1.53234E-09 -1.55699E-09 -1.58075E-09 -1.60363E-09 -1.62567E-09 -1.64689E-09 -1.66732E-09
  -1.68699E-09 -1.70592E-09 -1.72416E-09 -1.74170E-09 -1.75858E-09 -1.77486E-09 -1.79053E-09 -1.80562E-09 -1.82017E-09 -1.83419E-09
  -1.84772E-09 -1.86079E-09 -1.87341E-09 -1.88561E-09 -1.89741E-09 -1.90884E-09 -1.91994E-09 -1.93070E-09 -1.94116E-09 -1.95136E-09
  -1.96129E-09 -1.97099E-09 -1.98048E-09 -1.98978E-09 -1.99893E-09 -2.00791E-09 -2.01678E-09 -2.02554E-09 -2.03421E-09 -2.04281E-09
  -2.05137E-09 -2.05989E-09 -2.06841E-09 -2.07692E-09 -2.08546E-09 -2.09404E-09 -2.10268E-09 -2.11136E-09 -2.12015E-09 -2.12903E-09
  -2.13801E-09 -2.14711E-09 -2.15630E-09 -2.16558E-09 -2.17491E-09 -2.18430E-09 -2.19370E-09 -2.20312E-09 -2.21253E-09 -2.22192E-09
  -2.23128E-09 -2.24057E-09 -2.24980E-09 -2.25894E-09 -2.26798E-09 -2.27690E-09 -2.28568E-09 -2.29432E-09 -2.30279E-09 -2.31108E-09
  -2.31918E-09 -2.32707E-09 -2.33473E-09 -2.34215E-09 -2.34932E-09 -2.35623E-09 -2.36285E-09 -2.36918E-09 -2.37519E-09 -2.38089E-09
  -2.38625E-09 -2.39126E-09 -2.39591E-09 -2.40018E-09 -2.40406E-09 -2.40755E-09 -2.41062E-09 -2.41327E-09 -2.41549E-09 -2.41725E-09
  -2.41856E-09 -2.41940E-09 -2.41976E-09 -2.41963E-09 -2.41899E-09 -2.41785E-09 -2.41618E-09 -2.41398E-09 -2.41124E-09 -2.40794E-09
  -2.40409E-09 -2.39966E-09 -2.39467E-09 -2.38909E-09 -2.38290E-09 -2.37613E-09 -2.36874E-09 -2.36073E-09 -2.35210E-09 -2.34285E-09
  -2.33295E-09 -2.32241E-09 -2.31122E-09 -2.29938E-09 -2.28688E-09 -2.27371E-09 -2.25987E-09 -2.24535E-09 -2.23016E-09 -2.21428E-09
  -2.19771E-09 -2.18045E-09 -2.16250E-09
 NY background values follow
     7.789E-09    7.849E-09    7.908E-09    7.966E-09    8.023E-09    8.078E-09    8.132E-09    8.185E-09    8.237E-09    8.287E-09
     8.336E-09    8.384E-09    8.430E-09    8.475E-09    8.519E-09    8.562E-09    8.603E-09    8.643E-09    8.682E-09    8.719E-09
     8.756E-09    8.791E-09    8.825E-09    8.857E-09    8.888E-09    8.919E-09    8.947E-09    8.975E-09    9.002E-09    9.027E-09
     9.051E-09    9.074E-09    9.095E-09    9.116E-09    9.135E-09    9.153E-09    9.170E-09    9.186E-09    9.200E-09    9.213E-09
     9.226E-09    9.237E-09    9.246E-09    9.255E-09    9.263E-09    9.269E-09    9.275E-09    9.279E-09    9.282E-09    9.284E-09
     9.285E-09    9.285E-09    9.284E-09    9.281E-09    9.278E-09    9.273E-09    9.268E-09    9.261E-09    9.254E-09    9.245E-09
     9.236E-09    9.225E-09    9.213E-09    9.201E-09    9.187E-09    9.172E-09    9.157E-09    9.140E-09    9.123E-09    9.104E-09
     9.085E-09    9.065E-09    9.043E-09    9.021E-09    8.998E-09    8.974E-09    8.949E-09    8.923E-09    8.897E-09    8.869E-09
     8.841E-09    8.811E-09    8.781E-09    8.750E-09    8.717E-09    8.684E-09    8.650E-09    8.615E-09    8.579E-09    8.542E-09
     8.505E-09    8.466E-09    8.426E-09    8.386E-09    8.344E-09    8.302E-09    8.258E-09    8.214E-09    8.169E-09    8.122E-09
     8.075E-09    8.027E-09    7.978E-09    7.928E-09    7.876E-09    7.824E-09    7.771E-09    7.717E-09    7.662E-09    7.606E-09
     7.549E-09    7.491E-09    7.432E-09    7.372E-09    7.311E-09    7.249E-09    7.186E-09    7.123E-09    7.057E-09    6.992E-09
     6.924E-09    6.856E-09    6.787E-09    6.717E-09    6.646E-09    6.574E-09    6.501E-09    6.427E-09    6.351E-09    6.275E-09
     6.198E-09    6.119E-09    6.040E-09    5.959E-09    5.878E-09    5.795E-09    5.712E-09    5.627E-09    5.541E-09    5.454E-09
     5.366E-09    5.277E-09    5.187E-09    5.096E-09    5.004E-09    4.911E-09    4.817E-09    4.721E-09    4.625E-09    4.528E-09
     4.430E-09    4.331E-09    4.231E-09    4.130E-09    4.029E-09    3.927E-09    3.824E-09    3.720E-09    3.616E-09    3.512E-09
     3.407E-09    3.301E-09    3.196E-09    3.089E-09    2.983E-09    2.876E-09    2.769E-09    2.661E-09    2.554E-09    2.446E-09
     2.339E-09    2.231E-09    2.123E-09    2.016E-09    1.908E-09    1.801E-09    1.694E-09    1.587E-09    1.480E-09    1.373E-09
     1.267E-09    1.162E-09    1.057E-09    9.519E-10    8.477E-10    7.440E-10    6.410E-10    5.387E-10    4.370E-10    3.360E-10
     2.358E-10    1.365E-10    3.794E-11   -5.970E-11   -1.564E-10   -2.521E-10   -3.468E-10   -4.404E-10   -5.330E-10   -6.244E-10
    -7.146E-10   -8.037E-10   -8.915E-10   -9.780E-10   -1.063E-09   -1.147E-09   -1.229E-09   -1.310E-09   -1.390E-09   -1.468E-09
    -1.545E-09   -1.620E-09   -1.693E-09   -1.765E-09   -1.835E-09   -1.903E-09   -1.970E-09   -2.034E-09   -2.097E-09   -2.159E-09
    -2.218E-09   -2.276E-09   -2.332E-09   -2.387E-09   -2.440E-09   -2.491E-09   -2.541E-09   -2.589E-09   -2.635E-09   -2.680E-09
    -2.724E-09   -2.766E-09   -2.807E-09   -2.847E-09   -2.885E-09   -2.921E-09   -2.957E-09   -2.991E-09   -3.024E-09   -3.056E-09
    -3.087E-09   -3.116E-09   -3.145E-09   -3.172E-09   -3.199E-09   -3.224E-09   -3.248E-09   -3.272E-09   -3.294E-09   -3.316E-09
    -3.336E-09   -3.356E-09   -3.375E-09   -3.393E-09   -3.411E-09   -3.428E-09   -3.444E-09   -3.459E-09   -3.474E-09   -3.488E-09
    -3.501E-09   -3.514E-09   -3.527E-09   -3.538E-09   -3.550E-09   -3.561E-09   -3.571E-09   -3.581E-09   -3.591E-09   -3.600E-09
    -3.609E-09   -3.617E-09   -3.626E-09   -3.634E-09   -3.641E-09   -3.649E-09   -3.656E-09   -3.663E-09   -3.670E-09   -3.677E-09
    -3.683E-09   -3.690E-09   -3.696E-09   -3.703E-09   -3.709E-09   -3.715E-09   -3.721E-09   -3.727E-09   -3.734E-09   -3.740E-09
    -3.746E-09   -3.752E-09   -3.758E-09   -3.765E-09   -3.771E-09   -3.777E-09   -3.783E-09   -3.789E-09   -3.795E-09   -3.801E-09
    -3.807E-09   -3.812E-09   -3.818E-09   -3.823E-09   -3.828E-09   -3.833E-09   -3.838E-09   -3.843E-09   -3.847E-09   -3.851E-09
    -3.855E-09   -3.858E-09   -3.861E-09   -3.864E-09   -3.867E-09   -3.869E-09   -3.871E-09   -3.872E-09   -3.874E-09   -3.874E-09
    -3.875E-09   -3.875E-09   -3.874E-09   -3.873E-09   -3.872E-09   -3.870E-09   -3.868E-09   -3.865E-09   -3.862E-09   -3.858E-09
    -3.854E-09   -3.849E-09   -3.843E-09   -3.838E-09   -3.831E-09   -3.824E-09   -3.816E-09   -3.808E-09   -3.799E-09   -3.790E-09
    -3.780E-09   -3.769E-09   -3.758E-09   -3.746E-09   -3.734E-09   -3.720E-09   -3.706E-09   -3.692E-09   -3.677E-09   -3.661E-09
    -3.644E-09   -3.627E-09   -3.609E-09   -3.590E-09   -3.571E-09   -3.551E-09   -3.530E-09   -3.509E-09   -3.486E-09   -3.463E-09
    -3.440E-09   -3.415E-09   -3.390E-09
 Cr       Conc. = 2.22E-10
   8.05636E-09  7.97144E-09  7.72601E-09  7.58770E-09  7.74005E-09  7.86841E-09  7.97481E-09  8.06735E-09  8.15070E-09  8.22747E-09
   8.29933E-09  8.36737E-09  8.43232E-09  8.49473E-09  8.55505E-09  8.61361E-09  8.67073E-09  8.72672E-09  8.78187E-09  8.83650E-09
   8.89096E-09  8.94571E-09  9.00130E-09  9.05849E-09  9.11830E-09  9.18233E-09  9.25303E-09  9.33462E-09  9.43507E-09  9.57198E-09
   9.79400E-09  1.02427E-08  1.02520E-08  1.00277E-08  9.87435E-09  9.81601E-09  9.77917E-09  9.74134E-09  9.70554E-09  9.68752E-09
   9.62785E-09  9.33586E-09  8.77773E-09  8.68805E-09  8.78086E-09  8.85650E-09  8.91392E-09  8.95841E-09  8.99366E-09  9.02205E-09
   9.04503E-09  9.06369E-09  9.07868E-09  9.09058E-09  9.09980E-09  9.10654E-09  9.11111E-09  9.11374E-09  9.11439E-09  9.11338E-09
   9.11075E-09  9.10652E-09  9.10085E-09  9.09373E-09  9.08531E-09  9.07554E-09  9.06451E-09  9.05222E-09  9.03874E-09  9.02411E-09
   9.00832E-09  8.99140E-09  8.97345E-09  8.95437E-09  8.93427E-09  8.91312E-09  8.89094E-09  8.86774E-09  8.84352E-09  8.81829E-09
   8.79204E-09  8.76480E-09  8.73655E-09  8.70730E-09  8.67708E-09  8.64585E-09  8.61363E-09  8.58043E-09  8.54625E-09  8.51108E-09
   8.47491E-09  8.43778E-09  8.39964E-09  8.36055E-09  8.32046E-09  8.27936E-09  8.23730E-09  8.19425E-09  8.15021E-09  8.10518E-09
   8.05916E-09  8.01215E-09  7.96414E-09  7.91517E-09  7.86516E-09  7.81417E-09  7.76217E-09  7.70919E-09  7.65521E-09  7.60017E-09
   7.54419E-09  7.48716E-09  7.42912E-09  7.37005E-09  7.30997E-09  7.24888E-09  7.18677E-09  7.12364E-09  7.05946E-09  6.99430E-09
   6.92805E-09  6.86081E-09  6.79250E-09  6.72318E-09  6.65282E-09  6.58141E-09  6.50891E-09  6.43543E-09  6.36087E-09  6.28526E-09
   6.20861E-09  6.13087E-09  6.05211E-09  5.97229E-09  5.89141E-09  5.80942E-09  5.72645E-09  5.64237E-09  5.55725E-09  5.47102E-09
   5.38376E-09  5.29543E-09  5.20604E-09  5.11555E-09  5.02402E-09  4.93143E-09  4.83778E-09  4.74312E-09  4.64748E-09  4.55092E-09
   4.45348E-09  4.35521E-09  4.25613E-09  4.15634E-09  4.05585E-09  3.95475E-09  3.85310E-09  3.75098E-09  3.64850E-09  3.54578E-09
   3.44299E-09  3.34045E-09  3.23865E-09  3.13861E-09  3.04279E-09  2.95909E-09  2.92654E-09  3.00803E-09  2.94145E-09  2.80593E-09
   2.67802E-09  2.56953E-09  2.46468E-09  2.36136E-09  2.26382E-09  2.18481E-09  2.10100E-09  1.91524E-09  1.59850E-09  1.44066E-09
   1.31823E-09  1.20529E-09  1.09618E-09  9.89193E-10  8.83580E-10  7.79028E-10  6.75404E-10  5.72683E-10  4.70749E-10  3.69649E-10
   2.69431E-10  1.70043E-10  7.15550E-11 -2.60240E-11 -1.22610E-10 -2.18218E-10 -3.12833E-10 -4.06340E-10 -4.98740E-10 -5.90032E-10
  -6.80146E-10 -7.69048E-10 -8.56688E-10 -9.43050E-10 -1.02811E-09 -1.11179E-09 -1.19408E-09 -1.27495E-09 -1.35438E-09 -1.43226E-09
  -1.50866E-09 -1.58347E-09 -1.65668E-09 -1.72826E-09 -1.79820E-09 -1.86641E-09 -1.93291E-09 -1.99766E-09 -2.06061E-09 -2.12179E-09
  -2.18122E-09 -2.23895E-09 -2.29498E-09 -2.34936E-09 -2.40210E-09 -2.45325E-09 -2.50282E-09 -2.55085E-09 -2.59736E-09 -2.64239E-09
  -2.68597E-09 -2.72812E-09 -2.76887E-09 -2.80825E-09 -2.84630E-09 -2.88304E-09 -2.91851E-09 -2.95272E-09 -2.98572E-09 -3.01752E-09
  -3.04817E-09 -3.07769E-09 -3.10610E-09 -3.13345E-09 -3.15975E-09 -3.18503E-09 -3.20933E-09 -3.23268E-09 -3.25510E-09 -3.27662E-09
  -3.29728E-09 -3.31709E-09 -3.33610E-09 -3.35430E-09 -3.37175E-09 -3.38849E-09 -3.40451E-09 -3.41986E-09 -3.43456E-09 -3.44863E-09
  -3.46211E-09 -3.47503E-09 -3.48740E-09 -3.49926E-09 -3.51062E-09 -3.52151E-09 -3.53198E-09 -3.54201E-09 -3.55165E-09 -3.56092E-09
  -3.56984E-09 -3.57844E-09 -3.58674E-09 -3.59475E-09 -3.60252E-09 -3.61004E-09 -3.61735E-09 -3.62447E-09 -3.63140E-09 -3.63819E-09
  -3.64484E-09 -3.65138E-09 -3.65782E-09 -3.66417E-09 -3.67047E-09 -3.67672E-09 -3.68294E-09 -3.68914E-09 -3.69535E-09 -3.70157E-09
  -3.70782E-09 -3.71411E-09 -3.72041E-09 -3.72671E-09 -3.73299E-09 -3.73925E-09 -3.74545E-09 -3.75159E-09 -3.75764E-09 -3.76360E-09
  -3.76945E-09 -3.77517E-09 -3.78074E-09 -3.78616E-09 -3.79140E-09 -3.79645E-09 -3.80129E-09 -3.80592E-09 -3.81031E-09 -3.81445E-09
  -3.81833E-09 -3.82193E-09 -3.82524E-09 -3.82825E-09 -3.83093E-09 -3.83328E-09 -3.83529E-09 -3.83693E-09 -3.83820E-09 -3.83908E-09
  -3.83957E-09 -3.83964E-09 -3.83929E-09 -3.83851E-09 -3.83727E-09 -3.83557E-09 -3.83341E-09 -3.83075E-09 -3.82761E-09 -3.82396E-09
  -3.81980E-09 -3.81510E-09 -3.80987E-09 -3.80409E-09 -3.79776E-09 -3.79086E-09 -3.78338E-09 -3.77532E-09 -3.76666E-09 -3.75740E-09
  -3.74753E-09 -3.73703E-09 -3.72591E-09 -3.71415E-09 -3.70175E-09 -3.68870E-09 -3.67498E-09 -3.66061E-09 -3.64556E-09 -3.62984E-09
  -3.61343E-09 -3.59633E-09 -3.57854E-09 -3.56004E-09 -3.54084E-09 -3.52093E-09 -3.50031E-09 -3.47897E-09 -3.45691E-09 -3.43412E-09
  -3.41060E-09 -3.38634E-09 -3.36136E-09
 GABA     Conc. = 5.03E-10
   8.04340E-09  8.10858E-09  8.17270E-09  8.23577E-09  8.29783E-09  8.35891E-09  8.41902E-09  8.47820E-09  8.53652E-09  8.59399E-09
   8.65068E-09  8.70670E-09  8.76204E-09  8.81681E-09  8.87120E-09  8.92517E-09  8.97894E-09  9.03289E-09  9.08706E-09  9.14175E-09
   9.19753E-09  9.25485E-09  9.31446E-09  9.37746E-09  9.44534E-09  9.52060E-09  9.60757E-09  9.71387E-09  9.85386E-09  1.00004E-08
   9.96801E-09  1.00711E-08  1.02970E-08  1.02140E-08  1.01172E-08  1.01907E-08  1.01702E-08  1.00850E-08  9.96592E-09  9.79731E-09
   9.67142E-09  9.71490E-09  9.51567E-09  9.25586E-09  9.34408E-09  9.35094E-09  9.22399E-09  9.23536E-09  9.26937E-09  9.30561E-09
   9.34053E-09  9.37331E-09  9.40489E-09  9.43618E-09  9.46779E-09  9.50075E-09  9.53677E-09  9.57808E-09  9.62824E-09  9.69411E-09
   9.78796E-09  9.93179E-09  9.96571E-09  9.93099E-09  1.00982E-08  1.01257E-08  9.97456E-09  9.92889E-09  9.91470E-09  9.85271E-09
   9.75247E-09  9.59224E-09  9.39173E-09  9.33176E-09  9.26708E-09  8.98271E-09  8.90663E-09  8.96179E-09  8.90958E-09  8.92210E-09
   8.94950E-09  8.91625E-09  9.00528E-09  9.11392E-09  9.05466E-09  9.06492E-09  9.13619E-09  9.10774E-09  9.08045E-09  9.04649E-09
   8.94772E-09  8.89554E-09  8.88112E-09  8.70366E-09  8.55114E-09  8.55312E-09  8.42345E-09  8.25970E-09  8.20588E-09  8.13323E-09
   8.04783E-09  7.98299E-09  7.92654E-09  7.87369E-09  7.82223E-09  7.77109E-09  7.71981E-09  7.66811E-09  7.61578E-09  7.56270E-09
   7.50879E-09  7.45380E-09  7.39779E-09  7.34073E-09  7.28263E-09  7.22356E-09  7.16346E-09  7.10226E-09  7.03995E-09  6.97662E-09
   6.91211E-09  6.84659E-09  6.77995E-09  6.71224E-09  6.64345E-09  6.57356E-09  6.50254E-09  6.43048E-09  6.35732E-09  6.28306E-09
   6.20772E-09  6.13126E-09  6.05374E-09  5.97514E-09  5.89544E-09  5.81461E-09  5.73277E-09  5.64980E-09  5.56575E-09  5.48059E-09
   5.39437E-09  5.30708E-09  5.21872E-09  5.12923E-09  5.03871E-09  4.94711E-09  4.85446E-09  4.76080E-09  4.66617E-09  4.57064E-09
   4.47424E-09  4.37705E-09  4.27911E-09  4.18049E-09  4.08126E-09  3.98152E-09  3.88137E-09  3.78094E-09  3.68041E-09  3.58002E-09
   3.48011E-09  3.38134E-09  3.28474E-09  3.19259E-09  3.11034E-09  3.05562E-09  3.11499E-09  3.43573E-09  3.42266E-09  3.25228E-09
   3.09849E-09  2.98878E-09  2.88739E-09  2.78943E-09  2.70416E-09  2.66057E-09  2.60701E-09  2.32437E-09  1.74176E-09  1.51746E-09
   1.37398E-09  1.25171E-09  1.13767E-09  1.02779E-09  9.20380E-10  8.14676E-10  7.10300E-10  6.07089E-10  5.04846E-10  4.03561E-10
   3.03249E-10  2.03833E-10  1.05366E-10  7.84370E-12 -8.86582E-11 -1.84161E-10 -2.78656E-10 -3.72031E-10 -4.64290E-10 -5.55435E-10
  -6.45398E-10 -7.34147E-10 -8.21631E-10 -9.07836E-10 -9.92745E-10 -1.07626E-09 -1.15840E-09 -1.23912E-09 -1.31840E-09 -1.39613E-09
  -1.47239E-09 -1.54705E-09 -1.62012E-09 -1.69156E-09 -1.76137E-09 -1.82945E-09 -1.89582E-09 -1.96045E-09 -2.02327E-09 -2.08434E-09
  -2.14366E-09 -2.20128E-09 -2.25720E-09 -2.31147E-09 -2.36411E-09 -2.41516E-09 -2.46464E-09 -2.51258E-09 -2.55900E-09 -2.60394E-09
