 LCModel (Version 6.3-1R) Copyright: S.W. Provencher.          Ref.: Magn. Reson. Med. 30:672-679 (1993).                
 onepulse 14x7_ftSpec_smooth_lcm
 26 lines in following concentration table = NCONC+1
    Conc.  %SD /Cr+PCr  Metabolite                                         
 6.41E-10  39%   3.346 Ala                                                 
 4.25E-09  10%  22.183 Asp                                                 
 1.91E-10 127%   1.000 Cr                                                  
 1.78E-09  24%   9.315 GABA                                                
 2.00E-09  31%  10.457 Glc                                                 
    0.000 999%   0.000 Gln                                                 
    0.000 999%   0.000 Glu                                                 
    0.000 999%   0.000 Glyc                                                
 1.07E-10 448%   0.558 GPC                                                 
    0.000 999%   0.000 GSH                                                 
 7.87E-10  42%   4.110 Ins                                                 
    0.000 999%   0.000 Lac                                                 
    0.000 999%   0.000 NAAG                                                
    0.000 999%   0.000 NAA                                                 
    0.000 999%   0.000 PCh                                                 
    0.000 999%   0.000 PCr                                                 
    0.000 999%   0.000 PE                                                  
    0.000 999%   0.000 Scyllo                                              
    0.000 999%   0.000 Ser                                                 
    0.000 999%   0.000 Tau                                                 
 1.07E-10  70%   0.558 GPC+PCh                                             
    0.000 999%   0.000 NAA+NAAG                                            
 7.87E-10  42%   4.110 Ins+Glyc                                            
 1.91E-10 127%   1.000 Cr+PCr                                              
    0.000 999%   0.000 Glu+Gln                                             
   6 lines in following misc. output table
  FWHM = 0.112 ppm    S/N =   4                                            
  Data shift = 0.402 ppm                                                   
  Ph:-121 deg      48.0 deg/ppm                                            
  alphaB,S = 4.5E-01,   1.4E+01                                            
   10 spline knots.   Ns = 5(1)                                            
  ( 9) 5 infls.   ( 9) 3 extrs.                                            
  363 points on ppm-axis = NY
      4.250000     4.238821     4.227641     4.216462     4.205282     4.194103     4.182923     4.171744     4.160564     4.149385
      4.138206     4.127026     4.115847     4.104667     4.093488     4.082308     4.071129     4.059949     4.048770     4.037591
      4.026411     4.015232     4.004052     3.992873     3.981693     3.970514     3.959334     3.948155     3.936975     3.925796
      3.914617     3.903437     3.892258     3.881078     3.869899     3.858719     3.847540     3.836360     3.825181     3.814002
      3.802822     3.791643     3.780463     3.769284     3.758104     3.746925     3.735745     3.724566     3.713387     3.702207
      3.691028     3.679848     3.668669     3.657489     3.646310     3.635130     3.623951     3.612772     3.601592     3.590413
      3.579233     3.568054     3.556874     3.545695     3.534515     3.523336     3.512156     3.500977     3.489798     3.478618
      3.467439     3.456259     3.445080     3.433900     3.422721     3.411541     3.400362     3.389183     3.378003     3.366824
      3.355644     3.344465     3.333285     3.322106     3.310926     3.299747     3.288568     3.277388     3.266209     3.255029
      3.243850     3.232670     3.221491     3.210311     3.199132     3.187953     3.176773     3.165594     3.154414     3.143235
      3.132055     3.120876     3.109696     3.098517     3.087337     3.076158     3.064979     3.053799     3.042620     3.031440
      3.020261     3.009081     2.997902     2.986722     2.975543     2.964364     2.953184     2.942005     2.930825     2.919646
      2.908466     2.897287     2.886107     2.874928     2.863749     2.852569     2.841390     2.830210     2.819031     2.807851
      2.796672     2.785492     2.774313     2.763134     2.751954     2.740775     2.729595     2.718416     2.707236     2.696057
      2.684877     2.673698     2.662519     2.651339     2.640160     2.628980     2.617801     2.606621     2.595442     2.584262
      2.573083     2.561903     2.550724     2.539545     2.528365     2.517186     2.506006     2.494827     2.483647     2.472468
      2.461288     2.450109     2.438930     2.427750     2.416571     2.405391     2.394212     2.383032     2.371853     2.360673
      2.349494     2.338315     2.327135     2.315956     2.304776     2.293597     2.282417     2.271238     2.260058     2.248879
      2.237700     2.226520     2.215341     2.204161     2.192982     2.181802     2.170623     2.159443     2.148264     2.137084
      2.125905     2.114726     2.103546     2.092367     2.081187     2.070008     2.058828     2.047649     2.036469     2.025290
      2.014111     2.002931     1.991752     1.980572     1.969393     1.958213     1.947034     1.935854     1.924675     1.913496
      1.902316     1.891137     1.879957     1.868778     1.857598     1.846419     1.835239     1.824060     1.812881     1.801701
      1.790522     1.779342     1.768163     1.756983     1.745804     1.734624     1.723445     1.712265     1.701086     1.689907
      1.678727     1.667548     1.656368     1.645189     1.634009     1.622830     1.611650     1.600471     1.589292     1.578112
      1.566933     1.555753     1.544574     1.533394     1.522215     1.511035     1.499856     1.488677     1.477497     1.466318
      1.455138     1.443959     1.432779     1.421600     1.410420     1.399241     1.388062     1.376882     1.365703     1.354523
      1.343344     1.332164     1.320985     1.309805     1.298626     1.287446     1.276267     1.265088     1.253908     1.242729
      1.231549     1.220370     1.209190     1.198011     1.186831     1.175652     1.164473     1.153293     1.142114     1.130934
      1.119755     1.108575     1.097396     1.086216     1.075037     1.063858     1.052678     1.041499     1.030319     1.019140
      1.007960     0.996781     0.985601     0.974422     0.963243     0.952063     0.940884     0.929704     0.918525     0.907345
      0.896166     0.884986     0.873807     0.862628     0.851448     0.840269     0.829089     0.817910     0.806730     0.795551
      0.784371     0.773192     0.762012     0.750833     0.739654     0.728474     0.717295     0.706115     0.694936     0.683756
      0.672577     0.661397     0.650218     0.639039     0.627859     0.616680     0.605500     0.594321     0.583141     0.571962
      0.560782     0.549603     0.538424     0.527244     0.516065     0.504885     0.493706     0.482526     0.471347     0.460167
      0.448988     0.437809     0.426629     0.415450     0.404270     0.393091     0.381911     0.370732     0.359552     0.348373
      0.337193     0.326014     0.314835     0.303655     0.292476     0.281296     0.270117     0.258937     0.247758     0.236578
      0.225399     0.214220     0.203040
 NY phased data points follow
  -9.13712E-09 -8.56705E-09 -8.35312E-09 -8.01595E-09 -7.94758E-09 -8.06207E-09 -7.96677E-09 -8.37270E-09 -8.14527E-09 -9.28394E-09
  -9.02140E-09 -9.51916E-09 -8.74867E-09 -8.97443E-09 -9.06436E-09 -9.07450E-09 -8.40293E-09 -8.28383E-09 -7.69225E-09 -8.39682E-09
  -8.90742E-09 -8.91850E-09 -8.74019E-09 -8.16203E-09 -7.64937E-09 -7.33820E-09 -8.52895E-09 -9.42495E-09 -9.93146E-09 -9.59665E-09
  -8.86936E-09 -8.41176E-09 -7.69904E-09 -7.54952E-09 -7.27287E-09 -6.86522E-09 -6.67055E-09 -7.08576E-09 -6.76023E-09 -6.42600E-09
  -6.36598E-09 -6.03027E-09 -5.72836E-09 -5.46356E-09 -5.76234E-09 -5.38907E-09 -5.27383E-09 -5.55292E-09 -5.57300E-09 -5.08937E-09
  -4.85996E-09 -4.70116E-09 -4.81090E-09 -4.65617E-09 -5.35674E-09 -5.27843E-09 -5.77441E-09 -6.07970E-09 -7.27250E-09 -7.77133E-09
  -7.64146E-09 -6.65103E-09 -6.04672E-09 -5.39582E-09 -5.23887E-09 -4.29376E-09 -4.34017E-09 -3.77002E-09 -3.73696E-09 -3.26917E-09
  -3.49960E-09 -3.06510E-09 -3.46675E-09 -4.63962E-09 -6.85918E-09 -8.67438E-09 -7.85266E-09 -6.78856E-09 -5.78135E-09 -5.38445E-09
  -4.61157E-09 -3.49177E-09 -2.96580E-09 -2.87130E-09 -2.64460E-09 -2.15478E-09 -1.43689E-09 -1.54791E-09 -1.07085E-09 -5.01207E-10
  -7.53462E-10  1.10028E-10  3.88079E-10  5.81287E-10  9.77849E-10  1.09243E-09  4.55358E-10  5.06804E-10  7.40506E-10  1.20282E-09
   8.75020E-10  1.00145E-09  1.15096E-09  1.69070E-09  2.20283E-09  1.74642E-09  1.70436E-09  1.97034E-09  1.34813E-09  1.25290E-09
   1.43416E-09  1.36317E-09  1.12189E-09  1.23868E-09  1.42930E-09  1.22371E-09  1.03139E-09  1.71726E-09  2.04130E-09  2.12157E-09
   1.87986E-09  2.47314E-09  1.45991E-09  1.44838E-09  9.79515E-10  1.77501E-09  6.10104E-10  7.90317E-10 -1.59792E-11  1.15670E-09
   1.22211E-09  1.43099E-09  9.85307E-10  1.10552E-09  5.93582E-10  4.25968E-10  7.80674E-10  2.04425E-09  1.81857E-09  2.60928E-09
   1.69465E-09  2.96429E-09  2.95708E-09  3.80438E-09  3.37647E-09  4.21452E-09  4.15221E-09  5.51811E-09  5.04781E-09  5.31340E-09
   4.98276E-09  6.05976E-09  5.35362E-09  6.38651E-09  5.99240E-09  7.01660E-09  6.39988E-09  7.15942E-09  6.64437E-09  7.62304E-09
   7.48481E-09  7.94381E-09  7.69567E-09  8.60077E-09  7.36304E-09  5.71687E-09  5.39771E-09  8.72361E-09  1.15142E-08  1.41911E-08
   1.47197E-08  1.64061E-08  1.70584E-08  1.78943E-08  1.76826E-08  1.82230E-08  1.79969E-08  1.85221E-08  1.69983E-08  1.73119E-08
   1.57879E-08  1.48682E-08  1.29944E-08  1.15932E-08  8.89828E-09  7.48690E-09  4.57780E-09  2.62862E-09 -1.45580E-10 -1.34743E-09
  -3.83850E-09 -4.55466E-09 -6.31708E-09 -6.22500E-09 -6.83923E-09 -6.36879E-09 -6.12848E-09 -4.56060E-09 -4.94968E-09 -3.41959E-09
  -3.12131E-09 -1.46206E-09 -1.94183E-09 -6.04150E-10 -1.49686E-09 -4.24950E-10 -1.39487E-09 -4.00773E-10 -1.88212E-09 -1.05392E-09
  -2.03517E-09 -6.43375E-10 -1.49273E-09 -5.22729E-10 -1.52158E-09 -4.50562E-10 -1.30049E-09 -5.88536E-10 -1.34070E-09 -5.87853E-10
  -1.41989E-09 -4.12656E-10 -1.50641E-09 -6.07212E-10 -1.41755E-09 -5.04726E-10 -9.90044E-10 -3.38931E-10 -1.34250E-09 -7.23743E-10
  -1.64879E-09 -7.74310E-10 -1.98851E-09 -6.33042E-10 -1.90742E-09 -1.26925E-09 -2.29534E-09 -1.44139E-09 -2.54965E-09 -1.41760E-09
  -2.27294E-09 -1.53079E-09 -2.51735E-09 -1.49629E-09 -1.97024E-09 -1.51445E-09 -2.29884E-09 -1.27559E-09 -2.63585E-09 -1.85582E-09
  -2.93651E-09 -1.77103E-09 -2.98556E-09 -2.17616E-09 -2.98473E-09 -1.77635E-09 -3.03075E-09 -2.28621E-09 -3.35111E-09 -2.54155E-09
  -3.24338E-09 -2.56795E-09 -3.60386E-09 -2.18771E-09 -3.00566E-09 -2.14929E-09 -2.86765E-09 -1.92023E-09 -2.78212E-09 -1.06825E-09
  -1.75112E-09 -1.50300E-09 -1.94623E-09 -6.42740E-10 -2.11068E-09 -1.08305E-09 -2.01511E-09 -1.21406E-09 -1.84852E-09 -1.32407E-09
  -2.16348E-09 -1.59730E-09 -2.18521E-09 -1.93221E-09 -2.50240E-09 -2.02252E-09 -2.75562E-09 -1.96517E-09 -3.00750E-09 -2.35471E-09
  -3.09476E-09 -2.05053E-09 -2.89411E-09 -1.94490E-09 -3.07018E-09 -2.65973E-09 -3.51942E-09 -2.40375E-09 -3.36263E-09 -2.62021E-09
  -3.21533E-09 -2.75355E-09 -3.37705E-09 -2.68058E-09 -3.85049E-09 -2.59674E-09 -3.45934E-09 -2.76133E-09 -3.28858E-09 -2.70508E-09
  -3.65680E-09 -2.24271E-09 -3.32446E-09 -2.38567E-09 -3.39884E-09 -2.66932E-09 -3.12636E-09 -2.50620E-09 -3.41440E-09 -2.35614E-09
  -3.20657E-09 -2.15994E-09 -2.72652E-09 -2.29684E-09 -3.18990E-09 -2.04122E-09 -3.41244E-09 -2.02251E-09 -2.79104E-09 -2.09605E-09
  -2.87448E-09 -1.83783E-09 -2.57059E-09 -2.11988E-09 -2.72227E-09 -1.71872E-09 -2.05691E-09 -2.05256E-09 -2.50188E-09 -1.46655E-09
  -2.09055E-09 -1.22642E-09 -1.94729E-09 -1.03654E-09 -1.51065E-09 -7.80881E-10 -1.69448E-09 -6.86632E-10 -1.02826E-09 -5.15848E-10
  -1.11739E-09 -5.20444E-10 -8.30288E-10 -3.03989E-10 -6.24084E-10 -3.55331E-11 -6.72652E-10  5.74925E-10 -8.93763E-12  2.51206E-10
   1.94997E-11  7.66988E-10  3.14875E-10
 NY points of the fit to the data follow
  -8.58288E-09 -7.57784E-09 -7.81009E-09 -8.89730E-09 -8.64721E-09 -8.60005E-09 -8.57691E-09 -8.64462E-09 -8.69114E-09 -9.37798E-09
  -9.94115E-09 -1.02028E-08 -1.00488E-08 -9.26103E-09 -8.32035E-09 -8.08360E-09 -7.88235E-09 -7.16818E-09 -7.18343E-09 -8.21371E-09
  -8.64411E-09 -8.53398E-09 -8.44138E-09 -7.82808E-09 -7.49451E-09 -8.33398E-09 -9.50804E-09 -9.84318E-09 -9.69517E-09 -9.06857E-09
  -8.74306E-09 -8.44010E-09 -7.19190E-09 -6.42446E-09 -7.35453E-09 -7.73992E-09 -7.27055E-09 -6.73536E-09 -6.48605E-09 -6.63472E-09
  -6.74220E-09 -5.89631E-09 -6.19888E-09 -8.07687E-09 -7.78994E-09 -6.85964E-09 -6.33820E-09 -5.55513E-09 -5.46936E-09 -5.76842E-09
  -5.09255E-09 -4.91292E-09 -4.53368E-09 -3.80774E-09 -2.94686E-09 -2.72362E-09 -3.10877E-09 -4.94370E-09 -6.01355E-09 -5.16988E-09
  -4.55926E-09 -5.29426E-09 -4.97537E-09 -4.93117E-09 -5.06200E-09 -4.27649E-09 -3.56376E-09 -3.38748E-09 -3.42108E-09 -3.19334E-09
  -2.98750E-09 -3.09207E-09 -3.61453E-09 -3.81196E-09 -3.34800E-09 -4.10257E-09 -4.99298E-09 -4.69221E-09 -4.63559E-09 -4.73747E-09
  -4.54019E-09 -4.45852E-09 -4.20362E-09 -3.60371E-09 -3.27998E-09 -3.03952E-09 -2.54697E-09 -2.10651E-09 -1.69696E-09 -1.32005E-09
  -1.25568E-09 -1.09645E-09 -4.51448E-10 -5.15225E-10 -1.01361E-09 -5.39708E-10 -3.99327E-10 -8.12815E-10 -6.70944E-10 -2.98954E-10
   8.12059E-11  1.84961E-10  4.24131E-10  1.00192E-09  1.40762E-09  1.57133E-09  1.69504E-09  1.97962E-09  2.37782E-09  2.52316E-09
   2.02655E-09  1.50313E-09  1.99541E-09  1.86704E-09  1.15990E-09  1.00885E-09  1.00963E-09  1.06500E-09  1.14496E-09  1.23734E-09
   1.33628E-09  1.43874E-09  1.54279E-09  1.64720E-09  1.75117E-09  1.85414E-09  1.95569E-09  2.05541E-09  2.15315E-09  2.24866E-09
   2.34175E-09  2.43226E-09  2.52007E-09  2.60511E-09  2.68722E-09  2.76634E-09  2.84236E-09  2.91522E-09  2.98481E-09  3.05107E-09
   3.11397E-09  3.17347E-09  3.22948E-09  3.28196E-09  3.33090E-09  3.37623E-09  3.41795E-09  3.45606E-09  3.49059E-09  3.52151E-09
   3.54894E-09  3.57292E-09  3.59354E-09  3.61107E-09  3.62572E-09  3.63791E-09  3.64810E-09  3.65731E-09  3.66687E-09  3.67877E-09
   3.69602E-09  3.72364E-09  3.77049E-09  3.85413E-09  4.01530E-09  4.37586E-09  5.49227E-09  8.54406E-09  1.14940E-08  1.43547E-08
   1.57947E-08  1.67729E-08  1.74790E-08  1.76388E-08  1.74327E-08  1.80479E-08  1.97534E-08  1.99071E-08  1.54101E-08  1.07710E-08
   5.36694E-09  3.85475E-09  3.21673E-09  2.84669E-09  2.58974E-09  2.39015E-09  2.22323E-09  2.07646E-09  1.94286E-09  1.81832E-09
   1.70022E-09  1.58689E-09  1.47721E-09  1.37041E-09  1.26599E-09  1.16358E-09  1.06294E-09  9.63930E-10  8.66446E-10  7.70426E-10
   6.75871E-10  5.82783E-10  4.91198E-10  4.01160E-10  3.12731E-10  2.25978E-10  1.40982E-10  5.78269E-11 -2.34300E-11 -1.02831E-10
  -1.80411E-10 -2.56219E-10 -3.30286E-10 -4.02658E-10 -4.73362E-10 -5.42439E-10 -6.09914E-10 -6.75819E-10 -7.40189E-10 -8.03052E-10
  -8.64422E-10 -9.24342E-10 -9.82835E-10 -1.03992E-09 -1.09563E-09 -1.15000E-09 -1.20302E-09 -1.25475E-09 -1.30521E-09 -1.35441E-09
  -1.40237E-09 -1.44913E-09 -1.49470E-09 -1.53912E-09 -1.58239E-09 -1.62456E-09 -1.66564E-09 -1.70564E-09 -1.74460E-09 -1.78253E-09
  -1.81946E-09 -1.85541E-09 -1.89041E-09 -1.92447E-09 -1.95761E-09 -1.98986E-09 -2.02125E-09 -2.05180E-09 -2.08151E-09 -2.11041E-09
  -2.13854E-09 -2.16591E-09 -2.19254E-09 -2.21845E-09 -2.24368E-09 -2.26821E-09 -2.29211E-09 -2.31537E-09 -2.33803E-09 -2.36010E-09
  -2.38159E-09 -2.40249E-09 -2.42280E-09 -2.44250E-09 -2.46159E-09 -2.48006E-09 -2.49791E-09 -2.51511E-09 -2.53167E-09 -2.54757E-09
  -2.56282E-09 -2.57739E-09 -2.59128E-09 -2.60448E-09 -2.61699E-09 -2.62879E-09 -2.63987E-09 -2.65024E-09 -2.65987E-09 -2.66876E-09
  -2.67691E-09 -2.68430E-09 -2.69092E-09 -2.69676E-09 -2.70183E-09 -2.70610E-09 -2.70957E-09 -2.71224E-09 -2.71409E-09 -2.71511E-09
  -2.71530E-09 -2.71464E-09 -2.71313E-09 -2.71076E-09 -2.70753E-09 -2.70341E-09 -2.69841E-09 -2.69251E-09 -2.68571E-09 -2.67800E-09
  -2.66937E-09 -2.65981E-09 -2.64931E-09 -2.63786E-09 -2.62546E-09 -2.61209E-09 -2.59775E-09 -2.58243E-09 -2.56612E-09 -2.54881E-09
  -2.53049E-09 -2.51116E-09 -2.49083E-09 -2.46950E-09 -2.44720E-09 -2.42395E-09 -2.39977E-09 -2.37466E-09 -2.34866E-09 -2.32177E-09
  -2.29402E-09 -2.26542E-09 -2.23599E-09 -2.20575E-09 -2.17472E-09 -2.14291E-09 -2.11033E-09 -2.07702E-09 -2.04298E-09 -2.00824E-09
  -1.97281E-09 -1.93670E-09 -1.89994E-09 -1.86255E-09 -1.82454E-09 -1.78593E-09 -1.74673E-09 -1.70697E-09 -1.66667E-09 -1.62583E-09
  -1.58448E-09 -1.54263E-09 -1.50031E-09 -1.45753E-09 -1.41430E-09 -1.37065E-09 -1.32659E-09 -1.28215E-09 -1.23733E-09 -1.19216E-09
  -1.14665E-09 -1.10082E-09 -1.05470E-09 -1.00828E-09 -9.61602E-10 -9.14680E-10 -8.67529E-10 -8.20152E-10 -7.72590E-10 -7.24847E-10
  -6.76945E-10 -6.28901E-10 -5.80730E-10
 NY background values follow
    -2.113E-08   -2.094E-08   -2.076E-08   -2.058E-08   -2.040E-08   -2.021E-08   -2.003E-08   -1.985E-08   -1.966E-08   -1.948E-08
    -1.930E-08   -1.912E-08   -1.893E-08   -1.875E-08   -1.857E-08   -1.839E-08   -1.821E-08   -1.802E-08   -1.784E-08   -1.766E-08
    -1.748E-08   -1.729E-08   -1.711E-08   -1.693E-08   -1.674E-08   -1.656E-08   -1.638E-08   -1.619E-08   -1.601E-08   -1.583E-08
    -1.564E-08   -1.546E-08   -1.528E-08   -1.509E-08   -1.491E-08   -1.472E-08   -1.454E-08   -1.435E-08   -1.416E-08   -1.398E-08
    -1.379E-08   -1.361E-08   -1.342E-08   -1.323E-08   -1.304E-08   -1.285E-08   -1.267E-08   -1.248E-08   -1.229E-08   -1.210E-08
    -1.191E-08   -1.172E-08   -1.153E-08   -1.133E-08   -1.114E-08   -1.095E-08   -1.076E-08   -1.057E-08   -1.037E-08   -1.018E-08
    -9.985E-09   -9.792E-09   -9.598E-09   -9.404E-09   -9.211E-09   -9.017E-09   -8.823E-09   -8.630E-09   -8.436E-09   -8.243E-09
    -8.050E-09   -7.857E-09   -7.665E-09   -7.473E-09   -7.281E-09   -7.090E-09   -6.899E-09   -6.709E-09   -6.520E-09   -6.331E-09
    -6.142E-09   -5.954E-09   -5.767E-09   -5.581E-09   -5.396E-09   -5.211E-09   -5.027E-09   -4.844E-09   -4.662E-09   -4.482E-09
    -4.302E-09   -4.123E-09   -3.945E-09   -3.769E-09   -3.593E-09   -3.419E-09   -3.246E-09   -3.075E-09   -2.905E-09   -2.736E-09
    -2.569E-09   -2.403E-09   -2.239E-09   -2.076E-09   -1.915E-09   -1.755E-09   -1.597E-09   -1.441E-09   -1.287E-09   -1.135E-09
    -9.841E-10   -8.357E-10   -6.893E-10   -5.451E-10   -4.031E-10   -2.633E-10   -1.257E-10    9.405E-12    1.422E-10    2.724E-10
     4.002E-10    5.253E-10    6.478E-10    7.675E-10    8.846E-10    9.987E-10    1.110E-09    1.218E-09    1.324E-09    1.426E-09
     1.525E-09    1.621E-09    1.714E-09    1.803E-09    1.889E-09    1.972E-09    2.051E-09    2.126E-09    2.198E-09    2.267E-09
     2.331E-09    2.392E-09    2.449E-09    2.502E-09    2.551E-09    2.597E-09    2.638E-09    2.674E-09    2.707E-09    2.736E-09
     2.760E-09    2.780E-09    2.795E-09    2.806E-09    2.812E-09    2.814E-09    2.811E-09    2.803E-09    2.792E-09    2.775E-09
     2.755E-09    2.730E-09    2.702E-09    2.669E-09    2.633E-09    2.594E-09    2.551E-09    2.504E-09    2.454E-09    2.402E-09
     2.346E-09    2.287E-09    2.226E-09    2.162E-09    2.096E-09    2.027E-09    1.956E-09    1.883E-09    1.807E-09    1.730E-09
     1.652E-09    1.571E-09    1.489E-09    1.406E-09    1.322E-09    1.236E-09    1.149E-09    1.062E-09    9.731E-10    8.841E-10
     7.946E-10    7.046E-10    6.144E-10    5.240E-10    4.336E-10    3.432E-10    2.531E-10    1.633E-10    7.397E-11   -1.480E-11
    -1.029E-10   -1.901E-10   -2.764E-10   -3.616E-10   -4.457E-10   -5.284E-10   -6.097E-10   -6.894E-10   -7.675E-10   -8.440E-10
    -9.188E-10   -9.920E-10   -1.064E-09   -1.134E-09   -1.202E-09   -1.269E-09   -1.335E-09   -1.399E-09   -1.462E-09   -1.523E-09
    -1.583E-09   -1.641E-09   -1.698E-09   -1.754E-09   -1.809E-09   -1.862E-09   -1.914E-09   -1.964E-09   -2.013E-09   -2.062E-09
    -2.109E-09   -2.154E-09   -2.199E-09   -2.242E-09   -2.285E-09   -2.326E-09   -2.366E-09   -2.405E-09   -2.444E-09   -2.481E-09
    -2.517E-09   -2.552E-09   -2.586E-09   -2.620E-09   -2.652E-09   -2.684E-09   -2.715E-09   -2.745E-09   -2.774E-09   -2.802E-09
    -2.829E-09   -2.856E-09   -2.882E-09   -2.908E-09   -2.932E-09   -2.956E-09   -2.980E-09   -3.002E-09   -3.024E-09   -3.046E-09
    -3.067E-09   -3.087E-09   -3.107E-09   -3.126E-09   -3.145E-09   -3.163E-09   -3.180E-09   -3.197E-09   -3.213E-09   -3.229E-09
    -3.244E-09   -3.258E-09   -3.271E-09   -3.284E-09   -3.296E-09   -3.307E-09   -3.318E-09   -3.328E-09   -3.337E-09   -3.346E-09
    -3.353E-09   -3.360E-09   -3.367E-09   -3.372E-09   -3.377E-09   -3.381E-09   -3.384E-09   -3.386E-09   -3.387E-09   -3.388E-09
    -3.388E-09   -3.387E-09   -3.385E-09   -3.382E-09   -3.379E-09   -3.374E-09   -3.369E-09   -3.363E-09   -3.355E-09   -3.347E-09
    -3.338E-09   -3.328E-09   -3.318E-09   -3.306E-09   -3.293E-09   -3.279E-09   -3.265E-09   -3.249E-09   -3.232E-09   -3.215E-09
    -3.196E-09   -3.176E-09   -3.156E-09   -3.134E-09   -3.111E-09   -3.088E-09   -3.063E-09   -3.038E-09   -3.011E-09   -2.984E-09
    -2.956E-09   -2.927E-09   -2.897E-09   -2.867E-09   -2.835E-09   -2.803E-09   -2.770E-09   -2.737E-09   -2.702E-09   -2.667E-09
    -2.631E-09   -2.595E-09   -2.558E-09   -2.520E-09   -2.482E-09   -2.443E-09   -2.403E-09   -2.363E-09   -2.323E-09   -2.281E-09
    -2.240E-09   -2.198E-09   -2.155E-09   -2.112E-09   -2.068E-09   -2.024E-09   -1.980E-09   -1.935E-09   -1.890E-09   -1.844E-09
    -1.798E-09   -1.752E-09   -1.706E-09   -1.659E-09   -1.612E-09   -1.565E-09   -1.517E-09   -1.469E-09   -1.421E-09   -1.373E-09
    -1.325E-09   -1.277E-09   -1.228E-09
 Ala      Conc. = 6.41E-10
  -2.06757E-08 -2.04633E-08 -2.02631E-08 -2.00706E-08 -1.98870E-08 -1.96620E-08 -1.94710E-08 -1.94365E-08 -1.92714E-08 -1.90019E-08
  -1.89633E-08 -1.88813E-08 -1.86766E-08 -1.85412E-08 -1.84109E-08 -1.82580E-08 -1.80944E-08 -1.79248E-08 -1.77518E-08 -1.75764E-08
  -1.73993E-08 -1.72211E-08 -1.70419E-08 -1.68620E-08 -1.66815E-08 -1.65005E-08 -1.63191E-08 -1.61372E-08 -1.59551E-08 -1.57725E-08
  -1.55895E-08 -1.54064E-08 -1.52228E-08 -1.50390E-08 -1.48548E-08 -1.46704E-08 -1.44856E-08 -1.43005E-08 -1.41151E-08 -1.39294E-08
  -1.37432E-08 -1.35567E-08 -1.33699E-08 -1.31827E-08 -1.29951E-08 -1.28071E-08 -1.26187E-08 -1.24299E-08 -1.22407E-08 -1.20511E-08
  -1.18610E-08 -1.16704E-08 -1.14794E-08 -1.12879E-08 -1.10960E-08 -1.09037E-08 -1.07111E-08 -1.05181E-08 -1.03249E-08 -1.01315E-08
  -9.93784E-09 -9.74407E-09 -9.55017E-09 -9.35621E-09 -9.16225E-09 -8.96825E-09 -8.77431E-09 -8.58044E-09 -8.38669E-09 -8.19311E-09
  -7.99970E-09 -7.80652E-09 -7.61360E-09 -7.42098E-09 -7.22868E-09 -7.03672E-09 -6.84517E-09 -6.65405E-09 -6.46330E-09 -6.27306E-09
  -6.08328E-09 -5.89402E-09 -5.70520E-09 -5.51692E-09 -5.32915E-09 -5.14180E-09 -4.95489E-09 -4.76828E-09 -4.58193E-09 -4.39568E-09
  -4.20922E-09 -4.02230E-09 -3.83420E-09 -3.64420E-09 -3.45076E-09 -3.25120E-09 -3.04046E-09 -2.80709E-09 -2.51892E-09 -2.05087E-09
  -1.43716E-09 -1.17568E-09 -8.27596E-10 -1.69788E-10  2.97192E-10  5.10028E-10  6.74111E-10  9.92488E-10  1.41936E-09  1.58893E-09
   1.11292E-09  6.07776E-10  1.11630E-09  1.00257E-09  3.08722E-10  1.69351E-10  1.80547E-10  2.45380E-10  3.33976E-10  4.34280E-10
   5.40570E-10  6.49718E-10  7.59923E-10  8.70007E-10  9.79234E-10  1.08703E-09  1.19305E-09  1.29695E-09  1.39852E-09  1.49758E-09
   1.59395E-09  1.68748E-09  1.77807E-09  1.86563E-09  1.95004E-09  2.03121E-09  2.10906E-09  2.18352E-09  2.25448E-09  2.32189E-09
   2.38569E-09  2.44581E-09  2.50216E-09  2.55468E-09  2.60336E-09  2.64806E-09  2.68878E-09  2.72541E-09  2.75793E-09  2.78625E-09
   2.81038E-09  2.83021E-09  2.84569E-09  2.85683E-09  2.86356E-09  2.86591E-09  2.86376E-09  2.85739E-09  2.84698E-09  2.83285E-09
   2.81539E-09  2.79524E-09  2.77348E-09  2.75229E-09  2.73718E-09  2.74674E-09  2.88114E-09  3.18194E-09  3.28384E-09  3.27684E-09
   3.28528E-09  3.31129E-09  3.26387E-09  3.14434E-09  3.08194E-09  3.19088E-09  3.29588E-09  2.92695E-09  2.15893E-09  1.91911E-09
   1.78321E-09  1.67536E-09  1.57775E-09  1.48445E-09  1.39303E-09  1.30237E-09  1.21193E-09  1.12143E-09  1.03075E-09  9.39847E-10
   8.48749E-10  7.57495E-10  6.66158E-10  5.74812E-10  4.83557E-10  3.92495E-10  3.01724E-10  2.11356E-10  1.21510E-10  3.22800E-11
  -5.62003E-11 -1.43822E-10 -2.30465E-10 -3.16012E-10 -4.00344E-10 -4.83342E-10 -5.64884E-10 -6.44850E-10 -7.23154E-10 -7.99812E-10
  -8.74838E-10 -9.48257E-10 -1.02009E-09 -1.09036E-09 -1.15909E-09 -1.22630E-09 -1.29201E-09 -1.35625E-09 -1.41904E-09 -1.48039E-09
  -1.54033E-09 -1.59888E-09 -1.65607E-09 -1.71191E-09 -1.76642E-09 -1.81964E-09 -1.87156E-09 -1.92223E-09 -1.97167E-09 -2.01988E-09
  -2.06690E-09 -2.11274E-09 -2.15743E-09 -2.20099E-09 -2.24343E-09 -2.28479E-09 -2.32509E-09 -2.36433E-09 -2.40255E-09 -2.43976E-09
  -2.47599E-09 -2.51126E-09 -2.54558E-09 -2.57900E-09 -2.61151E-09 -2.64314E-09 -2.67392E-09 -2.70388E-09 -2.73301E-09 -2.76134E-09
  -2.78891E-09 -2.81574E-09 -2.84183E-09 -2.86721E-09 -2.89192E-09 -2.91595E-09 -2.93935E-09 -2.96212E-09 -2.98429E-09 -3.00589E-09
  -3.02691E-09 -3.04735E-09 -3.06720E-09 -3.08646E-09 -3.10510E-09 -3.12314E-09 -3.14055E-09 -3.15733E-09 -3.17347E-09 -3.18895E-09
  -3.20379E-09 -3.21795E-09 -3.23144E-09 -3.24425E-09 -3.25636E-09 -3.26777E-09 -3.27847E-09 -3.28845E-09 -3.29770E-09 -3.30622E-09
  -3.31399E-09 -3.32101E-09 -3.32726E-09 -3.33274E-09 -3.33744E-09 -3.34136E-09 -3.34447E-09 -3.34678E-09 -3.34828E-09 -3.34895E-09
  -3.34879E-09 -3.34779E-09 -3.34594E-09 -3.34323E-09 -3.33965E-09 -3.33520E-09 -3.32986E-09 -3.32363E-09 -3.31649E-09 -3.30845E-09
  -3.29949E-09 -3.28959E-09 -3.27876E-09 -3.26699E-09 -3.25426E-09 -3.24057E-09 -3.22590E-09 -3.21026E-09 -3.19362E-09 -3.17599E-09
  -3.15735E-09 -3.13770E-09 -3.11704E-09 -3.09539E-09 -3.07278E-09 -3.04921E-09 -3.02470E-09 -2.99928E-09 -2.97296E-09 -2.94575E-09
  -2.91768E-09 -2.88876E-09 -2.85902E-09 -2.82846E-09 -2.79711E-09 -2.76498E-09 -2.73209E-09 -2.69846E-09 -2.66410E-09 -2.62903E-09
  -2.59329E-09 -2.55687E-09 -2.51978E-09 -2.48208E-09 -2.44374E-09 -2.40481E-09 -2.36530E-09 -2.32522E-09 -2.28459E-09 -2.24342E-09
  -2.20175E-09 -2.15958E-09 -2.11694E-09 -2.07383E-09 -2.03028E-09 -1.98630E-09 -1.94192E-09 -1.89715E-09 -1.85200E-09 -1.80650E-09
  -1.76066E-09 -1.71450E-09 -1.66805E-09 -1.62130E-09 -1.57428E-09 -1.52702E-09 -1.47954E-09 -1.43182E-09 -1.38392E-09 -1.33584E-09
  -1.28760E-09 -1.23921E-09 -1.19069E-09
 Asp      Conc. = 4.25E-09
  -1.61750E-08 -1.57143E-08 -1.57454E-08 -1.65307E-08 -1.66222E-08 -1.71641E-08 -1.71723E-08 -1.73191E-08 -1.80012E-08 -1.84491E-08
  -1.85447E-08 -1.85121E-08 -1.84240E-08 -1.83080E-08 -1.81691E-08 -1.80038E-08 -1.78364E-08 -1.76660E-08 -1.74922E-08 -1.73151E-08
  -1.71353E-08 -1.69530E-08 -1.67684E-08 -1.65817E-08 -1.63928E-08 -1.62015E-08 -1.60078E-08 -1.58113E-08 -1.56116E-08 -1.54081E-08
  -1.51998E-08 -1.49857E-08 -1.47638E-08 -1.45314E-08 -1.42838E-08 -1.40126E-08 -1.37005E-08 -1.33029E-08 -1.27520E-08 -1.23365E-08
  -1.18902E-08 -1.16168E-08 -1.13657E-08 -1.10375E-08 -1.03777E-08 -9.56987E-09 -8.25262E-09 -7.03696E-09 -6.74097E-09 -6.91932E-09
  -6.16882E-09 -5.94111E-09 -5.53184E-09 -4.79072E-09 -3.92759E-09 -3.71382E-09 -4.12175E-09 -5.99594E-09 -7.12877E-09 -6.38870E-09
  -5.95743E-09 -7.05640E-09 -7.16406E-09 -7.24070E-09 -7.79160E-09 -7.66140E-09 -7.12316E-09 -6.96235E-09 -7.19512E-09 -7.23877E-09
  -7.19492E-09 -7.10622E-09 -6.99113E-09 -6.85905E-09 -6.71536E-09 -6.56338E-09 -6.40533E-09 -6.24277E-09 -6.07669E-09 -5.90806E-09
  -5.73744E-09 -5.56534E-09 -5.39210E-09 -5.21814E-09 -5.04369E-09 -4.86893E-09 -4.69410E-09 -4.51932E-09 -4.34478E-09 -4.17061E-09
  -3.99688E-09 -3.82378E-09 -3.65126E-09 -3.47956E-09 -3.30871E-09 -3.13872E-09 -2.96970E-09 -2.80175E-09 -2.63494E-09 -2.46929E-09
  -2.30495E-09 -2.14180E-09 -1.98001E-09 -1.81968E-09 -1.66071E-09 -1.50331E-09 -1.34750E-09 -1.19333E-09 -1.04089E-09 -8.90248E-10
  -7.41434E-10 -5.94544E-10 -4.49631E-10 -3.06761E-10 -1.66015E-10 -2.74148E-11  1.08930E-10  2.42979E-10  3.74681E-10  5.03948E-10
   6.30750E-10  7.54997E-10  8.76651E-10  9.95624E-10  1.11189E-09  1.22534E-09  1.33598E-09  1.44368E-09  1.54843E-09  1.65017E-09
   1.74882E-09  1.84431E-09  1.93660E-09  2.02566E-09  2.11138E-09  2.19375E-09  2.27267E-09  2.34812E-09  2.42001E-09  2.48830E-09
   2.55295E-09  2.61392E-09  2.67111E-09  2.72450E-09  2.77406E-09  2.81972E-09  2.86145E-09  2.89918E-09  2.93293E-09  2.96261E-09
   2.98827E-09  3.00985E-09  3.02734E-09  3.04083E-09  3.05031E-09  3.05590E-09  3.05766E-09  3.05601E-09  3.05140E-09  3.04447E-09
   3.03610E-09  3.02763E-09  3.02113E-09  3.02012E-09  3.03121E-09  3.06842E-09  3.16746E-09  3.44934E-09  4.54333E-09  6.78295E-09
   7.75372E-09  8.00958E-09  8.36947E-09  8.86594E-09  8.90408E-09  8.47704E-09  8.41738E-09  9.48605E-09  1.05765E-08  8.63764E-09
   3.97744E-09  2.77489E-09  2.30051E-09  2.02962E-09  1.83828E-09  1.68485E-09  1.55190E-09  1.43104E-09  1.31776E-09  1.20950E-09
   1.10471E-09  1.00244E-09  9.02076E-10  8.03219E-10  7.05634E-10  6.09178E-10  5.13764E-10  4.19364E-10  3.25985E-10  2.33641E-10
   1.42398E-10  5.23088E-11 -3.65485E-11 -1.24093E-10 -2.10235E-10 -2.94880E-10 -3.77927E-10 -4.59275E-10 -5.38850E-10 -6.16678E-10
  -6.92788E-10 -7.67216E-10 -8.39985E-10 -9.11133E-10 -9.80678E-10 -1.04866E-09 -1.11509E-09 -1.18000E-09 -1.24343E-09 -1.30539E-09
  -1.36590E-09 -1.42500E-09 -1.48270E-09 -1.53903E-09 -1.59401E-09 -1.64767E-09 -1.70002E-09 -1.75110E-09 -1.80093E-09 -1.84952E-09
  -1.89689E-09 -1.94308E-09 -1.98810E-09 -2.03198E-09 -2.07473E-09 -2.11639E-09 -2.15697E-09 -2.19649E-09 -2.23498E-09 -2.27245E-09
