 LCModel (Version 6.3-1R) Copyright: S.W. Provencher.          Ref.: Magn. Reson. Med. 30:672-679 (1993).                
 onepulse 14x8_ftSpec_smooth_lcm
 26 lines in following concentration table = NCONC+1
    Conc.  %SD   /Cr    Metabolite                                         
 3.01E-11 810%   0.000 Ala                                                 
 1.39E-09  41%   0.000 Asp                                                 
    0.000 999%   0.000 Cr                                                  
 7.23E-10  74%   0.000 GABA                                                
    0.000 999%   0.000 Glc                                                 
 1.82E-09  30%   0.000 Gln                                                 
    0.000 999%   0.000 Glu                                                 
 2.17E-09  17%   0.000 Glyc                                                
    0.000 999%   0.000 GPC                                                 
 8.65E-10  50%   0.000 GSH                                                 
    0.000 999%   0.000 Ins                                                 
    0.000 999%   0.000 Lac                                                 
 3.94E-10  75%   0.000 NAAG                                                
    0.000 999%   0.000 NAA                                                 
    0.000 999%   0.000 PCh                                                 
    0.000 999%   0.000 PCr                                                 
 2.27E-09  21%   0.000 PE                                                  
 3.96E-10  36%   0.000 Scyllo                                              
    0.000 999%   0.000 Ser                                                 
    0.000 999%   0.000 Tau                                                 
    0.000 999%   0.000 GPC+PCh                                             
 3.94E-10  73%   0.000 NAA+NAAG                                            
 2.17E-09  17%   0.000 Ins+Glyc                                            
    0.000 999%   0.000 Cr+PCr                                              
 1.82E-09  30%   0.000 Glu+Gln                                             
   6 lines in following misc. output table
  FWHM = 0.123 ppm    S/N =   4                                            
  Data shift = 0.425 ppm                                                   
  Ph: -33 deg     -65.0 deg/ppm                                            
  alphaB,S = 5.8E-01,   1.4E+01                                            
   11 spline knots.   Ns = 5(1)                                            
  (10) 6 infls.   ( 9) 5 extrs.                                            
  363 points on ppm-axis = NY
      4.250000     4.238821     4.227641     4.216462     4.205282     4.194103     4.182923     4.171744     4.160564     4.149385
      4.138206     4.127026     4.115847     4.104667     4.093488     4.082308     4.071129     4.059949     4.048770     4.037591
      4.026411     4.015232     4.004052     3.992873     3.981693     3.970514     3.959334     3.948155     3.936975     3.925796
      3.914617     3.903437     3.892258     3.881078     3.869899     3.858719     3.847540     3.836360     3.825181     3.814002
      3.802822     3.791643     3.780463     3.769284     3.758104     3.746925     3.735745     3.724566     3.713387     3.702207
      3.691028     3.679848     3.668669     3.657489     3.646310     3.635130     3.623951     3.612772     3.601592     3.590413
      3.579233     3.568054     3.556874     3.545695     3.534515     3.523336     3.512156     3.500977     3.489798     3.478618
      3.467439     3.456259     3.445080     3.433900     3.422721     3.411541     3.400362     3.389183     3.378003     3.366824
      3.355644     3.344465     3.333285     3.322106     3.310926     3.299747     3.288568     3.277388     3.266209     3.255029
      3.243850     3.232670     3.221491     3.210311     3.199132     3.187953     3.176773     3.165594     3.154414     3.143235
      3.132055     3.120876     3.109696     3.098517     3.087337     3.076158     3.064979     3.053799     3.042620     3.031440
      3.020261     3.009081     2.997902     2.986722     2.975543     2.964364     2.953184     2.942005     2.930825     2.919646
      2.908466     2.897287     2.886107     2.874928     2.863749     2.852569     2.841390     2.830210     2.819031     2.807851
      2.796672     2.785492     2.774313     2.763134     2.751954     2.740775     2.729595     2.718416     2.707236     2.696057
      2.684877     2.673698     2.662519     2.651339     2.640160     2.628980     2.617801     2.606621     2.595442     2.584262
      2.573083     2.561903     2.550724     2.539545     2.528365     2.517186     2.506006     2.494827     2.483647     2.472468
      2.461288     2.450109     2.438930     2.427750     2.416571     2.405391     2.394212     2.383032     2.371853     2.360673
      2.349494     2.338315     2.327135     2.315956     2.304776     2.293597     2.282417     2.271238     2.260058     2.248879
      2.237700     2.226520     2.215341     2.204161     2.192982     2.181802     2.170623     2.159443     2.148264     2.137084
      2.125905     2.114726     2.103546     2.092367     2.081187     2.070008     2.058828     2.047649     2.036469     2.025290
      2.014111     2.002931     1.991752     1.980572     1.969393     1.958213     1.947034     1.935854     1.924675     1.913496
      1.902316     1.891137     1.879957     1.868778     1.857598     1.846419     1.835239     1.824060     1.812881     1.801701
      1.790522     1.779342     1.768163     1.756983     1.745804     1.734624     1.723445     1.712265     1.701086     1.689907
      1.678727     1.667548     1.656368     1.645189     1.634009     1.622830     1.611650     1.600471     1.589292     1.578112
      1.566933     1.555753     1.544574     1.533394     1.522215     1.511035     1.499856     1.488677     1.477497     1.466318
      1.455138     1.443959     1.432779     1.421600     1.410420     1.399241     1.388062     1.376882     1.365703     1.354523
      1.343344     1.332164     1.320985     1.309805     1.298626     1.287446     1.276267     1.265088     1.253908     1.242729
      1.231549     1.220370     1.209190     1.198011     1.186831     1.175652     1.164473     1.153293     1.142114     1.130934
      1.119755     1.108575     1.097396     1.086216     1.075037     1.063858     1.052678     1.041499     1.030319     1.019140
      1.007960     0.996781     0.985601     0.974422     0.963243     0.952063     0.940884     0.929704     0.918525     0.907345
      0.896166     0.884986     0.873807     0.862628     0.851448     0.840269     0.829089     0.817910     0.806730     0.795551
      0.784371     0.773192     0.762012     0.750833     0.739654     0.728474     0.717295     0.706115     0.694936     0.683756
      0.672577     0.661397     0.650218     0.639039     0.627859     0.616680     0.605500     0.594321     0.583141     0.571962
      0.560782     0.549603     0.538424     0.527244     0.516065     0.504885     0.493706     0.482526     0.471347     0.460167
      0.448988     0.437809     0.426629     0.415450     0.404270     0.393091     0.381911     0.370732     0.359552     0.348373
      0.337193     0.326014     0.314835     0.303655     0.292476     0.281296     0.270117     0.258937     0.247758     0.236578
      0.225399     0.214220     0.203040
 NY phased data points follow
   7.23574E-09  6.83697E-09  7.61148E-09  7.59437E-09  8.30206E-09  8.34045E-09  8.75229E-09  9.60567E-09  9.33146E-09  9.37649E-09
   8.75726E-09  9.05849E-09  8.98621E-09  8.86904E-09  8.25360E-09  8.28321E-09  8.01834E-09  8.95965E-09  9.69483E-09  9.64404E-09
   9.18103E-09  8.62680E-09  8.17440E-09  8.25835E-09  9.90548E-09  1.09351E-08  1.13453E-08  1.10598E-08  1.02343E-08  9.64923E-09
   8.82856E-09  8.70991E-09  8.54750E-09  8.30986E-09  8.02779E-09  8.75315E-09  8.34548E-09  8.17043E-09  8.18955E-09  8.03564E-09
   7.48336E-09  7.57829E-09  7.68699E-09  7.64167E-09  7.33012E-09  7.90378E-09  7.90483E-09  7.72264E-09  7.16489E-09  7.13610E-09
   6.86194E-09  7.11684E-09  7.43198E-09  7.93768E-09  8.03682E-09  8.74314E-09  9.77169E-09  1.18446E-08  1.20409E-08  1.18711E-08
   1.07637E-08  1.05066E-08  9.86142E-09  9.56333E-09  8.83675E-09  8.97667E-09  8.10010E-09  8.07638E-09  7.24858E-09  7.52417E-09
   6.03903E-09  7.13751E-09  8.00451E-09  1.27710E-08  1.37590E-08  1.45344E-08  1.30980E-08  1.36494E-08  1.29025E-08  1.29999E-08
   1.14937E-08  1.19868E-08  1.13232E-08  1.20441E-08  1.07297E-08  1.11390E-08  1.10519E-08  1.05466E-08  1.04075E-08  1.06598E-08
   9.42082E-09  9.73713E-09  8.84607E-09  8.42323E-09  8.03585E-09  8.85355E-09  8.74008E-09  8.67635E-09  7.89811E-09  8.57680E-09
   8.30319E-09  8.73312E-09  7.55133E-09  7.14406E-09  7.27465E-09  6.75383E-09  6.24484E-09  6.90982E-09  7.05950E-09  6.71230E-09
   6.82075E-09  7.11278E-09  7.12201E-09  6.74697E-09  7.31646E-09  7.67236E-09  7.54219E-09  6.73577E-09  6.95224E-09  6.32529E-09
   5.49187E-09  5.59233E-09  5.99076E-09  5.80135E-09  5.14295E-09  5.67843E-09  5.90237E-09  6.91464E-09  6.47375E-09  6.41089E-09
   6.16093E-09  6.09214E-09  5.64332E-09  6.15210E-09  7.61813E-09  8.07834E-09  7.92862E-09  7.89001E-09  7.65356E-09  8.78977E-09
   8.92422E-09  9.11728E-09  8.87771E-09  9.33621E-09  9.44748E-09  1.02950E-08  9.34458E-09  9.27969E-09  9.26095E-09  9.84639E-09
   9.26686E-09  9.79637E-09  9.74160E-09  1.01280E-08  9.57614E-09  9.79997E-09  9.64946E-09  1.02180E-08  1.00424E-08  1.00331E-08
   9.68056E-09  1.02892E-08  8.56008E-09  6.23888E-09  7.37738E-09  1.18416E-08  1.56217E-08  1.79868E-08  1.84097E-08  1.95888E-08
   2.04554E-08  2.06073E-08  2.07220E-08  2.07802E-08  2.11535E-08  2.14163E-08  2.04404E-08  2.07048E-08  1.98239E-08  1.88006E-08
   1.77201E-08  1.60894E-08  1.41164E-08  1.24159E-08  1.01313E-08  7.67221E-09  5.16434E-09  3.32983E-09  8.84293E-10 -6.04734E-10
  -2.85074E-09 -3.83060E-09 -4.48700E-09 -5.12185E-09 -5.37004E-09 -4.36967E-09 -4.60673E-09 -3.82247E-09 -3.25045E-09 -1.86867E-09
  -1.79137E-09 -5.36449E-10 -5.15832E-10  3.56956E-10 -1.32064E-10  8.75563E-10 -9.36962E-11  2.09018E-10 -3.71074E-10  1.74064E-10
   2.12796E-10  2.05636E-10  1.25458E-10  4.07056E-10  4.10504E-10  5.62025E-10  5.90683E-10  7.53399E-10  5.02126E-10  8.50490E-10
   8.08348E-10  4.04979E-10  5.03131E-10  5.21419E-10  6.32364E-10  1.02625E-09  9.95330E-10  1.02681E-09  7.62442E-10  1.06012E-09
   7.88964E-10  9.91648E-10  1.50778E-09  1.08210E-09  9.09657E-10  7.69726E-10  5.06545E-10  2.73502E-10  5.00460E-10  2.91134E-10
   5.20902E-10  1.80547E-10  6.54777E-10  9.59803E-10  7.17609E-10  9.98023E-10  1.29855E-09  1.02826E-09  1.07173E-09  7.34798E-10
   1.40296E-09  7.97287E-10  9.59461E-10  7.24927E-10  1.51474E-09  8.66251E-10  1.20320E-09  4.57331E-10  7.40317E-10  6.15849E-10
   4.60944E-10 -3.58034E-10  2.40094E-10 -2.81506E-10  3.81749E-11 -5.15828E-10 -4.34043E-10 -1.30865E-09 -1.97131E-12 -1.89597E-10
  -2.92247E-10 -2.65856E-10  7.09371E-10 -9.29420E-11  9.40333E-10  1.48894E-10  9.08864E-10  7.04206E-10  1.35616E-09  9.18843E-10
   1.48450E-09  1.46423E-09  1.56242E-09  1.48206E-09  1.67608E-09  1.51951E-09  2.13590E-09  1.67199E-09  1.79618E-09  1.42952E-09
   1.93362E-09  1.53801E-09  2.47615E-09  2.44910E-09  2.42500E-09  1.80905E-09  2.34316E-09  2.22953E-09  2.44371E-09  2.38022E-09
   2.43871E-09  2.45173E-09  2.93855E-09  2.13759E-09  2.69671E-09  2.30225E-09  2.48487E-09  2.42841E-09  2.91019E-09  1.93835E-09
   2.68338E-09  2.35975E-09  2.90167E-09  2.70181E-09  2.59303E-09  2.63228E-09  3.29115E-09  2.53157E-09  2.93934E-09  2.45580E-09
   2.62703E-09  2.76153E-09  3.29614E-09  2.53919E-09  3.56085E-09  2.90005E-09  3.02796E-09  3.11689E-09  3.30787E-09  2.96937E-09
   3.13290E-09  3.47123E-09  3.48535E-09  3.26745E-09  3.07418E-09  3.69314E-09  3.71146E-09  3.37146E-09  3.60409E-09  3.47667E-09
   3.56259E-09  3.45688E-09  3.34394E-09  3.17564E-09  3.64784E-09  3.66374E-09  3.15770E-09  3.39903E-09  3.36991E-09  3.73435E-09
   3.53447E-09  3.79298E-09  3.69716E-09  3.64991E-09  4.06686E-09  3.78500E-09  3.35003E-09  3.89013E-09  3.66887E-09  3.65462E-09
   3.38501E-09  3.82150E-09  4.01688E-09
 NY points of the fit to the data follow
   9.61770E-09  9.00138E-09  8.64314E-09  8.24574E-09  7.71154E-09  7.49671E-09  7.47070E-09  7.64227E-09  9.10080E-09  1.00243E-08
   9.05809E-09  8.88982E-09  8.74816E-09  8.40928E-09  8.29937E-09  8.42186E-09  8.89078E-09  1.02886E-08  1.18154E-08  1.01040E-08
   7.43094E-09  7.49478E-09  8.13045E-09  8.78647E-09  9.68964E-09  1.03951E-08  1.13424E-08  1.17877E-08  1.09179E-08  9.48493E-09
   9.28642E-09  9.23615E-09  9.14232E-09  8.82285E-09  8.67295E-09  8.18238E-09  8.31684E-09  7.96365E-09  7.93324E-09  7.83452E-09
   7.63565E-09  7.76632E-09  8.00937E-09  7.88128E-09  7.85981E-09  7.82640E-09  7.66642E-09  7.01428E-09  7.03072E-09  7.13408E-09
   7.49791E-09  7.96453E-09  8.29474E-09  8.70445E-09  9.26950E-09  9.45953E-09  9.33670E-09  1.01996E-08  1.08789E-08  1.06560E-08
   1.06988E-08  1.07561E-08  1.07693E-08  1.08097E-08  1.05758E-08  1.01732E-08  9.88482E-09  9.76057E-09  9.11936E-09  8.90424E-09
   9.25586E-09  9.60187E-09  9.86019E-09  1.00031E-08  1.08075E-08  1.16563E-08  1.22202E-08  1.27508E-08  1.30669E-08  1.31653E-08
   1.31059E-08  1.28338E-08  1.23559E-08  1.20737E-08  1.19896E-08  1.13850E-08  1.04300E-08  9.34360E-09  8.78353E-09  8.54970E-09
   8.31809E-09  8.12869E-09  8.15980E-09  8.07746E-09  7.76724E-09  7.76405E-09  7.74209E-09  7.51590E-09  7.44967E-09  7.40965E-09
   7.35563E-09  7.31981E-09  7.29924E-09  7.30894E-09  7.31120E-09  7.31326E-09  7.32078E-09  7.33085E-09  7.34210E-09  7.35242E-09
   7.34740E-09  7.32423E-09  7.34388E-09  7.35215E-09  7.32732E-09  7.32633E-09  7.33179E-09  7.33891E-09  7.34620E-09  7.35305E-09
   7.35908E-09  7.36410E-09  7.36795E-09  7.37050E-09  7.37166E-09  7.37133E-09  7.36946E-09  7.36596E-09  7.36079E-09  7.35389E-09
   7.34521E-09  7.33471E-09  7.32235E-09  7.30810E-09  7.29191E-09  7.27375E-09  7.25361E-09  7.23145E-09  7.20735E-09  7.18136E-09
   7.15351E-09  7.12390E-09  7.09259E-09  7.05962E-09  7.02512E-09  6.98916E-09  6.95186E-09  6.91334E-09  6.87375E-09  6.83324E-09
   6.79205E-09  6.75040E-09  6.70863E-09  6.66712E-09  6.62639E-09  6.58714E-09  6.55031E-09  6.51723E-09  6.48982E-09  6.47103E-09
   6.46557E-09  6.48137E-09  6.53308E-09  6.65082E-09  6.90695E-09  7.52399E-09  9.52467E-09  1.65359E-08  1.95434E-08  2.02097E-08
   2.07789E-08  2.09403E-08  2.07702E-08  2.06537E-08  2.07952E-08  2.13573E-08  2.21518E-08  2.00793E-08  1.06400E-08  6.99855E-09
   5.88734E-09  5.36012E-09  5.03796E-09  4.80835E-09  4.62743E-09  4.47490E-09  4.34020E-09  4.21733E-09  4.10268E-09  3.99395E-09
   3.88966E-09  3.78876E-09  3.69058E-09  3.59459E-09  3.50046E-09  3.40791E-09  3.31678E-09  3.22694E-09  3.13830E-09  3.05080E-09
   2.96441E-09  2.87910E-09  2.79488E-09  2.71175E-09  2.62973E-09  2.54883E-09  2.46909E-09  2.39053E-09  2.31320E-09  2.23714E-09
   2.16239E-09  2.08900E-09  2.01700E-09  1.94644E-09  1.87740E-09  1.80990E-09  1.74400E-09  1.67975E-09  1.61721E-09  1.55645E-09
   1.49748E-09  1.44040E-09  1.38525E-09  1.33206E-09  1.28091E-09  1.23189E-09  1.18500E-09  1.14030E-09  1.09781E-09  1.05749E-09
   1.01929E-09  9.83202E-10  9.49177E-10  9.17182E-10  8.87193E-10  8.59167E-10  8.33078E-10  8.08890E-10  7.86574E-10  7.66102E-10
   7.47432E-10  7.30531E-10  7.15375E-10  7.01931E-10  6.90158E-10  6.80037E-10  6.71525E-10  6.64596E-10  6.59220E-10  6.55359E-10
   6.52983E-10  6.52065E-10  6.52563E-10  6.54455E-10  6.57701E-10  6.62285E-10  6.68154E-10  6.75286E-10  6.83655E-10  6.93217E-10
   7.03952E-10  7.15823E-10  7.28801E-10  7.42840E-10  7.57932E-10  7.74029E-10  7.91108E-10  8.09122E-10  8.28068E-10  8.47883E-10
   8.68559E-10  8.90051E-10  9.12332E-10  9.35376E-10  9.59165E-10  9.83680E-10  1.00890E-09  1.03481E-09  1.06139E-09  1.08862E-09
   1.11649E-09  1.14497E-09  1.17404E-09  1.20369E-09  1.23390E-09  1.26466E-09  1.29593E-09  1.32770E-09  1.35996E-09  1.39269E-09
   1.42586E-09  1.45946E-09  1.49347E-09  1.52787E-09  1.56264E-09  1.59777E-09  1.63324E-09  1.66902E-09  1.70510E-09  1.74146E-09
   1.77808E-09  1.81495E-09  1.85204E-09  1.88933E-09  1.92681E-09  1.96446E-09  2.00227E-09  2.04020E-09  2.07825E-09  2.11639E-09
   2.15460E-09  2.19288E-09  2.23119E-09  2.26953E-09  2.30786E-09  2.34618E-09  2.38446E-09  2.42269E-09  2.46086E-09  2.49896E-09
   2.53699E-09  2.57496E-09  2.61287E-09  2.65071E-09  2.68850E-09  2.72623E-09  2.76389E-09  2.80151E-09  2.83907E-09  2.87657E-09
   2.91402E-09  2.95142E-09  2.98877E-09  3.02607E-09  3.06333E-09  3.10053E-09  3.13770E-09  3.17481E-09  3.21189E-09  3.24892E-09
   3.28592E-09  3.32287E-09  3.35979E-09  3.39667E-09  3.43351E-09  3.47032E-09  3.50710E-09  3.54384E-09  3.58056E-09  3.61724E-09
   3.65390E-09  3.69053E-09  3.72713E-09  3.76371E-09  3.80027E-09  3.83681E-09  3.87332E-09  3.90982E-09  3.94629E-09  3.98276E-09
   4.01920E-09  4.05563E-09  4.09205E-09
 NY background values follow
    -1.434E-09   -1.350E-09   -1.266E-09   -1.182E-09   -1.098E-09   -1.015E-09   -9.307E-10   -8.468E-10   -7.630E-10   -6.792E-10
    -5.954E-10   -5.117E-10   -4.280E-10   -3.444E-10   -2.608E-10   -1.773E-10   -9.392E-11   -1.057E-11    7.269E-11    1.559E-10
     2.390E-10    3.219E-10    4.048E-10    4.876E-10    5.702E-10    6.528E-10    7.352E-10    8.174E-10    8.996E-10    9.816E-10
     1.063E-09    1.145E-09    1.227E-09    1.308E-09    1.389E-09    1.470E-09    1.551E-09    1.632E-09    1.712E-09    1.792E-09
     1.872E-09    1.952E-09    2.032E-09    2.111E-09    2.190E-09    2.269E-09    2.348E-09    2.426E-09    2.504E-09    2.582E-09
     2.660E-09    2.737E-09    2.814E-09    2.891E-09    2.967E-09    3.043E-09    3.118E-09    3.193E-09    3.268E-09    3.342E-09
     3.416E-09    3.489E-09    3.562E-09    3.635E-09    3.707E-09    3.778E-09    3.849E-09    3.919E-09    3.989E-09    4.058E-09
     4.127E-09    4.195E-09    4.262E-09    4.329E-09    4.395E-09    4.460E-09    4.525E-09    4.589E-09    4.653E-09    4.715E-09
     4.777E-09    4.838E-09    4.899E-09    4.959E-09    5.017E-09    5.075E-09    5.133E-09    5.189E-09    5.245E-09    5.299E-09
     5.353E-09    5.406E-09    5.458E-09    5.509E-09    5.559E-09    5.608E-09    5.656E-09    5.703E-09    5.749E-09    5.794E-09
     5.838E-09    5.880E-09    5.921E-09    5.961E-09    6.000E-09    6.037E-09    6.073E-09    6.107E-09    6.141E-09    6.172E-09
     6.202E-09    6.231E-09    6.258E-09    6.284E-09    6.308E-09    6.330E-09    6.351E-09    6.370E-09    6.387E-09    6.403E-09
     6.417E-09    6.429E-09    6.439E-09    6.447E-09    6.453E-09    6.457E-09    6.460E-09    6.460E-09    6.459E-09    6.455E-09
     6.449E-09    6.441E-09    6.431E-09    6.419E-09    6.404E-09    6.387E-09    6.368E-09    6.347E-09    6.323E-09    6.297E-09
     6.269E-09    6.239E-09    6.207E-09    6.172E-09    6.136E-09    6.098E-09    6.058E-09    6.015E-09    5.971E-09    5.926E-09
     5.878E-09    5.829E-09    5.778E-09    5.725E-09    5.671E-09    5.615E-09    5.557E-09    5.498E-09    5.438E-09    5.376E-09
     5.313E-09    5.248E-09    5.183E-09    5.116E-09    5.047E-09    4.978E-09    4.907E-09    4.836E-09    4.763E-09    4.689E-09
     4.615E-09    4.539E-09    4.462E-09    4.385E-09    4.307E-09    4.228E-09    4.148E-09    4.068E-09    3.987E-09    3.905E-09
     3.823E-09    3.740E-09    3.657E-09    3.573E-09    3.489E-09    3.405E-09    3.320E-09    3.235E-09    3.150E-09    3.065E-09
     2.980E-09    2.895E-09    2.810E-09    2.726E-09    2.641E-09    2.557E-09    2.473E-09    2.390E-09    2.307E-09    2.224E-09
     2.142E-09    2.061E-09    1.980E-09    1.900E-09    1.821E-09    1.743E-09    1.666E-09    1.590E-09    1.514E-09    1.440E-09
     1.368E-09    1.296E-09    1.225E-09    1.156E-09    1.089E-09    1.023E-09    9.580E-10    8.950E-10    8.336E-10    7.739E-10
     7.160E-10    6.599E-10    6.057E-10    5.534E-10    5.031E-10    4.549E-10    4.088E-10    3.649E-10    3.231E-10    2.835E-10
     2.460E-10    2.106E-10    1.772E-10    1.459E-10    1.165E-10    8.906E-11    6.355E-11    3.992E-11    1.815E-11   -1.780E-12
    -1.993E-11   -3.632E-11   -5.097E-11   -6.393E-11   -7.522E-11   -8.487E-11   -9.292E-11   -9.940E-11   -1.043E-10   -1.078E-10
    -1.097E-10   -1.102E-10   -1.093E-10   -1.070E-10   -1.033E-10   -9.835E-11   -9.209E-11   -8.457E-11   -7.582E-11   -6.588E-11
    -5.477E-11   -4.252E-11   -2.918E-11   -1.478E-11    6.751E-13    1.713E-11    3.456E-11    5.293E-11    7.222E-11    9.238E-11
     1.134E-10    1.352E-10    1.578E-10    1.812E-10    2.053E-10    2.302E-10    2.557E-10    2.820E-10    3.089E-10    3.364E-10
     3.646E-10    3.934E-10    4.228E-10    4.528E-10    4.833E-10    5.144E-10    5.460E-10    5.781E-10    6.106E-10    6.437E-10
     6.772E-10    7.111E-10    7.454E-10    7.801E-10    8.152E-10    8.506E-10    8.864E-10    9.225E-10    9.589E-10    9.955E-10
     1.032E-09    1.070E-09    1.107E-09    1.145E-09    1.182E-09    1.220E-09    1.258E-09    1.297E-09    1.335E-09    1.374E-09
     1.412E-09    1.451E-09    1.489E-09    1.528E-09    1.567E-09    1.605E-09    1.644E-09    1.682E-09    1.721E-09    1.759E-09
     1.798E-09    1.836E-09    1.874E-09    1.912E-09    1.950E-09    1.988E-09    2.026E-09    2.064E-09    2.102E-09    2.140E-09
     2.178E-09    2.216E-09    2.253E-09    2.291E-09    2.328E-09    2.366E-09    2.403E-09    2.441E-09    2.478E-09    2.516E-09
     2.553E-09    2.590E-09    2.627E-09    2.665E-09    2.702E-09    2.739E-09    2.776E-09    2.813E-09    2.850E-09    2.887E-09
     2.924E-09    2.961E-09    2.998E-09    3.035E-09    3.072E-09    3.109E-09    3.146E-09    3.183E-09    3.220E-09    3.256E-09
     3.293E-09    3.330E-09    3.367E-09
 Ala      Conc. = 3.01E-11
  -1.41186E-09 -1.32751E-09 -1.24290E-09 -1.15756E-09 -1.07417E-09 -9.90679E-10 -9.05421E-10 -8.25477E-10 -7.46082E-10 -6.59545E-10
  -5.78685E-10 -5.00713E-10 -4.17184E-10 -3.34769E-10 -2.53532E-10 -1.71356E-10 -8.87717E-11 -6.00105E-12  7.68421E-11  1.59701E-10
   2.42532E-10  3.25311E-10  4.08031E-10  4.90663E-10  5.73197E-10  6.55631E-10  7.37953E-10  8.20153E-10  9.02215E-10  9.84150E-10
   1.06594E-09  1.14757E-09  1.22906E-09  1.31038E-09  1.39153E-09  1.47250E-09  1.55330E-09  1.63391E-09  1.71432E-09  1.79454E-09
   1.87456E-09  1.95435E-09  2.03394E-09  2.11331E-09  2.19245E-09  2.27135E-09  2.34998E-09  2.42839E-09  2.50654E-09  2.58441E-09
   2.66198E-09  2.73924E-09  2.81617E-09  2.89277E-09  2.96902E-09  3.04489E-09  3.12039E-09  3.19549E-09  3.27017E-09  3.34443E-09
   3.41825E-09  3.49162E-09  3.56451E-09  3.63693E-09  3.70884E-09  3.78024E-09  3.85112E-09  3.92145E-09  3.99123E-09  4.06044E-09
   4.12906E-09  4.19708E-09  4.26450E-09  4.33128E-09  4.39742E-09  4.46291E-09  4.52773E-09  4.59186E-09  4.65529E-09  4.71802E-09
   4.78002E-09  4.84129E-09  4.90180E-09  4.96155E-09  5.02053E-09  5.07871E-09  5.13610E-09  5.19269E-09  5.24846E-09  5.30342E-09
   5.35755E-09  5.41088E-09  5.46339E-09  5.51512E-09  5.56610E-09  5.61643E-09  5.66634E-09  5.71636E-09  5.76799E-09  5.82697E-09
   5.89996E-09  5.94412E-09  5.99001E-09  6.05942E-09  6.10882E-09  6.14897E-09  6.18846E-09  6.22549E-09  6.26043E-09  6.29143E-09
   6.30450E-09  6.29753E-09  6.33168E-09  6.35303E-09  6.34006E-09  6.34974E-09  6.36483E-09  6.38074E-09  6.39607E-09  6.41028E-09
   6.42307E-09  6.43428E-09  6.44382E-09  6.45158E-09  6.45752E-09  6.46157E-09  6.46371E-09  6.46388E-09  6.46204E-09  6.45815E-09
   6.45219E-09  6.44411E-09  6.43389E-09  6.42149E-09  6.40687E-09  6.39001E-09  6.37087E-09  6.34944E-09  6.32576E-09  6.29987E-09
   6.27180E-09  6.24159E-09  6.20930E-09  6.17494E-09  6.13858E-09  6.10024E-09  6.05997E-09  6.01780E-09  5.97378E-09  5.92794E-09
   5.88034E-09  5.83099E-09  5.77996E-09  5.72728E-09  5.67298E-09  5.61713E-09  5.55975E-09  5.50088E-09  5.44059E-09  5.37889E-09
   5.31589E-09  5.25161E-09  5.18614E-09  5.11964E-09  5.05239E-09  4.98527E-09  4.92270E-09  4.87345E-09  4.80767E-09  4.73563E-09
   4.66291E-09  4.58781E-09  4.51096E-09  4.43364E-09  4.35638E-09  4.27973E-09  4.20240E-09  4.11312E-09  4.00242E-09  3.91331E-09
   3.82859E-09  3.74466E-09  3.66074E-09  3.57664E-09  3.49230E-09  3.40772E-09  3.32295E-09  3.23801E-09  3.15297E-09  3.06786E-09
   2.98276E-09  2.89770E-09  2.81277E-09  2.72800E-09  2.64345E-09  2.55919E-09  2.47527E-09  2.39176E-09  2.30870E-09  2.22617E-09
   2.14421E-09  2.06289E-09  1.98227E-09  1.90242E-09  1.82338E-09  1.74520E-09  1.66796E-09  1.59172E-09  1.51652E-09  1.44244E-09
   1.36954E-09  1.29787E-09  1.22748E-09  1.15843E-09  1.09081E-09  1.02465E-09  9.60018E-10  8.96965E-10  8.35562E-10  7.75880E-10
   7.17938E-10  6.61839E-10  6.07626E-10  5.55341E-10  5.05051E-10  4.56859E-10  4.10756E-10  3.66823E-10  3.25073E-10  2.85463E-10
   2.47958E-10  2.12534E-10  1.79154E-10  1.47786E-10  1.18405E-10  9.09689E-11  6.54558E-11  4.18279E-11  2.00575E-11  1.19403E-13
  -1.80310E-11 -3.44237E-11 -4.90816E-11 -6.20397E-11 -7.33351E-11 -8.29884E-11 -9.10417E-11 -9.75204E-11 -1.02454E-10 -1.05881E-10
  -1.07830E-10 -1.08328E-10 -1.07416E-10 -1.05116E-10 -1.01467E-10 -9.64865E-11 -9.02262E-11 -8.27087E-11 -7.39571E-11 -6.40182E-11
  -5.29103E-11 -4.06706E-11 -2.73268E-11 -1.29257E-11  2.52426E-12  1.89760E-11  3.64067E-11  5.47695E-11  7.40607E-11  9.42191E-11
   1.15236E-10  1.37065E-10  1.59681E-10  1.83059E-10  2.07178E-10  2.32022E-10  2.57571E-10  2.83806E-10  3.10711E-10  3.38265E-10
   3.66451E-10  3.95250E-10  4.24642E-10  4.54611E-10  4.85137E-10  5.16203E-10  5.47788E-10  5.79876E-10  6.12447E-10  6.45482E-10
   6.78964E-10  7.12875E-10  7.47194E-10  7.81904E-10  8.16987E-10  8.52424E-10  8.88196E-10  9.24284E-10  9.60671E-10  9.97338E-10
   1.03427E-09  1.07144E-09  1.10883E-09  1.14643E-09  1.18422E-09  1.22218E-09  1.26029E-09  1.29853E-09  1.33688E-09  1.37533E-09
   1.41385E-09  1.45244E-09  1.49106E-09  1.52970E-09  1.56835E-09  1.60697E-09  1.64557E-09  1.68411E-09  1.72259E-09  1.76100E-09
   1.79934E-09  1.83762E-09  1.87584E-09  1.91400E-09  1.95211E-09  1.99015E-09  2.02814E-09  2.06607E-09  2.10395E-09  2.14177E-09
   2.17954E-09  2.21727E-09  2.25494E-09  2.29256E-09  2.33014E-09  2.36768E-09  2.40517E-09  2.44261E-09  2.48002E-09  2.51738E-09
   2.55471E-09  2.59200E-09  2.62925E-09  2.66647E-09  2.70365E-09  2.74080E-09  2.77792E-09  2.81501E-09  2.85207E-09  2.88910E-09
   2.92611E-09  2.96309E-09  3.00004E-09  3.03698E-09  3.07389E-09  3.11078E-09  3.14766E-09  3.18451E-09  3.22135E-09  3.25818E-09
   3.29499E-09  3.33179E-09  3.36858E-09
 Asp      Conc. = 1.39E-09
   1.22654E-10 -4.53050E-11 -8.95714E-11 -2.25555E-10 -2.11342E-10 -3.00860E-10 -3.93664E-10 -5.16403E-10 -5.21406E-10 -4.85008E-10
  -4.30310E-10 -3.66167E-10 -2.95714E-10 -2.18345E-10 -1.39294E-10 -5.94839E-11  2.13475E-11  1.03095E-10  1.85621E-10  2.68831E-10
   3.52653E-10  4.37058E-10  5.22056E-10  6.07658E-10  6.93928E-10  7.80969E-10  8.68917E-10  9.57976E-10  1.04842E-09  1.14070E-09
   1.23541E-09  1.33353E-09  1.43664E-09  1.54763E-09  1.67240E-09  1.82596E-09  2.04481E-09  2.19280E-09  2.38929E-09  2.47870E-09
   2.55032E-09  2.66341E-09  2.88762E-09  3.24300E-09  3.66529E-09  4.17413E-09  4.25500E-09  4.17686E-09  4.47185E-09  4.55011E-09
   4.69876E-09  4.96404E-09  5.15399E-09  5.10967E-09  4.89651E-09  4.63778E-09  4.21226E-09  4.33759E-09  4.48590E-09  4.22045E-09
   4.13677E-09  4.14360E-09  4.06217E-09  4.07787E-09  4.20795E-09  4.30839E-09  4.24486E-09  4.23952E-09  4.26213E-09  4.29855E-09
   4.34282E-09  4.39194E-09  4.44422E-09  4.49860E-09  4.55439E-09  4.61112E-09  4.66842E-09  4.72605E-09  4.78380E-09  4.84152E-09
   4.89907E-09  4.95636E-09  5.01330E-09  5.06981E-09  5.12584E-09  5.18133E-09  5.23623E-09  5.29050E-09  5.34411E-09  5.39701E-09
   5.44917E-09  5.50058E-09  5.55118E-09  5.60094E-09  5.64981E-09  5.69776E-09  5.74475E-09  5.79073E-09  5.83568E-09  5.87955E-09
   5.92231E-09  5.96393E-09  6.00437E-09  6.04359E-09  6.08156E-09  6.11825E-09  6.15363E-09  6.18765E-09  6.22028E-09  6.25151E-09
   6.28128E-09  6.30957E-09  6.33634E-09  6.36157E-09  6.38522E-09  6.40725E-09  6.42765E-09  6.44637E-09  6.46338E-09  6.47865E-09
   6.49215E-09  6.50385E-09  6.51371E-09  6.52171E-09  6.52781E-09  6.53198E-09  6.53420E-09  6.53442E-09  6.53263E-09  6.52877E-09
   6.52284E-09  6.51479E-09  6.50460E-09  6.49223E-09  6.47766E-09  6.46086E-09  6.44179E-09  6.42045E-09  6.39687E-09  6.37112E-09
   6.34320E-09  6.31318E-09  6.28111E-09  6.24701E-09  6.21095E-09  6.17297E-09  6.13311E-09  6.09144E-09  6.04799E-09  6.00284E-09
   5.95605E-09  5.90767E-09  5.85779E-09  5.80649E-09  5.75388E-09  5.70009E-09  5.64528E-09  5.58967E-09  5.53356E-09  5.47739E-09
   5.42190E-09  5.36825E-09  5.31865E-09  5.27774E-09  5.25700E-09  5.29359E-09  5.57135E-09  6.53922E-09  6.80640E-09  6.81478E-09
   6.83238E-09  6.78312E-09  6.69227E-09  6.61526E-09  6.57747E-09  6.60119E-09  6.63513E-09  6.17701E-09  4.72014E-09  4.26805E-09
   4.06545E-09  3.92693E-09  3.81239E-09  3.70902E-09  3.61159E-09  3.51763E-09  3.42585E-09  3.33551E-09  3.24620E-09  3.15765E-09
   3.06972E-09  2.98230E-09  2.89539E-09  2.80891E-09  2.72291E-09  2.63737E-09  2.55234E-09  2.46784E-09  2.38392E-09  2.30060E-09
   2.21794E-09  2.13600E-09  2.05480E-09  1.97442E-09  1.89490E-09  1.81629E-09  1.73865E-09  1.66203E-09  1.58649E-09  1.51209E-09
   1.43889E-09  1.36694E-09  1.29629E-09  1.22700E-09  1.15915E-09  1.09277E-09  1.02793E-09  9.64689E-10  9.03102E-10  8.43246E-10
   7.85138E-10  7.28881E-10  6.74518E-10  6.22089E-10  5.71662E-10  5.23339E-10  4.77110E-10  4.33057E-10  3.91190E-10  3.51468E-10
   3.13855E-10  2.78327E-10  2.44848E-10  2.13382E-10  1.83907E-10  1.56381E-10  1.30780E-10  1.07067E-10  8.52136E-11  6.51953E-11
