 LCModel (Version 6.3-1R) Copyright: S.W. Provencher.          Ref.: Magn. Reson. Med. 30:672-679 (1993).                
 onepulse 14x9_ftSpec_smooth_lcm
 26 lines in following concentration table = NCONC+1
    Conc.  %SD /Cr+PCr  Metabolite                                         
    0.000 999%   0.000 Ala                                                 
 2.17E-10 332%   1.325 Asp                                                 
    0.000 999%   0.000 Cr                                                  
 5.89E-10 112%   3.606 GABA                                                
    0.000 999%   0.000 Glc                                                 
 1.55E-09  49%   9.459 Gln                                                 
    0.000 999%   0.000 Glu                                                 
    0.000 999%   0.000 Glyc                                                
    0.000 999%   0.000 GPC                                                 
 9.28E-10  55%   5.676 GSH                                                 
 2.21E-09  19%  13.514 Ins                                                 
    0.000 999%   0.000 Lac                                                 
 5.36E-11 660%   0.328 NAAG                                                
 5.29E-10  94%   3.236 NAA                                                 
    0.000 999%   0.000 PCh                                                 
 1.63E-10 226%   1.000 PCr                                                 
 1.97E-09  44%  12.038 PE                                                  
 1.90E-10 143%   1.162 Scyllo                                              
 2.43E-09  34%  14.877 Ser                                                 
 4.27E-10 221%   2.614 Tau                                                 
    0.000 999%   0.000 GPC+PCh                                             
 5.83E-10  50%   3.564 NAA+NAAG                                            
 2.21E-09  19%  13.514 Ins+Glyc                                            
 1.63E-10 226%   1.000 Cr+PCr                                              
 1.55E-09  49%   9.459 Glu+Gln                                             
   6 lines in following misc. output table
  FWHM = 0.123 ppm    S/N =   3                                            
  Data shift = 0.414 ppm                                                   
  Ph:  15 deg     -36.5 deg/ppm                                            
  alphaB,S = 4.1E-01,   1.5E+01                                            
   10 spline knots.   Ns = 5(1)                                            
  (10) 6 infls.   ( 7) 3 extrs.                                            
  363 points on ppm-axis = NY
      4.250000     4.238821     4.227641     4.216462     4.205282     4.194103     4.182923     4.171744     4.160564     4.149385
      4.138206     4.127026     4.115847     4.104667     4.093488     4.082308     4.071129     4.059949     4.048770     4.037591
      4.026411     4.015232     4.004052     3.992873     3.981693     3.970514     3.959334     3.948155     3.936975     3.925796
      3.914617     3.903437     3.892258     3.881078     3.869899     3.858719     3.847540     3.836360     3.825181     3.814002
      3.802822     3.791643     3.780463     3.769284     3.758104     3.746925     3.735745     3.724566     3.713387     3.702207
      3.691028     3.679848     3.668669     3.657489     3.646310     3.635130     3.623951     3.612772     3.601592     3.590413
      3.579233     3.568054     3.556874     3.545695     3.534515     3.523336     3.512156     3.500977     3.489798     3.478618
      3.467439     3.456259     3.445080     3.433900     3.422721     3.411541     3.400362     3.389183     3.378003     3.366824
      3.355644     3.344465     3.333285     3.322106     3.310926     3.299747     3.288568     3.277388     3.266209     3.255029
      3.243850     3.232670     3.221491     3.210311     3.199132     3.187953     3.176773     3.165594     3.154414     3.143235
      3.132055     3.120876     3.109696     3.098517     3.087337     3.076158     3.064979     3.053799     3.042620     3.031440
      3.020261     3.009081     2.997902     2.986722     2.975543     2.964364     2.953184     2.942005     2.930825     2.919646
      2.908466     2.897287     2.886107     2.874928     2.863749     2.852569     2.841390     2.830210     2.819031     2.807851
      2.796672     2.785492     2.774313     2.763134     2.751954     2.740775     2.729595     2.718416     2.707236     2.696057
      2.684877     2.673698     2.662519     2.651339     2.640160     2.628980     2.617801     2.606621     2.595442     2.584262
      2.573083     2.561903     2.550724     2.539545     2.528365     2.517186     2.506006     2.494827     2.483647     2.472468
      2.461288     2.450109     2.438930     2.427750     2.416571     2.405391     2.394212     2.383032     2.371853     2.360673
      2.349494     2.338315     2.327135     2.315956     2.304776     2.293597     2.282417     2.271238     2.260058     2.248879
      2.237700     2.226520     2.215341     2.204161     2.192982     2.181802     2.170623     2.159443     2.148264     2.137084
      2.125905     2.114726     2.103546     2.092367     2.081187     2.070008     2.058828     2.047649     2.036469     2.025290
      2.014111     2.002931     1.991752     1.980572     1.969393     1.958213     1.947034     1.935854     1.924675     1.913496
      1.902316     1.891137     1.879957     1.868778     1.857598     1.846419     1.835239     1.824060     1.812881     1.801701
      1.790522     1.779342     1.768163     1.756983     1.745804     1.734624     1.723445     1.712265     1.701086     1.689907
      1.678727     1.667548     1.656368     1.645189     1.634009     1.622830     1.611650     1.600471     1.589292     1.578112
      1.566933     1.555753     1.544574     1.533394     1.522215     1.511035     1.499856     1.488677     1.477497     1.466318
      1.455138     1.443959     1.432779     1.421600     1.410420     1.399241     1.388062     1.376882     1.365703     1.354523
      1.343344     1.332164     1.320985     1.309805     1.298626     1.287446     1.276267     1.265088     1.253908     1.242729
      1.231549     1.220370     1.209190     1.198011     1.186831     1.175652     1.164473     1.153293     1.142114     1.130934
      1.119755     1.108575     1.097396     1.086216     1.075037     1.063858     1.052678     1.041499     1.030319     1.019140
      1.007960     0.996781     0.985601     0.974422     0.963243     0.952063     0.940884     0.929704     0.918525     0.907345
      0.896166     0.884986     0.873807     0.862628     0.851448     0.840269     0.829089     0.817910     0.806730     0.795551
      0.784371     0.773192     0.762012     0.750833     0.739654     0.728474     0.717295     0.706115     0.694936     0.683756
      0.672577     0.661397     0.650218     0.639039     0.627859     0.616680     0.605500     0.594321     0.583141     0.571962
      0.560782     0.549603     0.538424     0.527244     0.516065     0.504885     0.493706     0.482526     0.471347     0.460167
      0.448988     0.437809     0.426629     0.415450     0.404270     0.393091     0.381911     0.370732     0.359552     0.348373
      0.337193     0.326014     0.314835     0.303655     0.292476     0.281296     0.270117     0.258937     0.247758     0.236578
      0.225399     0.214220     0.203040
 NY phased data points follow
   8.76683E-09  8.87076E-09  7.72775E-09  7.44471E-09  7.12755E-09  7.12203E-09  7.52457E-09  7.12924E-09  7.55006E-09  8.49243E-09
   8.71044E-09  9.00881E-09  8.85063E-09  9.22871E-09  9.18212E-09  9.39713E-09  8.54298E-09  8.59302E-09  7.58331E-09  8.47503E-09
   9.30377E-09  9.85924E-09  9.35196E-09  8.99202E-09  7.45921E-09  7.44795E-09  8.52338E-09  9.79292E-09  1.10535E-08  1.18533E-08
   1.18221E-08  1.15931E-08  1.08076E-08  1.06397E-08  1.04956E-08  9.87979E-09  9.93237E-09  1.03898E-08  9.70066E-09  9.89398E-09
   9.91345E-09  9.42281E-09  8.89317E-09  8.86752E-09  8.61441E-09  8.27429E-09  8.07764E-09  8.47852E-09  8.49504E-09  8.01579E-09
   7.52991E-09  6.59941E-09  6.04371E-09  5.85015E-09  5.79293E-09  5.45933E-09  5.19038E-09  5.24963E-09  7.48323E-09  9.69114E-09
   1.09138E-08  1.07054E-08  1.06374E-08  1.03191E-08  1.01016E-08  9.36770E-09  9.47441E-09  8.60509E-09  8.35043E-09  6.97514E-09
   7.07352E-09  4.90854E-09  3.88211E-09  2.51712E-09  5.80717E-09  9.53579E-09  1.18277E-08  1.21226E-08  1.22991E-08  1.27426E-08
   1.29499E-08  1.25415E-08  1.21576E-08  1.22610E-08  1.25376E-08  1.25531E-08  1.17170E-08  1.28283E-08  1.20094E-08  1.21308E-08
   1.22144E-08  1.16924E-08  1.14027E-08  1.12736E-08  1.01405E-08  9.77437E-09  9.71515E-09  1.04657E-08  1.00250E-08  9.60668E-09
   9.46074E-09  9.89633E-09  9.97516E-09  9.77542E-09  8.31373E-09  8.88424E-09  7.72501E-09  7.18472E-09  7.08046E-09  8.13006E-09
   7.24102E-09  7.54618E-09  7.47004E-09  7.99844E-09  7.20246E-09  7.83939E-09  8.17842E-09  8.49058E-09  7.53082E-09  7.82786E-09
   7.26052E-09  6.01622E-09  5.81300E-09  6.34047E-09  5.98051E-09  5.40932E-09  5.66130E-09  6.02676E-09  6.54106E-09  6.52692E-09
   6.38314E-09  6.29992E-09  5.98294E-09  5.18903E-09  5.50721E-09  7.22873E-09  7.84047E-09  7.87150E-09  7.71778E-09  7.66702E-09
   8.61894E-09  9.32212E-09  9.33906E-09  9.35820E-09  9.75019E-09  9.81812E-09  1.07738E-08  9.92958E-09  9.78072E-09  9.84305E-09
   1.02118E-08  9.93050E-09  1.01083E-08  1.05637E-08  1.05183E-08  1.02457E-08  1.00964E-08  1.03591E-08  1.06042E-08  1.05623E-08
   1.02863E-08  9.89518E-09  1.05453E-08  8.49474E-09  5.88256E-09  8.22943E-09  1.40325E-08  1.83932E-08  2.06067E-08  2.06813E-08
   2.15791E-08  2.22252E-08  2.17706E-08  2.15882E-08  2.12056E-08  2.13193E-08  2.07989E-08  1.94727E-08  1.92443E-08  1.74481E-08
   1.60209E-08  1.40959E-08  1.15243E-08  9.10020E-09  6.57219E-09  3.78593E-09  7.33923E-10 -1.91438E-09 -4.06342E-09 -6.40129E-09
  -7.96248E-09 -1.01386E-08 -1.04300E-08 -1.06611E-08 -1.08326E-08 -1.03757E-08 -8.85789E-09 -8.59493E-09 -7.13954E-09 -6.00317E-09
  -4.69182E-09 -4.20910E-09 -2.84335E-09 -2.51341E-09 -2.00952E-09 -2.36035E-09 -1.37275E-09 -2.88011E-09 -1.91912E-09 -2.85642E-09
  -1.82699E-09 -2.38518E-09 -2.25387E-09 -2.09857E-09 -1.76014E-09 -1.93639E-09 -1.37737E-09 -1.60073E-09 -1.31711E-09 -1.85630E-09
  -1.28157E-09 -1.86942E-09 -2.10716E-09 -1.89513E-09 -1.77398E-09 -1.76405E-09 -1.21084E-09 -1.43606E-09 -1.35959E-09 -1.83031E-09
  -1.31458E-09 -1.76952E-09 -1.23392E-09 -1.44371E-09 -1.93767E-09 -2.34767E-09 -2.32839E-09 -2.70351E-09 -2.21666E-09 -2.29262E-09
  -1.98619E-09 -1.92764E-09 -1.68276E-09 -1.48119E-09 -1.28232E-09 -1.95097E-09 -1.18434E-09 -1.71735E-09 -1.49357E-09 -2.22535E-09
  -1.64301E-09 -1.76646E-09 -2.02799E-09 -2.24969E-09 -1.88592E-09 -2.14789E-09 -2.58289E-09 -2.72210E-09 -3.07618E-09 -2.82636E-09
  -2.83185E-09 -3.55369E-09 -3.15909E-09 -3.20821E-09 -3.05552E-09 -3.16450E-09 -3.07510E-09 -3.13997E-09 -2.45301E-09 -1.69833E-09
  -1.96568E-09 -1.80918E-09 -1.22467E-09 -1.53898E-09 -1.27564E-09 -1.20905E-09 -1.60170E-09 -9.61598E-10 -1.24706E-09 -1.08303E-09
  -1.43804E-09 -1.00233E-09 -1.63025E-09 -1.53377E-09 -1.76934E-09 -1.57478E-09 -1.66894E-09 -1.78553E-09 -2.33154E-09 -2.06554E-09
  -2.11015E-09 -1.99484E-09 -2.05385E-09 -1.86305E-09 -2.72116E-09 -2.80708E-09 -2.99522E-09 -2.36719E-09 -2.83405E-09 -2.86181E-09
  -3.19053E-09 -3.07271E-09 -3.06710E-09 -3.65023E-09 -3.56838E-09 -3.54887E-09 -3.74363E-09 -3.57192E-09 -3.62209E-09 -4.07239E-09
  -4.03787E-09 -3.52811E-09 -3.99291E-09 -3.77031E-09 -4.39828E-09 -4.01645E-09 -3.85891E-09 -4.38133E-09 -4.77208E-09 -4.30168E-09
  -4.57089E-09 -4.07798E-09 -4.30780E-09 -4.63883E-09 -4.62598E-09 -4.27796E-09 -5.24835E-09 -4.35595E-09 -5.15204E-09 -4.77831E-09
  -5.19297E-09 -4.53917E-09 -5.37289E-09 -5.14135E-09 -5.45121E-09 -4.86761E-09 -5.54536E-09 -5.57293E-09 -5.62116E-09 -5.37692E-09
  -5.87631E-09 -5.55213E-09 -5.99105E-09 -5.59305E-09 -5.55251E-09 -5.32756E-09 -6.26804E-09 -5.40794E-09 -5.73244E-09 -5.33855E-09
  -5.81735E-09 -5.51976E-09 -5.91073E-09 -5.84009E-09 -5.82742E-09 -5.86975E-09 -6.38459E-09 -5.63182E-09 -6.29233E-09 -6.01792E-09
  -5.96618E-09 -5.63200E-09 -5.65477E-09
 NY points of the fit to the data follow
   8.96648E-09  9.42429E-09  8.88602E-09  7.58529E-09  6.84392E-09  7.44515E-09  7.69641E-09  7.03602E-09  7.31119E-09  8.95193E-09
   8.72399E-09  8.52057E-09  8.35969E-09  8.28655E-09  9.04042E-09  9.52229E-09  8.75513E-09  8.70439E-09  1.03085E-08  1.04599E-08
   8.71283E-09  7.53259E-09  7.90210E-09  8.35467E-09  8.49371E-09  8.85958E-09  9.82814E-09  1.06599E-08  1.10940E-08  1.06781E-08
   1.08602E-08  1.12128E-08  1.14496E-08  1.09835E-08  1.08458E-08  1.06885E-08  1.02177E-08  9.83287E-09  9.67843E-09  9.52073E-09
   9.33095E-09  9.36902E-09  9.40048E-09  8.96252E-09  8.62832E-09  8.09894E-09  7.76514E-09  7.20187E-09  6.46834E-09  6.07688E-09
   5.92875E-09  6.01418E-09  6.09378E-09  6.17783E-09  6.63352E-09  7.10337E-09  7.16288E-09  7.70316E-09  8.60692E-09  9.11379E-09
   9.30273E-09  9.50491E-09  9.75037E-09  9.95074E-09  9.90753E-09  9.57295E-09  9.38026E-09  9.39083E-09  8.84085E-09  8.16654E-09
   8.11137E-09  8.22831E-09  8.22820E-09  8.21186E-09  8.61410E-09  9.06379E-09  9.25406E-09  1.05766E-08  1.18434E-08  1.25494E-08
   1.30403E-08  1.32410E-08  1.33427E-08  1.34208E-08  1.34350E-08  1.32974E-08  1.33154E-08  1.31885E-08  1.17150E-08  1.07185E-08
   1.02101E-08  9.83813E-09  9.71177E-09  9.57485E-09  9.25522E-09  9.15955E-09  9.10696E-09  8.88178E-09  8.75124E-09  8.67286E-09
   8.56481E-09  8.47891E-09  8.41189E-09  8.35739E-09  8.31379E-09  8.27877E-09  8.25039E-09  8.22739E-09  8.20867E-09  8.19352E-09
   8.18136E-09  8.17140E-09  8.16319E-09  8.15632E-09  8.15041E-09  8.14521E-09  8.14046E-09  8.13583E-09  8.13106E-09  8.12593E-09
   8.12022E-09  8.11377E-09  8.10638E-09  8.09789E-09  8.08811E-09  8.07692E-09  8.06414E-09  8.04964E-09  8.03329E-09  8.01497E-09
   7.99452E-09  7.97183E-09  7.94680E-09  7.91931E-09  7.88924E-09  7.85650E-09  7.82097E-09  7.78256E-09  7.74117E-09  7.69672E-09
   7.64910E-09  7.59825E-09  7.54410E-09  7.48656E-09  7.42556E-09  7.36105E-09  7.29299E-09  7.22134E-09  7.14610E-09  7.06727E-09
   6.98486E-09  6.89898E-09  6.80972E-09  6.71728E-09  6.62195E-09  6.52418E-09  6.42467E-09  6.32457E-09  6.22571E-09  6.13082E-09
   6.04428E-09  5.97360E-09  5.93288E-09  5.95169E-09  6.10301E-09  6.61814E-09  8.60413E-09  1.63305E-08  2.08860E-08  2.16366E-08
   2.18260E-08  2.21870E-08  2.20651E-08  2.15920E-08  2.13917E-08  2.19389E-08  2.27478E-08  2.00481E-08  9.92405E-09  5.80574E-09
   4.46854E-09  3.77941E-09  3.32201E-09  2.97170E-09  2.67939E-09  2.42218E-09  2.18794E-09  1.96979E-09  1.76361E-09  1.56675E-09
   1.37747E-09  1.19467E-09  1.01752E-09  8.45588E-10  6.78458E-10  5.15947E-10  3.57917E-10  2.04330E-10  5.51348E-11 -8.96078E-11
  -2.29854E-10 -3.65531E-10 -4.96536E-10 -6.22775E-10 -7.44118E-10 -8.60449E-10 -9.71602E-10 -1.07750E-09 -1.17801E-09 -1.27330E-09
  -1.36350E-09 -1.44877E-09 -1.52926E-09 -1.60511E-09 -1.67647E-09 -1.74349E-09 -1.80629E-09 -1.86502E-09 -1.91983E-09 -1.97086E-09
  -2.01822E-09 -2.06207E-09 -2.10254E-09 -2.13977E-09 -2.17388E-09 -2.20503E-09 -2.23331E-09 -2.25890E-09 -2.28192E-09 -2.30248E-09
  -2.32072E-09 -2.33678E-09 -2.35077E-09 -2.36285E-09 -2.37311E-09 -2.38172E-09 -2.38878E-09 -2.39441E-09 -2.39876E-09 -2.40193E-09
  -2.40405E-09 -2.40524E-09 -2.40564E-09 -2.40535E-09 -2.40450E-09 -2.40320E-09 -2.40158E-09 -2.39977E-09 -2.39784E-09 -2.39592E-09
  -2.39415E-09 -2.39264E-09 -2.39147E-09 -2.39076E-09 -2.39065E-09 -2.39120E-09 -2.39255E-09 -2.39478E-09 -2.39802E-09 -2.40236E-09
  -2.40784E-09 -2.41445E-09 -2.42220E-09 -2.43105E-09 -2.44101E-09 -2.45207E-09 -2.46419E-09 -2.47739E-09 -2.49163E-09 -2.50691E-09
  -2.52322E-09 -2.54054E-09 -2.55885E-09 -2.57814E-09 -2.59840E-09 -2.61962E-09 -2.64177E-09 -2.66484E-09 -2.68881E-09 -2.71368E-09
  -2.73942E-09 -2.76602E-09 -2.79346E-09 -2.82172E-09 -2.85080E-09 -2.88067E-09 -2.91130E-09 -2.94269E-09 -2.97483E-09 -3.00769E-09
  -3.04125E-09 -3.07549E-09 -3.11039E-09 -3.14595E-09 -3.18214E-09 -3.21894E-09 -3.25632E-09 -3.29428E-09 -3.33278E-09 -3.37183E-09
  -3.41139E-09 -3.45143E-09 -3.49195E-09 -3.53292E-09 -3.57432E-09 -3.61613E-09 -3.65834E-09 -3.70091E-09 -3.74383E-09 -3.78707E-09
  -3.83063E-09 -3.87447E-09 -3.91855E-09 -3.96283E-09 -4.00726E-09 -4.05180E-09 -4.09640E-09 -4.14103E-09 -4.18563E-09 -4.23016E-09
  -4.27459E-09 -4.31886E-09 -4.36293E-09 -4.40678E-09 -4.45034E-09 -4.49359E-09 -4.53649E-09 -4.57898E-09 -4.62104E-09 -4.66263E-09
  -4.70371E-09 -4.74424E-09 -4.78418E-09 -4.82350E-09 -4.86217E-09 -4.90014E-09 -4.93739E-09 -4.97387E-09 -5.00956E-09 -5.04443E-09
  -5.07844E-09 -5.11155E-09 -5.14375E-09 -5.17500E-09 -5.20526E-09 -5.23452E-09 -5.26274E-09 -5.28990E-09 -5.31596E-09 -5.34091E-09
  -5.36471E-09 -5.38735E-09 -5.40879E-09 -5.42902E-09 -5.44801E-09 -5.46575E-09 -5.48220E-09 -5.49735E-09 -5.51118E-09 -5.52367E-09
  -5.53481E-09 -5.54457E-09 -5.55293E-09
 NY background values follow
    -1.433E-09   -1.395E-09   -1.356E-09   -1.316E-09   -1.275E-09   -1.233E-09   -1.190E-09   -1.146E-09   -1.101E-09   -1.055E-09
    -1.009E-09   -9.616E-10   -9.134E-10   -8.643E-10   -8.143E-10   -7.635E-10   -7.119E-10   -6.594E-10   -6.061E-10   -5.520E-10
    -4.972E-10   -4.415E-10   -3.850E-10   -3.277E-10   -2.697E-10   -2.110E-10   -1.515E-10   -9.121E-11   -3.024E-11    3.145E-11
     9.387E-11    1.570E-10    2.207E-10    2.852E-10    3.503E-10    4.161E-10    4.825E-10    5.496E-10    6.173E-10    6.856E-10
     7.545E-10    8.240E-10    8.941E-10    9.647E-10    1.036E-09    1.108E-09    1.180E-09    1.253E-09    1.326E-09    1.400E-09
     1.474E-09    1.549E-09    1.624E-09    1.700E-09    1.776E-09    1.853E-09    1.930E-09    2.007E-09    2.085E-09    2.163E-09
     2.241E-09    2.319E-09    2.398E-09    2.477E-09    2.556E-09    2.635E-09    2.714E-09    2.794E-09    2.873E-09    2.953E-09
     3.033E-09    3.112E-09    3.192E-09    3.271E-09    3.351E-09    3.430E-09    3.509E-09    3.588E-09    3.666E-09    3.745E-09
     3.823E-09    3.901E-09    3.979E-09    4.056E-09    4.133E-09    4.209E-09    4.285E-09    4.360E-09    4.435E-09    4.510E-09
     4.584E-09    4.657E-09    4.730E-09    4.802E-09    4.873E-09    4.944E-09    5.014E-09    5.083E-09    5.151E-09    5.218E-09
     5.285E-09    5.350E-09    5.415E-09    5.479E-09    5.542E-09    5.603E-09    5.664E-09    5.723E-09    5.781E-09    5.838E-09
     5.893E-09    5.947E-09    5.999E-09    6.050E-09    6.099E-09    6.146E-09    6.191E-09    6.234E-09    6.275E-09    6.314E-09
     6.350E-09    6.385E-09    6.417E-09    6.446E-09    6.473E-09    6.498E-09    6.519E-09    6.538E-09    6.554E-09    6.568E-09
     6.578E-09    6.585E-09    6.589E-09    6.589E-09    6.586E-09    6.580E-09    6.571E-09    6.557E-09    6.541E-09    6.520E-09
     6.496E-09    6.468E-09    6.435E-09    6.399E-09    6.359E-09    6.314E-09    6.266E-09    6.213E-09    6.155E-09    6.093E-09
     6.027E-09    5.956E-09    5.880E-09    5.800E-09    5.714E-09    5.624E-09    5.529E-09    5.429E-09    5.324E-09    5.215E-09
     5.102E-09    4.984E-09    4.863E-09    4.738E-09    4.609E-09    4.477E-09    4.342E-09    4.204E-09    4.064E-09    3.920E-09
     3.775E-09    3.627E-09    3.478E-09    3.326E-09    3.173E-09    3.019E-09    2.863E-09    2.707E-09    2.550E-09    2.392E-09
     2.234E-09    2.076E-09    1.918E-09    1.760E-09    1.602E-09    1.445E-09    1.289E-09    1.134E-09    9.806E-10    8.283E-10
     6.777E-10    5.288E-10    3.820E-10    2.375E-10    9.533E-11   -4.420E-11   -1.809E-10   -3.146E-10   -4.452E-10   -5.723E-10
    -6.959E-10   -8.157E-10   -9.315E-10   -1.043E-09   -1.151E-09   -1.253E-09   -1.352E-09   -1.445E-09   -1.533E-09   -1.617E-09
    -1.696E-09   -1.770E-09   -1.839E-09   -1.904E-09   -1.965E-09   -2.022E-09   -2.075E-09   -2.124E-09   -2.169E-09   -2.211E-09
    -2.249E-09   -2.284E-09   -2.316E-09   -2.344E-09   -2.370E-09   -2.393E-09   -2.413E-09   -2.430E-09   -2.445E-09   -2.458E-09
    -2.468E-09   -2.476E-09   -2.483E-09   -2.487E-09   -2.490E-09   -2.491E-09   -2.491E-09   -2.490E-09   -2.487E-09   -2.483E-09
    -2.479E-09   -2.473E-09   -2.467E-09   -2.460E-09   -2.452E-09   -2.445E-09   -2.437E-09   -2.428E-09   -2.420E-09   -2.412E-09
    -2.404E-09   -2.397E-09   -2.389E-09   -2.383E-09   -2.377E-09   -2.372E-09   -2.367E-09   -2.364E-09   -2.361E-09   -2.360E-09
    -2.360E-09   -2.361E-09   -2.363E-09   -2.367E-09   -2.371E-09   -2.377E-09   -2.384E-09   -2.392E-09   -2.401E-09   -2.411E-09
    -2.422E-09   -2.435E-09   -2.448E-09   -2.462E-09   -2.478E-09   -2.494E-09   -2.512E-09   -2.530E-09   -2.549E-09   -2.569E-09
    -2.590E-09   -2.612E-09   -2.635E-09   -2.659E-09   -2.684E-09   -2.709E-09   -2.735E-09   -2.762E-09   -2.790E-09   -2.819E-09
    -2.848E-09   -2.878E-09   -2.908E-09   -2.940E-09   -2.972E-09   -3.005E-09   -3.038E-09   -3.072E-09   -3.106E-09   -3.141E-09
    -3.177E-09   -3.213E-09   -3.250E-09   -3.287E-09   -3.324E-09   -3.362E-09   -3.401E-09   -3.440E-09   -3.479E-09   -3.518E-09
    -3.558E-09   -3.598E-09   -3.639E-09   -3.680E-09   -3.720E-09   -3.761E-09   -3.803E-09   -3.844E-09   -3.885E-09   -3.926E-09
    -3.967E-09   -4.008E-09   -4.049E-09   -4.089E-09   -4.129E-09   -4.169E-09   -4.209E-09   -4.248E-09   -4.287E-09   -4.325E-09
    -4.363E-09   -4.401E-09   -4.438E-09   -4.474E-09   -4.509E-09   -4.544E-09   -4.579E-09   -4.612E-09   -4.645E-09   -4.677E-09
    -4.708E-09   -4.738E-09   -4.767E-09   -4.796E-09   -4.823E-09   -4.849E-09   -4.875E-09   -4.899E-09   -4.922E-09   -4.945E-09
    -4.966E-09   -4.986E-09   -5.004E-09   -5.022E-09   -5.038E-09   -5.053E-09   -5.067E-09   -5.080E-09   -5.091E-09   -5.101E-09
    -5.109E-09   -5.117E-09   -5.123E-09
 Asp      Conc. = 2.17E-10
  -1.27182E-09 -1.22469E-09 -1.19526E-09 -1.16396E-09 -1.12136E-09 -1.09658E-09 -1.05674E-09 -1.04677E-09 -1.02529E-09 -9.96173E-10
  -9.62247E-10 -9.25023E-10 -8.85309E-10 -8.43221E-10 -7.99093E-10 -7.53533E-10 -7.06663E-10 -6.58568E-10 -6.09356E-10 -5.59082E-10
  -5.07823E-10 -4.55631E-10 -4.02544E-10 -3.48613E-10 -2.93889E-10 -2.38394E-10 -1.82175E-10 -1.25258E-10 -6.76865E-11 -9.47864E-12
   4.93486E-11  1.08754E-10  1.68800E-10  2.29597E-10  2.91589E-10  3.56521E-10  4.33518E-10  5.10026E-10  5.94944E-10  6.68522E-10
   7.31002E-10  7.90356E-10  8.56519E-10  9.57388E-10  1.06219E-09  1.22366E-09  1.34516E-09  1.41222E-09  1.50950E-09  1.60779E-09
   1.70594E-09  1.81515E-09  1.94175E-09  2.04974E-09  2.10888E-09  2.17511E-09  2.17154E-09  2.24073E-09  2.33598E-09  2.38592E-09
   2.43507E-09  2.50081E-09  2.55698E-09  2.61477E-09  2.69557E-09  2.78550E-09  2.84693E-09  2.91172E-09  2.98010E-09  3.05077E-09
   3.12300E-09  3.19633E-09  3.27048E-09  3.34522E-09  3.42040E-09  3.49591E-09  3.57162E-09  3.64747E-09  3.72338E-09  3.79928E-09
   3.87511E-09  3.95082E-09  4.02637E-09  4.10169E-09  4.17675E-09  4.25151E-09  4.32592E-09  4.39995E-09  4.47356E-09  4.54670E-09
   4.61935E-09  4.69147E-09  4.76302E-09  4.83396E-09  4.90426E-09  4.97389E-09  5.04282E-09  5.11101E-09  5.17842E-09  5.24502E-09
   5.31078E-09  5.37568E-09  5.43967E-09  5.50271E-09  5.56480E-09  5.62585E-09  5.68580E-09  5.74457E-09  5.80207E-09  5.85824E-09
   5.91300E-09  5.96626E-09  6.01795E-09  6.06799E-09  6.11630E-09  6.16280E-09  6.20741E-09  6.25005E-09  6.29065E-09  6.32912E-09
   6.36538E-09  6.39935E-09  6.43096E-09  6.46012E-09  6.48676E-09  6.51079E-09  6.53213E-09  6.55070E-09  6.56643E-09  6.57923E-09
   6.58903E-09  6.59574E-09  6.59929E-09  6.59959E-09  6.59657E-09  6.59014E-09  6.58024E-09  6.56678E-09  6.54968E-09  6.52888E-09
   6.50427E-09  6.47580E-09  6.44339E-09  6.40697E-09  6.36644E-09  6.32174E-09  6.27280E-09  6.21954E-09  6.16189E-09  6.09978E-09
   6.03313E-09  5.96188E-09  5.88597E-09  5.80531E-09  5.71984E-09  5.62951E-09  5.53431E-09  5.43433E-09  5.32982E-09  5.22100E-09
   5.10815E-09  4.99159E-09  4.87181E-09  4.74960E-09  4.62683E-09  4.50928E-09  4.42705E-09  4.45598E-09  4.39018E-09  4.25568E-09
   4.11756E-09  3.98028E-09  3.82982E-09  3.67233E-09  3.52101E-09  3.38401E-09  3.24522E-09  3.01946E-09  2.65732E-09  2.44608E-09
   2.26957E-09  2.10233E-09  1.93883E-09  1.77738E-09  1.61737E-09  1.45866E-09  1.30119E-09  1.14502E-09  9.90315E-10  8.37203E-10
   6.85831E-10  5.36401E-10  3.89051E-10  2.44020E-10  1.01435E-10 -3.84874E-11 -1.75573E-10 -3.09608E-10 -4.40447E-10 -5.67866E-10
  -6.91690E-10 -8.11738E-10 -9.27814E-10 -1.03975E-09 -1.14735E-09 -1.25044E-09 -1.34881E-09 -1.44234E-09 -1.53086E-09 -1.61451E-09
  -1.69339E-09 -1.76765E-09 -1.83740E-09 -1.90277E-09 -1.96389E-09 -2.02089E-09 -2.07389E-09 -2.12302E-09 -2.16842E-09 -2.21022E-09
  -2.24852E-09 -2.28347E-09 -2.31520E-09 -2.34383E-09 -2.36950E-09 -2.39232E-09 -2.41241E-09 -2.42994E-09 -2.44502E-09 -2.45774E-09
  -2.46826E-09 -2.47671E-09 -2.48320E-09 -2.48787E-09 -2.49083E-09 -2.49222E-09 -2.49216E-09 -2.49076E-09 -2.48815E-09 -2.48446E-09
  -2.47980E-09 -2.47429E-09 -2.46806E-09 -2.46122E-09 -2.45389E-09 -2.44619E-09 -2.43824E-09 -2.43016E-09 -2.42203E-09 -2.41399E-09
  -2.40615E-09 -2.39863E-09 -2.39152E-09 -2.38492E-09 -2.37899E-09 -2.37377E-09 -2.36941E-09 -2.36599E-09 -2.36363E-09 -2.36243E-09
  -2.36241E-09 -2.36359E-09 -2.36595E-09 -2.36947E-09 -2.37414E-09 -2.37995E-09 -2.38688E-09 -2.39493E-09 -2.40407E-09 -2.41430E-09
  -2.42560E-09 -2.43795E-09 -2.45135E-09 -2.46576E-09 -2.48118E-09 -2.49760E-09 -2.51500E-09 -2.53335E-09 -2.55265E-09 -2.57289E-09
  -2.59403E-09 -2.61608E-09 -2.63900E-09 -2.66278E-09 -2.68741E-09 -2.71286E-09 -2.73912E-09 -2.76618E-09 -2.79401E-09 -2.82260E-09
  -2.85192E-09 -2.88196E-09 -2.91270E-09 -2.94412E-09 -2.97620E-09 -3.00893E-09 -3.04228E-09 -3.07622E-09 -3.11075E-09 -3.14585E-09
  -3.18150E-09 -3.21765E-09 -3.25432E-09 -3.29146E-09 -3.32906E-09 -3.36711E-09 -3.40557E-09 -3.44443E-09 -3.48367E-09 -3.52325E-09
  -3.56318E-09 -3.60342E-09 -3.64392E-09 -3.68465E-09 -3.72556E-09 -3.76660E-09 -3.80773E-09 -3.84891E-09 -3.89009E-09 -3.93123E-09
  -3.97228E-09 -4.01321E-09 -4.05396E-09 -4.09451E-09 -4.13480E-09 -4.17480E-09 -4.21447E-09 -4.25376E-09 -4.29265E-09 -4.33108E-09
  -4.36902E-09 -4.40644E-09 -4.44329E-09 -4.47955E-09 -4.51517E-09 -4.55012E-09 -4.58436E-09 -4.61787E-09 -4.65061E-09 -4.68253E-09
  -4.71363E-09 -4.74385E-09 -4.77317E-09 -4.80157E-09 -4.82900E-09 -4.85544E-09 -4.88087E-09 -4.90525E-09 -4.92857E-09 -4.95078E-09
  -4.97187E-09 -4.99181E-09 -5.01059E-09 -5.02816E-09 -5.04452E-09 -5.05963E-09 -5.07349E-09 -5.08606E-09 -5.09734E-09 -5.10729E-09
  -5.11590E-09 -5.12315E-09 -5.12904E-09
 GABA     Conc. = 5.89E-10
  -1.65571E-09 -1.62110E-09 -1.58571E-09 -1.54958E-09 -1.51272E-09 -1.47515E-09 -1.43691E-09 -1.39803E-09 -1.35854E-09 -1.31845E-09
  -1.27783E-09 -1.23674E-09 -1.19513E-09 -1.15316E-09 -1.11083E-09 -1.06817E-09 -1.02543E-09 -9.82588E-10 -9.39679E-10 -8.96981E-10
  -8.54611E-10 -8.12645E-10 -7.71320E-10 -7.30864E-10 -6.91334E-10 -6.52924E-10 -6.14988E-10 -5.74381E-10 -5.16542E-10 -3.48546E-10
  -1.93045E-10 -1.55469E-10  9.94086E-11  4.44892E-10  6.00177E-10  7.86602E-10  1.05559E-09  1.29850E-09  1.50228E-09  1.64740E-09
   1.65014E-09  1.76459E-09  1.96582E-09  1.81180E-09  1.68492E-09  1.77085E-09  1.72498E-09  1.64821E-09  1.62224E-09  1.62392E-09
   1.64241E-09  1.67172E-09  1.70818E-09  1.75008E-09  1.79623E-09  1.84549E-09  1.89738E-09  1.95187E-09  2.00948E-09  2.07324E-09
   2.15291E-09  2.29276E-09  2.55794E-09  2.68040E-09  2.80992E-09  3.20108E-09  3.44475E-09  3.54526E-09  3.73880E-09  3.94827E-09
   4.11806E-09  4.24875E-09  4.26780E-09  4.18480E-09  4.34095E-09  4.34366E-09  4.06723E-09  4.08044E-09  4.12500E-09  4.08278E-09
   4.15646E-09  4.17187E-09  4.18871E-09  4.40783E-09  4.55344E-09  4.60590E-09  4.80118E-09  4.99155E-09  5.12006E-09  5.29314E-09
   5.41112E-09  5.46065E-09  5.64971E-09  5.76303E-09  5.65504E-09  5.74214E-09  5.84799E-09  5.76229E-09  5.75680E-09  5.79460E-09
   5.79189E-09  5.80079E-09  5.82157E-09  5.85014E-09  5.88398E-09  5.92119E-09  5.96065E-09  6.00159E-09  6.04341E-09  6.08572E-09
   6.12820E-09  6.17034E-09  6.21190E-09  6.25265E-09  6.29240E-09  6.33104E-09  6.36845E-09  6.40440E-09  6.43876E-09  6.47139E-09
   6.50217E-09  6.53101E-09  6.55779E-09  6.58239E-09  6.60471E-09  6.62466E-09  6.64214E-09  6.65703E-09  6.66925E-09  6.67872E-09
   6.68532E-09  6.68899E-09  6.68962E-09  6.68713E-09  6.68143E-09  6.67244E-09  6.66008E-09  6.64424E-09  6.62486E-09  6.60186E-09
   6.57514E-09  6.54463E-09  6.51026E-09  6.47194E-09  6.42958E-09  6.38311E-09  6.33247E-09  6.27757E-09  6.21834E-09  6.15471E-09
   6.08660E-09  6.01397E-09  5.93673E-09  5.85482E-09  5.76819E-09  5.67680E-09  5.58065E-09  5.47988E-09  5.37480E-09  5.26568E-09
   5.15297E-09  5.03722E-09  4.91941E-09  4.80140E-09  4.68772E-09  4.59316E-09  4.59375E-09  4.91007E-09  4.97880E-09  4.86033E-09
   4.73374E-09  4.61389E-09  4.46175E-09  4.29266E-09  4.14222E-09  4.03306E-09  3.92529E-09  3.59040E-09  2.86968E-09  2.55921E-09
   2.34924E-09  2.16570E-09  1.99252E-09  1.82458E-09  1.65985E-09  1.49751E-09  1.33712E-09  1.17853E-09  1.02176E-09  8.66850E-10
   7.13887E-10  5.63029E-10  4.14379E-10  2.68155E-10  1.24465E-10 -1.64876E-11 -1.54539E-10 -2.89487E-10 -4.21190E-10 -5.49432E-10
  -6.74041E-10 -7.94840E-10 -9.11639E-10 -1.02427E-09 -1.13254E-09 -1.23628E-09 -1.33527E-09 -1.42941E-09 -1.51852E-09 -1.60275E-09
  -1.68219E-09 -1.75699E-09 -1.82727E-09 -1.89316E-09 -1.95479E-09 -2.01228E-09 -2.06577E-09 -2.11537E-09 -2.16124E-09 -2.20349E-09
  -2.24223E-09 -2.27762E-09 -2.30978E-09 -2.33883E-09 -2.36491E-09 -2.38814E-09 -2.40863E-09 -2.42654E-09 -2.44201E-09 -2.45511E-09
  -2.46600E-09 -2.47482E-09 -2.48167E-09 -2.48669E-09 -2.49000E-09 -2.49174E-09 -2.49202E-09 -2.49095E-09 -2.48867E-09 -2.48530E-09
