 LCModel (Version 6.3-1R) Copyright: S.W. Provencher.          Ref.: Magn. Reson. Med. 30:672-679 (1993).                
 onepulse 15x18_ftSpec_smooth_lcm
 26 lines in following concentration table = NCONC+1
    Conc.  %SD /Cr+PCr  Metabolite                                         
    0.000 999%   0.000 Ala                                                 
    0.000 999%   0.000 Asp                                                 
    0.000 999%   0.000 Cr                                                  
 1.56E-09  79%  19.577 GABA                                                
 8.13E-10  98%  10.204 Glc                                                 
 3.19E-10 239%   4.001 Gln                                                 
 2.22E-10 521%   2.793 Glu                                                 
 2.81E-10 596%   3.529 Glyc                                                
    0.000 999%   0.000 GPC                                                 
    0.000 999%   0.000 GSH                                                 
 4.06E-10 374%   5.095 Ins                                                 
    0.000 999%   0.000 Lac                                                 
    0.000 999%   0.000 NAAG                                                
 8.69E-10  38%  10.908 NAA                                                 
    0.000 999%   0.000 PCh                                                 
 7.97E-11 535%   1.000 PCr                                                 
 1.34E-09  49%  16.773 PE                                                  
 1.76E-11 999%   0.221 Scyllo                                              
 1.35E-09  77%  16.961 Ser                                                 
    0.000 999%   0.000 Tau                                                 
    0.000 999%   0.000 GPC+PCh                                             
 8.69E-10  38%  10.908 NAA+NAAG                                            
 6.87E-10  75%   8.624 Ins+Glyc                                            
 7.97E-11 535%   1.000 Cr+PCr                                              
 5.41E-10 208%   6.794 Glu+Gln                                             
   6 lines in following misc. output table
  FWHM = 0.101 ppm    S/N =   3                                            
  Data shift = 0.369 ppm                                                   
  Ph:  29 deg      -4.4 deg/ppm                                            
  alphaB,S = 8.0E-01,   4.4E+01                                            
    8 spline knots.   Ns = 5(1)                                            
  ( 7) 2 infls.   ( 5) 1 extrs.                                            
  363 points on ppm-axis = NY
      4.250000     4.238821     4.227641     4.216462     4.205282     4.194103     4.182923     4.171744     4.160564     4.149385
      4.138206     4.127026     4.115847     4.104667     4.093488     4.082308     4.071129     4.059949     4.048770     4.037591
      4.026411     4.015232     4.004052     3.992873     3.981693     3.970514     3.959334     3.948155     3.936975     3.925796
      3.914617     3.903437     3.892258     3.881078     3.869899     3.858719     3.847540     3.836360     3.825181     3.814002
      3.802822     3.791643     3.780463     3.769284     3.758104     3.746925     3.735745     3.724566     3.713387     3.702207
      3.691028     3.679848     3.668669     3.657489     3.646310     3.635130     3.623951     3.612772     3.601592     3.590413
      3.579233     3.568054     3.556874     3.545695     3.534515     3.523336     3.512156     3.500977     3.489798     3.478618
      3.467439     3.456259     3.445080     3.433900     3.422721     3.411541     3.400362     3.389183     3.378003     3.366824
      3.355644     3.344465     3.333285     3.322106     3.310926     3.299747     3.288568     3.277388     3.266209     3.255029
      3.243850     3.232670     3.221491     3.210311     3.199132     3.187953     3.176773     3.165594     3.154414     3.143235
      3.132055     3.120876     3.109696     3.098517     3.087337     3.076158     3.064979     3.053799     3.042620     3.031440
      3.020261     3.009081     2.997902     2.986722     2.975543     2.964364     2.953184     2.942005     2.930825     2.919646
      2.908466     2.897287     2.886107     2.874928     2.863749     2.852569     2.841390     2.830210     2.819031     2.807851
      2.796672     2.785492     2.774313     2.763134     2.751954     2.740775     2.729595     2.718416     2.707236     2.696057
      2.684877     2.673698     2.662519     2.651339     2.640160     2.628980     2.617801     2.606621     2.595442     2.584262
      2.573083     2.561903     2.550724     2.539545     2.528365     2.517186     2.506006     2.494827     2.483647     2.472468
      2.461288     2.450109     2.438930     2.427750     2.416571     2.405391     2.394212     2.383032     2.371853     2.360673
      2.349494     2.338315     2.327135     2.315956     2.304776     2.293597     2.282417     2.271238     2.260058     2.248879
      2.237700     2.226520     2.215341     2.204161     2.192982     2.181802     2.170623     2.159443     2.148264     2.137084
      2.125905     2.114726     2.103546     2.092367     2.081187     2.070008     2.058828     2.047649     2.036469     2.025290
      2.014111     2.002931     1.991752     1.980572     1.969393     1.958213     1.947034     1.935854     1.924675     1.913496
      1.902316     1.891137     1.879957     1.868778     1.857598     1.846419     1.835239     1.824060     1.812881     1.801701
      1.790522     1.779342     1.768163     1.756983     1.745804     1.734624     1.723445     1.712265     1.701086     1.689907
      1.678727     1.667548     1.656368     1.645189     1.634009     1.622830     1.611650     1.600471     1.589292     1.578112
      1.566933     1.555753     1.544574     1.533394     1.522215     1.511035     1.499856     1.488677     1.477497     1.466318
      1.455138     1.443959     1.432779     1.421600     1.410420     1.399241     1.388062     1.376882     1.365703     1.354523
      1.343344     1.332164     1.320985     1.309805     1.298626     1.287446     1.276267     1.265088     1.253908     1.242729
      1.231549     1.220370     1.209190     1.198011     1.186831     1.175652     1.164473     1.153293     1.142114     1.130934
      1.119755     1.108575     1.097396     1.086216     1.075037     1.063858     1.052678     1.041499     1.030319     1.019140
      1.007960     0.996781     0.985601     0.974422     0.963243     0.952063     0.940884     0.929704     0.918525     0.907345
      0.896166     0.884986     0.873807     0.862628     0.851448     0.840269     0.829089     0.817910     0.806730     0.795551
      0.784371     0.773192     0.762012     0.750833     0.739654     0.728474     0.717295     0.706115     0.694936     0.683756
      0.672577     0.661397     0.650218     0.639039     0.627859     0.616680     0.605500     0.594321     0.583141     0.571962
      0.560782     0.549603     0.538424     0.527244     0.516065     0.504885     0.493706     0.482526     0.471347     0.460167
      0.448988     0.437809     0.426629     0.415450     0.404270     0.393091     0.381911     0.370732     0.359552     0.348373
      0.337193     0.326014     0.314835     0.303655     0.292476     0.281296     0.270117     0.258937     0.247758     0.236578
      0.225399     0.214220     0.203040
 NY phased data points follow
   1.44293E-08  1.41128E-08  1.33820E-08  1.19085E-08  1.25983E-08  1.07639E-08  1.11926E-08  9.93556E-09  1.10395E-08  1.01102E-08
   1.13606E-08  1.03510E-08  1.16381E-08  1.07996E-08  1.12779E-08  1.07547E-08  1.15516E-08  1.13612E-08  1.09314E-08  1.00207E-08
   1.04746E-08  1.00206E-08  1.13400E-08  1.10012E-08  1.15600E-08  1.01276E-08  1.13073E-08  1.04245E-08  1.07613E-08  1.10552E-08
   1.24933E-08  1.28771E-08  1.29067E-08  1.30965E-08  1.24588E-08  1.11242E-08  1.14577E-08  9.24123E-09  1.02717E-08  9.01399E-09
   9.74725E-09  8.19061E-09  9.22931E-09  8.67840E-09  8.38499E-09  7.50368E-09  6.93984E-09  7.12476E-09  7.77851E-09  6.76062E-09
   7.46135E-09  7.10391E-09  7.21793E-09  6.70207E-09  6.97980E-09  6.20835E-09  6.04568E-09  5.12219E-09  5.91132E-09  5.44494E-09
   8.40551E-09  9.44500E-09  1.26399E-08  1.22876E-08  1.27113E-08  1.12452E-08  1.06689E-08  9.24728E-09  1.01248E-08  8.25560E-09
   8.41073E-09  7.34676E-09  7.88785E-09  5.35639E-09  5.70819E-09  6.07933E-09  7.22410E-09  8.56580E-09  1.15379E-08  1.28706E-08
   1.36946E-08  1.33742E-08  1.26575E-08  1.16439E-08  1.21965E-08  1.09099E-08  1.11613E-08  1.00973E-08  1.04816E-08  9.96830E-09
   1.01428E-08  8.96507E-09  9.48001E-09  7.98744E-09  8.07686E-09  8.02338E-09  6.97450E-09  7.31066E-09  6.79484E-09  7.25690E-09
   6.83434E-09  6.14334E-09  7.01378E-09  6.35205E-09  6.51411E-09  5.99189E-09  5.97359E-09  4.82764E-09  4.72239E-09  4.32438E-09
   4.16325E-09  4.67449E-09  4.74981E-09  5.02711E-09  4.45178E-09  4.92727E-09  6.08382E-09  5.01389E-09  5.81388E-09  5.31875E-09
   6.41598E-09  4.99943E-09  4.68777E-09  4.53651E-09  3.93270E-09  3.40169E-09  3.73670E-09  3.75894E-09  4.43019E-09  3.62301E-09
   4.04519E-09  4.43972E-09  3.98274E-09  3.90742E-09  3.66071E-09  3.61068E-09  3.33125E-09  3.51247E-09  4.12807E-09  5.16646E-09
   5.83164E-09  4.62300E-09  5.00511E-09  5.10289E-09  5.73153E-09  6.19142E-09  5.92629E-09  5.80691E-09  5.41266E-09  5.77829E-09
   5.60404E-09  5.52436E-09  6.12048E-09  5.44361E-09  5.28188E-09  5.27635E-09  5.43443E-09  6.02934E-09  6.20441E-09  6.21693E-09
   5.92966E-09  4.94344E-09  4.81460E-09  5.02167E-09  4.26533E-09  4.56936E-09  5.38975E-09  7.01064E-09  9.38361E-09  1.32827E-08
   1.53903E-08  1.61572E-08  1.54955E-08  1.40608E-08  1.22744E-08  1.22693E-08  1.16879E-08  1.00329E-08  9.40092E-09  8.81428E-09
   8.58578E-09  7.24350E-09  7.06199E-09  5.53526E-09  4.73887E-09  3.48640E-09  2.33772E-09  1.45832E-09 -3.29128E-10 -1.47454E-09
  -3.44318E-09 -4.87177E-09 -6.94981E-09 -8.04695E-09 -9.28108E-09 -1.11013E-08 -1.21352E-08 -1.33954E-08 -1.35484E-08 -1.42365E-08
  -1.28633E-08 -1.35949E-08 -1.29987E-08 -1.21854E-08 -1.04468E-08 -9.43374E-09 -7.91240E-09 -7.50379E-09 -6.14331E-09 -4.37112E-09
  -3.69218E-09 -2.23831E-09 -2.07581E-09 -2.03099E-09 -2.15201E-09 -2.41874E-09 -1.59477E-09 -2.28172E-09 -2.87786E-09 -2.45207E-09
  -1.35971E-09 -2.26013E-09 -1.73155E-09 -1.28221E-09 -1.64572E-09 -9.23898E-10 -1.65517E-09 -1.48165E-09 -1.58644E-09 -2.17360E-09
  -2.00550E-09 -1.85885E-09 -1.65862E-09 -9.65617E-10 -1.44552E-09 -6.81512E-10 -9.04967E-10 -1.16516E-09 -1.48316E-09 -1.40510E-09
  -1.45799E-09 -1.80496E-09 -1.93440E-09 -1.21213E-09 -1.09494E-09 -1.31865E-09 -1.30048E-09 -4.54440E-10 -1.24950E-09 -8.69183E-10
  -5.23285E-10 -4.61624E-10  6.46513E-12 -6.33780E-10 -4.54890E-10 -7.06957E-10 -1.12413E-09 -8.28485E-10 -1.43834E-09 -1.76951E-09
  -1.82460E-09 -1.65075E-09 -2.12205E-09 -1.52512E-09 -1.88764E-09 -1.39545E-09 -1.20293E-09 -8.77212E-10 -4.95206E-10 -3.51099E-10
  -5.96745E-10  7.63148E-11 -1.48018E-10 -1.49616E-10  2.63017E-10  1.40857E-10  5.14753E-11  1.84540E-10 -2.25342E-10 -7.12833E-10
  -3.46013E-10 -3.95117E-10 -9.34662E-10 -2.14289E-10 -7.15703E-10 -5.18880E-10 -8.06733E-10 -1.00435E-09 -7.05539E-10 -1.25946E-09
  -1.69313E-09 -8.13287E-10 -1.38063E-09 -8.87258E-10 -9.90572E-10 -1.99070E-09 -1.62155E-09 -1.37709E-09 -1.34525E-09 -1.42357E-09
  -1.95392E-09 -1.55563E-09 -1.33297E-09 -1.58806E-09 -1.38888E-09 -1.93835E-09 -1.62820E-09 -1.18795E-09 -1.78644E-09 -1.75568E-09
  -1.40913E-09 -2.07058E-09 -1.19008E-09 -1.83636E-09 -1.44726E-09 -1.55309E-09 -1.91895E-09 -1.94570E-09 -1.33281E-09 -1.94005E-09
  -1.22898E-09 -1.84448E-09 -1.30452E-09 -1.81616E-09 -1.27846E-09 -1.23137E-09 -1.44157E-09 -1.46334E-09 -1.12821E-09 -1.64538E-09
  -1.45014E-09 -9.99677E-10 -1.53004E-09 -7.52385E-10 -1.13937E-09 -1.65741E-09 -1.01590E-09 -1.02442E-09 -1.05625E-09 -1.27101E-09
  -1.03046E-09 -9.07589E-10 -1.28773E-09 -1.06119E-09 -9.63310E-10 -9.48699E-10 -6.84974E-10 -1.21939E-09 -6.33740E-10 -5.17566E-10
  -8.20393E-10 -1.08056E-09 -5.33999E-10 -5.04079E-10 -4.50177E-10 -7.94651E-10 -8.58695E-10 -9.48614E-10  3.28121E-10 -9.45359E-10
  -5.31546E-10 -6.17817E-10 -4.87009E-10
 NY points of the fit to the data follow
   1.53602E-08  1.41660E-08  1.31646E-08  1.25326E-08  1.19285E-08  1.13042E-08  1.06578E-08  1.02007E-08  1.01030E-08  1.02956E-08
   1.06037E-08  1.08882E-08  1.10841E-08  1.12449E-08  1.14019E-08  1.15168E-08  1.15796E-08  1.14677E-08  1.10193E-08  1.04337E-08
   1.01525E-08  1.02009E-08  1.03604E-08  1.05949E-08  1.08297E-08  1.10957E-08  1.14592E-08  1.17607E-08  1.19575E-08  1.21315E-08
   1.20903E-08  1.18470E-08  1.17339E-08  1.17057E-08  1.14998E-08  1.13059E-08  1.10826E-08  1.08126E-08  1.04879E-08  1.00627E-08
   9.60046E-09  9.17573E-09  8.53217E-09  7.93307E-09  7.76619E-09  7.59058E-09  7.28706E-09  7.12538E-09  7.05453E-09  7.04600E-09
   7.10842E-09  7.20568E-09  7.31922E-09  7.39389E-09  7.44783E-09  7.51650E-09  7.64118E-09  7.82538E-09  8.04780E-09  8.24556E-09
   8.41949E-09  8.66092E-09  9.05273E-09  9.41275E-09  9.86090E-09  1.03270E-08  1.05795E-08  1.05985E-08  1.04781E-08  1.02661E-08
   9.98158E-09  9.56608E-09  9.06402E-09  8.66067E-09  8.37045E-09  8.03261E-09  8.10866E-09  9.14247E-09  1.04187E-08  1.16013E-08
   1.24762E-08  1.28107E-08  1.27597E-08  1.26273E-08  1.23843E-08  1.19683E-08  1.12878E-08  1.01485E-08  8.89280E-09  8.47196E-09
   8.27336E-09  8.14370E-09  7.99663E-09  7.68747E-09  7.39782E-09  7.22674E-09  6.93445E-09  6.63105E-09  6.45716E-09  6.28838E-09
   6.12483E-09  6.00268E-09  5.90610E-09  5.82563E-09  5.75581E-09  5.69322E-09  5.63585E-09  5.58237E-09  5.53182E-09  5.48345E-09
   5.43659E-09  5.39064E-09  5.34534E-09  5.30044E-09  5.25577E-09  5.21120E-09  5.16647E-09  5.12143E-09  5.07594E-09  5.02995E-09
   4.98333E-09  4.93607E-09  4.88805E-09  4.83923E-09  4.78955E-09  4.73896E-09  4.68739E-09  4.63484E-09  4.58126E-09  4.52660E-09
   4.47086E-09  4.41397E-09  4.35594E-09  4.29673E-09  4.23632E-09  4.17468E-09  4.11183E-09  4.04770E-09  3.98231E-09  3.91563E-09
   3.84768E-09  3.77843E-09  3.70791E-09  3.63608E-09  3.56298E-09  3.48862E-09  3.41305E-09  3.33638E-09  3.25873E-09  3.18024E-09
   3.10109E-09  3.02147E-09  2.94160E-09  2.86180E-09  2.78242E-09  2.70394E-09  2.62699E-09  2.55244E-09  2.48154E-09  2.41612E-09
   2.35904E-09  2.31504E-09  2.29250E-09  2.30796E-09  2.39902E-09  2.67418E-09  3.60246E-09  6.57957E-09  1.03099E-08  1.35610E-08
   1.56099E-08  1.62965E-08  1.59402E-08  1.50729E-08  1.39927E-08  1.24777E-08  9.93440E-09  6.18608E-09  2.54402E-09  1.39946E-09
   9.14773E-10  6.21230E-10  4.07608E-10  2.35051E-10  8.64663E-11 -4.67966E-11 -1.69558E-10 -2.84691E-10 -3.94056E-10 -4.98824E-10
  -5.99783E-10 -6.97519E-10 -7.92402E-10 -8.84712E-10 -9.74618E-10 -1.06228E-09 -1.14780E-09 -1.23119E-09 -1.31251E-09 -1.39180E-09
  -1.46905E-09 -1.54424E-09 -1.61735E-09 -1.68838E-09 -1.75729E-09 -1.82403E-09 -1.88858E-09 -1.95089E-09 -2.01093E-09 -2.06862E-09
  -2.12396E-09 -2.17686E-09 -2.22727E-09 -2.27517E-09 -2.32050E-09 -2.36317E-09 -2.40315E-09 -2.44040E-09 -2.47484E-09 -2.50653E-09
  -2.53549E-09 -2.56182E-09 -2.58555E-09 -2.60675E-09 -2.62546E-09 -2.64176E-09 -2.65570E-09 -2.66732E-09 -2.67670E-09 -2.68388E-09
  -2.68892E-09 -2.69188E-09 -2.69281E-09 -2.69177E-09 -2.68881E-09 -2.68400E-09 -2.67738E-09 -2.66901E-09 -2.65895E-09 -2.64725E-09
  -2.63397E-09 -2.61917E-09 -2.60289E-09 -2.58519E-09 -2.56613E-09 -2.54576E-09 -2.52415E-09 -2.50134E-09 -2.47739E-09 -2.45234E-09
  -2.42628E-09 -2.39923E-09 -2.37128E-09 -2.34244E-09 -2.31279E-09 -2.28240E-09 -2.25130E-09 -2.21955E-09 -2.18721E-09 -2.15433E-09
  -2.12097E-09 -2.08720E-09 -2.05305E-09 -2.01858E-09 -1.98384E-09 -1.94890E-09 -1.91382E-09 -1.87862E-09 -1.84339E-09 -1.80818E-09
  -1.77302E-09 -1.73799E-09 -1.70314E-09 -1.66851E-09 -1.63418E-09 -1.60018E-09 -1.56658E-09 -1.53344E-09 -1.50079E-09 -1.46870E-09
  -1.43724E-09 -1.40644E-09 -1.37637E-09 -1.34707E-09 -1.31861E-09 -1.29104E-09 -1.26442E-09 -1.23878E-09 -1.21420E-09 -1.19073E-09
  -1.16842E-09 -1.14729E-09 -1.12732E-09 -1.10848E-09 -1.09074E-09 -1.07408E-09 -1.05846E-09 -1.04386E-09 -1.03026E-09 -1.01761E-09
  -1.00591E-09 -9.95115E-10 -9.85206E-10 -9.76150E-10 -9.67917E-10 -9.60483E-10 -9.53827E-10 -9.47919E-10 -9.42722E-10 -9.38214E-10
  -9.34371E-10 -9.31159E-10 -9.28563E-10 -9.26539E-10 -9.25072E-10 -9.24127E-10 -9.23684E-10 -9.23704E-10 -9.24170E-10 -9.25054E-10
  -9.26328E-10 -9.27948E-10 -9.29912E-10 -9.32182E-10 -9.34725E-10 -9.37509E-10 -9.40532E-10 -9.43744E-10 -9.47130E-10 -9.50645E-10
  -9.54283E-10 -9.58003E-10 -9.61774E-10 -9.65576E-10 -9.69389E-10 -9.73173E-10 -9.76910E-10 -9.80559E-10 -9.84115E-10 -9.87511E-10
  -9.90768E-10 -9.93820E-10 -9.96666E-10 -9.99268E-10 -1.00157E-09 -1.00361E-09 -1.00530E-09 -1.00665E-09 -1.00761E-09 -1.00816E-09
  -1.00828E-09 -1.00793E-09 -1.00708E-09 -1.00572E-09 -1.00381E-09 -1.00132E-09 -9.98244E-10 -9.94524E-10 -9.90148E-10 -9.85094E-10
  -9.79319E-10 -9.72807E-10 -9.65540E-10
 NY background values follow
     5.025E-09    5.029E-09    5.034E-09    5.038E-09    5.043E-09    5.048E-09    5.053E-09    5.058E-09    5.063E-09    5.069E-09
     5.074E-09    5.079E-09    5.085E-09    5.090E-09    5.096E-09    5.101E-09    5.107E-09    5.112E-09    5.118E-09    5.123E-09
     5.129E-09    5.134E-09    5.140E-09    5.146E-09    5.151E-09    5.156E-09    5.162E-09    5.167E-09    5.172E-09    5.178E-09
     5.183E-09    5.188E-09    5.193E-09    5.198E-09    5.203E-09    5.207E-09    5.212E-09    5.216E-09    5.221E-09    5.225E-09
     5.229E-09    5.233E-09    5.237E-09    5.240E-09    5.244E-09    5.247E-09    5.250E-09    5.253E-09    5.256E-09    5.258E-09
     5.261E-09    5.263E-09    5.265E-09    5.266E-09    5.268E-09    5.269E-09    5.270E-09    5.270E-09    5.271E-09    5.271E-09
     5.271E-09    5.271E-09    5.270E-09    5.269E-09    5.268E-09    5.266E-09    5.264E-09    5.262E-09    5.259E-09    5.256E-09
     5.253E-09    5.250E-09    5.246E-09    5.241E-09    5.237E-09    5.232E-09    5.226E-09    5.220E-09    5.214E-09    5.207E-09
     5.200E-09    5.192E-09    5.184E-09    5.175E-09    5.166E-09    5.156E-09    5.146E-09    5.134E-09    5.123E-09    5.110E-09
     5.097E-09    5.084E-09    5.069E-09    5.054E-09    5.039E-09    5.022E-09    5.005E-09    4.987E-09    4.968E-09    4.948E-09
     4.928E-09    4.907E-09    4.884E-09    4.861E-09    4.838E-09    4.813E-09    4.787E-09    4.760E-09    4.733E-09    4.704E-09
     4.674E-09    4.644E-09    4.612E-09    4.579E-09    4.546E-09    4.511E-09    4.475E-09    4.438E-09    4.399E-09    4.360E-09
     4.320E-09    4.278E-09    4.235E-09    4.191E-09    4.145E-09    4.099E-09    4.051E-09    4.002E-09    3.951E-09    3.899E-09
     3.846E-09    3.792E-09    3.736E-09    3.678E-09    3.620E-09    3.560E-09    3.498E-09    3.435E-09    3.370E-09    3.304E-09
     3.237E-09    3.168E-09    3.097E-09    3.025E-09    2.951E-09    2.876E-09    2.799E-09    2.720E-09    2.640E-09    2.559E-09
     2.476E-09    2.392E-09    2.307E-09    2.220E-09    2.133E-09    2.044E-09    1.954E-09    1.864E-09    1.772E-09    1.680E-09
     1.587E-09    1.493E-09    1.399E-09    1.304E-09    1.208E-09    1.112E-09    1.016E-09    9.195E-10    8.225E-10    7.254E-10
     6.281E-10    5.308E-10    4.334E-10    3.360E-10    2.387E-10    1.416E-10    4.463E-11   -5.202E-11   -1.483E-10   -2.443E-10
    -3.397E-10   -4.347E-10   -5.291E-10   -6.228E-10   -7.159E-10   -8.082E-10   -8.997E-10   -9.903E-10   -1.080E-09   -1.169E-09
    -1.256E-09   -1.343E-09   -1.428E-09   -1.512E-09   -1.595E-09   -1.676E-09   -1.756E-09   -1.835E-09   -1.912E-09   -1.987E-09
    -2.061E-09   -2.133E-09   -2.203E-09   -2.271E-09   -2.338E-09   -2.402E-09   -2.465E-09   -2.525E-09   -2.583E-09   -2.639E-09
    -2.693E-09   -2.745E-09   -2.794E-09   -2.840E-09   -2.884E-09   -2.926E-09   -2.965E-09   -3.001E-09   -3.034E-09   -3.065E-09
    -3.093E-09   -3.119E-09   -3.142E-09   -3.162E-09   -3.180E-09   -3.195E-09   -3.209E-09   -3.220E-09   -3.228E-09   -3.235E-09
    -3.239E-09   -3.242E-09   -3.242E-09   -3.240E-09   -3.237E-09   -3.232E-09   -3.224E-09   -3.216E-09   -3.205E-09   -3.193E-09
    -3.179E-09   -3.164E-09   -3.147E-09   -3.129E-09   -3.110E-09   -3.089E-09   -3.067E-09   -3.044E-09   -3.019E-09   -2.994E-09
    -2.967E-09   -2.940E-09   -2.912E-09   -2.882E-09   -2.852E-09   -2.822E-09   -2.790E-09   -2.758E-09   -2.726E-09   -2.692E-09
    -2.659E-09   -2.625E-09   -2.590E-09   -2.555E-09   -2.520E-09   -2.485E-09   -2.450E-09   -2.414E-09   -2.379E-09   -2.343E-09
    -2.308E-09   -2.272E-09   -2.237E-09   -2.202E-09   -2.168E-09   -2.134E-09   -2.100E-09   -2.066E-09   -2.033E-09   -2.001E-09
    -1.969E-09   -1.938E-09   -1.908E-09   -1.878E-09   -1.850E-09   -1.822E-09   -1.795E-09   -1.769E-09   -1.744E-09   -1.720E-09
    -1.698E-09   -1.676E-09   -1.656E-09   -1.637E-09   -1.619E-09   -1.602E-09   -1.586E-09   -1.572E-09   -1.558E-09   -1.545E-09
    -1.533E-09   -1.522E-09   -1.512E-09   -1.502E-09   -1.494E-09   -1.486E-09   -1.479E-09   -1.473E-09   -1.468E-09   -1.463E-09
    -1.459E-09   -1.456E-09   -1.453E-09   -1.450E-09   -1.449E-09   -1.448E-09   -1.447E-09   -1.447E-09   -1.447E-09   -1.447E-09
    -1.449E-09   -1.450E-09   -1.452E-09   -1.454E-09   -1.456E-09   -1.459E-09   -1.461E-09   -1.464E-09   -1.467E-09   -1.471E-09
    -1.474E-09   -1.478E-09   -1.481E-09   -1.485E-09   -1.488E-09   -1.492E-09   -1.495E-09   -1.499E-09   -1.502E-09   -1.505E-09
    -1.508E-09   -1.511E-09   -1.513E-09   -1.516E-09   -1.518E-09   -1.520E-09   -1.521E-09   -1.522E-09   -1.523E-09   -1.523E-09
    -1.523E-09   -1.522E-09   -1.521E-09   -1.520E-09   -1.518E-09   -1.515E-09   -1.511E-09   -1.507E-09   -1.503E-09   -1.497E-09
    -1.491E-09   -1.485E-09   -1.477E-09
 GABA     Conc. = 1.56E-09
   5.18722E-09  5.19376E-09  5.20058E-09  5.20768E-09  5.21507E-09  5.22277E-09  5.23079E-09  5.23915E-09  5.24790E-09  5.25707E-09
   5.26670E-09  5.27688E-09  5.28769E-09  5.29916E-09  5.31150E-09  5.32480E-09  5.33911E-09  5.35477E-09  5.37211E-09  5.39140E-09
   5.41328E-09  5.43854E-09  5.46828E-09  5.50424E-09  5.54901E-09  5.60687E-09  5.68579E-09  5.80198E-09  5.99691E-09  6.36796E-09
   6.73391E-09  7.06154E-09  7.58375E-09  8.12110E-09  8.50557E-09  8.83724E-09  9.06344E-09  9.11755E-09  8.97303E-09  8.66576E-09
   8.30513E-09  7.98814E-09  7.43332E-09  6.83616E-09  6.59721E-09  6.34690E-09  6.00243E-09  5.83343E-09  5.74796E-09  5.70027E-09
   5.67384E-09  5.66097E-09  5.65804E-09  5.66354E-09  5.67693E-09  5.69861E-09  5.73040E-09  5.77564E-09  5.84050E-09  5.93718E-09
   6.09279E-09  6.38357E-09  6.79554E-09  7.16314E-09  7.58874E-09  8.09177E-09  8.46704E-09  8.68808E-09  8.78561E-09  8.73415E-09
   8.51644E-09  8.14821E-09  7.70541E-09  7.31365E-09  6.91125E-09  6.37538E-09  6.05964E-09  5.96257E-09  5.80029E-09  5.70829E-09
   5.76596E-09  5.83056E-09  5.94120E-09  6.18765E-09  6.42269E-09  6.63102E-09  6.89111E-09  7.13121E-09  7.30473E-09  7.39303E-09
   7.39134E-09  7.36698E-09  7.28676E-09  7.02513E-09  6.76940E-09  6.62442E-09  6.35351E-09  6.06705E-09  5.90694E-09  5.74964E-09
   5.59582E-09  5.48201E-09  5.39262E-09  5.31840E-09  5.25407E-09  5.19634E-09  5.14330E-09  5.09369E-09  5.04663E-09  5.00139E-09
   4.95738E-09  4.91401E-09  4.87106E-09  4.82831E-09  4.78560E-09  4.74281E-09  4.69972E-09  4.65618E-09  4.61207E-09  4.56733E-09
   4.52186E-09  4.47564E-09  4.42857E-09  4.38061E-09  4.33170E-09  4.28179E-09  4.23083E-09  4.17881E-09  4.12567E-09  4.07139E-09
   4.01594E-09  3.95927E-09  3.90137E-09  3.84221E-09  3.78177E-09  3.72001E-09  3.65694E-09  3.59249E-09  3.52667E-09  3.45943E-09
   3.39079E-09  3.32072E-09  3.24919E-09  3.17618E-09  3.10169E-09  3.02570E-09  2.94822E-09  2.86932E-09  2.78907E-09  2.70754E-09
   2.62481E-09  2.54097E-09  2.45611E-09  2.37035E-09  2.28379E-09  2.19661E-09  2.10896E-09  2.02109E-09  1.93332E-09  1.84609E-09
   1.76007E-09  1.67637E-09  1.59695E-09  1.52568E-09  1.47155E-09  1.46151E-09  1.61902E-09  2.20213E-09  2.91837E-09  3.51521E-09
   3.85019E-09  3.89952E-09  3.73722E-09  3.47422E-09  3.16438E-09  2.75061E-09  2.10878E-09  1.22522E-09  4.15364E-10  1.20772E-10
  -5.39172E-11 -1.90950E-10 -3.11303E-10 -4.22577E-10 -5.28209E-10 -6.29943E-10 -7.28742E-10 -8.25154E-10 -9.19568E-10 -1.01217E-09
  -1.10308E-09 -1.19240E-09 -1.28015E-09 -1.36635E-09 -1.45099E-09 -1.53406E-09 -1.61554E-09 -1.69538E-09 -1.77354E-09 -1.85001E-09
  -1.92471E-09 -1.99762E-09 -2.06866E-09 -2.13779E-09 -2.20498E-09 -2.27013E-09 -2.33322E-09 -2.39419E-09 -2.45299E-09 -2.50952E-09
  -2.56378E-09 -2.61567E-09 -2.66515E-09 -2.71216E-09 -2.75666E-09 -2.79855E-09 -2.83779E-09 -2.87434E-09 -2.90812E-09 -2.93918E-09
  -2.96755E-09 -2.99331E-09 -3.01649E-09 -3.03717E-09 -3.05539E-09 -3.07122E-09 -3.08469E-09 -3.09588E-09 -3.10483E-09 -3.11160E-09
  -3.11625E-09 -3.11883E-09 -3.11939E-09 -3.11800E-09 -3.11470E-09 -3.10955E-09 -3.10261E-09 -3.09392E-09 -3.08356E-09 -3.07156E-09
  -3.05798E-09 -3.04289E-09 -3.02634E-09 -3.00837E-09 -2.98905E-09 -2.96842E-09 -2.94655E-09 -2.92349E-09 -2.89930E-09 -2.87401E-09
  -2.84772E-09 -2.82043E-09 -2.79225E-09 -2.76319E-09 -2.73332E-09 -2.70271E-09 -2.67140E-09 -2.63944E-09 -2.60689E-09 -2.57381E-09
  -2.54025E-09 -2.50627E-09 -2.47192E-09 -2.43726E-09 -2.40233E-09 -2.36719E-09 -2.33192E-09 -2.29654E-09 -2.26112E-09 -2.22572E-09
  -2.19038E-09 -2.15517E-09 -2.12014E-09 -2.08533E-09 -2.05082E-09 -2.01664E-09 -1.98287E-09 -1.94955E-09 -1.91672E-09 -1.88446E-09
  -1.85283E-09 -1.82186E-09 -1.79162E-09 -1.76215E-09 -1.73352E-09 -1.70578E-09 -1.67899E-09 -1.65318E-09 -1.62844E-09 -1.60480E-09
  -1.58232E-09 -1.56103E-09 -1.54089E-09 -1.52189E-09 -1.50398E-09 -1.48716E-09 -1.47137E-09 -1.45661E-09 -1.44284E-09 -1.43003E-09
  -1.41816E-09 -1.40720E-09 -1.39713E-09 -1.38791E-09 -1.37951E-09 -1.37191E-09 -1.36509E-09 -1.35902E-09 -1.35366E-09 -1.34898E-09
  -1.34498E-09 -1.34160E-09 -1.33884E-09 -1.33665E-09 -1.33501E-09 -1.33390E-09 -1.33329E-09 -1.33314E-09 -1.33344E-09 -1.33416E-09
  -1.33526E-09 -1.33671E-09 -1.33851E-09 -1.34061E-09 -1.34298E-09 -1.34560E-09 -1.34845E-09 -1.35149E-09 -1.35470E-09 -1.35804E-09
  -1.36151E-09 -1.36505E-09 -1.36865E-09 -1.37228E-09 -1.37591E-09 -1.37952E-09 -1.38308E-09 -1.38655E-09 -1.38993E-09 -1.39315E-09
  -1.39622E-09 -1.39909E-09 -1.40176E-09 -1.40418E-09 -1.40630E-09 -1.40815E-09 -1.40965E-09 -1.41082E-09 -1.41159E-09 -1.41195E-09
  -1.41188E-09 -1.41134E-09 -1.41030E-09 -1.40874E-09 -1.40665E-09 -1.40396E-09 -1.40069E-09 -1.39677E-09 -1.39220E-09 -1.38695E-09
  -1.38097E-09 -1.37426E-09 -1.36679E-09
 Glc      Conc. = 8.13E-10
   7.38173E-09  7.51568E-09  7.58422E-09  7.58328E-09  7.50748E-09  7.37815E-09  7.19639E-09  7.01865E-09  6.79860E-09  6.63819E-09
   6.58608E-09  6.61316E-09  6.72023E-09  6.94640E-09  7.29645E-09  7.68053E-09  8.01641E-09  8.23370E-09  8.27833E-09  8.20199E-09
   8.05666E-09  7.85421E-09  7.58779E-09  7.27269E-09  6.88516E-09  6.52007E-09  6.33167E-09  6.23768E-09  6.18093E-09  6.11977E-09
   6.03183E-09  5.94683E-09  5.87072E-09  5.77589E-09  5.67865E-09  5.62055E-09  5.56749E-09  5.50754E-09  5.46725E-09  5.44371E-09
   5.42833E-09  5.41727E-09  5.40928E-09  5.40329E-09  5.39878E-09  5.39535E-09  5.39272E-09  5.39068E-09  5.38907E-09  5.38778E-09
   5.38672E-09  5.38581E-09  5.38498E-09  5.38419E-09  5.38340E-09  5.38257E-09  5.38166E-09  5.38068E-09  5.37954E-09  5.37827E-09
   5.37684E-09  5.37521E-09  5.37340E-09  5.37136E-09  5.36911E-09  5.36661E-09  5.36385E-09  5.36082E-09  5.35752E-09  5.35393E-09
   5.35004E-09  5.34583E-09  5.34132E-09  5.33647E-09  5.33128E-09  5.32573E-09  5.31979E-09  5.31346E-09  5.30670E-09  5.29951E-09
   5.29186E-09  5.28373E-09  5.27510E-09  5.26596E-09  5.25630E-09  5.24608E-09  5.23529E-09  5.22392E-09  5.21195E-09  5.19936E-09
   5.18612E-09  5.17223E-09  5.15766E-09  5.14240E-09  5.12643E-09  5.10973E-09  5.09228E-09  5.07407E-09  5.05508E-09  5.03529E-09
   5.01469E-09  4.99325E-09  4.97096E-09  4.94780E-09  4.92375E-09  4.89881E-09  4.87293E-09  4.84613E-09  4.81837E-09  4.78962E-09
   4.75990E-09  4.72916E-09  4.69739E-09  4.66458E-09  4.63071E-09  4.59576E-09  4.55972E-09  4.52257E-09  4.48429E-09  4.44487E-09
   4.40427E-09  4.36250E-09  4.31952E-09  4.27534E-09  4.22992E-09  4.18325E-09  4.13530E-09  4.08609E-09  4.03557E-09  3.98373E-09
   3.93056E-09  3.87603E-09  3.82014E-09  3.76287E-09  3.70419E-09  3.64408E-09  3.58257E-09  3.51958E-09  3.45514E-09  3.38921E-09
   3.32179E-09  3.25285E-09  3.18239E-09  3.11039E-09  3.03683E-09  2.96171E-09  2.88502E-09  2.80684E-09  2.72723E-09  2.64627E-09
   2.56401E-09  2.48056E-09  2.39596E-09  2.31033E-09  2.22375E-09  2.13633E-09  2.04820E-09  1.95950E-09  1.87044E-09  1.78127E-09
   1.69234E-09  1.60426E-09  1.51798E-09  1.43535E-09  1.36048E-09  1.30486E-09  1.31659E-09  1.56219E-09  1.89733E-09  2.18122E-09
   2.33031E-09  2.32480E-09  2.19975E-09  2.01579E-09  1.80848E-09  1.55463E-09  1.18666E-09  6.79787E-10  1.75090E-10 -4.24839E-11
  -1.82229E-10 -2.99501E-10 -4.07182E-10 -5.09652E-10 -6.08818E-10 -7.05605E-10 -8.00497E-10 -8.93746E-10 -9.85545E-10 -1.07595E-09
  -1.16498E-09 -1.25268E-09 -1.33901E-09 -1.42396E-09 -1.50748E-09 -1.58955E-09 -1.67014E-09 -1.74915E-09 -1.82657E-09 -1.90235E-09
  -1.97642E-09 -2.04874E-09 -2.11924E-09 -2.18786E-09 -2.25458E-09 -2.31929E-09 -2.38196E-09 -2.44253E-09 -2.50095E-09 -2.55713E-09
  -2.61105E-09 -2.66263E-09 -2.71180E-09 -2.75852E-09 -2.80274E-09 -2.84436E-09 -2.88335E-09 -2.91966E-09 -2.95320E-09 -2.98403E-09
  -3.01219E-09 -3.03774E-09 -3.06072E-09 -3.08120E-09 -3.09923E-09 -3.11487E-09 -3.12817E-09 -3.13918E-09 -3.14797E-09 -3.15458E-09
