 LCModel (Version 6.3-1R) Copyright: S.W. Provencher.          Ref.: Magn. Reson. Med. 30:672-679 (1993).                
 onepulse 15x16_ftSpec_smooth_lcm
 26 lines in following concentration table = NCONC+1
    Conc.  %SD   /Cr    Metabolite                                         
 7.70E-10  39%   0.000 Ala                                                 
 2.69E-10 252%   0.000 Asp                                                 
    0.000 999%   0.000 Cr                                                  
 1.76E-09  28%   0.000 GABA                                                
    0.000 999%   0.000 Glc                                                 
 1.59E-10 433%   0.000 Gln                                                 
    0.000 999%   0.000 Glu                                                 
 1.44E-09  28%   0.000 Glyc                                                
    0.000 999%   0.000 GPC                                                 
 8.79E-10  51%   0.000 GSH                                                 
    0.000 999%   0.000 Ins                                                 
 4.17E-10  75%   0.000 Lac                                                 
 1.28E-10 248%   0.000 NAAG                                                
 8.31E-10  54%   0.000 NAA                                                 
    0.000 999%   0.000 PCh                                                 
    0.000 999%   0.000 PCr                                                 
 2.84E-09  33%   0.000 PE                                                  
    0.000 999%   0.000 Scyllo                                              
 4.95E-10 136%   0.000 Ser                                                 
 6.30E-10 108%   0.000 Tau                                                 
    0.000 999%   0.000 GPC+PCh                                             
 9.59E-10  30%   0.000 NAA+NAAG                                            
 1.44E-09  28%   0.000 Ins+Glyc                                            
    0.000 999%   0.000 Cr+PCr                                              
 1.59E-10 433%   0.000 Glu+Gln                                             
   6 lines in following misc. output table
  FWHM = 0.123 ppm    S/N =   3                                            
  Data shift = 0.503 ppm                                                   
  Ph: 136 deg       3.0 deg/ppm                                            
  alphaB,S = 1.1E+00,   6.4E+00                                            
    9 spline knots.   Ns = 5(1)                                            
  ( 9) 8 infls.   (11) 5 extrs.                                            
  363 points on ppm-axis = NY
      4.250000     4.238821     4.227641     4.216462     4.205282     4.194103     4.182923     4.171744     4.160564     4.149385
      4.138206     4.127026     4.115847     4.104667     4.093488     4.082308     4.071129     4.059949     4.048770     4.037591
      4.026411     4.015232     4.004052     3.992873     3.981693     3.970514     3.959334     3.948155     3.936975     3.925796
      3.914617     3.903437     3.892258     3.881078     3.869899     3.858719     3.847540     3.836360     3.825181     3.814002
      3.802822     3.791643     3.780463     3.769284     3.758104     3.746925     3.735745     3.724566     3.713387     3.702207
      3.691028     3.679848     3.668669     3.657489     3.646310     3.635130     3.623951     3.612772     3.601592     3.590413
      3.579233     3.568054     3.556874     3.545695     3.534515     3.523336     3.512156     3.500977     3.489798     3.478618
      3.467439     3.456259     3.445080     3.433900     3.422721     3.411541     3.400362     3.389183     3.378003     3.366824
      3.355644     3.344465     3.333285     3.322106     3.310926     3.299747     3.288568     3.277388     3.266209     3.255029
      3.243850     3.232670     3.221491     3.210311     3.199132     3.187953     3.176773     3.165594     3.154414     3.143235
      3.132055     3.120876     3.109696     3.098517     3.087337     3.076158     3.064979     3.053799     3.042620     3.031440
      3.020261     3.009081     2.997902     2.986722     2.975543     2.964364     2.953184     2.942005     2.930825     2.919646
      2.908466     2.897287     2.886107     2.874928     2.863749     2.852569     2.841390     2.830210     2.819031     2.807851
      2.796672     2.785492     2.774313     2.763134     2.751954     2.740775     2.729595     2.718416     2.707236     2.696057
      2.684877     2.673698     2.662519     2.651339     2.640160     2.628980     2.617801     2.606621     2.595442     2.584262
      2.573083     2.561903     2.550724     2.539545     2.528365     2.517186     2.506006     2.494827     2.483647     2.472468
      2.461288     2.450109     2.438930     2.427750     2.416571     2.405391     2.394212     2.383032     2.371853     2.360673
      2.349494     2.338315     2.327135     2.315956     2.304776     2.293597     2.282417     2.271238     2.260058     2.248879
      2.237700     2.226520     2.215341     2.204161     2.192982     2.181802     2.170623     2.159443     2.148264     2.137084
      2.125905     2.114726     2.103546     2.092367     2.081187     2.070008     2.058828     2.047649     2.036469     2.025290
      2.014111     2.002931     1.991752     1.980572     1.969393     1.958213     1.947034     1.935854     1.924675     1.913496
      1.902316     1.891137     1.879957     1.868778     1.857598     1.846419     1.835239     1.824060     1.812881     1.801701
      1.790522     1.779342     1.768163     1.756983     1.745804     1.734624     1.723445     1.712265     1.701086     1.689907
      1.678727     1.667548     1.656368     1.645189     1.634009     1.622830     1.611650     1.600471     1.589292     1.578112
      1.566933     1.555753     1.544574     1.533394     1.522215     1.511035     1.499856     1.488677     1.477497     1.466318
      1.455138     1.443959     1.432779     1.421600     1.410420     1.399241     1.388062     1.376882     1.365703     1.354523
      1.343344     1.332164     1.320985     1.309805     1.298626     1.287446     1.276267     1.265088     1.253908     1.242729
      1.231549     1.220370     1.209190     1.198011     1.186831     1.175652     1.164473     1.153293     1.142114     1.130934
      1.119755     1.108575     1.097396     1.086216     1.075037     1.063858     1.052678     1.041499     1.030319     1.019140
      1.007960     0.996781     0.985601     0.974422     0.963243     0.952063     0.940884     0.929704     0.918525     0.907345
      0.896166     0.884986     0.873807     0.862628     0.851448     0.840269     0.829089     0.817910     0.806730     0.795551
      0.784371     0.773192     0.762012     0.750833     0.739654     0.728474     0.717295     0.706115     0.694936     0.683756
      0.672577     0.661397     0.650218     0.639039     0.627859     0.616680     0.605500     0.594321     0.583141     0.571962
      0.560782     0.549603     0.538424     0.527244     0.516065     0.504885     0.493706     0.482526     0.471347     0.460167
      0.448988     0.437809     0.426629     0.415450     0.404270     0.393091     0.381911     0.370732     0.359552     0.348373
      0.337193     0.326014     0.314835     0.303655     0.292476     0.281296     0.270117     0.258937     0.247758     0.236578
      0.225399     0.214220     0.203040
 NY phased data points follow
  -5.47221E-09 -6.22804E-09 -5.13682E-09 -5.73266E-09 -4.56215E-09 -5.52793E-09 -3.68289E-09 -4.97457E-09 -3.96126E-09 -5.53930E-09
  -5.01784E-09 -6.23347E-09 -3.69134E-09 -4.42003E-09 -3.63108E-09 -4.61891E-09 -4.03757E-09 -6.16453E-09 -4.91371E-09 -5.16438E-09
  -2.97787E-09 -3.29074E-09 -5.30763E-10 -1.40746E-09  2.32855E-10 -4.23778E-10  6.67106E-11 -5.73571E-10  2.38152E-10 -1.35532E-10
   3.03074E-10 -4.56633E-10  9.28171E-10  1.45532E-10  6.06812E-10 -8.91876E-10 -2.42899E-10 -8.10624E-10 -2.54385E-11 -8.34264E-10
   6.97362E-11 -1.02034E-09 -2.17806E-10 -1.34954E-09 -8.67327E-10 -2.54861E-09 -2.66221E-09 -5.54474E-09 -6.37217E-09 -7.88042E-09
  -6.47718E-09 -4.17915E-09 -1.64472E-09 -1.02650E-09  4.25610E-10 -3.32157E-10  1.15491E-09  8.94450E-10  1.09296E-09  3.28410E-10
   1.41456E-09  8.70640E-10 -2.44848E-10 -2.74717E-09 -4.03491E-09 -6.38737E-09 -6.17491E-09 -5.09476E-09 -2.68125E-09 -1.40723E-09
   7.86308E-10  3.60295E-10  1.61815E-09  1.70622E-09  2.29369E-09  2.58961E-09  2.93928E-09  3.27303E-09  3.48861E-09  3.72357E-09
   4.73084E-09  4.68175E-09  4.20584E-09  4.64985E-09  5.15379E-09  4.46991E-09  4.62504E-09  4.08220E-09  4.52496E-09  3.81247E-09
   4.22037E-09  3.96375E-09  4.50767E-09  4.55648E-09  5.16902E-09  5.04729E-09  4.76407E-09  3.88954E-09  3.84101E-09  2.62620E-09
   3.03901E-09  3.07703E-09  3.23281E-09  2.23800E-09  3.02703E-09  2.56762E-09  2.90471E-09  3.10131E-09  4.20309E-09  4.47452E-09
   4.45234E-09  4.24579E-09  4.34218E-09  3.68483E-09  3.10300E-09  2.85603E-09  2.89442E-09  2.93115E-09  2.39762E-09  2.76457E-09
   2.73682E-09  2.31906E-09  3.12967E-09  2.20712E-09  2.25821E-09  9.85892E-10  7.44612E-10  4.09417E-10  1.90865E-09  1.88230E-09
   1.74195E-09  1.56213E-09  1.88129E-09  1.89348E-09  2.68069E-09  3.06548E-09  3.15673E-09  2.97057E-09  3.32981E-09  2.84172E-09
   3.29305E-09  3.48609E-09  3.70010E-09  3.25933E-09  3.23947E-09  2.83786E-09  3.49411E-09  3.82837E-09  4.34373E-09  4.04432E-09
   3.96593E-09  3.84842E-09  3.20056E-09  1.09898E-09  5.59869E-10 -1.18319E-09 -2.41434E-09 -2.54556E-09  1.77956E-09  5.17886E-09
   8.72259E-09  1.04488E-08  1.16289E-08  1.20171E-08  1.39901E-08  1.42932E-08  1.49600E-08  1.50238E-08  1.58691E-08  1.64831E-08
   1.78005E-08  1.78480E-08  1.82247E-08  1.87218E-08  1.89896E-08  1.88924E-08  1.89937E-08  1.78744E-08  1.77460E-08  1.68574E-08
   1.61909E-08  1.34468E-08  1.27408E-08  1.07047E-08  9.07964E-09  6.71389E-09  4.70084E-09  2.13775E-09  1.08722E-09 -3.16077E-10
  -1.71726E-09 -3.13352E-09 -3.32076E-09 -4.13479E-09 -3.64180E-09 -3.43839E-09 -3.68630E-09 -3.30054E-09 -2.32391E-09 -1.53265E-09
  -1.23723E-09 -6.84833E-10 -1.45188E-10 -1.13170E-09 -5.06478E-10 -5.45808E-11 -8.78982E-10 -1.60560E-09 -9.34835E-10 -5.77708E-10
  -9.84105E-10 -5.35726E-10  2.46193E-10 -1.51182E-10  2.50903E-10 -9.22508E-10 -2.95856E-10 -5.66541E-10 -6.02541E-10 -1.02406E-09
  -9.73292E-10 -8.57787E-10 -1.66426E-10 -8.16465E-10  1.29192E-10 -1.97532E-11 -1.37333E-10 -7.96943E-10 -6.39388E-10 -6.74121E-10
  -9.34752E-10 -1.80151E-09 -1.11049E-09 -8.61215E-10 -1.32961E-09 -6.00179E-10 -6.47548E-10 -1.41677E-09 -3.03010E-10 -1.31926E-09
  -4.00095E-10 -8.16185E-11  3.33650E-13  1.05450E-10 -3.58676E-10 -2.79337E-10  1.07294E-10 -5.09439E-10 -9.47891E-10 -1.15005E-09
  -1.20620E-09 -1.90302E-09 -1.65858E-09 -2.52859E-09 -1.76471E-09 -2.33906E-09 -2.24206E-09 -1.83129E-09 -1.60262E-09 -1.47678E-09
  -9.80166E-10 -1.53020E-09 -9.59639E-10 -7.92381E-10 -3.30860E-10 -6.57814E-10 -1.76926E-10 -5.40245E-10 -1.78628E-10 -5.23356E-10
  -6.23651E-10 -2.12519E-10 -2.30215E-10 -3.08761E-10 -3.19854E-11 -7.92588E-10 -5.93006E-10 -4.95687E-10 -6.25027E-10 -1.37326E-09
  -7.43104E-10 -1.01147E-09 -1.92804E-10 -1.23692E-09 -1.04181E-09 -1.25972E-09 -1.33738E-09 -7.29333E-10 -1.46544E-09 -1.74988E-09
  -1.51844E-09 -1.54873E-09 -1.24540E-09 -2.01739E-09 -1.98298E-09 -1.69094E-09 -1.70607E-09 -2.44428E-09 -1.80733E-09 -2.08452E-09
  -2.16788E-09 -2.65815E-09 -2.18478E-09 -1.99098E-09 -2.70232E-09 -2.79383E-09 -2.27478E-09 -2.80391E-09 -2.74287E-09 -2.81582E-09
  -2.53402E-09 -3.26272E-09 -2.80751E-09 -2.72123E-09 -2.86441E-09 -2.85303E-09 -3.08085E-09 -2.80868E-09 -3.07811E-09 -3.33659E-09
  -2.87127E-09 -3.19014E-09 -2.91755E-09 -3.45921E-09 -3.32636E-09 -3.62642E-09 -2.91389E-09 -3.17712E-09 -3.62243E-09 -3.59249E-09
  -3.25799E-09 -3.97147E-09 -3.38744E-09 -3.65950E-09 -3.07437E-09 -3.96312E-09 -2.95310E-09 -3.37217E-09 -3.32110E-09 -3.71388E-09
  -3.51329E-09 -3.60066E-09 -3.53124E-09 -3.40129E-09 -2.99520E-09 -4.13696E-09 -3.09397E-09 -3.28869E-09 -3.60013E-09 -3.13539E-09
  -3.83413E-09 -3.32130E-09 -3.15244E-09 -3.38716E-09 -3.37342E-09 -3.58164E-09 -3.18324E-09 -3.37350E-09 -3.48176E-09 -3.23995E-09
  -3.23733E-09 -3.21017E-09 -3.22940E-09
 NY points of the fit to the data follow
  -3.18236E-09 -4.04244E-09 -4.47640E-09 -5.33240E-09 -5.61879E-09 -5.78608E-09 -5.85390E-09 -5.88876E-09 -3.33702E-09 -3.79498E-09
  -5.51947E-09 -5.60060E-09 -5.36640E-09 -5.07441E-09 -4.59120E-09 -4.45832E-09 -4.01357E-09 -3.65056E-09 -2.62676E-09 -3.59792E-09
  -4.12199E-09 -3.71233E-09 -2.78128E-09 -1.70820E-09 -1.03670E-09 -2.88003E-10  3.22498E-11  3.25944E-11  4.21672E-10  1.14530E-09
   2.31447E-09  1.14880E-09  8.25022E-10  1.59216E-09  6.42160E-10 -4.72849E-10 -2.16612E-10 -2.77572E-10 -4.49590E-10 -3.32157E-10
  -1.18570E-10 -9.80995E-10 -5.08290E-10  2.77565E-10 -1.20702E-09 -2.21467E-09 -1.68048E-09 -2.80975E-09 -3.20150E-09 -3.26281E-09
  -2.94705E-09 -2.76959E-09 -2.59658E-09 -2.18612E-09 -2.08966E-09 -2.20370E-09 -1.85402E-09 -1.53040E-09 -1.18405E-09 -1.21559E-09
  -1.03863E-09 -1.09763E-09 -6.31979E-10 -2.99640E-10 -8.63293E-10 -4.70290E-11  8.64313E-10  2.47760E-10  3.83436E-10  9.39770E-10
   1.13756E-09  1.23102E-09  1.95625E-09  1.56165E-09  1.09171E-09  2.22207E-09  2.54987E-09  4.05504E-09  4.16847E-09  4.11858E-09
   4.18594E-09  4.47877E-09  4.48066E-09  4.59004E-09  5.10256E-09  4.88480E-09  5.15317E-09  6.03856E-09  3.25940E-09  2.12979E-09
   2.16966E-09  2.00298E-09  1.66391E-09  2.11408E-09  2.13721E-09  1.41041E-09  1.69666E-09  1.86939E-09  1.50483E-09  1.96648E-09
   2.66359E-09  2.05713E-09  2.41271E-09  3.39045E-09  3.39334E-09  3.45877E-09  3.88156E-09  4.49653E-09  4.35318E-09  4.82665E-09
   5.11670E-09  4.02647E-09  4.31623E-09  4.49264E-09  3.63556E-09  3.37202E-09  3.34087E-09  3.24131E-09  2.57777E-09  2.70752E-09
   2.65487E-09  2.15143E-09  1.99715E-09  1.94180E-09  1.92448E-09  1.92568E-09  1.93728E-09  1.95515E-09  1.97692E-09  2.00123E-09
   2.02713E-09  2.05394E-09  2.08124E-09  2.10870E-09  2.13606E-09  2.16312E-09  2.18973E-09  2.21577E-09  2.24114E-09  2.26579E-09
   2.28964E-09  2.31267E-09  2.33487E-09  2.35619E-09  2.37666E-09  2.39627E-09  2.41506E-09  2.43304E-09  2.45033E-09  2.46699E-09
   2.48313E-09  2.49895E-09  2.51465E-09  2.53053E-09  2.54707E-09  2.56486E-09  2.58479E-09  2.60819E-09  2.63715E-09  2.67496E-09
   2.72737E-09  2.80482E-09  2.92860E-09  3.14829E-09  3.60675E-09  4.88471E-09  1.00432E-08  1.65722E-08  1.63516E-08  1.58189E-08
   1.69001E-08  1.79868E-08  1.83575E-08  1.85193E-08  1.84999E-08  1.87542E-08  2.01852E-08  1.79973E-08  9.49617E-09  5.30785E-09
   4.04970E-09  3.49323E-09  3.17564E-09  2.96570E-09  2.81281E-09  2.69344E-09  2.59522E-09  2.51104E-09  2.43654E-09  2.36888E-09
   2.30617E-09  2.24709E-09  2.19070E-09  2.13632E-09  2.08343E-09  2.03164E-09  1.98067E-09  1.93030E-09  1.88033E-09  1.83065E-09
   1.78114E-09  1.73171E-09  1.68232E-09  1.63290E-09  1.58343E-09  1.53386E-09  1.48420E-09  1.43442E-09  1.38451E-09  1.33448E-09
   1.28432E-09  1.23405E-09  1.18367E-09  1.13319E-09  1.08262E-09  1.03198E-09  9.81294E-10  9.30561E-10  8.79808E-10  8.29057E-10
   7.78330E-10  7.27644E-10  6.77022E-10  6.26486E-10  5.76059E-10  5.25770E-10  4.75636E-10  4.25684E-10  3.75944E-10  3.26435E-10
   2.77184E-10  2.28220E-10  1.79565E-10  1.31246E-10  8.32942E-11  3.57319E-11 -1.14139E-11 -5.81144E-11 -1.04344E-10 -1.50075E-10
  -1.95281E-10 -2.39930E-10 -2.84002E-10 -3.27490E-10 -3.70407E-10 -4.12766E-10 -4.54576E-10 -4.95846E-10 -5.36592E-10 -5.76823E-10
  -6.16549E-10 -6.55785E-10 -6.94537E-10 -7.32819E-10 -7.70643E-10 -8.08015E-10 -8.44951E-10 -8.81460E-10 -9.17552E-10 -9.53237E-10
  -9.88527E-10 -1.02344E-09 -1.05797E-09 -1.09214E-09 -1.12596E-09 -1.15944E-09 -1.19258E-09 -1.22541E-09 -1.25792E-09 -1.29014E-09
  -1.32206E-09 -1.35371E-09 -1.38509E-09 -1.41621E-09 -1.44709E-09 -1.47773E-09 -1.50814E-09 -1.53833E-09 -1.56832E-09 -1.59812E-09
  -1.62773E-09 -1.65717E-09 -1.68644E-09 -1.71556E-09 -1.74453E-09 -1.77338E-09 -1.80209E-09 -1.83070E-09 -1.85921E-09 -1.88762E-09
  -1.91595E-09 -1.94420E-09 -1.97240E-09 -2.00055E-09 -2.02866E-09 -2.05674E-09 -2.08479E-09 -2.11284E-09 -2.14088E-09 -2.16894E-09
  -2.19702E-09 -2.22513E-09 -2.25327E-09 -2.28147E-09 -2.30971E-09 -2.33799E-09 -2.36630E-09 -2.39465E-09 -2.42304E-09 -2.45145E-09
  -2.47990E-09 -2.50836E-09 -2.53685E-09 -2.56535E-09 -2.59388E-09 -2.62241E-09 -2.65095E-09 -2.67950E-09 -2.70806E-09 -2.73661E-09
  -2.76516E-09 -2.79371E-09 -2.82225E-09 -2.85078E-09 -2.87930E-09 -2.90780E-09 -2.93629E-09 -2.96475E-09 -2.99318E-09 -3.02159E-09
  -3.04997E-09 -3.07832E-09 -3.10662E-09 -3.13489E-09 -3.16312E-09 -3.19131E-09 -3.21944E-09 -3.24753E-09 -3.27556E-09 -3.30353E-09
  -3.33145E-09 -3.35931E-09 -3.38710E-09 -3.41482E-09 -3.44247E-09 -3.47005E-09 -3.49755E-09 -3.52498E-09 -3.55232E-09 -3.57958E-09
  -3.60674E-09 -3.63382E-09 -3.66081E-09 -3.68770E-09 -3.71449E-09 -3.74118E-09 -3.76776E-09 -3.79424E-09 -3.82060E-09 -3.84686E-09
  -3.87299E-09 -3.89901E-09 -3.92491E-09
 NY background values follow
    -1.321E-08   -1.309E-08   -1.296E-08   -1.284E-08   -1.271E-08   -1.259E-08   -1.246E-08   -1.234E-08   -1.221E-08   -1.209E-08
    -1.196E-08   -1.183E-08   -1.171E-08   -1.158E-08   -1.146E-08   -1.133E-08   -1.121E-08   -1.108E-08   -1.095E-08   -1.083E-08
    -1.070E-08   -1.058E-08   -1.045E-08   -1.032E-08   -1.020E-08   -1.007E-08   -9.947E-09   -9.821E-09   -9.696E-09   -9.570E-09
    -9.444E-09   -9.319E-09   -9.193E-09   -9.068E-09   -8.942E-09   -8.817E-09   -8.692E-09   -8.566E-09   -8.441E-09   -8.316E-09
    -8.192E-09   -8.067E-09   -7.942E-09   -7.818E-09   -7.693E-09   -7.569E-09   -7.445E-09   -7.321E-09   -7.197E-09   -7.074E-09
    -6.950E-09   -6.827E-09   -6.704E-09   -6.581E-09   -6.458E-09   -6.335E-09   -6.213E-09   -6.091E-09   -5.969E-09   -5.847E-09
    -5.725E-09   -5.604E-09   -5.483E-09   -5.362E-09   -5.242E-09   -5.121E-09   -5.002E-09   -4.882E-09   -4.763E-09   -4.644E-09
    -4.526E-09   -4.408E-09   -4.291E-09   -4.174E-09   -4.057E-09   -3.942E-09   -3.826E-09   -3.712E-09   -3.598E-09   -3.484E-09
    -3.372E-09   -3.260E-09   -3.148E-09   -3.038E-09   -2.928E-09   -2.819E-09   -2.711E-09   -2.603E-09   -2.497E-09   -2.391E-09
    -2.287E-09   -2.183E-09   -2.080E-09   -1.978E-09   -1.877E-09   -1.777E-09   -1.678E-09   -1.581E-09   -1.484E-09   -1.389E-09
    -1.294E-09   -1.201E-09   -1.109E-09   -1.018E-09   -9.286E-10   -8.402E-10   -7.532E-10   -6.675E-10   -5.831E-10   -5.001E-10
    -4.184E-10   -3.382E-10   -2.593E-10   -1.819E-10   -1.060E-10   -3.164E-11    4.123E-11    1.126E-10    1.823E-10    2.504E-10
     3.170E-10    3.819E-10    4.452E-10    5.068E-10    5.667E-10    6.251E-10    6.818E-10    7.369E-10    7.903E-10    8.422E-10
     8.925E-10    9.411E-10    9.882E-10    1.034E-09    1.078E-09    1.120E-09    1.161E-09    1.200E-09    1.238E-09    1.274E-09
     1.309E-09    1.342E-09    1.374E-09    1.404E-09    1.432E-09    1.460E-09    1.485E-09    1.509E-09    1.532E-09    1.553E-09
     1.573E-09    1.592E-09    1.609E-09    1.624E-09    1.638E-09    1.651E-09    1.662E-09    1.672E-09    1.680E-09    1.687E-09
     1.693E-09    1.697E-09    1.700E-09    1.702E-09    1.702E-09    1.701E-09    1.699E-09    1.695E-09    1.690E-09    1.683E-09
     1.676E-09    1.667E-09    1.657E-09    1.645E-09    1.632E-09    1.618E-09    1.603E-09    1.586E-09    1.568E-09    1.549E-09
     1.529E-09    1.507E-09    1.484E-09    1.460E-09    1.435E-09    1.409E-09    1.382E-09    1.353E-09    1.324E-09    1.294E-09
     1.262E-09    1.230E-09    1.197E-09    1.162E-09    1.127E-09    1.091E-09    1.055E-09    1.017E-09    9.790E-10    9.401E-10
     9.005E-10    8.602E-10    8.193E-10    7.778E-10    7.357E-10    6.931E-10    6.500E-10    6.064E-10    5.623E-10    5.178E-10
     4.729E-10    4.277E-10    3.821E-10    3.362E-10    2.900E-10    2.436E-10    1.969E-10    1.501E-10    1.031E-10    5.596E-11
     8.734E-12   -3.857E-11   -8.592E-11   -1.333E-10   -1.806E-10   -2.279E-10   -2.752E-10   -3.223E-10   -3.693E-10   -4.161E-10
    -4.628E-10   -5.092E-10   -5.554E-10   -6.013E-10   -6.469E-10   -6.921E-10   -7.370E-10   -7.815E-10   -8.256E-10   -8.692E-10
    -9.123E-10   -9.549E-10   -9.970E-10   -1.039E-09   -1.080E-09   -1.120E-09   -1.160E-09   -1.199E-09   -1.238E-09   -1.277E-09
    -1.315E-09   -1.352E-09   -1.390E-09   -1.426E-09   -1.462E-09   -1.498E-09   -1.534E-09   -1.569E-09   -1.603E-09   -1.637E-09
    -1.671E-09   -1.705E-09   -1.738E-09   -1.770E-09   -1.803E-09   -1.835E-09   -1.867E-09   -1.898E-09   -1.930E-09   -1.960E-09
    -1.991E-09   -2.021E-09   -2.052E-09   -2.082E-09   -2.111E-09   -2.141E-09   -2.170E-09   -2.199E-09   -2.228E-09   -2.256E-09
    -2.285E-09   -2.313E-09   -2.341E-09   -2.369E-09   -2.397E-09   -2.425E-09   -2.453E-09   -2.480E-09   -2.508E-09   -2.535E-09
    -2.562E-09   -2.590E-09   -2.617E-09   -2.644E-09   -2.671E-09   -2.698E-09   -2.725E-09   -2.752E-09   -2.780E-09   -2.807E-09
    -2.834E-09   -2.861E-09   -2.888E-09   -2.916E-09   -2.943E-09   -2.970E-09   -2.998E-09   -3.025E-09   -3.053E-09   -3.080E-09
    -3.108E-09   -3.136E-09   -3.163E-09   -3.191E-09   -3.219E-09   -3.246E-09   -3.274E-09   -3.302E-09   -3.330E-09   -3.357E-09
    -3.385E-09   -3.413E-09   -3.441E-09   -3.469E-09   -3.496E-09   -3.524E-09   -3.552E-09   -3.580E-09   -3.607E-09   -3.635E-09
    -3.663E-09   -3.690E-09   -3.718E-09   -3.745E-09   -3.773E-09   -3.800E-09   -3.828E-09   -3.855E-09   -3.883E-09   -3.910E-09
    -3.937E-09   -3.964E-09   -3.991E-09   -4.018E-09   -4.045E-09   -4.072E-09   -4.099E-09   -4.126E-09   -4.153E-09   -4.179E-09
    -4.206E-09   -4.232E-09   -4.259E-09   -4.285E-09   -4.311E-09   -4.337E-09   -4.363E-09   -4.389E-09   -4.415E-09   -4.440E-09
    -4.466E-09   -4.491E-09   -4.516E-09
 Ala      Conc. = 7.70E-10
  -1.26860E-08 -1.26215E-08 -1.24402E-08 -1.22402E-08 -1.21419E-08 -1.20387E-08 -1.18132E-08 -1.17930E-08 -1.18133E-08 -1.15526E-08
  -1.15038E-08 -1.15455E-08 -1.14037E-08 -1.13126E-08 -1.12480E-08 -1.11601E-08 -1.10598E-08 -1.09524E-08 -1.08405E-08 -1.07257E-08
  -1.06087E-08 -1.04902E-08 -1.03705E-08 -1.02499E-08 -1.01286E-08 -1.00068E-08 -9.88450E-09 -9.76185E-09 -9.63894E-09 -9.51576E-09
  -9.39244E-09 -9.26893E-09 -9.14530E-09 -9.02164E-09 -8.89787E-09 -8.77406E-09 -8.65025E-09 -8.52645E-09 -8.40265E-09 -8.27889E-09
  -8.15515E-09 -8.03146E-09 -7.90785E-09 -7.78433E-09 -7.66086E-09 -7.53753E-09 -7.41428E-09 -7.29112E-09 -7.16813E-09 -7.04526E-09
  -6.92253E-09 -6.79991E-09 -6.67748E-09 -6.55522E-09 -6.43309E-09 -6.31112E-09 -6.18935E-09 -6.06780E-09 -5.94640E-09 -5.82529E-09
  -5.70433E-09 -5.58358E-09 -5.46307E-09 -5.34282E-09 -5.22284E-09 -5.10317E-09 -4.98383E-09 -4.86484E-09 -4.74622E-09 -4.62799E-09
  -4.51019E-09 -4.39282E-09 -4.27593E-09 -4.15950E-09 -4.04358E-09 -3.92819E-09 -3.81332E-09 -3.69903E-09 -3.58528E-09 -3.47214E-09
  -3.35958E-09 -3.24760E-09 -3.13621E-09 -3.02542E-09 -2.91521E-09 -2.80549E-09 -2.69628E-09 -2.58746E-09 -2.47891E-09 -2.37045E-09
  -2.26180E-09 -2.15255E-09 -2.04199E-09 -1.92895E-09 -1.81146E-09 -1.68570E-09 -1.54372E-09 -1.36587E-09 -1.09059E-09 -4.43569E-10
   3.73240E-10 -5.91138E-12  5.07005E-10  1.59386E-09  1.66024E-09  1.72325E-09  1.95575E-09  2.15695E-09  2.30420E-09  2.54250E-09
   2.36946E-09  1.32588E-09  1.65099E-09  1.76782E-09  8.75374E-10  6.04024E-10  5.13039E-10  4.89118E-10  4.96593E-10  5.20791E-10
   5.54772E-10  5.94527E-10  6.37807E-10  6.83168E-10  7.29676E-10  7.76680E-10  8.23730E-10  8.70486E-10  9.16698E-10  9.62188E-10
   1.00681E-09  1.05045E-09  1.09303E-09  1.13447E-09  1.17473E-09  1.21374E-09  1.25151E-09  1.28797E-09  1.32311E-09  1.35692E-09
   1.38938E-09  1.42049E-09  1.45023E-09  1.47858E-09  1.50558E-09  1.53121E-09  1.55545E-09  1.57832E-09  1.59984E-09  1.61999E-09
   1.63879E-09  1.65627E-09  1.67242E-09  1.68727E-09  1.70088E-09  1.71329E-09  1.72453E-09  1.73473E-09  1.74404E-09  1.75268E-09
   1.76110E-09  1.77001E-09  1.78098E-09  1.79754E-09  1.82968E-09  1.91549E-09  2.28400E-09  2.88458E-09  2.70109E-09  2.67604E-09
   2.77015E-09  2.84549E-09  2.84930E-09  2.85412E-09  2.83768E-09  2.84092E-09  2.94403E-09  2.82933E-09  2.00492E-09  1.79176E-09
   1.70207E-09  1.64636E-09  1.60350E-09  1.56637E-09  1.53195E-09  1.49879E-09  1.46610E-09  1.43342E-09  1.40049E-09  1.36712E-09
   1.33322E-09  1.29871E-09  1.26355E-09  1.22772E-09  1.19121E-09  1.15401E-09  1.11614E-09  1.07760E-09  1.03840E-09  9.98568E-10
   9.58117E-10  9.17066E-10  8.75440E-10  8.33264E-10  7.90555E-10  7.47343E-10  7.03653E-10  6.59513E-10  6.14944E-10  5.69974E-10
   5.24633E-10  4.78948E-10  4.32946E-10  3.86655E-10  3.40098E-10  2.93308E-10  2.46317E-10  1.99144E-10  1.51823E-10  1.04383E-10
   5.68528E-11  9.25933E-12 -3.83678E-11 -8.60024E-11 -1.33615E-10 -1.81171E-10 -2.28650E-10 -2.76020E-10 -3.23248E-10 -3.70309E-10
  -4.17175E-10 -4.63814E-10 -5.10199E-10 -5.56302E-10 -6.02090E-10 -6.47537E-10 -6.92614E-10 -7.37291E-10 -7.81540E-10 -8.25330E-10
  -8.68636E-10 -9.11423E-10 -9.53668E-10 -9.95365E-10 -1.03652E-09 -1.07716E-09 -1.11727E-09 -1.15688E-09 -1.19599E-09 -1.23462E-09
  -1.27276E-09 -1.31045E-09 -1.34767E-09 -1.38445E-09 -1.42080E-09 -1.45671E-09 -1.49222E-09 -1.52731E-09 -1.56201E-09 -1.59633E-09
  -1.63027E-09 -1.66385E-09 -1.69707E-09 -1.72994E-09 -1.76249E-09 -1.79471E-09 -1.82661E-09 -1.85821E-09 -1.88951E-09 -1.92053E-09
  -1.95128E-09 -1.98177E-09 -2.01200E-09 -2.04199E-09 -2.07174E-09 -2.10127E-09 -2.13059E-09 -2.15970E-09 -2.18862E-09 -2.21736E-09
  -2.24593E-09 -2.27433E-09 -2.30259E-09 -2.33069E-09 -2.35867E-09 -2.38652E-09 -2.41426E-09 -2.44190E-09 -2.46945E-09 -2.49691E-09
  -2.52431E-09 -2.55163E-09 -2.57891E-09 -2.60615E-09 -2.63336E-09 -2.66055E-09 -2.68772E-09 -2.71489E-09 -2.74206E-09 -2.76926E-09
  -2.79649E-09 -2.82376E-09 -2.85106E-09 -2.87843E-09 -2.90585E-09 -2.93331E-09 -2.96082E-09 -2.98838E-09 -3.01597E-09 -3.04360E-09
  -3.07126E-09 -3.09895E-09 -3.12667E-09 -3.15441E-09 -3.18218E-09 -3.20996E-09 -3.23776E-09 -3.26558E-09 -3.29340E-09 -3.32123E-09
  -3.34906E-09 -3.37689E-09 -3.40472E-09 -3.43255E-09 -3.46037E-09 -3.48817E-09 -3.51596E-09 -3.54374E-09 -3.57149E-09 -3.59922E-09
  -3.62693E-09 -3.65461E-09 -3.68225E-09 -3.70986E-09 -3.73744E-09 -3.76497E-09 -3.79246E-09 -3.81990E-09 -3.84729E-09 -3.87463E-09
  -3.90192E-09 -3.92914E-09 -3.95631E-09 -3.98341E-09 -4.01045E-09 -4.03741E-09 -4.06430E-09 -4.09112E-09 -4.11785E-09 -4.14451E-09
  -4.17108E-09 -4.19756E-09 -4.22395E-09 -4.25025E-09 -4.27645E-09 -4.30255E-09 -4.32856E-09 -4.35445E-09 -4.38024E-09 -4.40592E-09
  -4.43148E-09 -4.45693E-09 -4.48225E-09
 Asp      Conc. = 2.69E-10
  -1.29074E-08 -1.28324E-08 -1.27166E-08 -1.26449E-08 -1.25227E-08 -1.24298E-08 -1.23291E-08 -1.22517E-08 -1.21490E-08 -1.20366E-08
  -1.19196E-08 -1.18002E-08 -1.16794E-08 -1.15568E-08 -1.14334E-08 -1.13097E-08 -1.11856E-08 -1.10613E-08 -1.09367E-08 -1.08119E-08
  -1.06869E-08 -1.05617E-08 -1.04364E-08 -1.03110E-08 -1.01855E-08 -1.00598E-08 -9.93396E-09 -9.80797E-09 -9.68182E-09 -9.55534E-09
  -9.42854E-09 -9.30114E-09 -9.17289E-09 -9.04321E-09 -8.91064E-09 -8.77119E-09 -8.61363E-09 -8.48947E-09 -8.33556E-09 -8.22433E-09
  -8.10018E-09 -7.96495E-09 -7.79977E-09 -7.61424E-09 -7.42713E-09 -7.21069E-09 -7.12805E-09 -7.03976E-09 -6.80688E-09 -6.70257E-09
  -6.58473E-09 -6.41665E-09 -6.26425E-09 -6.15420E-09 -6.06213E-09 -5.94968E-09 -5.97231E-09 -5.86542E-09 -5.69369E-09 -5.64384E-09
  -5.56203E-09 -5.44352E-09 -5.35686E-09 -5.25913E-09 -5.13258E-09 -4.99268E-09 -4.90084E-09 -4.79813E-09 -4.68988E-09 -4.57896E-09
  -4.46665E-09 -4.35357E-09 -4.24013E-09 -4.12654E-09 -4.01300E-09 -3.89964E-09 -3.78652E-09 -3.67379E-09 -3.56143E-09 -3.44958E-09
  -3.33823E-09 -3.22744E-09 -3.11724E-09 -3.00771E-09 -2.89887E-09 -2.79071E-09 -2.68332E-09 -2.57669E-09 -2.47087E-09 -2.36588E-09
  -2.26174E-09 -2.15853E-09 -2.05622E-09 -1.95484E-09 -1.85445E-09 -1.75504E-09 -1.65666E-09 -1.55933E-09 -1.46306E-09 -1.36792E-09
  -1.27388E-09 -1.18100E-09 -1.08930E-09 -9.98780E-10 -9.09494E-10 -8.21462E-10 -7.34680E-10 -6.49219E-10 -5.65093E-10 -4.82288E-10
  -4.00878E-10 -3.20826E-10 -2.42226E-10 -1.65040E-10 -8.93442E-11 -1.51319E-11  5.75566E-11  1.28701E-10  1.98285E-10  2.66221E-10
   3.32640E-10  3.97386E-10  4.60487E-10  5.21938E-10  5.81754E-10  6.39937E-10  6.96505E-10  7.51454E-10  8.04790E-10  8.56527E-10
   9.06670E-10  9.55219E-10  1.00219E-09  1.04759E-09  1.09142E-09  1.13369E-09  1.17442E-09  1.21360E-09  1.25123E-09  1.28734E-09
   1.32192E-09  1.35499E-09  1.38655E-09  1.41660E-09  1.44517E-09  1.47227E-09  1.49788E-09  1.52201E-09  1.54471E-09  1.56594E-09
   1.58573E-09  1.60411E-09  1.62107E-09  1.63661E-09  1.65079E-09  1.66361E-09  1.67508E-09  1.68526E-09  1.69420E-09  1.70196E-09
   1.70871E-09  1.71466E-09  1.72029E-09  1.72661E-09  1.73645E-09  1.75980E-09  1.85274E-09  2.11948E-09  2.04918E-09  2.02581E-09
   2.05284E-09  2.07921E-09  2.07383E-09  2.06935E-09  2.05526E-09  2.04359E-09  2.06222E-09  2.07475E-09  1.73430E-09  1.63212E-09
   1.58461E-09  1.55031E-09  1.52028E-09  1.49167E-09  1.46334E-09  1.43474E-09  1.40561E-09  1.37580E-09  1.34522E-09  1.31383E-09
   1.28162E-09  1.24857E-09  1.21469E-09  1.18000E-09  1.14450E-09  1.10822E-09  1.07118E-09  1.03340E-09  9.94896E-10  9.55707E-10
   9.15851E-10  8.75354E-10  8.34246E-10  7.92552E-10  7.50300E-10  7.07518E-10  6.64232E-10  6.20477E-10  5.76274E-10  5.31652E-10
   4.86643E-10  4.41274E-10  3.95576E-10  3.49575E-10  3.03299E-10  2.56778E-10  2.10044E-10  1.63123E-10  1.16043E-10  6.88349E-11
   2.15290E-11 -2.58479E-11 -7.32654E-11 -1.20697E-10 -1.68112E-10 -2.15478E-10 -2.62771E-10 -3.09961E-10 -3.57014E-10 -4.03904E-10
