 LCModel (Version 6.3-1R) Copyright: S.W. Provencher.          Ref.: Magn. Reson. Med. 30:672-679 (1993).                
 onepulse 15x17_ftSpec_smooth_lcm
 26 lines in following concentration table = NCONC+1
    Conc.  %SD /Cr+PCr  Metabolite                                         
    0.000 999%   0.000 Ala                                                 
 6.76E-10 106%   2.880 Asp                                                 
    0.000 999%   0.000 Cr                                                  
    0.000 999%   0.000 GABA                                                
    0.000 999%   0.000 Glc                                                 
 3.08E-09  19%  13.139 Gln                                                 
    0.000 999%   0.000 Glu                                                 
 1.08E-09 152%   4.609 Glyc                                                
    0.000 999%   0.000 GPC                                                 
    0.000 999%   0.000 GSH                                                 
 1.30E-10 999%   0.553 Ins                                                 
    0.000 999%   0.000 Lac                                                 
 2.16E-10  91%   0.922 NAAG                                                
    0.000 999%   0.000 NAA                                                 
    0.000 999%   0.000 PCh                                                 
 2.35E-10 119%   1.000 PCr                                                 
 1.38E-09  66%   5.884 PE                                                  
 1.46E-10 195%   0.621 Scyllo                                              
 3.73E-10 182%   1.591 Ser                                                 
 4.94E-10 197%   2.104 Tau                                                 
    0.000 999%   0.000 GPC+PCh                                             
 2.16E-10  91%   0.922 NAA+NAAG                                            
 1.21E-09  41%   5.161 Ins+Glyc                                            
 2.35E-10 119%   1.000 Cr+PCr                                              
 3.08E-09  19%  13.139 Glu+Gln                                             
   6 lines in following misc. output table
  FWHM = 0.101 ppm    S/N =   3                                            
  Data shift = 0.391 ppm                                                   
  Ph: -58 deg     -50.3 deg/ppm                                            
  alphaB,S = 8.2E-01,   5.1E+01                                            
    9 spline knots.   Ns = 5(1)                                            
  ( 6) 4 infls.   ( 3) 1 extrs.                                            
  363 points on ppm-axis = NY
      4.250000     4.238821     4.227641     4.216462     4.205282     4.194103     4.182923     4.171744     4.160564     4.149385
      4.138206     4.127026     4.115847     4.104667     4.093488     4.082308     4.071129     4.059949     4.048770     4.037591
      4.026411     4.015232     4.004052     3.992873     3.981693     3.970514     3.959334     3.948155     3.936975     3.925796
      3.914617     3.903437     3.892258     3.881078     3.869899     3.858719     3.847540     3.836360     3.825181     3.814002
      3.802822     3.791643     3.780463     3.769284     3.758104     3.746925     3.735745     3.724566     3.713387     3.702207
      3.691028     3.679848     3.668669     3.657489     3.646310     3.635130     3.623951     3.612772     3.601592     3.590413
      3.579233     3.568054     3.556874     3.545695     3.534515     3.523336     3.512156     3.500977     3.489798     3.478618
      3.467439     3.456259     3.445080     3.433900     3.422721     3.411541     3.400362     3.389183     3.378003     3.366824
      3.355644     3.344465     3.333285     3.322106     3.310926     3.299747     3.288568     3.277388     3.266209     3.255029
      3.243850     3.232670     3.221491     3.210311     3.199132     3.187953     3.176773     3.165594     3.154414     3.143235
      3.132055     3.120876     3.109696     3.098517     3.087337     3.076158     3.064979     3.053799     3.042620     3.031440
      3.020261     3.009081     2.997902     2.986722     2.975543     2.964364     2.953184     2.942005     2.930825     2.919646
      2.908466     2.897287     2.886107     2.874928     2.863749     2.852569     2.841390     2.830210     2.819031     2.807851
      2.796672     2.785492     2.774313     2.763134     2.751954     2.740775     2.729595     2.718416     2.707236     2.696057
      2.684877     2.673698     2.662519     2.651339     2.640160     2.628980     2.617801     2.606621     2.595442     2.584262
      2.573083     2.561903     2.550724     2.539545     2.528365     2.517186     2.506006     2.494827     2.483647     2.472468
      2.461288     2.450109     2.438930     2.427750     2.416571     2.405391     2.394212     2.383032     2.371853     2.360673
      2.349494     2.338315     2.327135     2.315956     2.304776     2.293597     2.282417     2.271238     2.260058     2.248879
      2.237700     2.226520     2.215341     2.204161     2.192982     2.181802     2.170623     2.159443     2.148264     2.137084
      2.125905     2.114726     2.103546     2.092367     2.081187     2.070008     2.058828     2.047649     2.036469     2.025290
      2.014111     2.002931     1.991752     1.980572     1.969393     1.958213     1.947034     1.935854     1.924675     1.913496
      1.902316     1.891137     1.879957     1.868778     1.857598     1.846419     1.835239     1.824060     1.812881     1.801701
      1.790522     1.779342     1.768163     1.756983     1.745804     1.734624     1.723445     1.712265     1.701086     1.689907
      1.678727     1.667548     1.656368     1.645189     1.634009     1.622830     1.611650     1.600471     1.589292     1.578112
      1.566933     1.555753     1.544574     1.533394     1.522215     1.511035     1.499856     1.488677     1.477497     1.466318
      1.455138     1.443959     1.432779     1.421600     1.410420     1.399241     1.388062     1.376882     1.365703     1.354523
      1.343344     1.332164     1.320985     1.309805     1.298626     1.287446     1.276267     1.265088     1.253908     1.242729
      1.231549     1.220370     1.209190     1.198011     1.186831     1.175652     1.164473     1.153293     1.142114     1.130934
      1.119755     1.108575     1.097396     1.086216     1.075037     1.063858     1.052678     1.041499     1.030319     1.019140
      1.007960     0.996781     0.985601     0.974422     0.963243     0.952063     0.940884     0.929704     0.918525     0.907345
      0.896166     0.884986     0.873807     0.862628     0.851448     0.840269     0.829089     0.817910     0.806730     0.795551
      0.784371     0.773192     0.762012     0.750833     0.739654     0.728474     0.717295     0.706115     0.694936     0.683756
      0.672577     0.661397     0.650218     0.639039     0.627859     0.616680     0.605500     0.594321     0.583141     0.571962
      0.560782     0.549603     0.538424     0.527244     0.516065     0.504885     0.493706     0.482526     0.471347     0.460167
      0.448988     0.437809     0.426629     0.415450     0.404270     0.393091     0.381911     0.370732     0.359552     0.348373
      0.337193     0.326014     0.314835     0.303655     0.292476     0.281296     0.270117     0.258937     0.247758     0.236578
      0.225399     0.214220     0.203040
 NY phased data points follow
   5.22264E-09  5.84014E-09  4.91416E-09  5.04754E-09  4.47784E-09  5.58478E-09  5.47302E-09  6.18105E-09  6.24263E-09  6.47689E-09
   6.45027E-09  6.12374E-09  6.17525E-09  6.18603E-09  6.23718E-09  6.12233E-09  5.10702E-09  5.78211E-09  5.63822E-09  6.51552E-09
   6.81217E-09  7.18147E-09  6.00106E-09  5.98264E-09  6.36348E-09  6.33086E-09  6.64093E-09  7.87717E-09  8.05554E-09  7.86479E-09
   6.76629E-09  6.68914E-09  4.81784E-09  4.87818E-09  3.96484E-09  3.46175E-09  4.05762E-09  3.73434E-09  3.90839E-09  3.38778E-09
   4.00518E-09  3.71973E-09  3.37895E-09  3.01220E-09  3.13664E-09  3.99902E-09  3.97576E-09  3.90633E-09  4.17962E-09  4.19526E-09
   3.93820E-09  4.25362E-09  4.04844E-09  4.16433E-09  4.05213E-09  4.58502E-09  5.18713E-09  6.81723E-09  9.32645E-09  1.06568E-08
   1.21352E-08  1.06023E-08  9.48360E-09  7.85433E-09  6.84231E-09  6.53675E-09  6.47509E-09  5.09567E-09  5.31627E-09  5.01108E-09
   5.06906E-09  3.32442E-09  4.54319E-09  5.68122E-09  7.56108E-09  9.54624E-09  1.20175E-08  1.22469E-08  1.20289E-08  1.11188E-08
   9.71639E-09  8.97532E-09  9.22883E-09  7.92550E-09  8.29419E-09  7.17074E-09  7.68673E-09  6.84311E-09  7.06401E-09  6.31557E-09
   6.45072E-09  4.87528E-09  5.61437E-09  5.29114E-09  4.48793E-09  4.69576E-09  4.47478E-09  4.89191E-09  4.49119E-09  4.33899E-09
   4.98005E-09  4.56825E-09  4.74677E-09  4.22118E-09  4.06461E-09  3.15090E-09  3.09472E-09  2.99945E-09  3.19028E-09  3.67813E-09
   4.13973E-09  4.17093E-09  3.75652E-09  4.40432E-09  5.12768E-09  4.50063E-09  5.38399E-09  5.00357E-09  5.61325E-09  4.18937E-09
   4.10782E-09  3.76743E-09  3.49475E-09  2.94110E-09  3.46630E-09  3.45571E-09  4.12429E-09  3.54974E-09  3.95100E-09  4.34147E-09
   3.70124E-09  4.21983E-09  3.71287E-09  3.53867E-09  3.47966E-09  3.56286E-09  4.35436E-09  5.44713E-09  6.11285E-09  4.97176E-09
   5.40114E-09  5.59356E-09  6.08375E-09  6.45153E-09  6.52178E-09  6.18254E-09  5.87403E-09  6.13726E-09  5.93947E-09  5.90277E-09
   6.57685E-09  6.08115E-09  5.84654E-09  5.77984E-09  5.87262E-09  6.41494E-09  6.82816E-09  6.84419E-09  6.45925E-09  5.80808E-09
   5.55707E-09  5.55034E-09  4.41647E-09  4.51086E-09  5.03884E-09  6.04194E-09  8.15625E-09  1.23213E-08  1.56160E-08  1.69602E-08
   1.73113E-08  1.63507E-08  1.50610E-08  1.50692E-08  1.51200E-08  1.36806E-08  1.32665E-08  1.26227E-08  1.28889E-08  1.21642E-08
   1.20501E-08  1.08205E-08  1.03317E-08  9.53695E-09  8.43515E-09  7.75902E-09  6.15969E-09  4.96933E-09  3.65029E-09  2.20699E-09
   1.08001E-10 -1.83568E-09 -2.51577E-09 -4.77359E-09 -6.00378E-09 -7.82167E-09 -8.66986E-09 -1.00143E-08 -9.44501E-09 -1.01126E-08
  -1.04193E-08 -1.02654E-08 -9.34241E-09 -8.71889E-09 -7.29137E-09 -7.07094E-09 -6.51004E-09 -4.93412E-09 -4.01667E-09 -2.85133E-09
  -2.40450E-09 -2.02514E-09 -2.05218E-09 -2.47916E-09 -1.62965E-09 -1.62341E-09 -2.70253E-09 -2.66973E-09 -1.58022E-09 -1.60449E-09
  -2.01813E-09 -9.70729E-10 -1.24597E-09 -8.36611E-10 -1.05440E-09 -1.51061E-09 -1.06931E-09 -1.49694E-09 -1.67123E-09 -1.69844E-09
  -1.77370E-09 -9.78201E-10 -1.15024E-09 -1.06088E-09 -3.82907E-10 -6.44140E-10 -9.82640E-10 -1.25481E-09 -1.06449E-09 -1.28646E-09
  -1.82998E-09 -1.83402E-09 -1.13975E-09 -1.16068E-09 -1.69024E-09 -6.97510E-10 -1.04846E-09 -1.44020E-09 -6.83683E-10 -1.20769E-09
  -2.48791E-10 -2.21803E-10 -2.98661E-10 -3.95881E-11 -6.81347E-10 -2.95489E-10 -4.05424E-10 -8.29214E-10 -1.33965E-09 -1.22599E-09
  -1.68539E-09 -1.84329E-09 -1.92803E-09 -2.32370E-09 -1.82492E-09 -2.20258E-09 -1.95398E-09 -1.44819E-09 -1.60094E-09 -1.33144E-09
  -8.13156E-10 -1.29642E-09 -8.29989E-10 -5.66807E-10 -4.49504E-10 -3.25060E-10  1.11461E-11 -4.57029E-10 -4.39130E-10 -2.29245E-10
  -6.84883E-10 -1.28270E-10 -1.20739E-10 -3.79270E-10  1.66367E-11 -5.56291E-10 -4.62453E-10 -1.53841E-10 -6.26096E-10 -1.01158E-09
  -5.36261E-10 -9.07882E-10  1.65715E-10 -7.64934E-10 -9.28150E-10 -9.31620E-10 -1.00502E-09 -5.13197E-10 -9.40554E-10 -1.40373E-09
  -9.88743E-10 -1.25231E-09 -7.23401E-10 -1.21576E-09 -1.56463E-09 -1.15149E-09 -9.05825E-10 -1.82977E-09 -1.14656E-09 -1.56083E-09
  -1.48268E-09 -1.67817E-09 -1.69530E-09 -1.19396E-09 -1.59275E-09 -2.16468E-09 -1.59020E-09 -1.94584E-09 -1.96911E-09 -1.93830E-09
  -1.87424E-09 -2.00441E-09 -2.33333E-09 -1.78032E-09 -2.09005E-09 -1.96195E-09 -2.11692E-09 -1.85448E-09 -2.31611E-09 -2.25093E-09
  -2.21187E-09 -2.28056E-09 -1.77172E-09 -2.24777E-09 -2.44842E-09 -2.43774E-09 -2.15635E-09 -2.09263E-09 -2.46135E-09 -2.45170E-09
  -2.12076E-09 -2.72172E-09 -2.47480E-09 -2.81724E-09 -2.23639E-09 -2.63345E-09 -2.64306E-09 -2.32743E-09 -2.30351E-09 -2.48086E-09
  -2.76825E-09 -2.57281E-09 -2.51577E-09 -2.43559E-09 -2.15977E-09 -2.91630E-09 -2.91501E-09 -1.85767E-09 -2.85549E-09 -2.15738E-09
  -2.92632E-09 -2.76090E-09 -2.28754E-09
 NY points of the fit to the data follow
   6.56858E-09  6.10958E-09  5.79585E-09  5.65127E-09  5.50590E-09  5.27440E-09  4.96170E-09  4.73312E-09  5.25519E-09  6.12207E-09
   6.56011E-09  6.76128E-09  6.63253E-09  6.36928E-09  6.35001E-09  6.40295E-09  6.42399E-09  6.29338E-09  5.89472E-09  5.28894E-09
   5.27306E-09  5.72295E-09  6.30519E-09  6.93094E-09  7.44046E-09  7.84136E-09  8.04274E-09  7.87636E-09  7.44600E-09  6.93358E-09
   6.43555E-09  5.94338E-09  5.53451E-09  5.15541E-09  4.69229E-09  4.21806E-09  3.81957E-09  3.63362E-09  3.58928E-09  3.55040E-09
   3.44236E-09  3.22589E-09  2.98513E-09  2.93703E-09  3.10858E-09  3.36095E-09  3.55726E-09  3.66847E-09  3.83208E-09  4.03277E-09
   4.26500E-09  4.50406E-09  4.73801E-09  5.00834E-09  5.58203E-09  6.40062E-09  7.09687E-09  8.00626E-09  8.97150E-09  9.57843E-09
   9.89184E-09  9.98976E-09  9.82941E-09  9.40431E-09  8.69950E-09  7.82456E-09  7.07343E-09  6.36823E-09  5.55713E-09  5.18253E-09
   5.18795E-09  5.50571E-09  6.06204E-09  6.65879E-09  7.48522E-09  8.51093E-09  9.51122E-09  1.03547E-08  1.08899E-08  1.10586E-08
   1.09133E-08  1.04614E-08  9.80106E-09  9.21648E-09  8.49765E-09  7.49601E-09  6.64878E-09  6.00085E-09  5.50912E-09  5.20665E-09
   5.01632E-09  4.88923E-09  4.79901E-09  4.73419E-09  4.68311E-09  4.64542E-09  4.61827E-09  4.59741E-09  4.58038E-09  4.56622E-09
   4.56024E-09  4.55814E-09  4.55553E-09  4.55382E-09  4.55435E-09  4.55617E-09  4.55857E-09  4.56115E-09  4.56352E-09  4.56554E-09
   4.56703E-09  4.56785E-09  4.56782E-09  4.56685E-09  4.56482E-09  4.56162E-09  4.55718E-09  4.55142E-09  4.54425E-09  4.53562E-09
   4.52547E-09  4.51372E-09  4.50036E-09  4.48539E-09  4.46883E-09  4.45069E-09  4.43098E-09  4.40974E-09  4.38699E-09  4.36274E-09
   4.33703E-09  4.30987E-09  4.28131E-09  4.25137E-09  4.22008E-09  4.18748E-09  4.15360E-09  4.11849E-09  4.08218E-09  4.04472E-09
   4.00615E-09  3.96653E-09  3.92590E-09  3.88434E-09  3.84190E-09  3.79866E-09  3.75470E-09  3.71012E-09  3.66503E-09  3.61956E-09
   3.57387E-09  3.52815E-09  3.48264E-09  3.43766E-09  3.39358E-09  3.35094E-09  3.31045E-09  3.27311E-09  3.24038E-09  3.21445E-09
   3.19877E-09  3.19914E-09  3.22601E-09  3.30028E-09  3.47048E-09  3.87947E-09  5.15457E-09  9.28628E-09  1.37538E-08  1.67071E-08
   1.77855E-08  1.75728E-08  1.68999E-08  1.62755E-08  1.56110E-08  1.43636E-08  1.18953E-08  8.03881E-09  4.13620E-09  2.89661E-09
   2.40597E-09  2.12669E-09  1.93398E-09  1.78489E-09  1.66077E-09  1.55223E-09  1.45405E-09  1.36310E-09  1.27740E-09  1.19567E-09
   1.11699E-09  1.04077E-09  9.66528E-10  8.93967E-10  8.22834E-10  7.52942E-10  6.84172E-10  6.16418E-10  5.49596E-10  4.83659E-10
   4.18563E-10  3.54265E-10  2.90756E-10  2.28024E-10  1.66052E-10  1.04842E-10  4.43922E-11 -1.52766E-11 -7.41798E-11 -1.32302E-10
  -1.89628E-10 -2.46139E-10 -3.01829E-10 -3.56674E-10 -4.10675E-10 -4.63801E-10 -5.16027E-10 -5.67346E-10 -6.17744E-10 -6.67185E-10
  -7.15653E-10 -7.63128E-10 -8.09594E-10 -8.55032E-10 -8.99424E-10 -9.42720E-10 -9.84933E-10 -1.02603E-09 -1.06597E-09 -1.10475E-09
  -1.14234E-09 -1.17872E-09 -1.21386E-09 -1.24776E-09 -1.28037E-09 -1.31168E-09 -1.34166E-09 -1.37030E-09 -1.39756E-09 -1.42343E-09
  -1.44788E-09 -1.47089E-09 -1.49243E-09 -1.51253E-09 -1.53122E-09 -1.54854E-09 -1.56453E-09 -1.57922E-09 -1.59266E-09 -1.60489E-09
  -1.61595E-09 -1.62587E-09 -1.63469E-09 -1.64245E-09 -1.64919E-09 -1.65495E-09 -1.65977E-09 -1.66369E-09 -1.66674E-09 -1.66896E-09
  -1.67040E-09 -1.67109E-09 -1.67107E-09 -1.67038E-09 -1.66906E-09 -1.66714E-09 -1.66467E-09 -1.66168E-09 -1.65821E-09 -1.65430E-09
  -1.65000E-09 -1.64533E-09 -1.64034E-09 -1.63506E-09 -1.62954E-09 -1.62381E-09 -1.61791E-09 -1.61188E-09 -1.60576E-09 -1.59959E-09
  -1.59340E-09 -1.58724E-09 -1.58114E-09 -1.57515E-09 -1.56929E-09 -1.56361E-09 -1.55815E-09 -1.55294E-09 -1.54803E-09 -1.54346E-09
  -1.53925E-09 -1.53545E-09 -1.53210E-09 -1.52924E-09 -1.52691E-09 -1.52515E-09 -1.52398E-09 -1.52346E-09 -1.52361E-09 -1.52449E-09
  -1.52612E-09 -1.52855E-09 -1.53182E-09 -1.53593E-09 -1.54088E-09 -1.54664E-09 -1.55320E-09 -1.56053E-09 -1.56861E-09 -1.57743E-09
  -1.58697E-09 -1.59720E-09 -1.60810E-09 -1.61967E-09 -1.63186E-09 -1.64467E-09 -1.65808E-09 -1.67206E-09 -1.68660E-09 -1.70168E-09
  -1.71727E-09 -1.73335E-09 -1.74992E-09 -1.76694E-09 -1.78440E-09 -1.80227E-09 -1.82054E-09 -1.83919E-09 -1.85820E-09 -1.87754E-09
  -1.89720E-09 -1.91717E-09 -1.93740E-09 -1.95790E-09 -1.97864E-09 -1.99959E-09 -2.02074E-09 -2.04207E-09 -2.06356E-09 -2.08519E-09
  -2.10694E-09 -2.12878E-09 -2.15071E-09 -2.17269E-09 -2.19472E-09 -2.21677E-09 -2.23881E-09 -2.26084E-09 -2.28283E-09 -2.30475E-09
  -2.32660E-09 -2.34835E-09 -2.36998E-09 -2.39147E-09 -2.41279E-09 -2.43394E-09 -2.45490E-09 -2.47564E-09 -2.49613E-09 -2.51638E-09
  -2.53634E-09 -2.55600E-09 -2.57534E-09
 NY background values follow
    -1.302E-09   -1.246E-09   -1.190E-09   -1.134E-09   -1.079E-09   -1.023E-09   -9.678E-10   -9.125E-10   -8.572E-10   -8.020E-10
    -7.468E-10   -6.917E-10   -6.367E-10   -5.818E-10   -5.269E-10   -4.721E-10   -4.174E-10   -3.627E-10   -3.081E-10   -2.536E-10
    -1.991E-10   -1.448E-10   -9.045E-11   -3.620E-11    1.797E-11    7.207E-11    1.261E-10    1.801E-10    2.340E-10    2.878E-10
     3.416E-10    3.953E-10    4.489E-10    5.025E-10    5.560E-10    6.094E-10    6.628E-10    7.161E-10    7.693E-10    8.225E-10
     8.756E-10    9.286E-10    9.816E-10    1.034E-09    1.087E-09    1.140E-09    1.193E-09    1.245E-09    1.298E-09    1.351E-09
     1.403E-09    1.455E-09    1.508E-09    1.560E-09    1.612E-09    1.664E-09    1.716E-09    1.768E-09    1.820E-09    1.872E-09
     1.924E-09    1.976E-09    2.027E-09    2.079E-09    2.130E-09    2.182E-09    2.233E-09    2.284E-09    2.334E-09    2.384E-09
     2.434E-09    2.484E-09    2.533E-09    2.582E-09    2.630E-09    2.678E-09    2.725E-09    2.772E-09    2.818E-09    2.863E-09
     2.908E-09    2.953E-09    2.996E-09    3.039E-09    3.081E-09    3.122E-09    3.163E-09    3.202E-09    3.241E-09    3.279E-09
     3.316E-09    3.351E-09    3.386E-09    3.420E-09    3.453E-09    3.484E-09    3.515E-09    3.544E-09    3.572E-09    3.599E-09
     3.625E-09    3.649E-09    3.672E-09    3.694E-09    3.714E-09    3.733E-09    3.751E-09    3.767E-09    3.781E-09    3.794E-09
     3.806E-09    3.816E-09    3.824E-09    3.830E-09    3.835E-09    3.838E-09    3.840E-09    3.839E-09    3.837E-09    3.833E-09
     3.827E-09    3.819E-09    3.809E-09    3.798E-09    3.784E-09    3.769E-09    3.752E-09    3.733E-09    3.712E-09    3.690E-09
     3.666E-09    3.640E-09    3.613E-09    3.585E-09    3.554E-09    3.523E-09    3.489E-09    3.455E-09    3.419E-09    3.381E-09
     3.343E-09    3.302E-09    3.261E-09    3.219E-09    3.175E-09    3.130E-09    3.084E-09    3.037E-09    2.988E-09    2.939E-09
     2.889E-09    2.837E-09    2.785E-09    2.732E-09    2.678E-09    2.623E-09    2.567E-09    2.511E-09    2.453E-09    2.395E-09
     2.336E-09    2.277E-09    2.217E-09    2.156E-09    2.095E-09    2.033E-09    1.971E-09    1.909E-09    1.845E-09    1.782E-09
     1.718E-09    1.654E-09    1.589E-09    1.524E-09    1.459E-09    1.394E-09    1.328E-09    1.263E-09    1.197E-09    1.131E-09
     1.065E-09    9.995E-10    9.336E-10    8.678E-10    8.020E-10    7.363E-10    6.707E-10    6.053E-10    5.399E-10    4.748E-10
     4.099E-10    3.452E-10    2.808E-10    2.166E-10    1.527E-10    8.920E-11    2.602E-11   -3.680E-11   -9.922E-11   -1.612E-10
    -2.228E-10   -2.838E-10   -3.444E-10   -4.045E-10   -4.640E-10   -5.230E-10   -5.814E-10   -6.391E-10   -6.962E-10   -7.527E-10
    -8.085E-10   -8.635E-10   -9.179E-10   -9.714E-10   -1.024E-09   -1.076E-09   -1.127E-09   -1.178E-09   -1.227E-09   -1.276E-09
    -1.323E-09   -1.370E-09   -1.416E-09   -1.460E-09   -1.504E-09   -1.546E-09   -1.588E-09   -1.628E-09   -1.668E-09   -1.706E-09
    -1.743E-09   -1.779E-09   -1.813E-09   -1.847E-09   -1.879E-09   -1.910E-09   -1.939E-09   -1.967E-09   -1.994E-09   -2.019E-09
    -2.043E-09   -2.066E-09   -2.087E-09   -2.107E-09   -2.125E-09   -2.142E-09   -2.158E-09   -2.172E-09   -2.185E-09   -2.197E-09
    -2.208E-09   -2.217E-09   -2.226E-09   -2.233E-09   -2.239E-09   -2.245E-09   -2.249E-09   -2.253E-09   -2.256E-09   -2.258E-09
    -2.259E-09   -2.259E-09   -2.259E-09   -2.258E-09   -2.256E-09   -2.254E-09   -2.251E-09   -2.248E-09   -2.244E-09   -2.240E-09
    -2.235E-09   -2.230E-09   -2.225E-09   -2.220E-09   -2.214E-09   -2.208E-09   -2.202E-09   -2.195E-09   -2.189E-09   -2.183E-09
    -2.176E-09   -2.170E-09   -2.163E-09   -2.157E-09   -2.151E-09   -2.145E-09   -2.139E-09   -2.134E-09   -2.129E-09   -2.124E-09
    -2.120E-09   -2.115E-09   -2.112E-09   -2.109E-09   -2.106E-09   -2.104E-09   -2.103E-09   -2.102E-09   -2.102E-09   -2.103E-09
    -2.104E-09   -2.106E-09   -2.109E-09   -2.113E-09   -2.118E-09   -2.123E-09   -2.130E-09   -2.137E-09   -2.145E-09   -2.153E-09
    -2.162E-09   -2.172E-09   -2.183E-09   -2.194E-09   -2.206E-09   -2.219E-09   -2.232E-09   -2.246E-09   -2.260E-09   -2.275E-09
    -2.290E-09   -2.306E-09   -2.322E-09   -2.339E-09   -2.356E-09   -2.374E-09   -2.392E-09   -2.410E-09   -2.429E-09   -2.448E-09
    -2.468E-09   -2.487E-09   -2.507E-09   -2.528E-09   -2.548E-09   -2.569E-09   -2.590E-09   -2.611E-09   -2.632E-09   -2.653E-09
    -2.675E-09   -2.696E-09   -2.718E-09   -2.740E-09   -2.762E-09   -2.783E-09   -2.805E-09   -2.827E-09   -2.849E-09   -2.870E-09
    -2.892E-09   -2.913E-09   -2.935E-09   -2.956E-09   -2.977E-09   -2.998E-09   -3.019E-09   -3.039E-09   -3.059E-09   -3.079E-09
    -3.099E-09   -3.118E-09   -3.137E-09
 Asp      Conc. = 6.76E-10
  -5.86141E-10 -6.40742E-10 -6.72336E-10 -7.08919E-10 -7.29239E-10 -7.62400E-10 -7.86335E-10 -7.87713E-10 -7.59716E-10 -7.20282E-10
  -6.75178E-10 -6.26659E-10 -5.75769E-10 -5.23272E-10 -4.70282E-10 -4.16884E-10 -3.63080E-10 -3.08923E-10 -2.54470E-10 -1.99750E-10
  -1.44778E-10 -8.95599E-11 -3.40892E-11  2.16523E-11  7.76975E-11  1.34102E-10  1.90952E-10  2.48335E-10  3.06394E-10  3.65349E-10
   4.25481E-10  4.87263E-10  5.51415E-10  6.19198E-10  6.93141E-10  7.79201E-10  8.91591E-10  1.00404E-09  1.11957E-09  1.20683E-09
   1.26454E-09  1.31382E-09  1.39796E-09  1.54495E-09  1.75810E-09  2.01417E-09  2.18318E-09  2.24513E-09  2.32965E-09  2.43045E-09
   2.54130E-09  2.62492E-09  2.63724E-09  2.55039E-09  2.40708E-09  2.29284E-09  2.25760E-09  2.30157E-09  2.30231E-09  2.25559E-09
   2.25234E-09  2.26240E-09  2.27821E-09  2.32118E-09  2.36634E-09  2.38892E-09  2.39676E-09  2.42158E-09  2.45467E-09  2.49218E-09
   2.53230E-09  2.57407E-09  2.61689E-09  2.66035E-09  2.70419E-09  2.74819E-09  2.79219E-09  2.83607E-09  2.87973E-09  2.92307E-09
   2.96601E-09  3.00850E-09  3.05046E-09  3.09185E-09  3.13261E-09  3.17269E-09  3.21205E-09  3.25065E-09  3.28845E-09  3.32540E-09
   3.36146E-09  3.39661E-09  3.43079E-09  3.46399E-09  3.49615E-09  3.52726E-09  3.55726E-09  3.58613E-09  3.61384E-09  3.64035E-09
   3.66563E-09  3.68964E-09  3.71235E-09  3.73374E-09  3.75376E-09  3.77239E-09  3.78960E-09  3.80534E-09  3.81960E-09  3.83234E-09
   3.84352E-09  3.85312E-09  3.86110E-09  3.86743E-09  3.87209E-09  3.87503E-09  3.87624E-09  3.87566E-09  3.87329E-09  3.86907E-09
   3.86300E-09  3.85502E-09  3.84514E-09  3.83339E-09  3.81979E-09  3.80438E-09  3.78719E-09  3.76825E-09  3.74760E-09  3.72527E-09
   3.70128E-09  3.67568E-09  3.64848E-09  3.61974E-09  3.58948E-09  3.55772E-09  3.52451E-09  3.48988E-09  3.45386E-09  3.41648E-09
   3.37778E-09  3.33779E-09  3.29655E-09  3.25409E-09  3.21044E-09  3.16563E-09  3.11972E-09  3.07273E-09  3.02470E-09  2.97567E-09
   2.92570E-09  2.87480E-09  2.82305E-09  2.77049E-09  2.71719E-09  2.66322E-09  2.60866E-09  2.55364E-09  2.49831E-09  2.44288E-09
   2.38768E-09  2.33325E-09  2.28056E-09  2.23151E-09  2.19063E-09  2.17164E-09  2.23799E-09  2.54896E-09  2.87349E-09  3.06034E-09
   3.08621E-09  3.00515E-09  2.88854E-09  2.77719E-09  2.65990E-09  2.48784E-09  2.20665E-09  1.80817E-09  1.42078E-09  1.26469E-09
   1.16418E-09  1.08029E-09  1.00347E-09  9.30332E-10  8.59362E-10  7.89812E-10  7.21264E-10  6.53468E-10  5.86282E-10  5.19615E-10
   4.53403E-10  3.87627E-10  3.22255E-10  2.57297E-10  1.92742E-10  1.28589E-10  6.48634E-11  1.57207E-12 -6.12758E-11 -1.23654E-10
  -1.85547E-10 -2.46947E-10 -3.07825E-10 -3.68155E-10 -4.27927E-10 -4.87115E-10 -5.45700E-10 -6.03642E-10 -6.60942E-10 -7.17572E-10
  -7.73505E-10 -8.28713E-10 -8.83178E-10 -9.36872E-10 -9.89789E-10 -1.04189E-09 -1.09315E-09 -1.14355E-09 -1.19307E-09 -1.24168E-09
  -1.28936E-09 -1.33608E-09 -1.38182E-09 -1.42657E-09 -1.47030E-09 -1.51296E-09 -1.55455E-09 -1.59506E-09 -1.63443E-09 -1.67266E-09
  -1.70972E-09 -1.74559E-09 -1.78024E-09 -1.81365E-09 -1.84579E-09 -1.87664E-09 -1.90619E-09 -1.93439E-09 -1.96124E-09 -1.98670E-09
  -2.01075E-09 -2.03337E-09 -2.05453E-09 -2.07426E-09 -2.09258E-09 -2.10954E-09 -2.12518E-09 -2.13953E-09 -2.15264E-09 -2.16454E-09
  -2.17527E-09 -2.18487E-09 -2.19338E-09 -2.20083E-09 -2.20727E-09 -2.21273E-09 -2.21726E-09 -2.22088E-09 -2.22364E-09 -2.22558E-09
  -2.22674E-09 -2.22716E-09 -2.22686E-09 -2.22590E-09 -2.22431E-09 -2.22213E-09 -2.21939E-09 -2.21614E-09 -2.21242E-09 -2.20825E-09
  -2.20369E-09 -2.19877E-09 -2.19354E-09 -2.18801E-09 -2.18224E-09 -2.17627E-09 -2.17013E-09 -2.16386E-09 -2.15750E-09 -2.15109E-09
  -2.14467E-09 -2.13827E-09 -2.13194E-09 -2.12570E-09 -2.11961E-09 -2.11371E-09 -2.10801E-09 -2.10258E-09 -2.09744E-09 -2.09263E-09
  -2.08820E-09 -2.08417E-09 -2.08060E-09 -2.07751E-09 -2.07495E-09 -2.07296E-09 -2.07157E-09 -2.07083E-09 -2.07076E-09 -2.07141E-09
  -2.07282E-09 -2.07502E-09 -2.07806E-09 -2.08195E-09 -2.08668E-09 -2.09222E-09 -2.09855E-09 -2.10566E-09 -2.11352E-09 -2.12211E-09
  -2.13143E-09 -2.14143E-09 -2.15211E-09 -2.16345E-09 -2.17542E-09 -2.18801E-09 -2.20119E-09 -2.21494E-09 -2.22925E-09 -2.24410E-09
  -2.25947E-09 -2.27532E-09 -2.29166E-09 -2.30845E-09 -2.32568E-09 -2.34333E-09 -2.36137E-09 -2.37978E-09 -2.39856E-09 -2.41767E-09
  -2.43710E-09 -2.45683E-09 -2.47683E-09 -2.49709E-09 -2.51759E-09 -2.53830E-09 -2.55921E-09 -2.58031E-09 -2.60156E-09 -2.62294E-09
  -2.64445E-09 -2.66605E-09 -2.68773E-09 -2.70947E-09 -2.73126E-09 -2.75306E-09 -2.77485E-09 -2.79663E-09 -2.81836E-09 -2.84003E-09
  -2.86163E-09 -2.88312E-09 -2.90450E-09 -2.92573E-09 -2.94680E-09 -2.96769E-09 -2.98838E-09 -3.00885E-09 -3.02909E-09 -3.04907E-09
  -3.06876E-09 -3.08816E-09 -3.10723E-09
 Gln      Conc. = 3.08E-09
   1.78404E-09  2.35542E-09  2.87630E-09  3.25692E-09  3.44144E-09  3.42621E-09  3.22218E-09  2.85810E-09  2.42050E-09  1.96832E-09
   1.36382E-09  9.98494E-10  6.83184E-10  3.77286E-10  2.60253E-10  2.18922E-10  2.12276E-10  2.24684E-10  2.48932E-10  2.81109E-10
   3.18872E-10  3.60754E-10  4.05833E-10  4.53600E-10  5.03749E-10  5.55686E-10  6.08952E-10  6.63704E-10  7.19535E-10  7.76286E-10
   8.33966E-10  8.92617E-10  9.52271E-10  1.01297E-09  1.07481E-09  1.13789E-09  1.20231E-09  1.26822E-09  1.33578E-09  1.40543E-09
   1.47750E-09  1.55257E-09  1.63131E-09  1.71427E-09  1.80216E-09  1.89637E-09  1.99824E-09  2.10987E-09  2.23664E-09  2.38349E-09
   2.55697E-09  2.77404E-09  3.06575E-09  3.50086E-09  4.26954E-09  5.24355E-09  6.01559E-09  6.93108E-09  7.95996E-09  8.69869E-09
   9.08222E-09  9.21666E-09  9.06848E-09  8.62529E-09  7.91151E-09  7.05006E-09  6.30712E-09  5.59097E-09  4.74010E-09  4.30456E-09
   4.24036E-09  4.47053E-09  4.94692E-09  5.49964E-09  6.29698E-09  7.18646E-09  7.88303E-09  8.44610E-09  8.83801E-09  9.01433E-09
   8.96646E-09  8.63640E-09  8.07856E-09  7.56584E-09  6.97079E-09  6.20584E-09  5.68532E-09  5.28834E-09  4.87444E-09  4.61525E-09
   4.45922E-09  4.35928E-09  4.29387E-09  4.24933E-09  4.21802E-09  4.19739E-09  4.18471E-09  4.17758E-09  4.17496E-09  4.17562E-09
   4.17832E-09  4.18236E-09  4.18743E-09  4.19326E-09  4.19959E-09  4.20599E-09  4.21219E-09  4.21799E-09  4.22324E-09  4.22780E-09
   4.23153E-09  4.23432E-09  4.23607E-09  4.23669E-09  4.23609E-09  4.23420E-09  4.23094E-09  4.22624E-09  4.22005E-09  4.21230E-09
   4.20295E-09  4.19194E-09  4.17924E-09  4.16487E-09  4.14884E-09  4.13118E-09  4.11189E-09  4.09102E-09  4.06857E-09  4.04458E-09
   4.01907E-09  3.99206E-09  3.96359E-09  3.93368E-09  3.90237E-09  3.86967E-09  3.83563E-09  3.80028E-09  3.76365E-09  3.72578E-09
   3.68671E-09  3.64647E-09  3.60510E-09  3.56266E-09  3.51917E-09  3.47470E-09  3.42929E-09  3.38301E-09  3.33592E-09  3.28809E-09
   3.23962E-09  3.19058E-09  3.14111E-09  3.09136E-09  3.04151E-09  2.99178E-09  2.94249E-09  2.89407E-09  2.84711E-09  2.80253E-09
   2.76168E-09  2.72686E-09  2.70208E-09  2.69524E-09  2.72408E-09  2.83856E-09  3.24227E-09  4.76885E-09  6.50558E-09  7.68162E-09
   8.11402E-09  8.01299E-09  7.70693E-09  7.41179E-09  7.11102E-09  6.60170E-09  5.62993E-09  4.10035E-09  2.47951E-09  1.88971E-09
   1.64482E-09  1.49214E-09  1.37590E-09  1.27761E-09  1.18942E-09  1.10747E-09  1.02966E-09  9.54737E-10  8.81929E-10  8.10743E-10
   7.40833E-10  6.71989E-10  6.04039E-10  5.36888E-10  4.70449E-10  4.04664E-10  3.39513E-10  2.74967E-10  2.11006E-10  1.47636E-10
   8.48520E-11  2.26487E-11 -3.89567E-11 -9.99505E-11 -1.60330E-10 -2.20076E-10 -2.79176E-10 -3.37596E-10 -3.95341E-10 -4.52385E-10
  -5.08706E-10 -5.64278E-10 -6.19086E-10 -6.73104E-10 -7.26328E-10 -7.78719E-10 -8.30252E-10 -8.80915E-10 -9.30691E-10 -9.79542E-10
  -1.02745E-09 -1.07439E-09 -1.12034E-09 -1.16529E-09 -1.20922E-09 -1.25207E-09 -1.29385E-09 -1.33453E-09 -1.37408E-09 -1.41248E-09
