 LCModel (Version 6.3-1R) Copyright: S.W. Provencher.          Ref.: Magn. Reson. Med. 30:672-679 (1993).                
 onepulse 15x12_ftSpec_smooth_lcm
 26 lines in following concentration table = NCONC+1
    Conc.  %SD   /Cr    Metabolite                                         
 3.03E-10 100%   0.000 Ala                                                 
    0.000 999%   0.000 Asp                                                 
    0.000 999%   0.000 Cr                                                  
 7.80E-10  77%   0.000 GABA                                                
 2.33E-10 514%   0.000 Glc                                                 
 7.47E-10  90%   0.000 Gln                                                 
    0.000 999%   0.000 Glu                                                 
 2.71E-09  22%   0.000 Glyc                                                
    0.000 999%   0.000 GPC                                                 
 2.43E-09  22%   0.000 GSH                                                 
    0.000 999%   0.000 Ins                                                 
    0.000 999%   0.000 Lac                                                 
 2.82E-10 126%   0.000 NAAG                                                
 3.65E-10 143%   0.000 NAA                                                 
    0.000 999%   0.000 PCh                                                 
    0.000 999%   0.000 PCr                                                 
 3.89E-09  24%   0.000 PE                                                  
 6.26E-12 999%   0.000 Scyllo                                              
    0.000 999%   0.000 Ser                                                 
 1.02E-09 116%   0.000 Tau                                                 
    0.000 999%   0.000 GPC+PCh                                             
 6.46E-10  49%   0.000 NAA+NAAG                                            
 2.71E-09  22%   0.000 Ins+Glyc                                            
    0.000 999%   0.000 Cr+PCr                                              
 7.47E-10  90%   0.000 Glu+Gln                                             
   6 lines in following misc. output table
  FWHM = 0.123 ppm    S/N =   4                                            
  Data shift = 0.470 ppm                                                   
  Ph:  80 deg     -19.2 deg/ppm                                            
  alphaB,S = 5.5E-01,   2.0E+01                                            
   10 spline knots.   Ns = 5(1)                                            
  (12) 6 infls.   (11) 3 extrs.                                            
  363 points on ppm-axis = NY
      4.250000     4.238821     4.227641     4.216462     4.205282     4.194103     4.182923     4.171744     4.160564     4.149385
      4.138206     4.127026     4.115847     4.104667     4.093488     4.082308     4.071129     4.059949     4.048770     4.037591
      4.026411     4.015232     4.004052     3.992873     3.981693     3.970514     3.959334     3.948155     3.936975     3.925796
      3.914617     3.903437     3.892258     3.881078     3.869899     3.858719     3.847540     3.836360     3.825181     3.814002
      3.802822     3.791643     3.780463     3.769284     3.758104     3.746925     3.735745     3.724566     3.713387     3.702207
      3.691028     3.679848     3.668669     3.657489     3.646310     3.635130     3.623951     3.612772     3.601592     3.590413
      3.579233     3.568054     3.556874     3.545695     3.534515     3.523336     3.512156     3.500977     3.489798     3.478618
      3.467439     3.456259     3.445080     3.433900     3.422721     3.411541     3.400362     3.389183     3.378003     3.366824
      3.355644     3.344465     3.333285     3.322106     3.310926     3.299747     3.288568     3.277388     3.266209     3.255029
      3.243850     3.232670     3.221491     3.210311     3.199132     3.187953     3.176773     3.165594     3.154414     3.143235
      3.132055     3.120876     3.109696     3.098517     3.087337     3.076158     3.064979     3.053799     3.042620     3.031440
      3.020261     3.009081     2.997902     2.986722     2.975543     2.964364     2.953184     2.942005     2.930825     2.919646
      2.908466     2.897287     2.886107     2.874928     2.863749     2.852569     2.841390     2.830210     2.819031     2.807851
      2.796672     2.785492     2.774313     2.763134     2.751954     2.740775     2.729595     2.718416     2.707236     2.696057
      2.684877     2.673698     2.662519     2.651339     2.640160     2.628980     2.617801     2.606621     2.595442     2.584262
      2.573083     2.561903     2.550724     2.539545     2.528365     2.517186     2.506006     2.494827     2.483647     2.472468
      2.461288     2.450109     2.438930     2.427750     2.416571     2.405391     2.394212     2.383032     2.371853     2.360673
      2.349494     2.338315     2.327135     2.315956     2.304776     2.293597     2.282417     2.271238     2.260058     2.248879
      2.237700     2.226520     2.215341     2.204161     2.192982     2.181802     2.170623     2.159443     2.148264     2.137084
      2.125905     2.114726     2.103546     2.092367     2.081187     2.070008     2.058828     2.047649     2.036469     2.025290
      2.014111     2.002931     1.991752     1.980572     1.969393     1.958213     1.947034     1.935854     1.924675     1.913496
      1.902316     1.891137     1.879957     1.868778     1.857598     1.846419     1.835239     1.824060     1.812881     1.801701
      1.790522     1.779342     1.768163     1.756983     1.745804     1.734624     1.723445     1.712265     1.701086     1.689907
      1.678727     1.667548     1.656368     1.645189     1.634009     1.622830     1.611650     1.600471     1.589292     1.578112
      1.566933     1.555753     1.544574     1.533394     1.522215     1.511035     1.499856     1.488677     1.477497     1.466318
      1.455138     1.443959     1.432779     1.421600     1.410420     1.399241     1.388062     1.376882     1.365703     1.354523
      1.343344     1.332164     1.320985     1.309805     1.298626     1.287446     1.276267     1.265088     1.253908     1.242729
      1.231549     1.220370     1.209190     1.198011     1.186831     1.175652     1.164473     1.153293     1.142114     1.130934
      1.119755     1.108575     1.097396     1.086216     1.075037     1.063858     1.052678     1.041499     1.030319     1.019140
      1.007960     0.996781     0.985601     0.974422     0.963243     0.952063     0.940884     0.929704     0.918525     0.907345
      0.896166     0.884986     0.873807     0.862628     0.851448     0.840269     0.829089     0.817910     0.806730     0.795551
      0.784371     0.773192     0.762012     0.750833     0.739654     0.728474     0.717295     0.706115     0.694936     0.683756
      0.672577     0.661397     0.650218     0.639039     0.627859     0.616680     0.605500     0.594321     0.583141     0.571962
      0.560782     0.549603     0.538424     0.527244     0.516065     0.504885     0.493706     0.482526     0.471347     0.460167
      0.448988     0.437809     0.426629     0.415450     0.404270     0.393091     0.381911     0.370732     0.359552     0.348373
      0.337193     0.326014     0.314835     0.303655     0.292476     0.281296     0.270117     0.258937     0.247758     0.236578
      0.225399     0.214220     0.203040
 NY phased data points follow
   6.13030E-09  7.03130E-09  6.79779E-09  6.77793E-09  7.15218E-09  7.90451E-09  7.83006E-09  8.21107E-09  7.88386E-09  8.30841E-09
   7.70278E-09  7.42988E-09  6.87458E-09  7.48661E-09  6.79493E-09  8.95091E-09  8.46069E-09  9.06845E-09  7.22870E-09  6.86195E-09
   5.94383E-09  8.07117E-09  8.74163E-09  1.09346E-08  1.12722E-08  1.28362E-08  1.11200E-08  1.12826E-08  9.67296E-09  1.11566E-08
   9.19977E-09  1.04019E-08  9.63296E-09  9.63996E-09  8.87651E-09  1.01556E-08  8.37101E-09  8.82622E-09  7.04938E-09  8.11038E-09
   7.18844E-09  7.89077E-09  6.88207E-09  8.22927E-09  6.27218E-09  6.74833E-09  4.82793E-09  4.47002E-09  3.32038E-09  3.42023E-09
   1.44064E-09  1.08923E-09  1.03886E-09  5.60114E-09  7.84791E-09  1.06604E-08  8.90711E-09  1.05607E-08  9.30482E-09  1.00689E-08
   8.27416E-09  9.17048E-09  7.71173E-09  7.74297E-09  5.75698E-09  6.14933E-09  2.60375E-09  1.74462E-09 -9.88601E-10  2.07985E-09
   5.36443E-09  9.33816E-09  9.94756E-09  1.08031E-08  1.05782E-08  1.18440E-08  1.11479E-08  1.14045E-08  1.10012E-08  1.20081E-08
   1.15482E-08  1.22090E-08  1.16803E-08  1.22155E-08  1.09582E-08  1.23383E-08  1.07687E-08  1.13786E-08  1.03294E-08  1.07137E-08
   9.22893E-09  9.54375E-09  9.65971E-09  9.78797E-09  9.14325E-09  9.54510E-09  9.04745E-09  9.99436E-09  9.56809E-09  9.25955E-09
   8.21978E-09  7.53587E-09  5.80790E-09  7.30585E-09  6.84197E-09  6.95082E-09  6.10299E-09  7.61250E-09  6.71243E-09  6.86024E-09
   6.76768E-09  8.88149E-09  7.72275E-09  7.99130E-09  7.33537E-09  7.83325E-09  5.31684E-09  5.82598E-09  5.93357E-09  6.20175E-09
   4.65950E-09  5.50888E-09  5.05810E-09  5.95927E-09  4.87333E-09  5.95429E-09  5.14489E-09  5.27663E-09  3.41773E-09  3.58975E-09
   4.41693E-09  5.92758E-09  5.35947E-09  6.29071E-09  4.92564E-09  5.95140E-09  6.20661E-09  7.13858E-09  7.01625E-09  8.24386E-09
   7.49718E-09  8.28304E-09  7.63216E-09  8.10700E-09  7.82140E-09  8.06021E-09  7.55632E-09  8.34733E-09  7.90396E-09  8.18412E-09
   8.02794E-09  8.65249E-09  7.78490E-09  8.61077E-09  7.96428E-09  7.73465E-09  5.82157E-09  6.66221E-09  4.91044E-09  1.02376E-09
  -4.79488E-11  7.11603E-09  1.23129E-08  1.63991E-08  1.69514E-08  1.85802E-08  1.99687E-08  2.09763E-08  2.11341E-08  2.19821E-08
   2.20858E-08  2.29056E-08  2.28009E-08  2.43117E-08  2.29740E-08  2.38309E-08  2.29580E-08  2.24910E-08  2.10602E-08  2.01964E-08
   1.77628E-08  1.57228E-08  1.30393E-08  1.14096E-08  8.53825E-09  6.04269E-09  3.06070E-09  1.63418E-09 -1.51037E-09 -3.11906E-09
  -5.19561E-09 -5.03249E-09 -6.56586E-09 -6.30283E-09 -6.18932E-09 -5.21600E-09 -5.35721E-09 -4.59920E-09 -3.35057E-09 -2.60938E-09
  -2.64606E-09 -3.81757E-10 -1.77792E-09 -9.77509E-10 -1.27481E-09 -7.69053E-10 -1.55517E-09 -1.13695E-09 -1.32254E-09 -1.41979E-09
  -1.83692E-09 -7.24142E-10 -9.22100E-10 -4.08069E-10 -8.73791E-10 -1.33952E-10 -7.83387E-10 -2.63993E-10 -1.50789E-09 -1.10060E-09
  -1.44937E-09 -8.25342E-10 -1.06285E-09 -4.50382E-10 -1.30277E-09 -2.54416E-10 -7.10130E-10 -3.79930E-10 -4.96367E-10 -8.45287E-11
  -1.36951E-09 -1.53018E-09 -1.68105E-09 -1.09332E-09 -1.74875E-09 -1.61957E-09 -1.96084E-09 -9.29943E-10 -1.09561E-09 -9.35204E-10
  -1.21303E-09 -3.35321E-10 -1.18462E-09 -2.81812E-11 -8.43245E-10 -3.10141E-10 -6.16957E-10 -5.17785E-10 -9.00052E-10 -6.99856E-11
  -8.21380E-10 -1.06850E-09 -1.32107E-09 -1.37680E-09 -2.29996E-09 -1.81834E-09 -2.46384E-09 -2.33972E-09 -2.68805E-09 -2.61862E-09
  -2.77270E-09 -2.34546E-09 -2.39073E-09 -2.12082E-09 -2.08094E-09 -1.28015E-09 -1.35039E-09 -7.97282E-10 -1.19270E-09 -4.30534E-10
  -1.11503E-09 -3.22516E-10 -4.48137E-10 -4.04518E-10 -6.40304E-10 -4.33725E-10  7.00484E-11 -8.61842E-11 -6.62073E-10 -4.85431E-10
  -4.57636E-11 -2.19291E-10 -6.70692E-10 -2.04554E-10 -4.55125E-10 -4.74976E-10 -9.92676E-10 -4.18754E-10 -9.01380E-10 -7.96004E-10
  -7.68979E-10 -1.12323E-09 -1.27764E-09 -1.07819E-09 -1.09934E-09 -1.20535E-09 -1.71099E-09 -1.36258E-09 -1.97480E-09 -1.51030E-09
  -1.70966E-09 -1.87832E-09 -2.16198E-09 -1.96111E-09 -1.93194E-09 -2.30744E-09 -2.43777E-09 -2.51608E-09 -2.10890E-09 -2.46675E-09
  -2.42808E-09 -2.40255E-09 -2.56831E-09 -2.93953E-09 -3.21580E-09 -3.10798E-09 -2.69029E-09 -2.48108E-09 -2.77637E-09 -3.57665E-09
  -2.50917E-09 -2.96995E-09 -3.32455E-09 -2.84823E-09 -3.12186E-09 -3.32269E-09 -3.25685E-09 -3.12656E-09 -3.90213E-09 -3.48359E-09
  -3.70004E-09 -3.38289E-09 -3.82004E-09 -3.99697E-09 -3.90406E-09 -3.92595E-09 -3.68332E-09 -4.20216E-09 -4.91480E-09 -3.93715E-09
  -3.79960E-09 -4.22634E-09 -4.46285E-09 -3.94236E-09 -3.96140E-09 -4.13684E-09 -4.23391E-09 -4.36953E-09 -4.30029E-09 -4.69443E-09
  -4.59164E-09 -4.66134E-09 -4.22748E-09 -4.28740E-09 -5.11318E-09 -4.60131E-09 -4.97738E-09 -4.31489E-09 -5.10681E-09 -4.93576E-09
  -5.08159E-09 -4.68684E-09 -4.84356E-09
 NY points of the fit to the data follow
   8.44785E-09  7.57131E-09  7.26051E-09  6.69393E-09  6.69633E-09  6.82073E-09  7.06038E-09  7.69494E-09  8.25212E-09  8.72750E-09
   7.71915E-09  6.98345E-09  6.22107E-09  6.36401E-09  7.23091E-09  7.89743E-09  8.57122E-09  9.50255E-09  1.04319E-08  9.54127E-09
   6.38018E-09  6.70000E-09  7.89302E-09  9.38980E-09  1.00297E-08  1.07030E-08  1.11164E-08  1.09604E-08  1.12776E-08  1.19785E-08
   1.20790E-08  1.11140E-08  1.02168E-08  9.42001E-09  9.16087E-09  8.47543E-09  7.89690E-09  8.21120E-09  8.22618E-09  8.04898E-09
   7.90605E-09  8.10644E-09  8.40965E-09  8.11406E-09  7.23675E-09  5.95622E-09  5.48344E-09  4.16136E-09  3.45254E-09  3.48370E-09
   4.08728E-09  4.69048E-09  4.87712E-09  5.68464E-09  6.70074E-09  6.88847E-09  7.27997E-09  7.99013E-09  8.45711E-09  8.54476E-09
   8.42626E-09  8.00782E-09  8.07018E-09  8.00128E-09  7.09597E-09  6.78971E-09  7.03800E-09  6.70168E-09  6.30403E-09  6.71412E-09
   7.45769E-09  7.64378E-09  8.30198E-09  8.89156E-09  9.46053E-09  1.01874E-08  1.10179E-08  1.23152E-08  1.29490E-08  1.30044E-08
   1.26243E-08  1.23604E-08  1.22996E-08  1.17521E-08  1.14553E-08  1.12010E-08  1.05377E-08  9.39573E-09  8.03268E-09  7.51842E-09
   7.23082E-09  7.06175E-09  7.10879E-09  7.00414E-09  6.74113E-09  6.77499E-09  6.76130E-09  6.58330E-09  6.58260E-09  6.69306E-09
   6.95910E-09  6.96487E-09  6.93646E-09  7.23187E-09  7.41315E-09  7.45350E-09  7.47929E-09  7.52153E-09  7.59631E-09  7.63247E-09
   7.46315E-09  7.18593E-09  7.28168E-09  7.23363E-09  6.91451E-09  6.81407E-09  6.78093E-09  6.77188E-09  6.77356E-09  6.78050E-09
   6.78999E-09  6.80057E-09  6.81132E-09  6.82163E-09  6.83108E-09  6.83937E-09  6.84628E-09  6.85161E-09  6.85523E-09  6.85702E-09
   6.85687E-09  6.85470E-09  6.85044E-09  6.84404E-09  6.83543E-09  6.82457E-09  6.81141E-09  6.79591E-09  6.77804E-09  6.75779E-09
   6.73514E-09  6.71007E-09  6.68259E-09  6.65269E-09  6.62040E-09  6.58573E-09  6.54874E-09  6.50949E-09  6.46808E-09  6.42463E-09
   6.37929E-09  6.33232E-09  6.28399E-09  6.23475E-09  6.18517E-09  6.13605E-09  6.08858E-09  6.04455E-09  6.00672E-09  5.97931E-09
   5.96925E-09  5.98876E-09  6.06143E-09  6.23903E-09  6.65909E-09  7.81871E-09  1.23100E-08  2.04167E-08  2.39714E-08  2.36107E-08
   2.30223E-08  2.31541E-08  2.35643E-08  2.39038E-08  2.42620E-08  2.51959E-08  2.49835E-08  1.93627E-08  1.03510E-08  6.50565E-09
   5.23470E-09  4.59643E-09  4.18798E-09  3.88704E-09  3.64458E-09  3.43738E-09  3.25299E-09  3.08424E-09  2.92680E-09  2.77782E-09
   2.63543E-09  2.49837E-09  2.36573E-09  2.23693E-09  2.11148E-09  1.98911E-09  1.86958E-09  1.75277E-09  1.63856E-09  1.52693E-09
   1.41783E-09  1.31128E-09  1.20729E-09  1.10590E-09  1.00716E-09  9.11125E-10  8.17885E-10  7.27468E-10  6.39958E-10  5.55268E-10
   4.73334E-10  3.94078E-10  3.17439E-10  2.43340E-10  1.71725E-10  1.02522E-10  3.56800E-11 -2.88619E-11 -9.11733E-11 -1.51307E-10
  -2.09306E-10 -2.65245E-10 -3.19175E-10 -3.71146E-10 -4.21218E-10 -4.69441E-10 -5.15856E-10 -5.60545E-10 -6.03554E-10 -6.44910E-10
  -6.84681E-10 -7.22926E-10 -7.59681E-10 -7.95016E-10 -8.28967E-10 -8.61600E-10 -8.92959E-10 -9.23084E-10 -9.52039E-10 -9.79870E-10
  -1.00663E-09 -1.03236E-09 -1.05712E-09 -1.08096E-09 -1.10392E-09 -1.12606E-09 -1.14744E-09 -1.16810E-09 -1.18808E-09 -1.20742E-09
  -1.22620E-09 -1.24446E-09 -1.26225E-09 -1.27960E-09 -1.29660E-09 -1.31325E-09 -1.32964E-09 -1.34579E-09 -1.36178E-09 -1.37764E-09
  -1.39340E-09 -1.40910E-09 -1.42474E-09 -1.44034E-09 -1.45593E-09 -1.47152E-09 -1.48713E-09 -1.50279E-09 -1.51850E-09 -1.53430E-09
  -1.55019E-09 -1.56620E-09 -1.58234E-09 -1.59863E-09 -1.61510E-09 -1.63175E-09 -1.64862E-09 -1.66572E-09 -1.68306E-09 -1.70067E-09
  -1.71855E-09 -1.73675E-09 -1.75526E-09 -1.77411E-09 -1.79332E-09 -1.81291E-09 -1.83289E-09 -1.85328E-09 -1.87411E-09 -1.89539E-09
  -1.91714E-09 -1.93938E-09 -1.96212E-09 -1.98538E-09 -2.00919E-09 -2.03357E-09 -2.05852E-09 -2.08406E-09 -2.11023E-09 -2.13703E-09
  -2.16449E-09 -2.19261E-09 -2.22143E-09 -2.25095E-09 -2.28120E-09 -2.31220E-09 -2.34396E-09 -2.37650E-09 -2.40984E-09 -2.44400E-09
  -2.47900E-09 -2.51485E-09 -2.55155E-09 -2.58906E-09 -2.62737E-09 -2.66646E-09 -2.70629E-09 -2.74686E-09 -2.78812E-09 -2.83007E-09
  -2.87267E-09 -2.91591E-09 -2.95976E-09 -3.00419E-09 -3.04919E-09 -3.09473E-09 -3.14078E-09 -3.18733E-09 -3.23435E-09 -3.28182E-09
  -3.32971E-09 -3.37800E-09 -3.42667E-09 -3.47569E-09 -3.52505E-09 -3.57470E-09 -3.62465E-09 -3.67486E-09 -3.72530E-09 -3.77596E-09
  -3.82681E-09 -3.87783E-09 -3.92899E-09 -3.98027E-09 -4.03166E-09 -4.08311E-09 -4.13462E-09 -4.18616E-09 -4.23771E-09 -4.28923E-09
  -4.34072E-09 -4.39213E-09 -4.44347E-09 -4.49469E-09 -4.54578E-09 -4.59671E-09 -4.64747E-09 -4.69801E-09 -4.74834E-09 -4.79841E-09
  -4.84822E-09 -4.89772E-09 -4.94691E-09
 NY background values follow
    -7.864E-09   -7.730E-09   -7.596E-09   -7.461E-09   -7.326E-09   -7.192E-09   -7.057E-09   -6.922E-09   -6.787E-09   -6.652E-09
    -6.517E-09   -6.382E-09   -6.247E-09   -6.112E-09   -5.977E-09   -5.842E-09   -5.707E-09   -5.572E-09   -5.437E-09   -5.302E-09
    -5.167E-09   -5.032E-09   -4.897E-09   -4.763E-09   -4.628E-09   -4.494E-09   -4.359E-09   -4.225E-09   -4.091E-09   -3.957E-09
    -3.823E-09   -3.690E-09   -3.556E-09   -3.423E-09   -3.290E-09   -3.157E-09   -3.024E-09   -2.891E-09   -2.759E-09   -2.627E-09
    -2.495E-09   -2.364E-09   -2.232E-09   -2.101E-09   -1.970E-09   -1.840E-09   -1.709E-09   -1.579E-09   -1.450E-09   -1.320E-09
    -1.191E-09   -1.063E-09   -9.344E-10   -8.064E-10   -6.789E-10   -5.517E-10   -4.250E-10   -2.988E-10   -1.730E-10   -4.786E-11
     7.674E-11    2.007E-10    3.241E-10    4.468E-10    5.688E-10    6.901E-10    8.106E-10    9.304E-10    1.049E-09    1.167E-09
     1.285E-09    1.401E-09    1.516E-09    1.631E-09    1.744E-09    1.856E-09    1.968E-09    2.078E-09    2.187E-09    2.295E-09
     2.402E-09    2.507E-09    2.611E-09    2.714E-09    2.816E-09    2.916E-09    3.015E-09    3.113E-09    3.209E-09    3.304E-09
     3.397E-09    3.489E-09    3.579E-09    3.667E-09    3.754E-09    3.840E-09    3.923E-09    4.005E-09    4.085E-09    4.164E-09
     4.240E-09    4.315E-09    4.388E-09    4.459E-09    4.528E-09    4.595E-09    4.661E-09    4.724E-09    4.785E-09    4.844E-09
     4.901E-09    4.956E-09    5.009E-09    5.060E-09    5.108E-09    5.154E-09    5.198E-09    5.240E-09    5.279E-09    5.317E-09
     5.351E-09    5.384E-09    5.414E-09    5.441E-09    5.466E-09    5.489E-09    5.509E-09    5.527E-09    5.542E-09    5.554E-09
     5.564E-09    5.571E-09    5.576E-09    5.578E-09    5.577E-09    5.573E-09    5.567E-09    5.558E-09    5.546E-09    5.531E-09
     5.513E-09    5.493E-09    5.469E-09    5.443E-09    5.413E-09    5.381E-09    5.345E-09    5.307E-09    5.265E-09    5.220E-09
     5.172E-09    5.121E-09    5.067E-09    5.009E-09    4.949E-09    4.885E-09    4.817E-09    4.747E-09    4.673E-09    4.597E-09
     4.517E-09    4.435E-09    4.350E-09    4.263E-09    4.173E-09    4.081E-09    3.987E-09    3.891E-09    3.793E-09    3.692E-09
     3.591E-09    3.487E-09    3.383E-09    3.276E-09    3.169E-09    3.060E-09    2.950E-09    2.840E-09    2.728E-09    2.616E-09
     2.504E-09    2.391E-09    2.277E-09    2.163E-09    2.050E-09    1.936E-09    1.822E-09    1.709E-09    1.595E-09    1.483E-09
     1.371E-09    1.259E-09    1.148E-09    1.039E-09    9.299E-10    8.223E-10    7.160E-10    6.110E-10    5.075E-10    4.056E-10
     3.055E-10    2.071E-10    1.107E-10    1.634E-11   -7.586E-11   -1.658E-10   -2.533E-10   -3.383E-10   -4.207E-10   -5.006E-10
    -5.779E-10   -6.529E-10   -7.254E-10   -7.955E-10   -8.633E-10   -9.289E-10   -9.923E-10   -1.053E-09   -1.113E-09   -1.170E-09
    -1.225E-09   -1.278E-09   -1.329E-09   -1.378E-09   -1.425E-09   -1.471E-09   -1.515E-09   -1.557E-09   -1.598E-09   -1.637E-09
    -1.675E-09   -1.711E-09   -1.745E-09   -1.779E-09   -1.811E-09   -1.841E-09   -1.871E-09   -1.899E-09   -1.926E-09   -1.952E-09
    -1.977E-09   -2.001E-09   -2.024E-09   -2.046E-09   -2.067E-09   -2.088E-09   -2.108E-09   -2.127E-09   -2.145E-09   -2.163E-09
    -2.180E-09   -2.197E-09   -2.213E-09   -2.229E-09   -2.245E-09   -2.260E-09   -2.275E-09   -2.290E-09   -2.305E-09   -2.319E-09
    -2.334E-09   -2.348E-09   -2.363E-09   -2.377E-09   -2.391E-09   -2.406E-09   -2.420E-09   -2.435E-09   -2.449E-09   -2.464E-09
    -2.479E-09   -2.493E-09   -2.508E-09   -2.524E-09   -2.539E-09   -2.555E-09   -2.570E-09   -2.586E-09   -2.603E-09   -2.619E-09
    -2.636E-09   -2.653E-09   -2.671E-09   -2.689E-09   -2.707E-09   -2.726E-09   -2.745E-09   -2.764E-09   -2.784E-09   -2.804E-09
    -2.825E-09   -2.846E-09   -2.868E-09   -2.891E-09   -2.913E-09   -2.937E-09   -2.961E-09   -2.986E-09   -3.011E-09   -3.037E-09
    -3.064E-09   -3.091E-09   -3.119E-09   -3.147E-09   -3.177E-09   -3.207E-09   -3.238E-09   -3.270E-09   -3.302E-09   -3.336E-09
    -3.370E-09   -3.405E-09   -3.441E-09   -3.478E-09   -3.515E-09   -3.553E-09   -3.592E-09   -3.632E-09   -3.673E-09   -3.714E-09
    -3.756E-09   -3.798E-09   -3.841E-09   -3.885E-09   -3.929E-09   -3.974E-09   -4.020E-09   -4.065E-09   -4.112E-09   -4.158E-09
    -4.206E-09   -4.253E-09   -4.301E-09   -4.349E-09   -4.398E-09   -4.447E-09   -4.496E-09   -4.546E-09   -4.596E-09   -4.646E-09
    -4.696E-09   -4.746E-09   -4.797E-09   -4.847E-09   -4.898E-09   -4.949E-09   -5.000E-09   -5.050E-09   -5.101E-09   -5.152E-09
    -5.203E-09   -5.254E-09   -5.305E-09   -5.355E-09   -5.406E-09   -5.456E-09   -5.506E-09   -5.556E-09   -5.605E-09   -5.655E-09
    -5.704E-09   -5.753E-09   -5.802E-09
 Ala      Conc. = 3.03E-10
  -7.66366E-09 -7.51199E-09 -7.37454E-09 -7.22723E-09 -7.09250E-09 -6.95400E-09 -6.80590E-09 -6.70888E-09 -6.61209E-09 -6.45199E-09
  -6.34327E-09 -6.26270E-09 -6.13197E-09 -6.00874E-09 -5.89697E-09 -5.77612E-09 -5.65056E-09 -5.52232E-09 -5.39248E-09 -5.26155E-09
  -5.12991E-09 -4.99777E-09 -4.86524E-09 -4.73246E-09 -4.59954E-09 -4.46648E-09 -4.33338E-09 -4.20024E-09 -4.06712E-09 -3.93403E-09
  -3.80096E-09 -3.66804E-09 -3.53518E-09 -3.40244E-09 -3.26984E-09 -3.13739E-09 -3.00511E-09 -2.87297E-09 -2.74105E-09 -2.60937E-09
  -2.47783E-09 -2.34651E-09 -2.21546E-09 -2.08466E-09 -1.95409E-09 -1.82381E-09 -1.69378E-09 -1.56405E-09 -1.43463E-09 -1.30554E-09
  -1.17671E-09 -1.04822E-09 -9.20050E-10 -7.92255E-10 -6.64852E-10 -5.37853E-10 -4.11299E-10 -2.85216E-10 -1.59641E-10 -3.45962E-11
   8.98765E-11  2.13754E-10  3.37011E-10  4.59605E-10  5.81501E-10  7.02696E-10  8.23136E-10  9.42804E-10  1.06166E-09  1.17967E-09
   1.29682E-09  1.41308E-09  1.52841E-09  1.64278E-09  1.75617E-09  1.86856E-09  1.97990E-09  2.09017E-09  2.19938E-09  2.30746E-09
   2.41440E-09  2.52017E-09  2.62480E-09  2.72821E-09  2.83041E-09  2.93142E-09  3.03121E-09  3.12983E-09  3.22729E-09  3.32363E-09
   3.41897E-09  3.51343E-09  3.60729E-09  3.70090E-09  3.79498E-09  3.89079E-09  3.99084E-09  4.10085E-09  4.23694E-09  4.46217E-09
   4.86942E-09  4.97521E-09  5.02926E-09  5.39710E-09  5.63843E-09  5.72961E-09  5.79956E-09  5.88056E-09  5.99016E-09  6.05762E-09
   5.91659E-09  5.66535E-09  5.78499E-09  5.75905E-09  5.46046E-09  5.37905E-09  5.36361E-09  5.37114E-09  5.38839E-09  5.40998E-09
   5.43331E-09  5.45694E-09  5.48003E-09  5.50203E-09  5.52256E-09  5.54136E-09  5.55825E-09  5.57307E-09  5.58571E-09  5.59607E-09
   5.60407E-09  5.60965E-09  5.61274E-09  5.61330E-09  5.61127E-09  5.60660E-09  5.59927E-09  5.58923E-09  5.57645E-09  5.56088E-09
   5.54250E-09  5.52127E-09  5.49717E-09  5.47016E-09  5.44022E-09  5.40730E-09  5.37140E-09  5.33247E-09  5.29050E-09  5.24545E-09
   5.19730E-09  5.14605E-09  5.09164E-09  5.03408E-09  4.97335E-09  4.90943E-09  4.84234E-09  4.77219E-09  4.69916E-09  4.62344E-09
   4.54529E-09  4.46507E-09  4.38340E-09  4.30143E-09  4.22201E-09  4.15438E-09  4.14622E-09  4.29914E-09  4.28697E-09  4.16577E-09
   4.04924E-09  3.95374E-09  3.86240E-09  3.76866E-09  3.66874E-09  3.58892E-09  3.49729E-09  3.26777E-09  2.88333E-09  2.70013E-09
   2.56303E-09  2.43809E-09  2.31775E-09  2.19960E-09  2.08266E-09  1.96655E-09  1.85108E-09  1.73618E-09  1.62190E-09  1.50827E-09
   1.39534E-09  1.28322E-09  1.17197E-09  1.06173E-09  9.52546E-10  8.44560E-10  7.37862E-10  6.32581E-10  5.28793E-10  4.26636E-10
   3.26213E-10  2.27631E-10  1.31010E-10  3.64506E-11 -5.59267E-11 -1.46017E-10 -2.33679E-10 -3.18851E-10 -4.01410E-10 -4.81417E-10
  -5.58909E-10 -6.33942E-10 -7.06558E-10 -7.76817E-10 -8.44759E-10 -9.10442E-10 -9.73906E-10 -1.03520E-09 -1.09439E-09 -1.15151E-09
  -1.20660E-09 -1.25972E-09 -1.31093E-09 -1.36027E-09 -1.40778E-09 -1.45352E-09 -1.49752E-09 -1.53987E-09 -1.58060E-09 -1.61973E-09
  -1.65733E-09 -1.69346E-09 -1.72815E-09 -1.76147E-09 -1.79345E-09 -1.82416E-09 -1.85363E-09 -1.88191E-09 -1.90906E-09 -1.93512E-09
  -1.96014E-09 -1.98417E-09 -2.00726E-09 -2.02946E-09 -2.05081E-09 -2.07137E-09 -2.09119E-09 -2.11032E-09 -2.12879E-09 -2.14665E-09
  -2.16398E-09 -2.18081E-09 -2.19718E-09 -2.21314E-09 -2.22877E-09 -2.24408E-09 -2.25913E-09 -2.27398E-09 -2.28867E-09 -2.30326E-09
  -2.31776E-09 -2.33221E-09 -2.34662E-09 -2.36102E-09 -2.37541E-09 -2.38982E-09 -2.40427E-09 -2.41878E-09 -2.43335E-09 -2.44802E-09
  -2.46280E-09 -2.47771E-09 -2.49276E-09 -2.50798E-09 -2.52339E-09 -2.53899E-09 -2.55482E-09 -2.57089E-09 -2.58721E-09 -2.60381E-09
  -2.62070E-09 -2.63791E-09 -2.65544E-09 -2.67332E-09 -2.69157E-09 -2.71021E-09 -2.72925E-09 -2.74871E-09 -2.76862E-09 -2.78898E-09
  -2.80982E-09 -2.83116E-09 -2.85301E-09 -2.87539E-09 -2.89832E-09 -2.92182E-09 -2.94591E-09 -2.97060E-09 -2.99592E-09 -3.02188E-09
  -3.04850E-09 -3.07579E-09 -3.10379E-09 -3.13249E-09 -3.16193E-09 -3.19213E-09 -3.22309E-09 -3.25483E-09 -3.28739E-09 -3.32077E-09
  -3.35499E-09 -3.39007E-09 -3.42600E-09 -3.46275E-09 -3.50030E-09 -3.53864E-09 -3.57772E-09 -3.61754E-09 -3.65807E-09 -3.69928E-09
  -3.74116E-09 -3.78366E-09 -3.82679E-09 -3.87051E-09 -3.91479E-09 -3.95962E-09 -4.00497E-09 -4.05081E-09 -4.09713E-09 -4.14390E-09
  -4.19110E-09 -4.23871E-09 -4.28669E-09 -4.33503E-09 -4.38370E-09 -4.43268E-09 -4.48196E-09 -4.53149E-09 -4.58127E-09 -4.63126E-09
  -4.68145E-09 -4.73181E-09 -4.78231E-09 -4.83294E-09 -4.88367E-09 -4.93447E-09 -4.98533E-09 -5.03622E-09 -5.08712E-09 -5.13800E-09
  -5.18885E-09 -5.23963E-09 -5.29032E-09 -5.34091E-09 -5.39136E-09 -5.44166E-09 -5.49179E-09 -5.54170E-09 -5.59140E-09 -5.64085E-09
  -5.69002E-09 -5.73890E-09 -5.78747E-09
 GABA     Conc. = 7.80E-10
  -7.83620E-09 -7.70158E-09 -7.56683E-09 -7.43194E-09 -7.29691E-09 -7.16176E-09 -7.02648E-09 -6.89107E-09 -6.75553E-09 -6.61980E-09
  -6.48397E-09 -6.34797E-09 -6.21170E-09 -6.07532E-09 -5.93859E-09 -5.80155E-09 -5.66437E-09 -5.52658E-09 -5.38817E-09 -5.24920E-09
  -5.10921E-09 -4.96783E-09 -4.82461E-09 -4.67869E-09 -4.52872E-09 -4.37248E-09 -4.20500E-09 -4.01534E-09 -3.77267E-09 -3.37810E-09
  -3.16439E-09 -3.02415E-09 -2.47384E-09 -2.06926E-09 -1.97148E-09 -1.68780E-09 -1.38010E-09 -1.16103E-09 -1.00651E-09 -9.95031E-10
  -1.07750E-09 -8.77596E-10 -8.18016E-10 -1.17279E-09 -1.19671E-09 -1.06678E-09 -1.17638E-09 -1.20433E-09 -1.15339E-09 -1.07010E-09
  -9.69671E-10 -8.59507E-10 -7.42873E-10 -6.20821E-10 -4.94157E-10 -3.63184E-10 -2.27082E-10 -8.42545E-11  6.87521E-11  2.40042E-10
   4.48572E-10  7.55795E-10  1.14110E-09  1.27953E-09  1.53942E-09  2.04806E-09  2.23499E-09  2.30712E-09  2.52514E-09  2.72226E-09
   2.86815E-09  2.92595E-09  2.81931E-09  2.73846E-09  2.89356E-09  2.73602E-09  2.45687E-09  2.56561E-09  2.62414E-09  2.63824E-09
   2.79831E-09  2.84499E-09  2.95225E-09  3.31043E-09  3.47520E-09  3.55672E-09  3.84180E-09  4.05474E-09  4.19949E-09  4.38548E-09
   4.46160E-09  4.52178E-09  4.73565E-09  4.75448E-09  4.60018E-09  4.72497E-09  4.77792E-09  4.63823E-09  4.64185E-09  4.67498E-09
   4.66284E-09  4.67491E-09  4.70351E-09  4.74137E-09  4.78466E-09  4.83086E-09  4.87870E-09  4.92731E-09  4.97607E-09  5.02460E-09
   5.07254E-09  5.11936E-09  5.16492E-09  5.20905E-09  5.25161E-09  5.29261E-09  5.33191E-09  5.36935E-09  5.40486E-09  5.43836E-09
   5.46978E-09  5.49909E-09  5.52624E-09  5.55116E-09  5.57382E-09  5.59416E-09  5.61215E-09  5.62773E-09  5.64089E-09  5.65158E-09
   5.65976E-09  5.66540E-09  5.66846E-09  5.66893E-09  5.66675E-09  5.66191E-09  5.65437E-09  5.64410E-09  5.63107E-09  5.61525E-09
   5.59661E-09  5.57514E-09  5.55080E-09  5.52356E-09  5.49339E-09  5.46027E-09  5.42419E-09  5.38511E-09  5.34302E-09  5.29789E-09
   5.24971E-09  5.19847E-09  5.14415E-09  5.08676E-09  5.02630E-09  4.96280E-09  4.89629E-09  4.82696E-09  4.75508E-09  4.68096E-09
   4.60510E-09  4.52823E-09  4.45170E-09  4.37818E-09  4.31422E-09  4.28078E-09  4.38033E-09  4.93561E-09  5.08606E-09  4.93693E-09
   4.79195E-09  4.70540E-09  4.63410E-09  4.56026E-09  4.46882E-09  4.43084E-09  4.38137E-09  3.99669E-09  3.16309E-09  2.84569E-09
   2.66617E-09  2.52175E-09  2.39048E-09  2.26541E-09  2.14372E-09  2.02417E-09  1.90609E-09  1.78915E-09  1.67323E-09  1.55825E-09
   1.44419E-09  1.33110E-09  1.21902E-09  1.10805E-09  9.98225E-10  8.89665E-10  7.82451E-10  6.76703E-10  5.72487E-10  4.69939E-10
   3.69154E-10  2.70236E-10  1.73301E-10  7.84489E-11 -1.42039E-11 -1.04553E-10 -1.92461E-10 -2.77866E-10 -3.60647E-10 -4.40864E-10
  -5.18558E-10 -5.93784E-10 -6.66586E-10 -7.37023E-10 -8.05135E-10 -8.70983E-10 -9.34606E-10 -9.96053E-10 -1.05539E-09 -1.11265E-09
  -1.16788E-09 -1.22114E-09 -1.27248E-09 -1.32195E-09 -1.36959E-09 -1.41545E-09 -1.45957E-09 -1.50203E-09 -1.54287E-09 -1.58211E-09
