 LCModel (Version 6.3-1R) Copyright: S.W. Provencher.          Ref.: Magn. Reson. Med. 30:672-679 (1993).                
 onepulse 15x14_ftSpec_smooth_lcm
 26 lines in following concentration table = NCONC+1
    Conc.  %SD /Cr+PCr  Metabolite                                         
    0.000 999%   0.000 Ala                                                 
 6.40E-10 117%   1.713 Asp                                                 
    0.000 999%   0.000 Cr                                                  
    0.000 999%   0.000 GABA                                                
    0.000 999%   0.000 Glc                                                 
 3.49E-09  16%   9.350 Gln                                                 
    0.000 999%   0.000 Glu                                                 
 1.12E-10 999%   0.301 Glyc                                                
    0.000 999%   0.000 GPC                                                 
    0.000 999%   0.000 GSH                                                 
 7.77E-10 191%   2.082 Ins                                                 
    0.000 999%   0.000 Lac                                                 
 2.70E-10 115%   0.722 NAAG                                                
 3.26E-11 999% 8.7E-02 NAA                                                 
    0.000 999%   0.000 PCh                                                 
 3.73E-10  68%   1.000 PCr                                                 
 9.69E-10  75%   2.596 PE                                                  
    0.000 999%   0.000 Scyllo                                              
 6.91E-10 107%   1.849 Ser                                                 
 1.13E-09  38%   3.036 Tau                                                 
    0.000 999%   0.000 GPC+PCh                                             
 3.02E-10  84%   0.809 NAA+NAAG                                            
 8.90E-10  39%   2.383 Ins+Glyc                                            
 3.73E-10  68%   1.000 Cr+PCr                                              
 3.49E-09  16%   9.350 Glu+Gln                                             
   6 lines in following misc. output table
  FWHM = 0.101 ppm    S/N =   3                                            
  Data shift = 0.369 ppm                                                   
  Ph: -51 deg     -42.4 deg/ppm                                            
  alphaB,S = 1.7E-01,   2.1E+01                                            
   16 spline knots.   Ns = 5(1)                                            
  ( 9) 4 infls.   ( 9) 3 extrs.                                            
  363 points on ppm-axis = NY
      4.250000     4.238821     4.227641     4.216462     4.205282     4.194103     4.182923     4.171744     4.160564     4.149385
      4.138206     4.127026     4.115847     4.104667     4.093488     4.082308     4.071129     4.059949     4.048770     4.037591
      4.026411     4.015232     4.004052     3.992873     3.981693     3.970514     3.959334     3.948155     3.936975     3.925796
      3.914617     3.903437     3.892258     3.881078     3.869899     3.858719     3.847540     3.836360     3.825181     3.814002
      3.802822     3.791643     3.780463     3.769284     3.758104     3.746925     3.735745     3.724566     3.713387     3.702207
      3.691028     3.679848     3.668669     3.657489     3.646310     3.635130     3.623951     3.612772     3.601592     3.590413
      3.579233     3.568054     3.556874     3.545695     3.534515     3.523336     3.512156     3.500977     3.489798     3.478618
      3.467439     3.456259     3.445080     3.433900     3.422721     3.411541     3.400362     3.389183     3.378003     3.366824
      3.355644     3.344465     3.333285     3.322106     3.310926     3.299747     3.288568     3.277388     3.266209     3.255029
      3.243850     3.232670     3.221491     3.210311     3.199132     3.187953     3.176773     3.165594     3.154414     3.143235
      3.132055     3.120876     3.109696     3.098517     3.087337     3.076158     3.064979     3.053799     3.042620     3.031440
      3.020261     3.009081     2.997902     2.986722     2.975543     2.964364     2.953184     2.942005     2.930825     2.919646
      2.908466     2.897287     2.886107     2.874928     2.863749     2.852569     2.841390     2.830210     2.819031     2.807851
      2.796672     2.785492     2.774313     2.763134     2.751954     2.740775     2.729595     2.718416     2.707236     2.696057
      2.684877     2.673698     2.662519     2.651339     2.640160     2.628980     2.617801     2.606621     2.595442     2.584262
      2.573083     2.561903     2.550724     2.539545     2.528365     2.517186     2.506006     2.494827     2.483647     2.472468
      2.461288     2.450109     2.438930     2.427750     2.416571     2.405391     2.394212     2.383032     2.371853     2.360673
      2.349494     2.338315     2.327135     2.315956     2.304776     2.293597     2.282417     2.271238     2.260058     2.248879
      2.237700     2.226520     2.215341     2.204161     2.192982     2.181802     2.170623     2.159443     2.148264     2.137084
      2.125905     2.114726     2.103546     2.092367     2.081187     2.070008     2.058828     2.047649     2.036469     2.025290
      2.014111     2.002931     1.991752     1.980572     1.969393     1.958213     1.947034     1.935854     1.924675     1.913496
      1.902316     1.891137     1.879957     1.868778     1.857598     1.846419     1.835239     1.824060     1.812881     1.801701
      1.790522     1.779342     1.768163     1.756983     1.745804     1.734624     1.723445     1.712265     1.701086     1.689907
      1.678727     1.667548     1.656368     1.645189     1.634009     1.622830     1.611650     1.600471     1.589292     1.578112
      1.566933     1.555753     1.544574     1.533394     1.522215     1.511035     1.499856     1.488677     1.477497     1.466318
      1.455138     1.443959     1.432779     1.421600     1.410420     1.399241     1.388062     1.376882     1.365703     1.354523
      1.343344     1.332164     1.320985     1.309805     1.298626     1.287446     1.276267     1.265088     1.253908     1.242729
      1.231549     1.220370     1.209190     1.198011     1.186831     1.175652     1.164473     1.153293     1.142114     1.130934
      1.119755     1.108575     1.097396     1.086216     1.075037     1.063858     1.052678     1.041499     1.030319     1.019140
      1.007960     0.996781     0.985601     0.974422     0.963243     0.952063     0.940884     0.929704     0.918525     0.907345
      0.896166     0.884986     0.873807     0.862628     0.851448     0.840269     0.829089     0.817910     0.806730     0.795551
      0.784371     0.773192     0.762012     0.750833     0.739654     0.728474     0.717295     0.706115     0.694936     0.683756
      0.672577     0.661397     0.650218     0.639039     0.627859     0.616680     0.605500     0.594321     0.583141     0.571962
      0.560782     0.549603     0.538424     0.527244     0.516065     0.504885     0.493706     0.482526     0.471347     0.460167
      0.448988     0.437809     0.426629     0.415450     0.404270     0.393091     0.381911     0.370732     0.359552     0.348373
      0.337193     0.326014     0.314835     0.303655     0.292476     0.281296     0.270117     0.258937     0.247758     0.236578
      0.225399     0.214220     0.203040
 NY phased data points follow
   8.35244E-09  8.75483E-09  4.94728E-09  7.35198E-09  4.16521E-09  6.89259E-09  4.01110E-09  7.67191E-09  4.78853E-09  8.14872E-09
   5.62012E-09  8.60060E-09  5.64415E-09  8.54049E-09  5.70321E-09  7.92470E-09  4.80069E-09  7.98730E-09  4.76431E-09  7.30278E-09
   5.08454E-09  8.22262E-09  6.22946E-09  9.38074E-09  5.84169E-09  7.67940E-09  4.99385E-09  7.44062E-09  6.05243E-09  9.72254E-09
   7.76866E-09  9.68520E-09  6.39272E-09  7.90118E-09  3.74586E-09  5.21177E-09  3.05782E-09  5.19881E-09  2.92913E-09  4.72580E-09
   3.11128E-09  4.19920E-09  2.69538E-09  4.88590E-09  2.23562E-09  3.82378E-09  2.29744E-09  4.52011E-09  3.76977E-09  5.00521E-09
   3.22895E-09  4.72312E-09  3.25790E-09  4.26159E-09  3.29629E-09  4.46889E-09  3.60320E-09  5.68681E-09  5.20766E-09  7.92510E-09
   9.26150E-09  1.33660E-08  1.29187E-08  1.19681E-08  8.46050E-09  8.66441E-09  6.67086E-09  6.95812E-09  5.15089E-09  5.38524E-09
   4.76155E-09  5.44245E-09  3.89605E-09  4.60618E-09  3.50323E-09  5.46390E-09  6.89224E-09  1.08099E-08  1.34712E-08  1.44524E-08
   1.28336E-08  1.14379E-08  9.75114E-09  9.58555E-09  8.37451E-09  8.17605E-09  7.57735E-09  7.72081E-09  6.82000E-09  6.85802E-09
   6.10035E-09  6.18632E-09  4.71255E-09  5.23687E-09  4.58434E-09  4.50246E-09  3.80049E-09  3.86142E-09  3.59293E-09  3.61793E-09
   3.89373E-09  4.26077E-09  3.72650E-09  4.18506E-09  3.75081E-09  3.97232E-09  3.40493E-09  2.76354E-09  1.98396E-09  2.67808E-09
   1.91387E-09  3.47907E-09  4.07364E-09  3.74442E-09  3.66710E-09  4.54935E-09  4.49087E-09  4.33227E-09  4.66798E-09  5.59438E-09
   4.79010E-09  3.81906E-09  3.52282E-09  3.23191E-09  2.63305E-09  2.37482E-09  3.28977E-09  3.80315E-09  3.32604E-09  3.49555E-09
   3.89486E-09  4.26378E-09  4.00768E-09  4.17585E-09  4.15443E-09  3.94800E-09  3.56735E-09  4.06094E-09  5.18771E-09  6.44421E-09
   6.44464E-09  6.11776E-09  6.08592E-09  5.96944E-09  6.76611E-09  6.76696E-09  7.24141E-09  6.97487E-09  6.78227E-09  6.34063E-09
   6.35409E-09  6.11625E-09  6.28412E-09  6.40199E-09  5.93574E-09  5.87147E-09  6.14441E-09  5.92905E-09  6.48754E-09  6.44102E-09
   6.30976E-09  5.58841E-09  5.82567E-09  5.15947E-09  4.07224E-09  4.31051E-09  5.41020E-09  5.20077E-09  6.71520E-09  1.23391E-08
   1.79734E-08  1.79411E-08  1.73456E-08  1.51349E-08  1.48093E-08  1.33188E-08  1.29147E-08  1.12095E-08  1.05704E-08  9.36444E-09
   8.70034E-09  8.11857E-09  7.02099E-09  4.83137E-09  4.31033E-09  2.35060E-09  9.69784E-10 -1.22965E-09 -2.80739E-09 -5.47738E-09
  -6.55376E-09 -8.52243E-09 -9.87938E-09 -1.21832E-08 -1.25993E-08 -1.37282E-08 -1.40512E-08 -1.55314E-08 -1.50583E-08 -1.45881E-08
  -1.30586E-08 -1.29734E-08 -1.12677E-08 -1.02732E-08 -8.38639E-09 -8.19516E-09 -6.07468E-09 -5.19166E-09 -4.45685E-09 -3.85449E-09
  -2.46760E-09 -3.67076E-09 -2.86671E-09 -2.69393E-09 -2.98537E-09 -3.88213E-09 -2.39571E-09 -3.41849E-09 -3.06878E-09 -3.23558E-09
  -1.90917E-09 -2.46390E-09 -1.98306E-09 -1.87767E-09 -1.48674E-09 -2.64174E-09 -2.00368E-09 -3.46609E-09 -1.92023E-09 -2.62270E-09
  -1.90628E-09 -2.48981E-09 -1.68150E-09 -2.11613E-09 -8.74130E-10 -2.31911E-09 -1.02856E-09 -2.26106E-09 -1.67757E-09 -3.31800E-09
  -2.13544E-09 -2.34205E-09 -1.83484E-09 -3.17715E-09 -1.60739E-09 -2.15872E-09 -1.09533E-09 -1.64537E-09 -1.60372E-09 -1.76710E-09
  -7.68904E-10 -2.27464E-09 -4.18877E-10 -1.32619E-09 -7.06885E-10 -1.77499E-09 -1.41180E-09 -1.75265E-09 -9.86892E-10 -2.47100E-09
  -2.27195E-09 -2.88028E-09 -2.42689E-09 -3.43777E-09 -2.37170E-09 -3.66072E-09 -2.33635E-09 -3.10233E-09 -2.34119E-09 -2.49222E-09
  -1.27270E-09 -1.76759E-09 -1.36794E-09 -1.78060E-09 -6.37416E-10 -1.02899E-09 -1.18379E-10 -1.44163E-09 -4.18524E-10 -1.19776E-09
   2.26700E-10 -1.49207E-09 -4.89622E-10 -1.46517E-09 -4.78184E-10 -7.75927E-10 -7.24288E-10 -1.94036E-09 -8.21487E-10 -1.56761E-09
  -1.13945E-09 -2.25622E-09 -8.72175E-10 -1.88754E-09 -1.23990E-09 -2.44666E-09 -1.46056E-09 -2.30909E-09 -1.67439E-09 -1.93038E-09
  -2.11187E-09 -2.64778E-09 -2.05598E-09 -2.28413E-09 -2.40453E-09 -3.18376E-09 -2.38063E-09 -2.91630E-09 -2.27788E-09 -2.99832E-09
  -2.57707E-09 -2.90496E-09 -2.86723E-09 -3.35236E-09 -2.93948E-09 -3.03502E-09 -3.19521E-09 -3.15651E-09 -2.99182E-09 -3.30582E-09
  -3.30337E-09 -3.45545E-09 -3.30437E-09 -4.18664E-09 -3.36693E-09 -3.44883E-09 -3.06907E-09 -3.71851E-09 -3.90280E-09 -3.18096E-09
  -3.51030E-09 -4.14033E-09 -2.95222E-09 -3.86156E-09 -3.60429E-09 -3.96426E-09 -3.58741E-09 -4.53952E-09 -3.58344E-09 -4.02653E-09
  -3.95941E-09 -4.38730E-09 -4.07974E-09 -4.60484E-09 -3.81364E-09 -4.08899E-09 -4.00060E-09 -4.92648E-09 -3.43063E-09 -3.94886E-09
  -4.12165E-09 -4.54901E-09 -3.99519E-09 -4.24071E-09 -4.33305E-09 -4.25777E-09 -3.77935E-09 -4.46529E-09 -4.18529E-09 -4.43369E-09
  -4.44035E-09 -3.84037E-09 -4.24218E-09
 NY points of the fit to the data follow
   7.52292E-09  6.98019E-09  6.40829E-09  6.54936E-09  6.66878E-09  6.67825E-09  6.56631E-09  6.43143E-09  6.31770E-09  6.54863E-09
   6.83398E-09  6.55728E-09  6.74003E-09  6.62473E-09  6.51222E-09  6.55115E-09  6.81782E-09  7.26543E-09  7.09077E-09  6.21559E-09
   5.67866E-09  5.72213E-09  6.09605E-09  6.80838E-09  7.41083E-09  7.72082E-09  7.96619E-09  7.90703E-09  7.98500E-09  7.97120E-09
   7.66591E-09  7.02974E-09  6.43093E-09  5.96685E-09  5.79003E-09  5.33715E-09  4.58796E-09  4.05144E-09  3.84233E-09  3.82296E-09
   3.83699E-09  3.61086E-09  2.93783E-09  2.48470E-09  2.51300E-09  2.70154E-09  2.91461E-09  3.08529E-09  3.22213E-09  3.31144E-09
   3.49978E-09  3.74915E-09  4.00097E-09  4.18715E-09  4.41312E-09  4.85780E-09  5.60703E-09  6.72574E-09  7.84628E-09  8.66124E-09
   9.49829E-09  1.02229E-08  1.04842E-08  1.04206E-08  1.01243E-08  9.34116E-09  8.18950E-09  7.62437E-09  6.90385E-09  5.47661E-09
   4.98518E-09  5.09560E-09  5.11110E-09  5.52358E-09  6.29543E-09  7.22968E-09  8.25900E-09  9.50657E-09  1.07552E-08  1.14706E-08
   1.17217E-08  1.16917E-08  1.11098E-08  1.03426E-08  1.00143E-08  9.25562E-09  7.66266E-09  6.64272E-09  5.94862E-09  5.26665E-09
   4.87941E-09  4.64744E-09  4.48648E-09  4.37952E-09  4.29784E-09  4.23877E-09  4.20038E-09  4.17637E-09  4.15767E-09  4.13674E-09
   4.13338E-09  4.14208E-09  4.14977E-09  4.15782E-09  4.17064E-09  4.18753E-09  4.20698E-09  4.22846E-09  4.25124E-09  4.27523E-09
   4.30022E-09  4.32601E-09  4.35244E-09  4.37929E-09  4.40629E-09  4.43320E-09  4.45978E-09  4.48580E-09  4.51105E-09  4.53533E-09
   4.55845E-09  4.58019E-09  4.60038E-09  4.61884E-09  4.63537E-09  4.64981E-09  4.66197E-09  4.67170E-09  4.67881E-09  4.68314E-09
   4.68453E-09  4.68281E-09  4.67781E-09  4.66938E-09  4.65737E-09  4.64160E-09  4.62194E-09  4.59823E-09  4.57032E-09  4.53805E-09
   4.50129E-09  4.46002E-09  4.41425E-09  4.36399E-09  4.30926E-09  4.25010E-09  4.18654E-09  4.11863E-09  4.04643E-09  3.97001E-09
   3.88950E-09  3.80499E-09  3.71667E-09  3.62474E-09  3.52951E-09  3.43133E-09  3.33076E-09  3.22851E-09  3.12564E-09  3.02368E-09
   2.92501E-09  2.83343E-09  2.75542E-09  2.70294E-09  2.70103E-09  2.81287E-09  3.26309E-09  4.86798E-09  8.14649E-09  1.27284E-08
   1.68759E-08  1.84212E-08  1.75728E-08  1.59559E-08  1.49666E-08  1.46724E-08  1.42595E-08  1.15553E-08  5.60932E-09  1.68675E-09
   4.41138E-10 -1.75446E-10 -5.89237E-10 -9.12910E-10 -1.18790E-09 -1.43275E-09 -1.65681E-09 -1.86516E-09 -2.06069E-09 -2.24508E-09
  -2.41930E-09 -2.58386E-09 -2.73897E-09 -2.88464E-09 -3.02079E-09 -3.14721E-09 -3.26380E-09 -3.37086E-09 -3.46879E-09 -3.55793E-09
  -3.63863E-09 -3.71118E-09 -3.77591E-09 -3.83309E-09 -3.88302E-09 -3.92597E-09 -3.96221E-09 -3.99201E-09 -4.01562E-09 -4.03332E-09
  -4.04536E-09 -4.05199E-09 -4.05347E-09 -4.05004E-09 -4.04196E-09 -4.02949E-09 -4.01285E-09 -3.99231E-09 -3.96811E-09 -3.94049E-09
  -3.90970E-09 -3.87598E-09 -3.83959E-09 -3.80076E-09 -3.75971E-09 -3.71658E-09 -3.67153E-09 -3.62468E-09 -3.57619E-09 -3.52619E-09
  -3.47483E-09 -3.42225E-09 -3.36860E-09 -3.31401E-09 -3.25861E-09 -3.20256E-09 -3.14600E-09 -3.08907E-09 -3.03190E-09 -2.97464E-09
  -2.91744E-09 -2.86042E-09 -2.80373E-09 -2.74752E-09 -2.69192E-09 -2.63706E-09 -2.58310E-09 -2.53017E-09 -2.47842E-09 -2.42799E-09
  -2.37900E-09 -2.33162E-09 -2.28591E-09 -2.24189E-09 -2.19958E-09 -2.15898E-09 -2.12010E-09 -2.08295E-09 -2.04753E-09 -2.01387E-09
  -1.98196E-09 -1.95181E-09 -1.92344E-09 -1.89685E-09 -1.87206E-09 -1.84906E-09 -1.82786E-09 -1.80850E-09 -1.79096E-09 -1.77525E-09
  -1.76139E-09 -1.74938E-09 -1.73923E-09 -1.73095E-09 -1.72455E-09 -1.72003E-09 -1.71742E-09 -1.71671E-09 -1.71792E-09 -1.72105E-09
  -1.72608E-09 -1.73296E-09 -1.74165E-09 -1.75210E-09 -1.76427E-09 -1.77811E-09 -1.79357E-09 -1.81060E-09 -1.82916E-09 -1.84920E-09
  -1.87068E-09 -1.89354E-09 -1.91775E-09 -1.94325E-09 -1.97000E-09 -1.99795E-09 -2.02705E-09 -2.05726E-09 -2.08854E-09 -2.12082E-09
  -2.15407E-09 -2.18825E-09 -2.22329E-09 -2.25917E-09 -2.29582E-09 -2.33321E-09 -2.37129E-09 -2.41000E-09 -2.44932E-09 -2.48919E-09
  -2.52959E-09 -2.57048E-09 -2.61181E-09 -2.65354E-09 -2.69565E-09 -2.73809E-09 -2.78082E-09 -2.82381E-09 -2.86701E-09 -2.91039E-09
  -2.95391E-09 -2.99753E-09 -3.04122E-09 -3.08493E-09 -3.12863E-09 -3.17228E-09 -3.21584E-09 -3.25927E-09 -3.30253E-09 -3.34559E-09
  -3.38841E-09 -3.43095E-09 -3.47316E-09 -3.51502E-09 -3.55649E-09 -3.59752E-09 -3.63813E-09 -3.67834E-09 -3.71816E-09 -3.75760E-09
  -3.79670E-09 -3.83546E-09 -3.87391E-09 -3.91205E-09 -3.94992E-09 -3.98753E-09 -4.02490E-09 -4.06204E-09 -4.09897E-09 -4.13572E-09
  -4.17229E-09 -4.20872E-09 -4.24501E-09 -4.28118E-09 -4.31726E-09 -4.35325E-09 -4.38919E-09 -4.42508E-09 -4.46094E-09 -4.49680E-09
  -4.53267E-09 -4.56858E-09 -4.60452E-09
 NY background values follow
    -1.913E-09   -1.861E-09   -1.808E-09   -1.756E-09   -1.703E-09   -1.650E-09   -1.598E-09   -1.545E-09   -1.492E-09   -1.439E-09
    -1.387E-09   -1.334E-09   -1.281E-09   -1.229E-09   -1.176E-09   -1.124E-09   -1.071E-09   -1.019E-09   -9.667E-10   -9.147E-10
    -8.628E-10   -8.110E-10   -7.595E-10   -7.081E-10   -6.568E-10   -6.058E-10   -5.551E-10   -5.045E-10   -4.542E-10   -4.041E-10
    -3.543E-10   -3.046E-10   -2.552E-10   -2.060E-10   -1.569E-10   -1.081E-10   -5.931E-11   -1.071E-11    3.778E-11    8.617E-11
     1.345E-10    1.827E-10    2.309E-10    2.790E-10    3.271E-10    3.752E-10    4.233E-10    4.714E-10    5.195E-10    5.677E-10
     6.159E-10    6.642E-10    7.126E-10    7.611E-10    8.097E-10    8.584E-10    9.073E-10    9.564E-10    1.006E-09    1.055E-09
     1.104E-09    1.154E-09    1.203E-09    1.253E-09    1.303E-09    1.352E-09    1.402E-09    1.452E-09    1.502E-09    1.551E-09
     1.601E-09    1.650E-09    1.700E-09    1.749E-09    1.798E-09    1.848E-09    1.897E-09    1.945E-09    1.994E-09    2.043E-09
     2.091E-09    2.139E-09    2.187E-09    2.234E-09    2.281E-09    2.329E-09    2.375E-09    2.422E-09    2.468E-09    2.514E-09
     2.559E-09    2.604E-09    2.649E-09    2.694E-09    2.738E-09    2.782E-09    2.826E-09    2.869E-09    2.912E-09    2.954E-09
     2.996E-09    3.038E-09    3.080E-09    3.121E-09    3.161E-09    3.201E-09    3.241E-09    3.281E-09    3.320E-09    3.358E-09
     3.397E-09    3.434E-09    3.472E-09    3.508E-09    3.545E-09    3.580E-09    3.614E-09    3.647E-09    3.679E-09    3.709E-09
     3.738E-09    3.765E-09    3.790E-09    3.813E-09    3.834E-09    3.852E-09    3.868E-09    3.881E-09    3.891E-09    3.898E-09
     3.902E-09    3.903E-09    3.900E-09    3.894E-09    3.883E-09    3.869E-09    3.851E-09    3.828E-09    3.801E-09    3.770E-09
     3.733E-09    3.692E-09    3.647E-09    3.596E-09    3.541E-09    3.480E-09    3.415E-09    3.346E-09    3.271E-09    3.192E-09
     3.108E-09    3.019E-09    2.925E-09    2.826E-09    2.722E-09    2.614E-09    2.501E-09    2.383E-09    2.260E-09    2.132E-09
     2.000E-09    1.862E-09    1.720E-09    1.572E-09    1.420E-09    1.263E-09    1.101E-09    9.342E-10    7.624E-10    5.862E-10
     4.061E-10    2.224E-10    3.585E-11   -1.532E-10   -3.442E-10   -5.368E-10   -7.303E-10   -9.242E-10   -1.118E-09   -1.312E-09
    -1.504E-09   -1.695E-09   -1.884E-09   -2.071E-09   -2.254E-09   -2.434E-09   -2.610E-09   -2.782E-09   -2.948E-09   -3.109E-09
    -3.265E-09   -3.413E-09   -3.555E-09   -3.689E-09   -3.816E-09   -3.934E-09   -4.043E-09   -4.143E-09   -4.235E-09   -4.319E-09
    -4.395E-09   -4.464E-09   -4.524E-09   -4.578E-09   -4.625E-09   -4.665E-09   -4.698E-09   -4.726E-09   -4.747E-09   -4.762E-09
    -4.772E-09   -4.777E-09   -4.777E-09   -4.772E-09   -4.762E-09   -4.748E-09   -4.730E-09   -4.708E-09   -4.683E-09   -4.654E-09
    -4.622E-09   -4.587E-09   -4.550E-09   -4.510E-09   -4.468E-09   -4.424E-09   -4.378E-09   -4.330E-09   -4.281E-09   -4.230E-09
    -4.178E-09   -4.125E-09   -4.070E-09   -4.015E-09   -3.959E-09   -3.902E-09   -3.845E-09   -3.787E-09   -3.730E-09   -3.672E-09
    -3.614E-09   -3.556E-09   -3.499E-09   -3.442E-09   -3.386E-09   -3.331E-09   -3.276E-09   -3.223E-09   -3.171E-09   -3.120E-09
    -3.070E-09   -3.022E-09   -2.976E-09   -2.932E-09   -2.889E-09   -2.848E-09   -2.809E-09   -2.771E-09   -2.735E-09   -2.701E-09
    -2.669E-09   -2.638E-09   -2.610E-09   -2.583E-09   -2.558E-09   -2.534E-09   -2.513E-09   -2.493E-09   -2.475E-09   -2.459E-09
    -2.445E-09   -2.432E-09   -2.422E-09   -2.413E-09   -2.406E-09   -2.402E-09   -2.399E-09   -2.398E-09   -2.398E-09   -2.401E-09
    -2.406E-09   -2.413E-09   -2.421E-09   -2.431E-09   -2.443E-09   -2.456E-09   -2.472E-09   -2.488E-09   -2.506E-09   -2.526E-09
    -2.547E-09   -2.570E-09   -2.594E-09   -2.619E-09   -2.645E-09   -2.673E-09   -2.702E-09   -2.732E-09   -2.763E-09   -2.795E-09
    -2.828E-09   -2.862E-09   -2.896E-09   -2.932E-09   -2.968E-09   -3.005E-09   -3.043E-09   -3.082E-09   -3.121E-09   -3.160E-09
    -3.200E-09   -3.241E-09   -3.282E-09   -3.323E-09   -3.365E-09   -3.407E-09   -3.450E-09   -3.492E-09   -3.535E-09   -3.578E-09
    -3.622E-09   -3.665E-09   -3.708E-09   -3.752E-09   -3.795E-09   -3.838E-09   -3.882E-09   -3.925E-09   -3.968E-09   -4.010E-09
    -4.053E-09   -4.095E-09   -4.137E-09   -4.179E-09   -4.220E-09   -4.261E-09   -4.301E-09   -4.341E-09   -4.380E-09   -4.419E-09
    -4.458E-09   -4.497E-09   -4.535E-09   -4.573E-09   -4.610E-09   -4.647E-09   -4.684E-09   -4.721E-09   -4.758E-09   -4.794E-09
    -4.831E-09   -4.867E-09   -4.903E-09   -4.938E-09   -4.974E-09   -5.010E-09   -5.045E-09   -5.081E-09   -5.117E-09   -5.152E-09
    -5.188E-09   -5.223E-09   -5.259E-09
 Asp      Conc. = 6.40E-10
  -1.15574E-09 -1.22554E-09 -1.26256E-09 -1.30562E-09 -1.30616E-09 -1.33983E-09 -1.37224E-09 -1.40175E-09 -1.38539E-09 -1.35257E-09
  -1.31231E-09 -1.26801E-09 -1.22078E-09 -1.17102E-09 -1.12059E-09 -1.06982E-09 -1.01863E-09 -9.67114E-10 -9.15326E-10 -8.63323E-10
  -8.11149E-10 -7.58826E-10 -7.06379E-10 -6.53797E-10 -6.01066E-10 -5.48180E-10 -4.95080E-10 -4.41701E-10 -3.87956E-10 -3.33697E-10
  -2.78698E-10 -2.22619E-10 -1.64958E-10 -1.04882E-10 -4.08884E-11  3.02127E-11  1.16021E-10  2.15828E-10  3.28165E-10  4.31479E-10
   5.07861E-10  5.58879E-10  6.00059E-10  6.82728E-10  8.34184E-10  1.06316E-09  1.28810E-09  1.44199E-09  1.52600E-09  1.52940E-09
   1.61621E-09  1.74752E-09  1.84531E-09  1.83548E-09  1.72154E-09  1.54603E-09  1.39523E-09  1.46894E-09  1.52978E-09  1.46388E-09
   1.45274E-09  1.45557E-09  1.44303E-09  1.47499E-09  1.54301E-09  1.58548E-09  1.57913E-09  1.59664E-09  1.62579E-09  1.66096E-09
   1.69969E-09  1.74074E-09  1.78336E-09  1.82711E-09  1.87167E-09  1.91682E-09  1.96239E-09  2.00826E-09  2.05434E-09  2.10053E-09
   2.14678E-09  2.19303E-09  2.23924E-09  2.28535E-09  2.33133E-09  2.37716E-09  2.42281E-09  2.46826E-09  2.51351E-09  2.55852E-09
   2.60329E-09  2.64781E-09  2.69206E-09  2.73604E-09  2.77973E-09  2.82312E-09  2.86621E-09  2.90898E-09  2.95143E-09  2.99355E-09
   3.03532E-09  3.07675E-09  3.11782E-09  3.15854E-09  3.19888E-09  3.23885E-09  3.27843E-09  3.31763E-09  3.35643E-09  3.39482E-09
   3.43281E-09  3.47038E-09  3.50752E-09  3.54414E-09  3.58008E-09  3.61519E-09  3.64932E-09  3.68230E-09  3.71398E-09  3.74420E-09
   3.77281E-09  3.79965E-09  3.82458E-09  3.84742E-09  3.86803E-09  3.88625E-09  3.90193E-09  3.91490E-09  3.92503E-09  3.93214E-09
   3.93608E-09  3.93671E-09  3.93386E-09  3.92737E-09  3.91710E-09  3.90289E-09  3.88458E-09  3.86202E-09  3.83506E-09  3.80354E-09
   3.76731E-09  3.72633E-09  3.68059E-09  3.63010E-09  3.57485E-09  3.51483E-09  3.45004E-09  3.38049E-09  3.30617E-09  3.22708E-09
   3.14323E-09  3.05462E-09  2.96127E-09  2.86318E-09  2.76037E-09  2.65287E-09  2.54072E-09  2.42397E-09  2.30272E-09  2.17707E-09
   2.04725E-09  1.91356E-09  1.77662E-09  1.63749E-09  1.49860E-09  1.36637E-09  1.26591E-09  1.27965E-09  1.41946E-09  1.63150E-09
   1.73794E-09  1.59052E-09  1.30398E-09  1.00423E-09  7.83292E-10  5.95337E-10  3.67036E-10 -1.17201E-10 -8.23923E-10 -1.15833E-09
  -1.39859E-09 -1.61244E-09 -1.81457E-09 -2.00948E-09 -2.19876E-09 -2.38297E-09 -2.56217E-09 -2.73619E-09 -2.90471E-09 -3.06741E-09
  -3.22387E-09 -3.37366E-09 -3.51634E-09 -3.65141E-09 -3.77844E-09 -3.89694E-09 -4.00658E-09 -4.10751E-09 -4.19999E-09 -4.28427E-09
  -4.36059E-09 -4.42920E-09 -4.49034E-09 -4.54426E-09 -4.59119E-09 -4.63139E-09 -4.66509E-09 -4.69255E-09 -4.71398E-09 -4.72966E-09
  -4.73980E-09 -4.74466E-09 -4.74447E-09 -4.73948E-09 -4.72992E-09 -4.71605E-09 -4.69810E-09 -4.67630E-09 -4.65091E-09 -4.62216E-09
  -4.59030E-09 -4.55555E-09 -4.51817E-09 -4.47840E-09 -4.43644E-09 -4.39244E-09 -4.34655E-09 -4.29890E-09 -4.24963E-09 -4.19889E-09
  -4.14680E-09 -4.09352E-09 -4.03919E-09 -3.98394E-09 -3.92791E-09 -3.87124E-09 -3.81408E-09 -3.75656E-09 -3.69881E-09 -3.64100E-09
  -3.58326E-09 -3.52571E-09 -3.46850E-09 -3.41179E-09 -3.35569E-09 -3.30035E-09 -3.24592E-09 -3.19252E-09 -3.14032E-09 -3.08944E-09
  -3.04001E-09 -2.99220E-09 -2.94606E-09 -2.90163E-09 -2.85890E-09 -2.81790E-09 -2.77862E-09 -2.74108E-09 -2.70528E-09 -2.67123E-09
  -2.63895E-09 -2.60843E-09 -2.57969E-09 -2.55274E-09 -2.52759E-09 -2.50424E-09 -2.48269E-09 -2.46298E-09 -2.44510E-09 -2.42906E-09
  -2.41485E-09 -2.40251E-09 -2.39203E-09 -2.38342E-09 -2.37671E-09 -2.37186E-09 -2.36893E-09 -2.36791E-09 -2.36880E-09 -2.37161E-09
  -2.37633E-09 -2.38291E-09 -2.39129E-09 -2.40144E-09 -2.41330E-09 -2.42683E-09 -2.44199E-09 -2.45873E-09 -2.47699E-09 -2.49674E-09
  -2.51792E-09 -2.54049E-09 -2.56440E-09 -2.58961E-09 -2.61607E-09 -2.64372E-09 -2.67254E-09 -2.70246E-09 -2.73344E-09 -2.76544E-09
  -2.79841E-09 -2.83229E-09 -2.86705E-09 -2.90264E-09 -2.93901E-09 -2.97612E-09 -3.01391E-09 -3.05234E-09 -3.09137E-09 -3.13096E-09
  -3.17107E-09 -3.21167E-09 -3.25272E-09 -3.29417E-09 -3.33599E-09 -3.37815E-09 -3.42059E-09 -3.46329E-09 -3.50621E-09 -3.54931E-09
  -3.59254E-09 -3.63588E-09 -3.67928E-09 -3.72270E-09 -3.76611E-09 -3.80948E-09 -3.85275E-09 -3.89588E-09 -3.93886E-09 -3.98163E-09
  -4.02416E-09 -4.06640E-09 -4.10833E-09 -4.14989E-09 -4.19107E-09 -4.23181E-09 -4.27212E-09 -4.31203E-09 -4.35155E-09 -4.39070E-09
  -4.42950E-09 -4.46796E-09 -4.50610E-09 -4.54395E-09 -4.58152E-09 -4.61882E-09 -4.65588E-09 -4.69271E-09 -4.72934E-09 -4.76578E-09
  -4.80204E-09 -4.83815E-09 -4.87413E-09 -4.90999E-09 -4.94575E-09 -4.98143E-09 -5.01704E-09 -5.05261E-09 -5.08815E-09 -5.12369E-09
  -5.15924E-09 -5.19481E-09 -5.23043E-09
 Gln      Conc. = 3.49E-09
   4.80698E-10  1.21888E-09  2.04216E-09  2.80426E-09  3.25451E-09  3.52543E-09  3.56895E-09  3.40124E-09  2.97362E-09  2.69143E-09
   2.20200E-09  1.16648E-09  8.67562E-10  3.69836E-10 -4.47691E-11 -2.06829E-10 -2.74490E-10 -2.98794E-10 -2.99054E-10 -2.84515E-10
  -2.60331E-10 -2.29362E-10 -1.93496E-10 -1.54044E-10 -1.11531E-10 -6.58116E-11 -1.84838E-11  3.00959E-11  8.07327E-11  1.32312E-10
   1.84742E-10  2.38080E-10  2.92346E-10  3.47600E-10  4.03912E-10  4.61362E-10  5.20066E-10  5.80162E-10  6.41816E-10  7.05223E-10
   7.70707E-10  8.38679E-10  9.09776E-10  9.84705E-10  1.06415E-09  1.14902E-09  1.24030E-09  1.33937E-09  1.44870E-09  1.57253E-09
   1.71602E-09  1.88734E-09  2.09987E-09  2.37951E-09  2.78919E-09  3.46149E-09  4.40064E-09  5.48026E-09  6.57731E-09  7.53836E-09
   8.47446E-09  9.28494E-09  9.60400E-09  9.50714E-09  9.15054E-09  8.36953E-09  7.25070E-09  6.69135E-09  5.93390E-09  4.43426E-09
   3.85754E-09  3.88800E-09  3.79903E-09  4.10745E-09  4.80859E-09  5.67689E-09  6.52886E-09  7.40718E-09  8.19803E-09  8.65569E-09
   8.94032E-09  9.13789E-09  8.80180E-09  8.10310E-09  7.77454E-09  7.14556E-09  6.02568E-09  5.55150E-09  5.07288E-09  4.48905E-09
   4.16046E-09  3.96283E-09  3.83792E-09  3.75975E-09  3.70816E-09  3.67363E-09  3.65362E-09  3.64429E-09  3.64261E-09  3.64791E-09
   3.65862E-09  3.67280E-09  3.68974E-09  3.70900E-09  3.73036E-09  3.75383E-09  3.77863E-09  3.80449E-09  3.83124E-09  3.85870E-09
   3.88675E-09  3.91524E-09  3.94408E-09  3.97308E-09  4.00202E-09  4.03066E-09  4.05882E-09  4.08627E-09  4.11283E-09  4.13828E-09
   4.16246E-09  4.18517E-09  4.20624E-09  4.22548E-09  4.24272E-09  4.25778E-09  4.27050E-09  4.28070E-09  4.28822E-09  4.29289E-09
   4.29454E-09  4.29302E-09  4.28815E-09  4.27977E-09  4.26773E-09  4.25187E-09  4.23202E-09  4.20803E-09  4.17974E-09  4.14700E-09
   4.10964E-09  4.06766E-09  4.02102E-09  3.96975E-09  3.91383E-09  3.85327E-09  3.78808E-09  3.71826E-09  3.64385E-09  3.56485E-09
   3.48131E-09  3.39325E-09  3.30073E-09  3.20383E-09  3.10262E-09  2.99724E-09  2.88788E-09  2.77475E-09  2.65822E-09  2.53876E-09
   2.41716E-09  2.29458E-09  2.17301E-09  2.05590E-09  1.94998E-09  1.87026E-09  1.85863E-09  2.08804E-09  2.96657E-09  4.51950E-09
   6.38128E-09  7.58979E-09  7.50575E-09  6.77069E-09  6.03976E-09  5.71927E-09  5.54389E-09  5.02845E-09  3.10836E-09  3.63911E-10
  -4.95342E-10 -9.30578E-10 -1.24157E-09 -1.50008E-09 -1.73061E-09 -1.94352E-09 -2.14370E-09 -2.33367E-09 -2.51467E-09 -2.68737E-09
  -2.85201E-09 -3.00861E-09 -3.15702E-09 -3.29699E-09 -3.42824E-09 -3.55043E-09 -3.66330E-09 -3.76711E-09 -3.86215E-09 -3.94872E-09
  -4.02712E-09 -4.09760E-09 -4.16046E-09 -4.21595E-09 -4.26433E-09 -4.30586E-09 -4.34079E-09 -4.36939E-09 -4.39190E-09 -4.40857E-09
  -4.41966E-09 -4.42540E-09 -4.42604E-09 -4.42184E-09 -4.41302E-09 -4.39986E-09 -4.38257E-09 -4.36142E-09 -4.33663E-09 -4.30846E-09
  -4.27715E-09 -4.24294E-09 -4.20607E-09 -4.16678E-09 -4.12530E-09 -4.08175E-09 -4.03630E-09 -3.98907E-09 -3.94021E-09 -3.88986E-09
