 LCModel (Version 6.3-1R) Copyright: S.W. Provencher.          Ref.: Magn. Reson. Med. 30:672-679 (1993).                
 onepulse 15x11_ftSpec_smooth_lcm
 26 lines in following concentration table = NCONC+1
    Conc.  %SD   /Cr    Metabolite                                         
 4.20E-10  69%   0.000 Ala                                                 
    0.000 999%   0.000 Asp                                                 
    0.000 999%   0.000 Cr                                                  
 1.02E-09  58%   0.000 GABA                                                
    0.000 999%   0.000 Glc                                                 
 7.49E-10  89%   0.000 Gln                                                 
    0.000 999%   0.000 Glu                                                 
 2.93E-09  17%   0.000 Glyc                                                
    0.000 999%   0.000 GPC                                                 
 2.32E-09  20%   0.000 GSH                                                 
    0.000 999%   0.000 Ins                                                 
    0.000 999%   0.000 Lac                                                 
 2.50E-10 136%   0.000 NAAG                                                
 4.74E-10 104%   0.000 NAA                                                 
    0.000 999%   0.000 PCh                                                 
    0.000 999%   0.000 PCr                                                 
 4.24E-09  22%   0.000 PE                                                  
 3.20E-11 868%   0.000 Scyllo                                              
    0.000 999%   0.000 Ser                                                 
 8.02E-10 123%   0.000 Tau                                                 
    0.000 999%   0.000 GPC+PCh                                             
 7.23E-10  43%   0.000 NAA+NAAG                                            
 2.93E-09  17%   0.000 Ins+Glyc                                            
    0.000 999%   0.000 Cr+PCr                                              
 7.49E-10  89%   0.000 Glu+Gln                                             
   6 lines in following misc. output table
  FWHM = 0.123 ppm    S/N =   4                                            
  Data shift = 0.470 ppm                                                   
  Ph:  81 deg     -20.7 deg/ppm                                            
  alphaB,S = 7.0E-01,   2.2E+01                                            
   10 spline knots.   Ns = 5(1)                                            
  (10) 6 infls.   ( 9) 3 extrs.                                            
  363 points on ppm-axis = NY
      4.250000     4.238821     4.227641     4.216462     4.205282     4.194103     4.182923     4.171744     4.160564     4.149385
      4.138206     4.127026     4.115847     4.104667     4.093488     4.082308     4.071129     4.059949     4.048770     4.037591
      4.026411     4.015232     4.004052     3.992873     3.981693     3.970514     3.959334     3.948155     3.936975     3.925796
      3.914617     3.903437     3.892258     3.881078     3.869899     3.858719     3.847540     3.836360     3.825181     3.814002
      3.802822     3.791643     3.780463     3.769284     3.758104     3.746925     3.735745     3.724566     3.713387     3.702207
      3.691028     3.679848     3.668669     3.657489     3.646310     3.635130     3.623951     3.612772     3.601592     3.590413
      3.579233     3.568054     3.556874     3.545695     3.534515     3.523336     3.512156     3.500977     3.489798     3.478618
      3.467439     3.456259     3.445080     3.433900     3.422721     3.411541     3.400362     3.389183     3.378003     3.366824
      3.355644     3.344465     3.333285     3.322106     3.310926     3.299747     3.288568     3.277388     3.266209     3.255029
      3.243850     3.232670     3.221491     3.210311     3.199132     3.187953     3.176773     3.165594     3.154414     3.143235
      3.132055     3.120876     3.109696     3.098517     3.087337     3.076158     3.064979     3.053799     3.042620     3.031440
      3.020261     3.009081     2.997902     2.986722     2.975543     2.964364     2.953184     2.942005     2.930825     2.919646
      2.908466     2.897287     2.886107     2.874928     2.863749     2.852569     2.841390     2.830210     2.819031     2.807851
      2.796672     2.785492     2.774313     2.763134     2.751954     2.740775     2.729595     2.718416     2.707236     2.696057
      2.684877     2.673698     2.662519     2.651339     2.640160     2.628980     2.617801     2.606621     2.595442     2.584262
      2.573083     2.561903     2.550724     2.539545     2.528365     2.517186     2.506006     2.494827     2.483647     2.472468
      2.461288     2.450109     2.438930     2.427750     2.416571     2.405391     2.394212     2.383032     2.371853     2.360673
      2.349494     2.338315     2.327135     2.315956     2.304776     2.293597     2.282417     2.271238     2.260058     2.248879
      2.237700     2.226520     2.215341     2.204161     2.192982     2.181802     2.170623     2.159443     2.148264     2.137084
      2.125905     2.114726     2.103546     2.092367     2.081187     2.070008     2.058828     2.047649     2.036469     2.025290
      2.014111     2.002931     1.991752     1.980572     1.969393     1.958213     1.947034     1.935854     1.924675     1.913496
      1.902316     1.891137     1.879957     1.868778     1.857598     1.846419     1.835239     1.824060     1.812881     1.801701
      1.790522     1.779342     1.768163     1.756983     1.745804     1.734624     1.723445     1.712265     1.701086     1.689907
      1.678727     1.667548     1.656368     1.645189     1.634009     1.622830     1.611650     1.600471     1.589292     1.578112
      1.566933     1.555753     1.544574     1.533394     1.522215     1.511035     1.499856     1.488677     1.477497     1.466318
      1.455138     1.443959     1.432779     1.421600     1.410420     1.399241     1.388062     1.376882     1.365703     1.354523
      1.343344     1.332164     1.320985     1.309805     1.298626     1.287446     1.276267     1.265088     1.253908     1.242729
      1.231549     1.220370     1.209190     1.198011     1.186831     1.175652     1.164473     1.153293     1.142114     1.130934
      1.119755     1.108575     1.097396     1.086216     1.075037     1.063858     1.052678     1.041499     1.030319     1.019140
      1.007960     0.996781     0.985601     0.974422     0.963243     0.952063     0.940884     0.929704     0.918525     0.907345
      0.896166     0.884986     0.873807     0.862628     0.851448     0.840269     0.829089     0.817910     0.806730     0.795551
      0.784371     0.773192     0.762012     0.750833     0.739654     0.728474     0.717295     0.706115     0.694936     0.683756
      0.672577     0.661397     0.650218     0.639039     0.627859     0.616680     0.605500     0.594321     0.583141     0.571962
      0.560782     0.549603     0.538424     0.527244     0.516065     0.504885     0.493706     0.482526     0.471347     0.460167
      0.448988     0.437809     0.426629     0.415450     0.404270     0.393091     0.381911     0.370732     0.359552     0.348373
      0.337193     0.326014     0.314835     0.303655     0.292476     0.281296     0.270117     0.258937     0.247758     0.236578
      0.225399     0.214220     0.203040
 NY phased data points follow
   8.05137E-09  8.65648E-09  8.56102E-09  8.16648E-09  9.29757E-09  9.57652E-09  9.78606E-09  9.76127E-09  9.98285E-09  9.66170E-09
   9.71448E-09  8.88897E-09  8.98090E-09  8.75748E-09  8.62777E-09  1.04548E-08  1.04253E-08  1.02918E-08  8.99700E-09  8.04547E-09
   7.59224E-09  9.47250E-09  1.04886E-08  1.23393E-08  1.30187E-08  1.37261E-08  1.26031E-08  1.21386E-08  1.10081E-08  1.19196E-08
   1.04123E-08  1.11779E-08  1.09720E-08  1.05111E-08  1.01615E-08  1.08419E-08  9.55241E-09  9.53296E-09  8.48487E-09  8.93855E-09
   8.17389E-09  8.38843E-09  8.07335E-09  8.91121E-09  7.32086E-09  7.54654E-09  5.57439E-09  5.16687E-09  4.48624E-09  4.50375E-09
   2.97126E-09  2.56062E-09  2.63989E-09  6.61703E-09  9.11703E-09  1.16694E-08  1.01609E-08  1.13391E-08  1.02426E-08  1.05635E-08
   9.10810E-09  9.94577E-09  8.28183E-09  8.20773E-09  6.22681E-09  6.74675E-09  3.42106E-09  2.30264E-09 -2.54744E-10  2.91225E-09
   6.91104E-09  1.05139E-08  1.10767E-08  1.16617E-08  1.17341E-08  1.27115E-08  1.21354E-08  1.20882E-08  1.18414E-08  1.26009E-08
   1.25037E-08  1.25289E-08  1.24662E-08  1.26713E-08  1.18206E-08  1.27205E-08  1.13699E-08  1.17580E-08  1.11025E-08  1.09764E-08
   9.76088E-09  9.83123E-09  1.03476E-08  1.02284E-08  9.66443E-09  9.70835E-09  9.66676E-09  1.02548E-08  1.00781E-08  9.44296E-09
   8.81323E-09  7.80836E-09  6.45580E-09  7.31902E-09  7.38284E-09  7.16399E-09  6.74741E-09  7.68436E-09  7.17463E-09  7.11553E-09
   7.20704E-09  8.74972E-09  8.07128E-09  8.04822E-09  7.68868E-09  7.91382E-09  5.52918E-09  5.85735E-09  6.19605E-09  6.04305E-09
   4.88124E-09  5.48058E-09  5.34955E-09  5.84492E-09  5.20371E-09  5.91930E-09  5.42284E-09  5.32509E-09  3.51823E-09  3.51813E-09
   4.86714E-09  5.90382E-09  5.84202E-09  6.10834E-09  5.23137E-09  5.97303E-09  6.81914E-09  7.35038E-09  7.50634E-09  8.30190E-09
   7.85524E-09  8.63625E-09  8.29369E-09  8.26157E-09  8.22671E-09  8.08519E-09  8.29802E-09  8.33725E-09  8.60854E-09  8.44692E-09
   8.59490E-09  8.43839E-09  8.26961E-09  8.77100E-09  8.36829E-09  7.92830E-09  6.77095E-09  7.40068E-09  5.89293E-09  8.92479E-10
   3.61815E-10  6.85328E-09  1.27271E-08  1.63850E-08  1.76198E-08  1.87340E-08  2.09780E-08  2.15466E-08  2.21554E-08  2.26223E-08
   2.33911E-08  2.39200E-08  2.41259E-08  2.51856E-08  2.44391E-08  2.47981E-08  2.43129E-08  2.31858E-08  2.20552E-08  2.05046E-08
   1.86008E-08  1.58517E-08  1.32797E-08  1.10506E-08  8.59418E-09  5.72463E-09  2.74528E-09  7.34192E-10 -1.68812E-09 -3.49788E-09
  -5.13827E-09 -5.21075E-09 -6.30656E-09 -6.31990E-09 -5.57463E-09 -5.13600E-09 -4.63034E-09 -4.10894E-09 -2.54269E-09 -2.18442E-09
  -1.93595E-09 -2.13162E-10 -1.27997E-09 -8.14302E-10 -9.48949E-10 -9.25587E-10 -8.50386E-10 -1.37767E-09 -7.98126E-10 -1.43567E-09
  -1.25538E-09 -7.99504E-10 -4.02353E-10 -4.17249E-10 -3.73412E-10 -3.27143E-10 -1.14844E-10 -6.15653E-10 -1.04564E-09 -1.17628E-09
  -1.03587E-09 -8.54487E-10 -4.91653E-10 -3.39387E-10 -8.52905E-10 -4.93846E-10 -2.40527E-10 -5.87211E-10  7.21255E-11 -1.84076E-10
  -8.57834E-10 -1.38065E-09 -1.35064E-09 -1.35847E-09 -1.28391E-09 -1.69544E-09 -1.60190E-09 -1.04907E-09 -8.02083E-10 -8.38428E-10
  -8.75154E-10 -5.17850E-10 -6.24086E-10 -3.50949E-11 -6.26907E-10 -4.83235E-10 -2.33307E-10 -4.72593E-10 -5.60359E-10 -1.84407E-10
  -4.19239E-10 -1.01655E-09 -7.82291E-10 -1.30431E-09 -1.73576E-09 -1.68965E-09 -1.96155E-09 -2.16690E-09 -2.36852E-09 -2.57494E-09
  -2.39189E-09 -2.61021E-09 -2.37270E-09 -2.57066E-09 -1.82870E-09 -1.55153E-09 -1.15472E-09 -1.22077E-09 -1.04727E-09 -6.74320E-10
  -6.51780E-10 -8.30686E-10 -1.35818E-10 -5.26021E-10 -1.19889E-10 -4.80476E-10  3.76343E-10 -5.13656E-11 -1.01018E-10 -4.80709E-10
   4.66614E-10 -4.07104E-11  3.35558E-11 -2.35799E-10  4.47145E-11 -2.45814E-10 -2.44488E-10 -9.00613E-12 -1.52746E-10 -3.90731E-10
  -2.82067E-10 -8.03567E-10 -6.93802E-10 -6.05971E-10 -5.17305E-10 -7.29768E-10 -9.56127E-10 -8.02844E-10 -1.29105E-09 -1.19837E-09
  -1.17478E-09 -1.41924E-09 -1.52903E-09 -1.38123E-09 -1.26750E-09 -1.82465E-09 -1.71112E-09 -2.01992E-09 -1.48449E-09 -1.96619E-09
  -1.82534E-09 -1.89286E-09 -1.77343E-09 -2.50834E-09 -2.40027E-09 -2.57656E-09 -2.04486E-09 -2.05805E-09 -2.01524E-09 -2.99690E-09
  -1.78782E-09 -2.48227E-09 -2.39650E-09 -2.52898E-09 -2.54460E-09 -2.81461E-09 -2.50092E-09 -2.70140E-09 -3.11861E-09 -2.94130E-09
  -2.82539E-09 -2.86900E-09 -3.14908E-09 -3.47721E-09 -3.08127E-09 -3.51451E-09 -3.08143E-09 -3.68605E-09 -4.18930E-09 -3.64857E-09
  -3.19045E-09 -3.84725E-09 -3.83293E-09 -3.54100E-09 -3.53112E-09 -3.61173E-09 -3.65370E-09 -3.84345E-09 -3.81604E-09 -4.18799E-09
  -3.92955E-09 -4.12641E-09 -3.88282E-09 -3.83770E-09 -4.80838E-09 -4.13700E-09 -4.58368E-09 -3.70824E-09 -4.64455E-09 -4.52955E-09
  -4.60457E-09 -4.29226E-09 -4.43832E-09
 NY points of the fit to the data follow
   1.07599E-08  9.66853E-09  9.16861E-09  8.52576E-09  8.50095E-09  8.61628E-09  8.88213E-09  9.42371E-09  9.82517E-09  1.05544E-08
   9.95757E-09  9.17025E-09  8.31959E-09  8.35698E-09  9.03638E-09  9.62149E-09  1.02558E-08  1.11900E-08  1.21046E-08  1.09879E-08
   7.65275E-09  7.82820E-09  9.09652E-09  1.05915E-08  1.14175E-08  1.22624E-08  1.27003E-08  1.26277E-08  1.29052E-08  1.34641E-08
   1.33442E-08  1.21184E-08  1.13151E-08  1.05198E-08  1.01761E-08  9.37847E-09  8.92373E-09  9.30217E-09  9.31504E-09  9.10656E-09
   8.91047E-09  9.11357E-09  9.34198E-09  8.84208E-09  7.86817E-09  6.65546E-09  6.11612E-09  4.83048E-09  4.24825E-09  4.37950E-09
   5.04288E-09  5.67014E-09  5.89288E-09  6.67730E-09  7.63036E-09  7.79044E-09  8.18017E-09  8.87828E-09  9.31705E-09  9.35053E-09
   9.19270E-09  8.81136E-09  8.95046E-09  8.82381E-09  7.95929E-09  7.84936E-09  8.12169E-09  7.73876E-09  7.39435E-09  7.83370E-09
   8.57282E-09  8.74007E-09  9.28382E-09  9.77060E-09  1.03348E-08  1.09486E-08  1.16003E-08  1.30796E-08  1.37326E-08  1.36279E-08
   1.31983E-08  1.28916E-08  1.27885E-08  1.23440E-08  1.20677E-08  1.17563E-08  1.11512E-08  9.98850E-09  8.39039E-09  7.86202E-09
   7.58531E-09  7.42180E-09  7.51002E-09  7.39647E-09  7.07084E-09  7.12054E-09  7.11584E-09  6.88954E-09  6.89362E-09  7.06685E-09
   7.41790E-09  7.40720E-09  7.37029E-09  7.75607E-09  7.97861E-09  8.00935E-09  8.01999E-09  8.05658E-09  8.13170E-09  8.13475E-09
   7.85989E-09  7.48498E-09  7.59157E-09  7.47056E-09  7.02646E-09  6.88437E-09  6.83075E-09  6.80851E-09  6.80027E-09  6.79904E-09
   6.80143E-09  6.80563E-09  6.81053E-09  6.81540E-09  6.81976E-09  6.82330E-09  6.82575E-09  6.82692E-09  6.82668E-09  6.82492E-09
   6.82151E-09  6.81641E-09  6.80956E-09  6.80089E-09  6.79037E-09  6.77796E-09  6.76364E-09  6.74738E-09  6.72916E-09  6.70899E-09
   6.68686E-09  6.66278E-09  6.63677E-09  6.60885E-09  6.57906E-09  6.54745E-09  6.51410E-09  6.47910E-09  6.44258E-09  6.40471E-09
   6.36568E-09  6.32579E-09  6.28541E-09  6.24502E-09  6.20532E-09  6.16723E-09  6.13210E-09  6.10192E-09  6.07973E-09  6.07015E-09
   6.08080E-09  6.12501E-09  6.22847E-09  6.44743E-09  6.93181E-09  8.23090E-09  1.30866E-08  2.09499E-08  2.47327E-08  2.44800E-08
   2.38270E-08  2.39382E-08  2.44344E-08  2.48755E-08  2.53812E-08  2.62847E-08  2.56777E-08  1.96121E-08  1.08957E-08  6.72361E-09
   5.39665E-09  4.75972E-09  4.36414E-09  4.07902E-09  3.85304E-09  3.66223E-09  3.49391E-09  3.34081E-09  3.19855E-09  3.06429E-09
   2.93615E-09  2.81288E-09  2.69356E-09  2.57761E-09  2.46455E-09  2.35409E-09  2.24599E-09  2.14012E-09  2.03634E-09  1.93462E-09
   1.83490E-09  1.73718E-09  1.64147E-09  1.54777E-09  1.45612E-09  1.36656E-09  1.27917E-09  1.19394E-09  1.11095E-09  1.03014E-09
   9.51465E-10  8.74861E-10  8.00288E-10  7.27692E-10  6.57034E-10  5.88264E-10  5.21351E-10  4.56252E-10  3.92917E-10  3.31313E-10
   2.71417E-10  2.13172E-10  1.56546E-10  1.01509E-10  4.80190E-11 -3.95639E-12 -5.44376E-11 -1.03489E-10 -1.51135E-10 -1.97388E-10
  -2.42297E-10 -2.85901E-10 -3.28218E-10 -3.69300E-10 -4.09162E-10 -4.47855E-10 -4.85403E-10 -5.21828E-10 -5.57176E-10 -5.91474E-10
  -6.24754E-10 -6.57046E-10 -6.88387E-10 -7.18810E-10 -7.48339E-10 -7.77011E-10 -8.04865E-10 -8.31936E-10 -8.58225E-10 -8.83777E-10
  -9.08642E-10 -9.32846E-10 -9.56409E-10 -9.79355E-10 -1.00176E-09 -1.02359E-09 -1.04493E-09 -1.06578E-09 -1.08620E-09 -1.10620E-09
  -1.12581E-09 -1.14506E-09 -1.16396E-09 -1.18255E-09 -1.20084E-09 -1.21885E-09 -1.23662E-09 -1.25416E-09 -1.27149E-09 -1.28865E-09
  -1.30565E-09 -1.32251E-09 -1.33926E-09 -1.35591E-09 -1.37250E-09 -1.38905E-09 -1.40558E-09 -1.42211E-09 -1.43866E-09 -1.45526E-09
  -1.47193E-09 -1.48869E-09 -1.50557E-09 -1.52258E-09 -1.53976E-09 -1.55712E-09 -1.57469E-09 -1.59248E-09 -1.61053E-09 -1.62886E-09
  -1.64748E-09 -1.66642E-09 -1.68571E-09 -1.70536E-09 -1.72540E-09 -1.74585E-09 -1.76673E-09 -1.78808E-09 -1.80990E-09 -1.83222E-09
  -1.85507E-09 -1.87847E-09 -1.90243E-09 -1.92699E-09 -1.95217E-09 -1.97798E-09 -2.00446E-09 -2.03162E-09 -2.05949E-09 -2.08808E-09
  -2.11743E-09 -2.14755E-09 -2.17844E-09 -2.21008E-09 -2.24244E-09 -2.27552E-09 -2.30928E-09 -2.34371E-09 -2.37879E-09 -2.41450E-09
  -2.45082E-09 -2.48774E-09 -2.52522E-09 -2.56325E-09 -2.60182E-09 -2.64090E-09 -2.68047E-09 -2.72052E-09 -2.76102E-09 -2.80195E-09
  -2.84330E-09 -2.88504E-09 -2.92716E-09 -2.96963E-09 -3.01244E-09 -3.05556E-09 -3.09899E-09 -3.14269E-09 -3.18664E-09 -3.23083E-09
  -3.27525E-09 -3.31986E-09 -3.36465E-09 -3.40960E-09 -3.45468E-09 -3.49989E-09 -3.54520E-09 -3.59059E-09 -3.63605E-09 -3.68154E-09
  -3.72705E-09 -3.77257E-09 -3.81807E-09 -3.86353E-09 -3.90893E-09 -3.95426E-09 -3.99950E-09 -4.04462E-09 -4.08960E-09 -4.13443E-09
  -4.17909E-09 -4.22355E-09 -4.26779E-09
 NY background values follow
    -5.886E-09   -5.764E-09   -5.642E-09   -5.520E-09   -5.398E-09   -5.275E-09   -5.153E-09   -5.031E-09   -4.908E-09   -4.786E-09
    -4.664E-09   -4.541E-09   -4.419E-09   -4.297E-09   -4.175E-09   -4.053E-09   -3.931E-09   -3.809E-09   -3.687E-09   -3.565E-09
    -3.443E-09   -3.322E-09   -3.201E-09   -3.079E-09   -2.958E-09   -2.837E-09   -2.717E-09   -2.596E-09   -2.476E-09   -2.356E-09
    -2.236E-09   -2.117E-09   -1.997E-09   -1.878E-09   -1.759E-09   -1.641E-09   -1.523E-09   -1.405E-09   -1.287E-09   -1.170E-09
    -1.053E-09   -9.364E-10   -8.202E-10   -7.044E-10   -5.889E-10   -4.739E-10   -3.593E-10   -2.450E-10   -1.313E-10   -1.796E-11
     9.495E-11    2.074E-10    3.194E-10    4.308E-10    5.418E-10    6.522E-10    7.620E-10    8.713E-10    9.800E-10    1.088E-09
     1.195E-09    1.302E-09    1.408E-09    1.513E-09    1.618E-09    1.721E-09    1.824E-09    1.926E-09    2.027E-09    2.128E-09
     2.227E-09    2.325E-09    2.423E-09    2.519E-09    2.615E-09    2.709E-09    2.802E-09    2.895E-09    2.986E-09    3.076E-09
     3.165E-09    3.252E-09    3.339E-09    3.424E-09    3.508E-09    3.591E-09    3.672E-09    3.752E-09    3.831E-09    3.908E-09
     3.984E-09    4.059E-09    4.132E-09    4.203E-09    4.273E-09    4.342E-09    4.409E-09    4.474E-09    4.538E-09    4.600E-09
     4.660E-09    4.719E-09    4.776E-09    4.831E-09    4.885E-09    4.937E-09    4.987E-09    5.035E-09    5.081E-09    5.126E-09
     5.168E-09    5.209E-09    5.248E-09    5.285E-09    5.320E-09    5.353E-09    5.384E-09    5.413E-09    5.440E-09    5.464E-09
     5.487E-09    5.508E-09    5.527E-09    5.544E-09    5.558E-09    5.570E-09    5.581E-09    5.589E-09    5.594E-09    5.598E-09
     5.599E-09    5.598E-09    5.595E-09    5.590E-09    5.582E-09    5.572E-09    5.559E-09    5.544E-09    5.527E-09    5.507E-09
     5.485E-09    5.461E-09    5.434E-09    5.404E-09    5.372E-09    5.338E-09    5.301E-09    5.262E-09    5.219E-09    5.175E-09
     5.127E-09    5.077E-09    5.025E-09    4.970E-09    4.912E-09    4.851E-09    4.788E-09    4.722E-09    4.653E-09    4.582E-09
     4.509E-09    4.433E-09    4.356E-09    4.276E-09    4.194E-09    4.110E-09    4.024E-09    3.937E-09    3.848E-09    3.757E-09
     3.665E-09    3.572E-09    3.477E-09    3.382E-09    3.285E-09    3.187E-09    3.088E-09    2.988E-09    2.888E-09    2.787E-09
     2.685E-09    2.583E-09    2.481E-09    2.378E-09    2.275E-09    2.172E-09    2.070E-09    1.967E-09    1.864E-09    1.762E-09
     1.660E-09    1.558E-09    1.457E-09    1.357E-09    1.257E-09    1.159E-09    1.061E-09    9.638E-10    8.680E-10    7.734E-10
     6.801E-10    5.882E-10    4.977E-10    4.088E-10    3.215E-10    2.360E-10    1.523E-10    7.046E-11   -9.352E-12   -8.721E-11
    -1.631E-10   -2.372E-10   -3.093E-10   -3.797E-10   -4.482E-10   -5.150E-10   -5.800E-10   -6.433E-10   -7.049E-10   -7.649E-10
    -8.232E-10   -8.800E-10   -9.352E-10   -9.889E-10   -1.041E-09   -1.092E-09   -1.141E-09   -1.189E-09   -1.235E-09   -1.281E-09
    -1.325E-09   -1.367E-09   -1.408E-09   -1.449E-09   -1.488E-09   -1.525E-09   -1.562E-09   -1.598E-09   -1.632E-09   -1.666E-09
    -1.698E-09   -1.730E-09   -1.760E-09   -1.790E-09   -1.819E-09   -1.847E-09   -1.874E-09   -1.900E-09   -1.926E-09   -1.951E-09
    -1.975E-09   -1.999E-09   -2.022E-09   -2.044E-09   -2.066E-09   -2.087E-09   -2.108E-09   -2.128E-09   -2.148E-09   -2.167E-09
    -2.186E-09   -2.205E-09   -2.223E-09   -2.241E-09   -2.259E-09   -2.277E-09   -2.294E-09   -2.311E-09   -2.328E-09   -2.345E-09
    -2.361E-09   -2.377E-09   -2.394E-09   -2.410E-09   -2.426E-09   -2.442E-09   -2.458E-09   -2.474E-09   -2.490E-09   -2.506E-09
    -2.523E-09   -2.539E-09   -2.555E-09   -2.572E-09   -2.588E-09   -2.605E-09   -2.623E-09   -2.640E-09   -2.657E-09   -2.675E-09
    -2.694E-09   -2.712E-09   -2.731E-09   -2.750E-09   -2.770E-09   -2.790E-09   -2.810E-09   -2.831E-09   -2.852E-09   -2.874E-09
    -2.897E-09   -2.920E-09   -2.943E-09   -2.967E-09   -2.992E-09   -3.017E-09   -3.043E-09   -3.070E-09   -3.098E-09   -3.126E-09
    -3.155E-09   -3.184E-09   -3.215E-09   -3.246E-09   -3.278E-09   -3.311E-09   -3.344E-09   -3.378E-09   -3.412E-09   -3.448E-09
    -3.484E-09   -3.520E-09   -3.557E-09   -3.595E-09   -3.633E-09   -3.671E-09   -3.711E-09   -3.750E-09   -3.790E-09   -3.831E-09
    -3.872E-09   -3.913E-09   -3.955E-09   -3.997E-09   -4.039E-09   -4.082E-09   -4.125E-09   -4.168E-09   -4.211E-09   -4.255E-09
    -4.299E-09   -4.343E-09   -4.387E-09   -4.432E-09   -4.476E-09   -4.521E-09   -4.566E-09   -4.611E-09   -4.656E-09   -4.701E-09
    -4.746E-09   -4.791E-09   -4.836E-09   -4.881E-09   -4.926E-09   -4.971E-09   -5.015E-09   -5.060E-09   -5.104E-09   -5.149E-09
    -5.193E-09   -5.237E-09   -5.281E-09
 Ala      Conc. = 4.20E-10
  -5.57404E-09 -5.43749E-09 -5.31340E-09 -5.17934E-09 -5.06109E-09 -4.93494E-09 -4.80725E-09 -4.74609E-09 -4.66479E-09 -4.51473E-09
  -4.44321E-09 -4.38753E-09 -4.26868E-09 -4.16690E-09 -4.07514E-09 -3.97054E-09 -3.85973E-09 -3.74555E-09 -3.62943E-09 -3.51202E-09
  -3.39382E-09 -3.27507E-09 -3.15594E-09 -3.03659E-09 -2.91712E-09 -2.79758E-09 -2.67804E-09 -2.55854E-09 -2.43913E-09 -2.31982E-09
  -2.20063E-09 -2.08165E-09 -1.96283E-09 -1.84422E-09 -1.72583E-09 -1.60770E-09 -1.48983E-09 -1.37220E-09 -1.25488E-09 -1.13790E-09
  -1.02118E-09 -9.04785E-10 -7.88763E-10 -6.73104E-10 -5.57790E-10 -4.42874E-10 -3.28325E-10 -2.14193E-10 -1.00485E-10  1.27693E-11
   1.25636E-10  2.38044E-10  3.49996E-10  4.61455E-10  5.72405E-10  6.82836E-10  7.92715E-10  9.02020E-10  1.01072E-09  1.11881E-09
   1.22624E-09  1.33300E-09  1.43906E-09  1.54440E-09  1.64899E-09  1.75283E-09  1.85586E-09  1.95809E-09  2.05948E-09  2.16000E-09
   2.25965E-09  2.35839E-09  2.45621E-09  2.55308E-09  2.64899E-09  2.74392E-09  2.83784E-09  2.93074E-09  3.02264E-09  3.11347E-09
   3.20326E-09  3.29198E-09  3.37965E-09  3.46626E-09  3.55181E-09  3.63636E-09  3.71991E-09  3.80254E-09  3.88432E-09  3.96536E-09
   4.04587E-09  4.12607E-09  4.20644E-09  4.28759E-09  4.37064E-09  4.45757E-09  4.55221E-09  4.66310E-09  4.81382E-09  5.09360E-09
   5.59400E-09  5.68614E-09  5.72921E-09  6.18115E-09  6.45619E-09  6.52970E-09  6.57622E-09  6.64329E-09  6.74491E-09  6.77101E-09
   6.51631E-09  6.15944E-09  6.28219E-09  6.17576E-09  5.74485E-09  5.61463E-09  5.57170E-09  5.55920E-09  5.55988E-09  5.56682E-09
   5.57672E-09  5.58778E-09  5.59897E-09  5.60961E-09  5.61927E-09  5.62765E-09  5.63453E-09  5.63974E-09  5.64317E-09  5.64472E-09
   5.64430E-09  5.64185E-09  5.63731E-09  5.63064E-09  5.62180E-09  5.61074E-09  5.59743E-09  5.58185E-09  5.56396E-09  5.54374E-09
   5.52116E-09  5.49619E-09  5.46882E-09  5.43902E-09  5.40678E-09  5.37206E-09  5.33486E-09  5.29514E-09  5.25291E-09  5.20814E-09
   5.16082E-09  5.11094E-09  5.05848E-09  5.00345E-09  4.94584E-09  4.88566E-09  4.82294E-09  4.75780E-09  4.69041E-09  4.62099E-09
   4.54986E-09  4.47746E-09  4.40461E-09  4.33293E-09  4.26644E-09  4.21837E-09  4.25657E-09  4.50742E-09  4.53573E-09  4.41233E-09
   4.29808E-09  4.21497E-09  4.14241E-09  4.06580E-09  3.98360E-09  3.92465E-09  3.84103E-09  3.56257E-09  3.09367E-09  2.89826E-09
   2.76429E-09  2.64671E-09  2.53537E-09  2.42699E-09  2.32018E-09  2.21439E-09  2.10931E-09  2.00477E-09  1.90078E-09  1.79731E-09
   1.69439E-09  1.59209E-09  1.49043E-09  1.38954E-09  1.28942E-09  1.19020E-09  1.09193E-09  9.94733E-10  8.98642E-10  8.03782E-10
   7.10227E-10  6.18062E-10  5.27383E-10  4.38267E-10  3.50812E-10  2.65098E-10  1.81243E-10  9.92860E-11  1.93367E-11 -5.86521E-11
  -1.34701E-10 -2.08847E-10 -2.81115E-10 -3.51548E-10 -4.20166E-10 -4.87012E-10 -5.52106E-10 -6.15482E-10 -6.77180E-10 -7.37228E-10
  -7.95643E-10 -8.52474E-10 -9.07746E-10 -9.61489E-10 -1.01374E-09 -1.06452E-09 -1.11385E-09 -1.16180E-09 -1.20838E-09 -1.25361E-09
  -1.29753E-09 -1.34017E-09 -1.38156E-09 -1.42174E-09 -1.46073E-09 -1.49857E-09 -1.53529E-09 -1.57091E-09 -1.60548E-09 -1.63901E-09
  -1.67155E-09 -1.70311E-09 -1.73374E-09 -1.76347E-09 -1.79231E-09 -1.82032E-09 -1.84752E-09 -1.87395E-09 -1.89961E-09 -1.92454E-09
  -1.94880E-09 -1.97241E-09 -1.99538E-09 -2.01775E-09 -2.03958E-09 -2.06086E-09 -2.08164E-09 -2.10195E-09 -2.12182E-09 -2.14130E-09
  -2.16038E-09 -2.17910E-09 -2.19749E-09 -2.21557E-09 -2.23336E-09 -2.25087E-09 -2.26815E-09 -2.28520E-09 -2.30205E-09 -2.31872E-09
  -2.33524E-09 -2.35163E-09 -2.36791E-09 -2.38410E-09 -2.40023E-09 -2.41632E-09 -2.43239E-09 -2.44846E-09 -2.46456E-09 -2.48072E-09
  -2.49694E-09 -2.51326E-09 -2.52969E-09 -2.54627E-09 -2.56301E-09 -2.57993E-09 -2.59706E-09 -2.61442E-09 -2.63204E-09 -2.64993E-09
  -2.66813E-09 -2.68664E-09 -2.70549E-09 -2.72472E-09 -2.74433E-09 -2.76436E-09 -2.78482E-09 -2.80574E-09 -2.82713E-09 -2.84903E-09
  -2.87146E-09 -2.89443E-09 -2.91798E-09 -2.94212E-09 -2.96687E-09 -2.99226E-09 -3.01832E-09 -3.04505E-09 -3.07250E-09 -3.10067E-09
  -3.12960E-09 -3.15929E-09 -3.18976E-09 -3.22097E-09 -3.25291E-09 -3.28556E-09 -3.31889E-09 -3.35290E-09 -3.38755E-09 -3.42283E-09
  -3.45873E-09 -3.49521E-09 -3.53226E-09 -3.56986E-09 -3.60800E-09 -3.64664E-09 -3.68578E-09 -3.72539E-09 -3.76545E-09 -3.80594E-09
  -3.84685E-09 -3.88815E-09 -3.92982E-09 -3.97185E-09 -4.01422E-09 -4.05689E-09 -4.09986E-09 -4.14311E-09 -4.18662E-09 -4.23035E-09
  -4.27431E-09 -4.31846E-09 -4.36279E-09 -4.40728E-09 -4.45190E-09 -4.49664E-09 -4.54149E-09 -4.58641E-09 -4.63139E-09 -4.67640E-09
  -4.72144E-09 -4.76648E-09 -4.81150E-09 -4.85647E-09 -4.90139E-09 -4.94623E-09 -4.99098E-09 -5.03560E-09 -5.08009E-09 -5.12442E-09
  -5.16857E-09 -5.21253E-09 -5.25627E-09
 GABA     Conc. = 1.02E-09
  -5.77809E-09 -5.65468E-09 -5.53110E-09 -5.40733E-09 -5.28338E-09 -5.15926E-09 -5.03494E-09 -4.91042E-09 -4.78570E-09 -4.66069E-09
  -4.53548E-09 -4.40997E-09 -4.28403E-09 -4.15782E-09 -4.03103E-09 -3.90370E-09 -3.77597E-09 -3.64725E-09 -3.51744E-09 -3.38656E-09
  -3.25397E-09 -3.11908E-09 -2.98123E-09 -2.83912E-09 -2.69083E-09 -2.53326E-09 -2.35974E-09 -2.15633E-09 -1.88601E-09 -1.43649E-09
  -1.19794E-09 -1.06457E-09 -4.32474E-10  3.66827E-11  1.02858E-10  3.82682E-10  7.08413E-10  9.15711E-10  1.02834E-09  9.65299E-10
   8.02309E-10  9.67812E-10  9.61937E-10  4.58388E-10  3.60970E-10  4.66861E-10  2.84581E-10  1.99219E-10  2.22542E-10  2.87576E-10
   3.73778E-10  4.71777E-10  5.77456E-10  6.89714E-10  8.07761E-10  9.31393E-10  1.06188E-09  1.20152E-09  1.35498E-09  1.53265E-09
   1.75788E-09  2.10134E-09  2.55514E-09  2.68688E-09  2.94201E-09  3.55127E-09  3.74327E-09  3.75683E-09  3.97207E-09  4.16721E-09
   4.28737E-09  4.29103E-09  4.09005E-09  3.91845E-09  4.05739E-09  3.80628E-09  3.38157E-09  3.48151E-09  3.52293E-09  3.48942E-09
   3.65744E-09  3.68604E-09  3.77364E-09  4.19309E-09  4.37685E-09  4.42676E-09  4.74255E-09  4.97941E-09  5.11421E-09  5.30030E-09
   5.35265E-09  5.38086E-09  5.60096E-09  5.57884E-09  5.33024E-09  5.43820E-09  5.46669E-09  5.24219E-09  5.20223E-09  5.20860E-09
   5.15486E-09  5.13377E-09  5.13575E-09  5.15066E-09  5.17327E-09  5.20030E-09  5.23007E-09  5.26147E-09  5.29373E-09  5.32636E-09
   5.35894E-09  5.39079E-09  5.42177E-09  5.45169E-09  5.48039E-09  5.50787E-09  5.53402E-09  5.55864E-09  5.58165E-09  5.60297E-09
   5.62253E-09  5.64033E-09  5.65630E-09  5.67038E-09  5.68253E-09  5.69272E-09  5.70091E-09  5.70706E-09  5.71115E-09  5.71316E-09
   5.71302E-09  5.71073E-09  5.70628E-09  5.69962E-09  5.69075E-09  5.67963E-09  5.66624E-09  5.65055E-09  5.63254E-09  5.61221E-09
   5.58952E-09  5.56447E-09  5.53704E-09  5.50720E-09  5.47493E-09  5.44023E-09  5.40307E-09  5.36346E-09  5.32139E-09  5.27683E-09
   5.22980E-09  5.18030E-09  5.12833E-09  5.07392E-09  5.01709E-09  4.95789E-09  4.89642E-09  4.83286E-09  4.76753E-09  4.70081E-09
   4.63331E-09  4.56596E-09  4.50048E-09  4.44026E-09  4.39350E-09  4.38540E-09  4.53249E-09  5.27755E-09  5.54297E-09  5.39036E-09
   5.23127E-09  5.15216E-09  5.10720E-09  5.05784E-09  4.98898E-09  4.97750E-09  4.94951E-09  4.49507E-09  3.46558E-09  3.07596E-09
   2.88559E-09  2.74366E-09  2.61932E-09  2.50304E-09  2.39103E-09  2.28160E-09  2.17385E-09  2.06730E-09  1.96175E-09  1.85703E-09
   1.75310E-09  1.64996E-09  1.54760E-09  1.44611E-09  1.34549E-09  1.24582E-09  1.14716E-09  1.04962E-09  9.53219E-10  8.58083E-10
   7.64279E-10  6.71888E-10  5.81002E-10  4.91696E-10  4.04065E-10  3.18188E-10  2.34182E-10  1.52082E-10  7.20002E-11 -6.11338E-12
  -8.22796E-11 -1.56537E-10 -2.28912E-10 -2.99445E-10 -3.68159E-10 -4.35096E-10 -5.00278E-10 -5.63737E-10 -6.25515E-10 -6.85641E-10
  -7.44131E-10 -8.01034E-10 -8.56377E-10 -9.10187E-10 -9.62501E-10 -1.01335E-09 -1.06274E-09 -1.11075E-09 -1.15739E-09 -1.20268E-09
