 LCModel (Version 6.3-1R) Copyright: S.W. Provencher.          Ref.: Magn. Reson. Med. 30:672-679 (1993).                
 onepulse 15x19_ftSpec_smooth_lcm
 26 lines in following concentration table = NCONC+1
    Conc.  %SD /Cr+PCr  Metabolite                                         
 1.07E-11 999% 3.9E-02 Ala                                                 
    0.000 999%   0.000 Asp                                                 
 2.75E-10 129%   1.000 Cr                                                  
 4.18E-10 162%   1.520 GABA                                                
    0.000 999%   0.000 Glc                                                 
 6.69E-10 108%   2.431 Gln                                                 
    0.000 999%   0.000 Glu                                                 
    0.000 999%   0.000 Glyc                                                
    0.000 999%   0.000 GPC                                                 
 8.58E-10  53%   3.118 GSH                                                 
 1.71E-09  17%   6.203 Ins                                                 
    0.000 999%   0.000 Lac                                                 
 2.06E-10 147%   0.750 NAAG                                                
 3.57E-10 115%   1.299 NAA                                                 
    0.000 999%   0.000 PCh                                                 
    0.000 999%   0.000 PCr                                                 
 2.68E-09  25%   9.753 PE                                                  
 1.57E-10 107%   0.569 Scyllo                                              
 1.72E-09  75%   6.254 Ser                                                 
    0.000 999%   0.000 Tau                                                 
    0.000 999%   0.000 GPC+PCh                                             
 5.64E-10  47%   2.049 NAA+NAAG                                            
 1.71E-09  17%   6.203 Ins+Glyc                                            
 2.75E-10 129%   1.000 Cr+PCr                                              
 6.69E-10 108%   2.431 Glu+Gln                                             
   6 lines in following misc. output table
  FWHM = 0.123 ppm    S/N =   3                                            
  Data shift = 0.447 ppm                                                   
  Ph:  87 deg       4.7 deg/ppm                                            
  alphaB,S = 2.8E+00,   1.4E+01                                            
    9 spline knots.   Ns = 5(1)                                            
  (12) 4 infls.   (11) 3 extrs.                                            
  363 points on ppm-axis = NY
      4.250000     4.238821     4.227641     4.216462     4.205282     4.194103     4.182923     4.171744     4.160564     4.149385
      4.138206     4.127026     4.115847     4.104667     4.093488     4.082308     4.071129     4.059949     4.048770     4.037591
      4.026411     4.015232     4.004052     3.992873     3.981693     3.970514     3.959334     3.948155     3.936975     3.925796
      3.914617     3.903437     3.892258     3.881078     3.869899     3.858719     3.847540     3.836360     3.825181     3.814002
      3.802822     3.791643     3.780463     3.769284     3.758104     3.746925     3.735745     3.724566     3.713387     3.702207
      3.691028     3.679848     3.668669     3.657489     3.646310     3.635130     3.623951     3.612772     3.601592     3.590413
      3.579233     3.568054     3.556874     3.545695     3.534515     3.523336     3.512156     3.500977     3.489798     3.478618
      3.467439     3.456259     3.445080     3.433900     3.422721     3.411541     3.400362     3.389183     3.378003     3.366824
      3.355644     3.344465     3.333285     3.322106     3.310926     3.299747     3.288568     3.277388     3.266209     3.255029
      3.243850     3.232670     3.221491     3.210311     3.199132     3.187953     3.176773     3.165594     3.154414     3.143235
      3.132055     3.120876     3.109696     3.098517     3.087337     3.076158     3.064979     3.053799     3.042620     3.031440
      3.020261     3.009081     2.997902     2.986722     2.975543     2.964364     2.953184     2.942005     2.930825     2.919646
      2.908466     2.897287     2.886107     2.874928     2.863749     2.852569     2.841390     2.830210     2.819031     2.807851
      2.796672     2.785492     2.774313     2.763134     2.751954     2.740775     2.729595     2.718416     2.707236     2.696057
      2.684877     2.673698     2.662519     2.651339     2.640160     2.628980     2.617801     2.606621     2.595442     2.584262
      2.573083     2.561903     2.550724     2.539545     2.528365     2.517186     2.506006     2.494827     2.483647     2.472468
      2.461288     2.450109     2.438930     2.427750     2.416571     2.405391     2.394212     2.383032     2.371853     2.360673
      2.349494     2.338315     2.327135     2.315956     2.304776     2.293597     2.282417     2.271238     2.260058     2.248879
      2.237700     2.226520     2.215341     2.204161     2.192982     2.181802     2.170623     2.159443     2.148264     2.137084
      2.125905     2.114726     2.103546     2.092367     2.081187     2.070008     2.058828     2.047649     2.036469     2.025290
      2.014111     2.002931     1.991752     1.980572     1.969393     1.958213     1.947034     1.935854     1.924675     1.913496
      1.902316     1.891137     1.879957     1.868778     1.857598     1.846419     1.835239     1.824060     1.812881     1.801701
      1.790522     1.779342     1.768163     1.756983     1.745804     1.734624     1.723445     1.712265     1.701086     1.689907
      1.678727     1.667548     1.656368     1.645189     1.634009     1.622830     1.611650     1.600471     1.589292     1.578112
      1.566933     1.555753     1.544574     1.533394     1.522215     1.511035     1.499856     1.488677     1.477497     1.466318
      1.455138     1.443959     1.432779     1.421600     1.410420     1.399241     1.388062     1.376882     1.365703     1.354523
      1.343344     1.332164     1.320985     1.309805     1.298626     1.287446     1.276267     1.265088     1.253908     1.242729
      1.231549     1.220370     1.209190     1.198011     1.186831     1.175652     1.164473     1.153293     1.142114     1.130934
      1.119755     1.108575     1.097396     1.086216     1.075037     1.063858     1.052678     1.041499     1.030319     1.019140
      1.007960     0.996781     0.985601     0.974422     0.963243     0.952063     0.940884     0.929704     0.918525     0.907345
      0.896166     0.884986     0.873807     0.862628     0.851448     0.840269     0.829089     0.817910     0.806730     0.795551
      0.784371     0.773192     0.762012     0.750833     0.739654     0.728474     0.717295     0.706115     0.694936     0.683756
      0.672577     0.661397     0.650218     0.639039     0.627859     0.616680     0.605500     0.594321     0.583141     0.571962
      0.560782     0.549603     0.538424     0.527244     0.516065     0.504885     0.493706     0.482526     0.471347     0.460167
      0.448988     0.437809     0.426629     0.415450     0.404270     0.393091     0.381911     0.370732     0.359552     0.348373
      0.337193     0.326014     0.314835     0.303655     0.292476     0.281296     0.270117     0.258937     0.247758     0.236578
      0.225399     0.214220     0.203040
 NY phased data points follow
   9.88663E-09  1.10960E-08  1.02791E-08  1.13374E-08  1.00864E-08  1.15113E-08  1.06676E-08  1.12239E-08  1.05824E-08  1.15819E-08
   1.08515E-08  1.09061E-08  9.73290E-09  1.03572E-08  9.80389E-09  1.12962E-08  1.05129E-08  1.14901E-08  9.81342E-09  1.14914E-08
   1.01249E-08  1.06431E-08  1.06282E-08  1.23294E-08  1.24222E-08  1.25761E-08  1.30017E-08  1.22109E-08  1.07805E-08  1.11645E-08
   9.04404E-09  1.00942E-08  8.77271E-09  9.68756E-09  7.82960E-09  9.22233E-09  8.63367E-09  8.15874E-09  7.37148E-09  6.68890E-09
   6.68202E-09  7.77866E-09  6.49796E-09  7.34146E-09  6.87960E-09  7.37863E-09  6.51155E-09  7.12542E-09  6.13663E-09  6.04028E-09
   4.74758E-09  5.95819E-09  4.86914E-09  7.69435E-09  8.38287E-09  1.18287E-08  1.13939E-08  1.23456E-08  1.09948E-08  1.09971E-08
   9.10054E-09  1.01325E-08  8.27726E-09  8.51526E-09  7.32628E-09  7.82944E-09  5.39573E-09  5.66801E-09  5.86896E-09  6.56647E-09
   7.42288E-09  1.02186E-08  1.18998E-08  1.33296E-08  1.31498E-08  1.28362E-08  1.20325E-08  1.24978E-08  1.14698E-08  1.15819E-08
   1.06719E-08  1.09472E-08  1.07429E-08  1.10758E-08  9.74202E-09  1.03157E-08  9.13421E-09  9.08633E-09  8.98315E-09  8.18814E-09
   8.36663E-09  8.02066E-09  8.41830E-09  8.22972E-09  7.25860E-09  8.24486E-09  7.41543E-09  7.69502E-09  7.27457E-09  7.52338E-09
   6.30619E-09  6.15388E-09  5.82821E-09  5.09855E-09  5.60589E-09  5.45788E-09  5.74500E-09  5.44745E-09  5.31845E-09  6.96307E-09
   5.90511E-09  6.40276E-09  5.98618E-09  7.25515E-09  6.53464E-09  5.89229E-09  6.00895E-09  5.30049E-09  4.57882E-09  4.59126E-09
   4.64925E-09  5.26991E-09  4.47548E-09  4.54767E-09  5.01763E-09  5.02098E-09  4.55032E-09  4.14037E-09  4.39798E-09  3.71477E-09
   3.72694E-09  3.98235E-09  4.77802E-09  5.67448E-09  5.02742E-09  4.80759E-09  4.93601E-09  5.22736E-09  6.18151E-09  5.87464E-09
   6.23559E-09  5.77818E-09  5.95307E-09  6.09483E-09  6.02631E-09  6.34586E-09  6.13299E-09  5.69178E-09  5.78799E-09  5.54890E-09
   6.14129E-09  6.30332E-09  6.47278E-09  6.83870E-09  6.01985E-09  5.05744E-09  5.31702E-09  4.62047E-09  4.02893E-09  3.85011E-09
   4.73346E-09  5.86559E-09  9.20419E-09  1.24798E-08  1.51177E-08  1.63862E-08  1.65323E-08  1.57522E-08  1.57170E-08  1.64375E-08
   1.55448E-08  1.53709E-08  1.53056E-08  1.57895E-08  1.49705E-08  1.52542E-08  1.52533E-08  1.45610E-08  1.43807E-08  1.34927E-08
   1.36002E-08  1.26449E-08  1.23436E-08  1.08150E-08  9.67226E-09  8.05273E-09  6.83173E-09  5.59008E-09  3.37699E-09  1.81974E-09
  -6.39579E-10 -1.74875E-09 -4.11008E-09 -4.34331E-09 -5.70652E-09 -7.35863E-09 -8.07623E-09 -8.07450E-09 -7.83141E-09 -7.90099E-09
  -7.19463E-09 -7.59748E-09 -5.90843E-09 -5.69077E-09 -4.16593E-09 -2.92804E-09 -2.35245E-09 -1.73700E-09 -2.12861E-09 -1.40178E-09
  -1.08137E-09 -1.69777E-09 -1.91048E-09 -1.26202E-09 -1.34227E-09 -1.91429E-09 -7.27903E-10 -1.62288E-09 -3.00628E-10 -8.99762E-10
  -3.97796E-10 -2.60326E-10 -7.48753E-10 -1.42169E-09 -9.70424E-10 -1.62108E-09 -8.96378E-10 -1.23648E-09 -4.77187E-10 -4.57679E-10
  -3.07165E-10 -5.94764E-10 -4.08467E-10 -5.19094E-10 -5.59112E-10 -1.43124E-09 -9.39047E-10 -9.64491E-10 -9.44984E-10 -1.34920E-09
  -7.77560E-10 -8.31934E-10 -1.12461E-09 -8.06662E-10 -5.89386E-10  1.85182E-13 -9.59684E-11 -1.06304E-10  2.64085E-10 -2.38582E-10
   6.74224E-11  6.41914E-12 -4.85804E-10 -9.11649E-10 -5.91297E-10 -1.43052E-09 -1.30169E-09 -1.53691E-09 -1.78392E-09 -1.76936E-09
  -1.55920E-09 -1.28950E-09 -1.10222E-09 -1.22570E-09 -1.18528E-09 -6.88338E-10 -9.19729E-10 -4.88427E-10 -2.70839E-10 -2.35160E-10
  -2.55787E-12  1.72248E-10 -1.16921E-10 -3.87670E-10  2.31744E-10 -4.85444E-10 -6.18096E-10 -1.69903E-10 -7.87835E-11  5.91076E-11
  -3.60203E-10  2.22537E-10  1.04149E-10 -1.04356E-09 -3.88585E-10 -4.19845E-10 -7.73409E-10  8.08078E-11 -4.90418E-10 -1.06467E-09
  -1.03563E-09 -5.47436E-10 -8.24087E-10 -8.63973E-10 -1.51375E-09 -8.06337E-10 -1.19917E-09 -1.02075E-09 -1.24348E-09 -1.43191E-09
  -1.45253E-09 -9.12388E-10 -1.63998E-09 -9.40476E-10 -1.85596E-09 -1.40657E-09 -1.22172E-09 -1.44264E-09 -1.56127E-09 -1.40095E-09
  -1.96146E-09 -1.70825E-09 -1.91271E-09 -1.75161E-09 -1.68668E-09 -2.11691E-09 -1.83615E-09 -2.33403E-09 -1.75356E-09 -1.87777E-09
  -2.09974E-09 -1.98583E-09 -1.76214E-09 -2.64651E-09 -1.79112E-09 -2.32353E-09 -2.60328E-09 -1.60178E-09 -2.38917E-09 -2.45316E-09
  -2.09335E-09 -2.13131E-09 -2.22106E-09 -2.40725E-09 -1.92366E-09 -2.29334E-09 -2.42241E-09 -2.27023E-09 -2.34296E-09 -2.30996E-09
  -2.32745E-09 -3.02069E-09 -2.33777E-09 -1.99809E-09 -2.60212E-09 -2.64223E-09 -2.41800E-09 -2.22760E-09 -2.30364E-09 -2.31124E-09
  -3.03685E-09 -2.51137E-09 -1.96130E-09 -2.89894E-09 -2.43368E-09 -2.69404E-09 -2.34569E-09 -2.25881E-09 -2.55685E-09 -2.56586E-09
  -2.32500E-09 -2.07595E-09 -2.54484E-09
 NY points of the fit to the data follow
   1.15664E-08  1.03349E-08  9.92202E-09  9.96875E-09  1.07294E-08  1.09688E-08  1.08028E-08  1.14328E-08  1.20903E-08  1.10029E-08
   1.03456E-08  1.00304E-08  1.00399E-08  1.05697E-08  1.05125E-08  1.00479E-08  1.02739E-08  1.13649E-08  1.08441E-08  9.54973E-09
   1.01811E-08  1.14332E-08  1.21449E-08  1.22718E-08  1.24555E-08  1.26773E-08  1.23117E-08  1.15782E-08  1.07214E-08  1.05745E-08
   1.03410E-08  9.94398E-09  9.38736E-09  8.69387E-09  8.23271E-09  7.66831E-09  7.55154E-09  7.67306E-09  7.65596E-09  7.64043E-09
   7.64330E-09  7.49383E-09  6.90041E-09  6.56811E-09  6.48602E-09  6.44183E-09  6.52348E-09  6.47011E-09  6.86678E-09  7.34756E-09
   7.91163E-09  8.23871E-09  8.47477E-09  8.94843E-09  9.29128E-09  9.27826E-09  9.53583E-09  9.83547E-09  9.81627E-09  9.56014E-09
   9.44192E-09  9.30892E-09  9.30276E-09  9.13400E-09  8.88931E-09  8.87623E-09  8.96569E-09  8.79889E-09  8.72568E-09  9.10906E-09
   9.50008E-09  9.63377E-09  9.91193E-09  1.01640E-08  1.05309E-08  1.10008E-08  1.15209E-08  1.22143E-08  1.19183E-08  1.13535E-08
   1.07807E-08  1.03640E-08  1.00756E-08  9.73947E-09  9.45355E-09  9.04664E-09  8.38788E-09  7.46917E-09  6.47626E-09  6.38887E-09
   6.37831E-09  6.42990E-09  6.49752E-09  6.43883E-09  6.38169E-09  6.43910E-09  6.39890E-09  6.32845E-09  6.33699E-09  6.32469E-09
   6.31377E-09  6.30892E-09  6.30506E-09  6.30887E-09  6.30665E-09  6.30030E-09  6.29271E-09  6.28480E-09  6.27552E-09  6.26190E-09
   6.24067E-09  6.21825E-09  6.20481E-09  6.18202E-09  6.15248E-09  6.12954E-09  6.10666E-09  6.08265E-09  6.05727E-09  6.03054E-09
   6.00230E-09  5.97274E-09  5.94185E-09  5.90967E-09  5.87623E-09  5.84159E-09  5.80576E-09  5.76880E-09  5.73076E-09  5.69166E-09
   5.65153E-09  5.61042E-09  5.56836E-09  5.52540E-09  5.48155E-09  5.43687E-09  5.39138E-09  5.34512E-09  5.29814E-09  5.25046E-09
   5.20215E-09  5.15324E-09  5.10378E-09  5.05385E-09  5.00346E-09  4.95270E-09  4.90166E-09  4.85045E-09  4.79913E-09  4.74790E-09
   4.69691E-09  4.64632E-09  4.59647E-09  4.54773E-09  4.50052E-09  4.45555E-09  4.41380E-09  4.37663E-09  4.34614E-09  4.32573E-09
   4.32092E-09  4.34182E-09  4.40813E-09  4.56396E-09  4.92856E-09  5.94249E-09  1.00062E-08  1.63720E-08  1.79811E-08  1.70900E-08
   1.62192E-08  1.59456E-08  1.59781E-08  1.60806E-08  1.64679E-08  1.74023E-08  1.74596E-08  1.33517E-08  7.02132E-09  4.90853E-09
   4.12283E-09  3.70331E-09  3.43016E-09  3.22944E-09  3.06965E-09  2.93515E-09  2.81734E-09  2.71109E-09  2.61318E-09  2.52149E-09
   2.43454E-09  2.35132E-09  2.27107E-09  2.19325E-09  2.11744E-09  2.04330E-09  1.97061E-09  1.89917E-09  1.82882E-09  1.75945E-09
   1.69095E-09  1.62323E-09  1.55624E-09  1.48993E-09  1.42425E-09  1.35917E-09  1.29464E-09  1.23068E-09  1.16723E-09  1.10429E-09
   1.04184E-09  9.79889E-10  9.18416E-10  8.57425E-10  7.96891E-10  7.36828E-10  6.77242E-10  6.18122E-10  5.59459E-10  5.01271E-10
   4.43561E-10  3.86325E-10  3.29564E-10  2.73277E-10  2.17465E-10  1.62164E-10  1.07338E-10  5.30062E-11 -8.12128E-13 -5.41260E-11
  -1.06930E-10 -1.59217E-10 -2.10978E-10 -2.62217E-10 -3.12920E-10 -3.63081E-10 -4.12703E-10 -4.61776E-10 -5.10296E-10 -5.58247E-10
  -6.05641E-10 -6.52460E-10 -6.98701E-10 -7.44363E-10 -7.89443E-10 -8.33940E-10 -8.77854E-10 -9.21182E-10 -9.63921E-10 -1.00607E-09
  -1.04763E-09 -1.08860E-09 -1.12898E-09 -1.16876E-09 -1.20794E-09 -1.24653E-09 -1.28452E-09 -1.32190E-09 -1.35868E-09 -1.39486E-09
  -1.43043E-09 -1.46540E-09 -1.49975E-09 -1.53350E-09 -1.56663E-09 -1.59915E-09 -1.63106E-09 -1.66234E-09 -1.69301E-09 -1.72306E-09
  -1.75249E-09 -1.78129E-09 -1.80947E-09 -1.83702E-09 -1.86394E-09 -1.89024E-09 -1.91590E-09 -1.94093E-09 -1.96532E-09 -1.98908E-09
  -2.01220E-09 -2.03468E-09 -2.05652E-09 -2.07771E-09 -2.09826E-09 -2.11816E-09 -2.13742E-09 -2.15602E-09 -2.17397E-09 -2.19127E-09
  -2.20791E-09 -2.22389E-09 -2.23922E-09 -2.25388E-09 -2.26788E-09 -2.28121E-09 -2.29388E-09 -2.30587E-09 -2.31719E-09 -2.32784E-09
  -2.33782E-09 -2.34712E-09 -2.35573E-09 -2.36367E-09 -2.37091E-09 -2.37746E-09 -2.38332E-09 -2.38846E-09 -2.39290E-09 -2.39663E-09
  -2.39964E-09 -2.40193E-09 -2.40349E-09 -2.40432E-09 -2.40441E-09 -2.40376E-09 -2.40237E-09 -2.40023E-09 -2.39733E-09 -2.39368E-09
  -2.38927E-09 -2.38409E-09 -2.37815E-09 -2.37143E-09 -2.36395E-09 -2.35567E-09 -2.34662E-09 -2.33678E-09 -2.32616E-09 -2.31474E-09
  -2.30253E-09 -2.28952E-09 -2.27571E-09 -2.26110E-09 -2.24568E-09 -2.22945E-09 -2.21241E-09 -2.19456E-09 -2.17590E-09 -2.15641E-09
  -2.13611E-09 -2.11498E-09 -2.09303E-09 -2.07026E-09 -2.04666E-09 -2.02223E-09 -1.99696E-09 -1.97087E-09 -1.94395E-09 -1.91619E-09
  -1.88760E-09 -1.85817E-09 -1.82790E-09 -1.79680E-09 -1.76485E-09 -1.73207E-09 -1.69845E-09 -1.66399E-09 -1.62869E-09 -1.59254E-09
  -1.55556E-09 -1.51773E-09 -1.47907E-09
 NY background values follow
     6.604E-09    6.662E-09    6.718E-09    6.773E-09    6.827E-09    6.880E-09    6.931E-09    6.982E-09    7.031E-09    7.079E-09
     7.125E-09    7.171E-09    7.215E-09    7.258E-09    7.300E-09    7.341E-09    7.380E-09    7.419E-09    7.456E-09    7.492E-09
     7.527E-09    7.560E-09    7.593E-09    7.624E-09    7.654E-09    7.683E-09    7.711E-09    7.738E-09    7.763E-09    7.788E-09
     7.811E-09    7.833E-09    7.854E-09    7.873E-09    7.892E-09    7.909E-09    7.926E-09    7.941E-09    7.955E-09    7.968E-09
     7.979E-09    7.990E-09    8.000E-09    8.008E-09    8.015E-09    8.022E-09    8.027E-09    8.031E-09    8.034E-09    8.036E-09
     8.037E-09    8.036E-09    8.035E-09    8.033E-09    8.029E-09    8.025E-09    8.019E-09    8.013E-09    8.005E-09    7.996E-09
     7.987E-09    7.976E-09    7.964E-09    7.951E-09    7.938E-09    7.923E-09    7.907E-09    7.891E-09    7.873E-09    7.854E-09
     7.835E-09    7.814E-09    7.793E-09    7.770E-09    7.747E-09    7.722E-09    7.697E-09    7.671E-09    7.644E-09    7.616E-09
     7.587E-09    7.557E-09    7.526E-09    7.494E-09    7.462E-09    7.428E-09    7.394E-09    7.359E-09    7.323E-09    7.286E-09
     7.248E-09    7.210E-09    7.171E-09    7.131E-09    7.090E-09    7.048E-09    7.005E-09    6.962E-09    6.918E-09    6.873E-09
     6.827E-09    6.781E-09    6.734E-09    6.686E-09    6.637E-09    6.588E-09    6.538E-09    6.487E-09    6.436E-09    6.384E-09
     6.331E-09    6.277E-09    6.223E-09    6.168E-09    6.113E-09    6.057E-09    6.000E-09    5.943E-09    5.885E-09    5.826E-09
     5.767E-09    5.707E-09    5.647E-09    5.586E-09    5.525E-09    5.463E-09    5.400E-09    5.337E-09    5.273E-09    5.209E-09
     5.145E-09    5.080E-09    5.014E-09    4.948E-09    4.882E-09    4.815E-09    4.748E-09    4.680E-09    4.612E-09    4.544E-09
     4.475E-09    4.406E-09    4.337E-09    4.267E-09    4.197E-09    4.127E-09    4.056E-09    3.985E-09    3.914E-09    3.843E-09
     3.771E-09    3.699E-09    3.627E-09    3.555E-09    3.483E-09    3.410E-09    3.337E-09    3.265E-09    3.192E-09    3.118E-09
     3.045E-09    2.972E-09    2.898E-09    2.825E-09    2.751E-09    2.678E-09    2.604E-09    2.531E-09    2.457E-09    2.384E-09
     2.310E-09    2.236E-09    2.163E-09    2.090E-09    2.016E-09    1.943E-09    1.870E-09    1.797E-09    1.724E-09    1.651E-09
     1.578E-09    1.506E-09    1.433E-09    1.361E-09    1.289E-09    1.218E-09    1.146E-09    1.075E-09    1.004E-09    9.329E-10
     8.623E-10    7.920E-10    7.219E-10    6.522E-10    5.827E-10    5.135E-10    4.446E-10    3.760E-10    3.078E-10    2.399E-10
     1.724E-10    1.052E-10    3.832E-11   -2.814E-11   -9.423E-11   -1.599E-10   -2.252E-10   -2.901E-10   -3.546E-10   -4.186E-10
    -4.823E-10   -5.454E-10   -6.082E-10   -6.704E-10   -7.322E-10   -7.936E-10   -8.544E-10   -9.148E-10   -9.746E-10   -1.034E-09
    -1.093E-09   -1.151E-09   -1.209E-09   -1.266E-09   -1.323E-09   -1.379E-09   -1.435E-09   -1.490E-09   -1.544E-09   -1.598E-09
    -1.651E-09   -1.704E-09   -1.756E-09   -1.808E-09   -1.859E-09   -1.909E-09   -1.959E-09   -2.008E-09   -2.056E-09   -2.104E-09
    -2.151E-09   -2.197E-09   -2.243E-09   -2.288E-09   -2.333E-09   -2.377E-09   -2.420E-09   -2.462E-09   -2.504E-09   -2.545E-09
    -2.586E-09   -2.625E-09   -2.664E-09   -2.703E-09   -2.740E-09   -2.778E-09   -2.814E-09   -2.850E-09   -2.885E-09   -2.919E-09
    -2.953E-09   -2.985E-09   -3.018E-09   -3.049E-09   -3.080E-09   -3.110E-09   -3.140E-09   -3.169E-09   -3.197E-09   -3.224E-09
    -3.251E-09   -3.277E-09   -3.302E-09   -3.327E-09   -3.350E-09   -3.374E-09   -3.396E-09   -3.418E-09   -3.439E-09   -3.459E-09
    -3.479E-09   -3.498E-09   -3.516E-09   -3.533E-09   -3.550E-09   -3.566E-09   -3.582E-09   -3.596E-09   -3.610E-09   -3.623E-09
    -3.636E-09   -3.647E-09   -3.658E-09   -3.669E-09   -3.678E-09   -3.687E-09   -3.695E-09   -3.702E-09   -3.709E-09   -3.715E-09
    -3.720E-09   -3.724E-09   -3.728E-09   -3.731E-09   -3.733E-09   -3.734E-09   -3.735E-09   -3.735E-09   -3.734E-09   -3.732E-09
    -3.730E-09   -3.727E-09   -3.723E-09   -3.718E-09   -3.712E-09   -3.706E-09   -3.699E-09   -3.691E-09   -3.682E-09   -3.672E-09
    -3.662E-09   -3.651E-09   -3.639E-09   -3.626E-09   -3.612E-09   -3.598E-09   -3.582E-09   -3.566E-09   -3.549E-09   -3.531E-09
    -3.513E-09   -3.493E-09   -3.473E-09   -3.452E-09   -3.429E-09   -3.407E-09   -3.383E-09   -3.358E-09   -3.333E-09   -3.306E-09
    -3.279E-09   -3.251E-09   -3.222E-09   -3.192E-09   -3.161E-09   -3.130E-09   -3.098E-09   -3.064E-09   -3.030E-09   -2.995E-09
    -2.959E-09   -2.922E-09   -2.885E-09   -2.846E-09   -2.807E-09   -2.767E-09   -2.726E-09   -2.684E-09   -2.641E-09   -2.597E-09
    -2.552E-09   -2.507E-09   -2.461E-09
 Ala      Conc. = 1.07E-11
   6.61279E-09  6.66881E-09  6.72476E-09  6.77919E-09  6.83226E-09  6.88457E-09  6.93459E-09  6.98293E-09  7.03277E-09  7.08040E-09
   7.12475E-09  7.17040E-09  7.21521E-09  7.25769E-09  7.29953E-09  7.34042E-09  7.38017E-09  7.41872E-09  7.45608E-09  7.49225E-09
   7.52721E-09  7.56099E-09  7.59357E-09  7.62497E-09  7.65521E-09  7.68427E-09  7.71213E-09  7.73884E-09  7.76440E-09  7.78877E-09
   7.81201E-09  7.83407E-09  7.85498E-09  7.87476E-09  7.89338E-09  7.91086E-09  7.92721E-09  7.94243E-09  7.95651E-09  7.96948E-09
   7.98131E-09  7.99203E-09  8.00164E-09  8.01015E-09  8.01753E-09  8.02384E-09  8.02904E-09  8.03313E-09  8.03617E-09  8.03813E-09
   8.03900E-09  8.03877E-09  8.03751E-09  8.03519E-09  8.03178E-09  8.02732E-09  8.02182E-09  8.01530E-09  8.00771E-09  7.99915E-09
   7.98953E-09  7.97889E-09  7.96723E-09  7.95458E-09  7.94091E-09  7.92626E-09  7.91060E-09  7.89398E-09  7.87637E-09  7.85778E-09
   7.83823E-09  7.81773E-09  7.79627E-09  7.77386E-09  7.75051E-09  7.72624E-09  7.70102E-09  7.67491E-09  7.64786E-09  7.61993E-09
   7.59110E-09  7.56136E-09  7.53074E-09  7.49927E-09  7.46695E-09  7.43374E-09  7.39972E-09  7.36485E-09  7.32917E-09  7.29269E-09
   7.25541E-09  7.21741E-09  7.17867E-09  7.13922E-09  7.09915E-09  7.05853E-09  7.01753E-09  6.97645E-09  6.93607E-09  6.89875E-09
   6.86215E-09  6.81312E-09  6.76701E-09  6.72754E-09  6.67992E-09  6.62785E-09  6.57515E-09  6.52298E-09  6.47069E-09  6.41514E-09
   6.35316E-09  6.29120E-09  6.23936E-09  6.17928E-09  6.11350E-09  6.05527E-09  5.99806E-09  5.94067E-09  5.88280E-09  5.82444E-09
   5.76539E-09  5.70580E-09  5.64561E-09  5.58486E-09  5.52353E-09  5.46166E-09  5.39923E-09  5.33628E-09  5.27282E-09  5.20885E-09
   5.14439E-09  5.07946E-09  5.01405E-09  4.94821E-09  4.88191E-09  4.81520E-09  4.74806E-09  4.68052E-09  4.61260E-09  4.54430E-09
   4.47565E-09  4.40664E-09  4.33729E-09  4.26765E-09  4.19767E-09  4.12738E-09  4.05681E-09  3.98598E-09  3.91487E-09  3.84354E-09
   3.77198E-09  3.70017E-09  3.62817E-09  3.55599E-09  3.48361E-09  3.41105E-09  3.33837E-09  3.26553E-09  3.19256E-09  3.11951E-09
   3.04634E-09  2.97312E-09  2.89986E-09  2.82663E-09  2.75353E-09  2.68093E-09  2.61074E-09  2.54682E-09  2.47593E-09  2.40127E-09
   2.32657E-09  2.25274E-09  2.17942E-09  2.10620E-09  2.03327E-09  1.96127E-09  1.88920E-09  1.81264E-09  1.73030E-09  1.65490E-09
   1.58135E-09  1.50840E-09  1.43581E-09  1.36351E-09  1.29145E-09  1.21963E-09  1.14804E-09  1.07668E-09  1.00556E-09  9.34701E-10
   8.64086E-10  7.93746E-10  7.23671E-10  6.53890E-10  5.84397E-10  5.15195E-10  4.46312E-10  3.77748E-10  3.09507E-10  2.41609E-10
   1.74059E-10  1.06854E-10  4.00135E-11 -2.64481E-11 -9.25345E-11 -1.58231E-10 -2.23534E-10 -2.88414E-10 -3.52888E-10 -4.16942E-10
  -4.80564E-10 -5.43738E-10 -6.06464E-10 -6.68727E-10 -7.30538E-10 -7.91872E-10 -8.52716E-10 -9.13074E-10 -9.72944E-10 -1.03230E-09
  -1.09114E-09 -1.14946E-09 -1.20725E-09 -1.26452E-09 -1.32125E-09 -1.37740E-09 -1.43302E-09 -1.48807E-09 -1.54255E-09 -1.59644E-09
  -1.64976E-09 -1.70248E-09 -1.75460E-09 -1.80612E-09 -1.85702E-09 -1.90731E-09 -1.95697E-09 -2.00601E-09 -2.05441E-09 -2.10216E-09
  -2.14926E-09 -2.19572E-09 -2.24151E-09 -2.28664E-09 -2.33110E-09 -2.37489E-09 -2.41802E-09 -2.46048E-09 -2.50227E-09 -2.54338E-09
  -2.58382E-09 -2.62359E-09 -2.66268E-09 -2.70109E-09 -2.73882E-09 -2.77587E-09 -2.81224E-09 -2.84792E-09 -2.88292E-09 -2.91724E-09
  -2.95086E-09 -2.98380E-09 -3.01605E-09 -3.04761E-09 -3.07847E-09 -3.10865E-09 -3.13812E-09 -3.16690E-09 -3.19499E-09 -3.22237E-09
  -3.24906E-09 -3.27505E-09 -3.30034E-09 -3.32492E-09 -3.34880E-09 -3.37197E-09 -3.39444E-09 -3.41620E-09 -3.43725E-09 -3.45759E-09
  -3.47722E-09 -3.49614E-09 -3.51434E-09 -3.53183E-09 -3.54860E-09 -3.56466E-09 -3.57999E-09 -3.59461E-09 -3.60850E-09 -3.62168E-09
  -3.63413E-09 -3.64585E-09 -3.65685E-09 -3.66711E-09 -3.67665E-09 -3.68546E-09 -3.69354E-09 -3.70088E-09 -3.70749E-09 -3.71336E-09
  -3.71849E-09 -3.72288E-09 -3.72653E-09 -3.72943E-09 -3.73159E-09 -3.73299E-09 -3.73364E-09 -3.73352E-09 -3.73263E-09 -3.73097E-09
  -3.72854E-09 -3.72533E-09 -3.72133E-09 -3.71655E-09 -3.71098E-09 -3.70461E-09 -3.69744E-09 -3.68947E-09 -3.68069E-09 -3.67111E-09
  -3.66071E-09 -3.64950E-09 -3.63747E-09 -3.62461E-09 -3.61093E-09 -3.59642E-09 -3.58108E-09 -3.56491E-09 -3.54791E-09 -3.53006E-09
  -3.51137E-09 -3.49184E-09 -3.47146E-09 -3.45023E-09 -3.42816E-09 -3.40523E-09 -3.38145E-09 -3.35681E-09 -3.33132E-09 -3.30496E-09
  -3.27775E-09 -3.24967E-09 -3.22073E-09 -3.19093E-09 -3.16026E-09 -3.12872E-09 -3.09632E-09 -3.06305E-09 -3.02890E-09 -2.99389E-09
  -2.95801E-09 -2.92126E-09 -2.88363E-09 -2.84514E-09 -2.80577E-09 -2.76553E-09 -2.72442E-09 -2.68243E-09 -2.63958E-09 -2.59586E-09
  -2.55126E-09 -2.50580E-09 -2.45946E-09
 Cr       Conc. = 2.75E-10
   6.88970E-09  6.76583E-09  6.47231E-09  6.32134E-09  6.48947E-09  6.62908E-09  6.74326E-09  6.84145E-09  6.92906E-09  7.00920E-09
   7.08383E-09  7.15419E-09  7.22122E-09  7.28555E-09  7.34770E-09  7.40811E-09  7.46715E-09  7.52519E-09  7.58259E-09  7.63975E-09
   7.69711E-09  7.75522E-09  7.81479E-09  7.87678E-09  7.94251E-09  8.01397E-09  8.09426E-09  8.18878E-09  8.30776E-09  8.47375E-09
   8.74934E-09  9.31696E-09  9.33632E-09  9.04420E-09  8.82165E-09  8.71789E-09  8.66402E-09  8.61080E-09  8.55540E-09  8.51770E-09
   8.42858E-09  8.06971E-09  7.43912E-09  7.33904E-09  7.44428E-09  7.53098E-09  7.59715E-09  7.64868E-09  7.68976E-09  7.72301E-09
   7.75015E-09  7.77237E-09  7.79054E-09  7.80524E-09  7.81691E-09  7.82590E-09  7.83250E-09  7.83693E-09  7.83932E-09  7.83989E-09
   7.83867E-09  7.83577E-09  7.83131E-09  7.82533E-09  7.81790E-09  7.80908E-09  7.79890E-09  7.78742E-09  7.77465E-09  7.76064E-09
   7.74542E-09  7.72902E-09  7.71145E-09  7.69274E-09  7.67291E-09  7.65199E-09  7.62997E-09  7.60692E-09  7.58278E-09  7.55763E-09
   7.53146E-09  7.50427E-09  7.47608E-09  7.44693E-09  7.41682E-09  7.38573E-09  7.35372E-09  7.32076E-09  7.28688E-09  7.25209E-09
   7.21639E-09  7.17983E-09  7.14237E-09  7.10404E-09  7.06486E-09  7.02482E-09  6.98394E-09  6.94223E-09  6.89970E-09  6.85637E-09
   6.81222E-09  6.76729E-09  6.72157E-09  6.67507E-09  6.62782E-09  6.57980E-09  6.53103E-09  6.48153E-09  6.43132E-09  6.38037E-09
   6.32873E-09  6.27636E-09  6.22332E-09  6.16957E-09  6.11518E-09  6.06010E-09  6.00439E-09  5.94803E-09  5.89103E-09  5.83346E-09
   5.77518E-09  5.71633E-09  5.65687E-09  5.59684E-09  5.53623E-09  5.47506E-09  5.41333E-09  5.35108E-09  5.28830E-09  5.22501E-09
   5.16122E-09  5.09695E-09  5.03219E-09  4.96699E-09  4.90133E-09  4.83524E-09  4.76872E-09  4.70179E-09  4.63448E-09  4.56678E-09
   4.49871E-09  4.43028E-09  4.36151E-09  4.29244E-09  4.22302E-09  4.15329E-09  4.08328E-09  4.01302E-09  3.94247E-09  3.87170E-09
   3.80072E-09  3.72949E-09  3.65809E-09  3.58655E-09  3.51483E-09  3.44299E-09  3.37110E-09  3.29918E-09  3.22727E-09  3.15552E-09
   3.08402E-09  3.01310E-09  2.94321E-09  2.87546E-09  2.81258E-09  2.76390E-09  2.77825E-09  2.95060E-09  2.94596E-09  2.84520E-09
   2.74281E-09  2.66186E-09  2.59252E-09  2.52473E-09  2.46238E-09  2.42113E-09  2.37546E-09  2.21189E-09  1.89917E-09  1.76046E-09
   1.66447E-09  1.58053E-09  1.50156E-09  1.42515E-09  1.35027E-09  1.27642E-09  1.20333E-09  1.13084E-09  1.05885E-09  9.87302E-10
   9.16148E-10  8.45380E-10  7.74965E-10  7.04914E-10  6.35208E-10  5.65838E-10  4.96824E-10  4.28161E-10  3.59846E-10  2.91895E-10
   2.24309E-10  1.57083E-10  9.02351E-11  2.37756E-11 -4.23001E-11 -1.07979E-10 -1.73258E-10 -2.38109E-10 -3.02552E-10 -3.66570E-10
  -4.30154E-10 -4.93288E-10 -5.55973E-10 -6.18195E-10 -6.79964E-10 -7.41256E-10 -8.02059E-10 -8.62375E-10 -9.22205E-10 -9.81523E-10
  -1.04033E-09 -1.09861E-09 -1.15637E-09 -1.21360E-09 -1.27029E-09 -1.32642E-09 -1.38201E-09 -1.43704E-09 -1.49149E-09 -1.54537E-09
