 LCModel (Version 6.3-1R) Copyright: S.W. Provencher.          Ref.: Magn. Reson. Med. 30:672-679 (1993).                
 onepulse 15x13_ftSpec_smooth_lcm
 26 lines in following concentration table = NCONC+1
    Conc.  %SD   /Cr    Metabolite                                         
 5.17E-10  64%   0.000 Ala                                                 
 6.28E-10 121%   0.000 Asp                                                 
    0.000 999%   0.000 Cr                                                  
 1.74E-09  34%   0.000 GABA                                                
    0.000 999%   0.000 Glc                                                 
 1.17E-09  60%   0.000 Gln                                                 
    0.000 999%   0.000 Glu                                                 
    0.000 999%   0.000 Glyc                                                
    0.000 999%   0.000 GPC                                                 
 1.17E-09  42%   0.000 GSH                                                 
 1.43E-09  28%   0.000 Ins                                                 
 1.31E-10 248%   0.000 Lac                                                 
 3.26E-10 104%   0.000 NAAG                                                
 4.87E-10 100%   0.000 NAA                                                 
 2.17E-11 999%   0.000 PCh                                                 
    0.000 999%   0.000 PCr                                                 
 1.15E-09 170%   0.000 PE                                                  
    0.000 999%   0.000 Scyllo                                              
 1.47E-09  86%   0.000 Ser                                                 
 2.29E-09  31%   0.000 Tau                                                 
 2.17E-11 999%   0.000 GPC+PCh                                             
 8.13E-10  40%   0.000 NAA+NAAG                                            
 1.43E-09  28%   0.000 Ins+Glyc                                            
    0.000 999%   0.000 Cr+PCr                                              
 1.17E-09  60%   0.000 Glu+Gln                                             
   6 lines in following misc. output table
  FWHM = 0.123 ppm    S/N =   4                                            
  Data shift = 0.481 ppm                                                   
  Ph:  78 deg     -21.9 deg/ppm                                            
  alphaB,S = 8.1E-01,   6.4E+00                                            
   10 spline knots.   Ns = 5(1)                                            
  ( 9) 8 infls.   (11) 5 extrs.                                            
  363 points on ppm-axis = NY
      4.250000     4.238821     4.227641     4.216462     4.205282     4.194103     4.182923     4.171744     4.160564     4.149385
      4.138206     4.127026     4.115847     4.104667     4.093488     4.082308     4.071129     4.059949     4.048770     4.037591
      4.026411     4.015232     4.004052     3.992873     3.981693     3.970514     3.959334     3.948155     3.936975     3.925796
      3.914617     3.903437     3.892258     3.881078     3.869899     3.858719     3.847540     3.836360     3.825181     3.814002
      3.802822     3.791643     3.780463     3.769284     3.758104     3.746925     3.735745     3.724566     3.713387     3.702207
      3.691028     3.679848     3.668669     3.657489     3.646310     3.635130     3.623951     3.612772     3.601592     3.590413
      3.579233     3.568054     3.556874     3.545695     3.534515     3.523336     3.512156     3.500977     3.489798     3.478618
      3.467439     3.456259     3.445080     3.433900     3.422721     3.411541     3.400362     3.389183     3.378003     3.366824
      3.355644     3.344465     3.333285     3.322106     3.310926     3.299747     3.288568     3.277388     3.266209     3.255029
      3.243850     3.232670     3.221491     3.210311     3.199132     3.187953     3.176773     3.165594     3.154414     3.143235
      3.132055     3.120876     3.109696     3.098517     3.087337     3.076158     3.064979     3.053799     3.042620     3.031440
      3.020261     3.009081     2.997902     2.986722     2.975543     2.964364     2.953184     2.942005     2.930825     2.919646
      2.908466     2.897287     2.886107     2.874928     2.863749     2.852569     2.841390     2.830210     2.819031     2.807851
      2.796672     2.785492     2.774313     2.763134     2.751954     2.740775     2.729595     2.718416     2.707236     2.696057
      2.684877     2.673698     2.662519     2.651339     2.640160     2.628980     2.617801     2.606621     2.595442     2.584262
      2.573083     2.561903     2.550724     2.539545     2.528365     2.517186     2.506006     2.494827     2.483647     2.472468
      2.461288     2.450109     2.438930     2.427750     2.416571     2.405391     2.394212     2.383032     2.371853     2.360673
      2.349494     2.338315     2.327135     2.315956     2.304776     2.293597     2.282417     2.271238     2.260058     2.248879
      2.237700     2.226520     2.215341     2.204161     2.192982     2.181802     2.170623     2.159443     2.148264     2.137084
      2.125905     2.114726     2.103546     2.092367     2.081187     2.070008     2.058828     2.047649     2.036469     2.025290
      2.014111     2.002931     1.991752     1.980572     1.969393     1.958213     1.947034     1.935854     1.924675     1.913496
      1.902316     1.891137     1.879957     1.868778     1.857598     1.846419     1.835239     1.824060     1.812881     1.801701
      1.790522     1.779342     1.768163     1.756983     1.745804     1.734624     1.723445     1.712265     1.701086     1.689907
      1.678727     1.667548     1.656368     1.645189     1.634009     1.622830     1.611650     1.600471     1.589292     1.578112
      1.566933     1.555753     1.544574     1.533394     1.522215     1.511035     1.499856     1.488677     1.477497     1.466318
      1.455138     1.443959     1.432779     1.421600     1.410420     1.399241     1.388062     1.376882     1.365703     1.354523
      1.343344     1.332164     1.320985     1.309805     1.298626     1.287446     1.276267     1.265088     1.253908     1.242729
      1.231549     1.220370     1.209190     1.198011     1.186831     1.175652     1.164473     1.153293     1.142114     1.130934
      1.119755     1.108575     1.097396     1.086216     1.075037     1.063858     1.052678     1.041499     1.030319     1.019140
      1.007960     0.996781     0.985601     0.974422     0.963243     0.952063     0.940884     0.929704     0.918525     0.907345
      0.896166     0.884986     0.873807     0.862628     0.851448     0.840269     0.829089     0.817910     0.806730     0.795551
      0.784371     0.773192     0.762012     0.750833     0.739654     0.728474     0.717295     0.706115     0.694936     0.683756
      0.672577     0.661397     0.650218     0.639039     0.627859     0.616680     0.605500     0.594321     0.583141     0.571962
      0.560782     0.549603     0.538424     0.527244     0.516065     0.504885     0.493706     0.482526     0.471347     0.460167
      0.448988     0.437809     0.426629     0.415450     0.404270     0.393091     0.381911     0.370732     0.359552     0.348373
      0.337193     0.326014     0.314835     0.303655     0.292476     0.281296     0.270117     0.258937     0.247758     0.236578
      0.225399     0.214220     0.203040
 NY phased data points follow
   8.30999E-09  7.88686E-09  8.45556E-09  8.16379E-09  9.20576E-09  8.87106E-09  9.39298E-09  8.48598E-09  9.55186E-09  8.23202E-09
   8.47999E-09  7.44406E-09  8.45459E-09  7.77870E-09  1.00954E-08  8.96585E-09  9.94087E-09  7.75849E-09  7.96476E-09  6.94475E-09
   9.37037E-09  9.67423E-09  1.20277E-08  1.17603E-08  1.37420E-08  1.12679E-08  1.19331E-08  1.00017E-08  1.17934E-08  9.43102E-09
   1.10441E-08  9.59866E-09  1.00255E-08  8.87300E-09  1.05503E-08  8.19282E-09  9.06692E-09  6.70648E-09  8.32467E-09  7.15673E-09
   8.39839E-09  6.69009E-09  8.30161E-09  6.10436E-09  6.84061E-09  4.88271E-09  4.88904E-09  3.10387E-09  3.51866E-09  1.14887E-09
   1.39148E-09  1.41684E-09  6.55756E-09  8.39480E-09  1.09184E-08  9.02000E-09  1.08838E-08  9.27261E-09  1.04331E-08  8.22004E-09
   9.06801E-09  7.64097E-09  8.05925E-09  5.85086E-09  6.15794E-09  2.33263E-09  2.03070E-09 -5.89130E-10  2.92792E-09  5.49809E-09
   9.65379E-09  9.92539E-09  1.11003E-08  1.04339E-08  1.18251E-08  1.07799E-08  1.14631E-08  1.07653E-08  1.19916E-08  1.10892E-08
   1.21515E-08  1.13363E-08  1.20859E-08  1.04436E-08  1.20785E-08  1.03675E-08  1.12244E-08  9.73701E-09  1.05197E-08  8.84510E-09
   9.38741E-09  9.04708E-09  9.55063E-09  8.64468E-09  9.47493E-09  8.57236E-09  9.81142E-09  9.01234E-09  8.84335E-09  7.50105E-09
   7.35219E-09  5.23733E-09  7.20889E-09  6.34789E-09  6.73589E-09  5.61882E-09  7.37639E-09  6.24382E-09  6.62806E-09  6.36259E-09
   8.74407E-09  7.39277E-09  7.90132E-09  6.93321E-09  7.57547E-09  5.18164E-09  5.58616E-09  5.44918E-09  6.12016E-09  4.45510E-09
   5.33252E-09  4.65761E-09  5.77039E-09  4.50633E-09  5.60508E-09  4.71899E-09  4.93479E-09  3.05735E-09  3.41462E-09  3.60085E-09
   5.51834E-09  4.66162E-09  5.90764E-09  4.37171E-09  5.48359E-09  5.24885E-09  6.39709E-09  6.15107E-09  7.46053E-09  6.65267E-09
   7.40030E-09  6.61698E-09  7.24454E-09  6.85282E-09  7.51540E-09  6.42491E-09  7.56011E-09  6.65681E-09  7.30931E-09  6.93533E-09
   8.07196E-09  6.91982E-09  7.71423E-09  7.12284E-09  6.93208E-09  4.50223E-09  5.15879E-09  3.36963E-09  4.81652E-10 -1.37076E-09
   5.52484E-09  1.01900E-08  1.44831E-08  1.49996E-08  1.68660E-08  1.76730E-08  1.91162E-08  1.92752E-08  2.02818E-08  2.02367E-08
   2.11893E-08  2.11206E-08  2.30698E-08  2.18263E-08  2.29040E-08  2.22703E-08  2.25476E-08  2.12864E-08  2.12134E-08  1.89177E-08
   1.76533E-08  1.53140E-08  1.42964E-08  1.13486E-08  9.31490E-09  6.51617E-09  5.43743E-09  2.05682E-09  2.18932E-10 -2.31833E-09
  -2.39512E-09 -4.29501E-09 -4.38306E-09 -5.06495E-09 -4.01104E-09 -4.70534E-09 -4.10956E-09 -3.33343E-09 -2.24097E-09 -2.71218E-09
  -2.08662E-10 -1.28418E-09 -6.58706E-10 -7.43733E-10  1.41650E-10 -1.34973E-09 -3.39206E-10 -9.10566E-10 -7.00282E-10 -1.63933E-09
  -3.30191E-10 -7.20859E-10 -3.56825E-11 -6.37693E-10  6.59642E-10 -5.30983E-10  5.61813E-10 -1.07674E-09 -5.14890E-10 -1.02184E-09
  -3.14429E-10 -9.42038E-10 -1.04045E-10 -1.09880E-09  3.71883E-10 -4.67322E-10  2.80954E-10 -1.98619E-10  5.54494E-10 -8.77139E-10
  -1.00669E-09 -1.21648E-09 -3.07903E-10 -1.47195E-09 -1.11350E-09 -1.57224E-09 -6.00324E-10 -7.13712E-10 -5.47150E-10 -1.13358E-09
   1.69094E-10 -1.11068E-09  4.95388E-11 -2.54659E-10  2.66621E-10 -1.37095E-10 -3.47019E-11 -4.64035E-10  5.58514E-10 -1.00647E-10
  -2.87458E-10 -8.92678E-10 -5.77770E-10 -1.74940E-09 -1.13956E-09 -2.00482E-09 -1.87033E-09 -2.17579E-09 -2.14309E-09 -2.54281E-09
  -1.80405E-09 -1.88594E-09 -1.54890E-09 -2.01160E-09 -1.03882E-09 -1.28798E-09 -2.22179E-10 -9.62907E-10 -1.95649E-10 -9.77619E-10
   2.79599E-10 -1.57140E-10  1.20162E-11 -3.58571E-10 -1.58043E-10  4.11650E-10  5.67800E-10 -3.08791E-10  5.44791E-11  1.91237E-10
   3.64392E-10 -4.03375E-10  3.32566E-10  1.36563E-10  2.09092E-10 -3.77618E-10 -7.81101E-11 -1.92081E-10 -2.99313E-10  8.13575E-11
  -2.93876E-10 -4.85648E-10 -4.57021E-10 -1.98991E-10 -3.82501E-10 -9.63283E-10 -6.96938E-10 -9.97887E-10 -7.42468E-10 -6.37796E-10
  -1.00958E-09 -9.49465E-10 -1.18000E-09 -9.95063E-10 -1.43362E-09 -1.22289E-09 -1.60628E-09 -1.16477E-09 -1.41781E-09 -1.33672E-09
  -1.46311E-09 -1.49621E-09 -1.64265E-09 -2.17250E-09 -2.22021E-09 -1.78019E-09 -1.55034E-09 -1.57501E-09 -2.60049E-09 -1.66226E-09
  -1.70678E-09 -2.50910E-09 -1.70692E-09 -1.83427E-09 -2.15267E-09 -2.16912E-09 -1.87633E-09 -2.62619E-09 -2.43502E-09 -2.42959E-09
  -2.40772E-09 -2.47609E-09 -2.84538E-09 -2.86748E-09 -2.78935E-09 -2.44309E-09 -2.74182E-09 -3.62531E-09 -2.91328E-09 -2.40000E-09
  -2.97390E-09 -3.17382E-09 -3.05782E-09 -2.60798E-09 -3.15264E-09 -2.91324E-09 -3.09109E-09 -2.88255E-09 -3.38751E-09 -3.22789E-09
  -3.68323E-09 -2.87347E-09 -3.03523E-09 -3.43184E-09 -3.51619E-09 -3.46606E-09 -3.29570E-09 -3.51054E-09 -3.81544E-09 -3.57260E-09
  -3.75048E-09 -3.41647E-09 -3.71632E-09
 NY points of the fit to the data follow
   1.04319E-08  9.36884E-09  8.18482E-09  8.19014E-09  9.20400E-09  8.62063E-09  8.19949E-09  8.77003E-09  1.05946E-08  8.72255E-09
   6.78691E-09  7.30078E-09  7.25795E-09  8.26051E-09  9.61256E-09  8.84657E-09  9.44792E-09  9.90589E-09  9.50866E-09  8.87217E-09
   9.31476E-09  1.07129E-08  1.11704E-08  1.14510E-08  1.18448E-08  1.14646E-08  1.12229E-08  1.02268E-08  1.03852E-08  1.11481E-08
   1.18608E-08  1.08425E-08  9.94834E-09  1.01766E-08  9.59526E-09  8.04546E-09  8.29117E-09  7.97228E-09  7.78605E-09  7.77297E-09
   7.82426E-09  7.00400E-09  7.48964E-09  8.12887E-09  6.70589E-09  5.48614E-09  6.05367E-09  4.71774E-09  4.41651E-09  4.34389E-09
   4.80484E-09  5.08218E-09  5.30503E-09  6.07796E-09  6.60242E-09  6.23360E-09  6.80837E-09  7.52572E-09  7.79904E-09  7.52531E-09
   7.93946E-09  7.85729E-09  8.10014E-09  8.43273E-09  7.78549E-09  8.06928E-09  8.77388E-09  8.06936E-09  7.75252E-09  8.10154E-09
   8.82310E-09  8.85957E-09  9.43965E-09  9.31911E-09  9.29741E-09  1.07906E-08  1.12707E-08  1.18765E-08  1.18713E-08  1.18561E-08
   1.19050E-08  1.15828E-08  1.12319E-08  1.12736E-08  1.13549E-08  1.07704E-08  1.06877E-08  1.03313E-08  8.07318E-09  7.39234E-09
   7.38260E-09  7.16884E-09  6.83622E-09  7.23155E-09  7.10285E-09  6.35932E-09  6.64160E-09  6.67280E-09  6.23615E-09  6.48016E-09
   6.96660E-09  6.44223E-09  6.55201E-09  7.22057E-09  7.13154E-09  7.13916E-09  7.24925E-09  7.43964E-09  7.41312E-09  7.56542E-09
   7.64420E-09  6.77344E-09  6.90695E-09  7.09391E-09  6.40203E-09  6.18737E-09  6.11429E-09  6.04906E-09  5.82942E-09  5.86979E-09
   5.82343E-09  5.66790E-09  5.62174E-09  5.60453E-09  5.59793E-09  5.59607E-09  5.59652E-09  5.59800E-09  5.59973E-09  5.60130E-09
   5.60236E-09  5.60268E-09  5.60211E-09  5.60053E-09  5.59784E-09  5.59394E-09  5.58878E-09  5.58230E-09  5.57447E-09  5.56527E-09
   5.55466E-09  5.54265E-09  5.52924E-09  5.51446E-09  5.49830E-09  5.48080E-09  5.46204E-09  5.44206E-09  5.42101E-09  5.39902E-09
   5.37628E-09  5.35303E-09  5.32961E-09  5.30647E-09  5.28427E-09  5.26387E-09  5.24655E-09  5.23422E-09  5.22981E-09  5.23790E-09
   5.26616E-09  5.32829E-09  5.45139E-09  5.69644E-09  6.23052E-09  7.67758E-09  1.36071E-08  2.22137E-08  2.10141E-08  2.02198E-08
   2.09737E-08  2.18117E-08  2.23788E-08  2.23389E-08  2.24915E-08  2.26766E-08  2.41336E-08  2.24825E-08  1.12191E-08  6.66047E-09
   5.26460E-09  4.62069E-09  4.23630E-09  3.96916E-09  3.76411E-09  3.59560E-09  3.45022E-09  3.32033E-09  3.20133E-09  3.09025E-09
   2.98512E-09  2.88461E-09  2.78777E-09  2.69395E-09  2.60265E-09  2.51352E-09  2.42630E-09  2.34083E-09  2.25693E-09  2.17454E-09
   2.09358E-09  2.01401E-09  1.93581E-09  1.85897E-09  1.78349E-09  1.70937E-09  1.63667E-09  1.56537E-09  1.49552E-09  1.42707E-09
   1.35998E-09  1.29422E-09  1.22976E-09  1.16657E-09  1.10461E-09  1.04386E-09  9.84303E-10  9.25908E-10  8.68648E-10  8.12503E-10
   7.57465E-10  7.03498E-10  6.50586E-10  5.98714E-10  5.47858E-10  4.98003E-10  4.49141E-10  4.01232E-10  3.54264E-10  3.08240E-10
   2.63131E-10  2.18914E-10  1.75586E-10  1.33117E-10  9.15031E-11  5.07149E-11  1.07436E-11 -2.84176E-11 -6.67948E-11 -1.04399E-10
  -1.41246E-10 -1.77348E-10 -2.12726E-10 -2.47393E-10 -2.81359E-10 -3.14643E-10 -3.47265E-10 -3.79243E-10 -4.10566E-10 -4.41260E-10
  -4.71355E-10 -5.00860E-10 -5.29779E-10 -5.58123E-10 -5.85936E-10 -6.13197E-10 -6.39940E-10 -6.66169E-10 -6.91913E-10 -7.17180E-10
  -7.41977E-10 -7.66329E-10 -7.90253E-10 -8.13768E-10 -8.36892E-10 -8.59644E-10 -8.82041E-10 -9.04102E-10 -9.25845E-10 -9.47288E-10
  -9.68449E-10 -9.89346E-10 -1.01000E-09 -1.03042E-09 -1.05064E-09 -1.07066E-09 -1.09051E-09 -1.11020E-09 -1.12976E-09 -1.14920E-09
  -1.16854E-09 -1.18779E-09 -1.20698E-09 -1.22612E-09 -1.24524E-09 -1.26434E-09 -1.28345E-09 -1.30258E-09 -1.32176E-09 -1.34100E-09
  -1.36032E-09 -1.37974E-09 -1.39927E-09 -1.41893E-09 -1.43875E-09 -1.45873E-09 -1.47891E-09 -1.49928E-09 -1.51988E-09 -1.54073E-09
  -1.56183E-09 -1.58320E-09 -1.60488E-09 -1.62686E-09 -1.64918E-09 -1.67185E-09 -1.69488E-09 -1.71830E-09 -1.74212E-09 -1.76636E-09
  -1.79104E-09 -1.81617E-09 -1.84176E-09 -1.86779E-09 -1.89425E-09 -1.92113E-09 -1.94841E-09 -1.97609E-09 -2.00416E-09 -2.03259E-09
  -2.06139E-09 -2.09054E-09 -2.12002E-09 -2.14982E-09 -2.17994E-09 -2.21037E-09 -2.24108E-09 -2.27207E-09 -2.30332E-09 -2.33484E-09
  -2.36659E-09 -2.39858E-09 -2.43079E-09 -2.46321E-09 -2.49582E-09 -2.52861E-09 -2.56159E-09 -2.59472E-09 -2.62801E-09 -2.66143E-09
  -2.69498E-09 -2.72864E-09 -2.76241E-09 -2.79627E-09 -2.83020E-09 -2.86421E-09 -2.89828E-09 -2.93239E-09 -2.96653E-09 -3.00069E-09
  -3.03486E-09 -3.06903E-09 -3.10320E-09 -3.13733E-09 -3.17142E-09 -3.20547E-09 -3.23946E-09 -3.27338E-09 -3.30721E-09 -3.34095E-09
  -3.37458E-09 -3.40809E-09 -3.44148E-09
 NY background values follow
    -5.017E-09   -4.922E-09   -4.827E-09   -4.733E-09   -4.638E-09   -4.543E-09   -4.448E-09   -4.353E-09   -4.259E-09   -4.164E-09
    -4.069E-09   -3.974E-09   -3.880E-09   -3.785E-09   -3.690E-09   -3.596E-09   -3.501E-09   -3.407E-09   -3.312E-09   -3.218E-09
    -3.124E-09   -3.029E-09   -2.935E-09   -2.841E-09   -2.747E-09   -2.653E-09   -2.560E-09   -2.466E-09   -2.372E-09   -2.279E-09
    -2.186E-09   -2.093E-09   -2.000E-09   -1.907E-09   -1.814E-09   -1.722E-09   -1.629E-09   -1.537E-09   -1.445E-09   -1.353E-09
    -1.261E-09   -1.170E-09   -1.079E-09   -9.875E-10   -8.967E-10   -8.060E-10   -7.156E-10   -6.254E-10   -5.354E-10   -4.457E-10
    -3.562E-10   -2.669E-10   -1.779E-10   -8.923E-11   -8.047E-13    8.732E-11    1.751E-10    2.626E-10    3.497E-10    4.364E-10
     5.227E-10    6.085E-10    6.940E-10    7.790E-10    8.634E-10    9.474E-10    1.031E-09    1.114E-09    1.196E-09    1.278E-09
     1.359E-09    1.440E-09    1.520E-09    1.599E-09    1.677E-09    1.755E-09    1.832E-09    1.909E-09    1.985E-09    2.059E-09
     2.133E-09    2.207E-09    2.279E-09    2.351E-09    2.421E-09    2.491E-09    2.560E-09    2.628E-09    2.695E-09    2.761E-09
     2.826E-09    2.890E-09    2.953E-09    3.015E-09    3.076E-09    3.135E-09    3.194E-09    3.252E-09    3.308E-09    3.363E-09
     3.417E-09    3.470E-09    3.521E-09    3.572E-09    3.621E-09    3.668E-09    3.715E-09    3.760E-09    3.803E-09    3.846E-09
     3.887E-09    3.926E-09    3.965E-09    4.001E-09    4.037E-09    4.070E-09    4.103E-09    4.134E-09    4.163E-09    4.191E-09
     4.217E-09    4.242E-09    4.265E-09    4.286E-09    4.306E-09    4.324E-09    4.341E-09    4.355E-09    4.369E-09    4.380E-09
     4.390E-09    4.398E-09    4.404E-09    4.408E-09    4.411E-09    4.412E-09    4.411E-09    4.408E-09    4.403E-09    4.396E-09
     4.388E-09    4.377E-09    4.365E-09    4.350E-09    4.334E-09    4.315E-09    4.295E-09    4.272E-09    4.248E-09    4.221E-09
     4.193E-09    4.162E-09    4.129E-09    4.094E-09    4.057E-09    4.017E-09    3.976E-09    3.932E-09    3.887E-09    3.839E-09
     3.789E-09    3.737E-09    3.684E-09    3.629E-09    3.572E-09    3.514E-09    3.454E-09    3.392E-09    3.329E-09    3.265E-09
     3.200E-09    3.133E-09    3.065E-09    2.996E-09    2.926E-09    2.855E-09    2.783E-09    2.710E-09    2.637E-09    2.562E-09
     2.487E-09    2.412E-09    2.336E-09    2.260E-09    2.183E-09    2.106E-09    2.029E-09    1.951E-09    1.873E-09    1.796E-09
     1.718E-09    1.641E-09    1.563E-09    1.486E-09    1.409E-09    1.332E-09    1.256E-09    1.180E-09    1.105E-09    1.031E-09
     9.568E-10    8.836E-10    8.112E-10    7.397E-10    6.691E-10    5.995E-10    5.309E-10    4.635E-10    3.972E-10    3.321E-10
     2.682E-10    2.054E-10    1.437E-10    8.309E-11    2.360E-11   -3.481E-11   -9.215E-11   -1.484E-10   -2.037E-10   -2.579E-10
    -3.111E-10   -3.634E-10   -4.146E-10   -4.649E-10   -5.142E-10   -5.625E-10   -6.100E-10   -6.565E-10   -7.021E-10   -7.469E-10
    -7.907E-10   -8.338E-10   -8.759E-10   -9.173E-10   -9.578E-10   -9.975E-10   -1.036E-09   -1.075E-09   -1.112E-09   -1.149E-09
    -1.185E-09   -1.220E-09   -1.254E-09   -1.288E-09   -1.321E-09   -1.354E-09   -1.385E-09   -1.416E-09   -1.447E-09   -1.477E-09
    -1.506E-09   -1.535E-09   -1.563E-09   -1.591E-09   -1.618E-09   -1.645E-09   -1.671E-09   -1.696E-09   -1.721E-09   -1.746E-09
    -1.770E-09   -1.794E-09   -1.817E-09   -1.840E-09   -1.862E-09   -1.884E-09   -1.906E-09   -1.928E-09   -1.949E-09   -1.970E-09
    -1.990E-09   -2.011E-09   -2.031E-09   -2.051E-09   -2.070E-09   -2.090E-09   -2.109E-09   -2.128E-09   -2.147E-09   -2.166E-09
    -2.185E-09   -2.204E-09   -2.222E-09   -2.241E-09   -2.259E-09   -2.278E-09   -2.297E-09   -2.315E-09   -2.334E-09   -2.353E-09
    -2.371E-09   -2.390E-09   -2.409E-09   -2.429E-09   -2.448E-09   -2.467E-09   -2.487E-09   -2.507E-09   -2.527E-09   -2.547E-09
    -2.568E-09   -2.589E-09   -2.610E-09   -2.632E-09   -2.653E-09   -2.676E-09   -2.698E-09   -2.721E-09   -2.744E-09   -2.768E-09
    -2.792E-09   -2.817E-09   -2.842E-09   -2.868E-09   -2.894E-09   -2.920E-09   -2.947E-09   -2.974E-09   -3.002E-09   -3.030E-09
    -3.058E-09   -3.087E-09   -3.116E-09   -3.145E-09   -3.175E-09   -3.205E-09   -3.235E-09   -3.265E-09   -3.296E-09   -3.327E-09
    -3.358E-09   -3.390E-09   -3.422E-09   -3.454E-09   -3.486E-09   -3.518E-09   -3.550E-09   -3.583E-09   -3.616E-09   -3.649E-09
    -3.682E-09   -3.715E-09   -3.748E-09   -3.782E-09   -3.815E-09   -3.849E-09   -3.882E-09   -3.916E-09   -3.949E-09   -3.983E-09
    -4.017E-09   -4.050E-09   -4.084E-09   -4.118E-09   -4.151E-09   -4.185E-09   -4.218E-09   -4.252E-09   -4.285E-09   -4.318E-09
    -4.351E-09   -4.384E-09   -4.417E-09
 Ala      Conc. = 5.17E-10
  -4.61039E-09 -4.56029E-09 -4.43585E-09 -4.30684E-09 -4.22695E-09 -4.16220E-09 -4.01479E-09 -3.97500E-09 -4.00240E-09 -3.82510E-09
  -3.76477E-09 -3.79678E-09 -3.69354E-09 -3.61552E-09 -3.56319E-09 -3.49230E-09 -3.41262E-09 -3.32828E-09 -3.24123E-09 -3.15243E-09
  -3.06248E-09 -2.97173E-09 -2.88040E-09 -2.78867E-09 -2.69668E-09 -2.60447E-09 -2.51213E-09 -2.41971E-09 -2.32725E-09 -2.23477E-09
  -2.14228E-09 -2.04988E-09 -1.95751E-09 -1.86521E-09 -1.77301E-09 -1.68092E-09 -1.58894E-09 -1.49707E-09 -1.40536E-09 -1.31381E-09
  -1.22239E-09 -1.13112E-09 -1.04004E-09 -9.49160E-10 -8.58446E-10 -7.67941E-10 -6.77619E-10 -5.87516E-10 -4.97637E-10 -4.08001E-10
  -3.18553E-10 -2.29347E-10 -1.40377E-10 -5.16707E-11  3.67573E-11  1.24901E-10  2.12734E-10  3.00240E-10  3.87395E-10  4.74186E-10
   5.60587E-10  6.46583E-10  7.32159E-10  8.17288E-10  9.01951E-10  9.86145E-10  1.06984E-09  1.15302E-09  1.23567E-09  1.31776E-09
   1.39930E-09  1.48025E-09  1.56062E-09  1.64037E-09  1.71950E-09  1.79799E-09  1.87584E-09  1.95303E-09  2.02958E-09  2.10545E-09
   2.18066E-09  2.25521E-09  2.32911E-09  2.40237E-09  2.47502E-09  2.54712E-09  2.61870E-09  2.68986E-09  2.76070E-09  2.83141E-09
   2.90223E-09  2.97353E-09  3.04589E-09  3.12021E-09  3.19804E-09  3.28220E-09  3.37830E-09  3.49948E-09  3.68403E-09  4.08761E-09
   4.71342E-09  4.40290E-09  4.65873E-09  5.43652E-09  5.42158E-09  5.46667E-09  5.54124E-09  5.64691E-09  5.73570E-09  5.81293E-09
   5.79496E-09  4.96611E-09  5.11678E-09  5.31552E-09  4.62506E-09  4.41932E-09  4.34781E-09  4.32204E-09  4.31619E-09  4.32023E-09
   4.32950E-09  4.34152E-09  4.35487E-09  4.36867E-09  4.38233E-09  4.39547E-09  4.40781E-09  4.41913E-09  4.42929E-09  4.43816E-09
   4.44565E-09  4.45167E-09  4.45617E-09  4.45908E-09  4.46037E-09  4.45998E-09  4.45788E-09  4.45404E-09  4.44842E-09  4.44100E-09
   4.43175E-09  4.42065E-09  4.40766E-09  4.39279E-09  4.37599E-09  4.35724E-09  4.33655E-09  4.31387E-09  4.28920E-09  4.26252E-09
   4.23383E-09  4.20312E-09  4.17037E-09  4.13559E-09  4.09878E-09  4.05997E-09  4.01918E-09  3.97654E-09  3.93222E-09  3.88646E-09
   3.83962E-09  3.79230E-09  3.74561E-09  3.70194E-09  3.66761E-09  3.66514E-09  3.82021E-09  4.24347E-09  4.04593E-09  3.95424E-09
   3.93270E-09  3.90269E-09  3.86706E-09  3.79238E-09  3.73528E-09  3.67354E-09  3.65412E-09  3.61496E-09  2.93371E-09  2.71401E-09
   2.59165E-09  2.49422E-09  2.40594E-09  2.32177E-09  2.23969E-09  2.15881E-09  2.07861E-09  1.99887E-09  1.91948E-09  1.84037E-09
   1.76152E-09  1.68294E-09  1.60465E-09  1.52670E-09  1.44911E-09  1.37194E-09  1.29524E-09  1.21908E-09  1.14348E-09  1.06854E-09
   9.94290E-10  9.20802E-10  8.48140E-10  7.76359E-10  7.05524E-10  6.35695E-10  5.66956E-10  4.99330E-10  4.32900E-10  3.67639E-10
   3.03540E-10  2.40583E-10  1.78760E-10  1.18049E-10  5.84399E-11 -8.74439E-14 -5.75376E-11 -1.13929E-10 -1.69282E-10 -2.23609E-10
  -2.76911E-10 -3.29217E-10 -3.80537E-10 -4.30883E-10 -4.80273E-10 -5.28718E-10 -5.76221E-10 -6.22821E-10 -6.68525E-10 -7.13327E-10
  -7.57255E-10 -8.00327E-10 -8.42545E-10 -8.83939E-10 -9.24508E-10 -9.64280E-10 -1.00326E-09 -1.04146E-09 -1.07890E-09 -1.11559E-09
  -1.15155E-09 -1.18678E-09 -1.22130E-09 -1.25514E-09 -1.28829E-09 -1.32078E-09 -1.35262E-09 -1.38383E-09 -1.41440E-09 -1.44436E-09
  -1.47373E-09 -1.50252E-09 -1.53074E-09 -1.55840E-09 -1.58554E-09 -1.61213E-09 -1.63822E-09 -1.66380E-09 -1.68891E-09 -1.71354E-09
  -1.73772E-09 -1.76146E-09 -1.78478E-09 -1.80770E-09 -1.83023E-09 -1.85240E-09 -1.87422E-09 -1.89571E-09 -1.91689E-09 -1.93777E-09
  -1.95838E-09 -1.97872E-09 -1.99883E-09 -2.01872E-09 -2.03840E-09 -2.05789E-09 -2.07721E-09 -2.09639E-09 -2.11543E-09 -2.13435E-09
  -2.15318E-09 -2.17193E-09 -2.19061E-09 -2.20925E-09 -2.22787E-09 -2.24648E-09 -2.26509E-09 -2.28374E-09 -2.30243E-09 -2.32118E-09
  -2.34002E-09 -2.35895E-09 -2.37801E-09 -2.39719E-09 -2.41653E-09 -2.43604E-09 -2.45574E-09 -2.47565E-09 -2.49578E-09 -2.51615E-09
  -2.53679E-09 -2.55770E-09 -2.57891E-09 -2.60043E-09 -2.62228E-09 -2.64448E-09 -2.66705E-09 -2.69001E-09 -2.71337E-09 -2.73715E-09
  -2.76137E-09 -2.78604E-09 -2.81117E-09 -2.83675E-09 -2.86275E-09 -2.88917E-09 -2.91599E-09 -2.94321E-09 -2.97082E-09 -2.99880E-09
  -3.02713E-09 -3.05582E-09 -3.08484E-09 -3.11418E-09 -3.14384E-09 -3.17381E-09 -3.20406E-09 -3.23458E-09 -3.26538E-09 -3.29642E-09
  -3.32772E-09 -3.35924E-09 -3.39098E-09 -3.42293E-09 -3.45507E-09 -3.48740E-09 -3.51990E-09 -3.55257E-09 -3.58538E-09 -3.61832E-09
  -3.65140E-09 -3.68459E-09 -3.71787E-09 -3.75125E-09 -3.78471E-09 -3.81823E-09 -3.85182E-09 -3.88544E-09 -3.91909E-09 -3.95277E-09
  -3.98645E-09 -4.02013E-09 -4.05380E-09 -4.08743E-09 -4.12103E-09 -4.15458E-09 -4.18806E-09 -4.22147E-09 -4.25480E-09 -4.28803E-09
  -4.32115E-09 -4.35415E-09 -4.38701E-09
 Asp      Conc. = 6.28E-10
  -4.30437E-09 -4.36980E-09 -4.28247E-09 -4.31913E-09 -4.24905E-09 -4.20852E-09 -4.19907E-09 -4.20334E-09 -4.15009E-09 -4.07717E-09
  -3.99560E-09 -3.90954E-09 -3.82147E-09 -3.72931E-09 -3.63660E-09 -3.54359E-09 -3.45016E-09 -3.35632E-09 -3.26217E-09 -3.16773E-09
  -3.07304E-09 -2.97812E-09 -2.88295E-09 -2.78753E-09 -2.69186E-09 -2.59587E-09 -2.49949E-09 -2.40262E-09 -2.30514E-09 -2.20681E-09
  -2.10730E-09 -2.00616E-09 -1.90244E-09 -1.79454E-09 -1.67881E-09 -1.54541E-09 -1.37422E-09 -1.28737E-09 -1.13304E-09 -1.07529E-09
  -9.79239E-10 -8.48376E-10 -6.44200E-10 -4.20590E-10 -1.47339E-10  9.08990E-11  6.58187E-11  7.16512E-11  4.12734E-10  4.20997E-10
   5.13626E-10  6.98986E-10  8.24280E-10  8.49833E-10  8.83820E-10  8.77632E-10  6.62387E-10  7.30716E-10  9.40181E-10  8.30374E-10
   8.36352E-10  9.21840E-10  9.20179E-10  9.64606E-10  1.07392E-09  1.19126E-09  1.21025E-09  1.25810E-09  1.31887E-09  1.38575E-09
   1.45592E-09  1.52796E-09  1.60108E-09  1.67478E-09  1.74872E-09  1.82268E-09  1.89648E-09  1.97000E-09  2.04314E-09  2.11580E-09
   2.18791E-09  2.25942E-09  2.33029E-09  2.40044E-09  2.46985E-09  2.53849E-09  2.60631E-09  2.67329E-09  2.73940E-09  2.80459E-09
   2.86886E-09  2.93216E-09  2.99449E-09  3.05580E-09  3.11607E-09  3.17530E-09  3.23345E-09  3.29049E-09  3.34640E-09  3.40117E-09
   3.45475E-09  3.50717E-09  3.55837E-09  3.60832E-09  3.65705E-09  3.70448E-09  3.75062E-09  3.79544E-09  3.83894E-09  3.88109E-09
   3.92187E-09  3.96126E-09  3.99925E-09  4.03582E-09  4.07095E-09  4.10462E-09  4.13681E-09  4.16751E-09  4.19669E-09  4.22434E-09
   4.25045E-09  4.27499E-09  4.29794E-09  4.31929E-09  4.33902E-09  4.35712E-09  4.37356E-09  4.38832E-09  4.40139E-09  4.41276E-09
   4.42240E-09  4.43030E-09  4.43643E-09  4.44079E-09  4.44335E-09  4.44410E-09  4.44302E-09  4.44009E-09  4.43530E-09  4.42863E-09
   4.42006E-09  4.40958E-09  4.39717E-09  4.38282E-09  4.36651E-09  4.34822E-09  4.32795E-09  4.30567E-09  4.28139E-09  4.25508E-09
   4.22674E-09  4.19638E-09  4.16397E-09  4.12953E-09  4.09308E-09  4.05464E-09  4.01425E-09  3.97205E-09  3.92825E-09  3.88311E-09
   3.83706E-09  3.79080E-09  3.74564E-09  3.70442E-09  3.67464E-09  3.68277E-09  3.87547E-09  4.41646E-09  4.18996E-09  4.09020E-09
   4.07814E-09  4.05607E-09  4.02836E-09  3.95217E-09  3.89794E-09  3.83803E-09  3.82699E-09  3.81075E-09  2.99065E-09  2.73580E-09
   2.60262E-09  2.50037E-09  2.40946E-09  2.32369E-09  2.24054E-09  2.15890E-09  2.07816E-09  1.99801E-09  1.91830E-09  1.83895E-09
   1.75989E-09  1.68116E-09  1.60273E-09  1.52468E-09  1.44700E-09  1.36976E-09  1.29300E-09  1.21678E-09  1.14114E-09  1.06616E-09
   9.91882E-10  9.18368E-10  8.45684E-10  7.73884E-10  7.03034E-10  6.33191E-10  5.64440E-10  4.96805E-10  4.30369E-10  3.65102E-10
   3.00998E-10  2.38039E-10  1.76213E-10  1.15500E-10  5.58916E-11 -2.63492E-12 -6.00850E-11 -1.16474E-10 -1.71824E-10 -2.26148E-10
  -2.79448E-10 -3.31751E-10 -3.83068E-10 -4.33410E-10 -4.82797E-10 -5.31238E-10 -5.78737E-10 -6.25333E-10 -6.71033E-10 -7.15830E-10
