 LCModel (Version 6.3-1R) Copyright: S.W. Provencher.          Ref.: Magn. Reson. Med. 30:672-679 (1993).                
 onepulse 15x10_ftSpec_smooth_lcm
 26 lines in following concentration table = NCONC+1
    Conc.  %SD   /Cr    Metabolite                                         
    0.000 999%   0.000 Ala                                                 
    0.000 999%   0.000 Asp                                                 
    0.000 999%   0.000 Cr                                                  
 1.79E-10 349%   0.000 GABA                                                
    0.000 999%   0.000 Glc                                                 
 2.12E-09  32%   0.000 Gln                                                 
    0.000 999%   0.000 Glu                                                 
 3.49E-09  13%   0.000 Glyc                                                
    0.000 999%   0.000 GPC                                                 
 2.14E-09  22%   0.000 GSH                                                 
    0.000 999%   0.000 Ins                                                 
    0.000 999%   0.000 Lac                                                 
 3.65E-10  88%   0.000 NAAG                                                
 4.29E-11 999%   0.000 NAA                                                 
    0.000 999%   0.000 PCh                                                 
    0.000 999%   0.000 PCr                                                 
 4.22E-09  15%   0.000 PE                                                  
 2.63E-10  71%   0.000 Scyllo                                              
    0.000 999%   0.000 Ser                                                 
    0.000 999%   0.000 Tau                                                 
    0.000 999%   0.000 GPC+PCh                                             
 4.08E-10  79%   0.000 NAA+NAAG                                            
 3.49E-09  13%   0.000 Ins+Glyc                                            
    0.000 999%   0.000 Cr+PCr                                              
 2.12E-09  32%   0.000 Glu+Gln                                             
   6 lines in following misc. output table
  FWHM = 0.123 ppm    S/N =   4                                            
  Data shift = 0.425 ppm                                                   
  Ph: -11 deg     -48.0 deg/ppm                                            
  alphaB,S = 4.4E-01,   1.3E+01                                            
   10 spline knots.   Ns = 5(1)                                            
  (12) 6 infls.   (11) 5 extrs.                                            
  363 points on ppm-axis = NY
      4.250000     4.238821     4.227641     4.216462     4.205282     4.194103     4.182923     4.171744     4.160564     4.149385
      4.138206     4.127026     4.115847     4.104667     4.093488     4.082308     4.071129     4.059949     4.048770     4.037591
      4.026411     4.015232     4.004052     3.992873     3.981693     3.970514     3.959334     3.948155     3.936975     3.925796
      3.914617     3.903437     3.892258     3.881078     3.869899     3.858719     3.847540     3.836360     3.825181     3.814002
      3.802822     3.791643     3.780463     3.769284     3.758104     3.746925     3.735745     3.724566     3.713387     3.702207
      3.691028     3.679848     3.668669     3.657489     3.646310     3.635130     3.623951     3.612772     3.601592     3.590413
      3.579233     3.568054     3.556874     3.545695     3.534515     3.523336     3.512156     3.500977     3.489798     3.478618
      3.467439     3.456259     3.445080     3.433900     3.422721     3.411541     3.400362     3.389183     3.378003     3.366824
      3.355644     3.344465     3.333285     3.322106     3.310926     3.299747     3.288568     3.277388     3.266209     3.255029
      3.243850     3.232670     3.221491     3.210311     3.199132     3.187953     3.176773     3.165594     3.154414     3.143235
      3.132055     3.120876     3.109696     3.098517     3.087337     3.076158     3.064979     3.053799     3.042620     3.031440
      3.020261     3.009081     2.997902     2.986722     2.975543     2.964364     2.953184     2.942005     2.930825     2.919646
      2.908466     2.897287     2.886107     2.874928     2.863749     2.852569     2.841390     2.830210     2.819031     2.807851
      2.796672     2.785492     2.774313     2.763134     2.751954     2.740775     2.729595     2.718416     2.707236     2.696057
      2.684877     2.673698     2.662519     2.651339     2.640160     2.628980     2.617801     2.606621     2.595442     2.584262
      2.573083     2.561903     2.550724     2.539545     2.528365     2.517186     2.506006     2.494827     2.483647     2.472468
      2.461288     2.450109     2.438930     2.427750     2.416571     2.405391     2.394212     2.383032     2.371853     2.360673
      2.349494     2.338315     2.327135     2.315956     2.304776     2.293597     2.282417     2.271238     2.260058     2.248879
      2.237700     2.226520     2.215341     2.204161     2.192982     2.181802     2.170623     2.159443     2.148264     2.137084
      2.125905     2.114726     2.103546     2.092367     2.081187     2.070008     2.058828     2.047649     2.036469     2.025290
      2.014111     2.002931     1.991752     1.980572     1.969393     1.958213     1.947034     1.935854     1.924675     1.913496
      1.902316     1.891137     1.879957     1.868778     1.857598     1.846419     1.835239     1.824060     1.812881     1.801701
      1.790522     1.779342     1.768163     1.756983     1.745804     1.734624     1.723445     1.712265     1.701086     1.689907
      1.678727     1.667548     1.656368     1.645189     1.634009     1.622830     1.611650     1.600471     1.589292     1.578112
      1.566933     1.555753     1.544574     1.533394     1.522215     1.511035     1.499856     1.488677     1.477497     1.466318
      1.455138     1.443959     1.432779     1.421600     1.410420     1.399241     1.388062     1.376882     1.365703     1.354523
      1.343344     1.332164     1.320985     1.309805     1.298626     1.287446     1.276267     1.265088     1.253908     1.242729
      1.231549     1.220370     1.209190     1.198011     1.186831     1.175652     1.164473     1.153293     1.142114     1.130934
      1.119755     1.108575     1.097396     1.086216     1.075037     1.063858     1.052678     1.041499     1.030319     1.019140
      1.007960     0.996781     0.985601     0.974422     0.963243     0.952063     0.940884     0.929704     0.918525     0.907345
      0.896166     0.884986     0.873807     0.862628     0.851448     0.840269     0.829089     0.817910     0.806730     0.795551
      0.784371     0.773192     0.762012     0.750833     0.739654     0.728474     0.717295     0.706115     0.694936     0.683756
      0.672577     0.661397     0.650218     0.639039     0.627859     0.616680     0.605500     0.594321     0.583141     0.571962
      0.560782     0.549603     0.538424     0.527244     0.516065     0.504885     0.493706     0.482526     0.471347     0.460167
      0.448988     0.437809     0.426629     0.415450     0.404270     0.393091     0.381911     0.370732     0.359552     0.348373
      0.337193     0.326014     0.314835     0.303655     0.292476     0.281296     0.270117     0.258937     0.247758     0.236578
      0.225399     0.214220     0.203040
 NY phased data points follow
   1.32642E-08  1.23510E-08  1.32513E-08  1.28625E-08  1.41379E-08  1.39651E-08  1.40563E-08  1.46355E-08  1.54451E-08  1.46752E-08
   1.47318E-08  1.42602E-08  1.43356E-08  1.36483E-08  1.37938E-08  1.29667E-08  1.37713E-08  1.30599E-08  1.50771E-08  1.49105E-08
   1.43849E-08  1.30574E-08  1.28656E-08  1.23493E-08  1.46414E-08  1.57627E-08  1.68068E-08  1.65500E-08  1.60879E-08  1.44657E-08
   1.35143E-08  1.23452E-08  1.27578E-08  1.22721E-08  1.18073E-08  1.23285E-08  1.19360E-08  1.10583E-08  1.15967E-08  1.08839E-08
   1.04080E-08  1.00071E-08  1.02515E-08  9.83670E-09  9.95066E-09  9.95281E-09  1.05571E-08  9.70315E-09  9.24307E-09  8.61703E-09
   8.03650E-09  8.47284E-09  9.09246E-09  9.12449E-09  9.42399E-09  1.02461E-08  1.28860E-08  1.59121E-08  1.70135E-08  1.60267E-08
   1.43517E-08  1.38871E-08  1.26842E-08  1.20254E-08  1.14507E-08  1.11365E-08  9.92334E-09  9.58300E-09  8.73844E-09  8.99757E-09
   6.79896E-09  7.93640E-09  9.12041E-09  1.55455E-08  1.80652E-08  1.89088E-08  1.71864E-08  1.72340E-08  1.64564E-08  1.64353E-08
   1.49333E-08  1.49343E-08  1.44544E-08  1.50247E-08  1.40024E-08  1.37748E-08  1.37881E-08  1.30547E-08  1.26791E-08  1.25964E-08
   1.12367E-08  1.17252E-08  1.07574E-08  1.03805E-08  9.59217E-09  1.04307E-08  1.06461E-08  1.01466E-08  9.51951E-09  9.87526E-09
   9.90874E-09  1.00594E-08  9.10517E-09  8.34028E-09  8.07742E-09  7.14192E-09  6.93268E-09  8.01112E-09  8.12881E-09  7.78478E-09
   8.06801E-09  8.48460E-09  8.17284E-09  8.19005E-09  8.70206E-09  9.34701E-09  8.58472E-09  8.18531E-09  7.87164E-09  7.27587E-09
   5.58660E-09  6.80521E-09  6.89309E-09  6.61653E-09  6.06800E-09  7.01400E-09  6.94486E-09  7.45480E-09  6.99486E-09  7.56357E-09
   6.99932E-09  6.73424E-09  5.44231E-09  7.11263E-09  8.50800E-09  9.22270E-09  8.86832E-09  8.80062E-09  8.40056E-09  9.83811E-09
   1.03135E-08  1.05360E-08  1.04533E-08  1.08559E-08  1.03942E-08  1.13915E-08  1.02145E-08  1.03536E-08  9.92546E-09  1.04482E-08
   1.02859E-08  1.03511E-08  1.04902E-08  1.04169E-08  1.01406E-08  9.90832E-09  1.01143E-08  1.03964E-08  9.75870E-09  9.55243E-09
   8.89615E-09  9.68578E-09  7.04937E-09  4.07691E-09  7.82329E-09  1.55756E-08  2.01164E-08  2.20162E-08  2.17922E-08  2.23694E-08
   2.34057E-08  2.28183E-08  2.26303E-08  2.22182E-08  2.24469E-08  2.18404E-08  2.12115E-08  2.10196E-08  1.93860E-08  1.85883E-08
   1.67210E-08  1.46922E-08  1.24710E-08  1.01181E-08  7.49028E-09  4.23864E-09  1.61011E-09 -4.95001E-10 -2.91618E-09 -5.21013E-09
  -7.64136E-09 -8.75171E-09 -9.81272E-09 -1.04351E-08 -1.07582E-08 -9.72354E-09 -1.00671E-08 -8.74223E-09 -7.54196E-09 -6.45200E-09
  -5.64578E-09 -4.44866E-09 -3.21338E-09 -2.81442E-09 -2.61038E-09 -1.33752E-09 -2.68330E-09 -1.85750E-09 -2.46386E-09 -1.96263E-09
  -2.06558E-09 -2.39389E-09 -1.88560E-09 -2.25310E-09 -1.87875E-09 -1.49062E-09 -1.14865E-09 -1.26812E-09 -1.19809E-09 -1.16497E-09
  -9.42791E-10 -1.88196E-09 -1.85990E-09 -1.86346E-09 -1.53659E-09 -1.29115E-09 -9.40831E-10 -9.63757E-10 -1.49456E-09 -1.06195E-09
  -9.28277E-10 -1.18091E-09 -3.64337E-10 -1.13013E-09 -1.62631E-09 -1.89256E-09 -1.94392E-09 -1.97359E-09 -1.74760E-09 -2.15452E-09
  -1.75846E-09 -1.41340E-09 -1.06053E-09 -1.01811E-09 -1.15259E-09 -9.07397E-10 -7.58665E-10 -5.68602E-10 -9.98071E-10 -8.78582E-10
  -5.71998E-10 -9.13325E-10 -9.37531E-10 -7.53765E-10 -7.82922E-10 -1.38312E-09 -1.18816E-09 -1.79741E-09 -1.90485E-09 -1.95626E-09
  -2.21666E-09 -2.46840E-09 -2.60122E-09 -2.72218E-09 -2.49550E-09 -2.85881E-09 -2.63370E-09 -2.94524E-09 -1.66773E-09 -1.78251E-09
  -1.31224E-09 -1.46918E-09 -1.03659E-09 -1.00681E-09 -5.06990E-10 -1.14570E-09 -1.02963E-10 -6.41037E-10  1.02775E-10 -6.10847E-10
   4.07790E-10 -9.66299E-11  7.25727E-11 -4.42148E-10  4.99242E-10 -6.61463E-11  3.20365E-10 -4.03305E-10  1.28853E-10 -2.36157E-10
   1.92385E-10  2.74102E-11  3.33645E-10 -9.58230E-11 -1.25846E-10 -6.09184E-10 -2.62182E-10 -2.49350E-10 -8.81735E-11 -4.25416E-10
  -4.10945E-10 -3.55386E-10 -6.50302E-10 -9.03594E-10 -6.32138E-10 -9.76529E-10 -8.61657E-10 -8.10947E-10 -6.84413E-10 -1.37691E-09
  -7.43140E-10 -1.32771E-09 -7.18130E-10 -1.23229E-09 -1.06726E-09 -1.21493E-09 -7.62586E-10 -1.71695E-09 -1.30956E-09 -1.71412E-09
  -1.13697E-09 -1.29224E-09 -9.54897E-10 -2.04133E-09 -6.52240E-10 -1.60580E-09 -1.15159E-09 -1.59857E-09 -1.38685E-09 -1.81507E-09
  -1.20516E-09 -1.61695E-09 -1.65329E-09 -1.80257E-09 -1.31365E-09 -1.59273E-09 -1.67872E-09 -2.17851E-09 -1.55844E-09 -2.14644E-09
  -1.72497E-09 -2.16118E-09 -2.52158E-09 -2.34617E-09 -1.64175E-09 -2.37078E-09 -2.31850E-09 -2.10861E-09 -2.12406E-09 -2.02790E-09
  -2.06848E-09 -2.02600E-09 -2.18907E-09 -2.37000E-09 -2.04481E-09 -2.33815E-09 -2.31564E-09 -2.01099E-09 -3.00330E-09 -2.44515E-09
  -2.83989E-09 -1.86200E-09 -2.56182E-09
 NY points of the fit to the data follow
   1.50679E-08  1.42656E-08  1.44486E-08  1.34927E-08  1.30068E-08  1.27869E-08  1.26897E-08  1.35507E-08  1.48011E-08  1.56626E-08
   1.55100E-08  1.44354E-08  1.35305E-08  1.34016E-08  1.33756E-08  1.32652E-08  1.32226E-08  1.41611E-08  1.68027E-08  1.76402E-08
   1.32901E-08  1.16584E-08  1.20969E-08  1.33629E-08  1.40700E-08  1.52772E-08  1.59250E-08  1.62054E-08  1.56752E-08  1.47736E-08
   1.46664E-08  1.38554E-08  1.28351E-08  1.25545E-08  1.22176E-08  1.15645E-08  1.10189E-08  1.11585E-08  1.09518E-08  1.08372E-08
   1.08093E-08  1.08327E-08  1.10657E-08  1.11447E-08  1.03440E-08  9.28318E-09  9.31097E-09  8.15939E-09  7.69534E-09  7.87112E-09
   8.53995E-09  9.02682E-09  9.25954E-09  1.05032E-08  1.17936E-08  1.19778E-08  1.24352E-08  1.36814E-08  1.42784E-08  1.41420E-08
   1.41632E-08  1.37067E-08  1.35813E-08  1.36862E-08  1.24796E-08  1.14178E-08  1.15631E-08  1.13488E-08  1.03168E-08  1.04442E-08
   1.10714E-08  1.14013E-08  1.23915E-08  1.28968E-08  1.38156E-08  1.51819E-08  1.62047E-08  1.66472E-08  1.69447E-08  1.71114E-08
   1.66520E-08  1.64331E-08  1.59185E-08  1.48062E-08  1.45318E-08  1.38294E-08  1.26231E-08  1.13060E-08  1.04258E-08  9.97859E-09
   9.65977E-09  9.45720E-09  9.36794E-09  9.26901E-09  9.12038E-09  9.07479E-09  9.02676E-09  8.94500E-09  8.91684E-09  8.87007E-09
   8.83188E-09  8.82267E-09  8.81301E-09  8.80084E-09  8.79508E-09  8.79391E-09  8.79526E-09  8.79858E-09  8.80241E-09  8.80662E-09
   8.81089E-09  8.81488E-09  8.81833E-09  8.82102E-09  8.82274E-09  8.82336E-09  8.82271E-09  8.82065E-09  8.81705E-09  8.81180E-09
   8.80478E-09  8.79591E-09  8.78510E-09  8.77227E-09  8.75732E-09  8.74018E-09  8.72079E-09  8.69908E-09  8.67498E-09  8.64842E-09
   8.61935E-09  8.58773E-09  8.55349E-09  8.51658E-09  8.47697E-09  8.43460E-09  8.38946E-09  8.34149E-09  8.29067E-09  8.23699E-09
   8.18041E-09  8.12094E-09  8.05859E-09  7.99336E-09  7.92526E-09  7.85434E-09  7.78069E-09  7.70436E-09  7.62549E-09  7.54426E-09
   7.46085E-09  7.37558E-09  7.28886E-09  7.20119E-09  7.11331E-09  7.02622E-09  6.94143E-09  6.86111E-09  6.78866E-09  6.72914E-09
   6.69077E-09  6.68776E-09  6.74726E-09  6.92833E-09  7.38730E-09  8.69290E-09  1.38308E-08  2.08938E-08  2.40470E-08  2.35620E-08
   2.33526E-08  2.36375E-08  2.34923E-08  2.28844E-08  2.23017E-08  2.28645E-08  2.37860E-08  1.96174E-08  1.14689E-08  6.01598E-09
   4.32498E-09  3.58781E-09  3.13572E-09  2.80283E-09  2.53038E-09  2.29276E-09  2.07706E-09  1.87625E-09  1.68625E-09  1.50451E-09
   1.32943E-09  1.16001E-09  9.95532E-10  8.35649E-10  6.80016E-10  5.28516E-10  3.81064E-10  2.37674E-10  9.83217E-11 -3.68866E-11
  -1.67887E-10 -2.94577E-10 -4.16833E-10 -5.34538E-10 -6.47546E-10 -7.55723E-10 -8.58881E-10 -9.56932E-10 -1.04972E-09 -1.13739E-09
  -1.22003E-09 -1.29778E-09 -1.37076E-09 -1.43908E-09 -1.50287E-09 -1.56224E-09 -1.61729E-09 -1.66815E-09 -1.71494E-09 -1.75777E-09
  -1.79673E-09 -1.83195E-09 -1.86355E-09 -1.89162E-09 -1.91629E-09 -1.93765E-09 -1.95582E-09 -1.97093E-09 -1.98308E-09 -1.99235E-09
  -1.99887E-09 -2.00276E-09 -2.00411E-09 -2.00306E-09 -1.99968E-09 -1.99411E-09 -1.98646E-09 -1.97681E-09 -1.96529E-09 -1.95200E-09
  -1.93706E-09 -1.92056E-09 -1.90263E-09 -1.88337E-09 -1.86288E-09 -1.84128E-09 -1.81868E-09 -1.79520E-09 -1.77091E-09 -1.74593E-09
  -1.72038E-09 -1.69439E-09 -1.66803E-09 -1.64141E-09 -1.61469E-09 -1.58790E-09 -1.56121E-09 -1.53470E-09 -1.50849E-09 -1.48269E-09
  -1.45734E-09 -1.43248E-09 -1.40810E-09 -1.38423E-09 -1.36086E-09 -1.33802E-09 -1.31571E-09 -1.29394E-09 -1.27272E-09 -1.25207E-09
  -1.23199E-09 -1.21249E-09 -1.19359E-09 -1.17529E-09 -1.15761E-09 -1.14055E-09 -1.12413E-09 -1.10836E-09 -1.09324E-09 -1.07879E-09
  -1.06502E-09 -1.05194E-09 -1.03954E-09 -1.02786E-09 -1.01690E-09 -1.00667E-09 -9.97177E-10 -9.88432E-10 -9.80453E-10 -9.73245E-10
  -9.66816E-10 -9.61174E-10 -9.56332E-10 -9.52313E-10 -9.49105E-10 -9.46740E-10 -9.45210E-10 -9.44533E-10 -9.44718E-10 -9.45783E-10
  -9.47735E-10 -9.50565E-10 -9.54313E-10 -9.58968E-10 -9.64547E-10 -9.71070E-10 -9.78537E-10 -9.86949E-10 -9.96343E-10 -1.00670E-09
  -1.01805E-09 -1.03041E-09 -1.04373E-09 -1.05801E-09 -1.07322E-09 -1.08934E-09 -1.10634E-09 -1.12419E-09 -1.14287E-09 -1.16236E-09
  -1.18263E-09 -1.20365E-09 -1.22540E-09 -1.24785E-09 -1.27098E-09 -1.29476E-09 -1.31917E-09 -1.34418E-09 -1.36977E-09 -1.39591E-09
  -1.42258E-09 -1.44975E-09 -1.47739E-09 -1.50549E-09 -1.53401E-09 -1.56292E-09 -1.59222E-09 -1.62187E-09 -1.65184E-09 -1.68210E-09
  -1.71265E-09 -1.74344E-09 -1.77446E-09 -1.80567E-09 -1.83706E-09 -1.86860E-09 -1.90026E-09 -1.93202E-09 -1.96385E-09 -1.99573E-09
  -2.02763E-09 -2.05953E-09 -2.09140E-09 -2.12322E-09 -2.15495E-09 -2.18659E-09 -2.21810E-09 -2.24945E-09 -2.28063E-09 -2.31161E-09
  -2.34235E-09 -2.37284E-09 -2.40306E-09
 NY background values follow
    -1.425E-09   -1.318E-09   -1.210E-09   -1.103E-09   -9.959E-10   -8.886E-10   -7.813E-10   -6.741E-10   -5.669E-10   -4.597E-10
    -3.526E-10   -2.455E-10   -1.386E-10   -3.174E-11    7.498E-11    1.816E-10    2.880E-10    3.943E-10    5.004E-10    6.063E-10
     7.120E-10    8.175E-10    9.228E-10    1.028E-09    1.133E-09    1.237E-09    1.341E-09    1.445E-09    1.549E-09    1.652E-09
     1.755E-09    1.857E-09    1.960E-09    2.061E-09    2.163E-09    2.264E-09    2.364E-09    2.464E-09    2.564E-09    2.663E-09
     2.762E-09    2.860E-09    2.958E-09    3.055E-09    3.151E-09    3.247E-09    3.343E-09    3.438E-09    3.532E-09    3.625E-09
     3.718E-09    3.811E-09    3.903E-09    3.994E-09    4.084E-09    4.174E-09    4.262E-09    4.351E-09    4.438E-09    4.525E-09
     4.610E-09    4.695E-09    4.780E-09    4.863E-09    4.945E-09    5.027E-09    5.108E-09    5.187E-09    5.266E-09    5.344E-09
     5.421E-09    5.497E-09    5.571E-09    5.645E-09    5.718E-09    5.790E-09    5.860E-09    5.930E-09    5.998E-09    6.065E-09
     6.131E-09    6.196E-09    6.260E-09    6.322E-09    6.384E-09    6.444E-09    6.502E-09    6.560E-09    6.616E-09    6.671E-09
     6.724E-09    6.776E-09    6.827E-09    6.877E-09    6.925E-09    6.971E-09    7.016E-09    7.060E-09    7.102E-09    7.143E-09
     7.182E-09    7.219E-09    7.255E-09    7.290E-09    7.323E-09    7.354E-09    7.383E-09    7.411E-09    7.437E-09    7.462E-09
     7.484E-09    7.504E-09    7.523E-09    7.539E-09    7.553E-09    7.566E-09    7.576E-09    7.583E-09    7.589E-09    7.592E-09
     7.593E-09    7.591E-09    7.587E-09    7.580E-09    7.571E-09    7.559E-09    7.544E-09    7.527E-09    7.506E-09    7.483E-09
     7.457E-09    7.428E-09    7.396E-09    7.361E-09    7.323E-09    7.282E-09    7.238E-09    7.190E-09    7.139E-09    7.085E-09
     7.027E-09    6.966E-09    6.901E-09    6.833E-09    6.761E-09    6.685E-09    6.606E-09    6.523E-09    6.436E-09    6.345E-09
     6.250E-09    6.152E-09    6.049E-09    5.943E-09    5.832E-09    5.717E-09    5.598E-09    5.474E-09    5.347E-09    5.216E-09
     5.082E-09    4.944E-09    4.803E-09    4.659E-09    4.513E-09    4.363E-09    4.211E-09    4.057E-09    3.901E-09    3.743E-09
     3.584E-09    3.422E-09    3.260E-09    3.096E-09    2.931E-09    2.765E-09    2.599E-09    2.433E-09    2.266E-09    2.099E-09
     1.932E-09    1.765E-09    1.599E-09    1.433E-09    1.268E-09    1.105E-09    9.420E-10    7.807E-10    6.210E-10    4.631E-10
     3.070E-10    1.530E-10    1.303E-12   -1.479E-10   -2.946E-10   -4.384E-10   -5.793E-10   -7.170E-10   -8.513E-10   -9.821E-10
    -1.109E-09   -1.232E-09   -1.352E-09   -1.466E-09   -1.577E-09   -1.683E-09   -1.784E-09   -1.880E-09   -1.971E-09   -2.057E-09
    -2.138E-09   -2.214E-09   -2.286E-09   -2.353E-09   -2.415E-09   -2.473E-09   -2.527E-09   -2.577E-09   -2.623E-09   -2.665E-09
    -2.703E-09   -2.737E-09   -2.768E-09   -2.795E-09   -2.819E-09   -2.840E-09   -2.857E-09   -2.871E-09   -2.883E-09   -2.892E-09
    -2.897E-09   -2.901E-09   -2.901E-09   -2.900E-09   -2.896E-09   -2.890E-09   -2.881E-09   -2.871E-09   -2.859E-09   -2.845E-09
    -2.830E-09   -2.813E-09   -2.794E-09   -2.774E-09   -2.753E-09   -2.731E-09   -2.708E-09   -2.684E-09   -2.659E-09   -2.634E-09
    -2.608E-09   -2.582E-09   -2.555E-09   -2.528E-09   -2.501E-09   -2.473E-09   -2.446E-09   -2.419E-09   -2.393E-09   -2.366E-09
    -2.341E-09   -2.315E-09   -2.291E-09   -2.266E-09   -2.242E-09   -2.219E-09   -2.196E-09   -2.174E-09   -2.153E-09   -2.132E-09
    -2.111E-09   -2.091E-09   -2.072E-09   -2.053E-09   -2.035E-09   -2.018E-09   -2.001E-09   -1.985E-09   -1.969E-09   -1.955E-09
    -1.940E-09   -1.927E-09   -1.914E-09   -1.902E-09   -1.891E-09   -1.880E-09   -1.870E-09   -1.861E-09   -1.853E-09   -1.845E-09
    -1.839E-09   -1.833E-09   -1.827E-09   -1.823E-09   -1.820E-09   -1.817E-09   -1.815E-09   -1.814E-09   -1.814E-09   -1.815E-09
    -1.816E-09   -1.819E-09   -1.822E-09   -1.826E-09   -1.832E-09   -1.838E-09   -1.845E-09   -1.853E-09   -1.862E-09   -1.872E-09
    -1.883E-09   -1.895E-09   -1.908E-09   -1.922E-09   -1.937E-09   -1.953E-09   -1.969E-09   -1.987E-09   -2.005E-09   -2.024E-09
    -2.044E-09   -2.065E-09   -2.086E-09   -2.109E-09   -2.131E-09   -2.155E-09   -2.179E-09   -2.204E-09   -2.229E-09   -2.255E-09
    -2.281E-09   -2.308E-09   -2.335E-09   -2.363E-09   -2.391E-09   -2.420E-09   -2.449E-09   -2.478E-09   -2.508E-09   -2.538E-09
    -2.568E-09   -2.598E-09   -2.629E-09   -2.660E-09   -2.691E-09   -2.722E-09   -2.753E-09   -2.785E-09   -2.816E-09   -2.848E-09
    -2.879E-09   -2.911E-09   -2.942E-09   -2.974E-09   -3.005E-09   -3.037E-09   -3.068E-09   -3.099E-09   -3.130E-09   -3.160E-09
    -3.191E-09   -3.221E-09   -3.251E-09
 GABA     Conc. = 1.79E-10
  -1.41165E-09 -1.30432E-09 -1.19692E-09 -1.08948E-09 -9.81985E-10 -8.74472E-10 -7.66938E-10 -6.59399E-10 -5.51864E-10 -4.44329E-10
  -3.36835E-10 -2.29359E-10 -1.21899E-10 -1.45098E-11  9.28794E-11  2.00224E-10  3.07469E-10  4.14772E-10  5.22077E-10  6.29370E-10
   7.36783E-10  8.44396E-10  9.52317E-10  1.06078E-09  1.17014E-09  1.28098E-09  1.39469E-09  1.51431E-09  1.64859E-09  1.82136E-09
   1.92267E-09  2.03012E-09  2.26049E-09  2.39726E-09  2.46483E-09  2.62162E-09  2.75925E-09  2.85988E-09  2.96611E-09  3.03877E-09
   3.05967E-09  3.19067E-09  3.28981E-09  3.24435E-09  3.31224E-09  3.42619E-09  3.45811E-09  3.51839E-09  3.59626E-09  3.68082E-09
   3.76864E-09  3.85792E-09  3.94805E-09  4.03883E-09  4.13007E-09  4.22173E-09  4.31409E-09  4.40756E-09  4.50307E-09  4.60292E-09
   4.71237E-09  4.84865E-09  4.98593E-09  5.05907E-09  5.19730E-09  5.36673E-09  5.43068E-09  5.50011E-09  5.61020E-09  5.69577E-09
   5.76975E-09  5.83613E-09  5.85165E-09  5.87516E-09  5.97672E-09  5.98000E-09  5.95561E-09  6.03317E-09  6.09166E-09  6.14454E-09
   6.22353E-09  6.26617E-09  6.34398E-09  6.47524E-09  6.53117E-09  6.58954E-09  6.70554E-09  6.77702E-09  6.83647E-09  6.92062E-09
   6.96499E-09  6.99688E-09  7.08634E-09  7.11991E-09  7.09807E-09  7.16285E-09  7.20455E-09  7.19053E-09  7.21789E-09  7.24989E-09
   7.26861E-09  7.29241E-09  7.31887E-09  7.34626E-09  7.37370E-09  7.40056E-09  7.42655E-09  7.45140E-09  7.47493E-09  7.49702E-09
   7.51755E-09  7.53635E-09  7.55336E-09  7.56849E-09  7.58165E-09  7.59281E-09  7.60190E-09  7.60884E-09  7.61356E-09  7.61601E-09
   7.61611E-09  7.61384E-09  7.60911E-09  7.60189E-09  7.59210E-09  7.57971E-09  7.56464E-09  7.54687E-09  7.52631E-09  7.50293E-09
   7.47667E-09  7.44748E-09  7.41531E-09  7.38010E-09  7.34181E-09  7.30038E-09  7.25576E-09  7.20789E-09  7.15674E-09  7.10224E-09
   7.04434E-09  6.98300E-09  6.91817E-09  6.84979E-09  6.77781E-09  6.70218E-09  6.62286E-09  6.53978E-09  6.45292E-09  6.36221E-09
   6.26761E-09  6.16907E-09  6.06656E-09  5.96001E-09  5.84939E-09  5.73466E-09  5.61585E-09  5.49305E-09  5.36653E-09  5.23650E-09
   5.10327E-09  4.96718E-09  4.82878E-09  4.68895E-09  4.54977E-09  4.41765E-09  4.32495E-09  4.33227E-09  4.19760E-09  4.01426E-09
   3.86096E-09  3.71018E-09  3.54581E-09  3.37508E-09  3.20180E-09  3.04323E-09  2.91296E-09  2.70739E-09  2.35534E-09  2.14360E-09
   1.96254E-09  1.78949E-09  1.61976E-09  1.45203E-09  1.28579E-09  1.12102E-09  9.57678E-10  7.95846E-10  6.35708E-10  4.77378E-10
   3.21002E-10  1.66782E-10  1.48347E-11 -1.34595E-10 -2.81403E-10 -4.25379E-10 -5.66357E-10 -7.04132E-10 -8.38575E-10 -9.69460E-10
  -1.09663E-09 -1.21990E-09 -1.33908E-09 -1.45402E-09 -1.56452E-09 -1.67040E-09 -1.77146E-09 -1.86759E-09 -1.95859E-09 -2.04460E-09
  -2.12570E-09 -2.20202E-09 -2.27364E-09 -2.34070E-09 -2.40328E-09 -2.46152E-09 -2.51550E-09 -2.56533E-09 -2.61115E-09 -2.65304E-09
  -2.69110E-09 -2.72547E-09 -2.75623E-09 -2.78351E-09 -2.80741E-09 -2.82803E-09 -2.84548E-09 -2.85988E-09 -2.87135E-09 -2.87996E-09
  -2.88584E-09 -2.88910E-09 -2.88984E-09 -2.88818E-09 -2.88422E-09 -2.87808E-09 -2.86986E-09 -2.85966E-09 -2.84760E-09 -2.83378E-09
  -2.81831E-09 -2.80130E-09 -2.78286E-09 -2.76310E-09 -2.74212E-09 -2.72004E-09 -2.69696E-09 -2.67301E-09 -2.64825E-09 -2.62281E-09
  -2.59681E-09 -2.57037E-09 -2.54357E-09 -2.51651E-09 -2.48935E-09 -2.46213E-09 -2.43501E-09 -2.40808E-09 -2.38145E-09 -2.35524E-09
  -2.32948E-09 -2.30420E-09 -2.27943E-09 -2.25515E-09 -2.23139E-09 -2.20815E-09 -2.18545E-09 -2.16329E-09 -2.14168E-09 -2.12065E-09
  -2.10019E-09 -2.08031E-09 -2.06104E-09 -2.04237E-09 -2.02431E-09 -2.00689E-09 -1.99010E-09 -1.97396E-09 -1.95848E-09 -1.94367E-09
  -1.92954E-09 -1.91610E-09 -1.90335E-09 -1.89131E-09 -1.88000E-09 -1.86943E-09 -1.85958E-09 -1.85049E-09 -1.84216E-09 -1.83461E-09
  -1.82784E-09 -1.82185E-09 -1.81667E-09 -1.81231E-09 -1.80876E-09 -1.80606E-09 -1.80419E-09 -1.80318E-09 -1.80303E-09 -1.80376E-09
  -1.80538E-09 -1.80787E-09 -1.81129E-09 -1.81562E-09 -1.82087E-09 -1.82706E-09 -1.83420E-09 -1.84228E-09 -1.85135E-09 -1.86138E-09
  -1.87240E-09 -1.88443E-09 -1.89743E-09 -1.91139E-09 -1.92627E-09 -1.94207E-09 -1.95874E-09 -1.97627E-09 -1.99463E-09 -2.01379E-09
  -2.03373E-09 -2.05443E-09 -2.07585E-09 -2.09798E-09 -2.12079E-09 -2.14424E-09 -2.16833E-09 -2.19302E-09 -2.21828E-09 -2.24410E-09
  -2.27044E-09 -2.29729E-09 -2.32460E-09 -2.35237E-09 -2.38057E-09 -2.40916E-09 -2.43813E-09 -2.46745E-09 -2.49709E-09 -2.52703E-09
  -2.55724E-09 -2.58771E-09 -2.61839E-09 -2.64928E-09 -2.68033E-09 -2.71154E-09 -2.74287E-09 -2.77429E-09 -2.80579E-09 -2.83733E-09
  -2.86889E-09 -2.90045E-09 -2.93198E-09 -2.96346E-09 -2.99485E-09 -3.02615E-09 -3.05732E-09 -3.08832E-09 -3.11916E-09 -3.14978E-09
  -3.18018E-09 -3.21032E-09 -3.24018E-09
 Gln      Conc. = 2.12E-09
   6.31302E-10  8.35852E-10  1.28023E-09  1.52861E-09  1.64053E-09  1.79793E-09  1.91775E-09  1.81138E-09  1.78862E-09  1.91226E-09
   1.21138E-09  1.15030E-09  1.03725E-09  7.56663E-10  6.89882E-10  7.03385E-10  7.51135E-10  8.17163E-10  8.94482E-10  9.78981E-10
   1.06829E-09  1.16105E-09  1.25606E-09  1.35273E-09  1.45173E-09  1.55209E-09  1.65276E-09  1.75489E-09  1.85765E-09  1.96083E-09
   2.06443E-09  2.16840E-09  2.27279E-09  2.37758E-09  2.48282E-09  2.58852E-09  2.69476E-09  2.80160E-09  2.90908E-09  3.01780E-09
   3.12754E-09  3.23909E-09  3.35259E-09  3.46817E-09  3.58662E-09  3.70930E-09  3.83603E-09  3.97010E-09  4.11720E-09  4.27592E-09
   4.45493E-09  4.67538E-09  4.96581E-09  5.40834E-09  6.22492E-09  6.73316E-09  6.88008E-09  7.92383E-09  8.64503E-09  8.59112E-09
   8.79142E-09  9.08987E-09  9.15142E-09  9.20333E-09  9.03875E-09  8.31255E-09  8.12903E-09  8.29330E-09  7.38037E-09  6.80113E-09
   6.98806E-09  7.34844E-09  7.44632E-09  7.54117E-09  8.36872E-09  8.84605E-09  9.01260E-09  9.45932E-09  9.71448E-09  9.76521E-09
   1.00103E-08  1.00363E-08  9.55256E-09  9.51066E-09  9.51642E-09  8.73612E-09  8.43881E-09  8.30409E-09  7.92385E-09  7.71255E-09
   7.59960E-09  7.53645E-09  7.50590E-09  7.49324E-09  7.48950E-09  7.49430E-09  7.50556E-09  7.52009E-09  7.53768E-09  7.55779E-09
   7.57902E-09  7.60070E-09  7.62250E-09  7.64415E-09  7.66593E-09  7.68723E-09  7.70781E-09  7.72749E-09  7.74613E-09  7.76359E-09
   7.77974E-09  7.79447E-09  7.80767E-09  7.81924E-09  7.82911E-09  7.83716E-09  7.84333E-09  7.84753E-09  7.84969E-09  7.84974E-09
   7.84761E-09  7.84323E-09  7.83654E-09  7.82747E-09  7.81596E-09  7.80195E-09  7.78538E-09  7.76620E-09  7.74433E-09  7.71974E-09
   7.69234E-09  7.66211E-09  7.62899E-09  7.59290E-09  7.55382E-09  7.51167E-09  7.46642E-09  7.41801E-09  7.36640E-09  7.31153E-09
   7.25335E-09  7.19183E-09  7.12692E-09  7.05858E-09  6.98675E-09  6.91141E-09  6.83253E-09  6.75007E-09  6.66401E-09  6.57433E-09
   6.48102E-09  6.38408E-09  6.28354E-09  6.17942E-09  6.07181E-09  5.96080E-09  5.84664E-09  5.72974E-09  5.61080E-09  5.49075E-09
   5.37102E-09  5.25394E-09  5.14376E-09  5.04928E-09  4.99236E-09  5.04422E-09  5.55869E-09  7.31235E-09  7.44687E-09  6.99333E-09
   6.90171E-09  6.86469E-09  6.68358E-09  6.43872E-09  6.17129E-09  6.07580E-09  6.33175E-09  5.75141E-09  3.40262E-09  2.67427E-09
   2.33321E-09  2.08898E-09  1.88064E-09  1.68930E-09  1.50744E-09  1.33172E-09  1.16037E-09  9.92476E-10  8.27629E-10  6.65556E-10
   5.06148E-10  3.49431E-10  1.95399E-10  4.42055E-11 -1.04112E-10 -2.49392E-10 -3.91507E-10 -5.30283E-10 -6.65612E-10 -7.97289E-10
  -9.25166E-10 -1.04908E-09 -1.16885E-09 -1.28432E-09 -1.39531E-09 -1.50165E-09 -1.60313E-09 -1.69964E-09 -1.79101E-09 -1.87736E-09
  -1.95878E-09 -2.03540E-09 -2.10731E-09 -2.17464E-09 -2.23748E-09 -2.29597E-09 -2.35018E-09 -2.40024E-09 -2.44627E-09 -2.48837E-09
  -2.52664E-09 -2.56119E-09 -2.59215E-09 -2.61961E-09 -2.64368E-09 -2.66447E-09 -2.68208E-09 -2.69665E-09 -2.70827E-09 -2.71703E-09
