 LCModel (Version 6.3-1R) Copyright: S.W. Provencher.          Ref.: Magn. Reson. Med. 30:672-679 (1993).                
 onepulse 15x15_ftSpec_smooth_lcm
 26 lines in following concentration table = NCONC+1
    Conc.  %SD   /Cr    Metabolite                                         
 3.04E-10  99%   0.000 Ala                                                 
    0.000 999%   0.000 Asp                                                 
    0.000 999%   0.000 Cr                                                  
 7.26E-10  77%   0.000 GABA                                                
 5.67E-11 999%   0.000 Glc                                                 
 9.85E-10  64%   0.000 Gln                                                 
    0.000 999%   0.000 Glu                                                 
 1.98E-09  27%   0.000 Glyc                                                
    0.000 999%   0.000 GPC                                                 
 1.58E-09  30%   0.000 GSH                                                 
    0.000 999%   0.000 Ins                                                 
 1.06E-10 275%   0.000 Lac                                                 
 3.70E-10  87%   0.000 NAAG                                                
 2.31E-10 211%   0.000 NAA                                                 
    0.000 999%   0.000 PCh                                                 
    0.000 999%   0.000 PCr                                                 
 2.75E-09  31%   0.000 PE                                                  
 1.00E-10 262%   0.000 Scyllo                                              
    0.000 999%   0.000 Ser                                                 
 9.06E-10 118%   0.000 Tau                                                 
    0.000 999%   0.000 GPC+PCh                                             
 6.02E-10  51%   0.000 NAA+NAAG                                            
 1.98E-09  27%   0.000 Ins+Glyc                                            
    0.000 999%   0.000 Cr+PCr                                              
 9.85E-10  64%   0.000 Glu+Gln                                             
   6 lines in following misc. output table
  FWHM = 0.123 ppm    S/N =   3                                            
  Data shift = 0.470 ppm                                                   
  Ph:  74 deg     -15.3 deg/ppm                                            
  alphaB,S = 6.5E-01,   2.2E+01                                            
   10 spline knots.   Ns = 5(1)                                            
  (12) 6 infls.   (11) 3 extrs.                                            
  363 points on ppm-axis = NY
      4.250000     4.238821     4.227641     4.216462     4.205282     4.194103     4.182923     4.171744     4.160564     4.149385
      4.138206     4.127026     4.115847     4.104667     4.093488     4.082308     4.071129     4.059949     4.048770     4.037591
      4.026411     4.015232     4.004052     3.992873     3.981693     3.970514     3.959334     3.948155     3.936975     3.925796
      3.914617     3.903437     3.892258     3.881078     3.869899     3.858719     3.847540     3.836360     3.825181     3.814002
      3.802822     3.791643     3.780463     3.769284     3.758104     3.746925     3.735745     3.724566     3.713387     3.702207
      3.691028     3.679848     3.668669     3.657489     3.646310     3.635130     3.623951     3.612772     3.601592     3.590413
      3.579233     3.568054     3.556874     3.545695     3.534515     3.523336     3.512156     3.500977     3.489798     3.478618
      3.467439     3.456259     3.445080     3.433900     3.422721     3.411541     3.400362     3.389183     3.378003     3.366824
      3.355644     3.344465     3.333285     3.322106     3.310926     3.299747     3.288568     3.277388     3.266209     3.255029
      3.243850     3.232670     3.221491     3.210311     3.199132     3.187953     3.176773     3.165594     3.154414     3.143235
      3.132055     3.120876     3.109696     3.098517     3.087337     3.076158     3.064979     3.053799     3.042620     3.031440
      3.020261     3.009081     2.997902     2.986722     2.975543     2.964364     2.953184     2.942005     2.930825     2.919646
      2.908466     2.897287     2.886107     2.874928     2.863749     2.852569     2.841390     2.830210     2.819031     2.807851
      2.796672     2.785492     2.774313     2.763134     2.751954     2.740775     2.729595     2.718416     2.707236     2.696057
      2.684877     2.673698     2.662519     2.651339     2.640160     2.628980     2.617801     2.606621     2.595442     2.584262
      2.573083     2.561903     2.550724     2.539545     2.528365     2.517186     2.506006     2.494827     2.483647     2.472468
      2.461288     2.450109     2.438930     2.427750     2.416571     2.405391     2.394212     2.383032     2.371853     2.360673
      2.349494     2.338315     2.327135     2.315956     2.304776     2.293597     2.282417     2.271238     2.260058     2.248879
      2.237700     2.226520     2.215341     2.204161     2.192982     2.181802     2.170623     2.159443     2.148264     2.137084
      2.125905     2.114726     2.103546     2.092367     2.081187     2.070008     2.058828     2.047649     2.036469     2.025290
      2.014111     2.002931     1.991752     1.980572     1.969393     1.958213     1.947034     1.935854     1.924675     1.913496
      1.902316     1.891137     1.879957     1.868778     1.857598     1.846419     1.835239     1.824060     1.812881     1.801701
      1.790522     1.779342     1.768163     1.756983     1.745804     1.734624     1.723445     1.712265     1.701086     1.689907
      1.678727     1.667548     1.656368     1.645189     1.634009     1.622830     1.611650     1.600471     1.589292     1.578112
      1.566933     1.555753     1.544574     1.533394     1.522215     1.511035     1.499856     1.488677     1.477497     1.466318
      1.455138     1.443959     1.432779     1.421600     1.410420     1.399241     1.388062     1.376882     1.365703     1.354523
      1.343344     1.332164     1.320985     1.309805     1.298626     1.287446     1.276267     1.265088     1.253908     1.242729
      1.231549     1.220370     1.209190     1.198011     1.186831     1.175652     1.164473     1.153293     1.142114     1.130934
      1.119755     1.108575     1.097396     1.086216     1.075037     1.063858     1.052678     1.041499     1.030319     1.019140
      1.007960     0.996781     0.985601     0.974422     0.963243     0.952063     0.940884     0.929704     0.918525     0.907345
      0.896166     0.884986     0.873807     0.862628     0.851448     0.840269     0.829089     0.817910     0.806730     0.795551
      0.784371     0.773192     0.762012     0.750833     0.739654     0.728474     0.717295     0.706115     0.694936     0.683756
      0.672577     0.661397     0.650218     0.639039     0.627859     0.616680     0.605500     0.594321     0.583141     0.571962
      0.560782     0.549603     0.538424     0.527244     0.516065     0.504885     0.493706     0.482526     0.471347     0.460167
      0.448988     0.437809     0.426629     0.415450     0.404270     0.393091     0.381911     0.370732     0.359552     0.348373
      0.337193     0.326014     0.314835     0.303655     0.292476     0.281296     0.270117     0.258937     0.247758     0.236578
      0.225399     0.214220     0.203040
 NY phased data points follow
   6.84604E-09  7.90385E-09  7.19536E-09  8.61892E-09  7.57432E-09  8.89388E-09  8.30444E-09  8.87251E-09  7.87911E-09  9.16500E-09
   7.51788E-09  8.19684E-09  6.79429E-09  7.74161E-09  7.67794E-09  9.92834E-09  8.28209E-09  9.09011E-09  7.53700E-09  7.95562E-09
   6.96131E-09  9.45037E-09  9.47812E-09  1.15517E-08  1.10044E-08  1.28129E-08  1.04536E-08  1.16365E-08  9.65169E-09  1.07431E-08
   9.07732E-09  1.03032E-08  8.94968E-09  9.34250E-09  8.36002E-09  9.65938E-09  7.55510E-09  8.22137E-09  6.19887E-09  7.64693E-09
   6.76901E-09  7.74692E-09  6.21719E-09  7.26733E-09  5.58266E-09  6.32357E-09  4.64334E-09  4.97884E-09  2.93734E-09  3.29167E-09
   9.90667E-10  2.28852E-09  2.51777E-09  7.13509E-09  8.96306E-09  1.05717E-08  9.49403E-09  1.04878E-08  8.99067E-09  1.02949E-08
   8.19372E-09  8.57544E-09  7.35610E-09  8.21104E-09  5.87400E-09  5.29621E-09  2.32573E-09  2.59479E-09  1.32543E-09  4.80949E-09
   6.77906E-09  1.01756E-08  1.03629E-08  1.17204E-08  1.04677E-08  1.19201E-08  1.05634E-08  1.16779E-08  1.08327E-08  1.17285E-08
   1.08814E-08  1.15072E-08  1.10948E-08  1.18518E-08  1.02504E-08  1.09017E-08  1.01982E-08  1.07108E-08  9.20280E-09  9.75699E-09
   8.58133E-09  9.04225E-09  8.28999E-09  9.05230E-09  8.20059E-09  9.15472E-09  8.43685E-09  9.26936E-09  8.18623E-09  7.80361E-09
   6.64460E-09  6.81484E-09  5.23091E-09  6.87204E-09  6.21848E-09  6.52492E-09  5.73620E-09  6.96933E-09  6.01194E-09  6.89071E-09
   6.87201E-09  8.41004E-09  7.30088E-09  7.67900E-09  6.64614E-09  6.92953E-09  5.36918E-09  5.46367E-09  5.16232E-09  5.73136E-09
   4.88978E-09  5.18814E-09  5.06812E-09  5.33732E-09  4.80872E-09  5.51576E-09  4.41683E-09  4.58849E-09  3.08199E-09  3.81350E-09
   3.82972E-09  5.68048E-09  4.90213E-09  5.54183E-09  4.78551E-09  5.75436E-09  5.36297E-09  6.61871E-09  6.43975E-09  6.91302E-09
   6.31063E-09  6.84299E-09  6.17521E-09  6.77936E-09  6.53408E-09  7.07798E-09  6.06665E-09  6.65637E-09  5.90113E-09  6.95402E-09
   6.72697E-09  7.48775E-09  6.59711E-09  6.91767E-09  6.33319E-09  5.49945E-09  3.37723E-09  3.78530E-09  2.15777E-09  1.70097E-09
   2.61436E-09  9.07443E-09  1.23207E-08  1.55772E-08  1.58227E-08  1.69772E-08  1.68088E-08  1.82669E-08  1.77572E-08  1.82632E-08
   1.78231E-08  1.83842E-08  1.84084E-08  1.95724E-08  1.83515E-08  1.87737E-08  1.81958E-08  1.82125E-08  1.68806E-08  1.65576E-08
   1.43142E-08  1.37564E-08  1.18389E-08  1.07454E-08  7.43075E-09  6.49123E-09  3.95562E-09  2.74449E-09 -8.72915E-11 -1.74544E-09
  -3.90908E-09 -3.94148E-09 -5.44450E-09 -5.71396E-09 -6.62119E-09 -5.63715E-09 -6.34896E-09 -5.09036E-09 -4.71043E-09 -3.93227E-09
  -3.86288E-09 -2.01534E-09 -2.02898E-09 -1.68335E-09 -1.23830E-09 -5.84457E-10 -2.16182E-09 -8.72501E-10 -1.23099E-09 -1.50045E-09
  -2.26089E-09 -1.16521E-09 -1.27113E-09 -1.07960E-09 -9.43525E-10  2.52296E-10 -8.62543E-10 -1.65240E-10 -1.81582E-09 -7.66419E-10
  -1.27306E-09 -8.50687E-10 -1.57997E-09 -9.24538E-10 -1.38759E-09 -2.95929E-11 -1.18618E-09  3.25905E-11 -6.38013E-10 -3.01998E-10
  -1.50312E-09 -1.12082E-09 -1.25071E-09 -9.16331E-10 -2.30741E-09 -1.30621E-09 -1.35957E-09 -1.13816E-09 -8.18306E-10 -8.62818E-10
  -1.59742E-09 -1.76764E-10 -1.65117E-09 -3.92827E-10 -3.49875E-10  5.14109E-11 -3.44245E-10 -4.64717E-10 -6.96524E-10  1.21360E-10
  -8.59253E-10 -1.05435E-09 -1.59624E-09 -1.24826E-09 -2.35047E-09 -1.65047E-09 -2.90323E-09 -1.95240E-09 -2.61015E-09 -2.36346E-09
  -2.31831E-09 -1.54094E-09 -1.60366E-09 -1.20930E-09 -1.82951E-09 -9.44485E-10 -1.04520E-09 -9.35518E-11 -1.01436E-09 -3.01612E-10
  -7.69291E-10  2.25497E-10 -7.35195E-10 -3.83044E-10 -5.28235E-10 -2.42655E-10 -1.70657E-10  1.07725E-10 -9.51421E-10 -3.85218E-10
  -6.51329E-10 -3.81670E-10 -1.43176E-09 -5.55324E-10 -9.15966E-10 -2.94307E-10 -1.22967E-09 -8.63860E-10 -1.15472E-09 -1.18785E-09
  -6.58290E-10 -1.22950E-09 -1.64950E-09 -1.39400E-09 -1.30041E-09 -1.23035E-09 -2.06519E-09 -1.74490E-09 -1.76188E-09 -1.55499E-09
  -2.15255E-09 -1.76693E-09 -1.78065E-09 -1.98818E-09 -2.51950E-09 -2.13721E-09 -1.90325E-09 -2.46275E-09 -2.51244E-09 -2.12812E-09
  -2.49808E-09 -2.57234E-09 -2.68157E-09 -2.35243E-09 -3.30519E-09 -2.73835E-09 -2.69265E-09 -2.59465E-09 -2.79610E-09 -3.14476E-09
  -2.68030E-09 -2.73603E-09 -3.47588E-09 -2.50987E-09 -3.17605E-09 -2.89605E-09 -3.35214E-09 -3.09108E-09 -3.82552E-09 -3.00381E-09
  -3.11645E-09 -3.50852E-09 -3.79804E-09 -3.35703E-09 -4.10031E-09 -3.45731E-09 -3.65432E-09 -3.30171E-09 -4.24308E-09 -3.11451E-09
  -3.33346E-09 -3.59976E-09 -3.86072E-09 -3.71620E-09 -3.78403E-09 -3.99054E-09 -3.78987E-09 -3.19496E-09 -4.10470E-09 -3.71263E-09
  -3.64376E-09 -4.07990E-09 -3.33603E-09 -3.99658E-09 -3.83416E-09 -3.74964E-09 -3.71984E-09 -3.63934E-09 -4.04622E-09 -3.90402E-09
  -3.66109E-09 -4.05255E-09 -3.72777E-09
 NY points of the fit to the data follow
   9.14408E-09  8.36138E-09  7.99356E-09  7.61118E-09  7.61477E-09  7.69779E-09  7.86164E-09  8.21860E-09  9.15738E-09  8.83610E-09
   7.99229E-09  7.49645E-09  7.04686E-09  7.25064E-09  7.97163E-09  8.51951E-09  9.18414E-09  9.89785E-09  9.92507E-09  8.25396E-09
   7.14976E-09  8.08049E-09  9.19420E-09  1.03213E-08  1.07488E-08  1.12902E-08  1.15938E-08  1.13897E-08  1.12418E-08  1.12910E-08
   1.11072E-08  1.02586E-08  9.45909E-09  8.91175E-09  8.54538E-09  8.03029E-09  7.62874E-09  7.76212E-09  7.71930E-09  7.54710E-09
   7.40894E-09  7.53632E-09  7.60354E-09  7.14616E-09  6.44654E-09  5.70734E-09  5.27289E-09  4.46253E-09  4.20526E-09  4.36175E-09
   4.85640E-09  5.28812E-09  5.48453E-09  6.13319E-09  6.94721E-09  7.19043E-09  7.53844E-09  8.15806E-09  8.54836E-09  8.51820E-09
   8.41690E-09  8.23777E-09  8.36552E-09  8.21102E-09  7.58222E-09  7.48016E-09  7.64691E-09  7.30441E-09  6.97454E-09  7.34040E-09
   7.91194E-09  8.15030E-09  8.62826E-09  9.01006E-09  9.56209E-09  1.02492E-08  1.11160E-08  1.21125E-08  1.24456E-08  1.22897E-08
   1.19514E-08  1.16609E-08  1.13733E-08  1.10335E-08  1.08152E-08  1.03186E-08  9.46915E-09  8.31432E-09  7.37063E-09  7.02170E-09
   6.79420E-09  6.66467E-09  6.68030E-09  6.56103E-09  6.33665E-09  6.34425E-09  6.29912E-09  6.14280E-09  6.14125E-09  6.24031E-09
   6.49523E-09  6.50873E-09  6.47799E-09  6.73617E-09  6.91222E-09  6.96933E-09  7.02444E-09  7.13378E-09  7.18258E-09  7.19913E-09
   7.08712E-09  6.87155E-09  6.92285E-09  6.81771E-09  6.51581E-09  6.42255E-09  6.36544E-09  6.27323E-09  6.18356E-09  6.17065E-09
   6.09056E-09  5.99895E-09  5.96560E-09  5.94817E-09  5.93647E-09  5.92707E-09  5.91844E-09  5.90977E-09  5.90060E-09  5.89061E-09
   5.87960E-09  5.86742E-09  5.85397E-09  5.83915E-09  5.82290E-09  5.80516E-09  5.78589E-09  5.76506E-09  5.74264E-09  5.71862E-09
   5.69298E-09  5.66573E-09  5.63687E-09  5.60640E-09  5.57435E-09  5.54076E-09  5.50567E-09  5.46915E-09  5.43129E-09  5.39222E-09
   5.35208E-09  5.31108E-09  5.26951E-09  5.22772E-09  5.18625E-09  5.14578E-09  5.10735E-09  5.07248E-09  5.04348E-09  5.02388E-09
   5.01949E-09  5.04037E-09  5.10581E-09  5.25741E-09  5.60273E-09  6.51277E-09  9.92828E-09  1.72371E-08  2.00765E-08  1.95253E-08
   1.86861E-08  1.86271E-08  1.90686E-08  1.94819E-08  1.97547E-08  2.01633E-08  1.93787E-08  1.44717E-08  7.11113E-09  4.93768E-09
   4.13174E-09  3.69696E-09  3.40803E-09  3.19003E-09  3.01145E-09  2.85691E-09  2.71805E-09  2.58997E-09  2.46969E-09  2.35525E-09
   2.24535E-09  2.13911E-09  2.03590E-09  1.93532E-09  1.83703E-09  1.74082E-09  1.64654E-09  1.55412E-09  1.46344E-09  1.37451E-09
   1.28730E-09  1.20181E-09  1.11805E-09  1.03605E-09  9.55851E-10  8.77477E-10  8.01004E-10  7.26437E-10  6.53850E-10  5.83177E-10
   5.14379E-10  4.47406E-10  3.82218E-10  3.18763E-10  2.57009E-10  1.96906E-10  1.38423E-10  8.15212E-11  2.61544E-11 -2.77113E-11
  -8.01001E-11 -1.31063E-10 -1.80633E-10 -2.28839E-10 -2.75723E-10 -3.21316E-10 -3.65640E-10 -4.08753E-10 -4.50684E-10 -4.91446E-10
  -5.31085E-10 -5.69640E-10 -6.07130E-10 -6.43604E-10 -6.79081E-10 -7.13608E-10 -7.47210E-10 -7.79911E-10 -8.11755E-10 -8.42770E-10
  -8.72988E-10 -9.02438E-10 -9.31157E-10 -9.59179E-10 -9.86528E-10 -1.01324E-09 -1.03936E-09 -1.06491E-09 -1.08990E-09 -1.11438E-09
  -1.13839E-09 -1.16196E-09 -1.18511E-09 -1.20787E-09 -1.23030E-09 -1.25240E-09 -1.27421E-09 -1.29577E-09 -1.31710E-09 -1.33825E-09
  -1.35922E-09 -1.38004E-09 -1.40070E-09 -1.42123E-09 -1.44164E-09 -1.46193E-09 -1.48212E-09 -1.50221E-09 -1.52222E-09 -1.54217E-09
  -1.56205E-09 -1.58189E-09 -1.60169E-09 -1.62146E-09 -1.64122E-09 -1.66097E-09 -1.68073E-09 -1.70051E-09 -1.72032E-09 -1.74017E-09
  -1.76007E-09 -1.78002E-09 -1.80005E-09 -1.82017E-09 -1.84038E-09 -1.86069E-09 -1.88112E-09 -1.90168E-09 -1.92238E-09 -1.94322E-09
  -1.96423E-09 -1.98541E-09 -2.00676E-09 -2.02831E-09 -2.05007E-09 -2.07204E-09 -2.09423E-09 -2.11666E-09 -2.13934E-09 -2.16228E-09
  -2.18548E-09 -2.20897E-09 -2.23274E-09 -2.25682E-09 -2.28121E-09 -2.30592E-09 -2.33097E-09 -2.35636E-09 -2.38211E-09 -2.40822E-09
  -2.43472E-09 -2.46160E-09 -2.48886E-09 -2.51650E-09 -2.54450E-09 -2.57285E-09 -2.60154E-09 -2.63055E-09 -2.65988E-09 -2.68951E-09
  -2.71944E-09 -2.74964E-09 -2.78012E-09 -2.81086E-09 -2.84184E-09 -2.87306E-09 -2.90450E-09 -2.93616E-09 -2.96802E-09 -3.00007E-09
  -3.03230E-09 -3.06470E-09 -3.09724E-09 -3.12995E-09 -3.16278E-09 -3.19573E-09 -3.22879E-09 -3.26196E-09 -3.29521E-09 -3.32854E-09
  -3.36193E-09 -3.39538E-09 -3.42888E-09 -3.46240E-09 -3.49594E-09 -3.52949E-09 -3.56304E-09 -3.59657E-09 -3.63008E-09 -3.66355E-09
  -3.69698E-09 -3.73034E-09 -3.76363E-09 -3.79684E-09 -3.82996E-09 -3.86297E-09 -3.89587E-09 -3.92863E-09 -3.96126E-09 -3.99373E-09
  -4.02605E-09 -4.05819E-09 -4.09015E-09
 NY background values follow
    -3.245E-09   -3.157E-09   -3.070E-09   -2.983E-09   -2.895E-09   -2.808E-09   -2.720E-09   -2.633E-09   -2.545E-09   -2.457E-09
    -2.370E-09   -2.282E-09   -2.195E-09   -2.107E-09   -2.020E-09   -1.932E-09   -1.845E-09   -1.757E-09   -1.670E-09   -1.583E-09
    -1.495E-09   -1.408E-09   -1.321E-09   -1.234E-09   -1.147E-09   -1.061E-09   -9.739E-10   -8.873E-10   -8.009E-10   -7.147E-10
    -6.285E-10   -5.425E-10   -4.567E-10   -3.711E-10   -2.856E-10   -2.002E-10   -1.151E-10   -3.018E-11    5.455E-11    1.390E-10
     2.234E-10    3.075E-10    3.913E-10    4.749E-10    5.583E-10    6.414E-10    7.243E-10    8.069E-10    8.892E-10    9.712E-10
     1.053E-09    1.134E-09    1.216E-09    1.296E-09    1.377E-09    1.457E-09    1.537E-09    1.616E-09    1.695E-09    1.774E-09
     1.852E-09    1.929E-09    2.006E-09    2.083E-09    2.159E-09    2.234E-09    2.309E-09    2.383E-09    2.457E-09    2.530E-09
     2.602E-09    2.673E-09    2.744E-09    2.814E-09    2.884E-09    2.952E-09    3.020E-09    3.087E-09    3.153E-09    3.218E-09
     3.282E-09    3.346E-09    3.408E-09    3.470E-09    3.530E-09    3.590E-09    3.648E-09    3.706E-09    3.762E-09    3.818E-09
     3.872E-09    3.925E-09    3.977E-09    4.028E-09    4.077E-09    4.126E-09    4.173E-09    4.219E-09    4.264E-09    4.307E-09
     4.349E-09    4.390E-09    4.429E-09    4.467E-09    4.504E-09    4.539E-09    4.573E-09    4.605E-09    4.636E-09    4.666E-09
     4.693E-09    4.720E-09    4.745E-09    4.768E-09    4.790E-09    4.810E-09    4.828E-09    4.845E-09    4.860E-09    4.874E-09
     4.886E-09    4.896E-09    4.905E-09    4.912E-09    4.917E-09    4.920E-09    4.922E-09    4.922E-09    4.920E-09    4.916E-09
     4.910E-09    4.903E-09    4.893E-09    4.882E-09    4.869E-09    4.854E-09    4.837E-09    4.818E-09    4.797E-09    4.774E-09
     4.749E-09    4.722E-09    4.693E-09    4.662E-09    4.629E-09    4.593E-09    4.556E-09    4.516E-09    4.475E-09    4.431E-09
     4.385E-09    4.337E-09    4.287E-09    4.234E-09    4.179E-09    4.122E-09    4.063E-09    4.001E-09    3.938E-09    3.872E-09
     3.804E-09    3.735E-09    3.663E-09    3.590E-09    3.515E-09    3.439E-09    3.361E-09    3.282E-09    3.201E-09    3.119E-09
     3.036E-09    2.952E-09    2.867E-09    2.780E-09    2.693E-09    2.605E-09    2.517E-09    2.428E-09    2.338E-09    2.248E-09
     2.157E-09    2.066E-09    1.975E-09    1.883E-09    1.792E-09    1.700E-09    1.609E-09    1.517E-09    1.426E-09    1.336E-09
     1.245E-09    1.155E-09    1.066E-09    9.771E-10    8.891E-10    8.018E-10    7.154E-10    6.299E-10    5.454E-10    4.620E-10
     3.797E-10    2.988E-10    2.191E-10    1.409E-10    6.410E-11   -1.111E-11   -8.466E-11   -1.565E-10   -2.266E-10   -2.949E-10
    -3.615E-10   -4.264E-10   -4.897E-10   -5.513E-10   -6.113E-10   -6.698E-10   -7.268E-10   -7.822E-10   -8.362E-10   -8.887E-10
    -9.398E-10   -9.896E-10   -1.038E-09   -1.085E-09   -1.131E-09   -1.175E-09   -1.219E-09   -1.261E-09   -1.302E-09   -1.342E-09
    -1.381E-09   -1.418E-09   -1.455E-09   -1.491E-09   -1.525E-09   -1.559E-09   -1.592E-09   -1.624E-09   -1.655E-09   -1.686E-09
    -1.715E-09   -1.744E-09   -1.772E-09   -1.800E-09   -1.826E-09   -1.852E-09   -1.878E-09   -1.903E-09   -1.927E-09   -1.951E-09
    -1.975E-09   -1.998E-09   -2.020E-09   -2.043E-09   -2.065E-09   -2.086E-09   -2.108E-09   -2.129E-09   -2.150E-09   -2.170E-09
    -2.191E-09   -2.211E-09   -2.231E-09   -2.251E-09   -2.271E-09   -2.291E-09   -2.311E-09   -2.331E-09   -2.350E-09   -2.370E-09
    -2.389E-09   -2.409E-09   -2.428E-09   -2.447E-09   -2.467E-09   -2.486E-09   -2.505E-09   -2.525E-09   -2.544E-09   -2.564E-09
    -2.583E-09   -2.603E-09   -2.622E-09   -2.642E-09   -2.662E-09   -2.682E-09   -2.702E-09   -2.722E-09   -2.743E-09   -2.763E-09
    -2.784E-09   -2.804E-09   -2.825E-09   -2.847E-09   -2.868E-09   -2.890E-09   -2.911E-09   -2.934E-09   -2.956E-09   -2.978E-09
    -3.001E-09   -3.024E-09   -3.048E-09   -3.072E-09   -3.096E-09   -3.120E-09   -3.145E-09   -3.170E-09   -3.195E-09   -3.221E-09
    -3.247E-09   -3.273E-09   -3.300E-09   -3.328E-09   -3.355E-09   -3.383E-09   -3.412E-09   -3.440E-09   -3.469E-09   -3.498E-09
    -3.528E-09   -3.558E-09   -3.588E-09   -3.618E-09   -3.649E-09   -3.680E-09   -3.711E-09   -3.742E-09   -3.774E-09   -3.805E-09
    -3.837E-09   -3.869E-09   -3.901E-09   -3.934E-09   -3.966E-09   -3.999E-09   -4.031E-09   -4.064E-09   -4.097E-09   -4.130E-09
    -4.163E-09   -4.196E-09   -4.229E-09   -4.262E-09   -4.296E-09   -4.329E-09   -4.362E-09   -4.395E-09   -4.428E-09   -4.461E-09
    -4.494E-09   -4.527E-09   -4.560E-09   -4.593E-09   -4.626E-09   -4.658E-09   -4.691E-09   -4.723E-09   -4.755E-09   -4.787E-09
    -4.819E-09   -4.851E-09   -4.882E-09
 Ala      Conc. = 3.04E-10
  -3.01904E-09 -2.91781E-09 -2.82875E-09 -2.73524E-09 -2.65002E-09 -2.56080E-09 -2.47258E-09 -2.42622E-09 -2.36798E-09 -2.26581E-09
  -2.21297E-09 -2.17109E-09 -2.08787E-09 -2.01496E-09 -1.94861E-09 -1.87337E-09 -1.79382E-09 -1.71190E-09 -1.62860E-09 -1.54440E-09
  -1.45961E-09 -1.37442E-09 -1.28894E-09 -1.20329E-09 -1.11754E-09 -1.03172E-09 -9.45875E-10 -8.60039E-10 -7.74249E-10 -6.88509E-10
  -6.02830E-10 -5.17277E-10 -4.31816E-10 -3.46483E-10 -2.61281E-10 -1.76237E-10 -9.13505E-11 -6.61500E-12  7.79254E-11  1.62257E-10
   2.46424E-10  3.30390E-10  4.14120E-10  4.97621E-10  5.80905E-10  6.63936E-10  7.46734E-10  8.29268E-10  9.11532E-10  9.93507E-10
   1.07524E-09  1.15667E-09  1.23781E-09  1.31864E-09  1.39914E-09  1.47929E-09  1.55907E-09  1.63846E-09  1.71744E-09  1.79599E-09
   1.87408E-09  1.95170E-09  2.02883E-09  2.10544E-09  2.18151E-09  2.25703E-09  2.33197E-09  2.40632E-09  2.48006E-09  2.55315E-09
   2.62560E-09  2.69737E-09  2.76845E-09  2.83882E-09  2.90847E-09  2.97737E-09  3.04552E-09  3.11288E-09  3.17947E-09  3.24526E-09
   3.31023E-09  3.37439E-09  3.43773E-09  3.50025E-09  3.56194E-09  3.62285E-09  3.68296E-09  3.74235E-09  3.80104E-09  3.85913E-09
   3.91675E-09  3.97409E-09  4.03146E-09  4.08932E-09  4.14847E-09  4.21035E-09  4.27770E-09  4.35665E-09  4.46393E-09  4.66231E-09
   5.02898E-09  5.11459E-09  5.14188E-09  5.44793E-09  5.65590E-09  5.72568E-09  5.75018E-09  5.78227E-09  5.83615E-09  5.83400E-09
   5.65418E-09  5.41300E-09  5.47238E-09  5.38088E-09  5.08614E-09  4.99399E-09  4.96129E-09  4.94927E-09  4.94613E-09  4.94710E-09
   4.94990E-09  4.95328E-09  4.95650E-09  4.95912E-09  4.96080E-09  4.96135E-09  4.96059E-09  4.95842E-09  4.95473E-09  4.94947E-09
   4.94256E-09  4.93396E-09  4.92362E-09  4.91151E-09  4.89760E-09  4.88184E-09  4.86422E-09  4.84471E-09  4.82329E-09  4.79992E-09
   4.77460E-09  4.74729E-09  4.71799E-09  4.68667E-09  4.65331E-09  4.61788E-09  4.58039E-09  4.54081E-09  4.49912E-09  4.45531E-09
   4.40936E-09  4.36128E-09  4.31104E-09  4.25863E-09  4.20406E-09  4.14732E-09  4.08844E-09  4.02751E-09  3.96468E-09  3.90010E-09
   3.83402E-09  3.76678E-09  3.69898E-09  3.63180E-09  3.56810E-09  3.51722E-09  3.52632E-09  3.69380E-09  3.71318E-09  3.61591E-09
   3.50660E-09  3.42190E-09  3.35345E-09  3.28392E-09  3.20737E-09  3.13729E-09  3.04040E-09  2.81729E-09  2.48010E-09  2.32544E-09
   2.21253E-09  2.11078E-09  2.01333E-09  1.91792E-09  1.82364E-09  1.73012E-09  1.63715E-09  1.54465E-09  1.45262E-09  1.36108E-09
   1.27004E-09  1.17958E-09  1.08972E-09  1.00057E-09  9.12156E-10  8.24560E-10  7.37850E-10  6.52116E-10  5.67401E-10  4.83809E-10
   4.01405E-10  3.20262E-10  2.40463E-10  1.62076E-10  8.51843E-11  9.85771E-12 -6.38003E-11 -1.35759E-10 -2.05923E-10 -2.74336E-10
  -3.41021E-10 -4.06015E-10 -4.69344E-10 -5.31047E-10 -5.91149E-10 -6.49690E-10 -7.06691E-10 -7.62187E-10 -8.16217E-10 -8.68808E-10
  -9.19982E-10 -9.69783E-10 -1.01824E-09 -1.06538E-09 -1.11124E-09 -1.15584E-09 -1.19922E-09 -1.24142E-09 -1.28247E-09 -1.32237E-09
  -1.36119E-09 -1.39894E-09 -1.43566E-09 -1.47138E-09 -1.50612E-09 -1.53994E-09 -1.57285E-09 -1.60488E-09 -1.63607E-09 -1.66644E-09
  -1.69603E-09 -1.72487E-09 -1.75300E-09 -1.78043E-09 -1.80721E-09 -1.83336E-09 -1.85893E-09 -1.88394E-09 -1.90840E-09 -1.93236E-09
  -1.95586E-09 -1.97893E-09 -2.00159E-09 -2.02386E-09 -2.04581E-09 -2.06743E-09 -2.08878E-09 -2.10987E-09 -2.13076E-09 -2.15146E-09
  -2.17199E-09 -2.19236E-09 -2.21260E-09 -2.23270E-09 -2.25268E-09 -2.27255E-09 -2.29232E-09 -2.31201E-09 -2.33161E-09 -2.35115E-09
  -2.37064E-09 -2.39008E-09 -2.40948E-09 -2.42886E-09 -2.44823E-09 -2.46760E-09 -2.48698E-09 -2.50638E-09 -2.52581E-09 -2.54528E-09
  -2.56481E-09 -2.58439E-09 -2.60405E-09 -2.62380E-09 -2.64365E-09 -2.66360E-09 -2.68366E-09 -2.70386E-09 -2.72420E-09 -2.74468E-09
  -2.76533E-09 -2.78615E-09 -2.80715E-09 -2.82835E-09 -2.84975E-09 -2.87136E-09 -2.89321E-09 -2.91528E-09 -2.93761E-09 -2.96020E-09
  -2.98305E-09 -3.00618E-09 -3.02961E-09 -3.05334E-09 -3.07738E-09 -3.10174E-09 -3.12644E-09 -3.15149E-09 -3.17689E-09 -3.20265E-09
  -3.22880E-09 -3.25533E-09 -3.28225E-09 -3.30954E-09 -3.33719E-09 -3.36519E-09 -3.39352E-09 -3.42219E-09 -3.45116E-09 -3.48045E-09
  -3.51002E-09 -3.53988E-09 -3.57000E-09 -3.60038E-09 -3.63101E-09 -3.66188E-09 -3.69296E-09 -3.72427E-09 -3.75577E-09 -3.78746E-09
  -3.81933E-09 -3.85137E-09 -3.88355E-09 -3.91589E-09 -3.94836E-09 -3.98095E-09 -4.01365E-09 -4.04645E-09 -4.07933E-09 -4.11229E-09
  -4.14531E-09 -4.17839E-09 -4.21151E-09 -4.24466E-09 -4.27782E-09 -4.31100E-09 -4.34417E-09 -4.37732E-09 -4.41045E-09 -4.44353E-09
  -4.47657E-09 -4.50955E-09 -4.54245E-09 -4.57527E-09 -4.60799E-09 -4.64061E-09 -4.67311E-09 -4.70548E-09 -4.73771E-09 -4.76978E-09
  -4.80169E-09 -4.83343E-09 -4.86497E-09
 GABA     Conc. = 7.26E-10
  -3.16780E-09 -3.07952E-09 -2.99111E-09 -2.90256E-09 -2.81387E-09 -2.72505E-09 -2.63608E-09 -2.54696E-09 -2.45767E-09 -2.36817E-09
  -2.27851E-09 -2.18862E-09 -2.09841E-09 -2.00799E-09 -1.91712E-09 -1.82586E-09 -1.73428E-09 -1.64197E-09 -1.54884E-09 -1.45490E-09
  -1.35969E-09 -1.26279E-09 -1.16367E-09 -1.06138E-09 -9.54492E-10 -8.40658E-10 -7.14870E-10 -5.66564E-10 -3.67147E-10 -3.43191E-11
   1.30510E-10  2.34285E-10  6.93058E-10  1.01962E-09  1.07900E-09  1.27985E-09  1.49818E-09  1.64366E-09  1.70747E-09  1.64764E-09
   1.54096E-09  1.64967E-09  1.60487E-09  1.26744E-09  1.23003E-09  1.28619E-09  1.15458E-09  1.11113E-09  1.13496E-09  1.18541E-09
   1.24971E-09  1.32184E-09  1.39926E-09  1.48125E-09  1.56732E-09  1.65743E-09  1.75255E-09  1.85443E-09  1.96663E-09  2.09695E-09
   2.26318E-09  2.51999E-09  2.83830E-09  2.94132E-09  3.14722E-09  3.55522E-09  3.69376E-09  3.72475E-09  3.85997E-09  3.98699E-09
   4.06414E-09  4.04577E-09  3.90324E-09  3.80237E-09  3.86049E-09  3.66562E-09  3.42655E-09  3.49582E-09  3.50958E-09  3.50569E-09
   3.62976E-09  3.65617E-09  3.73329E-09  4.02410E-09  4.15509E-09  4.21006E-09  4.42704E-09  4.59239E-09  4.69833E-09  4.81588E-09
   4.84931E-09  4.88343E-09  5.01660E-09  4.98010E-09  4.83173E-09  4.90143E-09  4.89555E-09  4.75141E-09  4.72942E-09  4.72665E-09
   4.69093E-09  4.67818E-09  4.68034E-09  4.69084E-09  4.70624E-09  4.72439E-09  4.74419E-09  4.76490E-09  4.78601E-09  4.80716E-09
   4.82802E-09  4.84818E-09  4.86751E-09  4.88590E-09  4.90324E-09  4.91951E-09  4.93463E-09  4.94845E-09  4.96091E-09  4.97197E-09
   4.98157E-09  4.98970E-09  4.99631E-09  5.00135E-09  5.00480E-09  5.00663E-09  5.00680E-09  5.00528E-09  5.00206E-09  4.99712E-09
   4.99040E-09  4.98191E-09  4.97162E-09  4.95950E-09  4.94555E-09  4.92973E-09  4.91203E-09  4.89243E-09  4.87090E-09  4.84743E-09
   4.82201E-09  4.79461E-09  4.76523E-09  4.73385E-09  4.70043E-09  4.66498E-09  4.62748E-09  4.58792E-09  4.54629E-09  4.50258E-09
   4.45678E-09  4.40890E-09  4.35893E-09  4.30688E-09  4.25277E-09  4.19664E-09  4.13854E-09  4.07862E-09  4.01711E-09  3.95431E-09
   3.89066E-09  3.82686E-09  3.76418E-09  3.70515E-09  3.65594E-09  3.63592E-09  3.73768E-09  4.25518E-09  4.44049E-09  4.33049E-09
   4.18045E-09  4.08955E-09  4.04208E-09  3.99580E-09  3.93191E-09  3.88590E-09  3.79172E-09  3.40917E-09  2.70988E-09  2.44559E-09
   2.29830E-09  2.18090E-09  2.07475E-09  1.97391E-09  1.87594E-09  1.77980E-09  1.68487E-09  1.59086E-09  1.49764E-09  1.40513E-09
   1.31329E-09  1.22217E-09  1.13174E-09  1.04210E-09  9.53263E-10  8.65297E-10  7.78258E-10  6.92232E-10  6.07255E-10  5.23425E-10
   4.40805E-10  3.59464E-10  2.79484E-10  2.00929E-10  1.23882E-10  4.84111E-11 -2.53821E-11 -9.74680E-11 -1.67750E-10 -2.36276E-10
  -3.03067E-10 -3.68161E-10 -4.31585E-10 -4.93380E-10 -5.53568E-10 -6.12191E-10 -6.69271E-10 -7.24842E-10 -7.78944E-10 -8.31606E-10
  -8.82847E-10 -9.32712E-10 -9.81231E-10 -1.02843E-09 -1.07435E-09 -1.11901E-09 -1.16244E-09 -1.20469E-09 -1.24580E-09 -1.28575E-09
