 LCModel (Version 6.3-1R) Copyright: S.W. Provencher.          Ref.: Magn. Reson. Med. 30:672-679 (1993).                
 onepulse 15x25_ftSpec_smooth_lcm
 26 lines in following concentration table = NCONC+1
    Conc.  %SD /Cr+PCr  Metabolite                                         
    0.000 999%   0.000 Ala                                                 
    0.000 999%   0.000 Asp                                                 
    0.000 999%   0.000 Cr                                                  
    0.000 999%   0.000 GABA                                                
 4.70E-10 279%   1.603 Glc                                                 
 1.88E-09  44%   6.403 Gln                                                 
    0.000 999%   0.000 Glu                                                 
    0.000 999%   0.000 Glyc                                                
 2.12E-10  87%   0.723 GPC                                                 
    0.000 999%   0.000 GSH                                                 
 1.66E-09  40%   5.650 Ins                                                 
    0.000 999%   0.000 Lac                                                 
 3.84E-10 122%   1.309 NAAG                                                
 1.87E-10 338%   0.637 NAA                                                 
    0.000 999%   0.000 PCh                                                 
 2.93E-10 119%   1.000 PCr                                                 
    0.000 999%   0.000 PE                                                  
 2.13E-10 184%   0.728 Scyllo                                              
 4.91E-09  28%  16.729 Ser                                                 
 5.98E-11 999%   0.204 Tau                                                 
 2.12E-10  87%   0.723 GPC+PCh                                             
 5.71E-10  68%   1.945 NAA+NAAG                                            
 1.66E-09  40%   5.650 Ins+Glyc                                            
 2.93E-10 119%   1.000 Cr+PCr                                              
 1.88E-09  44%   6.403 Glu+Gln                                             
   6 lines in following misc. output table
  FWHM = 0.101 ppm    S/N =   2                                            
  Data shift = 0.380 ppm                                                   
  Ph: -50 deg     -42.7 deg/ppm                                            
  alphaB,S = 7.0E-01,   4.4E+01                                            
    8 spline knots.   Ns = 5(1)                                            
  ( 7) 2 infls.   ( 5) 1 extrs.                                            
  363 points on ppm-axis = NY
      4.250000     4.238821     4.227641     4.216462     4.205282     4.194103     4.182923     4.171744     4.160564     4.149385
      4.138206     4.127026     4.115847     4.104667     4.093488     4.082308     4.071129     4.059949     4.048770     4.037591
      4.026411     4.015232     4.004052     3.992873     3.981693     3.970514     3.959334     3.948155     3.936975     3.925796
      3.914617     3.903437     3.892258     3.881078     3.869899     3.858719     3.847540     3.836360     3.825181     3.814002
      3.802822     3.791643     3.780463     3.769284     3.758104     3.746925     3.735745     3.724566     3.713387     3.702207
      3.691028     3.679848     3.668669     3.657489     3.646310     3.635130     3.623951     3.612772     3.601592     3.590413
      3.579233     3.568054     3.556874     3.545695     3.534515     3.523336     3.512156     3.500977     3.489798     3.478618
      3.467439     3.456259     3.445080     3.433900     3.422721     3.411541     3.400362     3.389183     3.378003     3.366824
      3.355644     3.344465     3.333285     3.322106     3.310926     3.299747     3.288568     3.277388     3.266209     3.255029
      3.243850     3.232670     3.221491     3.210311     3.199132     3.187953     3.176773     3.165594     3.154414     3.143235
      3.132055     3.120876     3.109696     3.098517     3.087337     3.076158     3.064979     3.053799     3.042620     3.031440
      3.020261     3.009081     2.997902     2.986722     2.975543     2.964364     2.953184     2.942005     2.930825     2.919646
      2.908466     2.897287     2.886107     2.874928     2.863749     2.852569     2.841390     2.830210     2.819031     2.807851
      2.796672     2.785492     2.774313     2.763134     2.751954     2.740775     2.729595     2.718416     2.707236     2.696057
      2.684877     2.673698     2.662519     2.651339     2.640160     2.628980     2.617801     2.606621     2.595442     2.584262
      2.573083     2.561903     2.550724     2.539545     2.528365     2.517186     2.506006     2.494827     2.483647     2.472468
      2.461288     2.450109     2.438930     2.427750     2.416571     2.405391     2.394212     2.383032     2.371853     2.360673
      2.349494     2.338315     2.327135     2.315956     2.304776     2.293597     2.282417     2.271238     2.260058     2.248879
      2.237700     2.226520     2.215341     2.204161     2.192982     2.181802     2.170623     2.159443     2.148264     2.137084
      2.125905     2.114726     2.103546     2.092367     2.081187     2.070008     2.058828     2.047649     2.036469     2.025290
      2.014111     2.002931     1.991752     1.980572     1.969393     1.958213     1.947034     1.935854     1.924675     1.913496
      1.902316     1.891137     1.879957     1.868778     1.857598     1.846419     1.835239     1.824060     1.812881     1.801701
      1.790522     1.779342     1.768163     1.756983     1.745804     1.734624     1.723445     1.712265     1.701086     1.689907
      1.678727     1.667548     1.656368     1.645189     1.634009     1.622830     1.611650     1.600471     1.589292     1.578112
      1.566933     1.555753     1.544574     1.533394     1.522215     1.511035     1.499856     1.488677     1.477497     1.466318
      1.455138     1.443959     1.432779     1.421600     1.410420     1.399241     1.388062     1.376882     1.365703     1.354523
      1.343344     1.332164     1.320985     1.309805     1.298626     1.287446     1.276267     1.265088     1.253908     1.242729
      1.231549     1.220370     1.209190     1.198011     1.186831     1.175652     1.164473     1.153293     1.142114     1.130934
      1.119755     1.108575     1.097396     1.086216     1.075037     1.063858     1.052678     1.041499     1.030319     1.019140
      1.007960     0.996781     0.985601     0.974422     0.963243     0.952063     0.940884     0.929704     0.918525     0.907345
      0.896166     0.884986     0.873807     0.862628     0.851448     0.840269     0.829089     0.817910     0.806730     0.795551
      0.784371     0.773192     0.762012     0.750833     0.739654     0.728474     0.717295     0.706115     0.694936     0.683756
      0.672577     0.661397     0.650218     0.639039     0.627859     0.616680     0.605500     0.594321     0.583141     0.571962
      0.560782     0.549603     0.538424     0.527244     0.516065     0.504885     0.493706     0.482526     0.471347     0.460167
      0.448988     0.437809     0.426629     0.415450     0.404270     0.393091     0.381911     0.370732     0.359552     0.348373
      0.337193     0.326014     0.314835     0.303655     0.292476     0.281296     0.270117     0.258937     0.247758     0.236578
      0.225399     0.214220     0.203040
 NY phased data points follow
   1.57115E-08  1.57126E-08  1.45292E-08  1.33918E-08  1.26676E-08  1.28930E-08  1.18572E-08  1.29508E-08  1.18465E-08  1.25204E-08
   1.25449E-08  1.34407E-08  1.35000E-08  1.44381E-08  1.35408E-08  1.39930E-08  1.36507E-08  1.37411E-08  1.30475E-08  1.32385E-08
   1.24870E-08  1.27651E-08  1.27878E-08  1.41542E-08  1.30644E-08  1.34833E-08  1.26174E-08  1.21290E-08  1.22013E-08  1.35563E-08
   1.42798E-08  1.59008E-08  1.58642E-08  1.48180E-08  1.41032E-08  1.38111E-08  1.23962E-08  1.25564E-08  1.23150E-08  1.22657E-08
   1.18598E-08  1.13859E-08  1.09999E-08  1.13082E-08  1.06377E-08  1.05251E-08  9.31642E-09  9.21102E-09  9.67233E-09  9.69292E-09
   9.64412E-09  9.31050E-09  8.79145E-09  8.04044E-09  7.94213E-09  8.25132E-09  7.74749E-09  8.25787E-09  7.77455E-09  8.01534E-09
   9.92415E-09  1.18210E-08  1.28862E-08  1.33985E-08  1.31093E-08  1.25973E-08  1.14014E-08  1.06118E-08  1.03286E-08  9.25706E-09
   8.90826E-09  8.73007E-09  7.95048E-09  7.32973E-09  7.04431E-09  6.45367E-09  8.43709E-09  1.14672E-08  1.49300E-08  1.69308E-08
   1.67562E-08  1.62431E-08  1.59242E-08  1.49391E-08  1.44939E-08  1.43556E-08  1.35243E-08  1.37485E-08  1.35651E-08  1.29455E-08
   1.30868E-08  1.20644E-08  1.19687E-08  1.12818E-08  1.12012E-08  1.07413E-08  1.03914E-08  9.68793E-09  9.87700E-09  9.33773E-09
   9.84484E-09  9.69031E-09  9.32808E-09  9.21196E-09  9.24481E-09  9.07197E-09  7.52150E-09  7.70728E-09  6.57790E-09  6.08407E-09
   6.17939E-09  6.27957E-09  7.09781E-09  6.59319E-09  6.40288E-09  7.03644E-09  7.01694E-09  6.72453E-09  7.72641E-09  7.12395E-09
   6.92801E-09  6.73101E-09  5.95163E-09  5.26283E-09  5.44773E-09  4.75814E-09  5.61068E-09  5.13819E-09  5.12166E-09  5.00177E-09
   5.52025E-09  5.53161E-09  5.22032E-09  5.15213E-09  5.11675E-09  4.91933E-09  5.22857E-09  5.40219E-09  6.46673E-09  7.86834E-09
   7.74968E-09  8.04386E-09  8.06443E-09  8.66192E-09  9.03330E-09  9.79744E-09  9.69518E-09  9.91009E-09  9.38109E-09  9.31262E-09
   9.55129E-09  9.13530E-09  9.48659E-09  8.71127E-09  9.31599E-09  9.09954E-09  8.57842E-09  8.83641E-09  9.10920E-09  9.38123E-09
   8.87825E-09  8.75425E-09  8.76521E-09  8.35133E-09  8.61386E-09  8.66460E-09  9.47020E-09  1.04056E-08  1.42215E-08  1.89881E-08
   2.16285E-08  2.12279E-08  2.05026E-08  2.03864E-08  1.91122E-08  1.79726E-08  1.72627E-08  1.68080E-08  1.62208E-08  1.59649E-08
   1.52791E-08  1.38380E-08  1.34899E-08  1.21526E-08  1.11657E-08  9.65583E-09  7.98664E-09  6.60857E-09  4.62092E-09  1.95931E-09
   1.29886E-10 -3.04007E-09 -5.91481E-09 -8.13972E-09 -1.06423E-08 -1.34462E-08 -1.58187E-08 -1.78605E-08 -1.92170E-08 -2.03168E-08
  -2.04495E-08 -2.13735E-08 -2.05545E-08 -1.94066E-08 -1.77922E-08 -1.56473E-08 -1.30576E-08 -1.13491E-08 -9.07737E-09 -7.16673E-09
  -5.84696E-09 -4.17601E-09 -3.86440E-09 -2.47308E-09 -3.04635E-09 -2.41756E-09 -2.30792E-09 -3.22431E-09 -2.76481E-09 -3.14799E-09
  -3.01844E-09 -2.87370E-09 -2.56629E-09 -2.10985E-09 -2.11109E-09 -1.65990E-09 -1.83218E-09 -1.89852E-09 -1.89562E-09 -2.31076E-09
  -2.55052E-09 -2.62631E-09 -2.60147E-09 -2.35883E-09 -1.97373E-09 -1.40706E-09 -1.28918E-09 -1.58760E-09 -1.21056E-09 -1.62136E-09
  -1.93104E-09 -2.17724E-09 -2.45340E-09 -2.13133E-09 -2.38182E-09 -2.18986E-09 -1.90198E-09 -1.80980E-09 -1.16314E-09 -1.07343E-09
  -4.52140E-10 -4.21222E-10 -9.96247E-10 -4.78900E-10 -6.02605E-10 -1.55303E-09 -1.11087E-09 -2.03713E-09 -1.79185E-09 -2.17499E-09
  -2.20774E-09 -2.36466E-09 -2.78721E-09 -2.32737E-09 -1.98540E-09 -1.98822E-09 -1.83876E-09 -1.88587E-09 -9.19317E-10 -7.42018E-10
  -5.32298E-10 -6.03000E-10 -1.81334E-10  1.64049E-11  4.93840E-10 -3.07500E-10  2.81217E-10 -5.49542E-10 -6.44769E-11 -2.82462E-10
  -5.10767E-10 -5.99373E-10 -1.32991E-09 -5.99772E-10 -8.50603E-10 -1.29193E-09 -7.89136E-10 -1.30768E-09 -1.43058E-09 -1.82907E-09
  -1.10916E-09 -2.30928E-09 -1.61355E-09 -1.39905E-09 -1.53654E-09 -1.89396E-09 -1.96046E-09 -2.09799E-09 -2.39543E-09 -1.60284E-09
  -2.04642E-09 -2.18445E-09 -2.01525E-09 -1.87639E-09 -2.26693E-09 -2.09027E-09 -2.03981E-09 -2.15672E-09 -1.82173E-09 -2.12349E-09
  -2.15084E-09 -2.58715E-09 -2.13421E-09 -1.93076E-09 -1.96531E-09 -2.11557E-09 -1.93498E-09 -2.25573E-09 -1.56866E-09 -1.92833E-09
  -1.99916E-09 -2.39445E-09 -1.51835E-09 -2.02072E-09 -1.43824E-09 -2.13256E-09 -1.47808E-09 -2.23557E-09 -1.52788E-09 -2.64783E-09
  -1.38829E-09 -1.84130E-09 -1.45547E-09 -1.47825E-09 -1.81882E-09 -1.76695E-09 -1.25161E-09 -1.47453E-09 -1.97964E-09 -1.28257E-09
  -1.57063E-09 -1.52400E-09 -1.48250E-09 -1.66374E-09 -1.57135E-09 -1.31632E-09 -1.65310E-09 -1.32939E-09 -1.50596E-09 -1.65847E-09
  -1.36898E-09 -1.31859E-09 -1.03771E-09 -1.48992E-09 -1.20797E-09 -1.29859E-09 -8.45210E-10 -1.16959E-09 -9.73562E-10 -1.02151E-09
  -6.09402E-10 -7.63632E-10 -6.84396E-10
 NY points of the fit to the data follow
   1.40053E-08  1.50072E-08  1.47706E-08  1.41246E-08  1.40789E-08  1.41510E-08  1.36855E-08  1.26893E-08  1.17558E-08  1.14882E-08
   1.17564E-08  1.22743E-08  1.28843E-08  1.34684E-08  1.40075E-08  1.42523E-08  1.42343E-08  1.42693E-08  1.41814E-08  1.35579E-08
   1.28865E-08  1.24443E-08  1.20690E-08  1.17475E-08  1.18816E-08  1.25036E-08  1.33791E-08  1.41206E-08  1.44062E-08  1.42784E-08
   1.43276E-08  1.44006E-08  1.45251E-08  1.44827E-08  1.40401E-08  1.33414E-08  1.28490E-08  1.24841E-08  1.22198E-08  1.20353E-08
   1.18632E-08  1.15883E-08  1.10992E-08  1.04969E-08  1.01018E-08  9.79427E-09  9.52672E-09  9.28601E-09  9.06767E-09  8.88049E-09
   8.70892E-09  8.55089E-09  8.39676E-09  8.24228E-09  8.19510E-09  8.38552E-09  8.64091E-09  9.00704E-09  9.57695E-09  1.02132E-08
   1.07752E-08  1.12817E-08  1.16914E-08  1.19588E-08  1.19959E-08  1.17770E-08  1.14563E-08  1.10745E-08  1.04528E-08  9.89047E-09
   9.52995E-09  9.33885E-09  9.31201E-09  9.39240E-09  9.58137E-09  9.94624E-09  1.06793E-08  1.17914E-08  1.30756E-08  1.42436E-08
   1.51333E-08  1.56652E-08  1.58548E-08  1.59796E-08  1.59656E-08  1.55012E-08  1.46611E-08  1.36039E-08  1.26879E-08  1.20352E-08
   1.15819E-08  1.12338E-08  1.09496E-08  1.07081E-08  1.04944E-08  1.03046E-08  1.01378E-08  9.98691E-09  9.84357E-09  9.70541E-09
   9.58133E-09  9.47057E-09  9.36438E-09  9.26035E-09  9.16243E-09  9.06994E-09  8.98176E-09  8.89711E-09  8.81512E-09  8.73538E-09
   8.65759E-09  8.58131E-09  8.50626E-09  8.43215E-09  8.35873E-09  8.28578E-09  8.21311E-09  8.14052E-09  8.06783E-09  7.99495E-09
   7.92164E-09  7.84785E-09  7.77340E-09  7.69822E-09  7.62218E-09  7.54517E-09  7.46708E-09  7.38788E-09  7.30744E-09  7.22567E-09
   7.14251E-09  7.05785E-09  6.97168E-09  6.88390E-09  6.79443E-09  6.70319E-09  6.61020E-09  6.51533E-09  6.41856E-09  6.31981E-09
   6.21907E-09  6.11629E-09  6.01142E-09  5.90441E-09  5.79528E-09  5.68398E-09  5.57053E-09  5.45504E-09  5.33764E-09  5.21847E-09
   5.09769E-09  4.97551E-09  4.85216E-09  4.72794E-09  4.60321E-09  4.47846E-09  4.35433E-09  4.23171E-09  4.11191E-09  3.99683E-09
   3.88953E-09  3.79511E-09  3.72272E-09  3.69067E-09  3.74101E-09  3.99539E-09  4.97648E-09  8.79678E-09  1.39556E-08  1.85221E-08
   2.14651E-08  2.27284E-08  2.28893E-08  2.25052E-08  2.16563E-08  1.98414E-08  1.62897E-08  1.08409E-08  5.24453E-09  3.08189E-09
   2.23588E-09  1.74222E-09  1.38995E-09  1.10901E-09  8.69431E-10  6.56222E-10  4.61088E-10  2.79096E-10  1.07049E-10 -5.70768E-11
  -2.14654E-10 -3.66704E-10 -5.13883E-10 -6.56699E-10 -7.95467E-10 -9.30479E-10 -1.06193E-09 -1.18988E-09 -1.31446E-09 -1.43574E-09
  -1.55373E-09 -1.66843E-09 -1.77985E-09 -1.88797E-09 -1.99278E-09 -2.09422E-09 -2.19227E-09 -2.28689E-09 -2.37805E-09 -2.46564E-09
  -2.54969E-09 -2.63010E-09 -2.70681E-09 -2.77980E-09 -2.84902E-09 -2.91437E-09 -2.97583E-09 -3.03337E-09 -3.08689E-09 -3.13649E-09
  -3.18223E-09 -3.22423E-09 -3.26255E-09 -3.29729E-09 -3.32854E-09 -3.35639E-09 -3.38092E-09 -3.40223E-09 -3.42040E-09 -3.43552E-09
  -3.44768E-09 -3.45697E-09 -3.46347E-09 -3.46727E-09 -3.46847E-09 -3.46714E-09 -3.46339E-09 -3.45727E-09 -3.44890E-09 -3.43835E-09
  -3.42571E-09 -3.41107E-09 -3.39451E-09 -3.37611E-09 -3.35596E-09 -3.33414E-09 -3.31074E-09 -3.28584E-09 -3.25952E-09 -3.23185E-09
  -3.20294E-09 -3.17284E-09 -3.14166E-09 -3.10943E-09 -3.07627E-09 -3.04225E-09 -3.00744E-09 -2.97191E-09 -2.93574E-09 -2.89900E-09
  -2.86176E-09 -2.82411E-09 -2.78610E-09 -2.74781E-09 -2.70929E-09 -2.67063E-09 -2.63189E-09 -2.59312E-09 -2.55439E-09 -2.51578E-09
  -2.47732E-09 -2.43909E-09 -2.40114E-09 -2.36352E-09 -2.32631E-09 -2.28953E-09 -2.25326E-09 -2.21754E-09 -2.18241E-09 -2.14793E-09
  -2.11415E-09 -2.08110E-09 -2.04884E-09 -2.01738E-09 -1.98679E-09 -1.95710E-09 -1.92835E-09 -1.90054E-09 -1.87375E-09 -1.84799E-09
  -1.82327E-09 -1.79963E-09 -1.77700E-09 -1.75537E-09 -1.73468E-09 -1.71492E-09 -1.69603E-09 -1.67800E-09 -1.66078E-09 -1.64434E-09
  -1.62865E-09 -1.61367E-09 -1.59937E-09 -1.58572E-09 -1.57269E-09 -1.56024E-09 -1.54835E-09 -1.53699E-09 -1.52612E-09 -1.51571E-09
  -1.50574E-09 -1.49617E-09 -1.48699E-09 -1.47816E-09 -1.46965E-09 -1.46145E-09 -1.45351E-09 -1.44583E-09 -1.43836E-09 -1.43110E-09
  -1.42402E-09 -1.41708E-09 -1.41028E-09 -1.40359E-09 -1.39699E-09 -1.39045E-09 -1.38397E-09 -1.37752E-09 -1.37108E-09 -1.36464E-09
  -1.35817E-09 -1.35167E-09 -1.34511E-09 -1.33848E-09 -1.33178E-09 -1.32497E-09 -1.31807E-09 -1.31104E-09 -1.30388E-09 -1.29658E-09
  -1.28913E-09 -1.28152E-09 -1.27375E-09 -1.26581E-09 -1.25767E-09 -1.24936E-09 -1.24086E-09 -1.23217E-09 -1.22327E-09 -1.21418E-09
  -1.20489E-09 -1.19539E-09 -1.18569E-09 -1.17579E-09 -1.16569E-09 -1.15540E-09 -1.14491E-09 -1.13423E-09 -1.12337E-09 -1.11233E-09
  -1.10112E-09 -1.08974E-09 -1.07821E-09
 NY background values follow
     2.934E-09    3.015E-09    3.095E-09    3.174E-09    3.252E-09    3.330E-09    3.406E-09    3.481E-09    3.555E-09    3.628E-09
     3.700E-09    3.771E-09    3.841E-09    3.909E-09    3.977E-09    4.044E-09    4.110E-09    4.174E-09    4.238E-09    4.301E-09
     4.362E-09    4.423E-09    4.482E-09    4.540E-09    4.598E-09    4.654E-09    4.709E-09    4.764E-09    4.817E-09    4.869E-09
     4.921E-09    4.971E-09    5.020E-09    5.069E-09    5.116E-09    5.162E-09    5.208E-09    5.252E-09    5.296E-09    5.338E-09
     5.380E-09    5.421E-09    5.460E-09    5.499E-09    5.537E-09    5.575E-09    5.611E-09    5.646E-09    5.681E-09    5.715E-09
     5.748E-09    5.780E-09    5.811E-09    5.842E-09    5.872E-09    5.901E-09    5.930E-09    5.957E-09    5.984E-09    6.011E-09
     6.036E-09    6.061E-09    6.086E-09    6.109E-09    6.133E-09    6.155E-09    6.177E-09    6.199E-09    6.220E-09    6.240E-09
     6.260E-09    6.279E-09    6.299E-09    6.317E-09    6.335E-09    6.353E-09    6.370E-09    6.387E-09    6.403E-09    6.419E-09
     6.434E-09    6.448E-09    6.462E-09    6.476E-09    6.488E-09    6.500E-09    6.512E-09    6.522E-09    6.532E-09    6.541E-09
     6.549E-09    6.557E-09    6.563E-09    6.569E-09    6.574E-09    6.578E-09    6.581E-09    6.583E-09    6.584E-09    6.583E-09
     6.582E-09    6.579E-09    6.576E-09    6.571E-09    6.565E-09    6.558E-09    6.549E-09    6.539E-09    6.527E-09    6.514E-09
     6.500E-09    6.484E-09    6.467E-09    6.448E-09    6.428E-09    6.405E-09    6.382E-09    6.356E-09    6.329E-09    6.300E-09
     6.269E-09    6.236E-09    6.201E-09    6.164E-09    6.126E-09    6.085E-09    6.042E-09    5.997E-09    5.950E-09    5.901E-09
     5.849E-09    5.795E-09    5.739E-09    5.681E-09    5.620E-09    5.557E-09    5.492E-09    5.423E-09    5.353E-09    5.280E-09
     5.204E-09    5.126E-09    5.045E-09    4.961E-09    4.874E-09    4.785E-09    4.693E-09    4.599E-09    4.501E-09    4.401E-09
     4.299E-09    4.195E-09    4.088E-09    3.979E-09    3.868E-09    3.755E-09    3.640E-09    3.523E-09    3.405E-09    3.284E-09
     3.163E-09    3.040E-09    2.916E-09    2.790E-09    2.663E-09    2.536E-09    2.407E-09    2.277E-09    2.147E-09    2.016E-09
     1.885E-09    1.753E-09    1.621E-09    1.489E-09    1.357E-09    1.224E-09    1.092E-09    9.597E-10    8.278E-10    6.963E-10
     5.654E-10    4.350E-10    3.054E-10    1.765E-10    4.855E-11   -7.841E-11   -2.043E-10   -3.289E-10   -4.523E-10   -5.742E-10
    -6.946E-10   -8.135E-10   -9.307E-10   -1.046E-09   -1.160E-09   -1.271E-09   -1.381E-09   -1.488E-09   -1.593E-09   -1.696E-09
    -1.796E-09   -1.894E-09   -1.989E-09   -2.081E-09   -2.171E-09   -2.258E-09   -2.342E-09   -2.422E-09   -2.500E-09   -2.575E-09
    -2.646E-09   -2.714E-09   -2.779E-09   -2.840E-09   -2.897E-09   -2.951E-09   -3.002E-09   -3.048E-09   -3.091E-09   -3.130E-09
    -3.165E-09   -3.197E-09   -3.225E-09   -3.250E-09   -3.272E-09   -3.290E-09   -3.305E-09   -3.317E-09   -3.326E-09   -3.332E-09
    -3.335E-09   -3.336E-09   -3.334E-09   -3.329E-09   -3.322E-09   -3.312E-09   -3.300E-09   -3.285E-09   -3.269E-09   -3.250E-09
    -3.230E-09   -3.208E-09   -3.183E-09   -3.157E-09   -3.130E-09   -3.100E-09   -3.069E-09   -3.037E-09   -3.004E-09   -2.969E-09
    -2.933E-09   -2.896E-09   -2.858E-09   -2.819E-09   -2.779E-09   -2.738E-09   -2.697E-09   -2.654E-09   -2.612E-09   -2.569E-09
    -2.525E-09   -2.481E-09   -2.437E-09   -2.392E-09   -2.348E-09   -2.303E-09   -2.258E-09   -2.213E-09   -2.169E-09   -2.124E-09
    -2.080E-09   -2.036E-09   -1.993E-09   -1.949E-09   -1.907E-09   -1.864E-09   -1.823E-09   -1.781E-09   -1.741E-09   -1.701E-09
    -1.662E-09   -1.624E-09   -1.587E-09   -1.550E-09   -1.514E-09   -1.480E-09   -1.446E-09   -1.413E-09   -1.382E-09   -1.351E-09
    -1.322E-09   -1.293E-09   -1.266E-09   -1.240E-09   -1.214E-09   -1.190E-09   -1.167E-09   -1.144E-09   -1.122E-09   -1.102E-09
    -1.082E-09   -1.062E-09   -1.044E-09   -1.026E-09   -1.009E-09   -9.922E-10   -9.763E-10   -9.609E-10   -9.460E-10   -9.316E-10
    -9.177E-10   -9.043E-10   -8.912E-10   -8.786E-10   -8.663E-10   -8.544E-10   -8.428E-10   -8.314E-10   -8.203E-10   -8.095E-10
    -7.989E-10   -7.884E-10   -7.781E-10   -7.680E-10   -7.580E-10   -7.481E-10   -7.383E-10   -7.286E-10   -7.189E-10   -7.092E-10
    -6.995E-10   -6.899E-10   -6.802E-10   -6.705E-10   -6.607E-10   -6.509E-10   -6.410E-10   -6.310E-10   -6.210E-10   -6.108E-10
    -6.005E-10   -5.901E-10   -5.795E-10   -5.688E-10   -5.579E-10   -5.469E-10   -5.358E-10   -5.245E-10   -5.130E-10   -5.013E-10
    -4.895E-10   -4.775E-10   -4.654E-10   -4.530E-10   -4.405E-10   -4.278E-10   -4.150E-10   -4.020E-10   -3.889E-10   -3.756E-10
    -3.622E-10   -3.486E-10   -3.349E-10
 Glc      Conc. = 4.70E-10
   2.46823E-09  2.72656E-09  2.97386E-09  3.22026E-09  3.44134E-09  3.63698E-09  3.77995E-09  3.88409E-09  3.92501E-09  3.89794E-09
   3.87248E-09  3.85807E-09  3.85281E-09  3.88776E-09  4.01370E-09  4.23421E-09  4.52431E-09  4.85057E-09  5.15054E-09  5.40321E-09
   5.63649E-09  5.84590E-09  6.00912E-09  6.11734E-09  6.12824E-09  6.04430E-09  5.96524E-09  5.93009E-09  5.93358E-09  5.95830E-09
   5.97521E-09  5.98355E-09  5.99827E-09  6.00381E-09  5.99133E-09  5.98545E-09  5.98626E-09  5.97975E-09  5.97180E-09  5.97129E-09
   5.97652E-09  5.98550E-09  5.99731E-09  6.01115E-09  6.02656E-09  6.04313E-09  6.06061E-09  6.07872E-09  6.09731E-09  6.11623E-09
   6.13533E-09  6.15456E-09  6.17379E-09  6.19298E-09  6.21210E-09  6.23103E-09  6.24979E-09  6.26838E-09  6.28665E-09  6.30470E-09
   6.32248E-09  6.33995E-09  6.35713E-09  6.37399E-09  6.39057E-09  6.40681E-09  6.42274E-09  6.43835E-09  6.45365E-09  6.46867E-09
   6.48336E-09  6.49776E-09  6.51191E-09  6.52575E-09  6.53932E-09  6.55258E-09  6.56550E-09  6.57808E-09  6.59025E-09  6.60203E-09
   6.61336E-09  6.62423E-09  6.63460E-09  6.64445E-09  6.65377E-09  6.66250E-09  6.67063E-09  6.67813E-09  6.68496E-09  6.69110E-09
   6.69650E-09  6.70117E-09  6.70502E-09  6.70809E-09  6.71028E-09  6.71158E-09  6.71197E-09  6.71141E-09  6.70986E-09  6.70729E-09
   6.70366E-09  6.69894E-09  6.69308E-09  6.68608E-09  6.67786E-09  6.66841E-09  6.65768E-09  6.64566E-09  6.63228E-09  6.61749E-09
   6.60132E-09  6.58365E-09  6.56449E-09  6.54378E-09  6.52150E-09  6.49760E-09  6.47205E-09  6.44481E-09  6.41581E-09  6.38508E-09
   6.35249E-09  6.31809E-09  6.28177E-09  6.24353E-09  6.20333E-09  6.16111E-09  6.11682E-09  6.07048E-09  6.02200E-09  5.97135E-09
   5.91850E-09  5.86340E-09  5.80604E-09  5.74636E-09  5.68432E-09  5.61985E-09  5.55302E-09  5.48368E-09  5.41186E-09  5.33747E-09
   5.26053E-09  5.18098E-09  5.09879E-09  5.01390E-09  4.92631E-09  4.83598E-09  4.74291E-09  4.64716E-09  4.54883E-09  4.44801E-09
   4.34477E-09  4.23923E-09  4.13145E-09  4.02155E-09  3.90963E-09  3.79579E-09  3.68015E-09  3.56283E-09  3.44400E-09  3.32381E-09
   3.20249E-09  3.08039E-09  2.95802E-09  2.83638E-09  2.71773E-09  2.60886E-09  2.54156E-09  2.61610E-09  2.73603E-09  2.81592E-09
   2.81530E-09  2.73829E-09  2.61485E-09  2.46919E-09  2.30085E-09  2.08260E-09  1.77852E-09  1.38934E-09  1.01372E-09  8.11031E-10
   6.51559E-10  5.05648E-10  3.66008E-10  2.30126E-10  9.68823E-11 -3.42477E-11 -1.63509E-10 -2.90994E-10 -4.16810E-10 -5.40920E-10
  -6.63271E-10 -7.83864E-10 -9.02608E-10 -1.01945E-09 -1.13428E-09 -1.24706E-09 -1.35772E-09 -1.46613E-09 -1.57222E-09 -1.67594E-09
  -1.77718E-09 -1.87587E-09 -1.97190E-09 -2.06522E-09 -2.15574E-09 -2.24336E-09 -2.32803E-09 -2.40965E-09 -2.48817E-09 -2.56346E-09
  -2.63551E-09 -2.70421E-09 -2.76948E-09 -2.83128E-09 -2.88954E-09 -2.94416E-09 -2.99509E-09 -3.04230E-09 -3.08568E-09 -3.12532E-09
  -3.16127E-09 -3.19364E-09 -3.22248E-09 -3.24790E-09 -3.26996E-09 -3.28877E-09 -3.30439E-09 -3.31692E-09 -3.32643E-09 -3.33300E-09
  -3.33674E-09 -3.33771E-09 -3.33601E-09 -3.33172E-09 -3.32492E-09 -3.31569E-09 -3.30414E-09 -3.29032E-09 -3.27433E-09 -3.25626E-09
  -3.23618E-09 -3.21419E-09 -3.19037E-09 -3.16479E-09 -3.13753E-09 -3.10869E-09 -3.07834E-09 -3.04657E-09 -3.01346E-09 -2.97907E-09
  -2.94351E-09 -2.90682E-09 -2.86913E-09 -2.83046E-09 -2.79092E-09 -2.75059E-09 -2.70953E-09 -2.66782E-09 -2.62553E-09 -2.58273E-09
  -2.53950E-09 -2.49591E-09 -2.45202E-09 -2.40791E-09 -2.36363E-09 -2.31926E-09 -2.27488E-09 -2.23051E-09 -2.18624E-09 -2.14214E-09
  -2.09825E-09 -2.05464E-09 -2.01137E-09 -1.96847E-09 -1.92604E-09 -1.88409E-09 -1.84269E-09 -1.80190E-09 -1.76174E-09 -1.72228E-09
  -1.68357E-09 -1.64564E-09 -1.60854E-09 -1.57229E-09 -1.53696E-09 -1.50257E-09 -1.46916E-09 -1.43674E-09 -1.40539E-09 -1.37510E-09
  -1.34591E-09 -1.31782E-09 -1.29081E-09 -1.26482E-09 -1.23982E-09 -1.21579E-09 -1.19268E-09 -1.17046E-09 -1.14910E-09 -1.12855E-09
  -1.10879E-09 -1.08979E-09 -1.07150E-09 -1.05391E-09 -1.03696E-09 -1.02064E-09 -1.00492E-09 -9.89762E-10 -9.75131E-10 -9.61002E-10
  -9.47348E-10 -9.34136E-10 -9.21345E-10 -9.08937E-10 -8.96894E-10 -8.85183E-10 -8.73785E-10 -8.62666E-10 -8.51807E-10 -8.41185E-10
  -8.30775E-10 -8.20545E-10 -8.10488E-10 -8.00575E-10 -7.90782E-10 -7.81087E-10 -7.71484E-10 -7.61942E-10 -7.52448E-10 -7.42977E-10
  -7.33521E-10 -7.24059E-10 -7.14573E-10 -7.05052E-10 -6.95484E-10 -6.85852E-10 -6.76146E-10 -6.66349E-10 -6.56459E-10 -6.46451E-10
  -6.36332E-10 -6.26080E-10 -6.15697E-10 -6.05172E-10 -5.94488E-10 -5.83661E-10 -5.72667E-10 -5.61514E-10 -5.50190E-10 -5.38698E-10
  -5.27036E-10 -5.15199E-10 -5.03191E-10 -4.91011E-10 -4.78662E-10 -4.66143E-10 -4.53465E-10 -4.40622E-10 -4.27625E-10 -4.14480E-10
  -4.01189E-10 -3.87764E-10 -3.74214E-10
 Gln      Conc. = 1.88E-09
   1.44510E-09  1.76156E-09  2.19567E-09  2.72330E-09  3.28855E-09  3.83595E-09  4.31097E-09  4.67075E-09  4.91574E-09  5.13002E-09
   5.15272E-09  5.05529E-09  4.98992E-09  4.81534E-09  4.68838E-09  4.60832E-09  4.55823E-09  4.52791E-09  4.51128E-09  4.50446E-09
   4.50480E-09  4.51044E-09  4.52000E-09  4.53254E-09  4.54745E-09  4.56423E-09  4.58208E-09  4.60072E-09  4.61987E-09  4.63903E-09
   4.65794E-09  4.67636E-09  4.69407E-09  4.71091E-09  4.72665E-09  4.74117E-09  4.75421E-09  4.76562E-09  4.77517E-09  4.78261E-09
   4.78777E-09  4.79038E-09  4.79032E-09  4.78729E-09  4.78088E-09  4.77072E-09  4.75633E-09  4.73650E-09  4.71110E-09  4.68041E-09
   4.64272E-09  4.59825E-09  4.55058E-09  4.51599E-09  4.59524E-09  4.89409E-09  5.24358E-09  5.68453E-09  6.32824E-09  7.07129E-09
   7.77529E-09  8.42855E-09  8.96777E-09  9.32296E-09  9.43344E-09  9.29765E-09  9.06067E-09  8.77228E-09  8.22263E-09  7.68894E-09
   7.32607E-09  7.09891E-09  7.01446E-09  7.07011E-09  7.30434E-09  7.73638E-09  8.22881E-09  8.75500E-09  9.27704E-09  9.74564E-09
   1.01235E-08  1.03383E-08  1.03300E-08  1.02597E-08  1.01088E-08  9.74925E-09  9.41506E-09  9.15230E-09  8.83871E-09  8.57970E-09
   8.38363E-09  8.22921E-09  8.10406E-09  7.99934E-09  7.90875E-09  7.82960E-09  7.75963E-09  7.69669E-09  7.63960E-09  7.58731E-09
   7.53866E-09  7.49281E-09  7.44926E-09  7.40762E-09  7.36752E-09  7.32860E-09  7.29048E-09  7.25293E-09  7.21569E-09  7.17853E-09
   7.14136E-09  7.10393E-09  7.06611E-09  7.02778E-09  6.98881E-09  6.94909E-09  6.90851E-09  6.86696E-09  6.82434E-09  6.78062E-09
   6.73562E-09  6.68933E-09  6.64165E-09  6.59252E-09  6.54186E-09  6.48960E-09  6.43565E-09  6.38002E-09  6.32260E-09  6.26333E-09
   6.20217E-09  6.13903E-09  6.07391E-09  6.00674E-09  5.93745E-09  5.86596E-09  5.79233E-09  5.71641E-09  5.63821E-09  5.55764E-09
   5.47469E-09  5.38932E-09  5.30149E-09  5.21113E-09  5.11824E-09  5.02277E-09  4.92471E-09  4.82415E-09  4.72117E-09  4.61586E-09
   4.50832E-09  4.39866E-09  4.28697E-09  4.17340E-09  4.05807E-09  3.94114E-09  3.82280E-09  3.70329E-09  3.58291E-09  3.46211E-09
   3.34148E-09  3.22209E-09  3.10571E-09  2.99588E-09  2.90080E-09  2.84447E-09  2.93291E-09  3.58885E-09  4.45667E-09  5.18402E-09
   5.59515E-09  5.69560E-09  5.60220E-09  5.41668E-09  5.14526E-09  4.68507E-09  3.88901E-09  2.73912E-09  1.59531E-09  1.14767E-09
   8.96935E-10  7.03125E-10  5.33504E-10  3.76786E-10  2.28013E-10  8.47131E-11 -5.44560E-11 -1.90250E-10 -3.23203E-10 -4.53565E-10
  -5.81480E-10 -7.07093E-10 -8.30417E-10 -9.51480E-10 -1.07023E-09 -1.18668E-09 -1.30079E-09 -1.41245E-09 -1.52164E-09 -1.62832E-09
  -1.73239E-09 -1.83380E-09 -1.93245E-09 -2.02829E-09 -2.12126E-09 -2.21124E-09 -2.29820E-09 -2.38206E-09 -2.46276E-09 -2.54016E-09
  -2.61428E-09 -2.68500E-09 -2.75225E-09 -2.81597E-09 -2.87613E-09 -2.93259E-09 -2.98534E-09 -3.03433E-09 -3.07946E-09 -3.12082E-09
  -3.15846E-09 -3.19248E-09 -3.22296E-09 -3.24998E-09 -3.27362E-09 -3.29398E-09 -3.31114E-09 -3.32517E-09 -3.33616E-09 -3.34420E-09
