 LCModel (Version 6.3-1R) Copyright: S.W. Provencher.          Ref.: Magn. Reson. Med. 30:672-679 (1993).                
 onepulse 15x23_ftSpec_smooth_lcm
 26 lines in following concentration table = NCONC+1
    Conc.  %SD /Cr+PCr  Metabolite                                         
    0.000 999%   0.000 Ala                                                 
    0.000 999%   0.000 Asp                                                 
    0.000 999%   0.000 Cr                                                  
    0.000 999%   0.000 GABA                                                
 2.64E-10 398%   0.974 Glc                                                 
 1.34E-09  67%   4.949 Gln                                                 
 2.79E-10 297%   1.031 Glu                                                 
    0.000 999%   0.000 Glyc                                                
 1.79E-10  86%   0.660 GPC                                                 
    0.000 999%   0.000 GSH                                                 
 1.31E-09  40%   4.822 Ins                                                 
    0.000 999%   0.000 Lac                                                 
 1.63E-10 259%   0.602 NAAG                                                
 4.71E-10 114%   1.738 NAA                                                 
    0.000 999%   0.000 PCh                                                 
 2.71E-10 104%   1.000 PCr                                                 
    0.000 999%   0.000 PE                                                  
 1.84E-10 172%   0.680 Scyllo                                              
 4.02E-09  26%  14.819 Ser                                                 
 1.25E-10 961%   0.461 Tau                                                 
 1.79E-10  86%   0.660 GPC+PCh                                             
 6.34E-10  51%   2.339 NAA+NAAG                                            
 1.31E-09  40%   4.822 Ins+Glyc                                            
 2.71E-10 104%   1.000 Cr+PCr                                              
 1.62E-09  44%   5.980 Glu+Gln                                             
   6 lines in following misc. output table
  FWHM = 0.089 ppm    S/N =   2                                            
  Data shift = 0.369 ppm                                                   
  Ph: -42 deg     -35.1 deg/ppm                                            
  alphaB,S = 8.5E-01,   5.0E+01                                            
    8 spline knots.   Ns = 5(1)                                            
  ( 8) 2 infls.   ( 5) 1 extrs.                                            
  363 points on ppm-axis = NY
      4.250000     4.238821     4.227641     4.216462     4.205282     4.194103     4.182923     4.171744     4.160564     4.149385
      4.138206     4.127026     4.115847     4.104667     4.093488     4.082308     4.071129     4.059949     4.048770     4.037591
      4.026411     4.015232     4.004052     3.992873     3.981693     3.970514     3.959334     3.948155     3.936975     3.925796
      3.914617     3.903437     3.892258     3.881078     3.869899     3.858719     3.847540     3.836360     3.825181     3.814002
      3.802822     3.791643     3.780463     3.769284     3.758104     3.746925     3.735745     3.724566     3.713387     3.702207
      3.691028     3.679848     3.668669     3.657489     3.646310     3.635130     3.623951     3.612772     3.601592     3.590413
      3.579233     3.568054     3.556874     3.545695     3.534515     3.523336     3.512156     3.500977     3.489798     3.478618
      3.467439     3.456259     3.445080     3.433900     3.422721     3.411541     3.400362     3.389183     3.378003     3.366824
      3.355644     3.344465     3.333285     3.322106     3.310926     3.299747     3.288568     3.277388     3.266209     3.255029
      3.243850     3.232670     3.221491     3.210311     3.199132     3.187953     3.176773     3.165594     3.154414     3.143235
      3.132055     3.120876     3.109696     3.098517     3.087337     3.076158     3.064979     3.053799     3.042620     3.031440
      3.020261     3.009081     2.997902     2.986722     2.975543     2.964364     2.953184     2.942005     2.930825     2.919646
      2.908466     2.897287     2.886107     2.874928     2.863749     2.852569     2.841390     2.830210     2.819031     2.807851
      2.796672     2.785492     2.774313     2.763134     2.751954     2.740775     2.729595     2.718416     2.707236     2.696057
      2.684877     2.673698     2.662519     2.651339     2.640160     2.628980     2.617801     2.606621     2.595442     2.584262
      2.573083     2.561903     2.550724     2.539545     2.528365     2.517186     2.506006     2.494827     2.483647     2.472468
      2.461288     2.450109     2.438930     2.427750     2.416571     2.405391     2.394212     2.383032     2.371853     2.360673
      2.349494     2.338315     2.327135     2.315956     2.304776     2.293597     2.282417     2.271238     2.260058     2.248879
      2.237700     2.226520     2.215341     2.204161     2.192982     2.181802     2.170623     2.159443     2.148264     2.137084
      2.125905     2.114726     2.103546     2.092367     2.081187     2.070008     2.058828     2.047649     2.036469     2.025290
      2.014111     2.002931     1.991752     1.980572     1.969393     1.958213     1.947034     1.935854     1.924675     1.913496
      1.902316     1.891137     1.879957     1.868778     1.857598     1.846419     1.835239     1.824060     1.812881     1.801701
      1.790522     1.779342     1.768163     1.756983     1.745804     1.734624     1.723445     1.712265     1.701086     1.689907
      1.678727     1.667548     1.656368     1.645189     1.634009     1.622830     1.611650     1.600471     1.589292     1.578112
      1.566933     1.555753     1.544574     1.533394     1.522215     1.511035     1.499856     1.488677     1.477497     1.466318
      1.455138     1.443959     1.432779     1.421600     1.410420     1.399241     1.388062     1.376882     1.365703     1.354523
      1.343344     1.332164     1.320985     1.309805     1.298626     1.287446     1.276267     1.265088     1.253908     1.242729
      1.231549     1.220370     1.209190     1.198011     1.186831     1.175652     1.164473     1.153293     1.142114     1.130934
      1.119755     1.108575     1.097396     1.086216     1.075037     1.063858     1.052678     1.041499     1.030319     1.019140
      1.007960     0.996781     0.985601     0.974422     0.963243     0.952063     0.940884     0.929704     0.918525     0.907345
      0.896166     0.884986     0.873807     0.862628     0.851448     0.840269     0.829089     0.817910     0.806730     0.795551
      0.784371     0.773192     0.762012     0.750833     0.739654     0.728474     0.717295     0.706115     0.694936     0.683756
      0.672577     0.661397     0.650218     0.639039     0.627859     0.616680     0.605500     0.594321     0.583141     0.571962
      0.560782     0.549603     0.538424     0.527244     0.516065     0.504885     0.493706     0.482526     0.471347     0.460167
      0.448988     0.437809     0.426629     0.415450     0.404270     0.393091     0.381911     0.370732     0.359552     0.348373
      0.337193     0.326014     0.314835     0.303655     0.292476     0.281296     0.270117     0.258937     0.247758     0.236578
      0.225399     0.214220     0.203040
 NY phased data points follow
   1.27659E-08  1.24373E-08  1.27850E-08  1.19733E-08  1.08855E-08  1.04992E-08  1.05850E-08  9.53376E-09  1.01682E-08  9.32422E-09
   1.00445E-08  9.88904E-09  1.06100E-08  1.06499E-08  1.17064E-08  1.08776E-08  1.20266E-08  1.11056E-08  1.10504E-08  1.07039E-08
   1.09177E-08  1.03751E-08  1.05918E-08  1.01961E-08  1.16795E-08  1.06179E-08  1.16326E-08  1.07920E-08  1.03909E-08  9.99604E-09
   1.14495E-08  1.19736E-08  1.34793E-08  1.41594E-08  1.31479E-08  1.28056E-08  1.24559E-08  1.07561E-08  1.12342E-08  1.03359E-08
   1.06231E-08  9.82457E-09  9.69272E-09  9.67197E-09  9.45539E-09  8.89875E-09  8.60657E-09  7.51931E-09  7.99420E-09  7.77010E-09
   7.68490E-09  7.53403E-09  7.58920E-09  7.07452E-09  6.84788E-09  6.57338E-09  6.57073E-09  6.06066E-09  6.62170E-09  6.08233E-09
   6.71705E-09  7.84341E-09  1.05606E-08  1.12250E-08  1.20055E-08  1.14283E-08  1.17934E-08  1.05803E-08  9.77796E-09  9.00355E-09
   8.13859E-09  7.62445E-09  7.74210E-09  6.60277E-09  6.11289E-09  6.26217E-09  6.44297E-09  7.30692E-09  9.69968E-09  1.24945E-08
   1.44130E-08  1.52430E-08  1.45844E-08  1.39208E-08  1.32103E-08  1.28605E-08  1.29220E-08  1.17396E-08  1.19321E-08  1.16420E-08
   1.15634E-08  1.15022E-08  1.09018E-08  9.77359E-09  1.00675E-08  9.66392E-09  9.51255E-09  8.47210E-09  8.18690E-09  8.85351E-09
   8.01906E-09  8.05771E-09  8.46981E-09  7.60592E-09  7.97515E-09  7.39336E-09  7.67358E-09  6.29104E-09  6.56556E-09  5.73774E-09
   5.16232E-09  5.03000E-09  5.13742E-09  5.76680E-09  5.96481E-09  5.36614E-09  6.12369E-09  5.87699E-09  5.57056E-09  6.26092E-09
   6.29221E-09  5.67922E-09  5.66751E-09  4.91229E-09  4.70397E-09  4.03990E-09  3.89905E-09  4.69077E-09  4.31490E-09  3.89988E-09
   4.38206E-09  3.96135E-09  4.83230E-09  4.03731E-09  4.01470E-09  4.17509E-09  4.04953E-09  4.27121E-09  4.33098E-09  5.22139E-09
   6.23668E-09  6.03572E-09  6.30693E-09  6.08437E-09  6.78820E-09  6.81024E-09  7.43101E-09  7.10762E-09  7.53743E-09  6.79308E-09
   7.19432E-09  7.39535E-09  7.13509E-09  6.65136E-09  6.51982E-09  6.83732E-09  6.83186E-09  6.42881E-09  6.79521E-09  7.10989E-09
   7.10961E-09  6.52214E-09  6.60313E-09  6.36779E-09  6.50343E-09  6.42948E-09  7.32336E-09  8.57358E-09  1.04131E-08  1.27057E-08
   1.67553E-08  1.80835E-08  1.81565E-08  1.68910E-08  1.65742E-08  1.50955E-08  1.45464E-08  1.27688E-08  1.28866E-08  1.19824E-08
   1.21954E-08  1.05059E-08  9.91251E-09  9.04863E-09  8.16007E-09  7.12808E-09  6.08945E-09  4.15039E-09  3.39089E-09  1.28675E-09
  -3.77168E-10 -1.86647E-09 -4.45026E-09 -6.59605E-09 -8.25498E-09 -1.10099E-08 -1.27166E-08 -1.45945E-08 -1.57446E-08 -1.73498E-08
  -1.75910E-08 -1.76573E-08 -1.81773E-08 -1.78786E-08 -1.61760E-08 -1.54282E-08 -1.31394E-08 -1.13826E-08 -9.94563E-09 -8.38490E-09
  -6.01559E-09 -5.08627E-09 -3.24621E-09 -2.58425E-09 -1.49686E-09 -2.30568E-09 -1.58715E-09 -1.80728E-09 -1.85170E-09 -2.27121E-09
  -2.21029E-09 -2.69525E-09 -2.39426E-09 -2.04826E-09 -1.69680E-09 -1.26021E-09 -1.37753E-09 -1.20576E-09 -9.15033E-10 -1.92879E-09
  -1.70604E-09 -2.40478E-09 -2.01907E-09 -2.25290E-09 -1.32821E-09 -1.46157E-09 -8.74311E-10 -7.48472E-10 -1.32781E-09 -6.86683E-10
  -1.16919E-09 -1.67211E-09 -1.67221E-09 -1.54089E-09 -1.37024E-09 -2.17257E-09 -1.46837E-09 -1.51236E-09 -4.85768E-10 -8.30125E-10
  -5.95255E-10 -9.56211E-11  1.66471E-10 -9.38803E-10  1.69998E-11 -9.01893E-10 -1.07751E-09 -9.27663E-10 -1.26656E-09 -1.51865E-09
  -1.24793E-09 -1.66709E-09 -1.78832E-09 -1.82929E-09 -1.20952E-09 -1.39750E-09 -9.83145E-10 -1.04866E-09 -9.03535E-10 -2.40208E-10
  -4.08076E-10 -2.61050E-10  2.78265E-10 -6.57321E-11  5.96998E-10  1.68823E-10 -4.90228E-11  2.12912E-10 -1.46884E-10  9.24077E-12
   9.48248E-11 -6.20893E-10 -4.46841E-10 -9.49354E-10  4.56690E-11 -8.50103E-10 -6.87369E-10 -6.81932E-10 -7.18863E-10 -9.94181E-10
  -1.07716E-09 -9.55016E-10 -1.46410E-09 -9.23629E-10 -8.22574E-10 -1.05622E-09 -1.28274E-09 -1.17530E-09 -1.56027E-09 -1.71700E-09
  -6.55423E-10 -1.49239E-09 -1.46017E-09 -1.43469E-09 -8.22457E-10 -1.55461E-09 -8.27793E-10 -1.39062E-09 -6.07846E-10 -1.10307E-09
  -1.19402E-09 -1.37054E-09 -1.08395E-09 -1.21392E-09 -7.32052E-10 -1.53673E-09 -7.69729E-10 -9.17479E-10 -1.19043E-09 -5.51489E-10
  -7.60759E-10 -1.04010E-09 -9.18086E-10 -2.47868E-10 -4.64153E-10 -8.15854E-10 -8.09126E-10 -6.39989E-10 -6.60838E-10 -3.92655E-10
  -9.42808E-10 -2.85851E-10 -6.47523E-10 -3.90753E-10 -1.88198E-10 -3.88712E-10 -1.40284E-10 -1.52756E-10 -2.48951E-10 -7.47777E-10
   2.67272E-10 -5.36926E-10  2.69978E-12  2.94445E-12  1.31332E-10  1.27972E-10  1.85149E-10 -2.65922E-10  1.87847E-10  5.76170E-11
   4.65757E-11  3.08346E-10  2.60739E-10  6.19808E-11  6.60525E-11  1.81969E-10  5.97284E-10  3.99006E-10  1.85301E-10  3.19102E-10
   7.36391E-10  1.12202E-09  5.80397E-10
 NY points of the fit to the data follow
   1.12933E-08  1.21090E-08  1.20051E-08  1.16568E-08  1.17113E-08  1.17230E-08  1.12702E-08  1.04431E-08  9.67283E-09  9.37296E-09
   9.48339E-09  9.81902E-09  1.03313E-08  1.08742E-08  1.13791E-08  1.16282E-08  1.16373E-08  1.16225E-08  1.14814E-08  1.09537E-08
   1.04076E-08  1.00699E-08  9.83337E-09  9.62481E-09  9.74576E-09  1.02413E-08  1.09612E-08  1.16258E-08  1.19949E-08  1.20755E-08
   1.22624E-08  1.23942E-08  1.24851E-08  1.23793E-08  1.19729E-08  1.13977E-08  1.10501E-08  1.08322E-08  1.06891E-08  1.05802E-08
   1.04362E-08  1.01617E-08  9.69204E-09  9.15126E-09  8.80880E-09  8.56593E-09  8.36690E-09  8.18329E-09  8.00611E-09  7.84982E-09
   7.71012E-09  7.59006E-09  7.48797E-09  7.38772E-09  7.33384E-09  7.41370E-09  7.55355E-09  7.78755E-09  8.18227E-09  8.66134E-09
   9.11332E-09  9.53524E-09  9.92628E-09  1.02397E-08  1.04180E-08  1.04279E-08  1.03102E-08  1.00746E-08  9.63190E-09  9.16126E-09
   8.80526E-09  8.53289E-09  8.30405E-09  8.13295E-09  8.10459E-09  8.22173E-09  8.51600E-09  9.22910E-09  1.03129E-08  1.15205E-08
   1.26454E-08  1.35262E-08  1.40865E-08  1.44479E-08  1.45803E-08  1.43168E-08  1.36683E-08  1.26723E-08  1.15199E-08  1.07021E-08
   1.01813E-08  9.79730E-09  9.49313E-09  9.23804E-09  9.01814E-09  8.82488E-09  8.65244E-09  8.49634E-09  8.35138E-09  8.21517E-09
   8.08979E-09  7.97378E-09  7.86305E-09  7.75627E-09  7.65449E-09  7.55705E-09  7.46313E-09  7.37217E-09  7.28358E-09  7.19697E-09
   7.11212E-09  7.02866E-09  6.94637E-09  6.86501E-09  6.78440E-09  6.70437E-09  6.62477E-09  6.54544E-09  6.46624E-09  6.38712E-09
   6.30789E-09  6.22852E-09  6.14888E-09  6.06892E-09  5.98855E-09  5.90769E-09  5.82627E-09  5.74428E-09  5.66161E-09  5.57823E-09
   5.49409E-09  5.40912E-09  5.32333E-09  5.23663E-09  5.14900E-09  5.06038E-09  4.97080E-09  4.88017E-09  4.78849E-09  4.69570E-09
   4.60182E-09  4.50681E-09  4.41068E-09  4.31336E-09  4.21490E-09  4.11528E-09  4.01451E-09  3.91269E-09  3.80989E-09  3.70624E-09
   3.60185E-09  3.49688E-09  3.39148E-09  3.28590E-09  3.18042E-09  3.07539E-09  2.97131E-09  2.86887E-09  2.76906E-09  2.67335E-09
   2.58405E-09  2.50506E-09  2.44328E-09  2.41241E-09  2.44362E-09  2.62594E-09  3.33666E-09  6.13038E-09  1.00270E-08  1.38184E-08
   1.68066E-08  1.86901E-08  1.95188E-08  1.94916E-08  1.86454E-08  1.66828E-08  1.32080E-08  8.39377E-09  3.80907E-09  2.07853E-09
   1.38895E-09  9.85709E-10  6.99685E-10  4.73626E-10  2.82673E-10  1.14281E-10 -3.85493E-11 -1.80006E-10 -3.12829E-10 -4.38758E-10
  -5.58980E-10 -6.74394E-10 -7.85576E-10 -8.92982E-10 -9.96897E-10 -1.09759E-09 -1.19525E-09 -1.28995E-09 -1.38181E-09 -1.47091E-09
  -1.55728E-09 -1.64094E-09 -1.72191E-09 -1.80019E-09 -1.87579E-09 -1.94868E-09 -2.01885E-09 -2.08629E-09 -2.15098E-09 -2.21286E-09
  -2.27195E-09 -2.32819E-09 -2.38156E-09 -2.43203E-09 -2.47959E-09 -2.52415E-09 -2.56574E-09 -2.60431E-09 -2.63982E-09 -2.67233E-09
  -2.70189E-09 -2.72857E-09 -2.75243E-09 -2.77353E-09 -2.79194E-09 -2.80772E-09 -2.82093E-09 -2.83163E-09 -2.83990E-09 -2.84577E-09
  -2.84934E-09 -2.85065E-09 -2.84977E-09 -2.84675E-09 -2.84168E-09 -2.83459E-09 -2.82557E-09 -2.81467E-09 -2.80195E-09 -2.78747E-09
  -2.77129E-09 -2.75350E-09 -2.73413E-09 -2.71325E-09 -2.69092E-09 -2.66721E-09 -2.64217E-09 -2.61587E-09 -2.58837E-09 -2.55971E-09
  -2.52998E-09 -2.49921E-09 -2.46749E-09 -2.43485E-09 -2.40135E-09 -2.36707E-09 -2.33205E-09 -2.29634E-09 -2.26001E-09 -2.22311E-09
  -2.18569E-09 -2.14781E-09 -2.10953E-09 -2.07090E-09 -2.03195E-09 -1.99276E-09 -1.95337E-09 -1.91383E-09 -1.87418E-09 -1.83449E-09
  -1.79479E-09 -1.75513E-09 -1.71556E-09 -1.67611E-09 -1.63686E-09 -1.59782E-09 -1.55904E-09 -1.52057E-09 -1.48244E-09 -1.44470E-09
  -1.40739E-09 -1.37054E-09 -1.33419E-09 -1.29836E-09 -1.26311E-09 -1.22846E-09 -1.19445E-09 -1.16109E-09 -1.12844E-09 -1.09651E-09
  -1.06533E-09 -1.03491E-09 -1.00525E-09 -9.76326E-10 -9.48136E-10 -9.20675E-10 -8.93920E-10 -8.67872E-10 -8.42515E-10 -8.17842E-10
  -7.93844E-10 -7.70508E-10 -7.47830E-10 -7.25798E-10 -7.04400E-10 -6.83630E-10 -6.63483E-10 -6.43948E-10 -6.25013E-10 -6.06672E-10
  -5.88919E-10 -5.71742E-10 -5.55141E-10 -5.39099E-10 -5.23617E-10 -5.08682E-10 -4.94292E-10 -4.80434E-10 -4.67108E-10 -4.54307E-10
  -4.42024E-10 -4.30246E-10 -4.18980E-10 -4.08214E-10 -3.97943E-10 -3.88158E-10 -3.78867E-10 -3.70055E-10 -3.61723E-10 -3.53862E-10
  -3.46474E-10 -3.39552E-10 -3.33092E-10 -3.27094E-10 -3.21556E-10 -3.16474E-10 -3.11847E-10 -3.07670E-10 -3.03948E-10 -3.00668E-10
  -2.97844E-10 -2.95464E-10 -2.93535E-10 -2.92053E-10 -2.91013E-10 -2.90429E-10 -2.90290E-10 -2.90604E-10 -2.91366E-10 -2.92582E-10
  -2.94254E-10 -2.96381E-10 -2.98969E-10 -3.02018E-10 -3.05533E-10 -3.09516E-10 -3.13974E-10 -3.18906E-10 -3.24319E-10 -3.30218E-10
  -3.36606E-10 -3.43490E-10 -3.50876E-10
 NY background values follow
     2.645E-09    2.726E-09    2.806E-09    2.885E-09    2.963E-09    3.039E-09    3.115E-09    3.189E-09    3.262E-09    3.335E-09
     3.406E-09    3.476E-09    3.544E-09    3.612E-09    3.679E-09    3.744E-09    3.809E-09    3.872E-09    3.934E-09    3.995E-09
     4.055E-09    4.113E-09    4.171E-09    4.228E-09    4.283E-09    4.337E-09    4.390E-09    4.442E-09    4.493E-09    4.543E-09
     4.592E-09    4.639E-09    4.686E-09    4.731E-09    4.776E-09    4.819E-09    4.861E-09    4.902E-09    4.942E-09    4.981E-09
     5.019E-09    5.055E-09    5.091E-09    5.126E-09    5.159E-09    5.192E-09    5.223E-09    5.254E-09    5.283E-09    5.311E-09
     5.339E-09    5.365E-09    5.390E-09    5.415E-09    5.438E-09    5.461E-09    5.482E-09    5.503E-09    5.522E-09    5.541E-09
     5.558E-09    5.575E-09    5.591E-09    5.605E-09    5.619E-09    5.633E-09    5.645E-09    5.656E-09    5.666E-09    5.676E-09
     5.685E-09    5.693E-09    5.700E-09    5.706E-09    5.711E-09    5.716E-09    5.720E-09    5.723E-09    5.725E-09    5.726E-09
     5.726E-09    5.726E-09    5.725E-09    5.722E-09    5.719E-09    5.715E-09    5.710E-09    5.705E-09    5.698E-09    5.690E-09
     5.682E-09    5.672E-09    5.661E-09    5.650E-09    5.637E-09    5.624E-09    5.609E-09    5.594E-09    5.577E-09    5.560E-09
     5.541E-09    5.521E-09    5.500E-09    5.478E-09    5.455E-09    5.431E-09    5.405E-09    5.379E-09    5.351E-09    5.322E-09
     5.292E-09    5.261E-09    5.228E-09    5.195E-09    5.159E-09    5.123E-09    5.086E-09    5.047E-09    5.007E-09    4.965E-09
     4.922E-09    4.878E-09    4.832E-09    4.785E-09    4.737E-09    4.687E-09    4.636E-09    4.584E-09    4.530E-09    4.474E-09
     4.417E-09    4.358E-09    4.299E-09    4.237E-09    4.174E-09    4.109E-09    4.043E-09    3.976E-09    3.906E-09    3.835E-09
     3.763E-09    3.689E-09    3.613E-09    3.536E-09    3.457E-09    3.376E-09    3.294E-09    3.210E-09    3.124E-09    3.038E-09
     2.949E-09    2.860E-09    2.769E-09    2.677E-09    2.583E-09    2.489E-09    2.394E-09    2.297E-09    2.200E-09    2.102E-09
     2.003E-09    1.904E-09    1.804E-09    1.703E-09    1.602E-09    1.501E-09    1.399E-09    1.297E-09    1.195E-09    1.092E-09
     9.899E-10    8.876E-10    7.854E-10    6.833E-10    5.815E-10    4.800E-10    3.788E-10    2.782E-10    1.781E-10    7.851E-11
    -2.034E-11   -1.185E-10   -2.158E-10   -3.122E-10   -4.077E-10   -5.022E-10   -5.956E-10   -6.878E-10   -7.788E-10   -8.685E-10
    -9.568E-10   -1.044E-09   -1.129E-09   -1.213E-09   -1.295E-09   -1.376E-09   -1.455E-09   -1.532E-09   -1.607E-09   -1.680E-09
    -1.751E-09   -1.821E-09   -1.888E-09   -1.953E-09   -2.015E-09   -2.076E-09   -2.134E-09   -2.190E-09   -2.243E-09   -2.294E-09
    -2.342E-09   -2.388E-09   -2.431E-09   -2.471E-09   -2.509E-09   -2.544E-09   -2.576E-09   -2.606E-09   -2.632E-09   -2.656E-09
    -2.676E-09   -2.694E-09   -2.710E-09   -2.723E-09   -2.733E-09   -2.740E-09   -2.746E-09   -2.749E-09   -2.749E-09   -2.747E-09
    -2.743E-09   -2.737E-09   -2.729E-09   -2.719E-09   -2.707E-09   -2.692E-09   -2.676E-09   -2.659E-09   -2.639E-09   -2.618E-09
    -2.595E-09   -2.571E-09   -2.545E-09   -2.518E-09   -2.489E-09   -2.459E-09   -2.428E-09   -2.395E-09   -2.362E-09   -2.327E-09
    -2.292E-09   -2.255E-09   -2.217E-09   -2.179E-09   -2.140E-09   -2.100E-09   -2.059E-09   -2.018E-09   -1.976E-09   -1.934E-09
    -1.891E-09   -1.848E-09   -1.805E-09   -1.761E-09   -1.717E-09   -1.673E-09   -1.628E-09   -1.584E-09   -1.539E-09   -1.495E-09
    -1.450E-09   -1.406E-09   -1.361E-09   -1.317E-09   -1.273E-09   -1.230E-09   -1.186E-09   -1.143E-09   -1.101E-09   -1.059E-09
    -1.017E-09   -9.759E-10   -9.352E-10   -8.952E-10   -8.557E-10   -8.169E-10   -7.788E-10   -7.414E-10   -7.047E-10   -6.688E-10
    -6.336E-10   -5.993E-10   -5.657E-10   -5.330E-10   -5.010E-10   -4.698E-10   -4.393E-10   -4.095E-10   -3.805E-10   -3.522E-10
    -3.247E-10   -2.978E-10   -2.716E-10   -2.461E-10   -2.212E-10   -1.971E-10   -1.736E-10   -1.507E-10   -1.284E-10   -1.068E-10
    -8.584E-11   -6.546E-11   -4.569E-11   -2.651E-11   -7.926E-12    1.008E-11    2.751E-11    4.438E-11    6.068E-11    7.642E-11
     9.162E-11    1.063E-10    1.204E-10    1.340E-10    1.470E-10    1.596E-10    1.716E-10    1.831E-10    1.941E-10    2.046E-10
     2.146E-10    2.241E-10    2.331E-10    2.417E-10    2.497E-10    2.572E-10    2.643E-10    2.709E-10    2.770E-10    2.826E-10
     2.877E-10    2.924E-10    2.966E-10    3.003E-10    3.036E-10    3.064E-10    3.086E-10    3.105E-10    3.118E-10    3.127E-10
     3.130E-10    3.129E-10    3.123E-10    3.112E-10    3.097E-10    3.076E-10    3.050E-10    3.020E-10    2.984E-10    2.943E-10
     2.897E-10    2.846E-10    2.789E-10
 Glc      Conc. = 2.64E-10
   2.34193E-09  2.52066E-09  2.70192E-09  2.88684E-09  3.05742E-09  3.20860E-09  3.32485E-09  3.41342E-09  3.46445E-09  3.47997E-09
   3.49630E-09  3.51802E-09  3.54448E-09  3.59018E-09  3.67862E-09  3.81368E-09  3.98927E-09  4.19482E-09  4.40015E-09  4.58898E-09
   4.76573E-09  4.92098E-09  5.04052E-09  5.11981E-09  5.14148E-09  5.11409E-09  5.09240E-09  5.09604E-09  5.12050E-09  5.15532E-09
   5.18578E-09  5.21171E-09  5.23962E-09  5.26112E-09  5.27251E-09  5.28648E-09  5.30268E-09  5.31443E-09  5.32533E-09  5.33983E-09
   5.35700E-09  5.37573E-09  5.39550E-09  5.41587E-09  5.43658E-09  5.45740E-09  5.47819E-09  5.49877E-09  5.51907E-09  5.53901E-09
   5.55850E-09  5.57751E-09  5.59595E-09  5.61381E-09  5.63109E-09  5.64769E-09  5.66364E-09  5.67894E-09  5.69348E-09  5.70735E-09
   5.72050E-09  5.73290E-09  5.74459E-09  5.75552E-09  5.76575E-09  5.77520E-09  5.78393E-09  5.79189E-09  5.79912E-09  5.80563E-09
   5.81138E-09  5.81639E-09  5.82071E-09  5.82427E-09  5.82712E-09  5.82923E-09  5.83059E-09  5.83119E-09  5.83103E-09  5.83009E-09
   5.82835E-09  5.82581E-09  5.82246E-09  5.81828E-09  5.81328E-09  5.80743E-09  5.80071E-09  5.79313E-09  5.78467E-09  5.77531E-09
   5.76504E-09  5.75386E-09  5.74174E-09  5.72870E-09  5.71468E-09  5.69969E-09  5.68373E-09  5.66676E-09  5.64879E-09  5.62980E-09
   5.60977E-09  5.58869E-09  5.56654E-09  5.54333E-09  5.51901E-09  5.49359E-09  5.46704E-09  5.43938E-09  5.41057E-09  5.38056E-09
   5.34941E-09  5.31705E-09  5.28348E-09  5.24868E-09  5.21265E-09  5.17537E-09  5.13683E-09  5.09701E-09  5.05588E-09  5.01347E-09
   4.96970E-09  4.92462E-09  4.87816E-09  4.83035E-09  4.78117E-09  4.73057E-09  4.67854E-09  4.62513E-09  4.57026E-09  4.51394E-09
   4.45616E-09  4.39687E-09  4.33612E-09  4.27386E-09  4.21008E-09  4.14473E-09  4.07789E-09  4.00947E-09  3.93948E-09  3.86789E-09
   3.79473E-09  3.71996E-09  3.64359E-09  3.56555E-09  3.48590E-09  3.40461E-09  3.32167E-09  3.23715E-09  3.15111E-09  3.06362E-09
   2.97473E-09  2.88452E-09  2.79303E-09  2.70037E-09  2.60658E-09  2.51174E-09  2.41594E-09  2.31925E-09  2.22177E-09  2.12362E-09
   2.02490E-09  1.92585E-09  1.82671E-09  1.72802E-09  1.63092E-09  1.53876E-09  1.46712E-09  1.46440E-09  1.48909E-09  1.50574E-09
   1.49516E-09  1.44982E-09  1.37274E-09  1.27017E-09  1.14200E-09  9.77537E-10  7.65133E-10  5.14744E-10  2.82802E-10  1.44188E-10
   2.93033E-11 -7.76778E-11 -1.80731E-10 -2.81220E-10 -3.79767E-10 -4.76661E-10 -5.72024E-10 -6.65886E-10 -7.58324E-10 -8.49295E-10
  -9.38744E-10 -1.02669E-09 -1.11305E-09 -1.19779E-09 -1.28083E-09 -1.36215E-09 -1.44170E-09 -1.51938E-09 -1.59515E-09 -1.66899E-09
  -1.74081E-09 -1.81056E-09 -1.87817E-09 -1.94361E-09 -2.00683E-09 -2.06774E-09 -2.12632E-09 -2.18251E-09 -2.23628E-09 -2.28751E-09
  -2.33624E-09 -2.38236E-09 -2.42585E-09 -2.46666E-09 -2.50476E-09 -2.54007E-09 -2.57257E-09 -2.60225E-09 -2.62902E-09 -2.65295E-09
  -2.67407E-09 -2.69247E-09 -2.70818E-09 -2.72126E-09 -2.73177E-09 -2.73978E-09 -2.74533E-09 -2.74849E-09 -2.74931E-09 -2.74786E-09
  -2.74419E-09 -2.73837E-09 -2.73044E-09 -2.72049E-09 -2.70855E-09 -2.69470E-09 -2.67899E-09 -2.66148E-09 -2.64224E-09 -2.62132E-09
  -2.59878E-09 -2.57469E-09 -2.54911E-09 -2.52208E-09 -2.49368E-09 -2.46396E-09 -2.43298E-09 -2.40081E-09 -2.36749E-09 -2.33309E-09
  -2.29768E-09 -2.26129E-09 -2.22401E-09 -2.18586E-09 -2.14692E-09 -2.10726E-09 -2.06690E-09 -2.02592E-09 -1.98437E-09 -1.94230E-09
  -1.89977E-09 -1.85684E-09 -1.81355E-09 -1.76995E-09 -1.72610E-09 -1.68205E-09 -1.63786E-09 -1.59355E-09 -1.54919E-09 -1.50483E-09
  -1.46051E-09 -1.41627E-09 -1.37218E-09 -1.32825E-09 -1.28455E-09 -1.24111E-09 -1.19799E-09 -1.15521E-09 -1.11281E-09 -1.07085E-09
  -1.02935E-09 -9.88355E-10 -9.47902E-10 -9.08016E-10 -8.68742E-10 -8.30110E-10 -7.92157E-10 -7.54891E-10 -7.18371E-10 -6.82613E-10
  -6.47635E-10 -6.13466E-10 -5.80085E-10 -5.47485E-10 -5.15651E-10 -4.84582E-10 -4.54255E-10 -4.24670E-10 -3.95812E-10 -3.67672E-10
  -3.40242E-10 -3.13509E-10 -2.87468E-10 -2.62105E-10 -2.37411E-10 -2.13378E-10 -1.90001E-10 -1.67269E-10 -1.45170E-10 -1.23697E-10
  -1.02844E-10 -8.25996E-11 -6.29626E-11 -4.39164E-11 -2.54606E-11 -7.58381E-12  9.71734E-12  2.64551E-11  4.26309E-11  5.82520E-11
   7.33243E-11  8.78615E-11  1.01858E-10  1.15323E-10  1.28265E-10  1.40691E-10  1.52594E-10  1.63990E-10  1.74876E-10  1.85264E-10
   1.95149E-10  2.04540E-10  2.13441E-10  2.21853E-10  2.29776E-10  2.37216E-10  2.44172E-10  2.50652E-10  2.56649E-10  2.62176E-10
   2.67221E-10  2.71796E-10  2.75892E-10  2.79514E-10  2.82668E-10  2.85340E-10  2.87541E-10  2.89262E-10  2.90509E-10  2.91275E-10
   2.91560E-10  2.91364E-10  2.90682E-10  2.89513E-10  2.87851E-10  2.85698E-10  2.83043E-10  2.79889E-10  2.76230E-10  2.72058E-10
   2.67374E-10  2.62169E-10  2.56436E-10
 Gln      Conc. = 1.34E-09
   1.50559E-09  1.73044E-09  2.04300E-09  2.43544E-09  2.87069E-09  3.30635E-09  3.69939E-09  4.01380E-09  4.24112E-09  4.42540E-09
   4.47011E-09  4.41496E-09  4.37838E-09  4.27174E-09  4.19694E-09  4.15565E-09  4.13578E-09  4.12997E-09  4.13378E-09  4.14437E-09
   4.15978E-09  4.17868E-09  4.20007E-09  4.22327E-09  4.24785E-09  4.27342E-09  4.29941E-09  4.32562E-09  4.35182E-09  4.37766E-09
   4.40295E-09  4.42751E-09  4.45118E-09  4.47383E-09  4.49532E-09  4.51553E-09  4.53429E-09  4.55148E-09  4.56695E-09  4.58050E-09
   4.59201E-09  4.60128E-09  4.60819E-09  4.61254E-09  4.61404E-09  4.61244E-09  4.60740E-09  4.59810E-09  4.58432E-09  4.56615E-09
   4.54236E-09  4.51289E-09  4.47952E-09  4.45116E-09  4.48460E-09  4.65427E-09  4.87295E-09  5.16397E-09  5.60380E-09  6.13040E-09
   6.65293E-09  7.16132E-09  7.59755E-09  7.89463E-09  8.00749E-09  7.93784E-09  7.77370E-09  7.55403E-09  7.15593E-09  6.75832E-09
   6.47734E-09  6.28518E-09  6.18557E-09  6.19288E-09  6.32662E-09  6.60578E-09  6.94292E-09  7.31749E-09  7.70400E-09  8.05872E-09
   8.34538E-09  8.51455E-09  8.52356E-09  8.47035E-09  8.34948E-09  8.08545E-09  7.82718E-09  7.61757E-09  7.37696E-09  7.17379E-09
   7.01612E-09  6.88848E-09  6.78171E-09  6.68953E-09  6.60740E-09  6.53335E-09  6.46571E-09  6.40293E-09  6.34415E-09  6.28857E-09
   6.23540E-09  6.18402E-09  6.13410E-09  6.08535E-09  6.03751E-09  5.99034E-09  5.94356E-09  5.89703E-09  5.85056E-09  5.80400E-09
   5.75730E-09  5.71029E-09  5.66288E-09  5.61500E-09  5.56658E-09  5.51754E-09  5.46782E-09  5.41736E-09  5.36608E-09  5.31399E-09
   5.26096E-09  5.20702E-09  5.15208E-09  5.09613E-09  5.03912E-09  4.98102E-09  4.92176E-09  4.86139E-09  4.79982E-09  4.73703E-09
   4.67300E-09  4.60769E-09  4.54111E-09  4.47322E-09  4.40398E-09  4.33335E-09  4.26140E-09  4.18801E-09  4.11322E-09  4.03697E-09
   3.95928E-09  3.88012E-09  3.79948E-09  3.71732E-09  3.63366E-09  3.54847E-09  3.46177E-09  3.37361E-09  3.28405E-09  3.19316E-09
   3.10102E-09  3.00769E-09  2.91324E-09  2.81779E-09  2.72141E-09  2.62422E-09  2.52635E-09  2.42797E-09  2.32928E-09  2.23057E-09
   2.13224E-09  2.03500E-09  1.93995E-09  1.84934E-09  1.76817E-09  1.71072E-09  1.73768E-09  2.11094E-09  2.64709E-09  3.15722E-09
   3.53540E-09  3.73695E-09  3.77287E-09  3.67598E-09  3.45095E-09  3.04780E-09  2.40250E-09  1.54582E-09  7.36674E-10  4.05483E-10
   2.19238E-10  7.48807E-11 -5.15307E-11 -1.68227E-10 -2.78834E-10 -3.85164E-10 -4.88198E-10 -5.88486E-10 -6.86438E-10 -7.82234E-10
  -8.75975E-10 -9.67787E-10 -1.05768E-09 -1.14567E-09 -1.23173E-09 -1.31587E-09 -1.39808E-09 -1.47827E-09 -1.55643E-09 -1.63255E-09
  -1.70655E-09 -1.77840E-09 -1.84803E-09 -1.91542E-09 -1.98053E-09 -2.04326E-09 -2.10362E-09 -2.16153E-09 -2.21698E-09 -2.26985E-09
  -2.32018E-09 -2.36786E-09 -2.41287E-09 -2.45517E-09 -2.49474E-09 -2.53149E-09 -2.56540E-09 -2.59646E-09 -2.62458E-09 -2.64984E-09
  -2.67228E-09 -2.69196E-09 -2.70893E-09 -2.72326E-09 -2.73500E-09 -2.74421E-09 -2.75096E-09 -2.75528E-09 -2.75726E-09 -2.75695E-09
