 LCModel (Version 6.3-1R) Copyright: S.W. Provencher.          Ref.: Magn. Reson. Med. 30:672-679 (1993).                
 onepulse 15x28_ftSpec_smooth_lcm
 26 lines in following concentration table = NCONC+1
    Conc.  %SD /Cr+PCr  Metabolite                                         
    0.000 999%   0.000 Ala                                                 
    0.000 999%   0.000 Asp                                                 
    0.000 999%   0.000 Cr                                                  
    0.000 999%   0.000 GABA                                                
 8.20E-11 999%   0.304 Glc                                                 
 4.03E-10 307%   1.494 Gln                                                 
 2.89E-10 350%   1.072 Glu                                                 
    0.000 999%   0.000 Glyc                                                
 1.57E-10  87%   0.582 GPC                                                 
    0.000 999%   0.000 GSH                                                 
 1.72E-09  43%   6.374 Ins                                                 
    0.000 999%   0.000 Lac                                                 
    0.000 999%   0.000 NAAG                                                
 7.30E-10  60%   2.703 NAA                                                 
    0.000 999%   0.000 PCh                                                 
 2.70E-10 137%   1.000 PCr                                                 
    0.000 999%   0.000 PE                                                  
 2.21E-10 128%   0.817 Scyllo                                              
 6.14E-09  24%  22.734 Ser                                                 
    0.000 999%   0.000 Tau                                                 
 1.57E-10  87%   0.582 GPC+PCh                                             
 7.30E-10  60%   2.703 NAA+NAAG                                            
 1.72E-09  43%   6.374 Ins+Glyc                                            
 2.70E-10 137%   1.000 Cr+PCr                                              
 6.92E-10 134%   2.566 Glu+Gln                                             
   6 lines in following misc. output table
  FWHM = 0.101 ppm    S/N =   2                                            
  Data shift = 0.358 ppm                                                   
  Ph: -36 deg     -38.9 deg/ppm                                            
  alphaB,S = 8.5E-01,   2.4E+01                                            
    8 spline knots.   Ns = 5(1)                                            
  ( 5) 4 infls.   ( 5) 1 extrs.                                            
  363 points on ppm-axis = NY
      4.250000     4.238821     4.227641     4.216462     4.205282     4.194103     4.182923     4.171744     4.160564     4.149385
      4.138206     4.127026     4.115847     4.104667     4.093488     4.082308     4.071129     4.059949     4.048770     4.037591
      4.026411     4.015232     4.004052     3.992873     3.981693     3.970514     3.959334     3.948155     3.936975     3.925796
      3.914617     3.903437     3.892258     3.881078     3.869899     3.858719     3.847540     3.836360     3.825181     3.814002
      3.802822     3.791643     3.780463     3.769284     3.758104     3.746925     3.735745     3.724566     3.713387     3.702207
      3.691028     3.679848     3.668669     3.657489     3.646310     3.635130     3.623951     3.612772     3.601592     3.590413
      3.579233     3.568054     3.556874     3.545695     3.534515     3.523336     3.512156     3.500977     3.489798     3.478618
      3.467439     3.456259     3.445080     3.433900     3.422721     3.411541     3.400362     3.389183     3.378003     3.366824
      3.355644     3.344465     3.333285     3.322106     3.310926     3.299747     3.288568     3.277388     3.266209     3.255029
      3.243850     3.232670     3.221491     3.210311     3.199132     3.187953     3.176773     3.165594     3.154414     3.143235
      3.132055     3.120876     3.109696     3.098517     3.087337     3.076158     3.064979     3.053799     3.042620     3.031440
      3.020261     3.009081     2.997902     2.986722     2.975543     2.964364     2.953184     2.942005     2.930825     2.919646
      2.908466     2.897287     2.886107     2.874928     2.863749     2.852569     2.841390     2.830210     2.819031     2.807851
      2.796672     2.785492     2.774313     2.763134     2.751954     2.740775     2.729595     2.718416     2.707236     2.696057
      2.684877     2.673698     2.662519     2.651339     2.640160     2.628980     2.617801     2.606621     2.595442     2.584262
      2.573083     2.561903     2.550724     2.539545     2.528365     2.517186     2.506006     2.494827     2.483647     2.472468
      2.461288     2.450109     2.438930     2.427750     2.416571     2.405391     2.394212     2.383032     2.371853     2.360673
      2.349494     2.338315     2.327135     2.315956     2.304776     2.293597     2.282417     2.271238     2.260058     2.248879
      2.237700     2.226520     2.215341     2.204161     2.192982     2.181802     2.170623     2.159443     2.148264     2.137084
      2.125905     2.114726     2.103546     2.092367     2.081187     2.070008     2.058828     2.047649     2.036469     2.025290
      2.014111     2.002931     1.991752     1.980572     1.969393     1.958213     1.947034     1.935854     1.924675     1.913496
      1.902316     1.891137     1.879957     1.868778     1.857598     1.846419     1.835239     1.824060     1.812881     1.801701
      1.790522     1.779342     1.768163     1.756983     1.745804     1.734624     1.723445     1.712265     1.701086     1.689907
      1.678727     1.667548     1.656368     1.645189     1.634009     1.622830     1.611650     1.600471     1.589292     1.578112
      1.566933     1.555753     1.544574     1.533394     1.522215     1.511035     1.499856     1.488677     1.477497     1.466318
      1.455138     1.443959     1.432779     1.421600     1.410420     1.399241     1.388062     1.376882     1.365703     1.354523
      1.343344     1.332164     1.320985     1.309805     1.298626     1.287446     1.276267     1.265088     1.253908     1.242729
      1.231549     1.220370     1.209190     1.198011     1.186831     1.175652     1.164473     1.153293     1.142114     1.130934
      1.119755     1.108575     1.097396     1.086216     1.075037     1.063858     1.052678     1.041499     1.030319     1.019140
      1.007960     0.996781     0.985601     0.974422     0.963243     0.952063     0.940884     0.929704     0.918525     0.907345
      0.896166     0.884986     0.873807     0.862628     0.851448     0.840269     0.829089     0.817910     0.806730     0.795551
      0.784371     0.773192     0.762012     0.750833     0.739654     0.728474     0.717295     0.706115     0.694936     0.683756
      0.672577     0.661397     0.650218     0.639039     0.627859     0.616680     0.605500     0.594321     0.583141     0.571962
      0.560782     0.549603     0.538424     0.527244     0.516065     0.504885     0.493706     0.482526     0.471347     0.460167
      0.448988     0.437809     0.426629     0.415450     0.404270     0.393091     0.381911     0.370732     0.359552     0.348373
      0.337193     0.326014     0.314835     0.303655     0.292476     0.281296     0.270117     0.258937     0.247758     0.236578
      0.225399     0.214220     0.203040
 NY phased data points follow
   1.33258E-08  1.36563E-08  1.41125E-08  1.28406E-08  1.28583E-08  1.16567E-08  1.22179E-08  1.10876E-08  1.13614E-08  1.10398E-08
   1.14265E-08  1.10790E-08  1.17392E-08  1.16019E-08  1.28459E-08  1.24349E-08  1.31095E-08  1.20276E-08  1.25844E-08  1.18886E-08
   1.25509E-08  1.17233E-08  1.18307E-08  1.10107E-08  1.23435E-08  1.24610E-08  1.27140E-08  1.16562E-08  1.19295E-08  1.06007E-08
   1.18775E-08  1.20401E-08  1.38193E-08  1.36613E-08  1.47907E-08  1.35350E-08  1.37234E-08  1.22990E-08  1.27492E-08  1.12737E-08
   1.23496E-08  1.16403E-08  1.25309E-08  1.13419E-08  1.16743E-08  1.11943E-08  1.10101E-08  1.00654E-08  1.06569E-08  9.49123E-09
   1.05538E-08  9.66985E-09  1.07333E-08  9.46409E-09  9.69162E-09  8.58275E-09  8.81925E-09  8.46957E-09  8.77973E-09  8.32202E-09
   8.60283E-09  7.75637E-09  1.01575E-08  1.04266E-08  1.25413E-08  1.15785E-08  1.21571E-08  1.11920E-08  1.13626E-08  9.55509E-09
   1.02707E-08  9.37799E-09  9.29531E-09  8.26402E-09  8.20243E-09  7.22915E-09  7.32330E-09  5.59618E-09  8.36491E-09  1.07319E-08
   1.40545E-08  1.48592E-08  1.52870E-08  1.38103E-08  1.44971E-08  1.33600E-08  1.43454E-08  1.30155E-08  1.32286E-08  1.30044E-08
   1.36593E-08  1.22919E-08  1.29275E-08  1.19108E-08  1.24159E-08  1.12433E-08  1.16711E-08  1.04500E-08  1.12023E-08  9.98247E-09
   1.05867E-08  9.57415E-09  1.03028E-08  9.40743E-09  1.00648E-08  9.44467E-09  9.68646E-09  8.86377E-09  8.50404E-09  7.73918E-09
   7.60288E-09  6.32764E-09  7.25792E-09  6.66909E-09  7.71329E-09  6.44548E-09  6.84716E-09  6.49610E-09  7.36350E-09  6.83650E-09
   7.69176E-09  6.59881E-09  6.88619E-09  6.13481E-09  6.45919E-09  4.66290E-09  5.52136E-09  5.06983E-09  5.41766E-09  4.99287E-09
   4.88301E-09  4.77971E-09  5.49640E-09  5.19169E-09  5.64609E-09  5.19671E-09  5.13187E-09  4.43105E-09  5.56579E-09  5.50581E-09
   7.40917E-09  7.54237E-09  8.40418E-09  7.97166E-09  8.75412E-09  8.69171E-09  9.96724E-09  1.01704E-08  1.09140E-08  1.01679E-08
   1.06041E-08  1.00968E-08  1.07616E-08  9.91075E-09  1.08793E-08  1.01848E-08  1.06994E-08  1.04289E-08  1.05423E-08  1.03436E-08
   1.10413E-08  1.10069E-08  1.11558E-08  1.03901E-08  1.13149E-08  1.03689E-08  1.11275E-08  1.02863E-08  1.10178E-08  1.09631E-08
   1.57774E-08  1.89846E-08  2.15733E-08  2.10613E-08  2.02668E-08  1.93288E-08  1.93565E-08  1.79982E-08  1.81256E-08  1.72697E-08
   1.66836E-08  1.55736E-08  1.54446E-08  1.35473E-08  1.32063E-08  1.13573E-08  9.53363E-09  7.33542E-09  6.04917E-09  3.13950E-09
   1.45817E-09 -2.54374E-09 -5.09292E-09 -8.77028E-09 -1.17171E-08 -1.48806E-08 -1.70654E-08 -1.96489E-08 -2.14056E-08 -2.31116E-08
  -2.32078E-08 -2.35103E-08 -2.31491E-08 -2.25355E-08 -2.01846E-08 -1.80848E-08 -1.55318E-08 -1.31987E-08 -9.86535E-09 -8.02225E-09
  -4.71961E-09 -3.59488E-09 -1.88324E-09 -1.25858E-09 -6.06258E-10 -1.07050E-09 -1.49200E-09 -2.54396E-09 -2.58888E-09 -3.53566E-09
  -2.72641E-09 -3.09950E-09 -2.21262E-09 -1.55458E-09 -9.55139E-10 -1.29565E-09 -1.33927E-09 -2.13579E-09 -1.90685E-09 -2.97954E-09
  -2.38184E-09 -3.21607E-09 -2.42468E-09 -2.37384E-09 -1.40652E-09 -1.79836E-09 -1.06669E-09 -1.54247E-09 -1.95963E-09 -3.17104E-09
  -2.76735E-09 -3.37024E-09 -2.54488E-09 -2.99250E-09 -2.62862E-09 -2.85652E-09 -1.92512E-09 -2.27069E-09 -1.47697E-09 -2.13506E-09
  -1.47090E-09 -2.04429E-09 -1.55351E-09 -2.59165E-09 -2.43878E-09 -2.51651E-09 -1.84704E-09 -3.12236E-09 -2.02261E-09 -2.52698E-09
  -1.92939E-09 -2.27642E-09 -1.94624E-09 -2.26118E-09 -2.08677E-09 -2.25781E-09 -1.16221E-09 -2.05217E-09 -1.06019E-09 -1.49218E-09
  -7.65094E-10 -7.19093E-10 -1.37859E-10 -1.06835E-09  1.50920E-10 -6.78663E-10 -1.78276E-10 -1.02478E-09 -3.90482E-10 -1.22841E-09
  -3.39772E-10 -1.77601E-09 -1.33482E-09 -1.27162E-09 -1.55048E-09 -2.02401E-09 -1.38718E-09 -2.63467E-09 -1.53305E-09 -2.24377E-09
  -1.65544E-09 -2.28747E-09 -1.45722E-09 -2.65141E-09 -1.91346E-09 -2.18274E-09 -1.57255E-09 -2.34659E-09 -1.48764E-09 -2.22666E-09
  -1.44404E-09 -2.04176E-09 -1.28438E-09 -1.92735E-09 -1.53884E-09 -2.28290E-09 -1.44733E-09 -1.80332E-09 -1.54428E-09 -2.04163E-09
  -1.76708E-09 -2.21100E-09 -1.75576E-09 -2.26786E-09 -1.59164E-09 -2.13035E-09 -1.15356E-09 -2.21798E-09 -1.46392E-09 -2.08519E-09
  -1.22499E-09 -2.04772E-09 -1.48793E-09 -2.09642E-09 -1.40759E-09 -2.24245E-09 -1.22772E-09 -1.60668E-09 -1.14437E-09 -1.79356E-09
  -1.41733E-09 -2.60817E-09 -1.14607E-09 -2.02901E-09 -9.77734E-10 -1.95483E-09 -1.66225E-09 -2.22951E-09 -1.26228E-09 -1.83807E-09
  -1.31508E-09 -1.59992E-09 -1.10595E-09 -2.13361E-09 -1.39663E-09 -2.08748E-09 -1.41831E-09 -1.89422E-09 -1.70843E-09 -1.94838E-09
  -1.48469E-09 -1.70020E-09 -1.46668E-09 -1.81375E-09 -9.71968E-10 -1.66712E-09 -9.94299E-10 -1.63385E-09 -1.22511E-09 -1.70967E-09
  -7.20775E-10 -1.37690E-09 -1.00208E-09
 NY points of the fit to the data follow
   1.09579E-08  1.37824E-08  1.43848E-08  1.32156E-08  1.32651E-08  1.39713E-08  1.38931E-08  1.25987E-08  1.10549E-08  1.02825E-08
   9.96320E-09  1.00141E-08  1.03907E-08  1.11835E-08  1.21260E-08  1.26712E-08  1.27847E-08  1.32247E-08  1.36841E-08  1.31139E-08
   1.20794E-08  1.13657E-08  1.09792E-08  1.06265E-08  1.05690E-08  1.09579E-08  1.16859E-08  1.24642E-08  1.28128E-08  1.25426E-08
   1.26217E-08  1.28944E-08  1.32891E-08  1.35345E-08  1.33782E-08  1.28013E-08  1.24044E-08  1.21623E-08  1.20371E-08  1.20265E-08
   1.20863E-08  1.20645E-08  1.17397E-08  1.11383E-08  1.07701E-08  1.05364E-08  1.03605E-08  1.02049E-08  1.00630E-08  9.96057E-09
   9.88614E-09  9.84741E-09  9.83739E-09  9.80398E-09  9.73474E-09  9.69357E-09  9.68446E-09  9.77463E-09  9.95207E-09  1.01347E-08
   1.02515E-08  1.03291E-08  1.04127E-08  1.05083E-08  1.06429E-08  1.07903E-08  1.08894E-08  1.08643E-08  1.06993E-08  1.04520E-08
   1.02796E-08  1.01605E-08  9.96638E-09  9.65857E-09  9.43494E-09  9.24493E-09  9.04837E-09  9.33539E-09  1.00637E-08  1.09310E-08
   1.18401E-08  1.27131E-08  1.34558E-08  1.40969E-08  1.46807E-08  1.51794E-08  1.54143E-08  1.49410E-08  1.35373E-08  1.24484E-08
   1.18582E-08  1.14636E-08  1.11725E-08  1.09388E-08  1.07463E-08  1.05824E-08  1.04366E-08  1.03061E-08  1.01876E-08  1.00784E-08
   9.97632E-09  9.87996E-09  9.78821E-09  9.70021E-09  9.61519E-09  9.53254E-09  9.45176E-09  9.37245E-09  9.29424E-09  9.21678E-09
   9.13994E-09  9.06338E-09  8.98693E-09  8.91044E-09  8.83374E-09  8.75670E-09  8.67921E-09  8.60113E-09  8.52236E-09  8.44286E-09
   8.36244E-09  8.28112E-09  8.19877E-09  8.11536E-09  8.03081E-09  7.94506E-09  7.85802E-09  7.76974E-09  7.68009E-09  7.58904E-09
   7.49658E-09  7.40261E-09  7.30717E-09  7.21019E-09  7.11163E-09  7.01143E-09  6.90969E-09  6.80626E-09  6.70117E-09  6.59436E-09
   6.48588E-09  6.37569E-09  6.26378E-09  6.15012E-09  6.03476E-09  5.91769E-09  5.79895E-09  5.67862E-09  5.55684E-09  5.43373E-09
   5.30943E-09  5.18415E-09  5.05807E-09  4.93148E-09  4.80467E-09  4.67810E-09  4.55232E-09  4.42808E-09  4.30651E-09  4.18920E-09
   4.07866E-09  3.97908E-09  3.89777E-09  3.84916E-09  3.86583E-09  4.04029E-09  4.76273E-09  7.62203E-09  1.13979E-08  1.47704E-08
   1.76129E-08  1.98271E-08  2.12673E-08  2.20543E-08  2.24194E-08  2.20340E-08  1.96903E-08  1.42879E-08  7.21915E-09  3.77711E-09
   2.63997E-09  2.04743E-09  1.65294E-09  1.35205E-09  1.10282E-09  8.85296E-10  6.88797E-10  5.07159E-10  3.36462E-10  1.74280E-10
   1.89872E-11 -1.30628E-10 -2.75329E-10 -4.15709E-10 -5.52135E-10 -6.84957E-10 -8.14414E-10 -9.40589E-10 -1.06363E-09 -1.18366E-09
  -1.30069E-09 -1.41477E-09 -1.52588E-09 -1.63407E-09 -1.73933E-09 -1.84160E-09 -1.94091E-09 -2.03723E-09 -2.13054E-09 -2.22074E-09
  -2.30791E-09 -2.39193E-09 -2.47279E-09 -2.55046E-09 -2.62494E-09 -2.69612E-09 -2.76402E-09 -2.82861E-09 -2.88982E-09 -2.94773E-09
  -3.00237E-09 -3.05384E-09 -3.10217E-09 -3.14744E-09 -3.18971E-09 -3.22905E-09 -3.26551E-09 -3.29916E-09 -3.33007E-09 -3.35829E-09
  -3.38390E-09 -3.40695E-09 -3.42751E-09 -3.44565E-09 -3.46142E-09 -3.47489E-09 -3.48613E-09 -3.49519E-09 -3.50214E-09 -3.50704E-09
  -3.50996E-09 -3.51096E-09 -3.51011E-09 -3.50745E-09 -3.50306E-09 -3.49700E-09 -3.48933E-09 -3.48011E-09 -3.46940E-09 -3.45725E-09
  -3.44375E-09 -3.42893E-09 -3.41288E-09 -3.39561E-09 -3.37720E-09 -3.35774E-09 -3.33725E-09 -3.31579E-09 -3.29342E-09 -3.27020E-09
  -3.24617E-09 -3.22141E-09 -3.19594E-09 -3.16984E-09 -3.14313E-09 -3.11588E-09 -3.08815E-09 -3.05996E-09 -3.03137E-09 -3.00243E-09
  -2.97318E-09 -2.94366E-09 -2.91393E-09 -2.88400E-09 -2.85395E-09 -2.82379E-09 -2.79358E-09 -2.76334E-09 -2.73310E-09 -2.70292E-09
  -2.67283E-09 -2.64284E-09 -2.61300E-09 -2.58333E-09 -2.55387E-09 -2.52464E-09 -2.49567E-09 -2.46697E-09 -2.43858E-09 -2.41051E-09
  -2.38279E-09 -2.35542E-09 -2.32839E-09 -2.30168E-09 -2.27529E-09 -2.24921E-09 -2.22341E-09 -2.19789E-09 -2.17263E-09 -2.14763E-09
  -2.12288E-09 -2.09835E-09 -2.07405E-09 -2.04995E-09 -2.02605E-09 -2.00235E-09 -1.97882E-09 -1.95546E-09 -1.93226E-09 -1.90921E-09
  -1.88630E-09 -1.86352E-09 -1.84086E-09 -1.81831E-09 -1.79588E-09 -1.77354E-09 -1.75129E-09 -1.72912E-09 -1.70703E-09 -1.68501E-09
  -1.66305E-09 -1.64114E-09 -1.61929E-09 -1.59748E-09 -1.57571E-09 -1.55397E-09 -1.53226E-09 -1.51058E-09 -1.48892E-09 -1.46728E-09
  -1.44565E-09 -1.42403E-09 -1.40242E-09 -1.38082E-09 -1.35922E-09 -1.33762E-09 -1.31602E-09 -1.29441E-09 -1.27281E-09 -1.25121E-09
  -1.22960E-09 -1.20799E-09 -1.18638E-09 -1.16477E-09 -1.14316E-09 -1.12156E-09 -1.09995E-09 -1.07836E-09 -1.05677E-09 -1.03520E-09
  -1.01364E-09 -9.92106E-10 -9.70593E-10 -9.49108E-10 -9.27656E-10 -9.06243E-10 -8.84874E-10 -8.63555E-10 -8.42291E-10 -8.21090E-10
  -7.99959E-10 -7.78905E-10 -7.57934E-10
 NY background values follow
     9.414E-10    1.088E-09    1.233E-09    1.377E-09    1.519E-09    1.660E-09    1.799E-09    1.936E-09    2.072E-09    2.207E-09
     2.339E-09    2.470E-09    2.600E-09    2.728E-09    2.854E-09    2.978E-09    3.101E-09    3.223E-09    3.342E-09    3.460E-09
     3.576E-09    3.691E-09    3.804E-09    3.915E-09    4.024E-09    4.132E-09    4.238E-09    4.342E-09    4.445E-09    4.546E-09
     4.645E-09    4.742E-09    4.838E-09    4.932E-09    5.025E-09    5.115E-09    5.204E-09    5.291E-09    5.377E-09    5.461E-09
     5.543E-09    5.623E-09    5.702E-09    5.779E-09    5.854E-09    5.928E-09    6.000E-09    6.070E-09    6.139E-09    6.206E-09
     6.271E-09    6.335E-09    6.397E-09    6.458E-09    6.517E-09    6.574E-09    6.630E-09    6.684E-09    6.736E-09    6.787E-09
     6.836E-09    6.884E-09    6.931E-09    6.975E-09    7.019E-09    7.060E-09    7.101E-09    7.139E-09    7.177E-09    7.213E-09
     7.247E-09    7.280E-09    7.312E-09    7.342E-09    7.371E-09    7.398E-09    7.424E-09    7.449E-09    7.472E-09    7.494E-09
     7.514E-09    7.533E-09    7.551E-09    7.567E-09    7.581E-09    7.595E-09    7.606E-09    7.616E-09    7.625E-09    7.632E-09
     7.638E-09    7.642E-09    7.645E-09    7.646E-09    7.646E-09    7.644E-09    7.640E-09    7.635E-09    7.629E-09    7.620E-09
     7.610E-09    7.599E-09    7.586E-09    7.571E-09    7.554E-09    7.536E-09    7.516E-09    7.494E-09    7.471E-09    7.445E-09
     7.418E-09    7.390E-09    7.359E-09    7.327E-09    7.292E-09    7.256E-09    7.218E-09    7.179E-09    7.137E-09    7.093E-09
     7.048E-09    7.001E-09    6.951E-09    6.900E-09    6.846E-09    6.791E-09    6.734E-09    6.674E-09    6.613E-09    6.550E-09
     6.484E-09    6.417E-09    6.347E-09    6.275E-09    6.201E-09    6.125E-09    6.047E-09    5.967E-09    5.884E-09    5.800E-09
     5.713E-09    5.624E-09    5.533E-09    5.439E-09    5.344E-09    5.246E-09    5.146E-09    5.044E-09    4.939E-09    4.833E-09
     4.725E-09    4.615E-09    4.503E-09    4.389E-09    4.274E-09    4.157E-09    4.039E-09    3.919E-09    3.798E-09    3.676E-09
     3.553E-09    3.428E-09    3.303E-09    3.177E-09    3.050E-09    2.922E-09    2.793E-09    2.664E-09    2.535E-09    2.405E-09
     2.275E-09    2.144E-09    2.014E-09    1.883E-09    1.752E-09    1.622E-09    1.492E-09    1.362E-09    1.232E-09    1.103E-09
     9.748E-10    8.469E-10    7.197E-10    5.934E-10    4.680E-10    3.435E-10    2.201E-10    9.789E-11   -2.314E-11   -1.429E-10
    -2.612E-10   -3.781E-10   -4.934E-10   -6.071E-10   -7.191E-10   -8.293E-10   -9.377E-10   -1.044E-09   -1.149E-09   -1.251E-09
    -1.351E-09   -1.449E-09   -1.545E-09   -1.638E-09   -1.729E-09   -1.818E-09   -1.904E-09   -1.987E-09   -2.068E-09   -2.146E-09
    -2.221E-09   -2.293E-09   -2.363E-09   -2.429E-09   -2.493E-09   -2.553E-09   -2.611E-09   -2.665E-09   -2.716E-09   -2.764E-09
    -2.809E-09   -2.851E-09   -2.890E-09   -2.926E-09   -2.959E-09   -2.990E-09   -3.017E-09   -3.042E-09   -3.064E-09   -3.084E-09
    -3.101E-09   -3.116E-09   -3.129E-09   -3.139E-09   -3.147E-09   -3.152E-09   -3.156E-09   -3.157E-09   -3.157E-09   -3.154E-09
    -3.150E-09   -3.143E-09   -3.135E-09   -3.126E-09   -3.114E-09   -3.101E-09   -3.087E-09   -3.071E-09   -3.053E-09   -3.035E-09
    -3.015E-09   -2.993E-09   -2.971E-09   -2.947E-09   -2.923E-09   -2.897E-09   -2.870E-09   -2.843E-09   -2.815E-09   -2.785E-09
    -2.756E-09   -2.725E-09   -2.694E-09   -2.662E-09   -2.630E-09   -2.597E-09   -2.564E-09   -2.530E-09   -2.496E-09   -2.462E-09
    -2.428E-09   -2.393E-09   -2.358E-09   -2.323E-09   -2.288E-09   -2.253E-09   -2.218E-09   -2.183E-09   -2.148E-09   -2.113E-09
    -2.079E-09   -2.044E-09   -2.010E-09   -1.975E-09   -1.942E-09   -1.908E-09   -1.875E-09   -1.842E-09   -1.809E-09   -1.777E-09
    -1.745E-09   -1.714E-09   -1.682E-09   -1.652E-09   -1.621E-09   -1.592E-09   -1.562E-09   -1.533E-09   -1.504E-09   -1.475E-09
    -1.446E-09   -1.418E-09   -1.391E-09   -1.363E-09   -1.336E-09   -1.308E-09   -1.282E-09   -1.255E-09   -1.228E-09   -1.202E-09
    -1.176E-09   -1.150E-09   -1.124E-09   -1.099E-09   -1.073E-09   -1.048E-09   -1.023E-09   -9.977E-10   -9.728E-10   -9.480E-10
    -9.233E-10   -8.986E-10   -8.741E-10   -8.497E-10   -8.253E-10   -8.010E-10   -7.768E-10   -7.526E-10   -7.286E-10   -7.045E-10
    -6.805E-10   -6.566E-10   -6.327E-10   -6.089E-10   -5.851E-10   -5.613E-10   -5.376E-10   -5.140E-10   -4.903E-10   -4.667E-10
    -4.432E-10   -4.196E-10   -3.961E-10   -3.727E-10   -3.493E-10   -3.259E-10   -3.025E-10   -2.793E-10   -2.560E-10   -2.328E-10
    -2.097E-10   -1.866E-10   -1.636E-10   -1.406E-10   -1.177E-10   -9.492E-11   -7.218E-11   -4.954E-11   -2.698E-11   -4.526E-12
     1.783E-11    4.006E-11    6.218E-11
 Glc      Conc. = 8.20E-11
   8.06958E-10  9.77256E-10  1.14538E-09  1.31811E-09  1.49079E-09  1.66229E-09  1.82306E-09  1.97675E-09  2.11685E-09  2.23608E-09
   2.35199E-09  2.46673E-09  2.57897E-09  2.69639E-09  2.82738E-09  2.96838E-09  3.11559E-09  3.27088E-09  3.42744E-09  3.58098E-09
   3.73563E-09  3.88810E-09  4.03444E-09  4.17368E-09  4.29065E-09  4.37763E-09  4.45752E-09  4.54350E-09  4.63639E-09  4.73361E-09
   4.82804E-09  4.91896E-09  5.01115E-09  5.10062E-09  5.18327E-09  5.26521E-09  5.34768E-09  5.42661E-09  5.50267E-09  5.57842E-09
   5.65375E-09  5.72824E-09  5.80176E-09  5.87411E-09  5.94526E-09  6.01510E-09  6.08362E-09  6.15073E-09  6.21642E-09  6.28069E-09
   6.34348E-09  6.40482E-09  6.46465E-09  6.52301E-09  6.57989E-09  6.63524E-09  6.68910E-09  6.74152E-09  6.79235E-09  6.84174E-09
   6.88965E-09  6.93605E-09  6.98100E-09  7.02447E-09  7.06651E-09  7.10707E-09  7.14620E-09  7.18388E-09  7.22014E-09  7.25501E-09
   7.28846E-09  7.32051E-09  7.35123E-09  7.38055E-09  7.40852E-09  7.43513E-09  7.46036E-09  7.48423E-09  7.50670E-09  7.52780E-09
   7.54748E-09  7.56575E-09  7.58262E-09  7.59805E-09  7.61207E-09  7.62463E-09  7.63574E-09  7.64540E-09  7.65359E-09  7.66029E-09
   7.66549E-09  7.66921E-09  7.67138E-09  7.67206E-09  7.67118E-09  7.66874E-09  7.66475E-09  7.65918E-09  7.65201E-09  7.64325E-09
   7.63286E-09  7.62084E-09  7.60718E-09  7.59187E-09  7.57487E-09  7.55619E-09  7.53579E-09  7.51371E-09  7.48989E-09  7.46427E-09
   7.43696E-09  7.40784E-09  7.37691E-09  7.34418E-09  7.30962E-09  7.27323E-09  7.23500E-09  7.19489E-09  7.15288E-09  7.10903E-09
   7.06319E-09  7.01548E-09  6.96579E-09  6.91416E-09  6.86056E-09  6.80496E-09  6.74732E-09  6.68772E-09  6.62607E-09  6.56237E-09
   6.49662E-09  6.42878E-09  6.35888E-09  6.28687E-09  6.21276E-09  6.13648E-09  6.05814E-09  5.97761E-09  5.89494E-09  5.81007E-09
   5.72304E-09  5.63383E-09  5.54243E-09  5.44877E-09  5.35293E-09  5.25487E-09  5.15459E-09  5.05216E-09  4.94765E-09  4.84115E-09
   4.73271E-09  4.62242E-09  4.51035E-09  4.39658E-09  4.28119E-09  4.16426E-09  4.04588E-09  3.92611E-09  3.80508E-09  3.68286E-09
   3.55953E-09  3.43526E-09  3.31015E-09  3.18446E-09  3.05859E-09  2.93367E-09  2.81494E-09  2.71726E-09  2.62053E-09  2.51849E-09
   2.41194E-09  2.29945E-09  2.18021E-09  2.05612E-09  1.92892E-09  1.79370E-09  1.63840E-09  1.45635E-09  1.26919E-09  1.12428E-09
   9.89778E-10  8.58776E-10  7.29656E-10  6.01977E-10  4.75539E-10  3.50290E-10  2.26254E-10  1.03511E-10 -1.79778E-11 -1.38101E-10
  -2.56758E-10 -3.73950E-10 -4.89563E-10 -6.03544E-10 -7.15772E-10 -8.26222E-10 -9.34840E-10 -1.04148E-09 -1.14610E-09 -1.24867E-09
  -1.34909E-09 -1.44729E-09 -1.54318E-09 -1.63673E-09 -1.72789E-09 -1.81653E-09 -1.90264E-09 -1.98615E-09 -2.06701E-09 -2.14509E-09
  -2.22045E-09 -2.29295E-09 -2.36255E-09 -2.42921E-09 -2.49291E-09 -2.55354E-09 -2.61108E-09 -2.66552E-09 -2.71676E-09 -2.76487E-09
  -2.80989E-09 -2.85189E-09 -2.89092E-09 -2.92703E-09 -2.96027E-09 -2.99073E-09 -3.01845E-09 -3.04348E-09 -3.06589E-09 -3.08573E-09
  -3.10308E-09 -3.11798E-09 -3.13050E-09 -3.14070E-09 -3.14864E-09 -3.15438E-09 -3.15799E-09 -3.15951E-09 -3.15902E-09 -3.15658E-09
  -3.15223E-09 -3.14607E-09 -3.13813E-09 -3.12847E-09 -3.11716E-09 -3.10427E-09 -3.08984E-09 -3.07394E-09 -3.05664E-09 -3.03797E-09
  -3.01802E-09 -2.99682E-09 -2.97447E-09 -2.95097E-09 -2.92641E-09 -2.90086E-09 -2.87435E-09 -2.84694E-09 -2.81869E-09 -2.78964E-09
  -2.75986E-09 -2.72941E-09 -2.69832E-09 -2.66665E-09 -2.63444E-09 -2.60176E-09 -2.56865E-09 -2.53514E-09 -2.50129E-09 -2.46716E-09
  -2.43277E-09 -2.39816E-09 -2.36341E-09 -2.32852E-09 -2.29356E-09 -2.25854E-09 -2.22352E-09 -2.18854E-09 -2.15362E-09 -2.11880E-09
  -2.08412E-09 -2.04960E-09 -2.01529E-09 -1.98120E-09 -1.94736E-09 -1.91381E-09 -1.88057E-09 -1.84764E-09 -1.81508E-09 -1.78289E-09
  -1.75109E-09 -1.71970E-09 -1.68870E-09 -1.65807E-09 -1.62780E-09 -1.59789E-09 -1.56831E-09 -1.53905E-09 -1.51011E-09 -1.48147E-09
  -1.45312E-09 -1.42504E-09 -1.39724E-09 -1.36968E-09 -1.34237E-09 -1.31530E-09 -1.28845E-09 -1.26181E-09 -1.23538E-09 -1.20913E-09
  -1.18308E-09 -1.15719E-09 -1.13148E-09 -1.10592E-09 -1.08050E-09 -1.05523E-09 -1.03009E-09 -1.00508E-09 -9.80181E-10 -9.55396E-10
  -9.30715E-10 -9.06127E-10 -8.81634E-10 -8.57227E-10 -8.32898E-10 -8.08642E-10 -7.84460E-10 -7.60341E-10 -7.36285E-10 -7.12283E-10
  -6.88337E-10 -6.64440E-10 -6.40590E-10 -6.16783E-10 -5.93021E-10 -5.69299E-10 -5.45616E-10 -5.21969E-10 -4.98361E-10 -4.74785E-10
  -4.51248E-10 -4.27745E-10 -4.04280E-10 -3.80852E-10 -3.57459E-10 -3.34110E-10 -3.10800E-10 -2.87536E-10 -2.64317E-10 -2.41148E-10
  -2.18032E-10 -1.94971E-10 -1.71971E-10 -1.49036E-10 -1.26170E-10 -1.03378E-10 -8.06663E-11 -5.80396E-11 -3.55046E-11 -1.30676E-11
   9.26468E-12  3.14850E-11  5.35863E-11
 Gln      Conc. = 4.03E-10
   5.53810E-10  7.25724E-10  9.20430E-10  1.13830E-09  1.37191E-09  1.61447E-09  1.85418E-09  2.07500E-09  2.27021E-09  2.47215E-09
   2.61859E-09  2.72880E-09  2.84850E-09  2.92479E-09  3.00755E-09  3.09900E-09  3.19572E-09  3.29546E-09  3.39687E-09  3.49907E-09
   3.60143E-09  3.70353E-09  3.80502E-09  3.90569E-09  4.00540E-09  4.10408E-09  4.20149E-09  4.29761E-09  4.39236E-09  4.48561E-09
   4.57732E-09  4.66742E-09  4.75584E-09  4.84257E-09  4.92754E-09  5.01073E-09  5.09205E-09  5.17149E-09  5.24900E-09  5.32450E-09
   5.39796E-09  5.46930E-09  5.53850E-09  5.60545E-09  5.67007E-09  5.73225E-09  5.79188E-09  5.84863E-09  5.90249E-09  5.95337E-09
   6.00068E-09  6.04435E-09  6.08469E-09  6.12430E-09  6.18466E-09  6.28052E-09  6.37345E-09  6.49402E-09  6.66355E-09  6.84696E-09
   7.02792E-09  7.22116E-09  7.41156E-09  7.57122E-09  7.67287E-09  7.70827E-09  7.72635E-09  7.73782E-09  7.65037E-09  7.55163E-09
   7.49741E-09  7.46846E-09  7.45390E-09  7.46178E-09  7.51522E-09  7.61280E-09  7.72106E-09  7.84436E-09  7.97824E-09  8.11162E-09
   8.23686E-09  8.32907E-09  8.36333E-09  8.39160E-09  8.40050E-09  8.33500E-09  8.27550E-09  8.23254E-09  8.16534E-09  8.10890E-09
   8.06602E-09  8.03181E-09  8.00334E-09  7.97849E-09  7.95558E-09  7.93405E-09  7.91338E-09  7.89300E-09  7.87265E-09  7.85210E-09
   7.83105E-09  7.80927E-09  7.78664E-09  7.76309E-09  7.73850E-09  7.71280E-09  7.68588E-09  7.65771E-09  7.62819E-09  7.59723E-09
   7.56490E-09  7.53104E-09  7.49564E-09  7.45868E-09  7.42012E-09  7.37992E-09  7.33807E-09  7.29452E-09  7.24922E-09  7.20223E-09
   7.15339E-09  7.10280E-09  7.05036E-09  6.99608E-09  6.93995E-09  6.88190E-09  6.82191E-09  6.76005E-09  6.69622E-09  6.63041E-09
   6.56263E-09  6.49281E-09  6.42101E-09  6.34717E-09  6.27127E-09  6.19326E-09  6.11324E-09  6.03109E-09  5.94684E-09  5.86043E-09
   5.77192E-09  5.68125E-09  5.58844E-09  5.49342E-09  5.39625E-09  5.29690E-09  5.19536E-09  5.09171E-09  4.98603E-09  4.87838E-09
   4.76883E-09  4.65748E-09  4.54439E-09  4.42965E-09  4.31334E-09  4.19556E-09  4.07641E-09  3.95597E-09  3.83440E-09  3.71182E-09
   3.58839E-09  3.46443E-09  3.34029E-09  3.21676E-09  3.09552E-09  2.98165E-09  2.89917E-09  2.92347E-09  2.95555E-09  2.96302E-09
   2.94954E-09  2.90776E-09  2.83312E-09  2.73461E-09  2.62083E-09  2.46808E-09  2.21689E-09  1.83195E-09  1.41507E-09  1.20585E-09
   1.04735E-09  9.03859E-10  7.67000E-10  6.33989E-10  5.03601E-10  3.75271E-10  2.48735E-10  1.23900E-10  6.16122E-13 -1.21078E-10
  -2.41134E-10 -3.59587E-10 -4.76351E-10 -5.91394E-10 -7.04609E-10 -8.15982E-10 -9.25471E-10 -1.03293E-09 -1.13834E-09 -1.24166E-09
  -1.34279E-09 -1.44168E-09 -1.53824E-09 -1.63243E-09 -1.72421E-09 -1.81345E-09 -1.90014E-09 -1.98422E-09 -2.06563E-09 -2.14426E-09
  -2.22014E-09 -2.29315E-09 -2.36326E-09 -2.43042E-09 -2.49460E-09 -2.55570E-09 -2.61371E-09 -2.66860E-09 -2.72028E-09 -2.76884E-09
  -2.81429E-09 -2.85672E-09 -2.89615E-09 -2.93268E-09 -2.96633E-09 -2.99718E-09 -3.02529E-09 -3.05071E-09 -3.07350E-09 -3.09371E-09
