 LCModel (Version 6.3-1R) Copyright: S.W. Provencher.          Ref.: Magn. Reson. Med. 30:672-679 (1993).                
 onepulse 15x22_ftSpec_smooth_lcm
 26 lines in following concentration table = NCONC+1
    Conc.  %SD /Cr+PCr  Metabolite                                         
    0.000 999%   0.000 Ala                                                 
    0.000 999%   0.000 Asp                                                 
    0.000 999%   0.000 Cr                                                  
    0.000 999%   0.000 GABA                                                
 1.15E-10 925%   0.571 Glc                                                 
 2.18E-09  28%  10.861 Gln                                                 
    0.000 999%   0.000 Glu                                                 
    0.000 999%   0.000 Glyc                                                
 1.52E-10  93%   0.755 GPC                                                 
    0.000 999%   0.000 GSH                                                 
 1.23E-09  42%   6.120 Ins                                                 
    0.000 999%   0.000 Lac                                                 
 2.77E-10 127%   1.377 NAAG                                                
 1.11E-10 431%   0.553 NAA                                                 
    0.000 999%   0.000 PCh                                                 
 2.01E-10 135%   1.000 PCr                                                 
    0.000 999%   0.000 PE                                                  
 1.12E-10 272%   0.556 Scyllo                                              
 3.52E-09  27%  17.499 Ser                                                 
 5.38E-10 205%   2.677 Tau                                                 
 1.52E-10  93%   0.755 GPC+PCh                                             
 3.88E-10  77%   1.930 NAA+NAAG                                            
 1.23E-09  42%   6.120 Ins+Glyc                                            
 2.01E-10 135%   1.000 Cr+PCr                                              
 2.18E-09  28%  10.861 Glu+Gln                                             
   6 lines in following misc. output table
  FWHM = 0.101 ppm    S/N =   3                                            
  Data shift = 0.380 ppm                                                   
  Ph: -55 deg     -42.2 deg/ppm                                            
  alphaB,S = 7.4E-01,   4.1E+01                                            
    8 spline knots.   Ns = 5(1)                                            
  (10) 4 infls.   ( 9) 1 extrs.                                            
  363 points on ppm-axis = NY
      4.250000     4.238821     4.227641     4.216462     4.205282     4.194103     4.182923     4.171744     4.160564     4.149385
      4.138206     4.127026     4.115847     4.104667     4.093488     4.082308     4.071129     4.059949     4.048770     4.037591
      4.026411     4.015232     4.004052     3.992873     3.981693     3.970514     3.959334     3.948155     3.936975     3.925796
      3.914617     3.903437     3.892258     3.881078     3.869899     3.858719     3.847540     3.836360     3.825181     3.814002
      3.802822     3.791643     3.780463     3.769284     3.758104     3.746925     3.735745     3.724566     3.713387     3.702207
      3.691028     3.679848     3.668669     3.657489     3.646310     3.635130     3.623951     3.612772     3.601592     3.590413
      3.579233     3.568054     3.556874     3.545695     3.534515     3.523336     3.512156     3.500977     3.489798     3.478618
      3.467439     3.456259     3.445080     3.433900     3.422721     3.411541     3.400362     3.389183     3.378003     3.366824
      3.355644     3.344465     3.333285     3.322106     3.310926     3.299747     3.288568     3.277388     3.266209     3.255029
      3.243850     3.232670     3.221491     3.210311     3.199132     3.187953     3.176773     3.165594     3.154414     3.143235
      3.132055     3.120876     3.109696     3.098517     3.087337     3.076158     3.064979     3.053799     3.042620     3.031440
      3.020261     3.009081     2.997902     2.986722     2.975543     2.964364     2.953184     2.942005     2.930825     2.919646
      2.908466     2.897287     2.886107     2.874928     2.863749     2.852569     2.841390     2.830210     2.819031     2.807851
      2.796672     2.785492     2.774313     2.763134     2.751954     2.740775     2.729595     2.718416     2.707236     2.696057
      2.684877     2.673698     2.662519     2.651339     2.640160     2.628980     2.617801     2.606621     2.595442     2.584262
      2.573083     2.561903     2.550724     2.539545     2.528365     2.517186     2.506006     2.494827     2.483647     2.472468
      2.461288     2.450109     2.438930     2.427750     2.416571     2.405391     2.394212     2.383032     2.371853     2.360673
      2.349494     2.338315     2.327135     2.315956     2.304776     2.293597     2.282417     2.271238     2.260058     2.248879
      2.237700     2.226520     2.215341     2.204161     2.192982     2.181802     2.170623     2.159443     2.148264     2.137084
      2.125905     2.114726     2.103546     2.092367     2.081187     2.070008     2.058828     2.047649     2.036469     2.025290
      2.014111     2.002931     1.991752     1.980572     1.969393     1.958213     1.947034     1.935854     1.924675     1.913496
      1.902316     1.891137     1.879957     1.868778     1.857598     1.846419     1.835239     1.824060     1.812881     1.801701
      1.790522     1.779342     1.768163     1.756983     1.745804     1.734624     1.723445     1.712265     1.701086     1.689907
      1.678727     1.667548     1.656368     1.645189     1.634009     1.622830     1.611650     1.600471     1.589292     1.578112
      1.566933     1.555753     1.544574     1.533394     1.522215     1.511035     1.499856     1.488677     1.477497     1.466318
      1.455138     1.443959     1.432779     1.421600     1.410420     1.399241     1.388062     1.376882     1.365703     1.354523
      1.343344     1.332164     1.320985     1.309805     1.298626     1.287446     1.276267     1.265088     1.253908     1.242729
      1.231549     1.220370     1.209190     1.198011     1.186831     1.175652     1.164473     1.153293     1.142114     1.130934
      1.119755     1.108575     1.097396     1.086216     1.075037     1.063858     1.052678     1.041499     1.030319     1.019140
      1.007960     0.996781     0.985601     0.974422     0.963243     0.952063     0.940884     0.929704     0.918525     0.907345
      0.896166     0.884986     0.873807     0.862628     0.851448     0.840269     0.829089     0.817910     0.806730     0.795551
      0.784371     0.773192     0.762012     0.750833     0.739654     0.728474     0.717295     0.706115     0.694936     0.683756
      0.672577     0.661397     0.650218     0.639039     0.627859     0.616680     0.605500     0.594321     0.583141     0.571962
      0.560782     0.549603     0.538424     0.527244     0.516065     0.504885     0.493706     0.482526     0.471347     0.460167
      0.448988     0.437809     0.426629     0.415450     0.404270     0.393091     0.381911     0.370732     0.359552     0.348373
      0.337193     0.326014     0.314835     0.303655     0.292476     0.281296     0.270117     0.258937     0.247758     0.236578
      0.225399     0.214220     0.203040
 NY phased data points follow
   1.39507E-08  1.41309E-08  1.27020E-08  1.20668E-08  1.15051E-08  1.15355E-08  1.05425E-08  1.09757E-08  1.06034E-08  1.13093E-08
   1.07370E-08  1.16353E-08  1.15917E-08  1.21854E-08  1.14156E-08  1.26329E-08  1.10363E-08  1.14027E-08  1.09031E-08  1.10867E-08
   1.04787E-08  1.09464E-08  1.06573E-08  1.21098E-08  1.05660E-08  1.21356E-08  1.08030E-08  1.07129E-08  1.03480E-08  1.22837E-08
   1.23468E-08  1.35024E-08  1.37259E-08  1.26034E-08  1.20425E-08  1.14019E-08  9.92059E-09  1.03162E-08  9.31596E-09  1.00399E-08
   8.68349E-09  9.11225E-09  8.92795E-09  8.39960E-09  7.79090E-09  7.39970E-09  6.68354E-09  7.62784E-09  6.97098E-09  7.08353E-09
   6.85354E-09  7.26433E-09  6.54085E-09  6.81069E-09  6.28781E-09  6.30486E-09  5.79278E-09  6.69389E-09  6.00753E-09  7.38281E-09
   8.45424E-09  1.14436E-08  1.13468E-08  1.19967E-08  1.10200E-08  1.15466E-08  9.87768E-09  9.37622E-09  8.21521E-09  7.72169E-09
   7.14373E-09  7.36429E-09  5.97384E-09  6.00987E-09  6.44665E-09  7.10056E-09  7.89776E-09  1.04631E-08  1.25915E-08  1.41693E-08
   1.45405E-08  1.36401E-08  1.28619E-08  1.23140E-08  1.19617E-08  1.18117E-08  1.06620E-08  1.08683E-08  1.05607E-08  1.06048E-08
   1.01463E-08  9.85150E-09  8.40490E-09  9.09369E-09  8.37453E-09  8.48157E-09  7.22472E-09  7.47048E-09  8.05693E-09  7.16013E-09
   7.11434E-09  7.69510E-09  6.55901E-09  7.22006E-09  6.36628E-09  6.85526E-09  5.42678E-09  5.80326E-09  5.12523E-09  4.49475E-09
   4.47379E-09  4.70804E-09  5.13557E-09  5.50946E-09  4.95324E-09  5.89932E-09  5.34663E-09  5.25539E-09  5.59894E-09  6.07389E-09
   5.19190E-09  5.27021E-09  4.53318E-09  4.43084E-09  3.49762E-09  3.71855E-09  4.28427E-09  4.06373E-09  3.53007E-09  4.18405E-09
   3.65622E-09  4.68229E-09  3.66991E-09  3.67940E-09  3.88408E-09  3.70390E-09  3.86828E-09  4.15069E-09  5.03339E-09  5.59423E-09
   5.51164E-09  5.53932E-09  5.45882E-09  6.19009E-09  6.15363E-09  6.52794E-09  6.41727E-09  6.80014E-09  6.18781E-09  6.58740E-09
   6.81431E-09  6.51256E-09  5.98870E-09  6.00451E-09  6.19859E-09  6.29216E-09  6.13244E-09  6.42200E-09  6.61023E-09  6.84900E-09
   6.12320E-09  5.97651E-09  5.87345E-09  6.06699E-09  5.78634E-09  6.88811E-09  8.15245E-09  1.01613E-08  1.22236E-08  1.59276E-08
   1.72310E-08  1.75960E-08  1.62814E-08  1.58762E-08  1.46460E-08  1.44953E-08  1.25957E-08  1.29811E-08  1.20696E-08  1.24567E-08
   1.06569E-08  1.06109E-08  9.79584E-09  8.97265E-09  8.01263E-09  7.35726E-09  5.70236E-09  5.07097E-09  3.36199E-09  1.83849E-09
   5.05682E-10 -1.69036E-09 -3.50293E-09 -5.23498E-09 -7.85310E-09 -9.45579E-09 -1.12624E-08 -1.22761E-08 -1.43924E-08 -1.44485E-08
  -1.51011E-08 -1.56495E-08 -1.58860E-08 -1.42874E-08 -1.42580E-08 -1.24108E-08 -1.09558E-08 -9.74966E-09 -8.40054E-09 -6.32710E-09
  -5.32716E-09 -3.50737E-09 -2.57880E-09 -1.68549E-09 -2.54876E-09 -1.66503E-09 -1.94430E-09 -1.61008E-09 -2.17929E-09 -1.97294E-09
  -2.58986E-09 -2.21611E-09 -1.92574E-09 -1.80111E-09 -1.09174E-09 -1.49561E-09 -9.13630E-10 -6.44781E-10 -1.88465E-09 -1.54941E-09
  -2.08450E-09 -1.92825E-09 -2.14708E-09 -1.19118E-09 -1.27907E-09 -9.91388E-10 -6.25742E-10 -1.26895E-09 -6.04042E-10 -9.25584E-10
  -1.47595E-09 -1.65969E-09 -1.30076E-09 -1.20671E-09 -2.01896E-09 -1.44279E-09 -1.53434E-09 -6.64285E-10 -8.35598E-10 -7.64331E-10
  -2.66082E-10  1.48659E-10 -8.99644E-10  8.35880E-11 -7.24868E-10 -8.91750E-10 -6.94746E-10 -8.63769E-10 -1.46363E-09 -1.04185E-09
  -1.47167E-09 -1.87458E-09 -1.76876E-09 -1.36316E-09 -1.51017E-09 -1.20485E-09 -1.02336E-09 -1.08755E-09 -6.23194E-10 -7.90641E-10
  -7.41316E-10  1.62114E-10 -3.59206E-10  2.76286E-10 -8.04596E-11 -1.58377E-10 -1.58832E-11 -5.01829E-11 -1.20706E-10  9.30042E-11
  -5.97061E-10 -5.20902E-10 -7.96265E-10  7.26269E-11 -5.09628E-10 -7.01641E-10 -7.11623E-10 -4.77228E-10 -8.18979E-10 -1.04544E-09
  -7.76540E-10 -1.30214E-09 -9.25776E-10 -8.99437E-10 -1.02601E-09 -1.41032E-09 -1.12499E-09 -1.25674E-09 -1.90453E-09 -9.72015E-10
  -1.45621E-09 -1.56908E-09 -1.72590E-09 -1.14339E-09 -1.67046E-09 -1.20580E-09 -1.76900E-09 -9.06349E-10 -1.37544E-09 -1.50100E-09
  -1.68523E-09 -1.18120E-09 -1.59741E-09 -1.14828E-09 -2.11969E-09 -1.50181E-09 -1.16354E-09 -1.84716E-09 -1.24843E-09 -1.24505E-09
  -1.57640E-09 -1.63202E-09 -1.08034E-09 -9.42059E-10 -1.47379E-09 -1.42883E-09 -1.40283E-09 -1.28651E-09 -1.24674E-09 -1.50996E-09
  -1.26114E-09 -1.60260E-09 -1.48702E-09 -9.73503E-10 -1.30760E-09 -9.51195E-10 -1.07876E-09 -8.61101E-10 -1.61134E-09 -6.81199E-10
  -1.20475E-09 -1.20350E-09 -9.21399E-10 -8.32811E-10 -7.06998E-10 -9.11668E-10 -1.22405E-09 -1.16113E-09 -6.76381E-10 -9.81401E-10
  -8.41378E-10 -8.33340E-10 -9.29014E-10 -1.13588E-09 -9.30728E-10 -7.13517E-10 -8.39511E-10 -9.62950E-10 -8.73992E-10 -7.68066E-10
   3.46789E-12 -5.21438E-10 -5.82379E-10
 NY points of the fit to the data follow
   1.31933E-08  1.34038E-08  1.28290E-08  1.22788E-08  1.22097E-08  1.22189E-08  1.17847E-08  1.10098E-08  1.04426E-08  1.04230E-08
   1.06763E-08  1.09538E-08  1.12898E-08  1.15403E-08  1.18004E-08  1.18739E-08  1.18473E-08  1.19483E-08  1.18968E-08  1.13205E-08
   1.07216E-08  1.03357E-08  1.00942E-08  1.00274E-08  1.03465E-08  1.09578E-08  1.16829E-08  1.22137E-08  1.24550E-08  1.24456E-08
   1.24807E-08  1.24414E-08  1.24068E-08  1.21607E-08  1.16215E-08  1.09180E-08  1.03650E-08  9.94704E-09  9.63848E-09  9.41062E-09
   9.21090E-09  8.95155E-09  8.55267E-09  8.09344E-09  7.78498E-09  7.53434E-09  7.31226E-09  7.11091E-09  6.92992E-09  6.77413E-09
   6.62959E-09  6.49407E-09  6.36291E-09  6.24525E-09  6.27984E-09  6.60443E-09  6.96765E-09  7.43280E-09  8.13666E-09  8.88658E-09
   9.51002E-09  1.00620E-08  1.04906E-08  1.07323E-08  1.07069E-08  1.04046E-08  1.00089E-08  9.59107E-09  8.89872E-09  8.25476E-09
   7.85623E-09  7.67414E-09  7.67046E-09  7.78218E-09  8.04573E-09  8.54933E-09  9.34478E-09  1.03790E-08  1.14582E-08  1.23580E-08
   1.29807E-08  1.32751E-08  1.32355E-08  1.31613E-08  1.30062E-08  1.24543E-08  1.16549E-08  1.07777E-08  1.00029E-08  9.43782E-09
   9.03596E-09  8.72429E-09  8.46923E-09  8.25288E-09  8.06125E-09  7.89106E-09  7.74116E-09  7.60552E-09  7.47774E-09  7.35540E-09
   7.24542E-09  7.14655E-09  7.05198E-09  6.96001E-09  6.87350E-09  6.79179E-09  6.71392E-09  6.63926E-09  6.56711E-09  6.49712E-09
   6.42904E-09  6.36252E-09  6.29731E-09  6.23319E-09  6.16994E-09  6.10740E-09  6.04539E-09  5.98376E-09  5.92237E-09  5.86114E-09
   5.79987E-09  5.73854E-09  5.67700E-09  5.61518E-09  5.55300E-09  5.49036E-09  5.42717E-09  5.36343E-09  5.29900E-09  5.23386E-09
   5.16793E-09  5.10115E-09  5.03349E-09  4.96489E-09  4.89529E-09  4.82463E-09  4.75293E-09  4.68009E-09  4.60610E-09  4.53090E-09
   4.45450E-09  4.37685E-09  4.29793E-09  4.21771E-09  4.13621E-09  4.05340E-09  3.96931E-09  3.88403E-09  3.79768E-09  3.71037E-09
   3.62226E-09  3.53352E-09  3.44436E-09  3.35506E-09  3.26596E-09  3.17750E-09  3.09029E-09  3.00517E-09  2.92336E-09  2.84668E-09
   2.77801E-09  2.72218E-09  2.68790E-09  2.69258E-09  2.77654E-09  3.05753E-09  4.04722E-09  7.75412E-09  1.22273E-08  1.57839E-08
   1.77653E-08  1.83233E-08  1.80540E-08  1.75331E-08  1.68675E-08  1.55855E-08  1.28909E-08  8.48820E-09  3.80272E-09  2.16608E-09
   1.52702E-09  1.15824E-09  8.98196E-10  6.92870E-10  5.19113E-10  3.65388E-10  2.25324E-10  9.51417E-11 -2.75941E-11 -1.44427E-10
  -2.56401E-10 -3.64288E-10 -4.68588E-10 -5.69684E-10 -6.67819E-10 -7.63209E-10 -8.56003E-10 -9.46259E-10 -1.03406E-09 -1.11947E-09
  -1.20250E-09 -1.28316E-09 -1.36144E-09 -1.43734E-09 -1.51085E-09 -1.58193E-09 -1.65057E-09 -1.71673E-09 -1.78040E-09 -1.84149E-09
  -1.90004E-09 -1.95596E-09 -2.00921E-09 -2.05978E-09 -2.10763E-09 -2.15269E-09 -2.19493E-09 -2.23434E-09 -2.27085E-09 -2.30452E-09
  -2.33540E-09 -2.36357E-09 -2.38908E-09 -2.41201E-09 -2.43241E-09 -2.45036E-09 -2.46591E-09 -2.47913E-09 -2.49009E-09 -2.49884E-09
  -2.50545E-09 -2.50999E-09 -2.51251E-09 -2.51309E-09 -2.51178E-09 -2.50865E-09 -2.50376E-09 -2.49717E-09 -2.48895E-09 -2.47916E-09
  -2.46785E-09 -2.45510E-09 -2.44096E-09 -2.42549E-09 -2.40875E-09 -2.39081E-09 -2.37172E-09 -2.35155E-09 -2.33036E-09 -2.30819E-09
  -2.28512E-09 -2.26119E-09 -2.23649E-09 -2.21103E-09 -2.18489E-09 -2.15815E-09 -2.13083E-09 -2.10300E-09 -2.07471E-09 -2.04601E-09
  -2.01697E-09 -1.98763E-09 -1.95805E-09 -1.92828E-09 -1.89836E-09 -1.86834E-09 -1.83830E-09 -1.80824E-09 -1.77825E-09 -1.74835E-09
  -1.71860E-09 -1.68904E-09 -1.65972E-09 -1.63067E-09 -1.60196E-09 -1.57360E-09 -1.54565E-09 -1.51815E-09 -1.49113E-09 -1.46463E-09
  -1.43870E-09 -1.41337E-09 -1.38868E-09 -1.36464E-09 -1.34131E-09 -1.31871E-09 -1.29688E-09 -1.27583E-09 -1.25561E-09 -1.23625E-09
  -1.21775E-09 -1.20015E-09 -1.18339E-09 -1.16747E-09 -1.15235E-09 -1.13800E-09 -1.12441E-09 -1.11153E-09 -1.09936E-09 -1.08786E-09
  -1.07700E-09 -1.06677E-09 -1.05714E-09 -1.04807E-09 -1.03956E-09 -1.03156E-09 -1.02407E-09 -1.01706E-09 -1.01050E-09 -1.00437E-09
  -9.98651E-10 -9.93314E-10 -9.88347E-10 -9.83717E-10 -9.79412E-10 -9.75406E-10 -9.71682E-10 -9.68215E-10 -9.64990E-10 -9.61987E-10
  -9.59188E-10 -9.56564E-10 -9.54112E-10 -9.51807E-10 -9.49630E-10 -9.47562E-10 -9.45598E-10 -9.43711E-10 -9.41893E-10 -9.40119E-10
  -9.38384E-10 -9.36668E-10 -9.34956E-10 -9.33237E-10 -9.31502E-10 -9.29733E-10 -9.27921E-10 -9.26051E-10 -9.24119E-10 -9.22100E-10
  -9.20004E-10 -9.17804E-10 -9.15504E-10 -9.13089E-10 -9.10543E-10 -9.07879E-10 -9.05072E-10 -9.02126E-10 -8.99027E-10 -8.95777E-10
  -8.92368E-10 -8.88793E-10 -8.85053E-10 -8.81141E-10 -8.77059E-10 -8.72798E-10 -8.68367E-10 -8.63755E-10 -8.58965E-10 -8.54000E-10
  -8.48855E-10 -8.43537E-10 -8.38048E-10
 NY background values follow
     3.527E-09    3.567E-09    3.607E-09    3.646E-09    3.685E-09    3.722E-09    3.759E-09    3.795E-09    3.831E-09    3.866E-09
     3.900E-09    3.934E-09    3.967E-09    3.999E-09    4.030E-09    4.061E-09    4.091E-09    4.121E-09    4.149E-09    4.178E-09
     4.205E-09    4.232E-09    4.258E-09    4.284E-09    4.308E-09    4.333E-09    4.356E-09    4.379E-09    4.401E-09    4.423E-09
     4.444E-09    4.465E-09    4.485E-09    4.504E-09    4.523E-09    4.541E-09    4.558E-09    4.575E-09    4.592E-09    4.608E-09
     4.623E-09    4.638E-09    4.652E-09    4.666E-09    4.679E-09    4.692E-09    4.704E-09    4.716E-09    4.727E-09    4.738E-09
     4.749E-09    4.759E-09    4.768E-09    4.777E-09    4.786E-09    4.794E-09    4.802E-09    4.810E-09    4.817E-09    4.824E-09
     4.830E-09    4.836E-09    4.842E-09    4.847E-09    4.853E-09    4.857E-09    4.862E-09    4.866E-09    4.870E-09    4.874E-09
     4.878E-09    4.881E-09    4.884E-09    4.887E-09    4.890E-09    4.892E-09    4.895E-09    4.897E-09    4.899E-09    4.900E-09
     4.901E-09    4.902E-09    4.903E-09    4.903E-09    4.903E-09    4.903E-09    4.902E-09    4.900E-09    4.899E-09    4.896E-09
     4.894E-09    4.891E-09    4.887E-09    4.883E-09    4.878E-09    4.872E-09    4.866E-09    4.860E-09    4.852E-09    4.844E-09
     4.835E-09    4.826E-09    4.816E-09    4.805E-09    4.793E-09    4.780E-09    4.767E-09    4.753E-09    4.737E-09    4.721E-09
     4.704E-09    4.686E-09    4.667E-09    4.647E-09    4.625E-09    4.603E-09    4.580E-09    4.555E-09    4.529E-09    4.502E-09
     4.474E-09    4.445E-09    4.414E-09    4.382E-09    4.349E-09    4.314E-09    4.278E-09    4.241E-09    4.202E-09    4.162E-09
     4.120E-09    4.077E-09    4.032E-09    3.985E-09    3.938E-09    3.888E-09    3.837E-09    3.784E-09    3.729E-09    3.673E-09
     3.615E-09    3.555E-09    3.494E-09    3.430E-09    3.365E-09    3.298E-09    3.229E-09    3.158E-09    3.086E-09    3.011E-09
     2.936E-09    2.858E-09    2.779E-09    2.699E-09    2.617E-09    2.534E-09    2.450E-09    2.365E-09    2.278E-09    2.191E-09
     2.102E-09    2.013E-09    1.923E-09    1.832E-09    1.740E-09    1.648E-09    1.555E-09    1.462E-09    1.368E-09    1.274E-09
     1.179E-09    1.085E-09    9.900E-10    8.952E-10    8.004E-10    7.056E-10    6.110E-10    5.167E-10    4.226E-10    3.288E-10
     2.355E-10    1.427E-10    5.045E-11   -4.117E-11   -1.321E-10   -2.222E-10   -3.115E-10   -3.999E-10   -4.873E-10   -5.737E-10
    -6.589E-10   -7.430E-10   -8.258E-10   -9.073E-10   -9.874E-10   -1.066E-09   -1.143E-09   -1.219E-09   -1.293E-09   -1.365E-09
    -1.435E-09   -1.504E-09   -1.571E-09   -1.636E-09   -1.698E-09   -1.759E-09   -1.818E-09   -1.874E-09   -1.928E-09   -1.980E-09
    -2.030E-09   -2.077E-09   -2.122E-09   -2.164E-09   -2.203E-09   -2.240E-09   -2.275E-09   -2.306E-09   -2.335E-09   -2.362E-09
    -2.385E-09   -2.406E-09   -2.424E-09   -2.440E-09   -2.454E-09   -2.465E-09   -2.474E-09   -2.480E-09   -2.485E-09   -2.487E-09
    -2.487E-09   -2.486E-09   -2.482E-09   -2.476E-09   -2.469E-09   -2.460E-09   -2.449E-09   -2.437E-09   -2.423E-09   -2.407E-09
    -2.390E-09   -2.372E-09   -2.353E-09   -2.332E-09   -2.310E-09   -2.286E-09   -2.262E-09   -2.237E-09   -2.210E-09   -2.183E-09
    -2.155E-09   -2.126E-09   -2.096E-09   -2.066E-09   -2.035E-09   -2.003E-09   -1.971E-09   -1.939E-09   -1.906E-09   -1.872E-09
    -1.839E-09   -1.805E-09   -1.771E-09   -1.737E-09   -1.702E-09   -1.668E-09   -1.634E-09   -1.599E-09   -1.565E-09   -1.531E-09
    -1.497E-09   -1.463E-09   -1.430E-09   -1.397E-09   -1.364E-09   -1.332E-09   -1.300E-09   -1.268E-09   -1.237E-09   -1.207E-09
    -1.177E-09   -1.148E-09   -1.120E-09   -1.092E-09   -1.065E-09   -1.039E-09   -1.013E-09   -9.886E-10   -9.648E-10   -9.419E-10
    -9.199E-10   -8.989E-10   -8.787E-10   -8.593E-10   -8.408E-10   -8.231E-10   -8.062E-10   -7.900E-10   -7.746E-10   -7.598E-10
    -7.458E-10   -7.323E-10   -7.195E-10   -7.073E-10   -6.957E-10   -6.846E-10   -6.741E-10   -6.641E-10   -6.545E-10   -6.454E-10
    -6.367E-10   -6.284E-10   -6.206E-10   -6.130E-10   -6.059E-10   -5.990E-10   -5.925E-10   -5.863E-10   -5.803E-10   -5.745E-10
    -5.690E-10   -5.637E-10   -5.586E-10   -5.536E-10   -5.488E-10   -5.441E-10   -5.396E-10   -5.352E-10   -5.308E-10   -5.265E-10
    -5.223E-10   -5.181E-10   -5.139E-10   -5.098E-10   -5.057E-10   -5.015E-10   -4.973E-10   -4.931E-10   -4.889E-10   -4.845E-10
    -4.802E-10   -4.757E-10   -4.712E-10   -4.665E-10   -4.618E-10   -4.569E-10   -4.520E-10   -4.469E-10   -4.417E-10   -4.363E-10
    -4.308E-10   -4.252E-10   -4.194E-10   -4.135E-10   -4.074E-10   -4.011E-10   -3.947E-10   -3.882E-10   -3.815E-10   -3.746E-10
    -3.675E-10   -3.603E-10   -3.530E-10
 Glc      Conc. = 1.15E-10
   3.48292E-09  3.56639E-09  3.64375E-09  3.71797E-09  3.78464E-09  3.84534E-09  3.89266E-09  3.93176E-09  3.95494E-09  3.96311E-09
   3.97367E-09  3.98850E-09  4.00667E-09  4.03744E-09  4.09437E-09  4.17305E-09  4.26305E-09  4.35495E-09  4.43393E-09  4.49846E-09
   4.55779E-09  4.61139E-09  4.65397E-09  4.68493E-09  4.69218E-09  4.67630E-09  4.66506E-09  4.66541E-09  4.67482E-09  4.68853E-09
   4.69931E-09  4.70788E-09  4.71803E-09  4.72547E-09  4.72822E-09  4.73329E-09  4.73972E-09  4.74386E-09  4.74780E-09  4.75341E-09
   4.76016E-09  4.76751E-09  4.77524E-09  4.78315E-09  4.79115E-09  4.79913E-09  4.80704E-09  4.81481E-09  4.82242E-09  4.82985E-09
   4.83704E-09  4.84402E-09  4.85074E-09  4.85721E-09  4.86343E-09  4.86937E-09  4.87505E-09  4.88049E-09  4.88561E-09  4.89050E-09
   4.89513E-09  4.89949E-09  4.90362E-09  4.90749E-09  4.91115E-09  4.91456E-09  4.91775E-09  4.92072E-09  4.92348E-09  4.92606E-09
   4.92844E-09  4.93064E-09  4.93269E-09  4.93456E-09  4.93628E-09  4.93782E-09  4.93916E-09  4.94029E-09  4.94119E-09  4.94185E-09
   4.94223E-09  4.94234E-09  4.94213E-09  4.94161E-09  4.94075E-09  4.93952E-09  4.93791E-09  4.93590E-09  4.93347E-09  4.93059E-09
   4.92725E-09  4.92342E-09  4.91908E-09  4.91422E-09  4.90880E-09  4.90279E-09  4.89619E-09  4.88896E-09  4.88109E-09  4.87255E-09
   4.86331E-09  4.85335E-09  4.84265E-09  4.83119E-09  4.81892E-09  4.80584E-09  4.79190E-09  4.77712E-09  4.76143E-09  4.74480E-09
   4.72725E-09  4.70872E-09  4.68917E-09  4.66861E-09  4.64699E-09  4.62429E-09  4.60049E-09  4.57557E-09  4.54946E-09  4.52221E-09
   4.49370E-09  4.46398E-09  4.43299E-09  4.40070E-09  4.36711E-09  4.33215E-09  4.29581E-09  4.25810E-09  4.21895E-09  4.17835E-09
   4.13627E-09  4.09267E-09  4.04756E-09  4.00089E-09  3.95264E-09  3.90275E-09  3.85127E-09  3.79811E-09  3.74327E-09  3.68671E-09
   3.62842E-09  3.56838E-09  3.50655E-09  3.44290E-09  3.37743E-09  3.31011E-09  3.24093E-09  3.16995E-09  3.09723E-09  3.02284E-09
   2.94683E-09  2.86927E-09  2.79023E-09  2.70977E-09  2.62795E-09  2.54486E-09  2.46056E-09  2.37512E-09  2.28863E-09  2.20119E-09
   2.11288E-09  2.02385E-09  1.93428E-09  1.84450E-09  1.75519E-09  1.66829E-09  1.59301E-09  1.55556E-09  1.52434E-09  1.47817E-09
   1.40973E-09  1.32234E-09  1.22465E-09  1.12417E-09  1.02144E-09  9.09097E-10  7.76260E-10  6.20835E-10  4.66526E-10  3.55771E-10
   2.55767E-10  1.59354E-10  6.48094E-11 -2.83987E-11 -1.20502E-10 -2.11578E-10 -3.01634E-10 -3.90631E-10 -4.78582E-10 -5.65416E-10
  -6.51063E-10 -7.35503E-10 -8.18656E-10 -9.00474E-10 -9.80869E-10 -1.05981E-09 -1.13723E-09 -1.21304E-09 -1.28720E-09 -1.35966E-09
  -1.43034E-09 -1.49919E-09 -1.56613E-09 -1.63112E-09 -1.69411E-09 -1.75501E-09 -1.81378E-09 -1.87037E-09 -1.92472E-09 -1.97675E-09
  -2.02646E-09 -2.07374E-09 -2.11857E-09 -2.16088E-09 -2.20065E-09 -2.23779E-09 -2.27226E-09 -2.30405E-09 -2.33307E-09 -2.35939E-09
  -2.38303E-09 -2.40409E-09 -2.42261E-09 -2.43865E-09 -2.45226E-09 -2.46352E-09 -2.47249E-09 -2.47921E-09 -2.48376E-09 -2.48618E-09
  -2.48656E-09 -2.48494E-09 -2.48139E-09 -2.47596E-09 -2.46873E-09 -2.45974E-09 -2.44907E-09 -2.43676E-09 -2.42289E-09 -2.40751E-09
  -2.39068E-09 -2.37247E-09 -2.35293E-09 -2.33212E-09 -2.31010E-09 -2.28693E-09 -2.26267E-09 -2.23738E-09 -2.21112E-09 -2.18394E-09
  -2.15592E-09 -2.12708E-09 -2.09752E-09 -2.06724E-09 -2.03634E-09 -2.00488E-09 -1.97289E-09 -1.94043E-09 -1.90756E-09 -1.87432E-09
  -1.84078E-09 -1.80700E-09 -1.77300E-09 -1.73886E-09 -1.70461E-09 -1.67031E-09 -1.63601E-09 -1.60174E-09 -1.56757E-09 -1.53354E-09
  -1.49969E-09 -1.46607E-09 -1.43273E-09 -1.39969E-09 -1.36702E-09 -1.33475E-09 -1.30291E-09 -1.27157E-09 -1.24073E-09 -1.21045E-09
  -1.18077E-09 -1.15172E-09 -1.12334E-09 -1.09565E-09 -1.06870E-09 -1.04251E-09 -1.01712E-09 -9.92544E-10 -9.68830E-10 -9.45997E-10
  -9.24061E-10 -9.03044E-10 -8.82910E-10 -8.63635E-10 -8.45187E-10 -8.27550E-10 -8.10684E-10 -7.94573E-10 -7.79186E-10 -7.64497E-10
  -7.50485E-10 -7.37118E-10 -7.24378E-10 -7.12236E-10 -7.00665E-10 -6.89644E-10 -6.79152E-10 -6.69164E-10 -6.59651E-10 -6.50593E-10
  -6.41971E-10 -6.33756E-10 -6.25935E-10 -6.18476E-10 -6.11365E-10 -6.04577E-10 -5.98095E-10 -5.91892E-10 -5.85956E-10 -5.80264E-10
  -5.74798E-10 -5.69532E-10 -5.64459E-10 -5.59556E-10 -5.54803E-10 -5.50181E-10 -5.45685E-10 -5.41288E-10 -5.36981E-10 -5.32740E-10
  -5.28559E-10 -5.24419E-10 -5.20303E-10 -5.16201E-10 -5.12105E-10 -5.07995E-10 -5.03863E-10 -4.99693E-10 -4.95482E-10 -4.91204E-10
  -4.86868E-10 -4.82450E-10 -4.77950E-10 -4.73356E-10 -4.68650E-10 -4.63845E-10 -4.58917E-10 -4.53870E-10 -4.48689E-10 -4.43375E-10
  -4.37923E-10 -4.32324E-10 -4.26578E-10 -4.20679E-10 -4.14629E-10 -4.08419E-10 -4.02057E-10 -3.95532E-10 -3.88848E-10 -3.82008E-10
  -3.75006E-10 -3.67848E-10 -3.60539E-10
 Gln      Conc. = 2.18E-09
   2.24518E-09  2.61911E-09  3.11520E-09  3.69301E-09  4.27821E-09  4.80932E-09  5.23748E-09  5.52553E-09  5.68386E-09  5.82292E-09
   5.74741E-09  5.53307E-09  5.38446E-09  5.11096E-09  4.90487E-09  4.76120E-09  4.65599E-09  4.57577E-09  4.51279E-09  4.46222E-09
   4.42082E-09  4.38633E-09  4.35710E-09  4.33199E-09  4.31029E-09  4.29140E-09  4.27436E-09  4.25888E-09  4.24464E-09  4.23105E-09
   4.21784E-09  4.20474E-09  4.19151E-09  4.17798E-09  4.16392E-09  4.14919E-09  4.13354E-09  4.11681E-09  4.09876E-09  4.07919E-09
   4.05793E-09  4.03476E-09  4.00962E-09  3.98227E-09  3.95230E-09  3.91947E-09  3.88343E-09  3.84297E-09  3.79857E-09  3.75127E-09
   3.69960E-09  3.64543E-09  3.59574E-09  3.57440E-09  3.70556E-09  4.10978E-09  4.53891E-09  5.05640E-09  5.81427E-09  6.64653E-09
   7.37358E-09  8.02809E-09  8.54213E-09  8.83896E-09  8.85998E-09  8.61079E-09  8.26471E-09  7.90338E-09  7.24986E-09  6.61172E-09
   6.19734E-09  5.97289E-09  5.91493E-09  6.00358E-09  6.29537E-09  6.81784E-09  7.36928E-09  7.93287E-09  8.47652E-09  8.94233E-09
   9.29573E-09  9.46817E-09  9.38069E-09  9.23403E-09  9.02375E-09  8.57280E-09  8.14924E-09  7.83391E-09  7.45626E-09  7.14104E-09
   6.90404E-09  6.71746E-09  6.56588E-09  6.43864E-09  6.32804E-09  6.23097E-09  6.14481E-09  6.06707E-09  5.99644E-09  5.93173E-09
   5.87163E-09  5.81516E-09  5.76178E-09  5.71105E-09  5.66262E-09  5.61607E-09  5.57100E-09  5.52714E-09  5.48425E-09  5.44208E-09
   5.40052E-09  5.35935E-09  5.31842E-09  5.27761E-09  5.23680E-09  5.19588E-09  5.15475E-09  5.11330E-09  5.07144E-09  5.02913E-09
   4.98623E-09  4.94272E-09  4.89850E-09  4.85354E-09  4.80776E-09  4.76109E-09  4.71347E-09  4.66490E-09  4.61529E-09  4.56459E-09
   4.51278E-09  4.45977E-09  4.40557E-09  4.35011E-09  4.29335E-09  4.23524E-09  4.17580E-09  4.11493E-09  4.05262E-09  3.98883E-09
   3.92355E-09  3.85673E-09  3.78836E-09  3.71838E-09  3.64680E-09  3.57358E-09  3.49873E-09  3.42231E-09  3.34439E-09  3.26504E-09
   3.18435E-09  3.10241E-09  3.01931E-09  2.93517E-09  2.85014E-09  2.76436E-09  2.67806E-09  2.59149E-09  2.50502E-09  2.41917E-09
   2.33474E-09  2.25302E-09  2.17631E-09  2.10910E-09  2.06168E-09  2.06355E-09  2.23965E-09  3.13500E-09  4.23233E-09  5.09051E-09
   5.53657E-09  5.60979E-09  5.46630E-09  5.25811E-09  5.01498E-09  4.61488E-09  3.84813E-09  2.63103E-09  1.32551E-09  8.32192E-10
   5.97716E-10  4.33433E-10  2.97580E-10  1.76278E-10  6.35998E-11 -4.33718E-11 -1.46215E-10 -2.45834E-10 -3.42833E-10 -4.37540E-10
  -5.30157E-10 -6.20858E-10 -7.09705E-10 -7.96755E-10 -8.82000E-10 -9.65466E-10 -1.04715E-09 -1.12699E-09 -1.20497E-09 -1.28107E-09
  -1.35525E-09 -1.42745E-09 -1.49763E-09 -1.56574E-09 -1.63175E-09 -1.69557E-09 -1.75719E-09 -1.81655E-09 -1.87361E-09 -1.92827E-09
  -1.98055E-09 -2.03035E-09 -2.07763E-09 -2.12235E-09 -2.16449E-09 -2.20394E-09 -2.24069E-09 -2.27471E-09 -2.30593E-09 -2.33440E-09
  -2.36017E-09 -2.38332E-09 -2.40389E-09 -2.42195E-09 -2.43756E-09 -2.45079E-09 -2.46169E-09 -2.47032E-09 -2.47675E-09 -2.48104E-09
