 LCModel (Version 6.3-1R) Copyright: S.W. Provencher.          Ref.: Magn. Reson. Med. 30:672-679 (1993).                
 onepulse 15x29_ftSpec_smooth_lcm
 26 lines in following concentration table = NCONC+1
    Conc.  %SD   /Cr    Metabolite                                         
 9.11E-12 999%   0.000 Ala                                                 
 1.01E-09 100%   0.000 Asp                                                 
    0.000 999%   0.000 Cr                                                  
 7.53E-10  82%   0.000 GABA                                                
 6.26E-10 174%   0.000 Glc                                                 
 5.46E-10 141%   0.000 Gln                                                 
    0.000 999%   0.000 Glu                                                 
 8.26E-10 269%   0.000 Glyc                                                
    0.000 999%   0.000 GPC                                                 
 9.51E-10  62%   0.000 GSH                                                 
 9.71E-10 206%   0.000 Ins                                                 
    0.000 999%   0.000 Lac                                                 
 4.39E-10  60%   0.000 NAAG                                                
    0.000 999%   0.000 NAA                                                 
    0.000 999%   0.000 PCh                                                 
    0.000 999%   0.000 PCr                                                 
 1.58E-09  56%   0.000 PE                                                  
 2.68E-10 105%   0.000 Scyllo                                              
 2.31E-09  58%   0.000 Ser                                                 
    0.000 999%   0.000 Tau                                                 
    0.000 999%   0.000 GPC+PCh                                             
 4.39E-10  60%   0.000 NAA+NAAG                                            
 1.80E-09  41%   0.000 Ins+Glyc                                            
    0.000 999%   0.000 Cr+PCr                                              
 5.46E-10 141%   0.000 Glu+Gln                                             
   6 lines in following misc. output table
  FWHM = 0.123 ppm    S/N =   3                                            
  Data shift = 0.447 ppm                                                   
  Ph:  11 deg     -37.3 deg/ppm                                            
  alphaB,S = 4.3E-01,   2.1E+01                                            
   10 spline knots.   Ns = 5(1)                                            
  (10) 3 infls.   ( 7) 3 extrs.                                            
  363 points on ppm-axis = NY
      4.250000     4.238821     4.227641     4.216462     4.205282     4.194103     4.182923     4.171744     4.160564     4.149385
      4.138206     4.127026     4.115847     4.104667     4.093488     4.082308     4.071129     4.059949     4.048770     4.037591
      4.026411     4.015232     4.004052     3.992873     3.981693     3.970514     3.959334     3.948155     3.936975     3.925796
      3.914617     3.903437     3.892258     3.881078     3.869899     3.858719     3.847540     3.836360     3.825181     3.814002
      3.802822     3.791643     3.780463     3.769284     3.758104     3.746925     3.735745     3.724566     3.713387     3.702207
      3.691028     3.679848     3.668669     3.657489     3.646310     3.635130     3.623951     3.612772     3.601592     3.590413
      3.579233     3.568054     3.556874     3.545695     3.534515     3.523336     3.512156     3.500977     3.489798     3.478618
      3.467439     3.456259     3.445080     3.433900     3.422721     3.411541     3.400362     3.389183     3.378003     3.366824
      3.355644     3.344465     3.333285     3.322106     3.310926     3.299747     3.288568     3.277388     3.266209     3.255029
      3.243850     3.232670     3.221491     3.210311     3.199132     3.187953     3.176773     3.165594     3.154414     3.143235
      3.132055     3.120876     3.109696     3.098517     3.087337     3.076158     3.064979     3.053799     3.042620     3.031440
      3.020261     3.009081     2.997902     2.986722     2.975543     2.964364     2.953184     2.942005     2.930825     2.919646
      2.908466     2.897287     2.886107     2.874928     2.863749     2.852569     2.841390     2.830210     2.819031     2.807851
      2.796672     2.785492     2.774313     2.763134     2.751954     2.740775     2.729595     2.718416     2.707236     2.696057
      2.684877     2.673698     2.662519     2.651339     2.640160     2.628980     2.617801     2.606621     2.595442     2.584262
      2.573083     2.561903     2.550724     2.539545     2.528365     2.517186     2.506006     2.494827     2.483647     2.472468
      2.461288     2.450109     2.438930     2.427750     2.416571     2.405391     2.394212     2.383032     2.371853     2.360673
      2.349494     2.338315     2.327135     2.315956     2.304776     2.293597     2.282417     2.271238     2.260058     2.248879
      2.237700     2.226520     2.215341     2.204161     2.192982     2.181802     2.170623     2.159443     2.148264     2.137084
      2.125905     2.114726     2.103546     2.092367     2.081187     2.070008     2.058828     2.047649     2.036469     2.025290
      2.014111     2.002931     1.991752     1.980572     1.969393     1.958213     1.947034     1.935854     1.924675     1.913496
      1.902316     1.891137     1.879957     1.868778     1.857598     1.846419     1.835239     1.824060     1.812881     1.801701
      1.790522     1.779342     1.768163     1.756983     1.745804     1.734624     1.723445     1.712265     1.701086     1.689907
      1.678727     1.667548     1.656368     1.645189     1.634009     1.622830     1.611650     1.600471     1.589292     1.578112
      1.566933     1.555753     1.544574     1.533394     1.522215     1.511035     1.499856     1.488677     1.477497     1.466318
      1.455138     1.443959     1.432779     1.421600     1.410420     1.399241     1.388062     1.376882     1.365703     1.354523
      1.343344     1.332164     1.320985     1.309805     1.298626     1.287446     1.276267     1.265088     1.253908     1.242729
      1.231549     1.220370     1.209190     1.198011     1.186831     1.175652     1.164473     1.153293     1.142114     1.130934
      1.119755     1.108575     1.097396     1.086216     1.075037     1.063858     1.052678     1.041499     1.030319     1.019140
      1.007960     0.996781     0.985601     0.974422     0.963243     0.952063     0.940884     0.929704     0.918525     0.907345
      0.896166     0.884986     0.873807     0.862628     0.851448     0.840269     0.829089     0.817910     0.806730     0.795551
      0.784371     0.773192     0.762012     0.750833     0.739654     0.728474     0.717295     0.706115     0.694936     0.683756
      0.672577     0.661397     0.650218     0.639039     0.627859     0.616680     0.605500     0.594321     0.583141     0.571962
      0.560782     0.549603     0.538424     0.527244     0.516065     0.504885     0.493706     0.482526     0.471347     0.460167
      0.448988     0.437809     0.426629     0.415450     0.404270     0.393091     0.381911     0.370732     0.359552     0.348373
      0.337193     0.326014     0.314835     0.303655     0.292476     0.281296     0.270117     0.258937     0.247758     0.236578
      0.225399     0.214220     0.203040
 NY phased data points follow
   4.73705E-09  3.97667E-09  4.69759E-09  3.92710E-09  5.09436E-09  4.14517E-09  5.61438E-09  4.94469E-09  6.37282E-09  5.16129E-09
   5.99111E-09  5.04447E-09  6.00177E-09  5.18545E-09  5.68915E-09  4.50708E-09  5.69431E-09  5.41207E-09  6.41271E-09  5.25442E-09
   5.82703E-09  4.33849E-09  5.28904E-09  4.86387E-09  6.69892E-09  6.22809E-09  7.73247E-09  7.12592E-09  7.87401E-09  6.54202E-09
   7.36565E-09  6.09709E-09  6.86772E-09  6.16647E-09  7.14103E-09  6.32881E-09  6.80738E-09  6.47842E-09  6.84056E-09  5.47954E-09
   6.41890E-09  5.27050E-09  6.17944E-09  5.17466E-09  6.39723E-09  5.53014E-09  5.64461E-09  4.99027E-09  5.07624E-09  4.39382E-09
   4.94741E-09  4.15614E-09  4.51282E-09  3.12356E-09  4.72385E-09  4.52298E-09  6.52993E-09  6.18818E-09  6.89286E-09  6.37616E-09
   7.11640E-09  5.77418E-09  6.10807E-09  5.66481E-09  5.81201E-09  4.70605E-09  4.80543E-09  3.49591E-09  3.73817E-09  1.56054E-09
   2.48476E-09  3.41333E-09  6.11471E-09  7.10569E-09  8.61682E-09  7.72245E-09  8.53732E-09  7.73778E-09  8.98296E-09  8.37418E-09
   8.40553E-09  8.16871E-09  9.17787E-09  8.28896E-09  8.91693E-09  8.45683E-09  8.93975E-09  8.24536E-09  8.86102E-09  7.83799E-09
   8.49006E-09  7.70100E-09  8.10284E-09  7.51428E-09  7.95165E-09  7.41182E-09  7.79812E-09  7.58295E-09  7.88918E-09  7.46906E-09
   7.45059E-09  6.71238E-09  6.94798E-09  5.58437E-09  6.10730E-09  5.53651E-09  6.34961E-09  5.61899E-09  5.73302E-09  5.16797E-09
   5.68900E-09  5.61320E-09  6.18670E-09  5.59500E-09  5.75005E-09  5.11369E-09  5.58221E-09  4.32825E-09  4.12170E-09  4.27855E-09
   4.03385E-09  3.97041E-09  3.58231E-09  3.19464E-09  3.60260E-09  3.16130E-09  3.69554E-09  3.35049E-09  3.28274E-09  2.10225E-09
   2.78671E-09  2.23172E-09  3.35502E-09  3.56188E-09  4.33788E-09  4.12529E-09  4.59953E-09  4.46060E-09  5.28379E-09  5.65420E-09
   6.72707E-09  6.39294E-09  6.73543E-09  6.54891E-09  7.12024E-09  6.72874E-09  7.22751E-09  7.12845E-09  7.50899E-09  7.51161E-09
   7.58413E-09  7.30939E-09  7.99151E-09  7.99957E-09  8.61245E-09  7.85354E-09  8.72573E-09  8.03399E-09  8.64878E-09  7.87571E-09
   7.92522E-09  6.98489E-09  8.98880E-09  1.19439E-08  1.46923E-08  1.66111E-08  1.72318E-08  1.72252E-08  1.82042E-08  1.83030E-08
   1.90155E-08  1.95197E-08  1.98990E-08  1.97133E-08  2.07011E-08  2.03156E-08  2.08261E-08  2.08931E-08  2.05605E-08  1.94130E-08
   1.93469E-08  1.79866E-08  1.73259E-08  1.52350E-08  1.33095E-08  1.08494E-08  8.04285E-09  5.06329E-09  2.30299E-09 -5.20739E-10
  -3.35398E-09 -6.28944E-09 -8.30132E-09 -9.87846E-09 -1.14713E-08 -1.29975E-08 -1.29754E-08 -1.27042E-08 -1.17620E-08 -1.12917E-08
  -9.18140E-09 -8.33284E-09 -5.85930E-09 -4.56456E-09 -2.91721E-09 -1.86508E-09 -3.81687E-10 -6.91111E-11  3.49559E-10 -4.19908E-10
  -4.89990E-10 -1.29544E-09 -1.04919E-09 -1.50551E-09 -1.21866E-09 -6.52419E-10  4.65531E-10  6.56606E-10  1.16206E-09  4.10428E-10
   6.57233E-10 -4.09451E-10 -3.16422E-10 -1.15197E-09 -9.65542E-10 -9.66929E-10  1.00705E-10  1.22903E-10  9.87424E-10  9.86969E-10
   7.67509E-10 -8.03294E-10 -1.19538E-09 -1.88995E-09 -1.36102E-09 -1.67946E-09 -1.20719E-09 -1.63130E-09 -9.40002E-10 -1.10326E-09
  -4.88167E-10 -7.45056E-10 -4.10066E-10 -8.94093E-10 -5.79249E-10 -1.33381E-09 -1.53266E-09 -2.03182E-09 -1.21632E-09 -2.15148E-09
  -1.98871E-09 -1.89102E-09 -1.66638E-09 -1.52659E-09 -1.23813E-09 -1.60425E-09 -1.21795E-09 -1.87104E-09 -8.97914E-10 -1.48937E-09
  -1.03582E-09 -1.15453E-09 -8.44671E-10 -7.58588E-10 -1.51267E-11 -7.95554E-10  1.24432E-11 -1.93970E-10  1.46379E-10 -3.28489E-10
   8.74667E-11 -4.32795E-10  2.84583E-10 -3.37574E-10 -7.62632E-10 -5.04430E-10 -3.37010E-10 -1.24952E-09 -5.17366E-10 -1.53131E-09
  -1.11373E-09 -1.44581E-09 -1.17041E-09 -1.51352E-09 -1.10002E-09 -1.64465E-09 -1.67776E-09 -1.82410E-09 -1.39333E-09 -1.89737E-09
  -1.33277E-09 -1.77202E-09 -1.31135E-09 -1.52784E-09 -1.29355E-09 -1.14527E-09 -1.24397E-09 -1.59322E-09 -1.41296E-09 -1.17472E-09
  -1.11917E-09 -1.25984E-09 -1.18349E-09 -1.55104E-09 -1.22161E-09 -1.66978E-09 -1.26068E-09 -1.69064E-09 -1.10636E-09 -1.53351E-09
  -1.29308E-09 -1.61283E-09 -1.25174E-09 -1.47973E-09 -1.39884E-09 -1.65333E-09 -1.36180E-09 -1.80628E-09 -1.58264E-09 -1.38493E-09
  -1.16498E-09 -1.40845E-09 -1.02157E-09 -2.02642E-09 -1.57955E-09 -1.73727E-09 -1.32012E-09 -1.46767E-09 -1.66248E-09 -1.95815E-09
  -1.80926E-09 -1.82167E-09 -1.69899E-09 -1.72913E-09 -1.43628E-09 -1.84749E-09 -1.89195E-09 -1.97162E-09 -1.86420E-09 -1.82973E-09
  -2.03048E-09 -2.22313E-09 -2.02261E-09 -1.98741E-09 -1.96799E-09 -2.38371E-09 -1.93004E-09 -2.11982E-09 -1.87089E-09 -2.03214E-09
  -2.03113E-09 -2.33796E-09 -1.95474E-09 -1.89476E-09 -1.98674E-09 -2.06971E-09 -1.76856E-09 -2.16265E-09 -2.16364E-09 -2.15552E-09
  -1.80523E-09 -2.30803E-09 -1.86944E-09
 NY points of the fit to the data follow
   4.72246E-09  5.72237E-09  5.21994E-09  4.69578E-09  4.68702E-09  5.23660E-09  5.24904E-09  4.79508E-09  5.30990E-09  6.04247E-09
   5.44998E-09  5.04658E-09  4.50392E-09  4.33308E-09  4.60149E-09  4.83045E-09  4.93533E-09  5.78573E-09  7.34762E-09  7.12830E-09
   5.73248E-09  5.14100E-09  5.15372E-09  5.33882E-09  5.57376E-09  5.88059E-09  6.62344E-09  7.49711E-09  7.74098E-09  7.03657E-09
   7.00429E-09  6.98304E-09  6.74362E-09  6.57405E-09  6.64240E-09  6.43728E-09  6.26660E-09  6.20562E-09  6.29740E-09  6.29756E-09
   6.17841E-09  6.22448E-09  6.43753E-09  6.53264E-09  6.40955E-09  6.30718E-09  6.27291E-09  5.67278E-09  4.98186E-09  4.62882E-09
   4.55931E-09  4.73104E-09  4.86767E-09  4.95428E-09  5.15636E-09  5.33052E-09  5.15653E-09  5.41690E-09  5.81065E-09  5.90463E-09
   5.83593E-09  5.77906E-09  5.88453E-09  6.03493E-09  5.87586E-09  5.77171E-09  5.80984E-09  5.70343E-09  5.39204E-09  5.32647E-09
   5.59338E-09  5.78416E-09  5.91738E-09  6.06395E-09  6.35113E-09  6.61215E-09  7.29466E-09  8.18137E-09  8.78043E-09  9.11459E-09
   9.32462E-09  9.31712E-09  9.30134E-09  9.46387E-09  9.79514E-09  9.95278E-09  9.48928E-09  8.41323E-09  7.89281E-09  7.63669E-09
   7.41101E-09  7.22750E-09  7.21317E-09  7.11529E-09  6.84136E-09  6.77056E-09  6.70671E-09  6.47692E-09  6.33680E-09  6.22678E-09
   6.09681E-09  6.00069E-09  5.92125E-09  5.85542E-09  5.80433E-09  5.76291E-09  5.72977E-09  5.70492E-09  5.68641E-09  5.67150E-09
   5.65608E-09  5.64054E-09  5.63726E-09  5.63340E-09  5.62313E-09  5.61992E-09  5.62071E-09  5.62387E-09  5.62866E-09  5.63463E-09
   5.64146E-09  5.64890E-09  5.65672E-09  5.66471E-09  5.67267E-09  5.68046E-09  5.68790E-09  5.69484E-09  5.70114E-09  5.70668E-09
   5.71130E-09  5.71490E-09  5.71736E-09  5.71857E-09  5.71841E-09  5.71678E-09  5.71357E-09  5.70869E-09  5.70204E-09  5.69354E-09
   5.68309E-09  5.67062E-09  5.65605E-09  5.63931E-09  5.62032E-09  5.59903E-09  5.57541E-09  5.54940E-09  5.52100E-09  5.49019E-09
   5.45701E-09  5.42150E-09  5.38377E-09  5.34398E-09  5.30239E-09  5.25938E-09  5.21555E-09  5.17192E-09  5.13004E-09  5.09230E-09
   5.06259E-09  5.04770E-09  5.06049E-09  5.12840E-09  5.32057E-09  5.86348E-09  7.89890E-09  1.47713E-08  1.90791E-08  2.01547E-08
   2.00416E-08  1.98919E-08  1.99871E-08  2.05183E-08  2.17299E-08  2.30642E-08  2.25578E-08  1.71259E-08  8.07350E-09  5.49198E-09
   4.54541E-09  4.03521E-09  3.69511E-09  3.43748E-09  3.22568E-09  3.04187E-09  2.87640E-09  2.72359E-09  2.58000E-09  2.44337E-09
   2.31218E-09  2.18545E-09  2.06243E-09  1.94268E-09  1.82581E-09  1.71160E-09  1.59988E-09  1.49057E-09  1.38358E-09  1.27890E-09
   1.17653E-09  1.07646E-09  9.78757E-10  8.83437E-10  7.90564E-10  7.00192E-10  6.12407E-10  5.27244E-10  4.44777E-10  3.64933E-10
   2.87659E-10  2.12887E-10  1.40565E-10  7.06260E-11  3.02430E-12 -6.23059E-11 -1.25407E-10 -1.86331E-10 -2.45143E-10 -3.01887E-10
  -3.56601E-10 -4.09351E-10 -4.60181E-10 -5.09137E-10 -5.56273E-10 -6.01634E-10 -6.45253E-10 -6.87207E-10 -7.27535E-10 -7.66260E-10
  -8.03446E-10 -8.39143E-10 -8.73384E-10 -9.06230E-10 -9.37714E-10 -9.67894E-10 -9.96809E-10 -1.02449E-09 -1.05100E-09 -1.07637E-09
  -1.10066E-09 -1.12389E-09 -1.14611E-09 -1.16738E-09 -1.18772E-09 -1.20719E-09 -1.22582E-09 -1.24366E-09 -1.26073E-09 -1.27708E-09
  -1.29276E-09 -1.30781E-09 -1.32225E-09 -1.33613E-09 -1.34950E-09 -1.36236E-09 -1.37479E-09 -1.38679E-09 -1.39842E-09 -1.40971E-09
  -1.42067E-09 -1.43132E-09 -1.44167E-09 -1.45171E-09 -1.46147E-09 -1.47095E-09 -1.48016E-09 -1.48910E-09 -1.49778E-09 -1.50621E-09
  -1.51440E-09 -1.52235E-09 -1.53008E-09 -1.53758E-09 -1.54486E-09 -1.55193E-09 -1.55880E-09 -1.56547E-09 -1.57195E-09 -1.57824E-09
  -1.58435E-09 -1.59028E-09 -1.59604E-09 -1.60164E-09 -1.60707E-09 -1.61235E-09 -1.61748E-09 -1.62245E-09 -1.62728E-09 -1.63197E-09
  -1.63652E-09 -1.64094E-09 -1.64523E-09 -1.64938E-09 -1.65341E-09 -1.65732E-09 -1.66110E-09 -1.66477E-09 -1.66831E-09 -1.67174E-09
  -1.67506E-09 -1.67826E-09 -1.68135E-09 -1.68432E-09 -1.68718E-09 -1.68992E-09 -1.69256E-09 -1.69508E-09 -1.69749E-09 -1.69978E-09
  -1.70195E-09 -1.70401E-09 -1.70594E-09 -1.70773E-09 -1.70938E-09 -1.71086E-09 -1.71218E-09 -1.71331E-09 -1.71426E-09 -1.71500E-09
  -1.71553E-09 -1.71584E-09 -1.71592E-09 -1.71577E-09 -1.71536E-09 -1.71469E-09 -1.71376E-09 -1.71255E-09 -1.71106E-09 -1.70928E-09
  -1.70719E-09 -1.70480E-09 -1.70209E-09 -1.69907E-09 -1.69571E-09 -1.69201E-09 -1.68797E-09 -1.68358E-09 -1.67883E-09 -1.67372E-09
  -1.66824E-09 -1.66239E-09 -1.65616E-09 -1.64955E-09 -1.64255E-09 -1.63515E-09 -1.62736E-09 -1.61916E-09 -1.61056E-09 -1.60155E-09
  -1.59212E-09 -1.58229E-09 -1.57203E-09 -1.56135E-09 -1.55025E-09 -1.53872E-09 -1.52677E-09 -1.51438E-09 -1.50157E-09 -1.48832E-09
  -1.47465E-09 -1.46054E-09 -1.44600E-09
 NY background values follow
    -1.183E-09   -1.187E-09   -1.189E-09   -1.191E-09   -1.191E-09   -1.191E-09   -1.189E-09   -1.187E-09   -1.183E-09   -1.178E-09
    -1.172E-09   -1.165E-09   -1.157E-09   -1.147E-09   -1.137E-09   -1.126E-09   -1.113E-09   -1.100E-09   -1.086E-09   -1.070E-09
    -1.054E-09   -1.036E-09   -1.018E-09   -9.980E-10   -9.775E-10   -9.559E-10   -9.334E-10   -9.099E-10   -8.854E-10   -8.599E-10
    -8.335E-10   -8.062E-10   -7.778E-10   -7.486E-10   -7.184E-10   -6.873E-10   -6.553E-10   -6.224E-10   -5.886E-10   -5.539E-10
    -5.183E-10   -4.819E-10   -4.446E-10   -4.065E-10   -3.675E-10   -3.277E-10   -2.870E-10   -2.456E-10   -2.034E-10   -1.604E-10
    -1.166E-10   -7.203E-11   -2.671E-11    1.934E-11    6.613E-11    1.136E-10    1.618E-10    2.107E-10    2.603E-10    3.105E-10
     3.614E-10    4.129E-10    4.651E-10    5.178E-10    5.712E-10    6.251E-10    6.796E-10    7.346E-10    7.902E-10    8.462E-10
     9.028E-10    9.599E-10    1.017E-09    1.075E-09    1.134E-09    1.193E-09    1.252E-09    1.312E-09    1.372E-09    1.432E-09
     1.493E-09    1.554E-09    1.615E-09    1.677E-09    1.738E-09    1.801E-09    1.863E-09    1.925E-09    1.988E-09    2.051E-09
     2.114E-09    2.178E-09    2.241E-09    2.305E-09    2.368E-09    2.432E-09    2.496E-09    2.560E-09    2.623E-09    2.687E-09
     2.751E-09    2.815E-09    2.879E-09    2.942E-09    3.006E-09    3.069E-09    3.132E-09    3.195E-09    3.258E-09    3.320E-09
     3.382E-09    3.444E-09    3.504E-09    3.564E-09    3.624E-09    3.682E-09    3.740E-09    3.796E-09    3.852E-09    3.907E-09
     3.960E-09    4.012E-09    4.063E-09    4.113E-09    4.161E-09    4.208E-09    4.253E-09    4.296E-09    4.337E-09    4.377E-09
     4.415E-09    4.451E-09    4.485E-09    4.517E-09    4.546E-09    4.574E-09    4.599E-09    4.622E-09    4.642E-09    4.659E-09
     4.674E-09    4.687E-09    4.696E-09    4.703E-09    4.707E-09    4.708E-09    4.706E-09    4.701E-09    4.692E-09    4.681E-09
     4.666E-09    4.647E-09    4.626E-09    4.600E-09    4.572E-09    4.539E-09    4.503E-09    4.463E-09    4.420E-09    4.373E-09
     4.323E-09    4.270E-09    4.214E-09    4.155E-09    4.093E-09    4.028E-09    3.960E-09    3.890E-09    3.818E-09    3.743E-09
     3.666E-09    3.587E-09    3.507E-09    3.424E-09    3.340E-09    3.254E-09    3.166E-09    3.078E-09    2.988E-09    2.897E-09
     2.805E-09    2.712E-09    2.619E-09    2.525E-09    2.430E-09    2.335E-09    2.240E-09    2.145E-09    2.050E-09    1.955E-09
     1.860E-09    1.766E-09    1.672E-09    1.579E-09    1.486E-09    1.394E-09    1.304E-09    1.214E-09    1.126E-09    1.039E-09
     9.538E-10    8.699E-10    7.877E-10    7.074E-10    6.289E-10    5.524E-10    4.782E-10    4.061E-10    3.363E-10    2.689E-10
     2.037E-10    1.407E-10    7.985E-11    2.116E-11   -3.543E-11   -8.998E-11   -1.425E-10   -1.931E-10   -2.417E-10   -2.885E-10
    -3.333E-10   -3.764E-10   -4.178E-10   -4.574E-10   -4.953E-10   -5.316E-10   -5.663E-10   -5.995E-10   -6.311E-10   -6.613E-10
    -6.901E-10   -7.175E-10   -7.435E-10   -7.683E-10   -7.918E-10   -8.140E-10   -8.352E-10   -8.552E-10   -8.741E-10   -8.919E-10
    -9.088E-10   -9.247E-10   -9.397E-10   -9.538E-10   -9.671E-10   -9.795E-10   -9.912E-10   -1.002E-09   -1.013E-09   -1.022E-09
    -1.031E-09   -1.040E-09   -1.048E-09   -1.055E-09   -1.062E-09   -1.069E-09   -1.075E-09   -1.081E-09   -1.086E-09   -1.092E-09
    -1.097E-09   -1.101E-09   -1.106E-09   -1.110E-09   -1.114E-09   -1.118E-09   -1.122E-09   -1.125E-09   -1.128E-09   -1.131E-09
    -1.134E-09   -1.137E-09   -1.139E-09   -1.141E-09   -1.143E-09   -1.145E-09   -1.147E-09   -1.149E-09   -1.150E-09   -1.152E-09
    -1.153E-09   -1.154E-09   -1.155E-09   -1.156E-09   -1.156E-09   -1.157E-09   -1.158E-09   -1.158E-09   -1.158E-09   -1.159E-09
    -1.159E-09   -1.159E-09   -1.159E-09   -1.158E-09   -1.158E-09   -1.158E-09   -1.157E-09   -1.157E-09   -1.156E-09   -1.156E-09
    -1.155E-09   -1.154E-09   -1.153E-09   -1.152E-09   -1.151E-09   -1.150E-09   -1.149E-09   -1.148E-09   -1.147E-09   -1.145E-09
    -1.144E-09   -1.142E-09   -1.140E-09   -1.139E-09   -1.137E-09   -1.135E-09   -1.133E-09   -1.130E-09   -1.128E-09   -1.125E-09
    -1.123E-09   -1.120E-09   -1.116E-09   -1.113E-09   -1.109E-09   -1.106E-09   -1.102E-09   -1.097E-09   -1.093E-09   -1.088E-09
    -1.083E-09   -1.078E-09   -1.072E-09   -1.066E-09   -1.060E-09   -1.053E-09   -1.046E-09   -1.039E-09   -1.032E-09   -1.024E-09
    -1.016E-09   -1.007E-09   -9.984E-10   -9.892E-10   -9.796E-10   -9.697E-10   -9.594E-10   -9.487E-10   -9.377E-10   -9.263E-10
    -9.144E-10   -9.022E-10   -8.896E-10   -8.767E-10   -8.633E-10   -8.495E-10   -8.353E-10   -8.207E-10   -8.058E-10   -7.904E-10
    -7.746E-10   -7.584E-10   -7.418E-10
 Ala      Conc. = 9.11E-12
  -1.18574E-09 -1.18813E-09 -1.19010E-09 -1.19091E-09 -1.19062E-09 -1.18928E-09 -1.18615E-09 -1.18285E-09 -1.17998E-09 -1.17401E-09
  -1.16706E-09 -1.16132E-09 -1.15350E-09 -1.14415E-09 -1.13442E-09 -1.12359E-09 -1.11163E-09 -1.09855E-09 -1.08438E-09 -1.06913E-09
  -1.05283E-09 -1.03548E-09 -1.01709E-09 -9.97677E-10 -9.77254E-10 -9.55819E-10 -9.33388E-10 -9.09965E-10 -8.85565E-10 -8.60187E-10
  -8.33836E-10 -8.06544E-10 -7.78293E-10 -7.49106E-10 -7.18985E-10 -6.87946E-10 -6.55993E-10 -6.23125E-10 -5.89371E-10 -5.54741E-10
  -5.19215E-10 -4.82817E-10 -4.45574E-10 -4.07485E-10 -3.68548E-10 -3.28790E-10 -2.88204E-10 -2.46815E-10 -2.04632E-10 -1.61671E-10
  -1.17914E-10 -7.33948E-11 -2.81182E-11  1.78956E-11  6.46360E-11  1.12097E-10  1.60261E-10  2.09116E-10  2.58646E-10  3.08841E-10
   3.59683E-10  4.11159E-10  4.63258E-10  5.15960E-10  5.69249E-10  6.23119E-10  6.77547E-10  7.32523E-10  7.88027E-10  8.44044E-10
   9.00561E-10  9.57560E-10  1.01503E-09  1.07294E-09  1.13129E-09  1.19006E-09  1.24923E-09  1.30878E-09  1.36871E-09  1.42898E-09
   1.48959E-09  1.55051E-09  1.61173E-09  1.67323E-09  1.73498E-09  1.79699E-09  1.85922E-09  1.92166E-09  1.98428E-09  2.04707E-09
   2.11001E-09  2.17307E-09  2.23625E-09  2.29951E-09  2.36284E-09  2.42622E-09  2.48966E-09  2.55317E-09  2.61697E-09  2.68227E-09
   2.75414E-09  2.82232E-09  2.88636E-09  2.95674E-09  3.02739E-09  3.09536E-09  3.16179E-09  3.22827E-09  3.29467E-09  3.35890E-09
   3.41752E-09  3.47175E-09  3.53443E-09  3.59315E-09  3.64239E-09  3.69585E-09  3.75068E-09  3.80556E-09  3.85996E-09  3.91358E-09
   3.96626E-09  4.01786E-09  4.06826E-09  4.11738E-09  4.16511E-09  4.21137E-09  4.25608E-09  4.29916E-09  4.34054E-09  4.38012E-09
   4.41784E-09  4.45362E-09  4.48738E-09  4.51905E-09  4.54856E-09  4.57583E-09  4.60078E-09  4.62335E-09  4.64345E-09  4.66103E-09
   4.67599E-09  4.68828E-09  4.69782E-09  4.70454E-09  4.70837E-09  4.70923E-09  4.70707E-09  4.70180E-09  4.69336E-09  4.68169E-09
   4.66671E-09  4.64836E-09  4.62657E-09  4.60128E-09  4.57242E-09  4.53993E-09  4.50376E-09  4.46398E-09  4.42069E-09  4.37400E-09
   4.32402E-09  4.27086E-09  4.21465E-09  4.15551E-09  4.09363E-09  4.02933E-09  3.96382E-09  3.90005E-09  3.83142E-09  3.75767E-09
   3.68076E-09  3.60180E-09  3.52113E-09  3.43905E-09  3.35589E-09  3.27123E-09  3.18340E-09  3.08980E-09  2.99202E-09  2.89900E-09
   2.80634E-09  2.71321E-09  2.61951E-09  2.52530E-09  2.43064E-09  2.33569E-09  2.24053E-09  2.14527E-09  2.05006E-09  1.95499E-09
   1.86020E-09  1.76581E-09  1.67192E-09  1.57869E-09  1.48620E-09  1.39459E-09  1.30397E-09  1.21447E-09  1.12619E-09  1.03927E-09
   9.53802E-10  8.69913E-10  7.87717E-10  7.07321E-10  6.28841E-10  5.52382E-10  4.78074E-10  4.05988E-10  3.36231E-10  2.68757E-10
   2.03540E-10  1.40533E-10  7.97035E-11  2.10029E-11 -3.56002E-11 -9.01569E-11 -1.42697E-10 -1.93263E-10 -2.41907E-10 -2.88665E-10
  -3.33567E-10 -3.76671E-10 -4.18013E-10 -4.57633E-10 -4.95579E-10 -5.31889E-10 -5.66593E-10 -5.99762E-10 -6.31431E-10 -6.61620E-10
  -6.90385E-10 -7.17777E-10 -7.43823E-10 -7.68582E-10 -7.92082E-10 -8.14381E-10 -8.35513E-10 -8.55510E-10 -8.74426E-10 -8.92298E-10
  -9.09168E-10 -9.25075E-10 -9.40063E-10 -9.54175E-10 -9.67443E-10 -9.79913E-10 -9.91628E-10 -1.00264E-09 -1.01294E-09 -1.02260E-09
  -1.03167E-09 -1.04017E-09 -1.04814E-09 -1.05561E-09 -1.06264E-09 -1.06923E-09 -1.07545E-09 -1.08131E-09 -1.08686E-09 -1.09213E-09
  -1.09714E-09 -1.10189E-09 -1.10640E-09 -1.11067E-09 -1.11471E-09 -1.11853E-09 -1.12213E-09 -1.12552E-09 -1.12871E-09 -1.13170E-09
  -1.13450E-09 -1.13712E-09 -1.13956E-09 -1.14183E-09 -1.14393E-09 -1.14588E-09 -1.14767E-09 -1.14931E-09 -1.15080E-09 -1.15216E-09
  -1.15338E-09 -1.15447E-09 -1.15544E-09 -1.15629E-09 -1.15702E-09 -1.15764E-09 -1.15816E-09 -1.15856E-09 -1.15887E-09 -1.15908E-09
  -1.15919E-09 -1.15921E-09 -1.15914E-09 -1.15898E-09 -1.15874E-09 -1.15842E-09 -1.15801E-09 -1.15753E-09 -1.15696E-09 -1.15632E-09
  -1.15561E-09 -1.15481E-09 -1.15394E-09 -1.15300E-09 -1.15198E-09 -1.15089E-09 -1.14972E-09 -1.14847E-09 -1.14715E-09 -1.14574E-09
  -1.14426E-09 -1.14269E-09 -1.14104E-09 -1.13928E-09 -1.13741E-09 -1.13541E-09 -1.13328E-09 -1.13100E-09 -1.12857E-09 -1.12597E-09
  -1.12319E-09 -1.12022E-09 -1.11706E-09 -1.11369E-09 -1.11010E-09 -1.10629E-09 -1.10224E-09 -1.09795E-09 -1.09341E-09 -1.08861E-09
  -1.08354E-09 -1.07819E-09 -1.07256E-09 -1.06664E-09 -1.06042E-09 -1.05389E-09 -1.04705E-09 -1.03988E-09 -1.03240E-09 -1.02458E-09
  -1.01642E-09 -1.00792E-09 -9.99065E-10 -9.89859E-10 -9.80293E-10 -9.70362E-10 -9.60064E-10 -9.49392E-10 -9.38343E-10 -9.26913E-10
  -9.15099E-10 -9.02897E-10 -8.90306E-10 -8.77321E-10 -8.63940E-10 -8.50163E-10 -8.35986E-10 -8.21407E-10 -8.06426E-10 -7.91041E-10
  -7.75252E-10 -7.59058E-10 -7.42459E-10
 Asp      Conc. = 1.01E-09
  -6.65219E-10 -5.82688E-10 -5.95747E-10 -5.72027E-10 -5.49448E-10 -5.78034E-10 -5.82713E-10 -7.18925E-10 -8.21124E-10 -8.94860E-10
  -9.50571E-10 -9.94336E-10 -1.02931E-09 -1.05629E-09 -1.07641E-09 -1.09253E-09 -1.10525E-09 -1.11506E-09 -1.12237E-09 -1.12751E-09
  -1.13077E-09 -1.13238E-09 -1.13257E-09 -1.13154E-09 -1.12947E-09 -1.12654E-09 -1.12293E-09 -1.11881E-09 -1.11440E-09 -1.10986E-09
  -1.10542E-09 -1.10128E-09 -1.09756E-09 -1.09419E-09 -1.09016E-09 -1.08014E-09 -1.02981E-09 -9.60689E-10 -8.59636E-10 -7.91359E-10
  -7.79190E-10 -8.02744E-10 -8.21674E-10 -6.90084E-10 -5.23789E-10 -1.03808E-10  2.21093E-10  2.95290E-10  3.56048E-10  4.85291E-10
   6.93428E-10  9.72386E-10  1.32649E-09  1.58648E-09  1.59761E-09  1.55039E-09  1.28854E-09  1.32935E-09  1.44625E-09  1.40008E-09
   1.31609E-09  1.29067E-09  1.24322E-09  1.21475E-09  1.28705E-09  1.37530E-09  1.35317E-09  1.33955E-09  1.34104E-09  1.35311E-09
   1.37281E-09  1.39829E-09  1.42833E-09  1.46208E-09  1.49891E-09  1.53836E-09  1.58006E-09  1.62371E-09  1.66910E-09  1.71600E-09
   1.76428E-09  1.81377E-09  1.86438E-09  1.91599E-09  1.96850E-09  2.02185E-09  2.07595E-09  2.13075E-09  2.18618E-09  2.24218E-09
   2.29871E-09  2.35571E-09  2.41316E-09  2.47100E-09  2.52918E-09  2.58770E-09  2.64650E-09  2.70555E-09  2.76481E-09  2.82426E-09
   2.88386E-09  2.94361E-09  3.00345E-09  3.06336E-09  3.12333E-09  3.18329E-09  3.24317E-09  3.30290E-09  3.36242E-09  3.42165E-09
   3.48051E-09  3.53894E-09  3.59687E-09  3.65421E-09  3.71090E-09  3.76686E-09  3.82202E-09  3.87631E-09  3.92965E-09  3.98197E-09
   4.03320E-09  4.08325E-09  4.13206E-09  4.17954E-09  4.22564E-09  4.27026E-09  4.31334E-09  4.35481E-09  4.39457E-09  4.43257E-09
   4.46873E-09  4.50297E-09  4.53522E-09  4.56540E-09  4.59344E-09  4.61927E-09  4.64281E-09  4.66399E-09  4.68274E-09  4.69898E-09
   4.71265E-09  4.72367E-09  4.73197E-09  4.73748E-09  4.74013E-09  4.73986E-09  4.73660E-09  4.73028E-09  4.72085E-09  4.70823E-09
   4.69238E-09  4.67323E-09  4.65075E-09  4.62487E-09  4.59559E-09  4.56286E-09  4.52672E-09  4.48730E-09  4.44487E-09  4.39975E-09
   4.35242E-09  4.30363E-09  4.25476E-09  4.20860E-09  4.17210E-09  4.16791E-09  4.31060E-09  4.92829E-09  5.28367E-09  5.31952E-09
   5.23891E-09  5.15397E-09  5.09164E-09  5.07088E-09  5.11573E-09  5.17035E-09  5.03985E-09  4.42072E-09  3.44950E-09  3.12099E-09
   2.94687E-09  2.81393E-09  2.69683E-09  2.58722E-09  2.48165E-09  2.37852E-09  2.27699E-09  2.17659E-09  2.07713E-09  1.97848E-09
   1.88060E-09  1.78352E-09  1.68725E-09  1.59189E-09  1.49747E-09  1.40411E-09  1.31187E-09  1.22088E-09  1.13121E-09  1.04299E-09
   9.56303E-10  8.71262E-10  7.87975E-10  7.06541E-10  6.27072E-10  5.49666E-10  4.74450E-10  4.01492E-10  3.30895E-10  2.62610E-10
   1.96609E-10  1.32844E-10  7.12788E-11  1.18641E-11 -4.54332E-11 -1.00666E-10 -1.53864E-10 -2.05072E-10 -2.54341E-10 -3.01712E-10
  -3.47212E-10 -3.90900E-10 -4.32815E-10 -4.72996E-10 -5.11492E-10 -5.48341E-10 -5.83573E-10 -6.17261E-10 -6.49440E-10 -6.80129E-10
