 LCModel (Version 6.3-1R) Copyright: S.W. Provencher.          Ref.: Magn. Reson. Med. 30:672-679 (1993).                
 onepulse 15x26_ftSpec_smooth_lcm
 26 lines in following concentration table = NCONC+1
    Conc.  %SD /Cr+PCr  Metabolite                                         
 8.19E-11 660%   8.762 Ala                                                 
    0.000 999%   0.000 Asp                                                 
    0.000 999%   0.000 Cr                                                  
 1.68E-10 573%  18.017 GABA                                                
    0.000 999%   0.000 Glc                                                 
 1.30E-09  98% 139.555 Gln                                                 
    0.000 999%   0.000 Glu                                                 
 3.12E-10 746%  33.416 Glyc                                                
    0.000 999%   0.000 GPC                                                 
 1.21E-10 648%  12.990 GSH                                                 
 1.64E-09 118% 175.503 Ins                                                 
 1.41E-10 372%  15.123 Lac                                                 
 7.46E-10  45%  79.773 NAAG                                                
    0.000 999%   0.000 NAA                                                 
    0.000 999%   0.000 PCh                                                 
 9.35E-12 999%   1.000 PCr                                                 
 1.52E-09  81% 162.654 PE                                                  
 2.36E-10 108%  25.239 Scyllo                                              
 7.19E-09  24% 769.189 Ser                                                 
    0.000 999%   0.000 Tau                                                 
    0.000 999%   0.000 GPC+PCh                                             
 7.46E-10  45%  79.773 NAA+NAAG                                            
 1.95E-09  32% 208.919 Ins+Glyc                                            
 9.35E-12 999%   1.000 Cr+PCr                                              
 1.30E-09  98% 139.555 Glu+Gln                                             
   6 lines in following misc. output table
  FWHM = 0.123 ppm    S/N =   2                                            
  Data shift = 0.425 ppm                                                   
  Ph:  -6 deg     -35.3 deg/ppm                                            
  alphaB,S = 1.3E+01,   1.5E+01                                            
    9 spline knots.   Ns = 5(1)                                            
  (10) 4 infls.   ( 9) 3 extrs.                                            
  363 points on ppm-axis = NY
      4.250000     4.238821     4.227641     4.216462     4.205282     4.194103     4.182923     4.171744     4.160564     4.149385
      4.138206     4.127026     4.115847     4.104667     4.093488     4.082308     4.071129     4.059949     4.048770     4.037591
      4.026411     4.015232     4.004052     3.992873     3.981693     3.970514     3.959334     3.948155     3.936975     3.925796
      3.914617     3.903437     3.892258     3.881078     3.869899     3.858719     3.847540     3.836360     3.825181     3.814002
      3.802822     3.791643     3.780463     3.769284     3.758104     3.746925     3.735745     3.724566     3.713387     3.702207
      3.691028     3.679848     3.668669     3.657489     3.646310     3.635130     3.623951     3.612772     3.601592     3.590413
      3.579233     3.568054     3.556874     3.545695     3.534515     3.523336     3.512156     3.500977     3.489798     3.478618
      3.467439     3.456259     3.445080     3.433900     3.422721     3.411541     3.400362     3.389183     3.378003     3.366824
      3.355644     3.344465     3.333285     3.322106     3.310926     3.299747     3.288568     3.277388     3.266209     3.255029
      3.243850     3.232670     3.221491     3.210311     3.199132     3.187953     3.176773     3.165594     3.154414     3.143235
      3.132055     3.120876     3.109696     3.098517     3.087337     3.076158     3.064979     3.053799     3.042620     3.031440
      3.020261     3.009081     2.997902     2.986722     2.975543     2.964364     2.953184     2.942005     2.930825     2.919646
      2.908466     2.897287     2.886107     2.874928     2.863749     2.852569     2.841390     2.830210     2.819031     2.807851
      2.796672     2.785492     2.774313     2.763134     2.751954     2.740775     2.729595     2.718416     2.707236     2.696057
      2.684877     2.673698     2.662519     2.651339     2.640160     2.628980     2.617801     2.606621     2.595442     2.584262
      2.573083     2.561903     2.550724     2.539545     2.528365     2.517186     2.506006     2.494827     2.483647     2.472468
      2.461288     2.450109     2.438930     2.427750     2.416571     2.405391     2.394212     2.383032     2.371853     2.360673
      2.349494     2.338315     2.327135     2.315956     2.304776     2.293597     2.282417     2.271238     2.260058     2.248879
      2.237700     2.226520     2.215341     2.204161     2.192982     2.181802     2.170623     2.159443     2.148264     2.137084
      2.125905     2.114726     2.103546     2.092367     2.081187     2.070008     2.058828     2.047649     2.036469     2.025290
      2.014111     2.002931     1.991752     1.980572     1.969393     1.958213     1.947034     1.935854     1.924675     1.913496
      1.902316     1.891137     1.879957     1.868778     1.857598     1.846419     1.835239     1.824060     1.812881     1.801701
      1.790522     1.779342     1.768163     1.756983     1.745804     1.734624     1.723445     1.712265     1.701086     1.689907
      1.678727     1.667548     1.656368     1.645189     1.634009     1.622830     1.611650     1.600471     1.589292     1.578112
      1.566933     1.555753     1.544574     1.533394     1.522215     1.511035     1.499856     1.488677     1.477497     1.466318
      1.455138     1.443959     1.432779     1.421600     1.410420     1.399241     1.388062     1.376882     1.365703     1.354523
      1.343344     1.332164     1.320985     1.309805     1.298626     1.287446     1.276267     1.265088     1.253908     1.242729
      1.231549     1.220370     1.209190     1.198011     1.186831     1.175652     1.164473     1.153293     1.142114     1.130934
      1.119755     1.108575     1.097396     1.086216     1.075037     1.063858     1.052678     1.041499     1.030319     1.019140
      1.007960     0.996781     0.985601     0.974422     0.963243     0.952063     0.940884     0.929704     0.918525     0.907345
      0.896166     0.884986     0.873807     0.862628     0.851448     0.840269     0.829089     0.817910     0.806730     0.795551
      0.784371     0.773192     0.762012     0.750833     0.739654     0.728474     0.717295     0.706115     0.694936     0.683756
      0.672577     0.661397     0.650218     0.639039     0.627859     0.616680     0.605500     0.594321     0.583141     0.571962
      0.560782     0.549603     0.538424     0.527244     0.516065     0.504885     0.493706     0.482526     0.471347     0.460167
      0.448988     0.437809     0.426629     0.415450     0.404270     0.393091     0.381911     0.370732     0.359552     0.348373
      0.337193     0.326014     0.314835     0.303655     0.292476     0.281296     0.270117     0.258937     0.247758     0.236578
      0.225399     0.214220     0.203040
 NY phased data points follow
  -1.37435E-10 -1.31672E-09 -6.39320E-10 -1.81488E-09 -3.83495E-10 -2.09781E-09 -8.33849E-10 -1.92503E-09  4.43985E-11 -3.67661E-10
   1.43117E-09  1.85991E-10  1.77927E-09  9.84677E-10  2.36376E-09  1.31372E-09  2.28313E-09  6.11684E-10  1.60516E-09  1.70071E-09
   3.49438E-09  2.11245E-09  3.72649E-09  1.46297E-09  2.01305E-09  1.07638E-09  3.05742E-09  3.34295E-09  6.44463E-09  5.77198E-09
   6.95318E-09  6.01834E-09  6.91288E-09  5.12061E-09  6.41777E-09  5.59357E-09  7.01677E-09  6.07141E-09  6.52170E-09  5.82874E-09
   6.78816E-09  5.66036E-09  6.53484E-09  4.33334E-09  5.53457E-09  4.70442E-09  5.97104E-09  5.03679E-09  5.86565E-09  4.18524E-09
   4.16783E-09  3.34713E-09  3.71634E-09  2.51119E-09  3.26587E-09  6.28418E-10  2.06843E-09  2.46977E-09  5.17357E-09  5.59797E-09
   7.46919E-09  7.11327E-09  8.00493E-09  6.26826E-09  7.23006E-09  6.02143E-09  6.09913E-09  5.02156E-09  5.18796E-09  3.34733E-09
   3.25894E-09 -1.50797E-10 -4.42567E-10  4.36587E-10  4.12113E-09  7.11116E-09  9.56759E-09  9.25206E-09  1.09019E-08  1.03159E-08
   1.10631E-08  1.06927E-08  1.11748E-08  1.06765E-08  1.22304E-08  1.11229E-08  1.22537E-08  1.11951E-08  1.21000E-08  1.11257E-08
   1.15631E-08  1.08131E-08  1.14132E-08  1.03643E-08  1.08098E-08  9.82753E-09  1.05414E-08  1.03049E-08  1.06509E-08  1.02655E-08
   1.07502E-08  1.08653E-08  1.02495E-08  9.50978E-09  9.48983E-09  7.62280E-09  8.04456E-09  7.05184E-09  8.33272E-09  7.47160E-09
   7.39454E-09  7.15997E-09  8.10278E-09  7.08132E-09  8.54583E-09  8.01778E-09  8.33747E-09  7.90585E-09  8.16541E-09  6.36107E-09
   6.90386E-09  5.75879E-09  6.37439E-09  5.77009E-09  5.82148E-09  5.04304E-09  5.82249E-09  5.59208E-09  5.55871E-09  5.06445E-09
   5.10439E-09  4.12949E-09  4.30770E-09  3.83065E-09  4.83956E-09  5.85872E-09  6.63494E-09  6.46858E-09  6.96289E-09  7.04032E-09
   8.08210E-09  8.64646E-09  9.55993E-09  9.47838E-09  1.00744E-08  9.38450E-09  1.03214E-08  9.40502E-09  1.05344E-08  9.65930E-09
   1.01513E-08  1.01843E-08  1.00408E-08  9.75997E-09  1.02290E-08  1.04697E-08  1.07569E-08  9.81186E-09  1.05112E-08  9.46036E-09
   9.81227E-09  8.93686E-09  9.24474E-09  8.25621E-09  1.16448E-08  1.66268E-08  2.15887E-08  2.28024E-08  2.32505E-08  2.37507E-08
   2.40631E-08  2.31029E-08  2.34243E-08  2.32528E-08  2.34468E-08  2.31117E-08  2.36882E-08  2.24528E-08  2.27838E-08  2.17836E-08
   2.11083E-08  1.98263E-08  1.89044E-08  1.72383E-08  1.61792E-08  1.31020E-08  1.10633E-08  7.72671E-09  4.43012E-09  1.06399E-09
  -1.65277E-09 -5.44401E-09 -8.55397E-09 -1.19696E-08 -1.42328E-08 -1.66369E-08 -1.77876E-08 -1.97663E-08 -1.97721E-08 -1.95463E-08
  -1.83901E-08 -1.70383E-08 -1.43944E-08 -1.26517E-08 -9.82905E-09 -7.90252E-09 -6.20345E-09 -4.46979E-09 -3.88351E-09 -2.75510E-09
  -2.99518E-09 -2.90176E-09 -2.47397E-09 -3.74536E-09 -3.02625E-09 -3.42767E-09 -3.09618E-09 -2.73605E-09 -2.39536E-09 -2.12688E-09
  -2.11722E-09 -1.98933E-09 -1.76247E-09 -2.37761E-09 -1.90554E-09 -2.58781E-09 -2.46544E-09 -2.74146E-09 -2.45527E-09 -2.58143E-09
  -2.05102E-09 -1.61146E-09 -1.45601E-09 -1.86179E-09 -1.45123E-09 -2.05836E-09 -2.02146E-09 -2.46297E-09 -2.79476E-09 -2.66014E-09
  -2.42401E-09 -2.53235E-09 -1.88378E-09 -2.36509E-09 -1.37427E-09 -1.38942E-09 -7.08095E-10 -1.05051E-09 -1.33098E-09 -1.04491E-09
  -7.93071E-10 -1.96187E-09 -1.33676E-09 -2.32233E-09 -1.99135E-09 -2.55586E-09 -2.47705E-09 -2.65955E-09 -3.02906E-09 -2.75350E-09
  -2.08217E-09 -2.40351E-09 -1.97622E-09 -2.11459E-09 -1.22190E-09 -9.31083E-10 -5.31344E-10 -9.19306E-10 -1.05482E-10 -2.48882E-10
   3.60624E-10 -4.65141E-10  1.46397E-10 -7.28217E-10 -8.60174E-11 -7.13055E-10 -7.40844E-10 -7.37503E-10 -1.39247E-09 -9.39287E-10
  -9.88815E-10 -1.68154E-09 -1.10590E-09 -1.58144E-09 -1.65678E-09 -2.01953E-09 -1.24817E-09 -2.51836E-09 -1.81690E-09 -1.75997E-09
  -1.68624E-09 -2.20004E-09 -2.08771E-09 -2.20969E-09 -2.35625E-09 -1.88201E-09 -2.07968E-09 -2.23734E-09 -1.93816E-09 -2.20887E-09
  -2.21129E-09 -2.14851E-09 -2.09445E-09 -2.29400E-09 -2.04470E-09 -2.21992E-09 -2.18075E-09 -2.45859E-09 -1.97165E-09 -1.88095E-09
  -1.64929E-09 -2.03172E-09 -1.77408E-09 -1.95230E-09 -1.36121E-09 -1.76143E-09 -1.76895E-09 -2.01300E-09 -1.38862E-09 -1.82939E-09
  -1.13818E-09 -1.63624E-09 -1.07567E-09 -1.73570E-09 -1.30973E-09 -2.23844E-09 -7.61738E-10 -1.53057E-09 -7.25009E-10 -1.15397E-09
  -1.33942E-09 -1.31554E-09 -5.84388E-10 -1.00983E-09 -1.12596E-09 -6.35786E-10 -7.75666E-10 -1.01844E-09 -8.43413E-10 -1.14114E-09
  -8.47383E-10 -7.53935E-10 -9.59925E-10 -5.92863E-10 -8.98640E-10 -6.28368E-10 -6.05606E-10 -3.41338E-10 -7.96817E-11 -4.85321E-10
  -1.28578E-10 -2.70119E-10  1.23086E-11 -1.20866E-10  2.58125E-10  1.25283E-10  3.22349E-10  3.19068E-10  3.74347E-10  9.32006E-11
   5.94156E-10  3.28964E-10  7.30959E-10
 NY points of the fit to the data follow
  -4.62497E-09 -7.23840E-10 -1.20427E-09 -1.34285E-09 -4.71061E-10  1.36379E-09  1.90646E-09  3.03110E-10 -1.07166E-09 -8.40653E-10
   1.13587E-10  4.96556E-10  5.58289E-10  6.71915E-10  1.17978E-09  1.49522E-09  8.95752E-10  8.03840E-10  2.72111E-09  3.98200E-09
   3.20388E-09  2.16953E-09  2.17418E-09  2.21635E-09  2.18215E-09  2.29932E-09  3.17509E-09  4.54415E-09  5.69609E-09  5.60341E-09
   5.80371E-09  6.40365E-09  6.82967E-09  6.82552E-09  7.02729E-09  7.06775E-09  6.94964E-09  6.49164E-09  6.12572E-09  5.82750E-09
   5.57620E-09  5.45394E-09  5.38705E-09  5.32599E-09  5.18164E-09  4.97866E-09  4.78299E-09  4.62318E-09  4.42352E-09  4.33797E-09
   4.27084E-09  4.24600E-09  4.06559E-09  3.76626E-09  3.63185E-09  3.94533E-09  4.04492E-09  4.31167E-09  4.88837E-09  5.31770E-09
   5.39742E-09  5.58863E-09  5.82147E-09  6.14222E-09  6.37005E-09  6.39490E-09  6.37382E-09  6.51144E-09  6.21489E-09  5.82728E-09
   5.64795E-09  5.84344E-09  6.07060E-09  5.95991E-09  5.83634E-09  5.91324E-09  7.64633E-09  9.43524E-09  1.06163E-08  1.13966E-08
   1.20842E-08  1.25419E-08  1.24889E-08  1.26691E-08  1.35501E-08  1.44826E-08  1.46144E-08  1.31270E-08  1.21987E-08  1.16411E-08
   1.11904E-08  1.08018E-08  1.05391E-08  1.03154E-08  1.00566E-08  9.83660E-09  9.65594E-09  9.46416E-09  9.29284E-09  9.12019E-09
   9.02349E-09  8.92693E-09  8.78754E-09  8.71684E-09  8.65826E-09  8.57489E-09  8.50457E-09  8.58617E-09  8.59878E-09  8.55248E-09
   8.60020E-09  8.57731E-09  8.57930E-09  8.55368E-09  8.44355E-09  8.38104E-09  8.33372E-09  8.22131E-09  8.03572E-09  7.98737E-09
   7.88761E-09  7.66742E-09  7.51556E-09  7.39353E-09  7.28595E-09  7.18662E-09  7.09245E-09  7.00172E-09  6.91337E-09  6.82667E-09
   6.74110E-09  6.65631E-09  6.57200E-09  6.48797E-09  6.40404E-09  6.32006E-09  6.23591E-09  6.15150E-09  6.06675E-09  5.98157E-09
   5.89593E-09  5.80975E-09  5.72299E-09  5.63564E-09  5.54761E-09  5.45888E-09  5.36946E-09  5.27932E-09  5.18844E-09  5.09684E-09
   5.00455E-09  4.91157E-09  4.81801E-09  4.72402E-09  4.62975E-09  4.53557E-09  4.44205E-09  4.35007E-09  4.26113E-09  4.17793E-09
   4.10521E-09  4.05248E-09  4.03977E-09  4.11560E-09  4.42181E-09  5.52619E-09  1.09048E-08  2.13088E-08  2.57681E-08  2.57572E-08
   2.47056E-08  2.37407E-08  2.30198E-08  2.30327E-08  2.42385E-08  2.60881E-08  2.53724E-08  1.79593E-08  8.63151E-09  5.95598E-09
   4.85896E-09  4.23690E-09  3.81611E-09  3.49926E-09  3.24319E-09  3.02588E-09  2.83486E-09  2.66254E-09  2.50405E-09  2.35611E-09
   2.21640E-09  2.08330E-09  1.95557E-09  1.83231E-09  1.71283E-09  1.59655E-09  1.48308E-09  1.37207E-09  1.26323E-09  1.15637E-09
   1.05129E-09  9.47850E-10  8.45932E-10  7.45442E-10  6.46290E-10  5.48415E-10  4.51759E-10  3.56301E-10  2.61976E-10  1.68764E-10
   7.66457E-11 -1.43887E-11 -1.04361E-10 -1.93270E-10 -2.81144E-10 -3.67968E-10 -4.53735E-10 -5.38457E-10 -6.22139E-10 -7.04754E-10
  -7.86297E-10 -8.66768E-10 -9.46158E-10 -1.02446E-09 -1.10167E-09 -1.17775E-09 -1.25271E-09 -1.32654E-09 -1.39921E-09 -1.47071E-09
  -1.54103E-09 -1.61016E-09 -1.67807E-09 -1.74477E-09 -1.81023E-09 -1.87443E-09 -1.93737E-09 -1.99902E-09 -2.05938E-09 -2.11842E-09
  -2.17614E-09 -2.23251E-09 -2.28752E-09 -2.34116E-09 -2.39341E-09 -2.44426E-09 -2.49369E-09 -2.54169E-09 -2.58825E-09 -2.63334E-09
  -2.67697E-09 -2.71911E-09 -2.75974E-09 -2.79887E-09 -2.83647E-09 -2.87253E-09 -2.90704E-09 -2.93999E-09 -2.97136E-09 -3.00115E-09
  -3.02933E-09 -3.05591E-09 -3.08086E-09 -3.10418E-09 -3.12586E-09 -3.14589E-09 -3.16426E-09 -3.18095E-09 -3.19596E-09 -3.20928E-09
  -3.22090E-09 -3.23081E-09 -3.23901E-09 -3.24548E-09 -3.25022E-09 -3.25323E-09 -3.25449E-09 -3.25399E-09 -3.25174E-09 -3.24773E-09
  -3.24194E-09 -3.23439E-09 -3.22505E-09 -3.21393E-09 -3.20102E-09 -3.18633E-09 -3.16983E-09 -3.15154E-09 -3.13145E-09 -3.10955E-09
  -3.08586E-09 -3.06035E-09 -3.03303E-09 -3.00391E-09 -2.97298E-09 -2.94024E-09 -2.90569E-09 -2.86933E-09 -2.83116E-09 -2.79119E-09
  -2.74941E-09 -2.70584E-09 -2.66045E-09 -2.61328E-09 -2.56431E-09 -2.51354E-09 -2.46100E-09 -2.40667E-09 -2.35056E-09 -2.29268E-09
  -2.23303E-09 -2.17162E-09 -2.10845E-09 -2.04354E-09 -1.97689E-09 -1.90850E-09 -1.83838E-09 -1.76655E-09 -1.69300E-09 -1.61776E-09
  -1.54082E-09 -1.46221E-09 -1.38192E-09 -1.29997E-09 -1.21636E-09 -1.13112E-09 -1.04425E-09 -9.55768E-10 -8.65679E-10 -7.73999E-10
  -6.80741E-10 -5.85918E-10 -4.89545E-10 -3.91635E-10 -2.92201E-10 -1.91260E-10 -8.88268E-11  1.50826E-11  1.20453E-10  2.27268E-10
   3.35511E-10  4.45165E-10  5.56213E-10  6.68637E-10  7.82419E-10  8.97542E-10  1.01398E-09  1.13173E-09  1.25076E-09  1.37105E-09
   1.49259E-09  1.61534E-09  1.73930E-09  1.86445E-09  1.99075E-09  2.11819E-09  2.24674E-09  2.37640E-09  2.50712E-09  2.63890E-09
   2.77170E-09  2.90550E-09  3.04028E-09
 NY background values follow
    -6.216E-09   -6.032E-09   -5.850E-09   -5.668E-09   -5.487E-09   -5.306E-09   -5.127E-09   -4.948E-09   -4.770E-09   -4.593E-09
    -4.418E-09   -4.243E-09   -4.069E-09   -3.896E-09   -3.724E-09   -3.553E-09   -3.383E-09   -3.214E-09   -3.047E-09   -2.881E-09
    -2.715E-09   -2.551E-09   -2.389E-09   -2.227E-09   -2.067E-09   -1.908E-09   -1.751E-09   -1.595E-09   -1.440E-09   -1.286E-09
    -1.134E-09   -9.837E-10   -8.345E-10   -6.869E-10   -5.407E-10   -3.960E-10   -2.529E-10   -1.113E-10    2.880E-11    1.673E-10
     3.041E-10    4.394E-10    5.730E-10    7.050E-10    8.354E-10    9.641E-10    1.091E-09    1.216E-09    1.340E-09    1.462E-09
     1.582E-09    1.700E-09    1.817E-09    1.932E-09    2.045E-09    2.156E-09    2.265E-09    2.373E-09    2.479E-09    2.583E-09
     2.685E-09    2.785E-09    2.883E-09    2.980E-09    3.074E-09    3.167E-09    3.258E-09    3.347E-09    3.434E-09    3.519E-09
     3.602E-09    3.684E-09    3.763E-09    3.841E-09    3.916E-09    3.990E-09    4.061E-09    4.131E-09    4.199E-09    4.265E-09
     4.329E-09    4.391E-09    4.451E-09    4.509E-09    4.566E-09    4.620E-09    4.672E-09    4.723E-09    4.771E-09    4.818E-09
     4.863E-09    4.905E-09    4.946E-09    4.985E-09    5.022E-09    5.057E-09    5.091E-09    5.122E-09    5.152E-09    5.179E-09
     5.205E-09    5.229E-09    5.251E-09    5.272E-09    5.290E-09    5.307E-09    5.321E-09    5.334E-09    5.346E-09    5.355E-09
     5.363E-09    5.369E-09    5.373E-09    5.375E-09    5.376E-09    5.375E-09    5.372E-09    5.368E-09    5.362E-09    5.354E-09
     5.345E-09    5.334E-09    5.321E-09    5.307E-09    5.291E-09    5.274E-09    5.255E-09    5.235E-09    5.213E-09    5.190E-09
     5.165E-09    5.138E-09    5.111E-09    5.081E-09    5.051E-09    5.019E-09    4.986E-09    4.951E-09    4.915E-09    4.877E-09
     4.839E-09    4.799E-09    4.758E-09    4.716E-09    4.672E-09    4.627E-09    4.581E-09    4.534E-09    4.486E-09    4.437E-09
     4.387E-09    4.335E-09    4.283E-09    4.229E-09    4.175E-09    4.120E-09    4.063E-09    4.006E-09    3.948E-09    3.889E-09
     3.830E-09    3.769E-09    3.708E-09    3.646E-09    3.583E-09    3.519E-09    3.455E-09    3.390E-09    3.324E-09    3.258E-09
     3.191E-09    3.124E-09    3.056E-09    2.988E-09    2.919E-09    2.850E-09    2.780E-09    2.710E-09    2.639E-09    2.569E-09
     2.497E-09    2.426E-09    2.354E-09    2.282E-09    2.210E-09    2.138E-09    2.065E-09    1.992E-09    1.919E-09    1.846E-09
     1.773E-09    1.700E-09    1.627E-09    1.554E-09    1.481E-09    1.408E-09    1.335E-09    1.263E-09    1.190E-09    1.118E-09
     1.045E-09    9.735E-10    9.018E-10    8.303E-10    7.591E-10    6.883E-10    6.178E-10    5.477E-10    4.780E-10    4.087E-10
     3.399E-10    2.715E-10    2.037E-10    1.363E-10    6.956E-11    3.349E-12   -6.225E-11   -1.272E-10   -1.916E-10   -2.552E-10
    -3.182E-10   -3.804E-10   -4.419E-10   -5.027E-10   -5.627E-10   -6.218E-10   -6.801E-10   -7.376E-10   -7.942E-10   -8.499E-10
    -9.047E-10   -9.585E-10   -1.011E-09   -1.063E-09   -1.114E-09   -1.164E-09   -1.213E-09   -1.261E-09   -1.307E-09   -1.353E-09
    -1.397E-09   -1.441E-09   -1.483E-09   -1.524E-09   -1.563E-09   -1.602E-09   -1.639E-09   -1.675E-09   -1.710E-09   -1.744E-09
    -1.776E-09   -1.807E-09   -1.837E-09   -1.865E-09   -1.892E-09   -1.917E-09   -1.941E-09   -1.964E-09   -1.985E-09   -2.005E-09
    -2.024E-09   -2.041E-09   -2.056E-09   -2.070E-09   -2.083E-09   -2.094E-09   -2.103E-09   -2.111E-09   -2.118E-09   -2.122E-09
    -2.126E-09   -2.127E-09   -2.128E-09   -2.126E-09   -2.123E-09   -2.119E-09   -2.112E-09   -2.105E-09   -2.095E-09   -2.084E-09
    -2.071E-09   -2.057E-09   -2.041E-09   -2.023E-09   -2.004E-09   -1.983E-09   -1.960E-09   -1.936E-09   -1.910E-09   -1.882E-09
    -1.853E-09   -1.822E-09   -1.789E-09   -1.754E-09   -1.718E-09   -1.680E-09   -1.641E-09   -1.600E-09   -1.557E-09   -1.512E-09
    -1.466E-09   -1.418E-09   -1.368E-09   -1.317E-09   -1.264E-09   -1.209E-09   -1.153E-09   -1.095E-09   -1.035E-09   -9.738E-10
    -9.107E-10   -8.460E-10   -7.797E-10   -7.117E-10   -6.421E-10   -5.709E-10   -4.980E-10   -4.236E-10   -3.475E-10   -2.698E-10
    -1.906E-10   -1.097E-10   -2.733E-11    5.663E-11    1.421E-10    2.292E-10    3.178E-10    4.079E-10    4.994E-10    5.925E-10
     6.871E-10    7.831E-10    8.806E-10    9.795E-10    1.080E-09    1.182E-09    1.285E-09    1.389E-09    1.495E-09    1.602E-09
     1.711E-09    1.821E-09    1.932E-09    2.045E-09    2.158E-09    2.273E-09    2.390E-09    2.507E-09    2.626E-09    2.745E-09
     2.866E-09    2.989E-09    3.112E-09    3.236E-09    3.361E-09    3.488E-09    3.615E-09    3.744E-09    3.873E-09    4.004E-09
     4.135E-09    4.267E-09    4.400E-09
 Ala      Conc. = 8.19E-11
  -6.28056E-09 -6.08511E-09 -5.89747E-09 -5.70959E-09 -5.52111E-09 -5.33507E-09 -5.14223E-09 -4.95080E-09 -4.77854E-09 -4.59560E-09
  -4.40319E-09 -4.23224E-09 -4.06098E-09 -3.88339E-09 -3.71207E-09 -3.54321E-09 -3.37549E-09 -3.20871E-09 -3.04290E-09 -2.87808E-09
  -2.71430E-09 -2.55160E-09 -2.39004E-09 -2.22964E-09 -2.07046E-09 -1.91251E-09 -1.75583E-09 -1.60044E-09 -1.44639E-09 -1.29368E-09
  -1.14236E-09 -9.92434E-10 -8.43933E-10 -6.96882E-10 -5.51298E-10 -4.07205E-10 -2.64623E-10 -1.23571E-10  1.59310E-11  1.53865E-10
   2.90211E-10  4.24953E-10  5.58074E-10  6.89557E-10  8.19384E-10  9.47543E-10  1.07401E-09  1.19878E-09  1.32184E-09  1.44317E-09
   1.56275E-09  1.68057E-09  1.79663E-09  1.91091E-09  2.02338E-09  2.13405E-09  2.24291E-09  2.34994E-09  2.45512E-09  2.55847E-09
   2.65995E-09  2.75956E-09  2.85729E-09  2.95314E-09  3.04709E-09  3.13914E-09  3.22927E-09  3.31748E-09  3.40376E-09  3.48811E-09
   3.57051E-09  3.65096E-09  3.72946E-09  3.80598E-09  3.88054E-09  3.95312E-09  4.02370E-09  4.09230E-09  4.15887E-09  4.22345E-09
   4.28600E-09  4.34650E-09  4.40496E-09  4.46136E-09  4.51569E-09  4.56790E-09  4.61800E-09  4.66594E-09  4.71170E-09  4.75522E-09
   4.79645E-09  4.83533E-09  4.87175E-09  4.90560E-09  4.93671E-09  4.96487E-09  4.98986E-09  5.01149E-09  5.03064E-09  5.05754E-09
   5.16768E-09  5.23887E-09  5.24795E-09  5.33653E-09  5.43102E-09  5.49073E-09  5.53081E-09  5.57117E-09  5.61929E-09  5.66415E-09
   5.66380E-09  5.60691E-09  5.63222E-09  5.65095E-09  5.57510E-09  5.52700E-09  5.49639E-09  5.47314E-09  5.45327E-09  5.43494E-09
   5.41702E-09  5.39903E-09  5.38054E-09  5.36134E-09  5.34123E-09  5.32010E-09  5.29787E-09  5.27447E-09  5.24987E-09  5.22403E-09
   5.19694E-09  5.16859E-09  5.13895E-09  5.10804E-09  5.07584E-09  5.04239E-09  5.00765E-09  4.97166E-09  4.93443E-09  4.89596E-09
   4.85627E-09  4.81537E-09  4.77328E-09  4.73004E-09  4.68561E-09  4.64003E-09  4.59333E-09  4.54555E-09  4.49665E-09  4.44671E-09
   4.39573E-09  4.34370E-09  4.29068E-09  4.23670E-09  4.18173E-09  4.12582E-09  4.06902E-09  4.01134E-09  3.95278E-09  3.89343E-09
   3.83328E-09  3.77244E-09  3.71100E-09  3.64922E-09  3.58771E-09  3.52867E-09  3.48476E-09  3.49297E-09  3.46361E-09  3.39978E-09
   3.32653E-09  3.25329E-09  3.18048E-09  3.11097E-09  3.04825E-09  2.99217E-09  2.92730E-09  2.82215E-09  2.68111E-09  2.59083E-09
   2.51244E-09  2.43715E-09  2.36300E-09  2.28932E-09  2.21582E-09  2.14239E-09  2.06897E-09  1.99552E-09  1.92206E-09  1.84857E-09
   1.77508E-09  1.70159E-09  1.62813E-09  1.55472E-09  1.48138E-09  1.40812E-09  1.33497E-09  1.26197E-09  1.18912E-09  1.11646E-09
   1.04402E-09  9.71796E-10  8.99835E-10  8.28164E-10  7.56795E-10  6.85759E-10  6.15076E-10  5.44795E-10  4.74909E-10  4.05451E-10
   3.36450E-10  2.67938E-10  1.99932E-10  1.32461E-10  6.55304E-11 -8.18054E-13 -6.65540E-11 -1.31667E-10 -1.96140E-10 -2.59932E-10
  -3.23021E-10 -3.85388E-10 -4.47014E-10 -5.07879E-10 -5.67965E-10 -6.27217E-10 -6.85650E-10 -7.43231E-10 -7.99921E-10 -8.55714E-10
  -9.10589E-10 -9.64519E-10 -1.01748E-09 -1.06947E-09 -1.12044E-09 -1.17039E-09 -1.21930E-09 -1.26714E-09 -1.31390E-09 -1.35954E-09
  -1.40407E-09 -1.44745E-09 -1.48967E-09 -1.53071E-09 -1.57056E-09 -1.60919E-09 -1.64658E-09 -1.68273E-09 -1.71761E-09 -1.75120E-09
  -1.78350E-09 -1.81448E-09 -1.84413E-09 -1.87243E-09 -1.89937E-09 -1.92494E-09 -1.94911E-09 -1.97188E-09 -1.99324E-09 -2.01315E-09
  -2.03163E-09 -2.04864E-09 -2.06419E-09 -2.07825E-09 -2.09082E-09 -2.10188E-09 -2.11142E-09 -2.11943E-09 -2.12590E-09 -2.13083E-09
  -2.13419E-09 -2.13599E-09 -2.13620E-09 -2.13483E-09 -2.13186E-09 -2.12729E-09 -2.12111E-09 -2.11331E-09 -2.10388E-09 -2.09281E-09
  -2.08011E-09 -2.06576E-09 -2.04976E-09 -2.03211E-09 -2.01279E-09 -1.99181E-09 -1.96915E-09 -1.94482E-09 -1.91881E-09 -1.89113E-09
  -1.86176E-09 -1.83070E-09 -1.79795E-09 -1.76352E-09 -1.72739E-09 -1.68958E-09 -1.65007E-09 -1.60887E-09 -1.56598E-09 -1.52139E-09
  -1.47512E-09 -1.42716E-09 -1.37751E-09 -1.32618E-09 -1.27316E-09 -1.21847E-09 -1.16210E-09 -1.10406E-09 -1.04435E-09 -9.82975E-10
  -9.19944E-10 -8.55261E-10 -7.88930E-10 -7.20957E-10 -6.51350E-10 -5.80115E-10 -5.07259E-10 -4.32789E-10 -3.56715E-10 -2.79044E-10
  -1.99785E-10 -1.18947E-10 -3.65394E-11  4.74273E-11  1.32943E-10  2.19997E-10  3.08579E-10  3.98676E-10  4.90278E-10  5.83372E-10
   6.77945E-10  7.73985E-10  8.71477E-10  9.70410E-10  1.07077E-09  1.17254E-09  1.27570E-09  1.38025E-09  1.48616E-09  1.59343E-09
   1.70202E-09  1.81194E-09  1.92315E-09  2.03565E-09  2.14942E-09  2.26443E-09  2.38067E-09  2.49813E-09  2.61677E-09  2.73659E-09
   2.85757E-09  2.97968E-09  3.10290E-09  3.22721E-09  3.35260E-09  3.47904E-09  3.60651E-09  3.73498E-09  3.86445E-09  3.99488E-09
   4.12624E-09  4.25853E-09  4.39171E-09
 GABA     Conc. = 1.68E-10
  -6.30200E-09 -6.12061E-09 -5.94002E-09 -5.76028E-09 -5.58139E-09 -5.40343E-09 -5.22641E-09 -5.05038E-09 -4.87540E-09 -4.70149E-09
  -4.52870E-09 -4.35710E-09 -4.18671E-09 -4.01760E-09 -3.84985E-09 -3.68348E-09 -3.51860E-09 -3.35533E-09 -3.19373E-09 -3.03393E-09
  -2.87611E-09 -2.72044E-09 -2.56717E-09 -2.41664E-09 -2.26927E-09 -2.12574E-09 -1.98705E-09 -1.85459E-09 -1.72932E-09 -1.58809E-09
  -1.41043E-09 -1.27951E-09 -1.14052E-09 -9.22933E-10 -7.29949E-10 -5.68162E-10 -3.78416E-10 -1.76469E-10  2.44499E-11  2.13781E-10
   3.70622E-10  5.26769E-10  7.25888E-10  8.61630E-10  9.49230E-10  1.08470E-09  1.21069E-09  1.30500E-09  1.40234E-09  1.50236E-09
   1.60375E-09  1.70552E-09  1.80678E-09  1.90702E-09  2.00589E-09  2.10293E-09  2.19772E-09  2.28983E-09  2.37870E-09  2.46394E-09
   2.54597E-09  2.63435E-09  2.77674E-09  2.89041E-09  2.96917E-09  3.14053E-09  3.30233E-09  3.40615E-09  3.52382E-09  3.65346E-09
   3.78231E-09  3.90244E-09  3.99073E-09  4.04772E-09  4.15742E-09  4.23635E-09  4.22574E-09  4.27056E-09  4.32685E-09  4.35188E-09
   4.40845E-09  4.45170E-09  4.47379E-09  4.55683E-09  4.63950E-09  4.68079E-09  4.75519E-09  4.84094E-09  4.91017E-09  4.98677E-09
   5.05003E-09  5.09784E-09  5.17659E-09  5.23886E-09  5.24437E-09  5.28705E-09  5.33828E-09  5.34036E-09  5.35185E-09  5.37325E-09
   5.38277E-09  5.39129E-09  5.40050E-09  5.40991E-09  5.41906E-09  5.42758E-09  5.43521E-09  5.44181E-09  5.44727E-09  5.45149E-09
   5.45446E-09  5.45601E-09  5.45617E-09  5.45485E-09  5.45208E-09  5.44782E-09  5.44209E-09  5.43486E-09  5.42613E-09  5.41594E-09
   5.40415E-09  5.39089E-09  5.37613E-09  5.35989E-09  5.34215E-09  5.32294E-09  5.30226E-09  5.28012E-09  5.25654E-09  5.23153E-09
   5.20509E-09  5.17726E-09  5.14802E-09  5.11742E-09  5.08545E-09  5.05215E-09  5.01751E-09  4.98156E-09  4.94432E-09  4.90580E-09
   4.86604E-09  4.82503E-09  4.78279E-09  4.73939E-09  4.69478E-09  4.64900E-09  4.60209E-09  4.55407E-09  4.50493E-09  4.45473E-09
   4.40349E-09  4.35119E-09  4.29788E-09  4.24361E-09  4.18835E-09  4.13214E-09  4.07504E-09  4.01706E-09  3.95823E-09  3.89862E-09
   3.83826E-09  3.77731E-09  3.71595E-09  3.65467E-09  3.59470E-09  3.54053E-09  3.51779E-09  3.60340E-09  3.61275E-09  3.55164E-09
   3.47162E-09  3.39215E-09  3.31411E-09  3.24337E-09  3.18709E-09  3.14499E-09  3.08559E-09  2.94392E-09  2.72801E-09  2.61697E-09
   2.53094E-09  2.45166E-09  2.37500E-09  2.29957E-09  2.22474E-09  2.15026E-09  2.07596E-09  2.00178E-09  1.92767E-09  1.85362E-09
   1.77960E-09  1.70565E-09  1.63175E-09  1.55794E-09  1.48423E-09  1.41061E-09  1.33713E-09  1.26381E-09  1.19065E-09  1.11770E-09
   1.04498E-09  9.72485E-10  9.00263E-10  8.28338E-10  7.56724E-10  6.85450E-10  6.14535E-10  5.44028E-10  4.73922E-10  4.04249E-10
   3.35039E-10  2.66322E-10  1.98115E-10  1.30448E-10  6.33247E-11 -3.21223E-12 -6.91330E-11 -1.34427E-10 -1.99078E-10 -2.63044E-10
  -3.26305E-10 -3.88841E-10 -4.50633E-10 -5.11661E-10 -5.71906E-10 -6.31315E-10 -6.89904E-10 -7.47637E-10 -8.04477E-10 -8.60418E-10
