 LCModel (Version 6.3-1R) Copyright: S.W. Provencher.          Ref.: Magn. Reson. Med. 30:672-679 (1993).                
 onepulse 15x21_ftSpec_smooth_lcm
 26 lines in following concentration table = NCONC+1
    Conc.  %SD   /Cr    Metabolite                                         
    0.000 999%   0.000 Ala                                                 
    0.000 999%   0.000 Asp                                                 
    0.000 999%   0.000 Cr                                                  
 1.95E-09  31%   0.000 GABA                                                
 1.60E-09  33%   0.000 Glc                                                 
    0.000 999%   0.000 Gln                                                 
 3.75E-10 174%   0.000 Glu                                                 
    0.000 999%   0.000 Glyc                                                
 1.24E-10  76%   0.000 GPC                                                 
 3.18E-10 107%   0.000 GSH                                                 
 2.82E-10 139%   0.000 Ins                                                 
    0.000 999%   0.000 Lac                                                 
    0.000 999%   0.000 NAAG                                                
 4.00E-10  75%   0.000 NAA                                                 
    0.000 999%   0.000 PCh                                                 
    0.000 999%   0.000 PCr                                                 
    0.000 999%   0.000 PE                                                  
    0.000 999%   0.000 Scyllo                                              
    0.000 999%   0.000 Ser                                                 
    0.000 999%   0.000 Tau                                                 
 1.24E-10  76%   0.000 GPC+PCh                                             
 4.00E-10  75%   0.000 NAA+NAAG                                            
 2.82E-10 139%   0.000 Ins+Glyc                                            
    0.000 999%   0.000 Cr+PCr                                              
 3.75E-10 174%   0.000 Glu+Gln                                             
   6 lines in following misc. output table
  FWHM = 0.067 ppm    S/N =   2                                            
  Data shift = 0.279 ppm                                                   
  Ph: -28 deg      -7.2 deg/ppm                                            
  alphaB,S = 5.3E-01,   3.7E+01                                            
    9 spline knots.   Ns = 5(1)                                            
  ( 9) 4 infls.   ( 3) 1 extrs.                                            
  363 points on ppm-axis = NY
      4.250000     4.238821     4.227641     4.216462     4.205282     4.194103     4.182923     4.171744     4.160564     4.149385
      4.138206     4.127026     4.115847     4.104667     4.093488     4.082308     4.071129     4.059949     4.048770     4.037591
      4.026411     4.015232     4.004052     3.992873     3.981693     3.970514     3.959334     3.948155     3.936975     3.925796
      3.914617     3.903437     3.892258     3.881078     3.869899     3.858719     3.847540     3.836360     3.825181     3.814002
      3.802822     3.791643     3.780463     3.769284     3.758104     3.746925     3.735745     3.724566     3.713387     3.702207
      3.691028     3.679848     3.668669     3.657489     3.646310     3.635130     3.623951     3.612772     3.601592     3.590413
      3.579233     3.568054     3.556874     3.545695     3.534515     3.523336     3.512156     3.500977     3.489798     3.478618
      3.467439     3.456259     3.445080     3.433900     3.422721     3.411541     3.400362     3.389183     3.378003     3.366824
      3.355644     3.344465     3.333285     3.322106     3.310926     3.299747     3.288568     3.277388     3.266209     3.255029
      3.243850     3.232670     3.221491     3.210311     3.199132     3.187953     3.176773     3.165594     3.154414     3.143235
      3.132055     3.120876     3.109696     3.098517     3.087337     3.076158     3.064979     3.053799     3.042620     3.031440
      3.020261     3.009081     2.997902     2.986722     2.975543     2.964364     2.953184     2.942005     2.930825     2.919646
      2.908466     2.897287     2.886107     2.874928     2.863749     2.852569     2.841390     2.830210     2.819031     2.807851
      2.796672     2.785492     2.774313     2.763134     2.751954     2.740775     2.729595     2.718416     2.707236     2.696057
      2.684877     2.673698     2.662519     2.651339     2.640160     2.628980     2.617801     2.606621     2.595442     2.584262
      2.573083     2.561903     2.550724     2.539545     2.528365     2.517186     2.506006     2.494827     2.483647     2.472468
      2.461288     2.450109     2.438930     2.427750     2.416571     2.405391     2.394212     2.383032     2.371853     2.360673
      2.349494     2.338315     2.327135     2.315956     2.304776     2.293597     2.282417     2.271238     2.260058     2.248879
      2.237700     2.226520     2.215341     2.204161     2.192982     2.181802     2.170623     2.159443     2.148264     2.137084
      2.125905     2.114726     2.103546     2.092367     2.081187     2.070008     2.058828     2.047649     2.036469     2.025290
      2.014111     2.002931     1.991752     1.980572     1.969393     1.958213     1.947034     1.935854     1.924675     1.913496
      1.902316     1.891137     1.879957     1.868778     1.857598     1.846419     1.835239     1.824060     1.812881     1.801701
      1.790522     1.779342     1.768163     1.756983     1.745804     1.734624     1.723445     1.712265     1.701086     1.689907
      1.678727     1.667548     1.656368     1.645189     1.634009     1.622830     1.611650     1.600471     1.589292     1.578112
      1.566933     1.555753     1.544574     1.533394     1.522215     1.511035     1.499856     1.488677     1.477497     1.466318
      1.455138     1.443959     1.432779     1.421600     1.410420     1.399241     1.388062     1.376882     1.365703     1.354523
      1.343344     1.332164     1.320985     1.309805     1.298626     1.287446     1.276267     1.265088     1.253908     1.242729
      1.231549     1.220370     1.209190     1.198011     1.186831     1.175652     1.164473     1.153293     1.142114     1.130934
      1.119755     1.108575     1.097396     1.086216     1.075037     1.063858     1.052678     1.041499     1.030319     1.019140
      1.007960     0.996781     0.985601     0.974422     0.963243     0.952063     0.940884     0.929704     0.918525     0.907345
      0.896166     0.884986     0.873807     0.862628     0.851448     0.840269     0.829089     0.817910     0.806730     0.795551
      0.784371     0.773192     0.762012     0.750833     0.739654     0.728474     0.717295     0.706115     0.694936     0.683756
      0.672577     0.661397     0.650218     0.639039     0.627859     0.616680     0.605500     0.594321     0.583141     0.571962
      0.560782     0.549603     0.538424     0.527244     0.516065     0.504885     0.493706     0.482526     0.471347     0.460167
      0.448988     0.437809     0.426629     0.415450     0.404270     0.393091     0.381911     0.370732     0.359552     0.348373
      0.337193     0.326014     0.314835     0.303655     0.292476     0.281296     0.270117     0.258937     0.247758     0.236578
      0.225399     0.214220     0.203040
 NY phased data points follow
   7.69005E-09  8.46917E-09  9.06201E-09  1.00716E-08  1.12641E-08  1.27626E-08  1.38640E-08  1.37926E-08  1.27489E-08  1.13076E-08
   1.02537E-08  9.15511E-09  8.59433E-09  8.35208E-09  8.15328E-09  7.91932E-09  8.28377E-09  8.66177E-09  8.32533E-09  8.34179E-09
   8.86542E-09  8.80266E-09  8.32480E-09  8.50724E-09  8.25051E-09  7.28752E-09  7.58398E-09  7.18582E-09  7.14840E-09  7.42018E-09
   7.63204E-09  7.99495E-09  7.88170E-09  7.06221E-09  8.22998E-09  6.45405E-09  7.11455E-09  7.50094E-09  8.98730E-09  7.88802E-09
   8.30120E-09  7.31241E-09  5.54769E-09  5.12768E-09  4.13903E-09  3.76889E-09  3.86673E-09  3.76308E-09  3.88553E-09  2.84345E-09
   4.03261E-09  3.07749E-09  2.57898E-09  2.50272E-09  2.14346E-09  3.12673E-09  3.53639E-09  3.04900E-09  3.40700E-09  3.68656E-09
   3.66351E-09  3.45709E-09  3.73578E-09  3.44283E-09  3.47059E-09  4.16003E-09  4.98491E-09  5.40510E-09  7.43424E-09  8.53926E-09
   9.67541E-09  7.83664E-09  7.52640E-09  5.93328E-09  5.65833E-09  3.71765E-09  4.00660E-09  2.66962E-09  3.28773E-09  2.88406E-09
   3.30172E-09  2.42809E-09  4.42129E-09  5.08727E-09  6.40699E-09  7.65961E-09  9.85455E-09  9.85910E-09  9.65990E-09  7.71243E-09
   6.44165E-09  5.46671E-09  4.92582E-09  4.25294E-09  3.67460E-09  3.03485E-09  3.27568E-09  2.94468E-09  2.48848E-09  1.89208E-09
   1.50008E-09  7.60654E-10  1.55225E-09  6.35751E-10  9.65719E-10  1.74102E-10  1.27649E-09  9.28662E-10  2.12589E-10  7.11763E-10
   5.61346E-10 -1.44601E-10  4.90054E-10 -3.02295E-10 -6.27523E-12 -1.31623E-09 -1.26285E-10 -1.19990E-09 -6.79906E-10 -2.40162E-10
   1.81843E-10  5.80620E-10  5.56333E-10  7.40065E-10  1.22762E-09  1.87217E-10  7.23717E-10  7.72305E-10  9.23007E-10 -3.69897E-10
   1.17882E-11 -6.79069E-10 -5.97706E-10 -1.04610E-09  1.16877E-10  1.72023E-10  8.60516E-11 -1.20729E-10  6.77187E-10  3.99592E-10
   1.07309E-09 -3.03398E-10  8.92904E-10  5.93503E-10  1.02326E-09  1.32929E-09  2.27271E-09  2.51669E-09  2.49877E-09  2.04293E-09
   2.18681E-09  2.41197E-09  2.95259E-09  2.55705E-09  2.69653E-09  2.56504E-09  2.40769E-09  2.06651E-09  2.56634E-09  2.18589E-09
   1.85204E-09  1.62259E-09  1.92245E-09  2.03764E-09  2.11609E-09  2.32105E-09  2.31102E-09  2.51319E-09  2.33267E-09  1.49397E-09
   1.86966E-09  2.46849E-09  2.72961E-09  3.45313E-09  5.21414E-09  6.69807E-09  8.24334E-09  9.74416E-09  1.01640E-08  8.50214E-09
   6.06378E-09  3.66678E-09  2.17628E-09  1.12927E-09 -7.52900E-11 -1.57682E-09 -1.54693E-09 -2.73986E-09 -3.35342E-09 -5.26829E-09
  -4.87085E-09 -6.80260E-09 -7.52247E-09 -8.80617E-09 -9.48815E-09 -1.09916E-08 -1.16158E-08 -1.34516E-08 -1.43695E-08 -1.55607E-08
  -1.66499E-08 -1.72576E-08 -1.84481E-08 -1.89162E-08 -1.89695E-08 -1.85481E-08 -1.81724E-08 -1.77122E-08 -1.56778E-08 -1.54751E-08
  -1.36460E-08 -1.17556E-08 -9.28610E-09 -8.54745E-09 -5.63578E-09 -4.71917E-09 -3.11299E-09 -1.80853E-09 -6.74282E-10  9.20782E-11
   7.47425E-10  4.80065E-10 -1.88598E-10 -9.09356E-10 -1.25258E-10 -1.18142E-09 -7.82722E-10 -1.60595E-09 -9.99227E-10 -1.84081E-09
  -4.98708E-10 -1.20341E-09 -3.71243E-10 -6.64152E-10 -8.49705E-10 -3.12642E-10 -1.30916E-09 -1.95532E-09 -1.17428E-09 -1.55407E-09
  -1.11298E-09 -9.08642E-10 -6.06634E-11 -7.22073E-10 -2.74818E-10 -7.45141E-10 -7.44344E-10 -5.96866E-10 -1.07741E-09 -1.44604E-09
  -1.07378E-09 -5.59754E-10 -1.03773E-09 -8.83234E-10 -4.32369E-10 -2.81723E-10  3.17007E-11 -1.50786E-10  2.86969E-11  3.79749E-10
  -1.76386E-10 -4.83191E-10 -1.57600E-11 -1.08384E-09 -5.74473E-10 -7.45654E-10 -1.02775E-09 -1.37789E-09 -6.22878E-10 -1.43651E-09
  -1.03308E-09 -6.30286E-10 -3.21640E-10 -3.12213E-10  2.72966E-10  2.09814E-10  2.41973E-10  3.50368E-10  1.68525E-10  7.38526E-10
   8.87375E-10  2.97502E-10  7.78164E-10  3.37963E-11  3.92376E-10  5.26261E-11  2.04395E-10 -2.21694E-10 -5.04569E-11 -6.51718E-10
  -3.81046E-10 -1.15703E-10  3.33587E-10 -6.02352E-10 -4.77528E-10 -4.79702E-10 -2.06783E-10 -1.23514E-09 -4.01449E-10 -5.76076E-10
  -6.94006E-10 -3.64885E-10 -6.12177E-10 -9.03054E-10 -8.44239E-10 -1.99608E-10 -7.76698E-10 -7.79772E-10 -3.40555E-10 -5.95910E-10
  -5.08135E-10 -4.78742E-10 -2.16867E-10 -4.22727E-10 -2.76193E-10 -2.21850E-10  2.37680E-10 -4.63510E-10 -1.68186E-10 -2.29019E-10
   3.35918E-10 -4.01506E-10 -6.73195E-11 -7.92907E-10  6.93465E-10 -1.60687E-10  1.90956E-10  2.33254E-10  4.28754E-10 -2.06029E-10
   5.08027E-10  4.41765E-10  6.04828E-10  2.47468E-11  5.15551E-10  2.16528E-10  7.15027E-10  8.02010E-11  7.21913E-10  3.06319E-10
   3.53977E-10  9.45295E-10  1.04409E-09  5.87237E-10  1.28112E-09  7.66553E-10  1.05270E-09  4.93938E-10  1.53682E-09  3.47044E-10
   1.15993E-09  8.47171E-10  1.39335E-09  6.67153E-10  9.71008E-10  4.57358E-10  1.48657E-09  1.36140E-09  1.03659E-09  9.11264E-10
   1.40391E-09  8.84078E-10  1.24517E-09
 NY points of the fit to the data follow
   8.80512E-09  9.27657E-09  9.74380E-09  1.03420E-08  1.09161E-08  1.13598E-08  1.13815E-08  1.09828E-08  1.01457E-08  9.10167E-09
   8.49780E-09  8.27541E-09  8.21543E-09  8.34907E-09  8.58770E-09  8.81026E-09  9.04716E-09  9.26645E-09  9.28542E-09  9.25668E-09
   9.42479E-09  9.55980E-09  9.40244E-09  9.03101E-09  8.31947E-09  7.46389E-09  6.98039E-09  6.96339E-09  7.26371E-09  7.77723E-09
   8.22248E-09  8.35519E-09  8.30164E-09  7.98214E-09  7.45231E-09  7.43869E-09  7.77655E-09  8.06746E-09  8.18194E-09  8.12520E-09
   7.93708E-09  7.71740E-09  7.16728E-09  6.15884E-09  5.42310E-09  4.89198E-09  4.17650E-09  3.53749E-09  3.23581E-09  3.12132E-09
   3.09857E-09  3.10887E-09  3.11045E-09  3.11756E-09  3.16609E-09  3.25583E-09  3.40466E-09  3.56963E-09  3.70734E-09  3.79625E-09
   3.84468E-09  3.94895E-09  4.30206E-09  4.64348E-09  4.97831E-09  5.58747E-09  6.17492E-09  6.56727E-09  6.94379E-09  7.24476E-09
   7.37411E-09  7.16669E-09  6.62211E-09  6.02669E-09  5.60195E-09  4.79367E-09  4.10490E-09  4.40743E-09  4.68056E-09  4.72217E-09
   4.92457E-09  5.18624E-09  5.48980E-09  5.91474E-09  6.32765E-09  6.43074E-09  6.12825E-09  5.44365E-09  4.65976E-09  4.49734E-09
   4.46734E-09  4.48488E-09  4.54743E-09  4.31382E-09  3.91696E-09  3.79848E-09  3.52365E-09  3.01380E-09  2.73077E-09  2.51515E-09
   2.24489E-09  2.04069E-09  1.89092E-09  1.77332E-09  1.67598E-09  1.59195E-09  1.51712E-09  1.44912E-09  1.38625E-09  1.32715E-09
   1.27063E-09  1.21546E-09  1.16121E-09  1.10753E-09  1.05419E-09  1.00099E-09  9.47652E-10  8.93752E-10  8.39098E-10  7.83551E-10
   7.26956E-10  6.69252E-10  6.10355E-10  5.50244E-10  4.88927E-10  4.26430E-10  3.62766E-10  2.97964E-10  2.32083E-10  1.65155E-10
   9.72163E-11  2.83231E-11 -4.14724E-11 -1.12111E-10 -1.83538E-10 -2.55695E-10 -3.28527E-10 -4.01979E-10 -4.75984E-10 -5.50468E-10
  -6.25352E-10 -7.00564E-10 -7.76035E-10 -8.51698E-10 -9.27477E-10 -1.00327E-09 -1.07899E-09 -1.15452E-09 -1.22976E-09 -1.30460E-09
  -1.37891E-09 -1.45255E-09 -1.52533E-09 -1.59705E-09 -1.66748E-09 -1.73631E-09 -1.80315E-09 -1.86750E-09 -1.92866E-09 -1.98565E-09
  -2.03700E-09 -2.08037E-09 -2.11182E-09 -2.12391E-09 -2.10061E-09 -1.99880E-09 -1.64891E-09 -3.49726E-10  1.20665E-09  2.45814E-09
   3.44804E-09  4.47514E-09  5.76643E-09  7.26232E-09  8.51124E-09  8.69891E-09  7.02078E-09  3.41438E-09 -6.23545E-10 -2.24567E-09
  -2.77305E-09 -3.03333E-09 -3.19378E-09 -3.30639E-09 -3.39222E-09 -3.46131E-09 -3.51903E-09 -3.56848E-09 -3.61157E-09 -3.64954E-09
  -3.68324E-09 -3.71324E-09 -3.73998E-09 -3.76377E-09 -3.78485E-09 -3.80341E-09 -3.81959E-09 -3.83353E-09 -3.84531E-09 -3.85503E-09
  -3.86276E-09 -3.86857E-09 -3.87251E-09 -3.87464E-09 -3.87499E-09 -3.87362E-09 -3.87057E-09 -3.86586E-09 -3.85955E-09 -3.85167E-09
  -3.84224E-09 -3.83130E-09 -3.81888E-09 -3.80501E-09 -3.78973E-09 -3.77306E-09 -3.75502E-09 -3.73565E-09 -3.71498E-09 -3.69303E-09
  -3.66983E-09 -3.64540E-09 -3.61977E-09 -3.59298E-09 -3.56505E-09 -3.53599E-09 -3.50584E-09 -3.47463E-09 -3.44237E-09 -3.40911E-09
  -3.37485E-09 -3.33963E-09 -3.30347E-09 -3.26640E-09 -3.22844E-09 -3.18962E-09 -3.14997E-09 -3.10951E-09 -3.06826E-09 -3.02626E-09
  -2.98351E-09 -2.94006E-09 -2.89593E-09 -2.85113E-09 -2.80571E-09 -2.75969E-09 -2.71309E-09 -2.66594E-09 -2.61828E-09 -2.57013E-09
  -2.52152E-09 -2.47247E-09 -2.42302E-09 -2.37319E-09 -2.32301E-09 -2.27250E-09 -2.22170E-09 -2.17063E-09 -2.11932E-09 -2.06780E-09
  -2.01610E-09 -1.96424E-09 -1.91225E-09 -1.86016E-09 -1.80799E-09 -1.75578E-09 -1.70356E-09 -1.65134E-09 -1.59916E-09 -1.54705E-09
  -1.49502E-09 -1.44313E-09 -1.39137E-09 -1.33980E-09 -1.28843E-09 -1.23729E-09 -1.18641E-09 -1.13581E-09 -1.08553E-09 -1.03560E-09
  -9.86037E-10 -9.36856E-10 -8.88113E-10 -8.39825E-10 -7.92018E-10 -7.44710E-10 -6.97954E-10 -6.51756E-10 -6.06136E-10 -5.61150E-10
  -5.16803E-10 -4.73145E-10 -4.30174E-10 -3.87943E-10 -3.46461E-10 -3.05758E-10 -2.65877E-10 -2.26841E-10 -1.88676E-10 -1.51406E-10
  -1.15046E-10 -7.96287E-11 -4.52189E-11 -1.17822E-11  2.06874E-11  5.22189E-11  8.28374E-11  1.12562E-10  1.41426E-10  1.69445E-10
   1.96647E-10  2.23059E-10  2.48706E-10  2.73605E-10  2.97790E-10  3.21283E-10  3.44109E-10  3.66289E-10  3.87854E-10  4.08820E-10
   4.29221E-10  4.49078E-10  4.68412E-10  4.87250E-10  5.05618E-10  5.23544E-10  5.41051E-10  5.58159E-10  5.74891E-10  5.91286E-10
   6.07350E-10  6.23112E-10  6.38614E-10  6.53863E-10  6.68880E-10  6.83709E-10  6.98367E-10  7.12866E-10  7.27243E-10  7.41527E-10
   7.55724E-10  7.69885E-10  7.84010E-10  7.98138E-10  8.12283E-10  8.26481E-10  8.40756E-10  8.55125E-10  8.69617E-10  8.84263E-10
   8.99073E-10  9.14082E-10  9.29310E-10  9.44785E-10  9.60540E-10  9.76583E-10  9.92942E-10  1.00965E-09  1.02673E-09  1.04419E-09
   1.06209E-09  1.08042E-09  1.09923E-09
 NY background values follow
     2.662E-09    2.634E-09    2.606E-09    2.578E-09    2.549E-09    2.521E-09    2.493E-09    2.464E-09    2.436E-09    2.408E-09
     2.379E-09    2.351E-09    2.323E-09    2.295E-09    2.266E-09    2.238E-09    2.210E-09    2.182E-09    2.155E-09    2.127E-09
     2.099E-09    2.072E-09    2.045E-09    2.018E-09    1.991E-09    1.964E-09    1.938E-09    1.911E-09    1.885E-09    1.859E-09
     1.834E-09    1.808E-09    1.783E-09    1.758E-09    1.734E-09    1.710E-09    1.686E-09    1.662E-09    1.639E-09    1.616E-09
     1.593E-09    1.571E-09    1.549E-09    1.528E-09    1.507E-09    1.486E-09    1.466E-09    1.446E-09    1.427E-09    1.408E-09
     1.389E-09    1.372E-09    1.354E-09    1.337E-09    1.321E-09    1.305E-09    1.289E-09    1.275E-09    1.260E-09    1.247E-09
     1.233E-09    1.221E-09    1.209E-09    1.197E-09    1.186E-09    1.176E-09    1.166E-09    1.156E-09    1.147E-09    1.137E-09
     1.128E-09    1.120E-09    1.111E-09    1.103E-09    1.094E-09    1.086E-09    1.078E-09    1.069E-09    1.061E-09    1.052E-09
     1.044E-09    1.035E-09    1.026E-09    1.016E-09    1.006E-09    9.961E-10    9.855E-10    9.744E-10    9.629E-10    9.509E-10
     9.382E-10    9.250E-10    9.111E-10    8.965E-10    8.812E-10    8.652E-10    8.483E-10    8.305E-10    8.118E-10    7.923E-10
     7.717E-10    7.501E-10    7.275E-10    7.037E-10    6.788E-10    6.528E-10    6.255E-10    5.969E-10    5.671E-10    5.359E-10
     5.033E-10    4.693E-10    4.339E-10    3.969E-10    3.584E-10    3.183E-10    2.766E-10    2.332E-10    1.881E-10    1.412E-10
     9.258E-11    4.211E-11   -1.019E-11   -6.426E-11   -1.200E-10   -1.774E-10   -2.364E-10   -2.969E-10   -3.588E-10   -4.221E-10
    -4.867E-10   -5.525E-10   -6.194E-10   -6.875E-10   -7.566E-10   -8.267E-10   -8.977E-10   -9.695E-10   -1.042E-09   -1.115E-09
    -1.189E-09   -1.264E-09   -1.339E-09   -1.414E-09   -1.490E-09   -1.566E-09   -1.642E-09   -1.719E-09   -1.795E-09   -1.872E-09
    -1.949E-09   -2.025E-09   -2.101E-09   -2.178E-09   -2.253E-09   -2.329E-09   -2.404E-09   -2.478E-09   -2.552E-09   -2.625E-09
    -2.698E-09   -2.770E-09   -2.841E-09   -2.911E-09   -2.980E-09   -3.048E-09   -3.115E-09   -3.181E-09   -3.245E-09   -3.309E-09
    -3.371E-09   -3.431E-09   -3.490E-09   -3.547E-09   -3.603E-09   -3.657E-09   -3.709E-09   -3.760E-09   -3.808E-09   -3.855E-09
    -3.899E-09   -3.942E-09   -3.982E-09   -4.020E-09   -4.056E-09   -4.090E-09   -4.122E-09   -4.152E-09   -4.180E-09   -4.205E-09
    -4.229E-09   -4.251E-09   -4.271E-09   -4.289E-09   -4.305E-09   -4.320E-09   -4.332E-09   -4.343E-09   -4.352E-09   -4.359E-09
    -4.365E-09   -4.368E-09   -4.370E-09   -4.371E-09   -4.370E-09   -4.367E-09   -4.363E-09   -4.357E-09   -4.349E-09   -4.340E-09
    -4.330E-09   -4.318E-09   -4.305E-09   -4.290E-09   -4.274E-09   -4.257E-09   -4.238E-09   -4.218E-09   -4.197E-09   -4.174E-09
    -4.151E-09   -4.126E-09   -4.099E-09   -4.072E-09   -4.044E-09   -4.014E-09   -3.984E-09   -3.952E-09   -3.919E-09   -3.886E-09
    -3.851E-09   -3.816E-09   -3.779E-09   -3.742E-09   -3.703E-09   -3.664E-09   -3.624E-09   -3.583E-09   -3.542E-09   -3.499E-09
    -3.456E-09   -3.413E-09   -3.368E-09   -3.323E-09   -3.278E-09   -3.231E-09   -3.184E-09   -3.137E-09   -3.089E-09   -3.041E-09
    -2.992E-09   -2.942E-09   -2.893E-09   -2.843E-09   -2.792E-09   -2.742E-09   -2.690E-09   -2.639E-09   -2.588E-09   -2.536E-09
    -2.484E-09   -2.432E-09   -2.380E-09   -2.327E-09   -2.275E-09   -2.223E-09   -2.170E-09   -2.118E-09   -2.065E-09   -2.013E-09
    -1.961E-09   -1.909E-09   -1.857E-09   -1.805E-09   -1.753E-09   -1.702E-09   -1.651E-09   -1.600E-09   -1.550E-09   -1.500E-09
    -1.450E-09   -1.400E-09   -1.351E-09   -1.303E-09   -1.255E-09   -1.207E-09   -1.161E-09   -1.114E-09   -1.068E-09   -1.023E-09
    -9.786E-10   -9.347E-10   -8.916E-10   -8.492E-10   -8.075E-10   -7.666E-10   -7.265E-10   -6.873E-10   -6.489E-10   -6.115E-10
    -5.749E-10   -5.393E-10   -5.047E-10   -4.711E-10   -4.384E-10   -4.067E-10   -3.759E-10   -3.460E-10   -3.169E-10   -2.887E-10
    -2.613E-10   -2.347E-10   -2.089E-10   -1.838E-10   -1.594E-10   -1.358E-10   -1.127E-10   -9.037E-11   -6.861E-11   -4.745E-11
    -2.686E-11   -6.810E-12    1.272E-11    3.175E-11    5.031E-11    6.843E-11    8.614E-11    1.034E-10    1.204E-10    1.370E-10
     1.532E-10    1.692E-10    1.849E-10    2.003E-10    2.156E-10    2.306E-10    2.454E-10    2.601E-10    2.747E-10    2.892E-10
     3.036E-10    3.180E-10    3.323E-10    3.467E-10    3.610E-10    3.754E-10    3.899E-10    4.045E-10    4.192E-10    4.340E-10
     4.491E-10    4.643E-10    4.797E-10    4.954E-10    5.114E-10    5.277E-10    5.442E-10    5.612E-10    5.785E-10    5.962E-10
     6.143E-10    6.328E-10    6.519E-10
 GABA     Conc. = 1.95E-09
   2.86588E-09  2.84015E-09  2.81452E-09  2.78901E-09  2.76366E-09  2.73849E-09  2.71354E-09  2.68886E-09  2.66450E-09  2.64051E-09
   2.61695E-09  2.59388E-09  2.57146E-09  2.54971E-09  2.52882E-09  2.50895E-09  2.49018E-09  2.47277E-09  2.45711E-09  2.44345E-09
   2.43228E-09  2.42431E-09  2.42035E-09  2.42177E-09  2.43072E-09  2.45024E-09  2.48600E-09  2.54855E-09  2.66194E-09  2.89611E-09
   3.18544E-09  3.42452E-09  3.83526E-09  4.41148E-09  4.92173E-09  5.41552E-09  5.91672E-09  6.30413E-09  6.47175E-09  6.39304E-09
   6.14674E-09  5.86731E-09  5.29453E-09  4.34298E-09  3.76140E-09  3.42147E-09  2.84397E-09  2.38211E-09  2.15858E-09  2.02843E-09
   1.94470E-09  1.88830E-09  1.84997E-09  1.82534E-09  1.81212E-09  1.80916E-09  1.81701E-09  1.83780E-09  1.87572E-09  1.93916E-09
   2.04485E-09  2.23605E-09  2.58601E-09  2.89545E-09  3.19649E-09  3.74648E-09  4.30278E-09  4.74783E-09  5.18381E-09  5.53710E-09
   5.68118E-09  5.53333E-09  5.12990E-09  4.64688E-09  4.21311E-09  3.35609E-09  2.51749E-09  2.36707E-09  2.13751E-09  1.78162E-09
   1.71134E-09  1.71741E-09  1.74141E-09  1.94240E-09  2.18764E-09  2.37437E-09  2.65372E-09  2.99302E-09  3.29942E-09  3.55456E-09
   3.69703E-09  3.81107E-09  3.93616E-09  3.74954E-09  3.38451E-09  3.29092E-09  3.03829E-09  2.54559E-09  2.27627E-09  2.07201E-09
   1.81132E-09  1.61528E-09  1.47251E-09  1.36097E-09  1.26897E-09  1.18965E-09  1.11903E-09  1.05479E-09  9.95306E-10  9.39265E-10
   8.85525E-10  8.32879E-10  7.80938E-10  7.29370E-10  6.77962E-10  6.26541E-10  5.74841E-10  5.22449E-10  4.69186E-10  4.14923E-10
   3.59513E-10  3.02902E-10  2.45011E-10  1.85827E-10  1.25362E-10  6.36458E-11  6.93556E-13 -6.34625E-11 -1.28761E-10 -1.95167E-10
  -2.62645E-10 -3.31137E-10 -4.00592E-10 -4.70949E-10 -5.42156E-10 -6.14154E-10 -6.86892E-10 -7.60318E-10 -8.34368E-10 -9.08972E-10
  -9.84056E-10 -1.05956E-09 -1.13541E-09 -1.21157E-09 -1.28795E-09 -1.36449E-09 -1.44109E-09 -1.51767E-09 -1.59417E-09 -1.67049E-09
  -1.74654E-09 -1.82224E-09 -1.89747E-09 -1.97210E-09 -2.04600E-09 -2.11902E-09 -2.19095E-09 -2.26157E-09 -2.33055E-09 -2.39746E-09
  -2.46171E-09 -2.52234E-09 -2.57781E-09 -2.62526E-09 -2.65874E-09 -2.66274E-09 -2.57999E-09 -2.12911E-09 -1.56637E-09 -1.11878E-09
  -7.75903E-10 -4.23008E-10  3.08213E-11  5.68374E-10  1.02218E-09  1.08177E-09  4.30853E-10 -9.74745E-10 -2.58644E-09 -3.26934E-09
  -3.50466E-09 -3.63179E-09 -3.71819E-09 -3.78462E-09 -3.83939E-09 -3.88645E-09 -3.92791E-09 -3.96496E-09 -3.99837E-09 -4.02862E-09
  -4.05604E-09 -4.08087E-09 -4.10329E-09 -4.12342E-09 -4.14138E-09 -4.15725E-09 -4.17109E-09 -4.18298E-09 -4.19296E-09 -4.20108E-09
  -4.20737E-09 -4.21190E-09 -4.21468E-09 -4.21575E-09 -4.21515E-09 -4.21290E-09 -4.20904E-09 -4.20360E-09 -4.19661E-09 -4.18809E-09
  -4.17807E-09 -4.16658E-09 -4.15365E-09 -4.13929E-09 -4.12356E-09 -4.10645E-09 -4.08801E-09 -4.06826E-09 -4.04722E-09 -4.02492E-09
  -4.00139E-09 -3.97664E-09 -3.95071E-09 -3.92363E-09 -3.89541E-09 -3.86609E-09 -3.83568E-09 -3.80422E-09 -3.77172E-09 -3.73823E-09
  -3.70374E-09 -3.66830E-09 -3.63193E-09 -3.59465E-09 -3.55650E-09 -3.51748E-09 -3.47764E-09 -3.43699E-09 -3.39556E-09 -3.35338E-09
  -3.31046E-09 -3.26684E-09 -3.22253E-09 -3.17758E-09 -3.13199E-09 -3.08581E-09 -3.03905E-09 -2.99176E-09 -2.94394E-09 -2.89564E-09
  -2.84689E-09 -2.79769E-09 -2.74809E-09 -2.69812E-09 -2.64780E-09 -2.59716E-09 -2.54622E-09 -2.49501E-09 -2.44357E-09 -2.39192E-09
  -2.34008E-09 -2.28809E-09 -2.23597E-09 -2.18375E-09 -2.13145E-09 -2.07912E-09 -2.02677E-09 -1.97443E-09 -1.92212E-09 -1.86988E-09
  -1.81773E-09 -1.76572E-09 -1.71384E-09 -1.66214E-09 -1.61065E-09 -1.55939E-09 -1.50838E-09 -1.45767E-09 -1.40727E-09 -1.35722E-09
  -1.30754E-09 -1.25824E-09 -1.20937E-09 -1.16097E-09 -1.11304E-09 -1.06562E-09 -1.01874E-09 -9.72426E-10 -9.26689E-10 -8.81585E-10
  -8.37120E-10 -7.93344E-10 -7.50255E-10 -7.07907E-10 -6.66307E-10 -6.25486E-10 -5.85487E-10 -5.46334E-10 -5.08051E-10 -4.70662E-10
  -4.34184E-10 -3.98648E-10 -3.64120E-10 -3.30565E-10 -2.97976E-10 -2.66326E-10 -2.35588E-10 -2.05743E-10 -1.76760E-10 -1.48621E-10
  -1.21299E-10 -9.47657E-11 -6.89984E-11 -4.39778E-11 -1.96709E-11  3.94350E-12  2.68925E-11  4.91953E-11  7.08829E-11  9.19726E-11
   1.12498E-10  1.32479E-10  1.51937E-10  1.70901E-10  1.89394E-10  2.07446E-10  2.25080E-10  2.42315E-10  2.59174E-10  2.75697E-10
   2.91890E-10  3.07781E-10  3.23413E-10  3.38792E-10  3.53939E-10  3.68900E-10  3.83691E-10  3.98322E-10  4.12832E-10  4.27250E-10
   4.41581E-10  4.55878E-10  4.70139E-10  4.84403E-10  4.98685E-10  5.13022E-10  5.27435E-10  5.41944E-10  5.56576E-10  5.71362E-10
   5.86314E-10  6.01466E-10  6.16837E-10  6.32456E-10  6.48356E-10  6.64545E-10  6.81050E-10  6.97907E-10  7.15133E-10  7.32746E-10
   7.50791E-10  7.69272E-10  7.88232E-10
 Glc      Conc. = 1.60E-09
   6.51632E-09  6.77242E-09  7.07030E-09  7.45474E-09  7.71620E-09  7.78318E-09  7.54510E-09  7.12044E-09  6.48090E-09  5.79737E-09
   5.43874E-09  5.29081E-09  5.30859E-09  5.54563E-09  5.95668E-09  6.39490E-09  6.81487E-09  7.23391E-09  7.58281E-09  7.90821E-09
   8.25919E-09  8.43140E-09  8.24370E-09  7.62544E-09  6.54773E-09  5.33953E-09  4.53590E-09  4.16680E-09  4.00949E-09  3.89920E-09
   3.72104E-09  3.52327E-09  3.36922E-09  3.16611E-09  2.91210E-09  2.72348E-09  2.57480E-09  2.39208E-09  2.22178E-09  2.11373E-09
   2.03657E-09  1.97445E-09  1.92215E-09  1.87650E-09  1.83572E-09  1.79877E-09  1.76483E-09  1.73333E-09  1.70387E-09  1.67617E-09
   1.64999E-09  1.62516E-09  1.60157E-09  1.57912E-09  1.55772E-09  1.53730E-09  1.51783E-09  1.49927E-09  1.48157E-09  1.46473E-09
   1.44870E-09  1.43349E-09  1.41903E-09  1.40529E-09  1.39218E-09  1.37967E-09  1.36769E-09  1.35620E-09  1.34514E-09  1.33446E-09
   1.32412E-09  1.31406E-09  1.30424E-09  1.29460E-09  1.28512E-09  1.27574E-09  1.26640E-09  1.25709E-09  1.24773E-09  1.23831E-09
   1.22876E-09  1.21904E-09  1.20911E-09  1.19894E-09  1.18847E-09  1.17766E-09  1.16648E-09  1.15487E-09  1.14280E-09  1.13023E-09
   1.11711E-09  1.10340E-09  1.08906E-09  1.07405E-09  1.05832E-09  1.04184E-09  1.02456E-09  1.00644E-09  9.87441E-10  9.67525E-10
   9.46644E-10  9.24760E-10  9.01834E-10  8.77819E-10  8.52679E-10  8.26373E-10  7.98854E-10  7.70089E-10  7.40037E-10  7.08649E-10
   6.75894E-10  6.41719E-10  6.06097E-10  5.68974E-10  5.30321E-10  4.90092E-10  4.48247E-10  4.04747E-10  3.59549E-10  3.12625E-10
   2.63904E-10  2.13373E-10  1.61023E-10  1.06919E-10  5.11248E-11 -6.28972E-12 -6.52594E-11 -1.25716E-10 -1.87591E-10 -2.50818E-10
  -3.15328E-10 -3.81055E-10 -4.47930E-10 -5.15885E-10 -5.84851E-10 -6.54760E-10 -7.25545E-10 -7.97133E-10 -8.69456E-10 -9.42446E-10
  -1.01603E-09 -1.09014E-09 -1.16470E-09 -1.23963E-09 -1.31487E-09 -1.39035E-09 -1.46597E-09 -1.54167E-09 -1.61737E-09 -1.69297E-09
  -1.76839E-09 -1.84354E-09 -1.91830E-09 -1.99259E-09 -2.06626E-09 -2.13918E-09 -2.21117E-09 -2.28204E-09 -2.35152E-09 -2.41925E-09
  -2.48475E-09 -2.54726E-09 -2.60556E-09 -2.65744E-09 -2.69835E-09 -2.71679E-09 -2.67204E-09 -2.35476E-09 -1.91188E-09 -1.54773E-09
  -1.27311E-09 -1.00090E-09 -6.53261E-10 -2.33408E-10  1.36661E-10  2.17135E-10 -2.51640E-10 -1.33590E-09 -2.64936E-09 -3.30932E-09
  -3.52961E-09 -3.64799E-09 -3.72904E-09 -3.79193E-09 -3.84423E-09 -3.88948E-09 -3.92956E-09 -3.96553E-09 -3.99806E-09 -4.02758E-09
  -4.05439E-09 -4.07869E-09 -4.10065E-09 -4.12037E-09 -4.13796E-09 -4.15350E-09 -4.16704E-09 -4.17865E-09 -4.18837E-09 -4.19625E-09
  -4.20232E-09 -4.20664E-09 -4.20922E-09 -4.21010E-09 -4.20932E-09 -4.20690E-09 -4.20288E-09 -4.19728E-09 -4.19014E-09 -4.18147E-09
  -4.17132E-09 -4.15969E-09 -4.14663E-09 -4.13215E-09 -4.11629E-09 -4.09907E-09 -4.08051E-09 -4.06065E-09 -4.03950E-09 -4.01710E-09
  -3.99346E-09 -3.96862E-09 -3.94260E-09 -3.91542E-09 -3.88712E-09 -3.85770E-09 -3.82721E-09 -3.79566E-09 -3.76308E-09 -3.72950E-09
