 LCModel (Version 6.3-1R) Copyright: S.W. Provencher.          Ref.: Magn. Reson. Med. 30:672-679 (1993).                
 onepulse 15x20_ftSpec_smooth_lcm
 26 lines in following concentration table = NCONC+1
    Conc.  %SD   /Cr    Metabolite                                         
    0.000 999%   0.000 Ala                                                 
 3.65E-10 207%   0.000 Asp                                                 
    0.000 999%   0.000 Cr                                                  
 3.17E-10 175%   0.000 GABA                                                
    0.000 999%   0.000 Glc                                                 
 2.26E-09  28%   0.000 Gln                                                 
    0.000 999%   0.000 Glu                                                 
 1.24E-09 134%   0.000 Glyc                                                
    0.000 999%   0.000 GPC                                                 
 6.65E-10  83%   0.000 GSH                                                 
 3.26E-10 436%   0.000 Ins                                                 
 2.58E-13 999%   0.000 Lac                                                 
 3.52E-10  62%   0.000 NAAG                                                
    0.000 999%   0.000 NAA                                                 
    0.000 999%   0.000 PCh                                                 
    0.000 999%   0.000 PCr                                                 
 1.51E-09  65%   0.000 PE                                                  
 2.08E-10 121%   0.000 Scyllo                                              
 7.09E-10 118%   0.000 Ser                                                 
 7.06E-10 129%   0.000 Tau                                                 
    0.000 999%   0.000 GPC+PCh                                             
 3.52E-10  62%   0.000 NAA+NAAG                                            
 1.56E-09  30%   0.000 Ins+Glyc                                            
    0.000 999%   0.000 Cr+PCr                                              
 2.26E-09  28%   0.000 Glu+Gln                                             
   6 lines in following misc. output table
  FWHM = 0.123 ppm    S/N =   3                                            
  Data shift = 0.436 ppm                                                   
  Ph: -17 deg     -38.6 deg/ppm                                            
  alphaB,S = 9.3E-01,   1.2E+01                                            
    8 spline knots.   Ns = 5(1)                                            
  (12) 4 infls.   (11) 3 extrs.                                            
  363 points on ppm-axis = NY
      4.250000     4.238821     4.227641     4.216462     4.205282     4.194103     4.182923     4.171744     4.160564     4.149385
      4.138206     4.127026     4.115847     4.104667     4.093488     4.082308     4.071129     4.059949     4.048770     4.037591
      4.026411     4.015232     4.004052     3.992873     3.981693     3.970514     3.959334     3.948155     3.936975     3.925796
      3.914617     3.903437     3.892258     3.881078     3.869899     3.858719     3.847540     3.836360     3.825181     3.814002
      3.802822     3.791643     3.780463     3.769284     3.758104     3.746925     3.735745     3.724566     3.713387     3.702207
      3.691028     3.679848     3.668669     3.657489     3.646310     3.635130     3.623951     3.612772     3.601592     3.590413
      3.579233     3.568054     3.556874     3.545695     3.534515     3.523336     3.512156     3.500977     3.489798     3.478618
      3.467439     3.456259     3.445080     3.433900     3.422721     3.411541     3.400362     3.389183     3.378003     3.366824
      3.355644     3.344465     3.333285     3.322106     3.310926     3.299747     3.288568     3.277388     3.266209     3.255029
      3.243850     3.232670     3.221491     3.210311     3.199132     3.187953     3.176773     3.165594     3.154414     3.143235
      3.132055     3.120876     3.109696     3.098517     3.087337     3.076158     3.064979     3.053799     3.042620     3.031440
      3.020261     3.009081     2.997902     2.986722     2.975543     2.964364     2.953184     2.942005     2.930825     2.919646
      2.908466     2.897287     2.886107     2.874928     2.863749     2.852569     2.841390     2.830210     2.819031     2.807851
      2.796672     2.785492     2.774313     2.763134     2.751954     2.740775     2.729595     2.718416     2.707236     2.696057
      2.684877     2.673698     2.662519     2.651339     2.640160     2.628980     2.617801     2.606621     2.595442     2.584262
      2.573083     2.561903     2.550724     2.539545     2.528365     2.517186     2.506006     2.494827     2.483647     2.472468
      2.461288     2.450109     2.438930     2.427750     2.416571     2.405391     2.394212     2.383032     2.371853     2.360673
      2.349494     2.338315     2.327135     2.315956     2.304776     2.293597     2.282417     2.271238     2.260058     2.248879
      2.237700     2.226520     2.215341     2.204161     2.192982     2.181802     2.170623     2.159443     2.148264     2.137084
      2.125905     2.114726     2.103546     2.092367     2.081187     2.070008     2.058828     2.047649     2.036469     2.025290
      2.014111     2.002931     1.991752     1.980572     1.969393     1.958213     1.947034     1.935854     1.924675     1.913496
      1.902316     1.891137     1.879957     1.868778     1.857598     1.846419     1.835239     1.824060     1.812881     1.801701
      1.790522     1.779342     1.768163     1.756983     1.745804     1.734624     1.723445     1.712265     1.701086     1.689907
      1.678727     1.667548     1.656368     1.645189     1.634009     1.622830     1.611650     1.600471     1.589292     1.578112
      1.566933     1.555753     1.544574     1.533394     1.522215     1.511035     1.499856     1.488677     1.477497     1.466318
      1.455138     1.443959     1.432779     1.421600     1.410420     1.399241     1.388062     1.376882     1.365703     1.354523
      1.343344     1.332164     1.320985     1.309805     1.298626     1.287446     1.276267     1.265088     1.253908     1.242729
      1.231549     1.220370     1.209190     1.198011     1.186831     1.175652     1.164473     1.153293     1.142114     1.130934
      1.119755     1.108575     1.097396     1.086216     1.075037     1.063858     1.052678     1.041499     1.030319     1.019140
      1.007960     0.996781     0.985601     0.974422     0.963243     0.952063     0.940884     0.929704     0.918525     0.907345
      0.896166     0.884986     0.873807     0.862628     0.851448     0.840269     0.829089     0.817910     0.806730     0.795551
      0.784371     0.773192     0.762012     0.750833     0.739654     0.728474     0.717295     0.706115     0.694936     0.683756
      0.672577     0.661397     0.650218     0.639039     0.627859     0.616680     0.605500     0.594321     0.583141     0.571962
      0.560782     0.549603     0.538424     0.527244     0.516065     0.504885     0.493706     0.482526     0.471347     0.460167
      0.448988     0.437809     0.426629     0.415450     0.404270     0.393091     0.381911     0.370732     0.359552     0.348373
      0.337193     0.326014     0.314835     0.303655     0.292476     0.281296     0.270117     0.258937     0.247758     0.236578
      0.225399     0.214220     0.203040
 NY phased data points follow
   1.04397E-08  9.46894E-09  1.04317E-08  1.01584E-08  1.05842E-08  9.71619E-09  1.09893E-08  1.03918E-08  1.06999E-08  1.02994E-08
   1.09952E-08  9.83303E-09  1.02432E-08  9.24532E-09  9.77989E-09  9.49281E-09  1.06285E-08  1.00580E-08  1.09622E-08  9.32239E-09
   1.12793E-08  9.39670E-09  1.01680E-08  1.00485E-08  1.20819E-08  1.14301E-08  1.18648E-08  1.19295E-08  1.05727E-08  9.46950E-09
   9.37729E-09  7.84138E-09  8.57877E-09  7.61035E-09  8.44423E-09  6.61820E-09  8.24494E-09  7.34018E-09  6.83197E-09  6.18177E-09
   5.67227E-09  5.89940E-09  7.04562E-09  5.88453E-09  6.68656E-09  6.32447E-09  6.93487E-09  5.99993E-09  6.76775E-09  5.72427E-09
   5.77898E-09  4.98059E-09  6.47618E-09  5.64027E-09  8.47583E-09  9.11653E-09  1.23315E-08  1.11824E-08  1.20438E-08  1.03774E-08
   1.07018E-08  8.52374E-09  9.36157E-09  7.34943E-09  7.81833E-09  6.64298E-09  7.16976E-09  4.99165E-09  6.07163E-09  6.31486E-09
   7.36699E-09  8.15464E-09  1.10744E-08  1.23590E-08  1.38244E-08  1.30670E-08  1.26922E-08  1.17922E-08  1.19646E-08  1.09047E-08
   1.09416E-08  9.87211E-09  1.02788E-08  9.96029E-09  1.02123E-08  8.87430E-09  9.45318E-09  7.91791E-09  8.55773E-09  7.77001E-09
   7.78415E-09  7.27273E-09  7.50372E-09  7.77167E-09  7.39656E-09  6.70914E-09  7.69631E-09  6.40880E-09  7.13629E-09  6.41226E-09
   6.93927E-09  5.35804E-09  5.73506E-09  5.19982E-09  4.61464E-09  4.99348E-09  5.00608E-09  5.20386E-09  5.31948E-09  5.13194E-09
   6.62141E-09  5.52154E-09  5.94909E-09  5.62389E-09  6.86821E-09  5.83168E-09  5.63602E-09  5.37394E-09  4.95050E-09  4.03951E-09
   4.28134E-09  4.43507E-09  4.92776E-09  3.98264E-09  4.46286E-09  4.43639E-09  5.01065E-09  4.11852E-09  3.91532E-09  4.19304E-09
   3.64530E-09  3.72949E-09  4.16212E-09  4.90683E-09  5.46689E-09  5.07324E-09  4.89957E-09  4.94744E-09  5.45882E-09  6.03410E-09
   5.86875E-09  6.24284E-09  6.04645E-09  5.93592E-09  6.19115E-09  6.33780E-09  6.31616E-09  6.04507E-09  5.78684E-09  5.88406E-09
   5.75669E-09  6.13368E-09  6.29136E-09  6.29483E-09  6.93239E-09  6.06519E-09  5.19905E-09  5.27532E-09  5.05473E-09  4.36435E-09
   4.60520E-09  5.58228E-09  6.98897E-09  9.78006E-09  1.30879E-08  1.55492E-08  1.67947E-08  1.65630E-08  1.60627E-08  1.57411E-08
   1.63504E-08  1.52392E-08  1.53372E-08  1.51937E-08  1.56997E-08  1.46718E-08  1.49385E-08  1.50884E-08  1.43589E-08  1.40939E-08
   1.34423E-08  1.33119E-08  1.26143E-08  1.22959E-08  1.07794E-08  9.80928E-09  8.26035E-09  7.22739E-09  5.80888E-09  3.61041E-09
   2.04162E-09 -3.08477E-10 -1.29008E-09 -3.86106E-09 -4.23001E-09 -5.74469E-09 -7.41143E-09 -8.37645E-09 -8.22904E-09 -8.42367E-09
  -8.67610E-09 -7.73881E-09 -8.04742E-09 -6.71325E-09 -6.29164E-09 -5.04969E-09 -3.60207E-09 -2.69970E-09 -1.76496E-09 -2.31245E-09
  -1.52269E-09 -1.23852E-09 -1.43202E-09 -1.53002E-09 -1.27531E-09 -1.40636E-09 -1.87516E-09 -8.56952E-10 -1.70516E-09 -3.15328E-10
  -1.07629E-09 -3.01790E-10  9.75579E-11 -6.06924E-10 -1.17991E-09 -7.91659E-10 -1.41784E-09 -1.15971E-09 -1.17483E-09 -4.15460E-10
  -6.25875E-10 -1.94284E-10 -5.77879E-10 -2.05649E-10 -2.47027E-10 -2.97366E-10 -1.20268E-09 -7.30233E-10 -7.65987E-10 -9.74763E-10
  -1.14063E-09 -9.12385E-10 -8.41894E-10 -9.06844E-10 -8.07801E-10 -5.59242E-10  1.34237E-10 -2.10179E-10  1.06275E-10  2.86443E-10
  -1.32467E-10  1.10159E-10  2.51395E-10 -3.35010E-10 -6.17310E-10 -2.50752E-10 -1.17683E-09 -1.18280E-09 -1.32312E-09 -1.53640E-09
  -1.62319E-09 -1.28060E-09 -1.12296E-09 -1.07204E-09 -1.05259E-09 -1.35265E-09 -6.29546E-10 -7.76317E-10 -4.71931E-10 -2.27532E-10
  -2.61434E-10 -5.74411E-11  3.20170E-11  7.78049E-11 -1.99180E-10  2.94906E-10 -3.51198E-10 -6.79699E-10 -2.36692E-10  2.20985E-10
   7.01662E-11 -2.20942E-10  3.10924E-10  3.88606E-10 -8.75663E-10 -9.45393E-11 -3.20628E-10 -4.85183E-10  4.64744E-11 -1.20196E-10
  -7.47856E-10 -8.99712E-10 -1.88397E-10 -6.44502E-10 -6.57307E-10 -1.03981E-09 -6.50555E-10 -9.26239E-10 -8.93288E-10 -9.79795E-10
  -1.02921E-09 -1.39166E-09 -8.56990E-10 -1.13246E-09 -8.35237E-10 -1.46210E-09 -1.21894E-09 -8.57653E-10 -9.66471E-10 -1.26652E-09
  -1.56089E-09 -1.28671E-09 -1.56500E-09 -1.52671E-09 -1.48741E-09 -1.19720E-09 -1.88054E-09 -1.54268E-09 -1.84800E-09 -1.39763E-09
  -1.61849E-09 -1.63080E-09 -1.75331E-09 -1.34241E-09 -2.21176E-09 -1.39581E-09 -1.91903E-09 -2.44093E-09 -1.65231E-09 -1.95329E-09
  -2.27458E-09 -1.77268E-09 -1.91002E-09 -1.77541E-09 -2.23463E-09 -1.38399E-09 -2.12293E-09 -1.89890E-09 -2.11596E-09 -1.61223E-09
  -2.04707E-09 -1.72456E-09 -2.85656E-09 -2.10565E-09 -1.73340E-09 -2.04522E-09 -2.38068E-09 -1.90056E-09 -2.15663E-09 -1.98421E-09
  -2.05433E-09 -2.36849E-09 -2.48820E-09 -1.64843E-09 -2.73526E-09 -2.13729E-09 -2.24169E-09 -1.86049E-09 -2.08839E-09 -2.28854E-09
  -2.38373E-09 -1.73847E-09 -1.82708E-09
 NY points of the fit to the data follow
   1.19459E-08  1.12146E-08  1.04922E-08  9.91596E-09  9.76227E-09  9.64632E-09  9.36181E-09  9.52129E-09  1.17915E-08  1.14791E-08
   1.03311E-08  9.97147E-09  9.39681E-09  9.35463E-09  9.65553E-09  9.71801E-09  1.02006E-08  1.12337E-08  1.17738E-08  9.93683E-09
   9.29159E-09  1.00000E-08  1.05722E-08  1.10895E-08  1.12588E-08  1.15589E-08  1.16395E-08  1.12372E-08  1.05619E-08  9.88248E-09
   9.62353E-09  9.13436E-09  8.54944E-09  8.16053E-09  7.84336E-09  7.42149E-09  7.05430E-09  6.90588E-09  6.75987E-09  6.60368E-09
   6.48640E-09  6.51834E-09  6.62941E-09  6.53756E-09  6.40715E-09  6.24824E-09  6.15532E-09  5.79565E-09  5.85033E-09  6.02052E-09
   6.37015E-09  6.71116E-09  7.01507E-09  7.85375E-09  8.80430E-09  8.74367E-09  9.33336E-09  1.03577E-08  1.05057E-08  1.01436E-08
   1.03008E-08  1.02296E-08  1.01223E-08  9.90003E-09  9.23653E-09  8.77894E-09  8.88273E-09  8.25402E-09  7.59817E-09  7.73764E-09
   8.45119E-09  8.80324E-09  9.02506E-09  9.62057E-09  1.04673E-08  1.11579E-08  1.20753E-08  1.23609E-08  1.22478E-08  1.21314E-08
   1.19183E-08  1.12750E-08  1.07743E-08  1.05868E-08  1.00362E-08  9.39459E-09  8.68140E-09  7.56846E-09  7.06881E-09  6.82283E-09
   6.60286E-09  6.45335E-09  6.40116E-09  6.30263E-09  6.14196E-09  6.10530E-09  6.05066E-09  5.93880E-09  5.89332E-09  5.83997E-09
   5.78810E-09  5.76246E-09  5.73887E-09  5.71650E-09  5.70073E-09  5.68953E-09  5.68124E-09  5.67525E-09  5.66994E-09  5.66563E-09
   5.66202E-09  5.65843E-09  5.65480E-09  5.65104E-09  5.64699E-09  5.64258E-09  5.63765E-09  5.63196E-09  5.62550E-09  5.61850E-09
   5.61046E-09  5.60145E-09  5.59161E-09  5.58081E-09  5.56895E-09  5.55598E-09  5.54187E-09  5.52657E-09  5.51004E-09  5.49225E-09
   5.47317E-09  5.45276E-09  5.43101E-09  5.40789E-09  5.38336E-09  5.35742E-09  5.33005E-09  5.30121E-09  5.27092E-09  5.23914E-09
   5.20589E-09  5.17116E-09  5.13495E-09  5.09727E-09  5.05814E-09  5.01759E-09  4.97568E-09  4.93253E-09  4.88829E-09  4.84314E-09
   4.79728E-09  4.75098E-09  4.70456E-09  4.65844E-09  4.61315E-09  4.56945E-09  4.52837E-09  4.49139E-09  4.46076E-09  4.43998E-09
   4.43490E-09  4.45597E-09  4.52367E-09  4.68378E-09  5.06027E-09  6.11069E-09  1.03238E-08  1.75116E-08  1.84633E-08  1.72221E-08
   1.64246E-08  1.58966E-08  1.54407E-08  1.52574E-08  1.53968E-08  1.59998E-08  1.60306E-08  1.23160E-08  5.89743E-09  4.20596E-09
   3.55921E-09  3.20417E-09  2.96534E-09  2.78347E-09  2.63340E-09  2.50280E-09  2.38495E-09  2.27592E-09  2.17323E-09  2.07532E-09
   1.98111E-09  1.88986E-09  1.80106E-09  1.71434E-09  1.62944E-09  1.54616E-09  1.46435E-09  1.38394E-09  1.30484E-09  1.22701E-09
   1.15041E-09  1.07504E-09  1.00089E-09  9.27961E-10  8.56267E-10  7.85835E-10  7.16676E-10  6.48818E-10  5.82285E-10  5.17133E-10
   4.53361E-10  3.91030E-10  3.30174E-10  2.70825E-10  2.13017E-10  1.56813E-10  1.02243E-10  4.93368E-11 -1.84025E-12 -5.13237E-11
  -9.91313E-11 -1.45316E-10 -1.89890E-10 -2.32902E-10 -2.74365E-10 -3.14336E-10 -3.52829E-10 -3.89878E-10 -4.25518E-10 -4.59773E-10
  -4.92688E-10 -5.24283E-10 -5.54589E-10 -5.83639E-10 -6.11466E-10 -6.38096E-10 -6.63565E-10 -6.87893E-10 -7.11122E-10 -7.33272E-10
  -7.54375E-10 -7.74475E-10 -7.93585E-10 -8.11742E-10 -8.28967E-10 -8.45301E-10 -8.60771E-10 -8.75408E-10 -8.89240E-10 -9.02288E-10
  -9.14604E-10 -9.26187E-10 -9.37109E-10 -9.47346E-10 -9.56958E-10 -9.65989E-10 -9.74444E-10 -9.82358E-10 -9.89762E-10 -9.96681E-10
  -1.00315E-09 -1.00921E-09 -1.01488E-09 -1.02018E-09 -1.02515E-09 -1.02981E-09 -1.03422E-09 -1.03836E-09 -1.04229E-09 -1.04605E-09
  -1.04964E-09 -1.05310E-09 -1.05648E-09 -1.05977E-09 -1.06304E-09 -1.06629E-09 -1.06957E-09 -1.07290E-09 -1.07630E-09 -1.07981E-09
  -1.08347E-09 -1.08728E-09 -1.09131E-09 -1.09555E-09 -1.10004E-09 -1.10483E-09 -1.10994E-09 -1.11536E-09 -1.12118E-09 -1.12740E-09
  -1.13404E-09 -1.14113E-09 -1.14866E-09 -1.15662E-09 -1.16499E-09 -1.17378E-09 -1.18298E-09 -1.19256E-09 -1.20253E-09 -1.21288E-09
  -1.22360E-09 -1.23468E-09 -1.24611E-09 -1.25788E-09 -1.26998E-09 -1.28241E-09 -1.29516E-09 -1.30822E-09 -1.32157E-09 -1.33522E-09
  -1.34915E-09 -1.36335E-09 -1.37782E-09 -1.39254E-09 -1.40751E-09 -1.42273E-09 -1.43817E-09 -1.45383E-09 -1.46971E-09 -1.48580E-09
  -1.50208E-09 -1.51854E-09 -1.53519E-09 -1.55201E-09 -1.56899E-09 -1.58612E-09 -1.60340E-09 -1.62081E-09 -1.63835E-09 -1.65601E-09
  -1.67378E-09 -1.69166E-09 -1.70962E-09 -1.72767E-09 -1.74579E-09 -1.76399E-09 -1.78224E-09 -1.80054E-09 -1.81888E-09 -1.83725E-09
  -1.85565E-09 -1.87406E-09 -1.89249E-09 -1.91091E-09 -1.92931E-09 -1.94770E-09 -1.96606E-09 -1.98439E-09 -2.00267E-09 -2.02090E-09
  -2.03907E-09 -2.05716E-09 -2.07518E-09 -2.09310E-09 -2.11093E-09 -2.12866E-09 -2.14627E-09 -2.16376E-09 -2.18112E-09 -2.19834E-09
  -2.21540E-09 -2.23232E-09 -2.24907E-09
 NY background values follow
     9.922E-10    1.034E-09    1.076E-09    1.119E-09    1.161E-09    1.203E-09    1.245E-09    1.287E-09    1.329E-09    1.371E-09
     1.413E-09    1.456E-09    1.498E-09    1.540E-09    1.582E-09    1.624E-09    1.665E-09    1.707E-09    1.749E-09    1.791E-09
     1.833E-09    1.874E-09    1.916E-09    1.957E-09    1.999E-09    2.040E-09    2.082E-09    2.123E-09    2.164E-09    2.205E-09
     2.246E-09    2.287E-09    2.328E-09    2.369E-09    2.409E-09    2.450E-09    2.490E-09    2.530E-09    2.570E-09    2.611E-09
     2.650E-09    2.690E-09    2.730E-09    2.769E-09    2.809E-09    2.848E-09    2.887E-09    2.926E-09    2.965E-09    3.004E-09
     3.042E-09    3.080E-09    3.119E-09    3.157E-09    3.194E-09    3.232E-09    3.270E-09    3.307E-09    3.344E-09    3.381E-09
     3.417E-09    3.454E-09    3.490E-09    3.526E-09    3.562E-09    3.598E-09    3.633E-09    3.669E-09    3.704E-09    3.739E-09
     3.773E-09    3.807E-09    3.842E-09    3.875E-09    3.909E-09    3.942E-09    3.975E-09    4.008E-09    4.041E-09    4.072E-09
     4.104E-09    4.135E-09    4.166E-09    4.196E-09    4.226E-09    4.255E-09    4.284E-09    4.313E-09    4.340E-09    4.367E-09
     4.394E-09    4.420E-09    4.445E-09    4.469E-09    4.493E-09    4.516E-09    4.538E-09    4.560E-09    4.580E-09    4.600E-09
     4.619E-09    4.638E-09    4.655E-09    4.671E-09    4.687E-09    4.701E-09    4.715E-09    4.727E-09    4.739E-09    4.749E-09
     4.758E-09    4.767E-09    4.774E-09    4.780E-09    4.785E-09    4.788E-09    4.791E-09    4.792E-09    4.792E-09    4.791E-09
     4.788E-09    4.785E-09    4.779E-09    4.773E-09    4.765E-09    4.755E-09    4.745E-09    4.732E-09    4.719E-09    4.703E-09
     4.687E-09    4.668E-09    4.648E-09    4.627E-09    4.604E-09    4.579E-09    4.553E-09    4.525E-09    4.495E-09    4.464E-09
     4.430E-09    4.395E-09    4.359E-09    4.320E-09    4.280E-09    4.237E-09    4.193E-09    4.147E-09    4.099E-09    4.050E-09
     3.999E-09    3.946E-09    3.892E-09    3.836E-09    3.778E-09    3.720E-09    3.659E-09    3.598E-09    3.535E-09    3.471E-09
     3.406E-09    3.340E-09    3.272E-09    3.204E-09    3.134E-09    3.064E-09    2.993E-09    2.921E-09    2.848E-09    2.774E-09
     2.700E-09    2.625E-09    2.549E-09    2.473E-09    2.397E-09    2.320E-09    2.242E-09    2.164E-09    2.086E-09    2.008E-09
     1.929E-09    1.851E-09    1.772E-09    1.693E-09    1.614E-09    1.535E-09    1.457E-09    1.378E-09    1.300E-09    1.221E-09
     1.144E-09    1.066E-09    9.889E-10    9.121E-10    8.359E-10    7.602E-10    6.850E-10    6.105E-10    5.367E-10    4.636E-10
     3.913E-10    3.198E-10    2.491E-10    1.794E-10    1.107E-10    4.301E-11   -2.362E-11   -8.914E-11   -1.535E-10   -2.166E-10
    -2.785E-10   -3.390E-10   -3.982E-10   -4.560E-10   -5.123E-10   -5.671E-10   -6.203E-10   -6.719E-10   -7.219E-10   -7.702E-10
    -8.169E-10   -8.621E-10   -9.056E-10   -9.477E-10   -9.882E-10   -1.027E-09   -1.065E-09   -1.101E-09   -1.136E-09   -1.169E-09
    -1.202E-09   -1.233E-09   -1.262E-09   -1.290E-09   -1.318E-09   -1.344E-09   -1.368E-09   -1.392E-09   -1.415E-09   -1.436E-09
    -1.457E-09   -1.476E-09   -1.495E-09   -1.513E-09   -1.529E-09   -1.545E-09   -1.560E-09   -1.574E-09   -1.588E-09   -1.600E-09
    -1.612E-09   -1.623E-09   -1.634E-09   -1.644E-09   -1.653E-09   -1.661E-09   -1.669E-09   -1.677E-09   -1.684E-09   -1.690E-09
    -1.696E-09   -1.702E-09   -1.707E-09   -1.712E-09   -1.717E-09   -1.721E-09   -1.725E-09   -1.729E-09   -1.733E-09   -1.736E-09
    -1.739E-09   -1.742E-09   -1.745E-09   -1.748E-09   -1.751E-09   -1.754E-09   -1.757E-09   -1.760E-09   -1.763E-09   -1.766E-09
    -1.770E-09   -1.773E-09   -1.777E-09   -1.781E-09   -1.785E-09   -1.789E-09   -1.794E-09   -1.799E-09   -1.805E-09   -1.811E-09
    -1.817E-09   -1.824E-09   -1.831E-09   -1.839E-09   -1.847E-09   -1.855E-09   -1.864E-09   -1.873E-09   -1.883E-09   -1.893E-09
    -1.904E-09   -1.914E-09   -1.925E-09   -1.937E-09   -1.949E-09   -1.961E-09   -1.973E-09   -1.986E-09   -1.999E-09   -2.012E-09
    -2.026E-09   -2.040E-09   -2.054E-09   -2.068E-09   -2.083E-09   -2.098E-09   -2.113E-09   -2.129E-09   -2.144E-09   -2.160E-09
    -2.176E-09   -2.192E-09   -2.208E-09   -2.225E-09   -2.242E-09   -2.258E-09   -2.275E-09   -2.292E-09   -2.310E-09   -2.327E-09
    -2.345E-09   -2.362E-09   -2.380E-09   -2.397E-09   -2.415E-09   -2.433E-09   -2.451E-09   -2.469E-09   -2.487E-09   -2.505E-09
    -2.523E-09   -2.541E-09   -2.559E-09   -2.577E-09   -2.596E-09   -2.614E-09   -2.632E-09   -2.650E-09   -2.668E-09   -2.686E-09
    -2.703E-09   -2.721E-09   -2.739E-09   -2.756E-09   -2.774E-09   -2.791E-09   -2.809E-09   -2.826E-09   -2.843E-09   -2.860E-09
    -2.876E-09   -2.893E-09   -2.909E-09
 Asp      Conc. = 3.65E-10
   1.36708E-09  1.34339E-09  1.35679E-09  1.34532E-09  1.36886E-09  1.37341E-09  1.36717E-09  1.36452E-09  1.38708E-09  1.41859E-09
   1.45410E-09  1.49170E-09  1.53078E-09  1.57147E-09  1.61243E-09  1.65358E-09  1.69495E-09  1.73652E-09  1.77826E-09  1.82014E-09
   1.86215E-09  1.90429E-09  1.94654E-09  1.98893E-09  2.03148E-09  2.07420E-09  2.11714E-09  2.16037E-09  2.20396E-09  2.24806E-09
   2.29286E-09  2.33867E-09  2.38602E-09  2.43588E-09  2.49035E-09  2.55500E-09  2.64234E-09  2.69693E-09  2.76532E-09  2.79524E-09
   2.82242E-09  2.87050E-09  2.96831E-09  3.09867E-09  3.26095E-09  3.41697E-09  3.41407E-09  3.37374E-09  3.48450E-09  3.52928E-09
   3.56889E-09  3.64903E-09  3.70164E-09  3.68934E-09  3.65523E-09  3.60988E-09  3.55090E-09  3.60341E-09  3.64741E-09  3.59638E-09
   3.59803E-09  3.61579E-09  3.61194E-09  3.63798E-09  3.68786E-09  3.72459E-09  3.72927E-09  3.74727E-09  3.77136E-09  3.79846E-09
   3.82726E-09  3.85708E-09  3.88755E-09  3.91842E-09  3.94952E-09  3.98072E-09  4.01193E-09  4.04305E-09  4.07402E-09  4.10479E-09
   4.13531E-09  4.16554E-09  4.19542E-09  4.22494E-09  4.25405E-09  4.28272E-09  4.31091E-09  4.33862E-09  4.36579E-09  4.39241E-09
   4.41845E-09  4.44388E-09  4.46868E-09  4.49281E-09  4.51627E-09  4.53901E-09  4.56102E-09  4.58228E-09  4.60275E-09  4.62241E-09
   4.64125E-09  4.65924E-09  4.67634E-09  4.69255E-09  4.70783E-09  4.72217E-09  4.73553E-09  4.74790E-09  4.75926E-09  4.76958E-09
   4.77883E-09  4.78700E-09  4.79406E-09  4.79999E-09  4.80476E-09  4.80835E-09  4.81075E-09  4.81193E-09  4.81185E-09  4.81051E-09
   4.80788E-09  4.80394E-09  4.79865E-09  4.79201E-09  4.78399E-09  4.77456E-09  4.76370E-09  4.75139E-09  4.73762E-09  4.72234E-09
   4.70555E-09  4.68722E-09  4.66732E-09  4.64585E-09  4.62276E-09  4.59804E-09  4.57167E-09  4.54363E-09  4.51389E-09  4.48243E-09
   4.44924E-09  4.41428E-09  4.37754E-09  4.33899E-09  4.29862E-09  4.25641E-09  4.21234E-09  4.16648E-09  4.11887E-09  4.06956E-09
   4.01862E-09  3.96610E-09  3.91205E-09  3.85654E-09  3.79964E-09  3.74143E-09  3.68198E-09  3.62141E-09  3.55984E-09  3.49745E-09
   3.43449E-09  3.37142E-09  3.30899E-09  3.24887E-09  3.19527E-09  3.16247E-09  3.22609E-09  3.51367E-09  3.50753E-09  3.38139E-09
   3.27383E-09  3.17994E-09  3.08657E-09  3.00469E-09  2.93428E-09  2.88542E-09  2.83118E-09  2.64064E-09  2.25140E-09  2.09472E-09
   1.98954E-09  1.89812E-09  1.81200E-09  1.72845E-09  1.64635E-09  1.56516E-09  1.48465E-09  1.40467E-09  1.32515E-09  1.24608E-09
   1.16746E-09  1.08927E-09  1.01158E-09  9.34380E-10  8.57739E-10  7.81674E-10  7.06220E-10  6.31445E-10  5.57379E-10  4.84057E-10
   4.11535E-10  3.39857E-10  2.69072E-10  1.99224E-10  1.30355E-10  6.25274E-11 -4.22198E-12 -6.98460E-11 -1.34300E-10 -1.97510E-10
  -2.59468E-10 -3.20095E-10 -3.79351E-10 -4.37190E-10 -4.93574E-10 -5.48429E-10 -6.01720E-10 -6.53411E-10 -7.03433E-10 -7.51814E-10
  -7.98571E-10 -8.43749E-10 -8.87360E-10 -9.29447E-10 -9.70023E-10 -1.00914E-09 -1.04681E-09 -1.08307E-09 -1.11794E-09 -1.15146E-09
  -1.18366E-09 -1.21456E-09 -1.24420E-09 -1.27260E-09 -1.29979E-09 -1.32581E-09 -1.35068E-09 -1.37442E-09 -1.39708E-09 -1.41868E-09
  -1.43924E-09 -1.45881E-09 -1.47741E-09 -1.49506E-09 -1.51179E-09 -1.52764E-09 -1.54263E-09 -1.55680E-09 -1.57018E-09 -1.58278E-09
  -1.59465E-09 -1.60580E-09 -1.61630E-09 -1.62612E-09 -1.63532E-09 -1.64394E-09 -1.65199E-09 -1.65951E-09 -1.66653E-09 -1.67306E-09
  -1.67915E-09 -1.68483E-09 -1.69013E-09 -1.69507E-09 -1.69967E-09 -1.70398E-09 -1.70803E-09 -1.71181E-09 -1.71540E-09 -1.71881E-09
  -1.72206E-09 -1.72518E-09 -1.72822E-09 -1.73118E-09 -1.73412E-09 -1.73704E-09 -1.73999E-09 -1.74300E-09 -1.74608E-09 -1.74927E-09
  -1.75261E-09 -1.75611E-09 -1.75982E-09 -1.76374E-09 -1.76793E-09 -1.77241E-09 -1.77720E-09 -1.78232E-09 -1.78783E-09 -1.79375E-09
  -1.80008E-09 -1.80687E-09 -1.81410E-09 -1.82176E-09 -1.82983E-09 -1.83832E-09 -1.84722E-09 -1.85650E-09 -1.86618E-09 -1.87623E-09
  -1.88665E-09 -1.89743E-09 -1.90856E-09 -1.92004E-09 -1.93185E-09 -1.94398E-09 -1.95644E-09 -1.96920E-09 -1.98226E-09 -1.99561E-09
  -2.00925E-09 -2.02315E-09 -2.03733E-09 -2.05176E-09 -2.06644E-09 -2.08136E-09 -2.09650E-09 -2.11187E-09 -2.12746E-09 -2.14324E-09
  -2.15923E-09 -2.17540E-09 -2.19175E-09 -2.20827E-09 -2.22495E-09 -2.24178E-09 -2.25876E-09 -2.27587E-09 -2.29312E-09 -2.31047E-09
  -2.32794E-09 -2.34551E-09 -2.36317E-09 -2.38091E-09 -2.39873E-09 -2.41662E-09 -2.43456E-09 -2.45256E-09 -2.47059E-09 -2.48865E-09
  -2.50674E-09 -2.52484E-09 -2.54295E-09 -2.56106E-09 -2.57914E-09 -2.59722E-09 -2.61526E-09 -2.63327E-09 -2.65123E-09 -2.66913E-09
  -2.68698E-09 -2.70474E-09 -2.72243E-09 -2.74003E-09 -2.75753E-09 -2.77492E-09 -2.79221E-09 -2.80936E-09 -2.82638E-09 -2.84326E-09
  -2.85999E-09 -2.87656E-09 -2.89297E-09
 GABA     Conc. = 3.17E-10
   1.02566E-09  1.06822E-09  1.11083E-09  1.15348E-09  1.19617E-09  1.23890E-09  1.28169E-09  1.32452E-09  1.36741E-09  1.41038E-09
   1.45340E-09  1.49651E-09  1.53975E-09  1.58305E-09  1.62656E-09  1.67021E-09  1.71398E-09  1.75811E-09  1.80259E-09  1.84740E-09
   1.89284E-09  1.93907E-09  1.98636E-09  2.03519E-09  2.08631E-09  2.14094E-09  2.20177E-09  2.27473E-09  2.37650E-09  2.55137E-09
   2.59362E-09  2.64100E-09  2.90696E-09  3.01129E-09  2.99124E-09  3.11327E-09  3.20435E-09  3.23993E-09  3.26245E-09  3.24488E-09
   3.17958E-09  3.24216E-09  3.24980E-09  3.08733E-09  3.08160E-09  3.12958E-09  3.07035E-09  3.05675E-09  3.07122E-09  3.09686E-09
   3.12836E-09  3.16301E-09  3.19993E-09  3.23891E-09  3.27970E-09  3.32236E-09  3.36746E-09  3.41593E-09  3.46968E-09  3.53300E-09
   3.61611E-09  3.75131E-09  3.89389E-09  3.91187E-09  4.03958E-09  4.23008E-09  4.23442E-09  4.23883E-09  4.31157E-09  4.35314E-09
   4.37240E-09  4.37110E-09  4.31523E-09  4.27202E-09  4.31872E-09  4.24127E-09  4.14008E-09  4.18026E-09  4.19189E-09  4.20744E-09
   4.27136E-09  4.26707E-09  4.32198E-09  4.47968E-09  4.50608E-09  4.53065E-09  4.65586E-09  4.71238E-09  4.74347E-09  4.80378E-09
   4.81748E-09  4.81858E-09  4.88272E-09  4.87395E-09  4.80049E-09  4.83926E-09  4.84537E-09  4.78075E-09  4.77555E-09  4.77809E-09
   4.76415E-09  4.75996E-09  4.76167E-09  4.76653E-09  4.77307E-09  4.78038E-09  4.78801E-09  4.79562E-09  4.80298E-09  4.80994E-09
   4.81634E-09  4.82199E-09  4.82682E-09  4.83077E-09  4.83377E-09  4.83581E-09  4.83684E-09  4.83678E-09  4.83558E-09  4.83321E-09
   4.82964E-09  4.82484E-09  4.81877E-09  4.81141E-09  4.80273E-09  4.79269E-09  4.78126E-09  4.76843E-09  4.75416E-09  4.73843E-09
   4.72121E-09  4.70248E-09  4.68221E-09  4.66038E-09  4.63697E-09  4.61195E-09  4.58529E-09  4.55697E-09  4.52697E-09  4.49527E-09
   4.46184E-09  4.42666E-09  4.38971E-09  4.35097E-09  4.31040E-09  4.26800E-09  4.22376E-09  4.17773E-09  4.12995E-09  4.08049E-09
   4.02939E-09  3.97671E-09  3.92251E-09  3.86685E-09  3.80979E-09  3.75140E-09  3.69177E-09  3.63100E-09  3.56919E-09  3.50651E-09
   3.44319E-09  3.37960E-09  3.31641E-09  3.25499E-09  3.19882E-09  3.15941E-09  3.19590E-09  3.44478E-09  3.43687E-09  3.31733E-09
   3.21284E-09  3.12094E-09  3.02922E-09  2.94747E-09  2.87530E-09  2.82210E-09  2.76789E-09  2.60061E-09  2.24491E-09  2.09416E-09
   1.99171E-09  1.90176E-09  1.81654E-09  1.73359E-09  1.65191E-09  1.57103E-09  1.49074E-09  1.41095E-09  1.33156E-09  1.25260E-09
   1.17406E-09  1.09595E-09  1.01831E-09  9.41155E-10  8.64551E-10  7.88515E-10  7.13085E-10  6.38329E-10  5.64278E-10  4.90967E-10
   4.18454E-10  3.46782E-10  2.76002E-10  2.06155E-10  1.37287E-10  6.94592E-11  2.70825E-12 -6.29186E-11 -1.27376E-10 -1.90591E-10
  -2.52553E-10 -3.13186E-10 -3.72447E-10 -4.30293E-10 -4.86683E-10 -5.41546E-10 -5.94844E-10 -6.46543E-10 -6.96571E-10 -7.44960E-10
  -7.91725E-10 -8.36912E-10 -8.80530E-10 -9.22626E-10 -9.63210E-10 -1.00233E-09 -1.04001E-09 -1.07628E-09 -1.11116E-09 -1.14469E-09
