 LCModel (Version 6.3-1R) Copyright: S.W. Provencher.          Ref.: Magn. Reson. Med. 30:672-679 (1993).                
 onepulse 15x24_ftSpec_smooth_lcm
 26 lines in following concentration table = NCONC+1
    Conc.  %SD /Cr+PCr  Metabolite                                         
    0.000 999%   0.000 Ala                                                 
    0.000 999%   0.000 Asp                                                 
    0.000 999%   0.000 Cr                                                  
    0.000 999%   0.000 GABA                                                
 5.85E-10 192%   2.726 Glc                                                 
 2.18E-09  41%  10.185 Gln                                                 
    0.000 999%   0.000 Glu                                                 
    0.000 999%   0.000 Glyc                                                
 6.08E-11 696%   0.283 GPC                                                 
 9.79E-12 999% 4.6E-02 GSH                                                 
 1.54E-09  43%   7.186 Ins                                                 
    0.000 999%   0.000 Lac                                                 
 4.46E-10  58%   2.081 NAAG                                                
    0.000 999%   0.000 NAA                                                 
    0.000 999%   0.000 PCh                                                 
 2.14E-10 195%   1.000 PCr                                                 
 1.09E-09 257%   5.095 PE                                                  
 1.41E-10 231%   0.656 Scyllo                                              
 3.51E-09  66%  16.343 Ser                                                 
    0.000 999%   0.000 Tau                                                 
 6.08E-11 696%   0.283 GPC+PCh                                             
 4.46E-10  58%   2.081 NAA+NAAG                                            
 1.54E-09  43%   7.186 Ins+Glyc                                            
 2.14E-10 195%   1.000 Cr+PCr                                              
 2.18E-09  41%  10.185 Glu+Gln                                             
   6 lines in following misc. output table
  FWHM = 0.101 ppm    S/N =   2                                            
  Data shift = 0.391 ppm                                                   
  Ph: -47 deg     -42.3 deg/ppm                                            
  alphaB,S = 7.2E-01,   4.1E+01                                            
    8 spline knots.   Ns = 5(1)                                            
  ( 8) 4 infls.   ( 5) 1 extrs.                                            
  363 points on ppm-axis = NY
      4.250000     4.238821     4.227641     4.216462     4.205282     4.194103     4.182923     4.171744     4.160564     4.149385
      4.138206     4.127026     4.115847     4.104667     4.093488     4.082308     4.071129     4.059949     4.048770     4.037591
      4.026411     4.015232     4.004052     3.992873     3.981693     3.970514     3.959334     3.948155     3.936975     3.925796
      3.914617     3.903437     3.892258     3.881078     3.869899     3.858719     3.847540     3.836360     3.825181     3.814002
      3.802822     3.791643     3.780463     3.769284     3.758104     3.746925     3.735745     3.724566     3.713387     3.702207
      3.691028     3.679848     3.668669     3.657489     3.646310     3.635130     3.623951     3.612772     3.601592     3.590413
      3.579233     3.568054     3.556874     3.545695     3.534515     3.523336     3.512156     3.500977     3.489798     3.478618
      3.467439     3.456259     3.445080     3.433900     3.422721     3.411541     3.400362     3.389183     3.378003     3.366824
      3.355644     3.344465     3.333285     3.322106     3.310926     3.299747     3.288568     3.277388     3.266209     3.255029
      3.243850     3.232670     3.221491     3.210311     3.199132     3.187953     3.176773     3.165594     3.154414     3.143235
      3.132055     3.120876     3.109696     3.098517     3.087337     3.076158     3.064979     3.053799     3.042620     3.031440
      3.020261     3.009081     2.997902     2.986722     2.975543     2.964364     2.953184     2.942005     2.930825     2.919646
      2.908466     2.897287     2.886107     2.874928     2.863749     2.852569     2.841390     2.830210     2.819031     2.807851
      2.796672     2.785492     2.774313     2.763134     2.751954     2.740775     2.729595     2.718416     2.707236     2.696057
      2.684877     2.673698     2.662519     2.651339     2.640160     2.628980     2.617801     2.606621     2.595442     2.584262
      2.573083     2.561903     2.550724     2.539545     2.528365     2.517186     2.506006     2.494827     2.483647     2.472468
      2.461288     2.450109     2.438930     2.427750     2.416571     2.405391     2.394212     2.383032     2.371853     2.360673
      2.349494     2.338315     2.327135     2.315956     2.304776     2.293597     2.282417     2.271238     2.260058     2.248879
      2.237700     2.226520     2.215341     2.204161     2.192982     2.181802     2.170623     2.159443     2.148264     2.137084
      2.125905     2.114726     2.103546     2.092367     2.081187     2.070008     2.058828     2.047649     2.036469     2.025290
      2.014111     2.002931     1.991752     1.980572     1.969393     1.958213     1.947034     1.935854     1.924675     1.913496
      1.902316     1.891137     1.879957     1.868778     1.857598     1.846419     1.835239     1.824060     1.812881     1.801701
      1.790522     1.779342     1.768163     1.756983     1.745804     1.734624     1.723445     1.712265     1.701086     1.689907
      1.678727     1.667548     1.656368     1.645189     1.634009     1.622830     1.611650     1.600471     1.589292     1.578112
      1.566933     1.555753     1.544574     1.533394     1.522215     1.511035     1.499856     1.488677     1.477497     1.466318
      1.455138     1.443959     1.432779     1.421600     1.410420     1.399241     1.388062     1.376882     1.365703     1.354523
      1.343344     1.332164     1.320985     1.309805     1.298626     1.287446     1.276267     1.265088     1.253908     1.242729
      1.231549     1.220370     1.209190     1.198011     1.186831     1.175652     1.164473     1.153293     1.142114     1.130934
      1.119755     1.108575     1.097396     1.086216     1.075037     1.063858     1.052678     1.041499     1.030319     1.019140
      1.007960     0.996781     0.985601     0.974422     0.963243     0.952063     0.940884     0.929704     0.918525     0.907345
      0.896166     0.884986     0.873807     0.862628     0.851448     0.840269     0.829089     0.817910     0.806730     0.795551
      0.784371     0.773192     0.762012     0.750833     0.739654     0.728474     0.717295     0.706115     0.694936     0.683756
      0.672577     0.661397     0.650218     0.639039     0.627859     0.616680     0.605500     0.594321     0.583141     0.571962
      0.560782     0.549603     0.538424     0.527244     0.516065     0.504885     0.493706     0.482526     0.471347     0.460167
      0.448988     0.437809     0.426629     0.415450     0.404270     0.393091     0.381911     0.370732     0.359552     0.348373
      0.337193     0.326014     0.314835     0.303655     0.292476     0.281296     0.270117     0.258937     0.247758     0.236578
      0.225399     0.214220     0.203040
 NY phased data points follow
   1.46505E-08  1.36565E-08  1.22700E-08  1.19121E-08  1.19031E-08  1.09766E-08  1.18177E-08  1.07979E-08  1.14699E-08  1.16117E-08
   1.22306E-08  1.23604E-08  1.33228E-08  1.24975E-08  1.31704E-08  1.26238E-08  1.24886E-08  1.20318E-08  1.21747E-08  1.16563E-08
   1.17855E-08  1.16467E-08  1.29158E-08  1.19971E-08  1.25892E-08  1.17545E-08  1.12806E-08  1.11907E-08  1.24898E-08  1.31599E-08
   1.47623E-08  1.50556E-08  1.38840E-08  1.34343E-08  1.30486E-08  1.14631E-08  1.18560E-08  1.12558E-08  1.12195E-08  1.06933E-08
   1.03445E-08  1.02266E-08  1.02741E-08  9.75004E-09  9.48634E-09  8.32119E-09  8.46928E-09  8.65910E-09  8.56922E-09  8.55048E-09
   8.28946E-09  7.86758E-09  7.29442E-09  7.21064E-09  7.30352E-09  6.88001E-09  7.32056E-09  6.93868E-09  7.31149E-09  8.85500E-09
   1.10856E-08  1.20055E-08  1.26759E-08  1.22595E-08  1.21261E-08  1.09343E-08  1.01330E-08  9.59940E-09  8.57797E-09  8.20462E-09
   8.16807E-09  7.24916E-09  6.63903E-09  6.62188E-09  6.37666E-09  7.73502E-09  1.03083E-08  1.35571E-08  1.55748E-08  1.60429E-08
   1.54570E-08  1.49700E-08  1.40598E-08  1.36431E-08  1.36396E-08  1.26124E-08  1.27908E-08  1.25761E-08  1.22167E-08  1.23988E-08
   1.14574E-08  1.09302E-08  1.06923E-08  1.05422E-08  1.01506E-08  9.52117E-09  8.90443E-09  9.39546E-09  8.70859E-09  9.01822E-09
   9.10889E-09  8.54964E-09  8.62076E-09  8.43703E-09  8.46876E-09  7.01468E-09  7.23473E-09  6.25928E-09  5.71517E-09  5.69915E-09
   5.70544E-09  6.51678E-09  6.35854E-09  5.95384E-09  6.56922E-09  6.53378E-09  6.13791E-09  7.11680E-09  6.75377E-09  6.41843E-09
   6.28678E-09  5.55610E-09  5.11094E-09  4.89803E-09  4.34059E-09  5.24821E-09  4.82182E-09  4.59126E-09  4.72795E-09  4.72730E-09
   5.20024E-09  4.69504E-09  4.60199E-09  4.68933E-09  4.51221E-09  4.77379E-09  4.74803E-09  5.59794E-09  7.00124E-09  6.80620E-09
   7.18217E-09  7.02813E-09  7.63220E-09  7.83062E-09  8.60237E-09  8.39339E-09  8.72945E-09  8.07102E-09  8.22340E-09  8.52325E-09
   8.22057E-09  8.14871E-09  7.63883E-09  8.15450E-09  8.00876E-09  7.47048E-09  7.76711E-09  8.14375E-09  8.19937E-09  7.68231E-09
   7.71120E-09  7.50505E-09  7.31724E-09  7.37891E-09  7.70148E-09  8.68781E-09  1.00063E-08  1.28271E-08  1.74099E-08  1.97901E-08
   2.00158E-08  1.93117E-08  1.93614E-08  1.81515E-08  1.74021E-08  1.62552E-08  1.60701E-08  1.55255E-08  1.56353E-08  1.47226E-08
   1.36362E-08  1.32430E-08  1.22955E-08  1.15474E-08  1.03689E-08  8.67984E-09  7.75941E-09  5.86734E-09  3.78617E-09  2.39250E-09
  -4.41940E-10 -2.99817E-09 -4.83586E-09 -7.54078E-09 -9.98748E-09 -1.23225E-08 -1.42308E-08 -1.58741E-08 -1.70784E-08 -1.73364E-08
  -1.85111E-08 -1.84408E-08 -1.74718E-08 -1.65627E-08 -1.46946E-08 -1.26795E-08 -1.13472E-08 -9.70487E-09 -7.50603E-09 -6.38208E-09
  -4.54118E-09 -3.92859E-09 -2.43297E-09 -2.82390E-09 -2.21815E-09 -1.95754E-09 -2.53541E-09 -2.43273E-09 -2.68650E-09 -2.83626E-09
  -2.85241E-09 -2.45087E-09 -2.03652E-09 -1.73411E-09 -1.45800E-09 -1.54478E-09 -1.26355E-09 -1.69830E-09 -1.86443E-09 -2.39980E-09
  -2.34118E-09 -2.47046E-09 -2.01315E-09 -1.77406E-09 -1.27814E-09 -9.12105E-10 -1.45926E-09 -8.77372E-10 -1.20932E-09 -1.69061E-09
  -1.81774E-09 -1.96495E-09 -1.67988E-09 -2.29452E-09 -1.98638E-09 -1.91011E-09 -1.30344E-09 -1.09413E-09 -1.02307E-09 -3.86841E-10
  -1.26722E-11 -8.43797E-10 -2.33793E-10 -4.84567E-10 -1.27529E-09 -8.83866E-10 -1.58794E-09 -1.55365E-09 -1.67344E-09 -1.84192E-09
  -2.05877E-09 -2.41144E-09 -1.96286E-09 -1.84878E-09 -1.71953E-09 -1.65139E-09 -1.77900E-09 -8.28137E-10 -8.07325E-10 -6.63541E-10
  -4.35928E-10 -3.63045E-10  8.86479E-11  3.52889E-10 -3.12537E-10  2.28764E-10 -3.93475E-10 -1.16421E-10  2.56982E-11 -4.57309E-10
  -4.58294E-10 -1.20396E-09 -3.59159E-10 -7.33573E-10 -1.03034E-09 -5.87379E-10 -1.04136E-09 -1.10895E-09 -1.52185E-09 -1.00237E-09
  -1.95326E-09 -1.40506E-09 -1.09749E-09 -1.30278E-09 -1.55903E-09 -1.62591E-09 -1.89162E-09 -2.29724E-09 -1.26030E-09 -1.83130E-09
  -2.01076E-09 -2.01335E-09 -1.50240E-09 -2.13560E-09 -1.77192E-09 -1.87875E-09 -1.74760E-09 -1.51031E-09 -1.89778E-09 -1.97665E-09
  -2.29134E-09 -2.01931E-09 -1.71907E-09 -2.00330E-09 -1.96119E-09 -1.73185E-09 -2.24913E-09 -1.47546E-09 -1.78056E-09 -1.87224E-09
  -2.28018E-09 -1.33148E-09 -1.69460E-09 -1.46729E-09 -2.04377E-09 -1.52433E-09 -2.08925E-09 -1.36206E-09 -2.35466E-09 -1.46000E-09
  -1.67908E-09 -1.59204E-09 -1.39036E-09 -1.70824E-09 -1.54977E-09 -1.31968E-09 -1.38560E-09 -2.08877E-09 -1.22978E-09 -1.70646E-09
  -1.50377E-09 -1.39533E-09 -1.48545E-09 -1.40830E-09 -1.16188E-09 -1.54618E-09 -1.29807E-09 -1.32023E-09 -1.62083E-09 -1.20328E-09
  -1.21607E-09 -1.15633E-09 -1.45334E-09 -1.32565E-09 -1.18040E-09 -8.08037E-10 -1.24034E-09 -1.17162E-09 -1.07288E-09 -4.83749E-10
  -7.09618E-10 -8.02683E-10 -1.14183E-09
 NY points of the fit to the data follow
   1.33410E-08  1.36664E-08  1.31264E-08  1.26339E-08  1.24841E-08  1.25052E-08  1.20681E-08  1.11992E-08  1.05888E-08  1.06649E-08
   1.11357E-08  1.16073E-08  1.19989E-08  1.23487E-08  1.27544E-08  1.29798E-08  1.30209E-08  1.31786E-08  1.31588E-08  1.24933E-08
   1.17150E-08  1.12801E-08  1.11283E-08  1.11311E-08  1.13764E-08  1.18637E-08  1.25543E-08  1.31934E-08  1.35172E-08  1.35195E-08
   1.35775E-08  1.35331E-08  1.34519E-08  1.33337E-08  1.30234E-08  1.24789E-08  1.18924E-08  1.13343E-08  1.09244E-08  1.06348E-08
   1.04085E-08  1.01473E-08  9.73737E-09  9.23816E-09  8.88575E-09  8.58262E-09  8.31307E-09  8.07824E-09  7.87669E-09  7.70780E-09
   7.54491E-09  7.38409E-09  7.21177E-09  7.04687E-09  7.08781E-09  7.46209E-09  7.83513E-09  8.31893E-09  9.04473E-09  9.77617E-09
   1.03496E-08  1.08499E-08  1.12527E-08  1.14922E-08  1.14460E-08  1.11157E-08  1.07427E-08  1.03440E-08  9.66003E-09  9.08857E-09
   8.74917E-09  8.64598E-09  8.76467E-09  8.95268E-09  9.26210E-09  9.81928E-09  1.08742E-08  1.21703E-08  1.33626E-08  1.42376E-08
   1.47735E-08  1.49685E-08  1.48714E-08  1.48251E-08  1.47007E-08  1.41118E-08  1.31942E-08  1.21610E-08  1.14411E-08  1.09261E-08
   1.05312E-08  1.02138E-08  9.94902E-09  9.72233E-09  9.51910E-09  9.33701E-09  9.17740E-09  9.03342E-09  8.89570E-09  8.76105E-09
   8.64174E-09  8.53731E-09  8.43709E-09  8.33829E-09  8.24593E-09  8.15936E-09  8.07736E-09  7.99912E-09  7.92372E-09  7.85075E-09
   7.77992E-09  7.71080E-09  7.64310E-09  7.57652E-09  7.51084E-09  7.44582E-09  7.38128E-09  7.31702E-09  7.25287E-09  7.18872E-09
   7.12435E-09  7.05971E-09  6.99464E-09  6.92904E-09  6.86280E-09  6.79581E-09  6.72797E-09  6.65924E-09  6.58950E-09  6.51866E-09
   6.44667E-09  6.37342E-09  6.29889E-09  6.22299E-09  6.14565E-09  6.06679E-09  5.98644E-09  5.90445E-09  5.82083E-09  5.73548E-09
   5.64842E-09  5.55957E-09  5.46892E-09  5.37641E-09  5.28205E-09  5.18581E-09  5.08772E-09  4.98788E-09  4.88642E-09  4.78349E-09
   4.67924E-09  4.57390E-09  4.46770E-09  4.36097E-09  4.25408E-09  4.14758E-09  4.04217E-09  3.93883E-09  3.83903E-09  3.74497E-09
   3.66014E-09  3.59057E-09  3.54723E-09  3.55260E-09  3.66022E-09  4.03273E-09  5.41634E-09  1.03831E-08  1.59409E-08  1.97676E-08
   2.13531E-08  2.13744E-08  2.07733E-08  2.01242E-08  1.94347E-08  1.80658E-08  1.50178E-08  9.87713E-09  4.51693E-09  2.81548E-09
   2.11127E-09  1.69032E-09  1.38659E-09  1.14287E-09  9.34185E-10  7.47943E-10  5.77121E-10  4.17527E-10  2.66439E-10  1.22129E-10
  -1.65753E-11 -1.50547E-10 -2.80347E-10 -4.06407E-10 -5.28997E-10 -6.48365E-10 -7.64674E-10 -8.77985E-10 -9.88391E-10 -1.09596E-09
  -1.20069E-09 -1.30260E-09 -1.40167E-09 -1.49789E-09 -1.59126E-09 -1.68171E-09 -1.76922E-09 -1.85377E-09 -1.93531E-09 -2.01376E-09
  -2.08914E-09 -2.16134E-09 -2.23034E-09 -2.29609E-09 -2.35856E-09 -2.41766E-09 -2.47336E-09 -2.52563E-09 -2.57440E-09 -2.61973E-09
  -2.66169E-09 -2.70039E-09 -2.73586E-09 -2.76821E-09 -2.79751E-09 -2.82384E-09 -2.84727E-09 -2.86789E-09 -2.88576E-09 -2.90097E-09
  -2.91359E-09 -2.92371E-09 -2.93139E-09 -2.93672E-09 -2.93976E-09 -2.94061E-09 -2.93933E-09 -2.93599E-09 -2.93067E-09 -2.92346E-09
  -2.91441E-09 -2.90362E-09 -2.89114E-09 -2.87707E-09 -2.86145E-09 -2.84437E-09 -2.82591E-09 -2.80614E-09 -2.78513E-09 -2.76293E-09
  -2.73964E-09 -2.71531E-09 -2.69003E-09 -2.66383E-09 -2.63681E-09 -2.60904E-09 -2.58057E-09 -2.55146E-09 -2.52179E-09 -2.49162E-09
  -2.46101E-09 -2.43003E-09 -2.39873E-09 -2.36719E-09 -2.33544E-09 -2.30355E-09 -2.27161E-09 -2.23962E-09 -2.20767E-09 -2.17582E-09
  -2.14410E-09 -2.11257E-09 -2.08130E-09 -2.05031E-09 -2.01968E-09 -1.98943E-09 -1.95963E-09 -1.93031E-09 -1.90151E-09 -1.87328E-09
  -1.84568E-09 -1.81872E-09 -1.79245E-09 -1.76691E-09 -1.74213E-09 -1.71816E-09 -1.69502E-09 -1.67272E-09 -1.65134E-09 -1.63087E-09
  -1.61135E-09 -1.59278E-09 -1.57513E-09 -1.55837E-09 -1.54246E-09 -1.52738E-09 -1.51309E-09 -1.49955E-09 -1.48675E-09 -1.47464E-09
  -1.46320E-09 -1.45239E-09 -1.44219E-09 -1.43257E-09 -1.42350E-09 -1.41494E-09 -1.40688E-09 -1.39929E-09 -1.39212E-09 -1.38536E-09
  -1.37899E-09 -1.37297E-09 -1.36729E-09 -1.36190E-09 -1.35680E-09 -1.35195E-09 -1.34733E-09 -1.34292E-09 -1.33869E-09 -1.33463E-09
  -1.33071E-09 -1.32690E-09 -1.32319E-09 -1.31956E-09 -1.31599E-09 -1.31245E-09 -1.30894E-09 -1.30543E-09 -1.30191E-09 -1.29835E-09
  -1.29474E-09 -1.29107E-09 -1.28732E-09 -1.28347E-09 -1.27952E-09 -1.27544E-09 -1.27124E-09 -1.26688E-09 -1.26237E-09 -1.25769E-09
  -1.25284E-09 -1.24779E-09 -1.24255E-09 -1.23711E-09 -1.23145E-09 -1.22558E-09 -1.21948E-09 -1.21315E-09 -1.20659E-09 -1.19979E-09
  -1.19275E-09 -1.18546E-09 -1.17793E-09 -1.17015E-09 -1.16213E-09 -1.15386E-09 -1.14534E-09 -1.13658E-09 -1.12757E-09 -1.11833E-09
  -1.10885E-09 -1.09915E-09 -1.08922E-09
 NY background values follow
     3.219E-09    3.277E-09    3.334E-09    3.390E-09    3.445E-09    3.500E-09    3.554E-09    3.607E-09    3.659E-09    3.710E-09
     3.761E-09    3.811E-09    3.860E-09    3.908E-09    3.956E-09    4.003E-09    4.049E-09    4.094E-09    4.138E-09    4.182E-09
     4.225E-09    4.267E-09    4.308E-09    4.349E-09    4.389E-09    4.428E-09    4.466E-09    4.504E-09    4.541E-09    4.577E-09
     4.612E-09    4.647E-09    4.681E-09    4.714E-09    4.747E-09    4.779E-09    4.810E-09    4.840E-09    4.870E-09    4.900E-09
     4.928E-09    4.956E-09    4.984E-09    5.010E-09    5.037E-09    5.062E-09    5.087E-09    5.112E-09    5.135E-09    5.159E-09
     5.182E-09    5.204E-09    5.226E-09    5.247E-09    5.268E-09    5.288E-09    5.308E-09    5.327E-09    5.346E-09    5.365E-09
     5.383E-09    5.401E-09    5.418E-09    5.435E-09    5.452E-09    5.468E-09    5.484E-09    5.500E-09    5.516E-09    5.531E-09
     5.546E-09    5.561E-09    5.575E-09    5.589E-09    5.603E-09    5.617E-09    5.631E-09    5.644E-09    5.657E-09    5.670E-09
     5.683E-09    5.695E-09    5.706E-09    5.718E-09    5.729E-09    5.739E-09    5.749E-09    5.759E-09    5.768E-09    5.776E-09
     5.784E-09    5.791E-09    5.797E-09    5.803E-09    5.809E-09    5.813E-09    5.817E-09    5.820E-09    5.822E-09    5.823E-09
     5.823E-09    5.823E-09    5.821E-09    5.819E-09    5.815E-09    5.810E-09    5.805E-09    5.798E-09    5.790E-09    5.781E-09
     5.770E-09    5.758E-09    5.745E-09    5.731E-09    5.715E-09    5.698E-09    5.679E-09    5.659E-09    5.638E-09    5.615E-09
     5.590E-09    5.563E-09    5.535E-09    5.505E-09    5.474E-09    5.440E-09    5.405E-09    5.368E-09    5.329E-09    5.288E-09
     5.246E-09    5.201E-09    5.154E-09    5.105E-09    5.054E-09    5.001E-09    4.945E-09    4.888E-09    4.828E-09    4.765E-09
     4.701E-09    4.634E-09    4.565E-09    4.493E-09    4.419E-09    4.342E-09    4.263E-09    4.182E-09    4.098E-09    4.012E-09
     3.923E-09    3.833E-09    3.740E-09    3.646E-09    3.549E-09    3.451E-09    3.351E-09    3.249E-09    3.146E-09    3.042E-09
     2.936E-09    2.828E-09    2.720E-09    2.610E-09    2.500E-09    2.388E-09    2.276E-09    2.162E-09    2.048E-09    1.934E-09
     1.819E-09    1.703E-09    1.588E-09    1.471E-09    1.355E-09    1.239E-09    1.123E-09    1.007E-09    8.907E-10    7.751E-10
     6.599E-10    5.451E-10    4.309E-10    3.174E-10    2.046E-10    9.263E-11   -1.843E-11   -1.284E-10   -2.374E-10   -3.452E-10
    -4.517E-10   -5.568E-10   -6.605E-10   -7.627E-10   -8.633E-10   -9.622E-10   -1.059E-09   -1.155E-09   -1.248E-09   -1.339E-09
    -1.429E-09   -1.516E-09   -1.600E-09   -1.683E-09   -1.763E-09   -1.841E-09   -1.916E-09   -1.988E-09   -2.058E-09   -2.125E-09
    -2.189E-09   -2.251E-09   -2.309E-09   -2.364E-09   -2.417E-09   -2.466E-09   -2.512E-09   -2.554E-09   -2.594E-09   -2.630E-09
    -2.662E-09   -2.692E-09   -2.719E-09   -2.742E-09   -2.763E-09   -2.781E-09   -2.796E-09   -2.809E-09   -2.818E-09   -2.826E-09
    -2.830E-09   -2.833E-09   -2.833E-09   -2.830E-09   -2.826E-09   -2.819E-09   -2.811E-09   -2.800E-09   -2.788E-09   -2.774E-09
    -2.758E-09   -2.740E-09   -2.721E-09   -2.700E-09   -2.678E-09   -2.654E-09   -2.629E-09   -2.603E-09   -2.575E-09   -2.547E-09
    -2.517E-09   -2.487E-09   -2.455E-09   -2.423E-09   -2.390E-09   -2.357E-09   -2.322E-09   -2.287E-09   -2.252E-09   -2.216E-09
    -2.180E-09   -2.143E-09   -2.106E-09   -2.069E-09   -2.032E-09   -1.995E-09   -1.958E-09   -1.920E-09   -1.883E-09   -1.846E-09
    -1.809E-09   -1.773E-09   -1.736E-09   -1.700E-09   -1.665E-09   -1.630E-09   -1.595E-09   -1.561E-09   -1.527E-09   -1.495E-09
    -1.462E-09   -1.431E-09   -1.400E-09   -1.370E-09   -1.340E-09   -1.312E-09   -1.284E-09   -1.258E-09   -1.232E-09   -1.207E-09
    -1.184E-09   -1.161E-09   -1.139E-09   -1.118E-09   -1.098E-09   -1.079E-09   -1.061E-09   -1.043E-09   -1.026E-09   -1.010E-09
    -9.949E-10   -9.803E-10   -9.663E-10   -9.529E-10   -9.400E-10   -9.278E-10   -9.160E-10   -9.048E-10   -8.940E-10   -8.837E-10
    -8.738E-10   -8.643E-10   -8.551E-10   -8.463E-10   -8.378E-10   -8.295E-10   -8.216E-10   -8.139E-10   -8.063E-10   -7.990E-10
    -7.919E-10   -7.849E-10   -7.780E-10   -7.713E-10   -7.646E-10   -7.580E-10   -7.514E-10   -7.449E-10   -7.384E-10   -7.319E-10
    -7.254E-10   -7.188E-10   -7.122E-10   -7.055E-10   -6.987E-10   -6.919E-10   -6.849E-10   -6.779E-10   -6.707E-10   -6.633E-10
    -6.558E-10   -6.481E-10   -6.403E-10   -6.323E-10   -6.241E-10   -6.158E-10   -6.072E-10   -5.984E-10   -5.894E-10   -5.802E-10
    -5.708E-10   -5.612E-10   -5.513E-10   -5.412E-10   -5.310E-10   -5.204E-10   -5.097E-10   -4.988E-10   -4.876E-10   -4.762E-10
    -4.646E-10   -4.528E-10   -4.408E-10
 Glc      Conc. = 5.85E-10
   2.87282E-09  3.14700E-09  3.38683E-09  3.61329E-09  3.80816E-09  3.98529E-09  4.10664E-09  4.18953E-09  4.19649E-09  4.11968E-09
   4.04967E-09  3.99979E-09  3.96515E-09  3.99364E-09  4.16706E-09  4.46835E-09  4.82966E-09  5.19262E-09  5.48282E-09  5.69877E-09
   5.90110E-09  6.08941E-09  6.23379E-09  6.33004E-09  6.31350E-09  6.17191E-09  6.03666E-09  5.95819E-09  5.92990E-09  5.92809E-09
   5.91379E-09  5.88880E-09  5.87552E-09  5.85251E-09  5.80708E-09  5.77329E-09  5.75010E-09  5.71772E-09  5.68423E-09  5.66085E-09
   5.64521E-09  5.63470E-09  5.62815E-09  5.62459E-09  5.62340E-09  5.62411E-09  5.62638E-09  5.62988E-09  5.63442E-09  5.63981E-09
   5.64587E-09  5.65253E-09  5.65963E-09  5.66711E-09  5.67493E-09  5.68297E-09  5.69121E-09  5.69965E-09  5.70814E-09  5.71676E-09
   5.72545E-09  5.73416E-09  5.74292E-09  5.75168E-09  5.76047E-09  5.76924E-09  5.77801E-09  5.78674E-09  5.79546E-09  5.80419E-09
   5.81288E-09  5.82155E-09  5.83023E-09  5.83889E-09  5.84754E-09  5.85613E-09  5.86465E-09  5.87307E-09  5.88136E-09  5.88948E-09
   5.89741E-09  5.90512E-09  5.91258E-09  5.91975E-09  5.92663E-09  5.93316E-09  5.93932E-09  5.94508E-09  5.95042E-09  5.95528E-09
   5.95965E-09  5.96350E-09  5.96677E-09  5.96948E-09  5.97155E-09  5.97295E-09  5.97367E-09  5.97366E-09  5.97288E-09  5.97132E-09
   5.96892E-09  5.96566E-09  5.96149E-09  5.95640E-09  5.95033E-09  5.94325E-09  5.93512E-09  5.92592E-09  5.91561E-09  5.90411E-09
   5.89146E-09  5.87756E-09  5.86238E-09  5.84590E-09  5.82808E-09  5.80889E-09  5.78828E-09  5.76622E-09  5.74264E-09  5.71758E-09
   5.69090E-09  5.66264E-09  5.63272E-09  5.60113E-09  5.56782E-09  5.53275E-09  5.49586E-09  5.45717E-09  5.41660E-09  5.37411E-09
   5.32969E-09  5.28326E-09  5.23484E-09  5.18436E-09  5.13178E-09  5.07705E-09  5.02020E-09  4.96113E-09  4.89984E-09  4.83625E-09
   4.77038E-09  4.70217E-09  4.63160E-09  4.55861E-09  4.48320E-09  4.40532E-09  4.32497E-09  4.24223E-09  4.15716E-09  4.06986E-09
   3.98040E-09  3.88887E-09  3.79535E-09  3.69994E-09  3.60273E-09  3.50384E-09  3.40339E-09  3.30149E-09  3.19833E-09  3.09411E-09
   2.98910E-09  2.88377E-09  2.77882E-09  2.67573E-09  2.57789E-09  2.49570E-09  2.47864E-09  2.67723E-09  2.90210E-09  3.01834E-09
   3.00003E-09  2.89010E-09  2.74498E-09  2.59784E-09  2.44741E-09  2.25377E-09  1.95683E-09  1.53561E-09  1.11076E-09  9.07456E-10
   7.58283E-10  6.25423E-10  4.99796E-10  3.78296E-10  2.59555E-10  1.42923E-10  2.80813E-11 -8.51139E-11 -1.96794E-10 -3.06952E-10
  -4.15559E-10 -5.22629E-10 -6.28089E-10 -7.31899E-10 -8.33970E-10 -9.34267E-10 -1.03273E-09 -1.12925E-09 -1.22377E-09 -1.31624E-09
  -1.40657E-09 -1.49469E-09 -1.58052E-09 -1.66400E-09 -1.74506E-09 -1.82360E-09 -1.89958E-09 -1.97293E-09 -2.04357E-09 -2.11141E-09
  -2.17644E-09 -2.23854E-09 -2.29767E-09 -2.35376E-09 -2.40677E-09 -2.45660E-09 -2.50321E-09 -2.54656E-09 -2.58657E-09 -2.62330E-09
  -2.65681E-09 -2.68718E-09 -2.71447E-09 -2.73877E-09 -2.76013E-09 -2.77865E-09 -2.79438E-09 -2.80740E-09 -2.81779E-09 -2.82562E-09
  -2.83096E-09 -2.83389E-09 -2.83448E-09 -2.83280E-09 -2.82893E-09 -2.82295E-09 -2.81492E-09 -2.80492E-09 -2.79302E-09 -2.77929E-09
  -2.76381E-09 -2.74666E-09 -2.72790E-09 -2.70761E-09 -2.68584E-09 -2.66269E-09 -2.63822E-09 -2.61250E-09 -2.58560E-09 -2.55758E-09
  -2.52853E-09 -2.49849E-09 -2.46758E-09 -2.43579E-09 -2.40324E-09 -2.37000E-09 -2.33611E-09 -2.30165E-09 -2.26667E-09 -2.23124E-09
  -2.19543E-09 -2.15930E-09 -2.12290E-09 -2.08630E-09 -2.04955E-09 -2.01272E-09 -1.97586E-09 -1.93901E-09 -1.90225E-09 -1.86563E-09
  -1.82919E-09 -1.79299E-09 -1.75708E-09 -1.72150E-09 -1.68633E-09 -1.65157E-09 -1.61730E-09 -1.58357E-09 -1.55039E-09 -1.51782E-09
  -1.48591E-09 -1.45469E-09 -1.42421E-09 -1.39449E-09 -1.36557E-09 -1.33749E-09 -1.31028E-09 -1.28396E-09 -1.25858E-09 -1.23416E-09
  -1.21071E-09 -1.18827E-09 -1.16677E-09 -1.14619E-09 -1.12651E-09 -1.10768E-09 -1.08968E-09 -1.07247E-09 -1.05602E-09 -1.04031E-09
  -1.02529E-09 -1.01094E-09 -9.97237E-10 -9.84140E-10 -9.71620E-10 -9.59652E-10 -9.48210E-10 -9.37264E-10 -9.26781E-10 -9.16737E-10
  -9.07107E-10 -8.97860E-10 -8.88979E-10 -8.80427E-10 -8.72187E-10 -8.64229E-10 -8.56535E-10 -8.49074E-10 -8.41828E-10 -8.34774E-10
  -8.27891E-10 -8.21148E-10 -8.14537E-10 -8.08032E-10 -8.01610E-10 -7.95250E-10 -7.88947E-10 -7.82669E-10 -7.76406E-10 -7.70132E-10
  -7.63841E-10 -7.57511E-10 -7.51125E-10 -7.44672E-10 -7.38140E-10 -7.31512E-10 -7.24778E-10 -7.17920E-10 -7.10937E-10 -7.03801E-10
  -6.96522E-10 -6.89075E-10 -6.81462E-10 -6.73670E-10 -6.65683E-10 -6.57513E-10 -6.49138E-10 -6.40562E-10 -6.31773E-10 -6.22772E-10
  -6.13555E-10 -6.04116E-10 -5.94457E-10 -5.84574E-10 -5.74469E-10 -5.64138E-10 -5.53590E-10 -5.42817E-10 -5.31826E-10 -5.20622E-10
  -5.09205E-10 -4.97581E-10 -4.85758E-10
 Gln      Conc. = 2.18E-09
   1.82121E-09  2.21501E-09  2.72329E-09  3.30749E-09  3.89742E-09  4.43366E-09  4.86882E-09  5.16692E-09  5.34304E-09  5.51084E-09
   5.45373E-09  5.30324E-09  5.19381E-09  4.95260E-09  4.77618E-09  4.65571E-09  4.57036E-09  4.50814E-09  4.46201E-09  4.42751E-09
   4.40163E-09  4.38223E-09  4.36772E-09  4.35702E-09  4.34945E-09  4.34443E-09  4.34102E-09  4.33897E-09  4.33792E-09  4.33732E-09
   4.33689E-09  4.33635E-09  4.33547E-09  4.33406E-09  4.33189E-09  4.32880E-09  4.32453E-09  4.31889E-09  4.31161E-09  4.30248E-09
   4.29131E-09  4.27785E-09  4.26200E-09  4.24346E-09  4.22170E-09  4.19641E-09  4.16706E-09  4.13226E-09  4.09253E-09  4.04856E-09
   3.99839E-09  3.94374E-09  3.89213E-09  3.87171E-09  4.04231E-09  4.50377E-09  4.94728E-09  5.49304E-09  6.29701E-09  7.15191E-09
   7.87113E-09  8.49719E-09  8.99407E-09  9.28824E-09  9.30620E-09  9.05583E-09  8.74291E-09  8.39865E-09  7.74506E-09  7.14686E-09
   6.75496E-09  6.55478E-09  6.54743E-09  6.65589E-09  6.98240E-09  7.53958E-09  8.10946E-09  8.67840E-09  9.21920E-09  9.68702E-09
   1.00469E-08  1.02130E-08  1.01313E-08  1.00173E-08  9.82223E-09  9.37887E-09  8.99664E-09  8.69738E-09  8.33396E-09  8.04019E-09
   7.81892E-09  7.64530E-09  7.50522E-09  7.38836E-09  7.28749E-09  7.19975E-09  7.12259E-09  7.05357E-09  6.99144E-09  6.93501E-09
   6.88297E-09  6.83438E-09  6.78868E-09  6.74545E-09  6.70431E-09  6.66483E-09  6.62661E-09  6.58938E-09  6.55288E-09  6.51685E-09
   6.48118E-09  6.44562E-09  6.41003E-09  6.37427E-09  6.33821E-09  6.30172E-09  6.26470E-09  6.22703E-09  6.18860E-09  6.14936E-09
   6.10916E-09  6.06798E-09  6.02570E-09  5.98227E-09  5.93760E-09  5.89163E-09  5.84427E-09  5.79552E-09  5.74526E-09  5.69344E-09
   5.64003E-09  5.58493E-09  5.52814E-09  5.46958E-09  5.40920E-09  5.34693E-09  5.28278E-09  5.21665E-09  5.14852E-09  5.07832E-09
   5.00605E-09  4.93165E-09  4.85508E-09  4.77628E-09  4.69526E-09  4.61196E-09  4.52639E-09  4.43861E-09  4.34871E-09  4.25678E-09
   4.16290E-09  4.06719E-09  3.96975E-09  3.87073E-09  3.77025E-09  3.66850E-09  3.56570E-09  3.46213E-09  3.35819E-09  3.25441E-09
   3.15163E-09  3.05127E-09  2.95583E-09  2.87037E-09  2.80689E-09  2.80167E-09  3.02080E-09  4.05101E-09  5.20922E-09  5.97537E-09
   6.23754E-09  6.14945E-09  5.92303E-09  5.68692E-09  5.44246E-09  5.04570E-09  4.27140E-09  3.02566E-09  1.72973E-09  1.26430E-09
   1.01777E-09  8.34141E-10  6.76916E-10  5.33554E-10  3.98576E-10  2.69253E-10  1.44100E-10  2.22687E-11 -9.68216E-11 -2.13466E-10
  -3.27845E-10 -4.40120E-10 -5.50329E-10 -6.58516E-10 -7.64653E-10 -8.68753E-10 -9.70798E-10 -1.07070E-09 -1.16844E-09 -1.26399E-09
  -1.35726E-09 -1.44821E-09 -1.53676E-09 -1.62287E-09 -1.70647E-09 -1.78748E-09 -1.86585E-09 -1.94152E-09 -2.01444E-09 -2.08448E-09
  -2.15167E-09 -2.21588E-09 -2.27707E-09 -2.33518E-09 -2.39016E-09 -2.44193E-09 -2.49044E-09 -2.53566E-09 -2.57749E-09 -2.61602E-09
  -2.65129E-09 -2.68340E-09 -2.71240E-09 -2.73837E-09 -2.76139E-09 -2.78153E-09 -2.79887E-09 -2.81347E-09 -2.82542E-09 -2.83477E-09
