 LCModel (Version 6.3-1R) Copyright: S.W. Provencher.          Ref.: Magn. Reson. Med. 30:672-679 (1993).                
 onepulse 15x27_ftSpec_smooth_lcm
 26 lines in following concentration table = NCONC+1
    Conc.  %SD /Cr+PCr  Metabolite                                         
    0.000 999%   0.000 Ala                                                 
    0.000 999%   0.000 Asp                                                 
    0.000 999%   0.000 Cr                                                  
    0.000 999%   0.000 GABA                                                
 3.68E-10 390%   1.359 Glc                                                 
 1.47E-09  77%   5.433 Gln                                                 
    0.000 999%   0.000 Glu                                                 
    0.000 999%   0.000 Glyc                                                
 2.05E-10  71%   0.756 GPC                                                 
 3.24E-11 999%   0.120 GSH                                                 
 1.99E-09  44%   7.343 Ins                                                 
    0.000 999%   0.000 Lac                                                 
 4.63E-10 116%   1.709 NAAG                                                
 6.75E-11 999%   0.249 NAA                                                 
    0.000 999%   0.000 PCh                                                 
 2.71E-10 159%   1.000 PCr                                                 
    0.000 999%   0.000 PE                                                  
 2.67E-10 131%   0.985 Scyllo                                              
 6.85E-09  23%  25.306 Ser                                                 
    0.000 999%   0.000 Tau                                                 
 2.05E-10  71%   0.756 GPC+PCh                                             
 5.30E-10  86%   1.958 NAA+NAAG                                            
 1.99E-09  44%   7.343 Ins+Glyc                                            
 2.71E-10 159%   1.000 Cr+PCr                                              
 1.47E-09  77%   5.433 Glu+Gln                                             
   6 lines in following misc. output table
  FWHM = 0.101 ppm    S/N =   2                                            
  Data shift = 0.391 ppm                                                   
  Ph: -38 deg     -43.3 deg/ppm                                            
  alphaB,S = 8.3E-01,   4.2E+01                                            
    8 spline knots.   Ns = 5(1)                                            
  (10) 4 infls.   ( 5) 1 extrs.                                            
  363 points on ppm-axis = NY
      4.250000     4.238821     4.227641     4.216462     4.205282     4.194103     4.182923     4.171744     4.160564     4.149385
      4.138206     4.127026     4.115847     4.104667     4.093488     4.082308     4.071129     4.059949     4.048770     4.037591
      4.026411     4.015232     4.004052     3.992873     3.981693     3.970514     3.959334     3.948155     3.936975     3.925796
      3.914617     3.903437     3.892258     3.881078     3.869899     3.858719     3.847540     3.836360     3.825181     3.814002
      3.802822     3.791643     3.780463     3.769284     3.758104     3.746925     3.735745     3.724566     3.713387     3.702207
      3.691028     3.679848     3.668669     3.657489     3.646310     3.635130     3.623951     3.612772     3.601592     3.590413
      3.579233     3.568054     3.556874     3.545695     3.534515     3.523336     3.512156     3.500977     3.489798     3.478618
      3.467439     3.456259     3.445080     3.433900     3.422721     3.411541     3.400362     3.389183     3.378003     3.366824
      3.355644     3.344465     3.333285     3.322106     3.310926     3.299747     3.288568     3.277388     3.266209     3.255029
      3.243850     3.232670     3.221491     3.210311     3.199132     3.187953     3.176773     3.165594     3.154414     3.143235
      3.132055     3.120876     3.109696     3.098517     3.087337     3.076158     3.064979     3.053799     3.042620     3.031440
      3.020261     3.009081     2.997902     2.986722     2.975543     2.964364     2.953184     2.942005     2.930825     2.919646
      2.908466     2.897287     2.886107     2.874928     2.863749     2.852569     2.841390     2.830210     2.819031     2.807851
      2.796672     2.785492     2.774313     2.763134     2.751954     2.740775     2.729595     2.718416     2.707236     2.696057
      2.684877     2.673698     2.662519     2.651339     2.640160     2.628980     2.617801     2.606621     2.595442     2.584262
      2.573083     2.561903     2.550724     2.539545     2.528365     2.517186     2.506006     2.494827     2.483647     2.472468
      2.461288     2.450109     2.438930     2.427750     2.416571     2.405391     2.394212     2.383032     2.371853     2.360673
      2.349494     2.338315     2.327135     2.315956     2.304776     2.293597     2.282417     2.271238     2.260058     2.248879
      2.237700     2.226520     2.215341     2.204161     2.192982     2.181802     2.170623     2.159443     2.148264     2.137084
      2.125905     2.114726     2.103546     2.092367     2.081187     2.070008     2.058828     2.047649     2.036469     2.025290
      2.014111     2.002931     1.991752     1.980572     1.969393     1.958213     1.947034     1.935854     1.924675     1.913496
      1.902316     1.891137     1.879957     1.868778     1.857598     1.846419     1.835239     1.824060     1.812881     1.801701
      1.790522     1.779342     1.768163     1.756983     1.745804     1.734624     1.723445     1.712265     1.701086     1.689907
      1.678727     1.667548     1.656368     1.645189     1.634009     1.622830     1.611650     1.600471     1.589292     1.578112
      1.566933     1.555753     1.544574     1.533394     1.522215     1.511035     1.499856     1.488677     1.477497     1.466318
      1.455138     1.443959     1.432779     1.421600     1.410420     1.399241     1.388062     1.376882     1.365703     1.354523
      1.343344     1.332164     1.320985     1.309805     1.298626     1.287446     1.276267     1.265088     1.253908     1.242729
      1.231549     1.220370     1.209190     1.198011     1.186831     1.175652     1.164473     1.153293     1.142114     1.130934
      1.119755     1.108575     1.097396     1.086216     1.075037     1.063858     1.052678     1.041499     1.030319     1.019140
      1.007960     0.996781     0.985601     0.974422     0.963243     0.952063     0.940884     0.929704     0.918525     0.907345
      0.896166     0.884986     0.873807     0.862628     0.851448     0.840269     0.829089     0.817910     0.806730     0.795551
      0.784371     0.773192     0.762012     0.750833     0.739654     0.728474     0.717295     0.706115     0.694936     0.683756
      0.672577     0.661397     0.650218     0.639039     0.627859     0.616680     0.605500     0.594321     0.583141     0.571962
      0.560782     0.549603     0.538424     0.527244     0.516065     0.504885     0.493706     0.482526     0.471347     0.460167
      0.448988     0.437809     0.426629     0.415450     0.404270     0.393091     0.381911     0.370732     0.359552     0.348373
      0.337193     0.326014     0.314835     0.303655     0.292476     0.281296     0.270117     0.258937     0.247758     0.236578
      0.225399     0.214220     0.203040
 NY phased data points follow
   1.39573E-08  1.37467E-08  1.25271E-08  1.25971E-08  1.18284E-08  1.16810E-08  1.16896E-08  1.18336E-08  1.15132E-08  1.19725E-08
   1.22381E-08  1.33674E-08  1.32794E-08  1.36106E-08  1.28821E-08  1.33377E-08  1.29325E-08  1.32798E-08  1.26128E-08  1.24918E-08
   1.17653E-08  1.29113E-08  1.35403E-08  1.35231E-08  1.26986E-08  1.28492E-08  1.13629E-08  1.24105E-08  1.28007E-08  1.45609E-08
   1.50525E-08  1.61493E-08  1.48359E-08  1.48852E-08  1.36534E-08  1.37264E-08  1.23362E-08  1.33719E-08  1.27819E-08  1.35532E-08
   1.24043E-08  1.24403E-08  1.20607E-08  1.18890E-08  1.11087E-08  1.12702E-08  9.99820E-09  1.11055E-08  1.04497E-08  1.12559E-08
   1.02118E-08  1.03345E-08  8.91772E-09  9.08401E-09  8.83547E-09  8.92291E-09  8.60194E-09  8.80556E-09  7.68496E-09  1.02486E-08
   1.09646E-08  1.31998E-08  1.26555E-08  1.33409E-08  1.23569E-08  1.23032E-08  1.04813E-08  1.12115E-08  1.00330E-08  9.91826E-09
   8.94874E-09  8.74987E-09  7.62067E-09  7.44455E-09  5.28752E-09  7.79234E-09  1.06063E-08  1.44927E-08  1.61393E-08  1.65777E-08
   1.53804E-08  1.61206E-08  1.49671E-08  1.56006E-08  1.46091E-08  1.47227E-08  1.45279E-08  1.52320E-08  1.38754E-08  1.44556E-08
   1.33150E-08  1.39398E-08  1.26249E-08  1.29777E-08  1.19477E-08  1.25080E-08  1.13360E-08  1.18017E-08  1.07839E-08  1.16012E-08
   1.08533E-08  1.13655E-08  1.07838E-08  1.10759E-08  1.04730E-08  9.74206E-09  9.09839E-09  8.70086E-09  7.34773E-09  8.09384E-09
   7.54301E-09  8.68045E-09  7.46515E-09  7.69716E-09  7.63836E-09  8.37722E-09  7.72074E-09  8.91071E-09  7.89775E-09  8.16866E-09
   7.52918E-09  7.61134E-09  5.81050E-09  6.60483E-09  5.83641E-09  6.44921E-09  5.81603E-09  5.87233E-09  5.47495E-09  6.42796E-09
   5.99103E-09  6.21153E-09  5.77140E-09  5.76962E-09  4.93845E-09  5.74954E-09  5.68403E-09  7.51306E-09  8.03093E-09  8.79281E-09
   8.44998E-09  9.13116E-09  9.19684E-09  1.04642E-08  1.08229E-08  1.15301E-08  1.10721E-08  1.14837E-08  1.08761E-08  1.16126E-08
   1.06454E-08  1.17806E-08  1.08378E-08  1.13893E-08  1.12108E-08  1.12543E-08  1.09925E-08  1.15941E-08  1.17404E-08  1.18598E-08
   1.09707E-08  1.18547E-08  1.08437E-08  1.14685E-08  1.06793E-08  1.12865E-08  1.09122E-08  1.58615E-08  2.02344E-08  2.38818E-08
   2.36326E-08  2.32360E-08  2.26986E-08  2.26331E-08  2.12398E-08  2.14589E-08  2.08270E-08  2.05458E-08  1.96445E-08  1.97504E-08
   1.80354E-08  1.79422E-08  1.62945E-08  1.48738E-08  1.29737E-08  1.17984E-08  9.27294E-09  7.82970E-09  3.96301E-09  1.43130E-09
  -2.31733E-09 -5.57077E-09 -9.06626E-09 -1.16251E-08 -1.50027E-08 -1.74437E-08 -2.01169E-08 -2.12733E-08 -2.26239E-08 -2.29109E-08
  -2.35534E-08 -2.20909E-08 -2.07722E-08 -1.85620E-08 -1.65401E-08 -1.31923E-08 -1.11874E-08 -7.70099E-09 -6.06492E-09 -4.12282E-09
  -2.93817E-09 -2.24580E-09 -1.95354E-09 -2.34011E-09 -2.85842E-09 -2.77330E-09 -3.99836E-09 -3.14077E-09 -3.53917E-09 -2.87318E-09
  -2.30063E-09 -1.78747E-09 -1.87102E-09 -1.81725E-09 -2.20773E-09 -1.86422E-09 -2.82133E-09 -2.19027E-09 -3.05806E-09 -2.55595E-09
  -2.75298E-09 -2.05195E-09 -2.35980E-09 -1.64701E-09 -1.56057E-09 -1.57112E-09 -2.38104E-09 -1.94889E-09 -2.76502E-09 -2.29424E-09
  -2.82421E-09 -2.88929E-09 -2.97576E-09 -2.27949E-09 -2.54473E-09 -1.68188E-09 -2.36207E-09 -1.37329E-09 -1.66046E-09 -9.83601E-10
  -1.78710E-09 -1.83859E-09 -1.82215E-09 -1.28477E-09 -2.61260E-09 -1.72898E-09 -2.55951E-09 -2.09039E-09 -2.67061E-09 -2.41384E-09
  -2.70021E-09 -2.80881E-09 -2.85416E-09 -1.82657E-09 -2.54548E-09 -1.76075E-09 -2.09563E-09 -1.28217E-09 -1.10805E-09 -4.13695E-10
  -1.21116E-09 -3.95900E-11 -5.73992E-10  7.43606E-11 -7.85373E-10 -9.97611E-11 -9.84299E-10 -1.43299E-10 -1.19017E-09 -1.04687E-09
  -9.28633E-10 -1.36253E-09 -1.50272E-09 -1.07012E-09 -2.20668E-09 -1.36394E-09 -1.93252E-09 -1.66900E-09 -2.25299E-09 -1.35053E-09
  -2.63959E-09 -2.03752E-09 -2.17161E-09 -1.73864E-09 -2.46978E-09 -2.00669E-09 -2.41808E-09 -2.17871E-09 -2.28865E-09 -1.92370E-09
  -2.41592E-09 -1.95202E-09 -2.63600E-09 -2.16780E-09 -2.36803E-09 -2.15678E-09 -2.61499E-09 -2.33633E-09 -2.71128E-09 -2.40055E-09
  -2.88176E-09 -2.27197E-09 -2.61975E-09 -1.78986E-09 -2.66947E-09 -2.12157E-09 -2.60204E-09 -1.80299E-09 -2.44046E-09 -2.09891E-09
  -2.66888E-09 -1.99315E-09 -2.73711E-09 -1.83913E-09 -2.25201E-09 -1.64974E-09 -2.33649E-09 -1.91151E-09 -3.14577E-09 -1.69177E-09
  -2.49589E-09 -1.58398E-09 -2.13050E-09 -2.21882E-09 -2.57899E-09 -1.71821E-09 -2.08924E-09 -1.99628E-09 -1.88274E-09 -1.56151E-09
  -2.33491E-09 -1.86754E-09 -2.43224E-09 -2.04707E-09 -2.15857E-09 -2.24801E-09 -2.20347E-09 -2.18229E-09 -2.15256E-09 -1.99070E-09
  -2.18773E-09 -1.43837E-09 -2.08131E-09 -1.53599E-09 -1.96558E-09 -1.65517E-09 -2.05563E-09 -1.26756E-09 -1.66330E-09 -1.39688E-09
  -1.56209E-09 -1.14385E-09 -1.76745E-09
 NY points of the fit to the data follow
   1.14323E-08  1.37706E-08  1.40740E-08  1.31735E-08  1.31625E-08  1.36644E-08  1.35182E-08  1.23001E-08  1.09398E-08  1.05139E-08
   1.07749E-08  1.13440E-08  1.19437E-08  1.25935E-08  1.32621E-08  1.36184E-08  1.36490E-08  1.37876E-08  1.39883E-08  1.35443E-08
   1.28577E-08  1.23264E-08  1.18618E-08  1.14178E-08  1.15530E-08  1.23303E-08  1.34018E-08  1.42795E-08  1.45328E-08  1.41746E-08
   1.41095E-08  1.42128E-08  1.45179E-08  1.47389E-08  1.45177E-08  1.38578E-08  1.33168E-08  1.29043E-08  1.26250E-08  1.24750E-08
   1.23927E-08  1.22503E-08  1.18850E-08  1.13414E-08  1.09625E-08  1.06457E-08  1.03662E-08  1.01207E-08  9.90563E-09  9.73406E-09
   9.57631E-09  9.42817E-09  9.26353E-09  9.08092E-09  9.01211E-09  9.18784E-09  9.38684E-09  9.67006E-09  1.01305E-08  1.06140E-08
   1.09926E-08  1.13406E-08  1.16506E-08  1.18884E-08  1.19429E-08  1.17894E-08  1.15805E-08  1.13304E-08  1.08615E-08  1.04527E-08
   1.01961E-08  1.01013E-08  1.01653E-08  1.02675E-08  1.04079E-08  1.06873E-08  1.14922E-08  1.26679E-08  1.38761E-08  1.48400E-08
   1.54851E-08  1.58290E-08  1.59550E-08  1.61469E-08  1.62996E-08  1.60298E-08  1.53099E-08  1.43077E-08  1.35760E-08  1.30599E-08
   1.26797E-08  1.23778E-08  1.21271E-08  1.19115E-08  1.17180E-08  1.15439E-08  1.13911E-08  1.12524E-08  1.11178E-08  1.09844E-08
   1.08647E-08  1.07598E-08  1.06586E-08  1.05573E-08  1.04614E-08  1.03706E-08  1.02838E-08  1.02001E-08  1.01187E-08  1.00392E-08
   9.96123E-09  9.88442E-09  9.80848E-09  9.73315E-09  9.65817E-09  9.58335E-09  9.50849E-09  9.43342E-09  9.35794E-09  9.28200E-09
   9.20534E-09  9.12794E-09  9.04963E-09  8.97034E-09  8.88995E-09  8.80837E-09  8.72548E-09  8.64129E-09  8.55564E-09  8.46848E-09
   8.37977E-09  8.28939E-09  8.19735E-09  8.10356E-09  8.00796E-09  7.91047E-09  7.81116E-09  7.70987E-09  7.60663E-09  7.50135E-09
   7.39407E-09  7.28474E-09  7.17335E-09  7.05986E-09  6.94433E-09  6.82673E-09  6.70713E-09  6.58567E-09  6.46249E-09  6.33781E-09
   6.21182E-09  6.08482E-09  5.95710E-09  5.82910E-09  5.70130E-09  5.57440E-09  5.44929E-09  5.32722E-09  5.21001E-09  5.10034E-09
   5.00242E-09  4.92332E-09  4.87567E-09  4.88460E-09  5.00789E-09  5.41283E-09  6.81871E-09  1.19953E-08  1.84981E-08  2.33370E-08
   2.55792E-08  2.58804E-08  2.54095E-08  2.49568E-08  2.44939E-08  2.31412E-08  1.96122E-08  1.34575E-08  6.73820E-09  3.95671E-09
   2.96397E-09  2.41546E-09  2.03521E-09  1.73648E-09  1.48351E-09  1.25895E-09  1.05344E-09  8.61522E-10  6.79692E-10  5.05789E-10
   3.38366E-10  1.76341E-10  1.90429E-11 -1.34050E-10 -2.83250E-10 -4.28858E-10 -5.71071E-10 -7.09944E-10 -8.45595E-10 -9.78108E-10
  -1.10748E-09 -1.23373E-09 -1.35683E-09 -1.47680E-09 -1.59361E-09 -1.70720E-09 -1.81756E-09 -1.92466E-09 -2.02845E-09 -2.12884E-09
  -2.22587E-09 -2.31942E-09 -2.40948E-09 -2.49599E-09 -2.57894E-09 -2.65822E-09 -2.73383E-09 -2.80573E-09 -2.87385E-09 -2.93827E-09
  -2.99905E-09 -3.05627E-09 -3.10999E-09 -3.16030E-09 -3.20726E-09 -3.25097E-09 -3.29149E-09 -3.32889E-09 -3.36325E-09 -3.39464E-09
  -3.42315E-09 -3.44884E-09 -3.47179E-09 -3.49208E-09 -3.50978E-09 -3.52497E-09 -3.53772E-09 -3.54810E-09 -3.55620E-09 -3.56207E-09
  -3.56580E-09 -3.56747E-09 -3.56714E-09 -3.56489E-09 -3.56078E-09 -3.55489E-09 -3.54730E-09 -3.53807E-09 -3.52728E-09 -3.51498E-09
  -3.50127E-09 -3.48618E-09 -3.46982E-09 -3.45222E-09 -3.43345E-09 -3.41361E-09 -3.39274E-09 -3.37089E-09 -3.34815E-09 -3.32455E-09
  -3.30018E-09 -3.27510E-09 -3.24935E-09 -3.22300E-09 -3.19609E-09 -3.16869E-09 -3.14087E-09 -3.11264E-09 -3.08408E-09 -3.05525E-09
  -3.02617E-09 -2.99690E-09 -2.96750E-09 -2.93799E-09 -2.90844E-09 -2.87887E-09 -2.84933E-09 -2.81986E-09 -2.79049E-09 -2.76126E-09
  -2.73221E-09 -2.70337E-09 -2.67477E-09 -2.64643E-09 -2.61840E-09 -2.59068E-09 -2.56332E-09 -2.53630E-09 -2.50969E-09 -2.48349E-09
  -2.45770E-09 -2.43234E-09 -2.40739E-09 -2.38282E-09 -2.35861E-09 -2.33475E-09 -2.31121E-09 -2.28798E-09 -2.26502E-09 -2.24234E-09
  -2.21990E-09 -2.19768E-09 -2.17568E-09 -2.15386E-09 -2.13222E-09 -2.11074E-09 -2.08940E-09 -2.06819E-09 -2.04708E-09 -2.02607E-09
  -2.00514E-09 -1.98426E-09 -1.96345E-09 -1.94266E-09 -1.92190E-09 -1.90115E-09 -1.88040E-09 -1.85963E-09 -1.83884E-09 -1.81801E-09
  -1.79713E-09 -1.77620E-09 -1.75520E-09 -1.73413E-09 -1.71298E-09 -1.69173E-09 -1.67038E-09 -1.64893E-09 -1.62737E-09 -1.60569E-09
  -1.58389E-09 -1.56196E-09 -1.53989E-09 -1.51769E-09 -1.49535E-09 -1.47287E-09 -1.45025E-09 -1.42748E-09 -1.40457E-09 -1.38150E-09
  -1.35830E-09 -1.33494E-09 -1.31144E-09 -1.28780E-09 -1.26402E-09 -1.24010E-09 -1.21605E-09 -1.19186E-09 -1.16755E-09 -1.14312E-09
  -1.11858E-09 -1.09393E-09 -1.06917E-09 -1.04432E-09 -1.01939E-09 -9.94377E-10 -9.69296E-10 -9.44157E-10 -9.18968E-10 -8.93741E-10
  -8.68487E-10 -8.43219E-10 -8.17946E-10
 NY background values follow
     5.690E-10    7.054E-10    8.405E-10    9.743E-10    1.107E-09    1.238E-09    1.369E-09    1.497E-09    1.625E-09    1.751E-09
     1.876E-09    2.000E-09    2.122E-09    2.243E-09    2.363E-09    2.481E-09    2.598E-09    2.713E-09    2.827E-09    2.940E-09
     3.051E-09    3.161E-09    3.270E-09    3.377E-09    3.483E-09    3.587E-09    3.690E-09    3.791E-09    3.891E-09    3.990E-09
     4.087E-09    4.183E-09    4.277E-09    4.370E-09    4.461E-09    4.551E-09    4.640E-09    4.727E-09    4.813E-09    4.897E-09
     4.980E-09    5.061E-09    5.142E-09    5.220E-09    5.298E-09    5.374E-09    5.448E-09    5.521E-09    5.593E-09    5.664E-09
     5.733E-09    5.801E-09    5.867E-09    5.932E-09    5.996E-09    6.059E-09    6.120E-09    6.180E-09    6.239E-09    6.296E-09
     6.352E-09    6.407E-09    6.461E-09    6.514E-09    6.565E-09    6.616E-09    6.665E-09    6.713E-09    6.760E-09    6.806E-09
     6.850E-09    6.894E-09    6.936E-09    6.978E-09    7.019E-09    7.058E-09    7.096E-09    7.134E-09    7.170E-09    7.205E-09
     7.239E-09    7.272E-09    7.304E-09    7.334E-09    7.364E-09    7.392E-09    7.419E-09    7.445E-09    7.469E-09    7.493E-09
     7.515E-09    7.535E-09    7.554E-09    7.572E-09    7.589E-09    7.604E-09    7.618E-09    7.630E-09    7.640E-09    7.649E-09
     7.657E-09    7.663E-09    7.667E-09    7.670E-09    7.671E-09    7.671E-09    7.668E-09    7.664E-09    7.658E-09    7.650E-09
     7.641E-09    7.629E-09    7.616E-09    7.601E-09    7.584E-09    7.564E-09    7.543E-09    7.519E-09    7.494E-09    7.466E-09
     7.437E-09    7.405E-09    7.370E-09    7.334E-09    7.295E-09    7.254E-09    7.210E-09    7.165E-09    7.116E-09    7.066E-09
     7.012E-09    6.957E-09    6.898E-09    6.838E-09    6.774E-09    6.708E-09    6.639E-09    6.568E-09    6.494E-09    6.417E-09
     6.338E-09    6.255E-09    6.170E-09    6.082E-09    5.991E-09    5.898E-09    5.801E-09    5.702E-09    5.599E-09    5.495E-09
     5.387E-09    5.278E-09    5.165E-09    5.051E-09    4.934E-09    4.816E-09    4.695E-09    4.572E-09    4.448E-09    4.321E-09
     4.194E-09    4.064E-09    3.933E-09    3.801E-09    3.668E-09    3.533E-09    3.398E-09    3.261E-09    3.124E-09    2.986E-09
     2.847E-09    2.708E-09    2.568E-09    2.428E-09    2.288E-09    2.148E-09    2.008E-09    1.867E-09    1.727E-09    1.588E-09
     1.449E-09    1.310E-09    1.172E-09    1.034E-09    8.977E-10    7.620E-10    6.273E-10    4.938E-10    3.615E-10    2.305E-10
     1.009E-10   -2.722E-11   -1.537E-10   -2.785E-10   -4.015E-10   -5.226E-10   -6.418E-10   -7.589E-10   -8.738E-10   -9.865E-10
    -1.097E-09   -1.205E-09   -1.310E-09   -1.413E-09   -1.513E-09   -1.611E-09   -1.706E-09   -1.797E-09   -1.886E-09   -1.972E-09
    -2.055E-09   -2.134E-09   -2.211E-09   -2.284E-09   -2.354E-09   -2.420E-09   -2.483E-09   -2.542E-09   -2.598E-09   -2.650E-09
    -2.699E-09   -2.745E-09   -2.787E-09   -2.826E-09   -2.861E-09   -2.894E-09   -2.923E-09   -2.950E-09   -2.974E-09   -2.995E-09
    -3.013E-09   -3.028E-09   -3.041E-09   -3.051E-09   -3.059E-09   -3.064E-09   -3.067E-09   -3.068E-09   -3.067E-09   -3.063E-09
    -3.058E-09   -3.051E-09   -3.041E-09   -3.030E-09   -3.017E-09   -3.003E-09   -2.986E-09   -2.969E-09   -2.949E-09   -2.929E-09
    -2.907E-09   -2.884E-09   -2.859E-09   -2.834E-09   -2.807E-09   -2.779E-09   -2.751E-09   -2.721E-09   -2.691E-09   -2.660E-09
    -2.628E-09   -2.596E-09   -2.563E-09   -2.530E-09   -2.496E-09   -2.461E-09   -2.427E-09   -2.392E-09   -2.356E-09   -2.321E-09
    -2.285E-09   -2.249E-09   -2.214E-09   -2.178E-09   -2.142E-09   -2.106E-09   -2.071E-09   -2.035E-09   -2.000E-09   -1.965E-09
    -1.930E-09   -1.895E-09   -1.861E-09   -1.827E-09   -1.793E-09   -1.760E-09   -1.727E-09   -1.695E-09   -1.663E-09   -1.631E-09
    -1.600E-09   -1.570E-09   -1.540E-09   -1.510E-09   -1.481E-09   -1.453E-09   -1.424E-09   -1.396E-09   -1.369E-09   -1.341E-09
    -1.314E-09   -1.288E-09   -1.261E-09   -1.235E-09   -1.209E-09   -1.183E-09   -1.158E-09   -1.133E-09   -1.107E-09   -1.082E-09
    -1.058E-09   -1.033E-09   -1.008E-09   -9.837E-10   -9.592E-10   -9.348E-10   -9.104E-10   -8.861E-10   -8.619E-10   -8.376E-10
    -8.134E-10   -7.891E-10   -7.649E-10   -7.406E-10   -7.163E-10   -6.919E-10   -6.675E-10   -6.431E-10   -6.186E-10   -5.940E-10
    -5.694E-10   -5.447E-10   -5.199E-10   -4.951E-10   -4.701E-10   -4.451E-10   -4.199E-10   -3.947E-10   -3.694E-10   -3.440E-10
    -3.185E-10   -2.928E-10   -2.671E-10   -2.413E-10   -2.155E-10   -1.895E-10   -1.634E-10   -1.373E-10   -1.111E-10   -8.482E-11
    -5.847E-11   -3.207E-11   -5.611E-12    2.089E-11    4.743E-11    7.400E-11    1.006E-10    1.272E-10    1.538E-10    1.804E-10
     2.069E-10    2.335E-10    2.600E-10
 Glc      Conc. = 3.68E-10
   2.41462E-11  2.89403E-10  5.39090E-10  7.88790E-10  1.02621E-09  1.25949E-09  1.46367E-09  1.64089E-09  1.77010E-09  1.83125E-09
   1.88105E-09  1.93248E-09  1.98331E-09  2.06024E-09  2.21732E-09  2.46036E-09  2.75631E-09  3.07101E-09  3.35445E-09  3.59624E-09
   3.83602E-09  4.07736E-09  4.30003E-09  4.49286E-09  4.61094E-09  4.63577E-09  4.64169E-09  4.67510E-09  4.73857E-09  4.82044E-09
   4.89603E-09  4.96281E-09  5.03533E-09  5.10158E-09  5.15129E-09  5.20375E-09  5.26187E-09  5.31292E-09  5.35961E-09  5.41050E-09
   5.46492E-09  5.52143E-09  5.57938E-09  5.63817E-09  5.69747E-09  5.75696E-09  5.81645E-09  5.87573E-09  5.93467E-09  5.99317E-09
   6.05111E-09  6.10844E-09  6.16506E-09  6.22095E-09  6.27608E-09  6.33035E-09  6.38378E-09  6.43637E-09  6.48799E-09  6.53874E-09
   6.58857E-09  6.63744E-09  6.68539E-09  6.73237E-09  6.77844E-09  6.82353E-09  6.86768E-09  6.91087E-09  6.95312E-09  6.99445E-09
   7.03483E-09  7.07428E-09  7.11285E-09  7.15048E-09  7.18721E-09  7.22302E-09  7.25788E-09  7.29178E-09  7.32470E-09  7.35662E-09
   7.38751E-09  7.41737E-09  7.44617E-09  7.47388E-09  7.50050E-09  7.52598E-09  7.55032E-09  7.57349E-09  7.59547E-09  7.61623E-09
   7.63573E-09  7.65399E-09  7.67093E-09  7.68658E-09  7.70087E-09  7.71377E-09  7.72529E-09  7.73538E-09  7.74401E-09  7.75115E-09
   7.75678E-09  7.76087E-09  7.76338E-09  7.76430E-09  7.76357E-09  7.76118E-09  7.75709E-09  7.75130E-09  7.74374E-09  7.73435E-09
   7.72320E-09  7.71017E-09  7.69524E-09  7.67839E-09  7.65960E-09  7.63883E-09  7.61605E-09  7.59122E-09  7.56429E-09  7.53530E-09
   7.50411E-09  7.47078E-09  7.43522E-09  7.39743E-09  7.35738E-09  7.31500E-09  7.27026E-09  7.22320E-09  7.17373E-09  7.12182E-09
   7.06746E-09  7.01058E-09  6.95121E-09  6.88929E-09  6.82478E-09  6.75763E-09  6.68792E-09  6.61550E-09  6.54040E-09  6.46256E-09
   6.38200E-09  6.29867E-09  6.21255E-09  6.12359E-09  6.03181E-09  5.93717E-09  5.83967E-09  5.73939E-09  5.63642E-09  5.53084E-09
   5.42274E-09  5.31221E-09  5.19934E-09  5.08424E-09  4.96700E-09  4.84773E-09  4.72656E-09  4.60359E-09  4.47900E-09  4.35295E-09
   4.22564E-09  4.09743E-09  3.96881E-09  3.84074E-09  3.71540E-09  3.59939E-09  3.52409E-09  3.58143E-09  3.65263E-09  3.65490E-09
   3.57372E-09  3.43837E-09  3.28658E-09  3.13896E-09  2.98852E-09  2.80225E-09  2.53926E-09  2.19554E-09  1.85716E-09  1.66272E-09
   1.50241E-09  1.35248E-09  1.20728E-09  1.06495E-09  9.24667E-10  7.86075E-10  6.49030E-10  5.13515E-10  3.79445E-10  2.46895E-10
   1.15947E-10 -1.34023E-11 -1.41042E-10 -2.66915E-10 -3.90897E-10 -5.12953E-10 -6.33017E-10 -7.50935E-10 -8.66660E-10 -9.80139E-10
  -1.09126E-09 -1.19995E-09 -1.30611E-09 -1.40968E-09 -1.51061E-09 -1.60876E-09 -1.70409E-09 -1.79654E-09 -1.88603E-09 -1.97245E-09
  -2.05581E-09 -2.13597E-09 -2.21290E-09 -2.28654E-09 -2.35685E-09 -2.42372E-09 -2.48712E-09 -2.54702E-09 -2.60333E-09 -2.65613E-09
  -2.70545E-09 -2.75139E-09 -2.79400E-09 -2.83336E-09 -2.86952E-09 -2.90258E-09 -2.93258E-09 -2.95961E-09 -2.98374E-09 -3.00503E-09
  -3.02357E-09 -3.03941E-09 -3.05264E-09 -3.06332E-09 -3.07154E-09 -3.07735E-09 -3.08085E-09 -3.08208E-09 -3.08113E-09 -3.07807E-09
  -3.07296E-09 -3.06591E-09 -3.05695E-09 -3.04617E-09 -3.03362E-09 -3.01940E-09 -3.00357E-09 -2.98620E-09 -2.96735E-09 -2.94709E-09
  -2.92550E-09 -2.90263E-09 -2.87857E-09 -2.85335E-09 -2.82706E-09 -2.79978E-09 -2.77154E-09 -2.74242E-09 -2.71248E-09 -2.68177E-09
  -2.65036E-09 -2.61832E-09 -2.58570E-09 -2.55254E-09 -2.51891E-09 -2.48486E-09 -2.45047E-09 -2.41574E-09 -2.38075E-09 -2.34557E-09
  -2.31021E-09 -2.27473E-09 -2.23920E-09 -2.20362E-09 -2.16807E-09 -2.13258E-09 -2.09718E-09 -2.06193E-09 -2.02683E-09 -1.99195E-09
  -1.95732E-09 -1.92296E-09 -1.88891E-09 -1.85519E-09 -1.82182E-09 -1.78885E-09 -1.75630E-09 -1.72415E-09 -1.69247E-09 -1.66127E-09
  -1.63054E-09 -1.60030E-09 -1.57054E-09 -1.54121E-09 -1.51231E-09 -1.48382E-09 -1.45571E-09 -1.42796E-09 -1.40055E-09 -1.37347E-09
  -1.34670E-09 -1.32021E-09 -1.29399E-09 -1.26802E-09 -1.24228E-09 -1.21675E-09 -1.19143E-09 -1.16628E-09 -1.14130E-09 -1.11647E-09
  -1.09178E-09 -1.06720E-09 -1.04274E-09 -1.01836E-09 -9.94059E-10 -9.69823E-10 -9.45642E-10 -9.21499E-10 -8.97385E-10 -8.73290E-10
  -8.49202E-10 -8.25108E-10 -8.01003E-10 -7.76876E-10 -7.52718E-10 -7.28518E-10 -7.04276E-10 -6.79978E-10 -6.55622E-10 -6.31196E-10
  -6.06701E-10 -5.82129E-10 -5.57474E-10 -5.32733E-10 -5.07906E-10 -4.82986E-10 -4.57973E-10 -4.32864E-10 -4.07660E-10 -3.82355E-10
  -3.56956E-10 -3.31458E-10 -3.05866E-10 -2.80179E-10 -2.54399E-10 -2.28532E-10 -2.02577E-10 -1.76542E-10 -1.50428E-10 -1.24241E-10
  -9.79877E-11 -7.16731E-11 -4.53042E-11 -1.88882E-11  7.56721E-12  3.40534E-11  6.05622E-11  8.70832E-11  1.13607E-10  1.40123E-10
   1.66620E-10  1.93086E-10  2.19511E-10
 Gln      Conc. = 1.47E-09
  -8.39288E-10 -5.45989E-10 -1.61997E-10  2.98334E-10  7.91845E-10  1.27767E-09  1.71944E-09  2.08732E-09  2.38037E-09  2.67479E-09
   2.82014E-09  2.86290E-09  2.92503E-09  2.88014E-09  2.85935E-09  2.86884E-09  2.89847E-09  2.94150E-09  2.99376E-09  3.05251E-09
   3.11588E-09  3.18248E-09  3.25128E-09  3.32155E-09  3.39287E-09  3.46487E-09  3.53692E-09  3.60883E-09  3.68038E-09  3.75119E-09
   3.82103E-09  3.88970E-09  3.95701E-09  4.02282E-09  4.08694E-09  4.14924E-09  4.20951E-09  4.26758E-09  4.32323E-09  4.37624E-09
   4.42643E-09  4.47352E-09  4.51739E-09  4.55770E-09  4.59397E-09  4.62579E-09  4.65262E-09  4.67309E-09  4.68700E-09  4.69429E-09
   4.69260E-09  4.68122E-09  4.66210E-09  4.64853E-09  4.74502E-09  5.04219E-09  5.33940E-09  5.69906E-09  6.24544E-09  6.86294E-09
   7.42147E-09  7.94465E-09  8.40277E-09  8.73866E-09  8.89286E-09  8.85749E-09  8.75624E-09  8.61564E-09  8.23812E-09  7.86078E-09
   7.60022E-09  7.45336E-09  7.42864E-09  7.48255E-09  7.68243E-09  8.05165E-09  8.44923E-09  8.86493E-09  9.28206E-09  9.66858E-09
   9.99628E-09  1.02024E-08  1.02390E-08  1.02435E-08  1.01849E-08  9.94371E-09  9.72530E-09  9.55409E-09  9.33022E-09  9.14563E-09
   9.00693E-09  8.89919E-09  8.81341E-09  8.74280E-09  8.68243E-09  8.63032E-09  8.58476E-09  8.54407E-09  8.50738E-09  8.47386E-09
   8.44259E-09  8.41288E-09  8.38434E-09  8.35667E-09  8.32958E-09  8.30279E-09  8.27597E-09  8.24896E-09  8.22155E-09  8.19352E-09
   8.16485E-09  8.13529E-09  8.10476E-09  8.07315E-09  8.04036E-09  8.00630E-09  7.97089E-09  7.93403E-09  7.89563E-09  7.85569E-09
   7.81402E-09  7.77067E-09  7.72550E-09  7.67850E-09  7.62959E-09  7.57871E-09  7.52579E-09  7.47086E-09  7.41379E-09  7.35457E-09
   7.29314E-09  7.22945E-09  7.16349E-09  7.09520E-09  7.02453E-09  6.95141E-09  6.87592E-09  6.79790E-09  6.71739E-09  6.63429E-09
   6.54864E-09  6.46037E-09  6.36947E-09  6.27588E-09  6.17961E-09  6.08062E-09  5.97893E-09  5.87460E-09  5.76773E-09  5.65840E-09
   5.54671E-09  5.43278E-09  5.31669E-09  5.19860E-09  5.07861E-09  4.95689E-09  4.83364E-09  4.70907E-09  4.58350E-09  4.45732E-09
   4.33114E-09  4.20597E-09  4.08351E-09  3.96727E-09  3.86545E-09  3.80311E-09  3.89750E-09  4.52853E-09  5.22873E-09  5.65974E-09
   5.75713E-09  5.63527E-09  5.44560E-09  5.27301E-09  5.09219E-09  4.77287E-09  4.14946E-09  3.19805E-09  2.25112E-09  1.88361E-09
   1.65827E-09  1.47420E-09  1.30762E-09  1.15041E-09  9.98993E-10  8.51631E-10  7.07402E-10  5.65816E-10  4.26491E-10  2.89299E-10
   1.54186E-10  2.10486E-11 -1.10075E-10 -2.39183E-10 -3.66192E-10 -4.91098E-10 -6.13863E-10 -7.34351E-10 -8.52532E-10 -9.68368E-10
  -1.08176E-09 -1.19263E-09 -1.30091E-09 -1.40653E-09 -1.50945E-09 -1.60953E-09 -1.70675E-09 -1.80103E-09 -1.89232E-09 -1.98049E-09
  -2.06557E-09 -2.14741E-09 -2.22599E-09 -2.30124E-09 -2.37313E-09 -2.44155E-09 -2.50647E-09 -2.56788E-09 -2.62566E-09 -2.67990E-09
  -2.73065E-09 -2.77799E-09 -2.82198E-09 -2.86270E-09 -2.90019E-09 -2.93457E-09 -2.96587E-09 -2.99418E-09 -3.01957E-09 -3.04210E-09
