 LCModel (Version 6.3-1R) Copyright: S.W. Provencher.          Ref.: Magn. Reson. Med. 30:672-679 (1993).                
 onepulse 15x6_ftSpec_smooth_lcm
 26 lines in following concentration table = NCONC+1
    Conc.  %SD   /Cr    Metabolite                                         
    0.000 999%   0.000 Ala                                                 
 3.20E-10 237%   0.000 Asp                                                 
    0.000 999%   0.000 Cr                                                  
 1.87E-09  27%   0.000 GABA                                                
 8.96E-10  66%   0.000 Glc                                                 
    0.000 999%   0.000 Gln                                                 
    0.000 999%   0.000 Glu                                                 
    0.000 999%   0.000 Glyc                                                
    0.000 999%   0.000 GPC                                                 
    0.000 999%   0.000 GSH                                                 
 9.97E-11 432%   0.000 Ins                                                 
    0.000 999%   0.000 Lac                                                 
    0.000 999%   0.000 NAAG                                                
 3.50E-10  62%   0.000 NAA                                                 
    0.000 999%   0.000 PCh                                                 
    0.000 999%   0.000 PCr                                                 
    0.000 999%   0.000 PE                                                  
 6.75E-12 999%   0.000 Scyllo                                              
 9.31E-10 114%   0.000 Ser                                                 
    0.000 999%   0.000 Tau                                                 
    0.000 999%   0.000 GPC+PCh                                             
 3.50E-10  62%   0.000 NAA+NAAG                                            
 9.97E-11 432%   0.000 Ins+Glyc                                            
    0.000 999%   0.000 Cr+PCr                                              
    0.000 999%   0.000 Glu+Gln                                             
   6 lines in following misc. output table
  FWHM = 0.034 ppm    S/N =   2                                            
  Data shift = 0.291 ppm                                                   
  Ph:  14 deg     -19.3 deg/ppm                                            
  alphaB,S = 5.6E-01,   6.4E+00                                            
    8 spline knots.   Ns = 5(1)                                            
   2 inflections.     1 extrema                                            
  363 points on ppm-axis = NY
      4.250000     4.238821     4.227641     4.216462     4.205282     4.194103     4.182923     4.171744     4.160564     4.149385
      4.138206     4.127026     4.115847     4.104667     4.093488     4.082308     4.071129     4.059949     4.048770     4.037591
      4.026411     4.015232     4.004052     3.992873     3.981693     3.970514     3.959334     3.948155     3.936975     3.925796
      3.914617     3.903437     3.892258     3.881078     3.869899     3.858719     3.847540     3.836360     3.825181     3.814002
      3.802822     3.791643     3.780463     3.769284     3.758104     3.746925     3.735745     3.724566     3.713387     3.702207
      3.691028     3.679848     3.668669     3.657489     3.646310     3.635130     3.623951     3.612772     3.601592     3.590413
      3.579233     3.568054     3.556874     3.545695     3.534515     3.523336     3.512156     3.500977     3.489798     3.478618
      3.467439     3.456259     3.445080     3.433900     3.422721     3.411541     3.400362     3.389183     3.378003     3.366824
      3.355644     3.344465     3.333285     3.322106     3.310926     3.299747     3.288568     3.277388     3.266209     3.255029
      3.243850     3.232670     3.221491     3.210311     3.199132     3.187953     3.176773     3.165594     3.154414     3.143235
      3.132055     3.120876     3.109696     3.098517     3.087337     3.076158     3.064979     3.053799     3.042620     3.031440
      3.020261     3.009081     2.997902     2.986722     2.975543     2.964364     2.953184     2.942005     2.930825     2.919646
      2.908466     2.897287     2.886107     2.874928     2.863749     2.852569     2.841390     2.830210     2.819031     2.807851
      2.796672     2.785492     2.774313     2.763134     2.751954     2.740775     2.729595     2.718416     2.707236     2.696057
      2.684877     2.673698     2.662519     2.651339     2.640160     2.628980     2.617801     2.606621     2.595442     2.584262
      2.573083     2.561903     2.550724     2.539545     2.528365     2.517186     2.506006     2.494827     2.483647     2.472468
      2.461288     2.450109     2.438930     2.427750     2.416571     2.405391     2.394212     2.383032     2.371853     2.360673
      2.349494     2.338315     2.327135     2.315956     2.304776     2.293597     2.282417     2.271238     2.260058     2.248879
      2.237700     2.226520     2.215341     2.204161     2.192982     2.181802     2.170623     2.159443     2.148264     2.137084
      2.125905     2.114726     2.103546     2.092367     2.081187     2.070008     2.058828     2.047649     2.036469     2.025290
      2.014111     2.002931     1.991752     1.980572     1.969393     1.958213     1.947034     1.935854     1.924675     1.913496
      1.902316     1.891137     1.879957     1.868778     1.857598     1.846419     1.835239     1.824060     1.812881     1.801701
      1.790522     1.779342     1.768163     1.756983     1.745804     1.734624     1.723445     1.712265     1.701086     1.689907
      1.678727     1.667548     1.656368     1.645189     1.634009     1.622830     1.611650     1.600471     1.589292     1.578112
      1.566933     1.555753     1.544574     1.533394     1.522215     1.511035     1.499856     1.488677     1.477497     1.466318
      1.455138     1.443959     1.432779     1.421600     1.410420     1.399241     1.388062     1.376882     1.365703     1.354523
      1.343344     1.332164     1.320985     1.309805     1.298626     1.287446     1.276267     1.265088     1.253908     1.242729
      1.231549     1.220370     1.209190     1.198011     1.186831     1.175652     1.164473     1.153293     1.142114     1.130934
      1.119755     1.108575     1.097396     1.086216     1.075037     1.063858     1.052678     1.041499     1.030319     1.019140
      1.007960     0.996781     0.985601     0.974422     0.963243     0.952063     0.940884     0.929704     0.918525     0.907345
      0.896166     0.884986     0.873807     0.862628     0.851448     0.840269     0.829089     0.817910     0.806730     0.795551
      0.784371     0.773192     0.762012     0.750833     0.739654     0.728474     0.717295     0.706115     0.694936     0.683756
      0.672577     0.661397     0.650218     0.639039     0.627859     0.616680     0.605500     0.594321     0.583141     0.571962
      0.560782     0.549603     0.538424     0.527244     0.516065     0.504885     0.493706     0.482526     0.471347     0.460167
      0.448988     0.437809     0.426629     0.415450     0.404270     0.393091     0.381911     0.370732     0.359552     0.348373
      0.337193     0.326014     0.314835     0.303655     0.292476     0.281296     0.270117     0.258937     0.247758     0.236578
      0.225399     0.214220     0.203040
 NY phased data points follow
   1.75819E-09  3.39496E-11  4.07431E-09  2.10696E-09  5.05461E-09  2.18921E-09  3.79186E-09  2.47056E-11  2.02102E-09 -4.61918E-10
   1.69590E-09 -7.38075E-10  1.91711E-09 -3.06986E-10  2.60555E-09  2.79421E-11  2.80892E-09  7.16760E-10  3.29385E-09  1.48522E-09
   3.36250E-09  1.19219E-09  2.66737E-09  1.13783E-09  3.08117E-09  8.35323E-10  2.42044E-09  6.86210E-10  2.78713E-09  1.98992E-09
   3.58114E-09  1.67915E-09  3.11156E-09  1.04202E-09  2.78505E-09  1.90078E-09  4.75915E-09  3.34323E-09  4.72022E-09  2.02117E-09
   2.91683E-09  1.23791E-09  2.29496E-09  1.18571E-09  2.39905E-09  1.12409E-09  2.53444E-09  1.83834E-09  2.46929E-09  1.48546E-09
   2.35546E-09  1.55091E-09  2.23052E-09  1.42497E-09  2.66087E-09  1.58578E-09  2.85964E-09  2.46740E-09  2.93665E-09  2.03380E-09
   2.60557E-09  2.22711E-09  3.13074E-09  2.76043E-09  3.87822E-09  3.42442E-09  4.53963E-09  4.81129E-09  6.26780E-09  5.97821E-09
   6.17040E-09  4.94953E-09  4.70008E-09  4.10663E-09  4.10373E-09  3.16426E-09  3.60059E-09  2.88132E-09  3.32597E-09  2.89084E-09
   3.21816E-09  2.92799E-09  3.45370E-09  5.00012E-09  6.98363E-09  8.77311E-09  8.19645E-09  7.65484E-09  7.02149E-09  6.83790E-09
   6.21896E-09  5.26631E-09  4.95146E-09  4.81097E-09  4.88511E-09  4.65843E-09  4.08474E-09  4.07294E-09  3.90472E-09  3.48890E-09
   3.47374E-09  3.33615E-09  2.97774E-09  3.01576E-09  2.54778E-09  2.71136E-09  2.78806E-09  3.28856E-09  2.79967E-09  2.85366E-09
   3.13489E-09  3.32297E-09  2.96933E-09  3.14730E-09  2.14204E-09  2.66119E-09  2.45535E-09  2.67774E-09  2.47011E-09  3.23799E-09
   2.57956E-09  3.33331E-09  3.03055E-09  3.79105E-09  2.90041E-09  3.73712E-09  3.67230E-09  4.07258E-09  3.17973E-09  3.41675E-09
   3.08850E-09  3.07702E-09  2.99962E-09  3.65594E-09  3.70890E-09  4.02114E-09  3.64244E-09  4.55487E-09  4.80320E-09  5.81999E-09
   4.76610E-09  5.41803E-09  4.61402E-09  5.59912E-09  5.34230E-09  6.56413E-09  6.69932E-09  7.10765E-09  6.61232E-09  6.76407E-09
   6.88078E-09  7.75212E-09  6.89129E-09  7.51976E-09  6.96120E-09  7.94743E-09  7.12386E-09  7.65721E-09  6.36261E-09  6.98611E-09
   6.55654E-09  7.12123E-09  6.78401E-09  7.44929E-09  6.50941E-09  7.27781E-09  6.28353E-09  7.43367E-09  6.31162E-09  7.73368E-09
   6.48057E-09  7.47749E-09  6.40993E-09  6.65601E-09  5.11895E-09  6.53751E-09  8.76684E-09  1.19461E-08  1.17089E-08  1.16227E-08
   1.00284E-08  1.00119E-08  8.43979E-09  7.68764E-09  5.69719E-09  5.04290E-09  3.15686E-09  1.84133E-09 -5.71832E-10 -1.03893E-09
  -3.90955E-09 -4.80878E-09 -7.43051E-09 -8.15694E-09 -1.03448E-08 -1.09365E-08 -1.28087E-08 -1.28656E-08 -1.38729E-08 -1.28215E-08
  -1.38133E-08 -1.22061E-08 -1.22086E-08 -1.03076E-08 -9.70505E-09 -7.76474E-09 -6.72659E-09 -5.00051E-09 -5.20918E-09 -3.35201E-09
  -3.37354E-09 -1.89981E-09 -2.84559E-09 -1.74762E-09 -3.10693E-09 -1.74779E-09 -2.65208E-09 -1.89825E-09 -3.13608E-09 -2.09864E-09
  -2.98082E-09 -1.41347E-09 -2.46454E-09 -1.11895E-09 -2.50047E-09 -9.76772E-10 -2.12693E-09 -1.18835E-09 -2.02279E-09 -1.00460E-09
  -1.83655E-09 -8.85943E-10 -1.91695E-09 -7.40966E-10 -1.84581E-09 -6.55497E-10 -1.03285E-09 -5.44355E-10 -1.33858E-09 -6.73279E-10
  -1.75940E-09 -9.57717E-10 -2.09485E-09 -7.58244E-10 -1.98471E-09 -1.19198E-09 -2.31560E-09 -1.35485E-09 -2.33202E-09 -1.19759E-09
  -1.89398E-09 -1.41748E-09 -2.37948E-09 -1.28316E-09 -1.91650E-09 -1.43675E-09 -2.11206E-09 -1.22217E-09 -2.31823E-09 -1.67395E-09
  -2.64448E-09 -1.65674E-09 -2.61386E-09 -1.87480E-09 -2.86032E-09 -1.72632E-09 -2.65398E-09 -1.91107E-09 -3.07323E-09 -2.24859E-09
  -3.00135E-09 -2.40270E-09 -3.26002E-09 -2.37030E-09 -3.04113E-09 -2.36715E-09 -2.82821E-09 -1.97275E-09 -3.06094E-09 -1.89609E-09
  -1.80606E-09 -1.54952E-09 -2.14005E-09 -8.94647E-10 -1.62502E-09 -1.16614E-09 -1.61797E-09 -1.11722E-09 -1.26143E-09 -8.47061E-10
  -1.34767E-09 -1.04286E-09 -1.15725E-09 -9.93556E-10 -1.28910E-09 -1.03426E-09 -1.58466E-09 -8.86334E-10 -1.55621E-09 -1.15400E-09
  -2.02566E-09 -1.37866E-09 -1.83978E-09 -1.23698E-09 -1.79902E-09 -1.44008E-09 -1.90836E-09 -1.62025E-09 -1.80349E-09 -2.06011E-09
  -1.83385E-09 -1.68764E-09 -2.01372E-09 -1.66428E-09 -2.30488E-09 -2.19894E-09 -2.13947E-09 -2.00682E-09 -2.31152E-09 -1.97156E-09
  -2.83213E-09 -2.20225E-09 -2.25646E-09 -2.29774E-09 -2.18989E-09 -2.43615E-09 -2.36837E-09 -2.47289E-09 -2.39613E-09 -2.43560E-09
  -2.38775E-09 -2.58764E-09 -2.36335E-09 -2.25389E-09 -2.59270E-09 -2.37735E-09 -2.45824E-09 -2.85746E-09 -2.33418E-09 -2.65993E-09
  -2.34609E-09 -2.98602E-09 -2.43493E-09 -2.67188E-09 -2.38214E-09 -3.15536E-09 -2.56357E-09 -2.51294E-09 -2.72913E-09 -3.23630E-09
  -2.89576E-09 -3.07599E-09 -2.54481E-09 -3.34626E-09 -2.87119E-09 -3.05856E-09 -2.61809E-09 -3.44589E-09 -2.84310E-09 -3.20252E-09
  -2.80612E-09 -3.33634E-09 -2.89748E-09
 NY points of the fit to the data follow
   3.33962E-09  1.87327E-09  1.74842E-09  2.35439E-09  2.47603E-09  1.85463E-09  1.28686E-09  1.09281E-09  6.07162E-10  6.69147E-10
   9.18624E-10  1.20104E-09  1.65472E-09  2.23313E-09  2.44818E-09  2.29096E-09  2.30040E-09  2.30441E-09  2.11060E-09  2.09474E-09
   2.19086E-09  2.39827E-09  2.54203E-09  2.35971E-09  1.64340E-09  9.90626E-10  1.15263E-09  1.52453E-09  1.97831E-09  2.50138E-09
   2.66414E-09  2.77567E-09  3.42500E-09  3.65890E-09  3.31210E-09  3.42156E-09  3.72695E-09  3.81180E-09  3.61602E-09  3.10383E-09
   2.66563E-09  3.02107E-09  3.11596E-09  1.51751E-09  1.12185E-09  1.79719E-09  1.28260E-09  7.67011E-10  9.67457E-10  1.18462E-09
   1.50144E-09  1.79484E-09  2.01589E-09  2.02939E-09  2.02635E-09  1.98405E-09  2.26993E-09  2.68310E-09  2.94470E-09  3.01854E-09
   3.32057E-09  3.62072E-09  4.07387E-09  4.13098E-09  4.50321E-09  5.27318E-09  5.14386E-09  4.80232E-09  4.86878E-09  5.19048E-09
   5.51930E-09  5.33417E-09  4.68532E-09  4.22118E-09  4.96916E-09  4.43533E-09  2.88191E-09  4.02893E-09  4.48673E-09  3.91067E-09
   3.94351E-09  4.02495E-09  4.09842E-09  4.61550E-09  5.15474E-09  5.78216E-09  6.41730E-09  5.92305E-09  4.32284E-09  4.39430E-09
   4.37056E-09  4.33895E-09  4.91982E-09  4.97999E-09  4.04521E-09  4.26740E-09  4.67873E-09  3.91367E-09  3.64854E-09  3.79755E-09
   3.62919E-09  3.52122E-09  3.50621E-09  3.52904E-09  3.56956E-09  3.61826E-09  3.67006E-09  3.72302E-09  3.77622E-09  3.82907E-09
   3.88157E-09  3.93185E-09  3.97986E-09  4.02547E-09  4.06857E-09  4.10943E-09  4.14853E-09  4.18510E-09  4.21910E-09  4.25051E-09
   4.27925E-09  4.30536E-09  4.32890E-09  4.34977E-09  4.36792E-09  4.38336E-09  4.39604E-09  4.40589E-09  4.41292E-09  4.41712E-09
   4.41842E-09  4.41679E-09  4.41222E-09  4.40469E-09  4.39416E-09  4.38061E-09  4.36401E-09  4.34434E-09  4.32153E-09  4.29559E-09
   4.26649E-09  4.23423E-09  4.19882E-09  4.16023E-09  4.11841E-09  4.07336E-09  4.02515E-09  3.97390E-09  3.91980E-09  3.86298E-09
   3.80364E-09  3.74197E-09  3.67822E-09  3.61268E-09  3.54570E-09  3.47772E-09  3.40928E-09  3.34114E-09  3.27431E-09  3.21029E-09
   3.15134E-09  3.10123E-09  3.06657E-09  3.06056E-09  3.11386E-09  3.31727E-09  4.06966E-09  6.53066E-09  7.72826E-09  7.67231E-09
   7.23267E-09  7.04839E-09  6.71577E-09  6.12907E-09  6.46149E-09  8.83527E-09  1.18793E-08  1.17424E-08  5.62702E-09  2.32289E-09
   1.42611E-09  1.01824E-09  7.62301E-10  5.69225E-10  4.07101E-10  2.62169E-10  1.27700E-10  1.15408E-13 -1.22646E-10 -2.41777E-10
  -3.58011E-10 -4.71814E-10 -5.83454E-10 -6.93103E-10 -8.00837E-10 -9.06709E-10 -1.01073E-09 -1.11285E-09 -1.21304E-09 -1.31127E-09
  -1.40746E-09 -1.50155E-09 -1.59345E-09 -1.68310E-09 -1.77041E-09 -1.85531E-09 -1.93770E-09 -2.01750E-09 -2.09465E-09 -2.16902E-09
  -2.24057E-09 -2.30919E-09 -2.37481E-09 -2.43733E-09 -2.49669E-09 -2.55279E-09 -2.60555E-09 -2.65492E-09 -2.70079E-09 -2.74323E-09
  -2.78229E-09 -2.81810E-09 -2.85069E-09 -2.88018E-09 -2.90663E-09 -2.93014E-09 -2.95078E-09 -2.96863E-09 -2.98378E-09 -2.99631E-09
  -3.00632E-09 -3.01387E-09 -3.01904E-09 -3.02194E-09 -3.02263E-09 -3.02119E-09 -3.01773E-09 -3.01230E-09 -3.00500E-09 -2.99591E-09
  -2.98510E-09 -2.97268E-09 -2.95870E-09 -2.94326E-09 -2.92642E-09 -2.90828E-09 -2.88891E-09 -2.86840E-09 -2.84682E-09 -2.82423E-09
  -2.80075E-09 -2.77642E-09 -2.75135E-09 -2.72556E-09 -2.69917E-09 -2.67227E-09 -2.64489E-09 -2.61711E-09 -2.58903E-09 -2.56069E-09
  -2.53218E-09 -2.50357E-09 -2.47492E-09 -2.44631E-09 -2.41778E-09 -2.38943E-09 -2.36131E-09 -2.33347E-09 -2.30599E-09 -2.27894E-09
  -2.25235E-09 -2.22630E-09 -2.20086E-09 -2.17606E-09 -2.15199E-09 -2.12866E-09 -2.10617E-09 -2.08455E-09 -2.06383E-09 -2.04410E-09
  -2.02539E-09 -2.00775E-09 -1.99123E-09 -1.97585E-09 -1.96168E-09 -1.94875E-09 -1.93712E-09 -1.92678E-09 -1.91782E-09 -1.91025E-09
  -1.90410E-09 -1.89938E-09 -1.89603E-09 -1.89400E-09 -1.89324E-09 -1.89370E-09 -1.89531E-09 -1.89804E-09 -1.90182E-09 -1.90661E-09
  -1.91236E-09 -1.91901E-09 -1.92653E-09 -1.93484E-09 -1.94391E-09 -1.95368E-09 -1.96412E-09 -1.97517E-09 -1.98678E-09 -1.99890E-09
  -2.01149E-09 -2.02450E-09 -2.03789E-09 -2.05160E-09 -2.06561E-09 -2.07985E-09 -2.09429E-09 -2.10888E-09 -2.12359E-09 -2.13836E-09
  -2.15317E-09 -2.16795E-09 -2.18269E-09 -2.19733E-09 -2.21184E-09 -2.22618E-09 -2.24031E-09 -2.25420E-09 -2.26781E-09 -2.28109E-09
  -2.29403E-09 -2.30658E-09 -2.31870E-09 -2.33038E-09 -2.34157E-09 -2.35225E-09 -2.36238E-09 -2.37193E-09 -2.38089E-09 -2.38920E-09
  -2.39686E-09 -2.40382E-09 -2.41008E-09 -2.41560E-09 -2.42035E-09 -2.42433E-09 -2.42749E-09 -2.42983E-09 -2.43131E-09 -2.43193E-09
  -2.43166E-09 -2.43048E-09 -2.42838E-09 -2.42534E-09 -2.42135E-09 -2.41638E-09 -2.41044E-09 -2.40350E-09 -2.39555E-09 -2.38659E-09
  -2.37660E-09 -2.36557E-09 -2.35350E-09
 NY background values follow
    -3.204E-10   -3.014E-10   -2.817E-10   -2.614E-10   -2.403E-10   -2.187E-10   -1.963E-10   -1.733E-10   -1.497E-10   -1.253E-10
    -1.004E-10   -7.481E-11   -4.858E-11   -2.173E-11    5.749E-12    3.385E-11    6.256E-11    9.188E-11    1.218E-10    1.523E-10
     1.834E-10    2.151E-10    2.474E-10    2.803E-10    3.137E-10    3.477E-10    3.822E-10    4.173E-10    4.529E-10    4.891E-10
     5.258E-10    5.630E-10    6.007E-10    6.389E-10    6.777E-10    7.169E-10    7.566E-10    7.968E-10    8.374E-10    8.786E-10
     9.202E-10    9.622E-10    1.005E-09    1.048E-09    1.091E-09    1.135E-09    1.179E-09    1.223E-09    1.268E-09    1.314E-09
     1.359E-09    1.405E-09    1.452E-09    1.499E-09    1.546E-09    1.593E-09    1.641E-09    1.689E-09    1.737E-09    1.786E-09
     1.835E-09    1.884E-09    1.934E-09    1.984E-09    2.034E-09    2.084E-09    2.134E-09    2.185E-09    2.236E-09    2.287E-09
     2.338E-09    2.390E-09    2.442E-09    2.493E-09    2.545E-09    2.597E-09    2.649E-09    2.702E-09    2.754E-09    2.806E-09
     2.858E-09    2.910E-09    2.961E-09    3.013E-09    3.064E-09    3.114E-09    3.165E-09    3.215E-09    3.264E-09    3.314E-09
     3.362E-09    3.410E-09    3.457E-09    3.504E-09    3.550E-09    3.595E-09    3.639E-09    3.682E-09    3.725E-09    3.766E-09
     3.807E-09    3.846E-09    3.884E-09    3.921E-09    3.957E-09    3.991E-09    4.025E-09    4.056E-09    4.087E-09    4.116E-09
     4.143E-09    4.169E-09    4.193E-09    4.215E-09    4.236E-09    4.255E-09    4.272E-09    4.287E-09    4.300E-09    4.311E-09
     4.320E-09    4.327E-09    4.332E-09    4.335E-09    4.335E-09    4.333E-09    4.329E-09    4.322E-09    4.313E-09    4.302E-09
     4.287E-09    4.271E-09    4.251E-09    4.229E-09    4.204E-09    4.176E-09    4.145E-09    4.112E-09    4.075E-09    4.036E-09
     3.993E-09    3.948E-09    3.899E-09    3.847E-09    3.792E-09    3.733E-09    3.671E-09    3.606E-09    3.538E-09    3.467E-09
     3.393E-09    3.316E-09    3.236E-09    3.154E-09    3.069E-09    2.981E-09    2.891E-09    2.799E-09    2.704E-09    2.607E-09
     2.509E-09    2.408E-09    2.305E-09    2.201E-09    2.095E-09    1.987E-09    1.878E-09    1.767E-09    1.655E-09    1.542E-09
     1.428E-09    1.313E-09    1.197E-09    1.081E-09    9.633E-10    8.454E-10    7.270E-10    6.082E-10    4.892E-10    3.700E-10
     2.508E-10    1.316E-10    1.254E-11   -1.063E-10   -2.247E-10   -3.427E-10   -4.601E-10   -5.768E-10   -6.928E-10   -8.079E-10
    -9.221E-10   -1.035E-09   -1.147E-09   -1.258E-09   -1.367E-09   -1.475E-09   -1.581E-09   -1.686E-09   -1.788E-09   -1.889E-09
    -1.988E-09   -2.085E-09   -2.180E-09   -2.272E-09   -2.363E-09   -2.450E-09   -2.535E-09   -2.618E-09   -2.698E-09   -2.775E-09
    -2.849E-09   -2.921E-09   -2.989E-09   -3.054E-09   -3.116E-09   -3.174E-09   -3.229E-09   -3.281E-09   -3.329E-09   -3.374E-09
    -3.415E-09   -3.453E-09   -3.487E-09   -3.519E-09   -3.547E-09   -3.572E-09   -3.595E-09   -3.614E-09   -3.631E-09   -3.645E-09
    -3.657E-09   -3.666E-09   -3.672E-09   -3.677E-09   -3.679E-09   -3.679E-09   -3.676E-09   -3.672E-09   -3.666E-09   -3.658E-09
    -3.648E-09   -3.637E-09   -3.623E-09   -3.609E-09   -3.593E-09   -3.575E-09   -3.557E-09   -3.537E-09   -3.516E-09   -3.494E-09
    -3.471E-09   -3.447E-09   -3.422E-09   -3.397E-09   -3.371E-09   -3.344E-09   -3.317E-09   -3.290E-09   -3.262E-09   -3.233E-09
    -3.205E-09   -3.176E-09   -3.148E-09   -3.119E-09   -3.090E-09   -3.062E-09   -3.034E-09   -3.006E-09   -2.978E-09   -2.950E-09
    -2.923E-09   -2.897E-09   -2.871E-09   -2.846E-09   -2.821E-09   -2.797E-09   -2.774E-09   -2.752E-09   -2.731E-09   -2.710E-09
    -2.691E-09   -2.672E-09   -2.655E-09   -2.639E-09   -2.624E-09   -2.610E-09   -2.597E-09   -2.586E-09   -2.576E-09   -2.567E-09
    -2.560E-09   -2.554E-09   -2.550E-09   -2.546E-09   -2.544E-09   -2.544E-09   -2.544E-09   -2.545E-09   -2.548E-09   -2.551E-09
    -2.556E-09   -2.561E-09   -2.567E-09   -2.574E-09   -2.581E-09   -2.589E-09   -2.598E-09   -2.607E-09   -2.617E-09   -2.628E-09
    -2.639E-09   -2.650E-09   -2.662E-09   -2.673E-09   -2.686E-09   -2.698E-09   -2.710E-09   -2.723E-09   -2.736E-09   -2.749E-09
    -2.761E-09   -2.774E-09   -2.787E-09   -2.799E-09   -2.812E-09   -2.824E-09   -2.836E-09   -2.848E-09   -2.859E-09   -2.870E-09
    -2.881E-09   -2.891E-09   -2.901E-09   -2.910E-09   -2.919E-09   -2.927E-09   -2.935E-09   -2.942E-09   -2.949E-09   -2.955E-09
    -2.960E-09   -2.964E-09   -2.968E-09   -2.971E-09   -2.973E-09   -2.974E-09   -2.975E-09   -2.975E-09   -2.974E-09   -2.971E-09
    -2.968E-09   -2.965E-09   -2.960E-09   -2.954E-09   -2.947E-09   -2.939E-09   -2.931E-09   -2.921E-09   -2.910E-09   -2.898E-09
    -2.885E-09   -2.871E-09   -2.857E-09
 Asp      Conc. = 3.20E-10
  -1.64529E-10 -2.46043E-10 -2.19065E-10 -2.40036E-10 -2.30000E-10 -2.33049E-10 -2.96741E-10 -2.75214E-10 -2.31705E-10 -1.88950E-10
  -1.48578E-10 -1.09681E-10 -7.10485E-11 -3.23235E-11  4.59958E-12  4.11374E-11  7.76467E-11  1.14280E-10  1.51156E-10  1.88370E-10
   2.26002E-10  2.64124E-10  3.02807E-10  3.42113E-10  3.82116E-10  4.22880E-10  4.64493E-10  5.07045E-10  5.50655E-10  5.95474E-10
   6.41692E-10  6.89585E-10  7.39553E-10  7.92213E-10  8.48637E-10  9.10677E-10  9.76526E-10  1.02342E-09  1.07268E-09  1.10986E-09
   1.16132E-09  1.22921E-09  1.33013E-09  1.42622E-09  1.54961E-09  1.59353E-09  1.55540E-09  1.51484E-09  1.57821E-09  1.60226E-09
   1.68744E-09  1.79853E-09  1.88252E-09  1.85744E-09  1.76959E-09  1.59455E-09  1.61932E-09  1.77694E-09  1.82310E-09  1.73630E-09
   1.78353E-09  1.81456E-09  1.81994E-09  1.91333E-09  2.01414E-09  2.05202E-09  2.06499E-09  2.10802E-09  2.15891E-09  2.21244E-09
   2.26706E-09  2.32214E-09  2.37742E-09  2.43279E-09  2.48815E-09  2.54345E-09  2.59866E-09  2.65372E-09  2.70861E-09  2.76329E-09
   2.81774E-09  2.87191E-09  2.92577E-09  2.97930E-09  3.03245E-09  3.08518E-09  3.13747E-09  3.18926E-09  3.24052E-09  3.29121E-09
   3.34129E-09  3.39071E-09  3.43944E-09  3.48742E-09  3.53461E-09  3.58097E-09  3.62646E-09  3.67101E-09  3.71460E-09  3.75717E-09
   3.79868E-09  3.83907E-09  3.87830E-09  3.91631E-09  3.95307E-09  3.98852E-09  4.02261E-09  4.05529E-09  4.08652E-09  4.11624E-09
   4.14439E-09  4.17094E-09  4.19583E-09  4.21901E-09  4.24042E-09  4.26003E-09  4.27777E-09  4.29360E-09  4.30746E-09  4.31930E-09
   4.32909E-09  4.33675E-09  4.34224E-09  4.34551E-09  4.34652E-09  4.34520E-09  4.34152E-09  4.33541E-09  4.32683E-09  4.31574E-09
   4.30207E-09  4.28579E-09  4.26684E-09  4.24518E-09  4.22075E-09  4.19351E-09  4.16341E-09  4.13040E-09  4.09444E-09  4.05549E-09
   4.01349E-09  3.96840E-09  3.92018E-09  3.86879E-09  3.81418E-09  3.75630E-09  3.69516E-09  3.63083E-09  3.56339E-09  3.49294E-09
   3.41957E-09  3.34337E-09  3.26444E-09  3.18288E-09  3.09881E-09  3.01233E-09  2.92358E-09  2.83269E-09  2.73984E-09  2.64521E-09
   2.54908E-09  2.45183E-09  2.35409E-09  2.25706E-09  2.16346E-09  2.08164E-09  2.05073E-09  2.15525E-09  2.10041E-09  1.97674E-09
   1.83602E-09  1.72160E-09  1.58345E-09  1.43052E-09  1.37134E-09  1.47405E-09  1.58284E-09  1.37919E-09  7.25164E-10  4.73885E-10
   3.16309E-10  1.81154E-10  5.40193E-11 -6.93680E-11 -1.90622E-10 -3.10414E-10 -4.29035E-10 -5.46593E-10 -6.63141E-10 -7.78640E-10
  -8.93039E-10 -1.00629E-09 -1.11829E-09 -1.22898E-09 -1.33825E-09 -1.44603E-09 -1.55222E-09 -1.65671E-09 -1.75943E-09 -1.86028E-09
  -1.95915E-09 -2.05597E-09 -2.15063E-09 -2.24304E-09 -2.33311E-09 -2.42074E-09 -2.50585E-09 -2.58834E-09 -2.66814E-09 -2.74512E-09
  -2.81923E-09 -2.89037E-09 -2.95845E-09 -3.02340E-09 -3.08512E-09 -3.14354E-09 -3.19856E-09 -3.25013E-09 -3.29815E-09 -3.34268E-09
  -3.38379E-09 -3.42157E-09 -3.45609E-09 -3.48746E-09 -3.51572E-09 -3.54099E-09 -3.56334E-09 -3.58284E-09 -3.59959E-09 -3.61367E-09
  -3.62516E-09 -3.63415E-09 -3.64071E-09 -3.64493E-09 -3.64690E-09 -3.64670E-09 -3.64441E-09 -3.64011E-09 -3.63389E-09 -3.62582E-09
  -3.61599E-09 -3.60449E-09 -3.59140E-09 -3.57678E-09 -3.56073E-09 -3.54332E-09 -3.52464E-09 -3.50477E-09 -3.48379E-09 -3.46175E-09
  -3.43878E-09 -3.41490E-09 -3.39025E-09 -3.36483E-09 -3.33877E-09 -3.31214E-09 -3.28500E-09 -3.25742E-09 -3.22949E-09 -3.20126E-09
  -3.17282E-09 -3.14424E-09 -3.11558E-09 -3.08691E-09 -3.05829E-09 -3.02979E-09 -3.00150E-09 -2.97345E-09 -2.94572E-09 -2.91837E-09
  -2.89145E-09 -2.86503E-09 -2.83919E-09 -2.81394E-09 -2.78938E-09 -2.76554E-09 -2.74248E-09 -2.72027E-09 -2.69893E-09 -2.67852E-09
  -2.65911E-09 -2.64073E-09 -2.62344E-09 -2.60726E-09 -2.59225E-09 -2.57845E-09 -2.56590E-09 -2.55462E-09 -2.54468E-09 -2.53611E-09
  -2.52891E-09 -2.52312E-09 -2.51866E-09 -2.51549E-09 -2.51356E-09 -2.51281E-09 -2.51319E-09 -2.51465E-09 -2.51714E-09 -2.52060E-09
  -2.52499E-09 -2.53026E-09 -2.53635E-09 -2.54322E-09 -2.55081E-09 -2.55908E-09 -2.56799E-09 -2.57747E-09 -2.58749E-09 -2.59799E-09
  -2.60893E-09 -2.62027E-09 -2.63196E-09 -2.64394E-09 -2.65619E-09 -2.66865E-09 -2.68128E-09 -2.69404E-09 -2.70688E-09 -2.71977E-09
  -2.73267E-09 -2.74551E-09 -2.75829E-09 -2.77094E-09 -2.78344E-09 -2.79573E-09 -2.80781E-09 -2.81961E-09 -2.83111E-09 -2.84226E-09
  -2.85305E-09 -2.86342E-09 -2.87335E-09 -2.88280E-09 -2.89175E-09 -2.90015E-09 -2.90800E-09 -2.91524E-09 -2.92186E-09 -2.92782E-09
  -2.93310E-09 -2.93767E-09 -2.94152E-09 -2.94460E-09 -2.94689E-09 -2.94839E-09 -2.94906E-09 -2.94889E-09 -2.94783E-09 -2.94590E-09
  -2.94306E-09 -2.93929E-09 -2.93458E-09 -2.92892E-09 -2.92228E-09 -2.91465E-09 -2.90603E-09 -2.89640E-09 -2.88573E-09 -2.87404E-09
  -2.86130E-09 -2.84751E-09 -2.83267E-09
 GABA     Conc. = 1.87E-09
   6.11408E-10  6.46992E-10  6.84003E-10  7.22501E-10  7.62553E-10  8.04231E-10  8.47629E-10  8.92846E-10  9.40002E-10  9.89273E-10
   1.04073E-09  1.09459E-09  1.15119E-09  1.21049E-09  1.27309E-09  1.33912E-09  1.40889E-09  1.48336E-09  1.56308E-09  1.64850E-09
   1.74107E-09  1.84227E-09  1.95374E-09  2.07785E-09  2.21866E-09  2.38093E-09  2.57427E-09  2.81361E-09  3.12516E-09  3.55170E-09
   3.72850E-09  3.76789E-09  4.32769E-09  4.58364E-09  4.29413E-09  4.27861E-09  4.50390E-09  4.63602E-09  4.38751E-09  3.80146E-09
   3.27152E-09  3.51724E-09  3.46335E-09  1.74906E-09  1.20853E-09  1.85278E-09  1.38270E-09  8.98508E-10  9.92985E-10  1.16811E-09
   1.35311E-09  1.53434E-09  1.71049E-09  1.88508E-09  2.06122E-09  2.24107E-09  2.42855E-09  2.62941E-09  2.85176E-09  3.11023E-09
   3.42861E-09  3.85097E-09  4.38594E-09  4.41001E-09  4.59716E-09  5.28133E-09  5.21405E-09  4.93098E-09  5.03881E-09  5.35299E-09
   5.56186E-09  5.26612E-09  4.60450E-09  4.10562E-09  4.75674E-09  4.05763E-09  2.17365E-09  2.69779E-09  3.16951E-09  2.76643E-09
   2.95262E-09  3.07129E-09  3.24039E-09  3.83422E-09  4.11988E-09  4.13233E-09  4.44049E-09  4.74208E-09  4.94459E-09  5.14216E-09
   5.03931E-09  4.92839E-09  5.44325E-09  5.44877E-09  4.46794E-09  4.65059E-09  5.02737E-09  4.23167E-09  3.93900E-09  4.06303E-09
   3.87179E-09  3.74270E-09  3.70806E-09  3.71257E-09  3.73586E-09  3.76832E-09  3.80474E-09  3.84309E-09  3.88236E-09  3.92191E-09
   3.96165E-09  3.99969E-09  4.03592E-09  4.07018E-09  4.10231E-09  4.13257E-09  4.16140E-09  4.18801E-09  4.21234E-09  4.23434E-09
   4.25393E-09  4.27111E-09  4.28595E-09  4.29832E-09  4.30816E-09  4.31546E-09  4.32018E-09  4.32222E-09  4.32159E-09  4.31827E-09
   4.31216E-09  4.30324E-09  4.29149E-09  4.27687E-09  4.25934E-09  4.23887E-09  4.21541E-09  4.18893E-09  4.15936E-09  4.12669E-09
   4.09088E-09  4.05191E-09  4.00977E-09  3.96442E-09  3.91578E-09  3.86385E-09  3.80863E-09  3.75024E-09  3.68882E-09  3.62445E-09
   3.55726E-09  3.48738E-09  3.41496E-09  3.34017E-09  3.26321E-09  3.18429E-09  3.10369E-09  3.02174E-09  2.93889E-09  2.85574E-09
   2.77316E-09  2.69255E-09  2.61620E-09  2.54847E-09  2.49865E-09  2.49109E-09  2.61303E-09  3.33262E-09  4.05720E-09  4.08313E-09
   3.85858E-09  3.66951E-09  3.51420E-09  3.22028E-09  3.08763E-09  3.68195E-09  4.88153E-09  5.40785E-09  3.61137E-09  1.40323E-09
   8.21472E-10  5.43509E-10  3.52626E-10  1.96005E-10  5.57726E-11 -7.54582E-11 -2.01168E-10 -3.23139E-10 -4.42374E-10 -5.59407E-10
  -6.74545E-10 -7.87972E-10 -8.99757E-10 -1.00993E-09 -1.11848E-09 -1.22538E-09 -1.33058E-09 -1.43401E-09 -1.53559E-09 -1.63527E-09
  -1.73294E-09 -1.82855E-09 -1.92198E-09 -2.01317E-09 -2.10203E-09 -2.18845E-09 -2.27236E-09 -2.35367E-09 -2.43230E-09 -2.50814E-09
  -2.58113E-09 -2.65117E-09 -2.71817E-09 -2.78206E-09 -2.84275E-09 -2.90016E-09 -2.95419E-09 -3.00480E-09 -3.05189E-09 -3.09550E-09
  -3.13573E-09 -3.17265E-09 -3.20634E-09 -3.23688E-09 -3.26436E-09 -3.28886E-09 -3.31047E-09 -3.32925E-09 -3.34531E-09 -3.35872E-09
  -3.36956E-09 -3.37793E-09 -3.38389E-09 -3.38753E-09 -3.38895E-09 -3.38821E-09 -3.38541E-09 -3.38062E-09 -3.37393E-09 -3.36541E-09
