 LCModel (Version 6.3-1R) Copyright: S.W. Provencher.          Ref.: Magn. Reson. Med. 30:672-679 (1993).                
 onepulse 15x7_ftSpec_smooth_lcm
 26 lines in following concentration table = NCONC+1
    Conc.  %SD /Cr+PCr  Metabolite                                         
 3.95E-10  78%   1.841 Ala                                                 
 4.19E-09  14%  19.528 Asp                                                 
    0.000 999%   0.000 Cr                                                  
 2.44E-09  23%  11.387 GABA                                                
 1.52E-09  45%   7.080 Glc                                                 
    0.000 999%   0.000 Gln                                                 
    0.000 999%   0.000 Glu                                                 
    0.000 999%   0.000 Glyc                                                
 1.58E-10  55%   0.736 GPC                                                 
    0.000 999%   0.000 GSH                                                 
 7.20E-10  57%   3.355 Ins                                                 
    0.000 999%   0.000 Lac                                                 
    0.000 999%   0.000 NAAG                                                
 1.86E-10 122%   0.865 NAA                                                 
    0.000 999%   0.000 PCh                                                 
 2.15E-10 135%   1.000 PCr                                                 
    0.000 999%   0.000 PE                                                  
 1.40E-10 123%   0.652 Scyllo                                              
    0.000 999%   0.000 Ser                                                 
    0.000 999%   0.000 Tau                                                 
 1.58E-10  55%   0.736 GPC+PCh                                             
 1.86E-10 122%   0.865 NAA+NAAG                                            
 7.20E-10  57%   3.355 Ins+Glyc                                            
 2.15E-10 135%   1.000 Cr+PCr                                              
    0.000 999%   0.000 Glu+Gln                                             
   6 lines in following misc. output table
  FWHM = 0.101 ppm    S/N =   3                                            
  Data shift = 0.380 ppm                                                   
  Ph:-171 deg      30.7 deg/ppm                                            
  alphaB,S = 1.1E+00,   1.6E+01                                            
    9 spline knots.   Ns = 5(1)                                            
  (10) 4 infls.   (11) 1 extrs.                                            
  363 points on ppm-axis = NY
      4.250000     4.238821     4.227641     4.216462     4.205282     4.194103     4.182923     4.171744     4.160564     4.149385
      4.138206     4.127026     4.115847     4.104667     4.093488     4.082308     4.071129     4.059949     4.048770     4.037591
      4.026411     4.015232     4.004052     3.992873     3.981693     3.970514     3.959334     3.948155     3.936975     3.925796
      3.914617     3.903437     3.892258     3.881078     3.869899     3.858719     3.847540     3.836360     3.825181     3.814002
      3.802822     3.791643     3.780463     3.769284     3.758104     3.746925     3.735745     3.724566     3.713387     3.702207
      3.691028     3.679848     3.668669     3.657489     3.646310     3.635130     3.623951     3.612772     3.601592     3.590413
      3.579233     3.568054     3.556874     3.545695     3.534515     3.523336     3.512156     3.500977     3.489798     3.478618
      3.467439     3.456259     3.445080     3.433900     3.422721     3.411541     3.400362     3.389183     3.378003     3.366824
      3.355644     3.344465     3.333285     3.322106     3.310926     3.299747     3.288568     3.277388     3.266209     3.255029
      3.243850     3.232670     3.221491     3.210311     3.199132     3.187953     3.176773     3.165594     3.154414     3.143235
      3.132055     3.120876     3.109696     3.098517     3.087337     3.076158     3.064979     3.053799     3.042620     3.031440
      3.020261     3.009081     2.997902     2.986722     2.975543     2.964364     2.953184     2.942005     2.930825     2.919646
      2.908466     2.897287     2.886107     2.874928     2.863749     2.852569     2.841390     2.830210     2.819031     2.807851
      2.796672     2.785492     2.774313     2.763134     2.751954     2.740775     2.729595     2.718416     2.707236     2.696057
      2.684877     2.673698     2.662519     2.651339     2.640160     2.628980     2.617801     2.606621     2.595442     2.584262
      2.573083     2.561903     2.550724     2.539545     2.528365     2.517186     2.506006     2.494827     2.483647     2.472468
      2.461288     2.450109     2.438930     2.427750     2.416571     2.405391     2.394212     2.383032     2.371853     2.360673
      2.349494     2.338315     2.327135     2.315956     2.304776     2.293597     2.282417     2.271238     2.260058     2.248879
      2.237700     2.226520     2.215341     2.204161     2.192982     2.181802     2.170623     2.159443     2.148264     2.137084
      2.125905     2.114726     2.103546     2.092367     2.081187     2.070008     2.058828     2.047649     2.036469     2.025290
      2.014111     2.002931     1.991752     1.980572     1.969393     1.958213     1.947034     1.935854     1.924675     1.913496
      1.902316     1.891137     1.879957     1.868778     1.857598     1.846419     1.835239     1.824060     1.812881     1.801701
      1.790522     1.779342     1.768163     1.756983     1.745804     1.734624     1.723445     1.712265     1.701086     1.689907
      1.678727     1.667548     1.656368     1.645189     1.634009     1.622830     1.611650     1.600471     1.589292     1.578112
      1.566933     1.555753     1.544574     1.533394     1.522215     1.511035     1.499856     1.488677     1.477497     1.466318
      1.455138     1.443959     1.432779     1.421600     1.410420     1.399241     1.388062     1.376882     1.365703     1.354523
      1.343344     1.332164     1.320985     1.309805     1.298626     1.287446     1.276267     1.265088     1.253908     1.242729
      1.231549     1.220370     1.209190     1.198011     1.186831     1.175652     1.164473     1.153293     1.142114     1.130934
      1.119755     1.108575     1.097396     1.086216     1.075037     1.063858     1.052678     1.041499     1.030319     1.019140
      1.007960     0.996781     0.985601     0.974422     0.963243     0.952063     0.940884     0.929704     0.918525     0.907345
      0.896166     0.884986     0.873807     0.862628     0.851448     0.840269     0.829089     0.817910     0.806730     0.795551
      0.784371     0.773192     0.762012     0.750833     0.739654     0.728474     0.717295     0.706115     0.694936     0.683756
      0.672577     0.661397     0.650218     0.639039     0.627859     0.616680     0.605500     0.594321     0.583141     0.571962
      0.560782     0.549603     0.538424     0.527244     0.516065     0.504885     0.493706     0.482526     0.471347     0.460167
      0.448988     0.437809     0.426629     0.415450     0.404270     0.393091     0.381911     0.370732     0.359552     0.348373
      0.337193     0.326014     0.314835     0.303655     0.292476     0.281296     0.270117     0.258937     0.247758     0.236578
      0.225399     0.214220     0.203040
 NY phased data points follow
   8.01227E-09  9.22658E-09  8.03082E-09  8.99535E-09  7.13383E-09  8.20006E-09  6.32418E-09  8.07050E-09  5.96353E-09  7.87639E-09
   5.89975E-09  8.04211E-09  7.01207E-09  9.19580E-09  7.69856E-09  8.84141E-09  7.77407E-09  9.55391E-09  7.97457E-09  9.02002E-09
   6.92703E-09  7.88150E-09  7.43870E-09  9.25903E-09  8.38143E-09  9.55790E-09  7.48495E-09  7.73425E-09  6.20624E-09  8.85242E-09
   8.65484E-09  1.14874E-08  9.91419E-09  1.15638E-08  9.53137E-09  1.06827E-08  9.11233E-09  1.04963E-08  8.39835E-09  9.99131E-09
   8.98849E-09  9.97229E-09  8.66702E-09  9.80515E-09  8.41684E-09  9.09417E-09  7.72511E-09  8.95109E-09  7.04244E-09  8.49229E-09
   7.59035E-09  8.67734E-09  6.95807E-09  7.57812E-09  6.08143E-09  6.79399E-09  5.41295E-09  6.55286E-09  4.89329E-09  5.95263E-09
   5.20234E-09  8.07106E-09  8.32981E-09  1.05418E-08  9.41272E-09  1.04090E-08  9.30753E-09  1.00830E-08  8.57432E-09  9.53949E-09
   7.67458E-09  8.58900E-09  6.54583E-09  7.42735E-09  4.24660E-09  4.45316E-09  2.89221E-09  6.74003E-09  8.74723E-09  1.10013E-08
   1.05638E-08  1.19033E-08  1.17467E-08  1.27420E-08  1.13606E-08  1.19774E-08  1.11328E-08  1.24239E-08  1.13767E-08  1.17923E-08
   1.14774E-08  1.18409E-08  1.08624E-08  1.18978E-08  1.04639E-08  1.11286E-08  1.00979E-08  1.01475E-08  8.82877E-09  9.82736E-09
   9.35207E-09  9.68866E-09  8.59435E-09  9.79098E-09  8.89879E-09  1.00359E-08  8.65324E-09  8.55996E-09  7.85820E-09  8.20880E-09
   6.87841E-09  7.89405E-09  7.12947E-09  7.49090E-09  6.88774E-09  7.83653E-09  7.13818E-09  7.30253E-09  7.17357E-09  8.18474E-09
   7.69324E-09  7.56129E-09  6.99960E-09  6.99109E-09  5.69960E-09  6.16749E-09  5.81324E-09  6.43821E-09  5.06652E-09  5.82839E-09
   5.37125E-09  7.16894E-09  6.35549E-09  6.95845E-09  6.06681E-09  6.34923E-09  5.78543E-09  6.42133E-09  7.31975E-09  8.41958E-09
   8.12571E-09  8.45907E-09  7.72511E-09  9.55412E-09  9.01379E-09  9.93467E-09  9.28016E-09  1.04354E-08  1.00956E-08  1.12753E-08
   1.01310E-08  1.04481E-08  9.95561E-09  1.08367E-08  1.01745E-08  1.13800E-08  1.04625E-08  1.15003E-08  1.03468E-08  1.13879E-08
   1.04704E-08  1.17188E-08  1.10755E-08  1.16775E-08  1.11518E-08  1.15436E-08  9.33798E-09  8.23862E-09  1.00724E-08  1.52460E-08
   1.82104E-08  2.02518E-08  1.99079E-08  2.09265E-08  2.09004E-08  2.10246E-08  2.00632E-08  1.99045E-08  1.90643E-08  1.84476E-08
   1.61970E-08  1.59154E-08  1.34397E-08  1.19270E-08  9.12925E-09  7.29377E-09  4.22061E-09  2.23898E-09 -9.59447E-10 -3.09105E-09
  -5.78734E-09 -6.56093E-09 -9.00021E-09 -9.31670E-09 -1.07063E-08 -1.03387E-08 -1.03090E-08 -9.32412E-09 -8.59937E-09 -6.78887E-09
  -7.06695E-09 -5.10601E-09 -4.62693E-09 -2.70402E-09 -3.16669E-09 -1.76936E-09 -2.74223E-09 -1.52957E-09 -2.26374E-09 -1.42706E-09
  -2.87491E-09 -1.93789E-09 -2.98142E-09 -1.40089E-09 -2.31274E-09 -1.23566E-09 -2.44586E-09 -1.18225E-09 -1.90099E-09 -1.27073E-09
  -1.93040E-09 -1.22333E-09 -1.87006E-09 -1.04563E-09 -1.98798E-09 -1.26847E-09 -2.06451E-09 -1.13027E-09 -1.28639E-09 -7.31408E-10
  -1.51020E-09 -9.54148E-10 -1.92917E-09 -1.00337E-09 -2.17755E-09 -8.36411E-10 -1.80570E-09 -1.47489E-09 -2.44116E-09 -1.64118E-09
  -2.62056E-09 -1.56329E-09 -2.16450E-09 -1.72689E-09 -2.47729E-09 -1.47079E-09 -1.82379E-09 -1.32028E-09 -2.07580E-09 -1.09786E-09
  -2.25275E-09 -1.61621E-09 -2.67774E-09 -1.67806E-09 -2.69769E-09 -2.05794E-09 -2.97234E-09 -1.85981E-09 -2.82071E-09 -2.23624E-09
  -3.41435E-09 -2.72232E-09 -3.47634E-09 -2.91276E-09 -3.89174E-09 -3.00628E-09 -3.51193E-09 -2.86950E-09 -3.38144E-09 -2.58001E-09
  -3.66763E-09 -2.15462E-09 -1.95051E-09 -1.97771E-09 -2.48986E-09 -1.08719E-09 -1.99659E-09 -1.49328E-09 -2.00209E-09 -1.42753E-09
  -1.58468E-09 -1.31014E-09 -1.78356E-09 -1.58357E-09 -1.63626E-09 -1.59334E-09 -2.02041E-09 -1.79085E-09 -2.40335E-09 -1.75233E-09
  -2.56234E-09 -2.19981E-09 -3.07318E-09 -2.25295E-09 -2.84457E-09 -2.25060E-09 -2.85260E-09 -2.59669E-09 -3.45670E-09 -2.80617E-09
  -3.34132E-09 -3.20608E-09 -3.40033E-09 -3.16431E-09 -3.73635E-09 -3.22861E-09 -4.26002E-09 -3.70716E-09 -3.98983E-09 -3.86196E-09
  -4.25586E-09 -3.75920E-09 -4.88279E-09 -3.72820E-09 -4.33347E-09 -4.02942E-09 -4.38647E-09 -4.43160E-09 -4.68474E-09 -4.28442E-09
  -4.85139E-09 -4.49326E-09 -4.88530E-09 -4.62924E-09 -4.70274E-09 -4.43215E-09 -5.29062E-09 -4.51189E-09 -5.24448E-09 -5.20827E-09
  -5.08603E-09 -5.07381E-09 -5.31140E-09 -5.39946E-09 -5.11645E-09 -5.24950E-09 -5.54306E-09 -5.73462E-09 -5.22432E-09 -5.37868E-09
  -6.14805E-09 -5.92711E-09 -5.93731E-09 -5.77322E-09 -5.84068E-09 -6.25454E-09 -5.96128E-09 -5.70373E-09 -5.89690E-09 -6.28782E-09
  -5.89320E-09 -6.02192E-09 -5.97705E-09 -6.25438E-09 -6.11966E-09 -6.19116E-09 -6.34638E-09 -6.13923E-09 -6.51803E-09 -6.55506E-09
  -5.89535E-09 -6.29319E-09 -6.49604E-09
 NY points of the fit to the data follow
   9.84556E-09  8.24366E-09  7.31373E-09  7.34700E-09  7.29628E-09  6.96353E-09  6.77450E-09  6.46758E-09  6.64867E-09  7.02440E-09
   7.46736E-09  7.88546E-09  8.33930E-09  8.77253E-09  8.73348E-09  8.61185E-09  8.98482E-09  8.99891E-09  8.26665E-09  7.97221E-09
   8.14715E-09  8.34450E-09  8.32293E-09  8.33892E-09  8.06203E-09  7.85391E-09  8.13137E-09  8.09635E-09  7.92461E-09  8.71822E-09
   9.37075E-09  9.87547E-09  1.01227E-08  9.68607E-09  8.85234E-09  9.52794E-09  1.00126E-08  1.01885E-08  1.01691E-08  9.74994E-09
   9.03327E-09  8.61125E-09  7.83368E-09  7.03596E-09  7.61221E-09  8.91283E-09  8.88673E-09  8.72067E-09  8.80121E-09  9.04476E-09
   9.51983E-09  1.00333E-08  1.00837E-08  9.44936E-09  8.14216E-09  7.11568E-09  5.81093E-09  6.89210E-09  7.75817E-09  7.60317E-09
   7.35479E-09  7.95277E-09  8.48086E-09  8.94152E-09  9.88160E-09  1.05163E-08  1.03477E-08  1.03478E-08  1.03673E-08  1.02816E-08
   1.00940E-08  9.62045E-09  8.77791E-09  8.08367E-09  8.29132E-09  7.56010E-09  6.43950E-09  7.30700E-09  7.91061E-09  7.86149E-09
   8.22687E-09  8.61363E-09  8.97935E-09  9.42407E-09  9.82872E-09  1.01882E-08  1.04011E-08  1.02689E-08  1.00304E-08  1.03216E-08
   1.02720E-08  1.01243E-08  1.04017E-08  1.01704E-08  9.28545E-09  9.36026E-09  9.43832E-09  8.73734E-09  8.60608E-09  8.80843E-09
   8.80298E-09  8.86986E-09  9.01926E-09  9.16450E-09  9.28784E-09  9.37549E-09  9.41303E-09  9.39872E-09  9.30465E-09  9.04152E-09
   8.61463E-09  8.42909E-09  8.47572E-09  8.11413E-09  7.80522E-09  7.80552E-09  7.84167E-09  7.87785E-09  7.90817E-09  7.93188E-09
   7.94904E-09  7.96037E-09  7.96637E-09  7.96747E-09  7.96403E-09  7.95643E-09  7.94493E-09  7.92977E-09  7.91126E-09  7.88957E-09
   7.86487E-09  7.83737E-09  7.80719E-09  7.77454E-09  7.73954E-09  7.70235E-09  7.66310E-09  7.62194E-09  7.57902E-09  7.53445E-09
   7.48844E-09  7.44113E-09  7.39271E-09  7.34339E-09  7.29325E-09  7.24256E-09  7.19160E-09  7.14064E-09  7.08996E-09  7.03995E-09
   6.99102E-09  6.94357E-09  6.89827E-09  6.85584E-09  6.81707E-09  6.78309E-09  6.75535E-09  6.73564E-09  6.72640E-09  6.73111E-09
   6.75453E-09  6.80404E-09  6.89113E-09  7.03557E-09  7.27501E-09  7.69526E-09  8.56038E-09  1.06521E-08  1.36516E-08  1.68669E-08
   1.94706E-08  2.08720E-08  2.12307E-08  2.11444E-08  2.12453E-08  2.18909E-08  2.22048E-08  1.92036E-08  1.06102E-08  4.19355E-09
   2.94614E-09  2.56699E-09  2.39944E-09  2.29975E-09  2.22432E-09  2.15731E-09  2.09234E-09  2.02671E-09  1.95936E-09  1.88990E-09
   1.81828E-09  1.74463E-09  1.66911E-09  1.59195E-09  1.51332E-09  1.43340E-09  1.35241E-09  1.27050E-09  1.18780E-09  1.10447E-09
   1.02063E-09  9.36371E-10  8.51816E-10  7.67066E-10  6.82186E-10  5.97268E-10  5.12375E-10  4.27615E-10  3.43000E-10  2.58602E-10
   1.74479E-10  9.07003E-11  7.29783E-12 -7.56700E-11 -1.58200E-10 -2.40216E-10 -3.21673E-10 -4.02554E-10 -4.82838E-10 -5.62458E-10
  -6.41389E-10 -7.19608E-10 -7.97090E-10 -8.73816E-10 -9.49765E-10 -1.02485E-09 -1.09913E-09 -1.17254E-09 -1.24505E-09 -1.31664E-09
  -1.38731E-09 -1.45702E-09 -1.52576E-09 -1.59351E-09 -1.66025E-09 -1.72596E-09 -1.79064E-09 -1.85425E-09 -1.91680E-09 -1.97824E-09
  -2.03859E-09 -2.09782E-09 -2.15591E-09 -2.21289E-09 -2.26876E-09 -2.32356E-09 -2.37731E-09 -2.43001E-09 -2.48171E-09 -2.53241E-09
  -2.58215E-09 -2.63095E-09 -2.67882E-09 -2.72579E-09 -2.77189E-09 -2.81713E-09 -2.86155E-09 -2.90515E-09 -2.94797E-09 -2.99002E-09
  -3.03133E-09 -3.07192E-09 -3.11182E-09 -3.15104E-09 -3.18960E-09 -3.22753E-09 -3.26485E-09 -3.30158E-09 -3.33774E-09 -3.37334E-09
  -3.40842E-09 -3.44299E-09 -3.47707E-09 -3.51067E-09 -3.54383E-09 -3.57655E-09 -3.60885E-09 -3.64075E-09 -3.67228E-09 -3.70343E-09
  -3.73424E-09 -3.76472E-09 -3.79488E-09 -3.82474E-09 -3.85430E-09 -3.88360E-09 -3.91263E-09 -3.94142E-09 -3.96997E-09 -3.99830E-09
  -4.02642E-09 -4.05433E-09 -4.08205E-09 -4.10959E-09 -4.13695E-09 -4.16415E-09 -4.19119E-09 -4.21808E-09 -4.24482E-09 -4.27142E-09
  -4.29789E-09 -4.32423E-09 -4.35044E-09 -4.37650E-09 -4.40240E-09 -4.42807E-09 -4.45350E-09 -4.47864E-09 -4.50345E-09 -4.52790E-09
  -4.55195E-09 -4.57557E-09 -4.59872E-09 -4.62137E-09 -4.64348E-09 -4.66502E-09 -4.68594E-09 -4.70623E-09 -4.72585E-09 -4.74476E-09
  -4.76292E-09 -4.78032E-09 -4.79691E-09 -4.81268E-09 -4.82757E-09 -4.84157E-09 -4.85464E-09 -4.86676E-09 -4.87791E-09 -4.88803E-09
  -4.89712E-09 -4.90515E-09 -4.91207E-09 -4.91788E-09 -4.92255E-09 -4.92605E-09 -4.92835E-09 -4.92943E-09 -4.92927E-09 -4.92784E-09
  -4.92514E-09 -4.92111E-09 -4.91576E-09 -4.90905E-09 -4.90098E-09 -4.89152E-09 -4.88064E-09 -4.86834E-09 -4.85460E-09 -4.83939E-09
  -4.82270E-09 -4.80453E-09 -4.78484E-09 -4.76364E-09 -4.74089E-09 -4.71660E-09 -4.69076E-09 -4.66334E-09 -4.63433E-09 -4.60374E-09
  -4.57155E-09 -4.53774E-09 -4.50231E-09
 NY background values follow
     2.362E-09    2.518E-09    2.673E-09    2.826E-09    2.977E-09    3.127E-09    3.274E-09    3.421E-09    3.565E-09    3.708E-09
     3.849E-09    3.989E-09    4.126E-09    4.262E-09    4.397E-09    4.529E-09    4.660E-09    4.789E-09    4.917E-09    5.043E-09
     5.167E-09    5.289E-09    5.409E-09    5.528E-09    5.645E-09    5.760E-09    5.874E-09    5.985E-09    6.095E-09    6.204E-09
     6.310E-09    6.415E-09    6.518E-09    6.619E-09    6.718E-09    6.816E-09    6.911E-09    7.005E-09    7.098E-09    7.188E-09
     7.277E-09    7.364E-09    7.449E-09    7.533E-09    7.614E-09    7.694E-09    7.772E-09    7.849E-09    7.923E-09    7.996E-09
     8.067E-09    8.137E-09    8.204E-09    8.270E-09    8.334E-09    8.397E-09    8.457E-09    8.516E-09    8.573E-09    8.629E-09
     8.683E-09    8.735E-09    8.785E-09    8.834E-09    8.880E-09    8.926E-09    8.969E-09    9.011E-09    9.051E-09    9.089E-09
     9.125E-09    9.160E-09    9.193E-09    9.224E-09    9.254E-09    9.281E-09    9.307E-09    9.331E-09    9.354E-09    9.374E-09
     9.393E-09    9.410E-09    9.425E-09    9.439E-09    9.450E-09    9.460E-09    9.468E-09    9.474E-09    9.479E-09    9.481E-09
     9.482E-09    9.481E-09    9.478E-09    9.473E-09    9.466E-09    9.458E-09    9.447E-09    9.435E-09    9.421E-09    9.405E-09
     9.387E-09    9.367E-09    9.345E-09    9.321E-09    9.295E-09    9.268E-09    9.238E-09    9.207E-09    9.174E-09    9.138E-09
     9.101E-09    9.062E-09    9.021E-09    8.977E-09    8.932E-09    8.885E-09    8.836E-09    8.785E-09    8.732E-09    8.677E-09
     8.620E-09    8.560E-09    8.499E-09    8.436E-09    8.371E-09    8.304E-09    8.235E-09    8.164E-09    8.092E-09    8.017E-09
     7.941E-09    7.863E-09    7.783E-09    7.702E-09    7.619E-09    7.534E-09    7.448E-09    7.360E-09    7.270E-09    7.179E-09
     7.087E-09    6.993E-09    6.898E-09    6.801E-09    6.703E-09    6.604E-09    6.503E-09    6.402E-09    6.299E-09    6.195E-09
     6.090E-09    5.983E-09    5.876E-09    5.768E-09    5.659E-09    5.549E-09    5.438E-09    5.327E-09    5.214E-09    5.101E-09
     4.987E-09    4.873E-09    4.758E-09    4.642E-09    4.526E-09    4.409E-09    4.292E-09    4.174E-09    4.057E-09    3.939E-09
     3.820E-09    3.702E-09    3.583E-09    3.464E-09    3.345E-09    3.226E-09    3.107E-09    2.988E-09    2.869E-09    2.750E-09
     2.632E-09    2.514E-09    2.396E-09    2.278E-09    2.160E-09    2.043E-09    1.927E-09    1.810E-09    1.694E-09    1.579E-09
     1.464E-09    1.349E-09    1.235E-09    1.122E-09    1.009E-09    8.968E-10    7.851E-10    6.740E-10    5.635E-10    4.537E-10
     3.446E-10    2.362E-10    1.285E-10    2.160E-11   -8.456E-11   -1.899E-10   -2.945E-10   -3.982E-10   -5.011E-10   -6.031E-10
    -7.043E-10   -8.045E-10   -9.038E-10   -1.002E-09   -1.100E-09   -1.196E-09   -1.291E-09   -1.386E-09   -1.479E-09   -1.572E-09
    -1.663E-09   -1.753E-09   -1.842E-09   -1.930E-09   -2.017E-09   -2.103E-09   -2.188E-09   -2.271E-09   -2.353E-09   -2.435E-09
    -2.514E-09   -2.593E-09   -2.671E-09   -2.747E-09   -2.822E-09   -2.895E-09   -2.968E-09   -3.039E-09   -3.109E-09   -3.177E-09
    -3.244E-09   -3.310E-09   -3.375E-09   -3.438E-09   -3.500E-09   -3.561E-09   -3.620E-09   -3.678E-09   -3.735E-09   -3.791E-09
    -3.846E-09   -3.899E-09   -3.952E-09   -4.003E-09   -4.053E-09   -4.103E-09   -4.151E-09   -4.198E-09   -4.245E-09   -4.290E-09
    -4.335E-09   -4.379E-09   -4.421E-09   -4.464E-09   -4.505E-09   -4.545E-09   -4.585E-09   -4.624E-09   -4.662E-09   -4.700E-09
    -4.737E-09   -4.773E-09   -4.809E-09   -4.844E-09   -4.878E-09   -4.912E-09   -4.946E-09   -4.979E-09   -5.011E-09   -5.043E-09
    -5.074E-09   -5.105E-09   -5.136E-09   -5.166E-09   -5.196E-09   -5.225E-09   -5.254E-09   -5.282E-09   -5.311E-09   -5.338E-09
    -5.366E-09   -5.393E-09   -5.420E-09   -5.447E-09   -5.473E-09   -5.499E-09   -5.525E-09   -5.551E-09   -5.576E-09   -5.601E-09
    -5.626E-09   -5.651E-09   -5.675E-09   -5.699E-09   -5.723E-09   -5.747E-09   -5.770E-09   -5.793E-09   -5.816E-09   -5.838E-09
    -5.859E-09   -5.880E-09   -5.901E-09   -5.920E-09   -5.940E-09   -5.958E-09   -5.976E-09   -5.993E-09   -6.010E-09   -6.025E-09
    -6.040E-09   -6.054E-09   -6.067E-09   -6.079E-09   -6.090E-09   -6.100E-09   -6.110E-09   -6.118E-09   -6.125E-09   -6.131E-09
    -6.136E-09   -6.139E-09   -6.142E-09   -6.143E-09   -6.144E-09   -6.143E-09   -6.140E-09   -6.137E-09   -6.132E-09   -6.126E-09
    -6.118E-09   -6.109E-09   -6.099E-09   -6.087E-09   -6.074E-09   -6.059E-09   -6.043E-09   -6.025E-09   -6.006E-09   -5.985E-09
    -5.963E-09   -5.939E-09   -5.914E-09   -5.887E-09   -5.859E-09   -5.829E-09   -5.797E-09   -5.763E-09   -5.728E-09   -5.692E-09
    -5.654E-09   -5.614E-09   -5.572E-09
 Ala      Conc. = 3.95E-10
   2.62387E-09  2.76230E-09  2.88754E-09  3.00101E-09  3.12240E-09  3.25542E-09  3.32309E-09  3.39661E-09  3.59608E-09  3.69735E-09
   3.73477E-09  3.91517E-09  4.07235E-09  4.18019E-09  4.32230E-09  4.46868E-09  4.61267E-09  4.75345E-09  4.89110E-09  5.02582E-09
   5.15780E-09  5.28721E-09  5.41418E-09  5.53884E-09  5.66126E-09  5.78152E-09  5.89965E-09  6.01573E-09  6.12980E-09  6.24187E-09
   6.35199E-09  6.46015E-09  6.56640E-09  6.67076E-09  6.77323E-09  6.87382E-09  6.97256E-09  7.06946E-09  7.16451E-09  7.25775E-09
   7.34914E-09  7.43873E-09  7.52652E-09  7.61253E-09  7.69673E-09  7.77917E-09  7.85982E-09  7.93868E-09  8.01582E-09  8.09120E-09
   8.16483E-09  8.23669E-09  8.30685E-09  8.37529E-09  8.44199E-09  8.50697E-09  8.57027E-09  8.63189E-09  8.69180E-09  8.75009E-09
   8.80669E-09  8.86164E-09  8.91494E-09  8.96662E-09  9.01664E-09  9.06505E-09  9.11183E-09  9.15701E-09  9.20058E-09  9.24254E-09
   9.28293E-09  9.32174E-09  9.35899E-09  9.39469E-09  9.42886E-09  9.46154E-09  9.49271E-09  9.52246E-09  9.55074E-09  9.57767E-09
   9.60324E-09  9.62752E-09  9.65056E-09  9.67247E-09  9.69333E-09  9.71321E-09  9.73231E-09  9.75074E-09  9.76875E-09  9.78661E-09
   9.80465E-09  9.82341E-09  9.84346E-09  9.86570E-09  9.89145E-09  9.92265E-09  9.96250E-09  1.00167E-08  1.00966E-08  1.02295E-08
   1.03838E-08  1.05100E-08  1.06322E-08  1.07197E-08  1.07731E-08  1.07866E-08  1.07496E-08  1.06614E-08  1.04946E-08  1.01603E-08
   9.66360E-09  9.41090E-09  9.39262E-09  8.96822E-09  8.59841E-09  8.53937E-09  8.51739E-09  8.49714E-09  8.47255E-09  8.44278E-09
   8.40777E-09  8.36813E-09  8.32420E-09  8.27640E-09  8.22503E-09  8.17037E-09  8.11263E-09  8.05201E-09  7.98870E-09  7.92281E-09
   7.85447E-09  7.78381E-09  7.71091E-09  7.63587E-09  7.55876E-09  7.47967E-09  7.39866E-09  7.31580E-09  7.23118E-09  7.14481E-09
   7.05681E-09  6.96719E-09  6.87602E-09  6.78340E-09  6.68931E-09  6.59383E-09  6.49703E-09  6.39900E-09  6.29971E-09  6.19931E-09
   6.09784E-09  5.99531E-09  5.89183E-09  5.78752E-09  5.68237E-09  5.57651E-09  5.47008E-09  5.36319E-09  5.25596E-09  5.14868E-09
   5.04153E-09  4.93502E-09  4.82977E-09  4.72696E-09  4.62896E-09  4.54195E-09  4.48944E-09  4.49343E-09  4.50812E-09  4.51825E-09
   4.47851E-09  4.39323E-09  4.27680E-09  4.16209E-09  4.06591E-09  3.98598E-09  3.82919E-09  3.44890E-09  2.94541E-09  2.76045E-09
   2.62760E-09  2.50636E-09  2.38887E-09  2.27291E-09  2.15766E-09  2.04286E-09  1.92840E-09  1.81424E-09  1.70039E-09  1.58688E-09
   1.47370E-09  1.36093E-09  1.24855E-09  1.13664E-09  1.02519E-09  9.14233E-10  8.03820E-10  6.93969E-10  5.84693E-10  4.76040E-10
   3.68028E-10  2.60658E-10  1.53976E-10  4.80135E-11 -5.72280E-11 -1.61716E-10 -2.65438E-10 -3.68331E-10 -4.70428E-10 -5.71691E-10
  -6.72097E-10 -7.71609E-10 -8.70226E-10 -9.67914E-10 -1.06469E-09 -1.16051E-09 -1.25534E-09 -1.34918E-09 -1.44203E-09 -1.53384E-09
  -1.62460E-09 -1.71430E-09 -1.80293E-09 -1.89047E-09 -1.97693E-09 -2.06223E-09 -2.14642E-09 -2.22946E-09 -2.31131E-09 -2.39200E-09
  -2.47149E-09 -2.54978E-09 -2.62684E-09 -2.70269E-09 -2.77728E-09 -2.85062E-09 -2.92269E-09 -2.99350E-09 -3.06301E-09 -3.13122E-09
  -3.19813E-09 -3.26372E-09 -3.32798E-09 -3.39092E-09 -3.45258E-09 -3.51298E-09 -3.57214E-09 -3.63008E-09 -3.68684E-09 -3.74244E-09
  -3.79690E-09 -3.85025E-09 -3.90251E-09 -3.95371E-09 -4.00387E-09 -4.05302E-09 -4.10119E-09 -4.14840E-09 -4.19467E-09 -4.24003E-09
  -4.28449E-09 -4.32810E-09 -4.37086E-09 -4.41281E-09 -4.45397E-09 -4.49435E-09 -4.53398E-09 -4.57289E-09 -4.61110E-09 -4.64863E-09
  -4.68550E-09 -4.72172E-09 -4.75734E-09 -4.79235E-09 -4.82679E-09 -4.86067E-09 -4.89401E-09 -4.92684E-09 -4.95916E-09 -4.99100E-09
  -5.02238E-09 -5.05332E-09 -5.08381E-09 -5.11390E-09 -5.14358E-09 -5.17288E-09 -5.20181E-09 -5.23038E-09 -5.25862E-09 -5.28652E-09
  -5.31410E-09 -5.34137E-09 -5.36835E-09 -5.39505E-09 -5.42147E-09 -5.44763E-09 -5.47353E-09 -5.49917E-09 -5.52457E-09 -5.54974E-09
  -5.57468E-09 -5.59939E-09 -5.62387E-09 -5.64813E-09 -5.67211E-09 -5.69579E-09 -5.71913E-09 -5.74209E-09 -5.76463E-09 -5.78672E-09
  -5.80834E-09 -5.82943E-09 -5.84996E-09 -5.86991E-09 -5.88923E-09 -5.90790E-09 -5.92588E-09 -5.94314E-09 -5.95964E-09 -5.97535E-09
  -5.99025E-09 -6.00429E-09 -6.01746E-09 -6.02971E-09 -6.04102E-09 -6.05136E-09 -6.06070E-09 -6.06902E-09 -6.07628E-09 -6.08245E-09
  -6.08751E-09 -6.09144E-09 -6.09420E-09 -6.09577E-09 -6.09613E-09 -6.09525E-09 -6.09310E-09 -6.08968E-09 -6.08494E-09 -6.07887E-09
  -6.07145E-09 -6.06266E-09 -6.05247E-09 -6.04087E-09 -6.02783E-09 -6.01335E-09 -5.99739E-09 -5.97995E-09 -5.96100E-09 -5.94053E-09
  -5.91853E-09 -5.89498E-09 -5.86986E-09 -5.84317E-09 -5.81488E-09 -5.78500E-09 -5.75350E-09 -5.72037E-09 -5.68561E-09 -5.64921E-09
  -5.61115E-09 -5.57144E-09 -5.53005E-09
 Asp      Conc. = 4.19E-09
   3.47240E-09  2.52663E-09  1.96043E-09  1.86400E-09  1.77263E-09  1.51336E-09  1.59662E-09  1.39225E-09  1.91357E-09  2.41555E-09
   2.84738E-09  3.22569E-09  3.56753E-09  3.88451E-09  4.17650E-09  4.44278E-09  4.69530E-09  4.93719E-09  5.17054E-09  5.39703E-09
   5.61805E-09  5.83481E-09  6.04841E-09  6.25987E-09  6.47015E-09  6.68024E-09  6.89115E-09  7.10401E-09  7.32008E-09  7.54082E-09
   7.76804E-09  8.00394E-09  8.25146E-09  8.51457E-09  8.79883E-09  9.11252E-09  9.46636E-09  9.83024E-09  1.01783E-08  1.04424E-08
   1.06278E-08  1.07820E-08  1.10105E-08  1.14336E-08  1.19336E-08  1.25601E-08  1.27475E-08  1.25625E-08  1.22022E-08  1.20095E-08
   1.20832E-08  1.22423E-08  1.19790E-08  1.10666E-08  9.47840E-09  8.17929E-09  6.56666E-09  7.34370E-09  7.91419E-09  7.45997E-09
   6.85396E-09  7.04619E-09  7.04504E-09  7.05314E-09  7.53442E-09  7.74234E-09  7.38184E-09  7.30135E-09  7.38655E-09  7.50489E-09
   7.62772E-09  7.74693E-09  7.86001E-09  7.96625E-09  8.06570E-09  8.15866E-09  8.24544E-09  8.32651E-09  8.40213E-09  8.47272E-09
   8.53853E-09  8.59984E-09  8.65689E-09  8.70992E-09  8.75910E-09  8.80456E-09  8.84652E-09  8.88505E-09  8.92030E-09  8.95238E-09
   8.98136E-09  9.00737E-09  9.03045E-09  9.05067E-09  9.06810E-09  9.08280E-09  9.09482E-09  9.10420E-09  9.11098E-09  9.11524E-09
   9.11695E-09  9.11617E-09  9.11295E-09  9.10728E-09  9.09922E-09  9.08877E-09  9.07593E-09  9.06077E-09  9.04330E-09  9.02351E-09
   9.00144E-09  8.97705E-09  8.95043E-09  8.92151E-09  8.89037E-09  8.85699E-09  8.82141E-09  8.78361E-09  8.74360E-09  8.70148E-09
   8.65705E-09  8.61049E-09  8.56177E-09  8.51094E-09  8.45803E-09  8.40310E-09  8.34615E-09  8.28724E-09  8.22644E-09  8.16376E-09
   8.09926E-09  8.03300E-09  7.96499E-09  7.89532E-09  7.82401E-09  7.75114E-09  7.67674E-09  7.60088E-09  7.52364E-09  7.44506E-09
   7.36523E-09  7.28420E-09  7.20205E-09  7.11893E-09  7.03482E-09  6.94987E-09  6.86421E-09  6.77796E-09  6.69122E-09  6.60421E-09
   6.51709E-09  6.43000E-09  6.34327E-09  6.25721E-09  6.17209E-09  6.08840E-09  6.00675E-09  5.92782E-09  5.85256E-09  5.78236E-09
   5.71898E-09  5.66525E-09  5.62534E-09  5.60638E-09  5.62127E-09  5.69744E-09  5.90858E-09  6.53830E-09  7.68752E-09  8.95295E-09
   1.01062E-08  1.07506E-08  1.09317E-08  1.08319E-08  1.07648E-08  1.09049E-08  1.11300E-08  1.03861E-08  7.25611E-09  3.56894E-09
   2.80487E-09  2.53097E-09  2.37301E-09  2.25230E-09  2.14546E-09  2.04407E-09  1.94468E-09  1.84581E-09  1.74683E-09  1.64749E-09
   1.54771E-09  1.44751E-09  1.34695E-09  1.24612E-09  1.14509E-09  1.04392E-09  9.42732E-10  8.41583E-10  7.40531E-10  6.39666E-10
   5.39039E-10  4.38686E-10  3.38682E-10  2.39082E-10  1.39911E-10  4.12224E-11 -5.69511E-11 -1.54531E-10 -2.51531E-10 -3.47904E-10
  -4.43614E-10 -5.38610E-10 -6.32881E-10 -7.26383E-10 -8.19127E-10 -9.11053E-10 -1.00213E-09 -1.09235E-09 -1.18170E-09 -1.27013E-09
  -1.35763E-09 -1.44417E-09 -1.52974E-09 -1.61433E-09 -1.69793E-09 -1.78045E-09 -1.86196E-09 -1.94241E-09 -2.02175E-09 -2.10000E-09
  -2.17714E-09 -2.25314E-09 -2.32799E-09 -2.40170E-09 -2.47422E-09 -2.54555E-09 -2.61568E-09 -2.68461E-09 -2.75230E-09 -2.81875E-09
