 LCModel (Version 6.3-1R) Copyright: S.W. Provencher.          Ref.: Magn. Reson. Med. 30:672-679 (1993).                
 onepulse 15x8_ftSpec_smooth_lcm
 26 lines in following concentration table = NCONC+1
    Conc.  %SD /Cr+PCr  Metabolite                                         
 2.96E-10 102%   1.054 Ala                                                 
 8.55E-10  84%   3.042 Asp                                                 
 2.81E-10 138%   1.000 Cr                                                  
 1.21E-09  54%   4.299 GABA                                                
    0.000 999%   0.000 Glc                                                 
 1.60E-09  52%   5.708 Gln                                                 
    0.000 999%   0.000 Glu                                                 
    0.000 999%   0.000 Glyc                                                
    0.000 999%   0.000 GPC                                                 
 2.98E-10 179%   1.061 GSH                                                 
 1.91E-09  24%   6.781 Ins                                                 
    0.000 999%   0.000 Lac                                                 
    0.000 999%   0.000 NAAG                                                
 8.16E-10  38%   2.903 NAA                                                 
    0.000 999%   0.000 PCh                                                 
    0.000 999%   0.000 PCr                                                 
 1.76E-09  52%   6.259 PE                                                  
 1.18E-10 256%   0.420 Scyllo                                              
 1.88E-09  39%   6.690 Ser                                                 
 5.97E-10 172%   2.124 Tau                                                 
    0.000 999%   0.000 GPC+PCh                                             
 8.16E-10  38%   2.903 NAA+NAAG                                            
 1.91E-09  24%   6.781 Ins+Glyc                                            
 2.81E-10 138%   1.000 Cr+PCr                                              
 1.60E-09  52%   5.708 Glu+Gln                                             
   6 lines in following misc. output table
  FWHM = 0.123 ppm    S/N =   3                                            
  Data shift = 0.414 ppm                                                   
  Ph:  46 deg     -27.1 deg/ppm                                            
  alphaB,S = 4.7E-01,   1.5E+01                                            
   11 spline knots.   Ns = 5(1)                                            
  (10) 6 infls.   ( 9) 3 extrs.                                            
  363 points on ppm-axis = NY
      4.250000     4.238821     4.227641     4.216462     4.205282     4.194103     4.182923     4.171744     4.160564     4.149385
      4.138206     4.127026     4.115847     4.104667     4.093488     4.082308     4.071129     4.059949     4.048770     4.037591
      4.026411     4.015232     4.004052     3.992873     3.981693     3.970514     3.959334     3.948155     3.936975     3.925796
      3.914617     3.903437     3.892258     3.881078     3.869899     3.858719     3.847540     3.836360     3.825181     3.814002
      3.802822     3.791643     3.780463     3.769284     3.758104     3.746925     3.735745     3.724566     3.713387     3.702207
      3.691028     3.679848     3.668669     3.657489     3.646310     3.635130     3.623951     3.612772     3.601592     3.590413
      3.579233     3.568054     3.556874     3.545695     3.534515     3.523336     3.512156     3.500977     3.489798     3.478618
      3.467439     3.456259     3.445080     3.433900     3.422721     3.411541     3.400362     3.389183     3.378003     3.366824
      3.355644     3.344465     3.333285     3.322106     3.310926     3.299747     3.288568     3.277388     3.266209     3.255029
      3.243850     3.232670     3.221491     3.210311     3.199132     3.187953     3.176773     3.165594     3.154414     3.143235
      3.132055     3.120876     3.109696     3.098517     3.087337     3.076158     3.064979     3.053799     3.042620     3.031440
      3.020261     3.009081     2.997902     2.986722     2.975543     2.964364     2.953184     2.942005     2.930825     2.919646
      2.908466     2.897287     2.886107     2.874928     2.863749     2.852569     2.841390     2.830210     2.819031     2.807851
      2.796672     2.785492     2.774313     2.763134     2.751954     2.740775     2.729595     2.718416     2.707236     2.696057
      2.684877     2.673698     2.662519     2.651339     2.640160     2.628980     2.617801     2.606621     2.595442     2.584262
      2.573083     2.561903     2.550724     2.539545     2.528365     2.517186     2.506006     2.494827     2.483647     2.472468
      2.461288     2.450109     2.438930     2.427750     2.416571     2.405391     2.394212     2.383032     2.371853     2.360673
      2.349494     2.338315     2.327135     2.315956     2.304776     2.293597     2.282417     2.271238     2.260058     2.248879
      2.237700     2.226520     2.215341     2.204161     2.192982     2.181802     2.170623     2.159443     2.148264     2.137084
      2.125905     2.114726     2.103546     2.092367     2.081187     2.070008     2.058828     2.047649     2.036469     2.025290
      2.014111     2.002931     1.991752     1.980572     1.969393     1.958213     1.947034     1.935854     1.924675     1.913496
      1.902316     1.891137     1.879957     1.868778     1.857598     1.846419     1.835239     1.824060     1.812881     1.801701
      1.790522     1.779342     1.768163     1.756983     1.745804     1.734624     1.723445     1.712265     1.701086     1.689907
      1.678727     1.667548     1.656368     1.645189     1.634009     1.622830     1.611650     1.600471     1.589292     1.578112
      1.566933     1.555753     1.544574     1.533394     1.522215     1.511035     1.499856     1.488677     1.477497     1.466318
      1.455138     1.443959     1.432779     1.421600     1.410420     1.399241     1.388062     1.376882     1.365703     1.354523
      1.343344     1.332164     1.320985     1.309805     1.298626     1.287446     1.276267     1.265088     1.253908     1.242729
      1.231549     1.220370     1.209190     1.198011     1.186831     1.175652     1.164473     1.153293     1.142114     1.130934
      1.119755     1.108575     1.097396     1.086216     1.075037     1.063858     1.052678     1.041499     1.030319     1.019140
      1.007960     0.996781     0.985601     0.974422     0.963243     0.952063     0.940884     0.929704     0.918525     0.907345
      0.896166     0.884986     0.873807     0.862628     0.851448     0.840269     0.829089     0.817910     0.806730     0.795551
      0.784371     0.773192     0.762012     0.750833     0.739654     0.728474     0.717295     0.706115     0.694936     0.683756
      0.672577     0.661397     0.650218     0.639039     0.627859     0.616680     0.605500     0.594321     0.583141     0.571962
      0.560782     0.549603     0.538424     0.527244     0.516065     0.504885     0.493706     0.482526     0.471347     0.460167
      0.448988     0.437809     0.426629     0.415450     0.404270     0.393091     0.381911     0.370732     0.359552     0.348373
      0.337193     0.326014     0.314835     0.303655     0.292476     0.281296     0.270117     0.258937     0.247758     0.236578
      0.225399     0.214220     0.203040
 NY phased data points follow
   4.30691E-09  3.46177E-09  3.63793E-09  2.37657E-09  3.12480E-09  1.89309E-09  2.90446E-09  1.79729E-09  2.70265E-09  2.80847E-09
   4.17107E-09  3.92384E-09  4.30621E-09  4.13078E-09  5.03327E-09  4.65924E-09  4.90622E-09  3.93734E-09  3.51978E-09  3.46339E-09
   5.01840E-09  5.18609E-09  5.87976E-09  4.77414E-09  4.05202E-09  2.48347E-09  4.15639E-09  4.68572E-09  7.18449E-09  7.15229E-09
   8.48251E-09  7.55990E-09  7.89730E-09  7.05861E-09  7.99567E-09  6.69473E-09  7.26086E-09  7.31444E-09  7.57763E-09  6.98561E-09
   7.68788E-09  6.96883E-09  7.02225E-09  6.24378E-09  6.86490E-09  5.60165E-09  6.12494E-09  5.95031E-09  6.68739E-09  5.62116E-09
   5.65492E-09  4.38486E-09  4.37413E-09  3.30156E-09  3.79418E-09  2.47792E-09  2.60547E-09  1.65744E-09  4.04894E-09  5.51247E-09
   7.83655E-09  7.72977E-09  8.40187E-09  7.81836E-09  8.25353E-09  7.28863E-09  7.93799E-09  6.60517E-09  7.04297E-09  5.25917E-09
   5.86760E-09  2.91634E-09  1.74885E-09 -6.01182E-10  1.90817E-09  5.52245E-09  8.16041E-09  8.69197E-09  9.57526E-09  1.01751E-08
   1.10743E-08  1.05869E-08  1.05722E-08  1.03890E-08  1.11659E-08  1.11329E-08  1.06801E-08  1.14100E-08  1.13003E-08  1.09638E-08
   1.17115E-08  1.07967E-08  1.08187E-08  1.06972E-08  1.00887E-08  9.14543E-09  9.30914E-09  9.72247E-09  9.78447E-09  8.97245E-09
   9.40993E-09  9.34285E-09  9.95705E-09  9.48952E-09  8.52990E-09  8.41839E-09  8.11551E-09  7.05460E-09  7.36331E-09  7.52042E-09
   7.18796E-09  7.02494E-09  7.48744E-09  7.39748E-09  7.09427E-09  7.21752E-09  8.04771E-09  8.22960E-09  7.76913E-09  7.43353E-09
   7.28150E-09  5.88311E-09  5.85937E-09  5.91437E-09  6.14770E-09  4.93252E-09  5.28185E-09  5.12556E-09  6.31622E-09  6.00690E-09
   6.18344E-09  5.87702E-09  5.55344E-09  4.81592E-09  4.96699E-09  6.36348E-09  7.46197E-09  7.47422E-09  7.54881E-09  6.84140E-09
   8.34454E-09  8.54779E-09  9.15445E-09  8.91353E-09  9.61674E-09  9.56030E-09  1.07966E-08  9.97277E-09  9.91765E-09  9.58355E-09
   1.03940E-08  1.00206E-08  1.06797E-08  1.03644E-08  1.10026E-08  1.02876E-08  1.06551E-08  1.03266E-08  1.10799E-08  1.07428E-08
   1.09385E-08  1.04726E-08  1.09677E-08  8.71503E-09  5.95153E-09  7.76310E-09  1.37074E-08  1.82447E-08  2.09460E-08  2.12340E-08
   2.22515E-08  2.31852E-08  2.33040E-08  2.31493E-08  2.29331E-08  2.30119E-08  2.25960E-08  2.11701E-08  2.09409E-08  1.92050E-08
   1.76436E-08  1.54000E-08  1.33018E-08  1.04322E-08  7.93296E-09  4.76684E-09  1.68015E-09 -1.28901E-09 -3.01890E-09 -5.81982E-09
  -7.17849E-09 -9.31136E-09 -9.88509E-09 -1.01695E-08 -1.00343E-08 -9.66482E-09 -8.22281E-09 -8.45037E-09 -6.74269E-09 -5.87929E-09
  -4.11685E-09 -4.05625E-09 -2.64329E-09 -2.87739E-09 -1.90381E-09 -2.43438E-09 -1.54875E-09 -3.00069E-09 -2.11854E-09 -3.09632E-09
  -1.78544E-09 -2.43887E-09 -1.86441E-09 -2.58776E-09 -1.76261E-09 -2.05169E-09 -1.56085E-09 -1.93267E-09 -1.58957E-09 -1.99991E-09
  -1.40457E-09 -2.06599E-09 -2.04121E-09 -2.39306E-09 -1.74214E-09 -1.73854E-09 -1.21840E-09 -1.77482E-09 -1.47237E-09 -2.25334E-09
  -1.36643E-09 -2.26175E-09 -1.26658E-09 -1.70055E-09 -2.01171E-09 -2.71537E-09 -2.19066E-09 -2.94954E-09 -2.15123E-09 -2.59076E-09
  -2.25913E-09 -2.52722E-09 -1.79717E-09 -1.81457E-09 -1.41890E-09 -2.09429E-09 -1.27905E-09 -2.13419E-09 -1.68302E-09 -2.50172E-09
  -1.75377E-09 -2.48703E-09 -2.19196E-09 -2.81084E-09 -2.00571E-09 -2.71479E-09 -2.55736E-09 -3.39102E-09 -3.07406E-09 -3.53246E-09
  -3.19827E-09 -4.02661E-09 -3.45278E-09 -3.67473E-09 -3.18320E-09 -3.55129E-09 -3.01301E-09 -3.73221E-09 -2.39361E-09 -1.82185E-09
  -2.16560E-09 -2.36375E-09 -1.27395E-09 -1.88427E-09 -1.53735E-09 -1.82616E-09 -1.53354E-09 -1.36031E-09 -1.42177E-09 -1.55343E-09
  -1.76285E-09 -1.38544E-09 -1.73527E-09 -1.96667E-09 -1.94695E-09 -2.23672E-09 -1.99164E-09 -2.48845E-09 -2.54401E-09 -2.84841E-09
  -2.43042E-09 -2.64758E-09 -2.55335E-09 -2.64495E-09 -3.02888E-09 -3.59777E-09 -3.14821E-09 -3.31406E-09 -3.36662E-09 -3.59466E-09
  -3.58519E-09 -3.89729E-09 -3.65885E-09 -4.47316E-09 -4.09338E-09 -4.23266E-09 -4.34668E-09 -4.43456E-09 -4.14952E-09 -5.01328E-09
  -4.17845E-09 -4.43141E-09 -4.52371E-09 -4.57873E-09 -4.93482E-09 -4.95816E-09 -4.62727E-09 -5.19131E-09 -5.06262E-09 -5.15318E-09
  -5.09093E-09 -4.93414E-09 -4.89260E-09 -5.59028E-09 -5.01082E-09 -5.33411E-09 -5.80287E-09 -5.29271E-09 -5.61539E-09 -5.56992E-09
  -5.80842E-09 -5.28539E-09 -5.81878E-09 -5.75006E-09 -6.06494E-09 -5.40025E-09 -6.00322E-09 -6.33249E-09 -6.29188E-09 -6.03148E-09
  -6.35205E-09 -6.00315E-09 -6.68170E-09 -6.06544E-09 -5.97091E-09 -5.92946E-09 -6.64594E-09 -5.83149E-09 -6.28060E-09 -5.85057E-09
  -6.43072E-09 -6.03548E-09 -6.36684E-09 -6.29683E-09 -6.27025E-09 -6.44826E-09 -6.75817E-09 -5.80682E-09 -6.54632E-09 -6.25093E-09
  -6.35282E-09 -5.75057E-09 -6.16789E-09
 NY points of the fit to the data follow
   4.76976E-09  5.24554E-09  4.56855E-09  3.36783E-09  2.51077E-09  2.80666E-09  2.71486E-09  1.76730E-09  1.68174E-09  2.83342E-09
   3.48963E-09  3.45390E-09  3.50380E-09  3.76732E-09  4.64864E-09  5.17985E-09  4.59983E-09  4.90138E-09  6.17140E-09  5.80818E-09
   4.26376E-09  3.31580E-09  3.74330E-09  4.14814E-09  4.36300E-09  4.63872E-09  5.50280E-09  6.17582E-09  6.57074E-09  6.55373E-09
   7.08469E-09  7.52499E-09  8.27607E-09  8.31045E-09  8.31960E-09  8.05495E-09  7.85539E-09  7.44328E-09  7.30266E-09  7.19388E-09
   6.97253E-09  6.96954E-09  7.12380E-09  6.24726E-09  5.48746E-09  5.41111E-09  5.23009E-09  4.60659E-09  4.15573E-09  3.97100E-09
   3.93083E-09  4.04335E-09  4.27250E-09  4.41830E-09  4.46414E-09  4.74039E-09  4.56692E-09  4.90173E-09  5.79594E-09  6.30984E-09
   6.38775E-09  6.63556E-09  7.14354E-09  7.36167E-09  7.47920E-09  7.89500E-09  7.95148E-09  7.94969E-09  7.72122E-09  7.12518E-09
   6.92750E-09  7.07130E-09  6.99516E-09  6.52867E-09  6.73636E-09  7.03100E-09  6.58861E-09  7.95793E-09  9.61389E-09  1.03240E-08
   1.08852E-08  1.13842E-08  1.15553E-08  1.18612E-08  1.22801E-08  1.23352E-08  1.26905E-08  1.30321E-08  1.12631E-08  9.98604E-09
   9.41837E-09  8.97657E-09  8.92870E-09  8.87768E-09  8.39262E-09  8.27171E-09  8.30296E-09  7.95380E-09  7.74729E-09  7.73359E-09
   7.86885E-09  7.84679E-09  7.74701E-09  7.94660E-09  8.12963E-09  8.20064E-09  8.23578E-09  8.29220E-09  8.37396E-09  8.44150E-09
   8.35053E-09  8.01336E-09  8.06439E-09  8.09306E-09  7.75097E-09  7.59005E-09  7.50668E-09  7.45564E-09  7.42117E-09  7.39625E-09
   7.37713E-09  7.36163E-09  7.34831E-09  7.33614E-09  7.32437E-09  7.31244E-09  7.29990E-09  7.28632E-09  7.27143E-09  7.25493E-09
   7.23657E-09  7.21612E-09  7.19341E-09  7.16824E-09  7.14046E-09  7.10989E-09  7.07640E-09  7.03988E-09  7.00034E-09  6.95782E-09
   6.91233E-09  6.86392E-09  6.81265E-09  6.75855E-09  6.70169E-09  6.64215E-09  6.58002E-09  6.51540E-09  6.44842E-09  6.37921E-09
   6.30796E-09  6.23487E-09  6.16020E-09  6.08430E-09  6.00760E-09  5.93070E-09  5.85441E-09  5.77988E-09  5.70883E-09  5.64388E-09
   5.58937E-09  5.55271E-09  5.54794E-09  5.60453E-09  5.79519E-09  6.34962E-09  8.36105E-09  1.63567E-08  2.09610E-08  2.18829E-08
   2.22175E-08  2.28327E-08  2.30894E-08  2.28623E-08  2.26930E-08  2.32605E-08  2.40257E-08  2.09970E-08  1.00174E-08  6.15141E-09
   4.88456E-09  4.24274E-09  3.82908E-09  3.52174E-09  3.27197E-09  3.05671E-09  2.86371E-09  2.68589E-09  2.51894E-09  2.36004E-09
   2.20734E-09  2.05953E-09  1.91574E-09  1.77528E-09  1.63771E-09  1.50266E-09  1.36990E-09  1.23924E-09  1.11055E-09  9.83715E-10
   8.58695E-10  7.35445E-10  6.13937E-10  4.94176E-10  3.76159E-10  2.59891E-10  1.45405E-10  3.27278E-11 -7.81085E-11 -1.87060E-10
  -2.94087E-10 -3.99144E-10 -5.02199E-10 -6.03204E-10 -7.02076E-10 -7.98793E-10 -8.93295E-10 -9.85538E-10 -1.07546E-09 -1.16299E-09
  -1.24812E-09 -1.33074E-09 -1.41083E-09 -1.48834E-09 -1.56322E-09 -1.63537E-09 -1.70480E-09 -1.77145E-09 -1.83533E-09 -1.89657E-09
  -1.95525E-09 -2.01146E-09 -2.06529E-09 -2.11683E-09 -2.16618E-09 -2.21342E-09 -2.25865E-09 -2.30195E-09 -2.34341E-09 -2.38311E-09
  -2.42116E-09 -2.45763E-09 -2.49261E-09 -2.52619E-09 -2.55845E-09 -2.58947E-09 -2.61935E-09 -2.64816E-09 -2.67599E-09 -2.70292E-09
  -2.72903E-09 -2.75441E-09 -2.77913E-09 -2.80327E-09 -2.82691E-09 -2.85013E-09 -2.87301E-09 -2.89563E-09 -2.91804E-09 -2.94035E-09
  -2.96260E-09 -2.98489E-09 -3.00727E-09 -3.02983E-09 -3.05262E-09 -3.07572E-09 -3.09920E-09 -3.12313E-09 -3.14755E-09 -3.17255E-09
  -3.19819E-09 -3.22452E-09 -3.25160E-09 -3.27946E-09 -3.30806E-09 -3.33738E-09 -3.36740E-09 -3.39807E-09 -3.42938E-09 -3.46130E-09
  -3.49381E-09 -3.52686E-09 -3.56045E-09 -3.59453E-09 -3.62909E-09 -3.66408E-09 -3.69950E-09 -3.73531E-09 -3.77147E-09 -3.80798E-09
  -3.84479E-09 -3.88188E-09 -3.91922E-09 -3.95679E-09 -3.99457E-09 -4.03251E-09 -4.07060E-09 -4.10881E-09 -4.14711E-09 -4.18548E-09
  -4.22388E-09 -4.26230E-09 -4.30071E-09 -4.33908E-09 -4.37739E-09 -4.41560E-09 -4.45370E-09 -4.49166E-09 -4.52945E-09 -4.56705E-09
  -4.60444E-09 -4.64157E-09 -4.67845E-09 -4.71504E-09 -4.75131E-09 -4.78724E-09 -4.82281E-09 -4.85798E-09 -4.89275E-09 -4.92708E-09
  -4.96096E-09 -4.99435E-09 -5.02723E-09 -5.05957E-09 -5.09136E-09 -5.12257E-09 -5.15317E-09 -5.18315E-09 -5.21248E-09 -5.24113E-09
  -5.26909E-09 -5.29633E-09 -5.32284E-09 -5.34859E-09 -5.37356E-09 -5.39773E-09 -5.42108E-09 -5.44359E-09 -5.46525E-09 -5.48602E-09
  -5.50590E-09 -5.52487E-09 -5.54290E-09 -5.55998E-09 -5.57610E-09 -5.59123E-09 -5.60536E-09 -5.61848E-09 -5.63057E-09 -5.64160E-09
  -5.65157E-09 -5.66047E-09 -5.66828E-09 -5.67498E-09 -5.68056E-09 -5.68502E-09 -5.68833E-09 -5.69049E-09 -5.69148E-09 -5.69129E-09
  -5.68991E-09 -5.68734E-09 -5.68355E-09
 NY background values follow
    -3.289E-09   -3.261E-09   -3.230E-09   -3.199E-09   -3.166E-09   -3.133E-09   -3.098E-09   -3.061E-09   -3.024E-09   -2.985E-09
    -2.945E-09   -2.904E-09   -2.862E-09   -2.818E-09   -2.774E-09   -2.728E-09   -2.681E-09   -2.633E-09   -2.584E-09   -2.533E-09
    -2.482E-09   -2.429E-09   -2.375E-09   -2.321E-09   -2.265E-09   -2.208E-09   -2.150E-09   -2.091E-09   -2.031E-09   -1.969E-09
    -1.907E-09   -1.844E-09   -1.780E-09   -1.714E-09   -1.648E-09   -1.581E-09   -1.513E-09   -1.444E-09   -1.374E-09   -1.302E-09
    -1.230E-09   -1.158E-09   -1.084E-09   -1.009E-09   -9.333E-10   -8.568E-10   -7.795E-10   -7.012E-10   -6.222E-10   -5.423E-10
    -4.616E-10   -3.802E-10   -2.980E-10   -2.151E-10   -1.315E-10   -4.716E-11    3.779E-11    1.234E-10    2.096E-10    2.963E-10
     3.837E-10    4.716E-10    5.600E-10    6.489E-10    7.382E-10    8.280E-10    9.182E-10    1.009E-09    1.100E-09    1.191E-09
     1.283E-09    1.375E-09    1.467E-09    1.559E-09    1.652E-09    1.745E-09    1.837E-09    1.930E-09    2.024E-09    2.117E-09
     2.210E-09    2.303E-09    2.397E-09    2.490E-09    2.583E-09    2.676E-09    2.769E-09    2.862E-09    2.955E-09    3.047E-09
     3.139E-09    3.231E-09    3.323E-09    3.414E-09    3.505E-09    3.595E-09    3.684E-09    3.773E-09    3.861E-09    3.948E-09
     4.035E-09    4.120E-09    4.204E-09    4.287E-09    4.368E-09    4.449E-09    4.528E-09    4.605E-09    4.681E-09    4.755E-09
     4.827E-09    4.898E-09    4.966E-09    5.033E-09    5.097E-09    5.159E-09    5.219E-09    5.277E-09    5.332E-09    5.385E-09
     5.435E-09    5.482E-09    5.527E-09    5.568E-09    5.607E-09    5.643E-09    5.675E-09    5.704E-09    5.730E-09    5.753E-09
     5.772E-09    5.788E-09    5.800E-09    5.808E-09    5.813E-09    5.813E-09    5.810E-09    5.802E-09    5.791E-09    5.776E-09
     5.757E-09    5.734E-09    5.707E-09    5.677E-09    5.643E-09    5.606E-09    5.565E-09    5.521E-09    5.474E-09    5.424E-09
     5.370E-09    5.313E-09    5.253E-09    5.191E-09    5.125E-09    5.057E-09    4.986E-09    4.912E-09    4.836E-09    4.757E-09
     4.676E-09    4.593E-09    4.507E-09    4.419E-09    4.330E-09    4.238E-09    4.144E-09    4.049E-09    3.952E-09    3.853E-09
     3.753E-09    3.651E-09    3.548E-09    3.443E-09    3.338E-09    3.231E-09    3.123E-09    3.014E-09    2.905E-09    2.795E-09
     2.684E-09    2.572E-09    2.460E-09    2.347E-09    2.234E-09    2.121E-09    2.008E-09    1.895E-09    1.781E-09    1.668E-09
     1.554E-09    1.441E-09    1.328E-09    1.216E-09    1.104E-09    9.919E-10    8.808E-10    7.704E-10    6.607E-10    5.517E-10
     4.437E-10    3.365E-10    2.304E-10    1.254E-10    2.150E-11   -8.115E-11   -1.825E-10   -2.825E-10   -3.810E-10   -4.780E-10
    -5.735E-10   -6.673E-10   -7.593E-10   -8.496E-10   -9.380E-10   -1.025E-09   -1.109E-09   -1.191E-09   -1.272E-09   -1.350E-09
    -1.426E-09   -1.499E-09   -1.571E-09   -1.639E-09   -1.706E-09   -1.769E-09   -1.831E-09   -1.889E-09   -1.945E-09   -1.998E-09
    -2.049E-09   -2.098E-09   -2.144E-09   -2.188E-09   -2.230E-09   -2.270E-09   -2.308E-09   -2.344E-09   -2.379E-09   -2.411E-09
    -2.443E-09   -2.472E-09   -2.501E-09   -2.528E-09   -2.553E-09   -2.578E-09   -2.602E-09   -2.624E-09   -2.646E-09   -2.667E-09
    -2.687E-09   -2.706E-09   -2.725E-09   -2.743E-09   -2.761E-09   -2.778E-09   -2.795E-09   -2.812E-09   -2.829E-09   -2.846E-09
    -2.863E-09   -2.880E-09   -2.897E-09   -2.914E-09   -2.932E-09   -2.949E-09   -2.968E-09   -2.987E-09   -3.006E-09   -3.026E-09
    -3.047E-09   -3.068E-09   -3.090E-09   -3.113E-09   -3.137E-09   -3.162E-09   -3.187E-09   -3.213E-09   -3.240E-09   -3.267E-09
    -3.295E-09   -3.323E-09   -3.353E-09   -3.382E-09   -3.412E-09   -3.443E-09   -3.474E-09   -3.506E-09   -3.538E-09   -3.570E-09
    -3.603E-09   -3.636E-09   -3.669E-09   -3.702E-09   -3.736E-09   -3.770E-09   -3.804E-09   -3.838E-09   -3.873E-09   -3.907E-09
    -3.942E-09   -3.977E-09   -4.011E-09   -4.046E-09   -4.080E-09   -4.115E-09   -4.149E-09   -4.184E-09   -4.218E-09   -4.252E-09
    -4.286E-09   -4.319E-09   -4.353E-09   -4.386E-09   -4.419E-09   -4.451E-09   -4.484E-09   -4.515E-09   -4.547E-09   -4.578E-09
    -4.608E-09   -4.639E-09   -4.668E-09   -4.697E-09   -4.726E-09   -4.754E-09   -4.782E-09   -4.808E-09   -4.835E-09   -4.860E-09
    -4.885E-09   -4.909E-09   -4.933E-09   -4.956E-09   -4.978E-09   -4.999E-09   -5.020E-09   -5.039E-09   -5.058E-09   -5.076E-09
    -5.093E-09   -5.109E-09   -5.125E-09   -5.139E-09   -5.152E-09   -5.165E-09   -5.176E-09   -5.187E-09   -5.196E-09   -5.204E-09
    -5.212E-09   -5.218E-09   -5.223E-09   -5.228E-09   -5.231E-09   -5.233E-09   -5.233E-09   -5.233E-09   -5.232E-09   -5.229E-09
    -5.225E-09   -5.220E-09   -5.214E-09
 Ala      Conc. = 2.96E-10
  -3.32046E-09 -3.24398E-09 -3.19566E-09 -3.13682E-09 -3.07889E-09 -3.03236E-09 -2.95060E-09 -2.89348E-09 -2.90960E-09 -2.84230E-09
  -2.76481E-09 -2.77932E-09 -2.75295E-09 -2.70395E-09 -2.67924E-09 -2.65037E-09 -2.61667E-09 -2.57919E-09 -2.53868E-09 -2.49564E-09
  -2.45043E-09 -2.40327E-09 -2.35433E-09 -2.30377E-09 -2.25168E-09 -2.19814E-09 -2.14323E-09 -2.08699E-09 -2.02949E-09 -1.97074E-09
  -1.91079E-09 -1.84968E-09 -1.78742E-09 -1.72405E-09 -1.65958E-09 -1.59405E-09 -1.52746E-09 -1.45983E-09 -1.39120E-09 -1.32157E-09
  -1.25093E-09 -1.17937E-09 -1.10684E-09 -1.03335E-09 -9.58963E-10 -8.83662E-10 -8.07525E-10 -7.30468E-10 -6.52564E-10 -5.73834E-10
  -4.94308E-10 -4.14005E-10 -3.32950E-10 -2.51176E-10 -1.68692E-10 -8.55379E-11 -1.73342E-12  8.26974E-11  1.67724E-10  2.53327E-10
   3.39473E-10  4.26140E-10  5.13297E-10  6.00920E-10  6.88981E-10  7.77453E-10  8.66304E-10  9.55505E-10  1.04503E-09  1.13484E-09
   1.22492E-09  1.31522E-09  1.40573E-09  1.49639E-09  1.58720E-09  1.67810E-09  1.76906E-09  1.86004E-09  1.95102E-09  2.04195E-09
   2.13278E-09  2.22349E-09  2.31402E-09  2.40432E-09  2.49436E-09  2.58408E-09  2.67341E-09  2.76231E-09  2.85071E-09  2.93854E-09
   3.02574E-09  3.11226E-09  3.19800E-09  3.28290E-09  3.36697E-09  3.45044E-09  3.53407E-09  3.62036E-09  3.71836E-09  3.87381E-09
   4.25017E-09  4.44244E-09  4.52229E-09  4.87636E-09  5.19486E-09  5.38671E-09  5.53123E-09  5.68756E-09  5.86122E-09  6.01378E-09
   6.00160E-09  5.73826E-09  5.85869E-09  5.95284E-09  5.67276E-09  5.57061E-09  5.54295E-09  5.54497E-09  5.56117E-09  5.58471E-09
   5.61205E-09  5.64112E-09  5.67062E-09  5.69965E-09  5.72757E-09  5.75392E-09  5.77831E-09  5.80045E-09  5.82009E-09  5.83702E-09
   5.85105E-09  5.86201E-09  5.86975E-09  5.87413E-09  5.87504E-09  5.87232E-09  5.86589E-09  5.85567E-09  5.84170E-09  5.82401E-09
   5.80264E-09  5.77765E-09  5.74908E-09  5.71700E-09  5.68145E-09  5.64250E-09  5.60021E-09  5.55464E-09  5.50586E-09  5.45393E-09
   5.39894E-09  5.34093E-09  5.28000E-09  5.21621E-09  5.14965E-09  5.08041E-09  5.00858E-09  4.93425E-09  4.85754E-09  4.77859E-09
   4.69761E-09  4.61483E-09  4.53073E-09  4.44620E-09  4.36347E-09  4.28990E-09  4.26433E-09  4.38466E-09  4.39167E-09  4.31131E-09
   4.22298E-09  4.14029E-09  4.04516E-09  3.93731E-09  3.83247E-09  3.74653E-09  3.65640E-09  3.44847E-09  3.05850E-09  2.87437E-09
   2.73763E-09  2.61330E-09  2.49357E-09  2.37593E-09  2.25935E-09  2.14337E-09  2.02779E-09  1.91247E-09  1.79742E-09  1.68261E-09
   1.56810E-09  1.45389E-09  1.34007E-09  1.22666E-09  1.11375E-09  1.00138E-09  8.89633E-10  7.78570E-10  6.68265E-10  5.58776E-10
   4.50185E-10  3.42561E-10  2.35968E-10  1.30488E-10  2.61852E-11 -7.68808E-11 -1.78627E-10 -2.78987E-10 -3.77892E-10 -4.75267E-10
  -5.71044E-10 -6.65155E-10 -7.57544E-10 -8.48145E-10 -9.36859E-10 -1.02365E-09 -1.10844E-09 -1.19117E-09 -1.27177E-09 -1.35017E-09
  -1.42634E-09 -1.50017E-09 -1.57162E-09 -1.64065E-09 -1.70718E-09 -1.77112E-09 -1.83247E-09 -1.89116E-09 -1.94722E-09 -2.00075E-09
  -2.05183E-09 -2.10055E-09 -2.14699E-09 -2.19126E-09 -2.23342E-09 -2.27357E-09 -2.31180E-09 -2.34820E-09 -2.38284E-09 -2.41581E-09
  -2.44720E-09 -2.47711E-09 -2.50559E-09 -2.53275E-09 -2.55867E-09 -2.58343E-09 -2.60711E-09 -2.62980E-09 -2.65157E-09 -2.67250E-09
  -2.69269E-09 -2.71220E-09 -2.73112E-09 -2.74952E-09 -2.76748E-09 -2.78508E-09 -2.80239E-09 -2.81950E-09 -2.83646E-09 -2.85337E-09
  -2.87028E-09 -2.88727E-09 -2.90441E-09 -2.92178E-09 -2.93943E-09 -2.95744E-09 -2.97588E-09 -2.99481E-09 -3.01428E-09 -3.03438E-09
  -3.05515E-09 -3.07667E-09 -3.09898E-09 -3.12211E-09 -3.14603E-09 -3.17071E-09 -3.19612E-09 -3.22223E-09 -3.24902E-09 -3.27646E-09
  -3.30453E-09 -3.33318E-09 -3.36239E-09 -3.39215E-09 -3.42241E-09 -3.45315E-09 -3.48435E-09 -3.51597E-09 -3.54799E-09 -3.58038E-09
  -3.61311E-09 -3.64615E-09 -3.67948E-09 -3.71308E-09 -3.74690E-09 -3.78093E-09 -3.81513E-09 -3.84949E-09 -3.88397E-09 -3.91855E-09
  -3.95320E-09 -3.98789E-09 -4.02260E-09 -4.05730E-09 -4.09197E-09 -4.12657E-09 -4.16108E-09 -4.19549E-09 -4.22975E-09 -4.26386E-09
  -4.29777E-09 -4.33146E-09 -4.36492E-09 -4.39812E-09 -4.43102E-09 -4.46361E-09 -4.49587E-09 -4.52776E-09 -4.55926E-09 -4.59036E-09
  -4.62103E-09 -4.65123E-09 -4.68095E-09 -4.71015E-09 -4.73883E-09 -4.76694E-09 -4.79448E-09 -4.82142E-09 -4.84772E-09 -4.87338E-09
  -4.89837E-09 -4.92266E-09 -4.94624E-09 -4.96908E-09 -4.99117E-09 -5.01247E-09 -5.03298E-09 -5.05268E-09 -5.07153E-09 -5.08954E-09
  -5.10666E-09 -5.12289E-09 -5.13821E-09 -5.15260E-09 -5.16604E-09 -5.17853E-09 -5.19003E-09 -5.20053E-09 -5.21003E-09 -5.21849E-09
  -5.22591E-09 -5.23228E-09 -5.23757E-09 -5.24178E-09 -5.24489E-09 -5.24689E-09 -5.24776E-09 -5.24751E-09 -5.24610E-09 -5.24353E-09
  -5.23980E-09 -5.23488E-09 -5.22877E-09
 Asp      Conc. = 8.55E-10
  -2.67191E-09 -2.59212E-09 -2.60225E-09 -2.59291E-09 -2.55853E-09 -2.59125E-09 -2.56118E-09 -2.65947E-09 -2.71618E-09 -2.74434E-09
  -2.75531E-09 -2.75521E-09 -2.74739E-09 -2.73243E-09 -2.71134E-09 -2.68669E-09 -2.65895E-09 -2.62849E-09 -2.59565E-09 -2.56069E-09
  -2.52385E-09 -2.48533E-09 -2.44528E-09 -2.40385E-09 -2.36120E-09 -2.31742E-09 -2.27265E-09 -2.22700E-09 -2.18058E-09 -2.13348E-09
  -2.08577E-09 -2.03749E-09 -1.98852E-09 -1.93844E-09 -1.88572E-09 -1.82436E-09 -1.72274E-09 -1.61597E-09 -1.48196E-09 -1.38692E-09
  -1.33456E-09 -1.29788E-09 -1.24266E-09 -1.05646E-09 -8.65050E-10 -4.53767E-10 -1.72908E-10 -9.61138E-11  5.80169E-11  2.40492E-10
   4.32400E-10  6.53421E-10  9.35796E-10  1.15793E-09  1.18252E-09  1.24068E-09  1.00328E-09  1.04604E-09  1.19719E-09  1.19046E-09
   1.15747E-09  1.19582E-09  1.20297E-09  1.20454E-09  1.29726E-09  1.43089E-09  1.45152E-09  1.48305E-09  1.52902E-09  1.58444E-09
   1.64639E-09  1.71313E-09  1.78357E-09  1.85693E-09  1.93267E-09  2.01038E-09  2.08972E-09  2.17044E-09  2.25235E-09  2.33526E-09
   2.41902E-09  2.50352E-09  2.58863E-09  2.67426E-09  2.76033E-09  2.84676E-09  2.93346E-09  3.02037E-09  3.10744E-09  3.19460E-09
   3.28180E-09  3.36899E-09  3.45610E-09  3.54303E-09  3.62968E-09  3.71597E-09  3.80181E-09  3.88711E-09  3.97177E-09  4.05570E-09
   4.13882E-09  4.22104E-09  4.30226E-09  4.38241E-09  4.46140E-09  4.53913E-09  4.61551E-09  4.69047E-09  4.76390E-09  4.83573E-09
   4.90587E-09  4.97422E-09  5.04070E-09  5.10523E-09  5.16771E-09  5.22806E-09  5.28619E-09  5.34200E-09  5.39543E-09  5.44637E-09
   5.49474E-09  5.54045E-09  5.58342E-09  5.62355E-09  5.66076E-09  5.69497E-09  5.72609E-09  5.75403E-09  5.77870E-09  5.80002E-09
   5.81791E-09  5.83227E-09  5.84303E-09  5.85010E-09  5.85339E-09  5.85282E-09  5.84831E-09  5.83982E-09  5.82739E-09  5.81110E-09
   5.79100E-09  5.76716E-09  5.73964E-09  5.70850E-09  5.67382E-09  5.63566E-09  5.59409E-09  5.54920E-09  5.50104E-09  5.44971E-09
   5.39527E-09  5.33781E-09  5.27743E-09  5.21420E-09  5.14823E-09  5.07963E-09  5.00854E-09  4.93510E-09  4.85951E-09  4.78202E-09
   4.70305E-09  4.62320E-09  4.54363E-09  4.46673E-09  4.39850E-09  4.35876E-09  4.44921E-09  4.97959E-09  5.19600E-09  5.15508E-09
   5.08929E-09  5.04352E-09  4.96537E-09  4.85175E-09  4.74703E-09  4.69896E-09  4.64910E-09  4.27583E-09  3.34634E-09  3.01094E-09
   2.82413E-09  2.67598E-09  2.54250E-09  2.41597E-09  2.29317E-09  2.17261E-09  2.05351E-09  1.93541E-09  1.81809E-09  1.70141E-09
   1.58531E-09  1.46974E-09  1.35474E-09  1.24030E-09  1.12647E-09  1.01328E-09  9.00792E-10  7.89056E-10  6.78135E-10  5.68081E-10
   4.58966E-10  3.50854E-10  2.43806E-10  1.37899E-10  3.31934E-11 -7.02533E-11 -1.72361E-10 -2.73064E-10 -3.72297E-10 -4.69985E-10
  -5.66063E-10 -6.60463E-10 -7.53130E-10 -8.43999E-10 -9.32972E-10 -1.02001E-09 -1.10504E-09 -1.18802E-09 -1.26885E-09 -1.34747E-09
  -1.42386E-09 -1.49790E-09 -1.56956E-09 -1.63879E-09 -1.70552E-09 -1.76965E-09 -1.83120E-09 -1.89008E-09 -1.94632E-09 -2.00003E-09
  -2.05129E-09 -2.10018E-09 -2.14680E-09 -2.19123E-09 -2.23356E-09 -2.27388E-09 -2.31227E-09 -2.34883E-09 -2.38363E-09 -2.41675E-09
