 LCModel (Version 6.3-1R) Copyright: S.W. Provencher.          Ref.: Magn. Reson. Med. 30:672-679 (1993).                
 onepulse 15x9_ftSpec_smooth_lcm
 26 lines in following concentration table = NCONC+1
    Conc.  %SD /Cr+PCr  Metabolite                                         
 6.17E-11 506%   0.360 Ala                                                 
 7.43E-10 109%   4.331 Asp                                                 
    0.000 999%   0.000 Cr                                                  
 3.72E-10 213%   2.167 GABA                                                
 1.80E-10 583%   1.051 Glc                                                 
 2.50E-09  33%  14.587 Gln                                                 
    0.000 999%   0.000 Glu                                                 
 2.90E-09  23%  16.889 Glyc                                                
    0.000 999%   0.000 GPC                                                 
 1.31E-09  46%   7.667 GSH                                                 
    0.000 999%   0.000 Ins                                                 
    0.000 999%   0.000 Lac                                                 
 3.16E-10 111%   1.842 NAAG                                                
 1.61E-10 320%   0.938 NAA                                                 
    0.000 999%   0.000 PCh                                                 
 1.72E-10 253%   1.000 PCr                                                 
 3.97E-09  19%  23.140 PE                                                  
 2.29E-10 107%   1.336 Scyllo                                              
 8.25E-11 999%   0.481 Ser                                                 
    0.000 999%   0.000 Tau                                                 
    0.000 999%   0.000 GPC+PCh                                             
 4.77E-10  74%   2.779 NAA+NAAG                                            
 2.90E-09  23%  16.889 Ins+Glyc                                            
 1.72E-10 253%   1.000 Cr+PCr                                              
 2.50E-09  33%  14.587 Glu+Gln                                             
   6 lines in following misc. output table
  FWHM = 0.123 ppm    S/N =   3                                            
  Data shift = 0.425 ppm                                                   
  Ph:   2 deg     -46.2 deg/ppm                                            
  alphaB,S = 5.4E-01,   4.0E+00                                            
   11 spline knots.   Ns = 5(1)                                            
  (10) 8 infls.   (11) 7 extrs.                                            
  363 points on ppm-axis = NY
      4.250000     4.238821     4.227641     4.216462     4.205282     4.194103     4.182923     4.171744     4.160564     4.149385
      4.138206     4.127026     4.115847     4.104667     4.093488     4.082308     4.071129     4.059949     4.048770     4.037591
      4.026411     4.015232     4.004052     3.992873     3.981693     3.970514     3.959334     3.948155     3.936975     3.925796
      3.914617     3.903437     3.892258     3.881078     3.869899     3.858719     3.847540     3.836360     3.825181     3.814002
      3.802822     3.791643     3.780463     3.769284     3.758104     3.746925     3.735745     3.724566     3.713387     3.702207
      3.691028     3.679848     3.668669     3.657489     3.646310     3.635130     3.623951     3.612772     3.601592     3.590413
      3.579233     3.568054     3.556874     3.545695     3.534515     3.523336     3.512156     3.500977     3.489798     3.478618
      3.467439     3.456259     3.445080     3.433900     3.422721     3.411541     3.400362     3.389183     3.378003     3.366824
      3.355644     3.344465     3.333285     3.322106     3.310926     3.299747     3.288568     3.277388     3.266209     3.255029
      3.243850     3.232670     3.221491     3.210311     3.199132     3.187953     3.176773     3.165594     3.154414     3.143235
      3.132055     3.120876     3.109696     3.098517     3.087337     3.076158     3.064979     3.053799     3.042620     3.031440
      3.020261     3.009081     2.997902     2.986722     2.975543     2.964364     2.953184     2.942005     2.930825     2.919646
      2.908466     2.897287     2.886107     2.874928     2.863749     2.852569     2.841390     2.830210     2.819031     2.807851
      2.796672     2.785492     2.774313     2.763134     2.751954     2.740775     2.729595     2.718416     2.707236     2.696057
      2.684877     2.673698     2.662519     2.651339     2.640160     2.628980     2.617801     2.606621     2.595442     2.584262
      2.573083     2.561903     2.550724     2.539545     2.528365     2.517186     2.506006     2.494827     2.483647     2.472468
      2.461288     2.450109     2.438930     2.427750     2.416571     2.405391     2.394212     2.383032     2.371853     2.360673
      2.349494     2.338315     2.327135     2.315956     2.304776     2.293597     2.282417     2.271238     2.260058     2.248879
      2.237700     2.226520     2.215341     2.204161     2.192982     2.181802     2.170623     2.159443     2.148264     2.137084
      2.125905     2.114726     2.103546     2.092367     2.081187     2.070008     2.058828     2.047649     2.036469     2.025290
      2.014111     2.002931     1.991752     1.980572     1.969393     1.958213     1.947034     1.935854     1.924675     1.913496
      1.902316     1.891137     1.879957     1.868778     1.857598     1.846419     1.835239     1.824060     1.812881     1.801701
      1.790522     1.779342     1.768163     1.756983     1.745804     1.734624     1.723445     1.712265     1.701086     1.689907
      1.678727     1.667548     1.656368     1.645189     1.634009     1.622830     1.611650     1.600471     1.589292     1.578112
      1.566933     1.555753     1.544574     1.533394     1.522215     1.511035     1.499856     1.488677     1.477497     1.466318
      1.455138     1.443959     1.432779     1.421600     1.410420     1.399241     1.388062     1.376882     1.365703     1.354523
      1.343344     1.332164     1.320985     1.309805     1.298626     1.287446     1.276267     1.265088     1.253908     1.242729
      1.231549     1.220370     1.209190     1.198011     1.186831     1.175652     1.164473     1.153293     1.142114     1.130934
      1.119755     1.108575     1.097396     1.086216     1.075037     1.063858     1.052678     1.041499     1.030319     1.019140
      1.007960     0.996781     0.985601     0.974422     0.963243     0.952063     0.940884     0.929704     0.918525     0.907345
      0.896166     0.884986     0.873807     0.862628     0.851448     0.840269     0.829089     0.817910     0.806730     0.795551
      0.784371     0.773192     0.762012     0.750833     0.739654     0.728474     0.717295     0.706115     0.694936     0.683756
      0.672577     0.661397     0.650218     0.639039     0.627859     0.616680     0.605500     0.594321     0.583141     0.571962
      0.560782     0.549603     0.538424     0.527244     0.516065     0.504885     0.493706     0.482526     0.471347     0.460167
      0.448988     0.437809     0.426629     0.415450     0.404270     0.393091     0.381911     0.370732     0.359552     0.348373
      0.337193     0.326014     0.314835     0.303655     0.292476     0.281296     0.270117     0.258937     0.247758     0.236578
      0.225399     0.214220     0.203040
 NY phased data points follow
   1.37620E-08  1.30592E-08  1.34320E-08  1.34402E-08  1.39256E-08  1.43334E-08  1.41274E-08  1.52429E-08  1.55424E-08  1.55088E-08
   1.49585E-08  1.49850E-08  1.47909E-08  1.45764E-08  1.41547E-08  1.37047E-08  1.36062E-08  1.35212E-08  1.50687E-08  1.54457E-08
   1.48758E-08  1.39045E-08  1.32132E-08  1.26141E-08  1.42606E-08  1.58846E-08  1.68581E-08  1.71598E-08  1.65049E-08  1.56215E-08
   1.43622E-08  1.37081E-08  1.35669E-08  1.34552E-08  1.25410E-08  1.33032E-08  1.28950E-08  1.22714E-08  1.23008E-08  1.20748E-08
   1.13094E-08  1.10303E-08  1.10171E-08  1.07199E-08  1.04003E-08  1.07894E-08  1.10112E-08  1.05823E-08  9.80620E-09  9.38511E-09
   8.64963E-09  8.93086E-09  9.12502E-09  9.42846E-09  9.28572E-09  1.00202E-08  1.15559E-08  1.47722E-08  1.59057E-08  1.60274E-08
   1.45155E-08  1.41329E-08  1.29939E-08  1.25508E-08  1.17949E-08  1.16348E-08  1.04139E-08  1.02233E-08  8.97248E-09  9.35723E-09
   6.74056E-09  7.54046E-09  7.96730E-09  1.40600E-08  1.68604E-08  1.80916E-08  1.67774E-08  1.71493E-08  1.65444E-08  1.66597E-08
   1.52128E-08  1.52212E-08  1.47075E-08  1.53939E-08  1.43852E-08  1.41512E-08  1.44840E-08  1.36866E-08  1.34522E-08  1.34363E-08
   1.20660E-08  1.23666E-08  1.16779E-08  1.09608E-08  1.03100E-08  1.08611E-08  1.12757E-08  1.08026E-08  1.00968E-08  1.04683E-08
   1.04961E-08  1.06894E-08  9.73299E-09  8.85036E-09  8.89024E-09  8.06181E-09  7.50995E-09  8.27458E-09  8.53977E-09  8.08063E-09
   8.30256E-09  8.64590E-09  8.49029E-09  8.29108E-09  8.72185E-09  9.40242E-09  9.11461E-09  8.41980E-09  8.15996E-09  7.62183E-09
   6.13617E-09  6.72062E-09  7.00630E-09  6.78796E-09  6.03652E-09  6.73309E-09  6.83385E-09  7.55515E-09  7.13287E-09  7.41299E-09
   7.11031E-09  6.68083E-09  5.69569E-09  6.71460E-09  8.33367E-09  9.08258E-09  8.93124E-09  8.68971E-09  8.33599E-09  9.69250E-09
   1.01410E-08  1.03796E-08  1.02763E-08  1.06844E-08  1.05298E-08  1.15787E-08  1.05138E-08  1.04012E-08  1.01050E-08  1.07724E-08
   1.05399E-08  1.06820E-08  1.07515E-08  1.09164E-08  1.04310E-08  1.03446E-08  1.04419E-08  1.08456E-08  1.03921E-08  1.03374E-08
   9.75614E-09  1.03496E-08  7.87878E-09  4.64336E-09  7.41182E-09  1.43043E-08  1.91971E-08  2.15638E-08  2.17765E-08  2.24656E-08
   2.37019E-08  2.34834E-08  2.35584E-08  2.32080E-08  2.36947E-08  2.32763E-08  2.25193E-08  2.24367E-08  2.11403E-08  2.00025E-08
   1.83260E-08  1.63641E-08  1.40921E-08  1.16927E-08  9.04954E-09  5.78246E-09  3.00031E-09  9.51044E-10 -1.70543E-09 -3.71353E-09
  -6.26344E-09 -7.50067E-09 -8.25828E-09 -8.87744E-09 -9.15024E-09 -8.15661E-09 -8.53615E-09 -7.34045E-09 -6.31398E-09 -4.99479E-09
  -4.46356E-09 -3.19670E-09 -2.53295E-09 -1.79032E-09 -1.96079E-09 -8.23571E-10 -2.09168E-09 -1.39645E-09 -2.06538E-09 -1.41440E-09
  -1.48088E-09 -1.67179E-09 -1.54423E-09 -1.55536E-09 -1.29697E-09 -1.03405E-09 -7.89921E-10 -8.83677E-10 -8.56835E-10 -7.20780E-10
  -5.98796E-10 -1.43515E-09 -1.44406E-09 -1.34234E-09 -1.04121E-09 -7.14784E-10 -6.08795E-10 -5.73738E-10 -1.12344E-09 -6.68007E-10
  -7.42277E-10 -7.29099E-10  1.35423E-11 -7.53094E-10 -1.24958E-09 -1.31669E-09 -1.59256E-09 -1.56346E-09 -1.41228E-09 -1.73795E-09
  -1.43997E-09 -1.23795E-09 -7.96196E-10 -5.81425E-10 -8.30256E-10 -5.42328E-10 -4.51057E-10 -4.41123E-10 -6.48395E-10 -6.08023E-10
  -3.31696E-10 -6.96742E-10 -7.16554E-10 -6.34955E-10 -3.90333E-10 -9.60351E-10 -9.28516E-10 -1.49698E-09 -1.43326E-09 -1.61760E-09
  -1.85606E-09 -2.30732E-09 -2.18704E-09 -2.40790E-09 -2.16748E-09 -2.56581E-09 -2.51155E-09 -2.92284E-09 -1.28369E-09 -1.70312E-09
  -1.41244E-09 -1.34230E-09 -7.36160E-10 -1.08575E-09 -3.06722E-10 -1.10417E-09  8.86174E-11 -4.94917E-10  3.90316E-10 -5.08532E-10
   5.48506E-10  1.37880E-10  3.68481E-10 -7.54488E-11  5.47008E-10  1.48818E-10  6.31077E-10 -1.77723E-10  2.71306E-10 -9.08530E-11
   5.71022E-10  1.15542E-10  8.01473E-10  3.41054E-10  1.51905E-10 -2.87022E-10  2.67889E-10  7.99834E-11  3.37472E-10 -8.04343E-11
   9.42586E-11  1.65299E-11 -3.09306E-11 -6.18376E-10 -6.36364E-11 -6.12130E-10 -3.57468E-10 -4.21012E-10 -3.08988E-10 -1.08993E-09
  -2.99016E-11 -8.41074E-10 -1.18989E-10 -7.50158E-10 -5.83702E-10 -7.86577E-10 -2.02044E-10 -1.23629E-09 -6.09615E-10 -1.26445E-09
  -6.09329E-10 -8.48031E-10 -4.35939E-10 -1.51787E-09 -1.56855E-11 -1.33646E-09 -5.98349E-10 -1.21702E-09 -7.18514E-10 -1.48781E-09
  -6.30030E-10 -1.18638E-09 -8.70081E-10 -1.44237E-09 -7.43708E-10 -1.03154E-09 -9.97240E-10 -1.70242E-09 -9.72629E-10 -1.68066E-09
  -1.18525E-09 -1.71760E-09 -1.83614E-09 -1.88667E-09 -1.06653E-09 -1.90994E-09 -1.74522E-09 -1.70797E-09 -1.59645E-09 -1.54744E-09
  -1.60428E-09 -1.48774E-09 -1.67910E-09 -1.80260E-09 -1.37719E-09 -2.03659E-09 -1.89602E-09 -1.66710E-09 -2.30366E-09 -2.08846E-09
  -2.27813E-09 -1.47001E-09 -1.98438E-09
 NY points of the fit to the data follow
   1.58801E-08  1.46420E-08  1.49715E-08  1.34380E-08  1.28876E-08  1.28157E-08  1.27940E-08  1.27095E-08  1.61707E-08  1.84345E-08
   1.51919E-08  1.42496E-08  1.47399E-08  1.41891E-08  1.37182E-08  1.37045E-08  1.40162E-08  1.43680E-08  1.62741E-08  1.74300E-08
   1.25861E-08  1.24831E-08  1.28880E-08  1.43415E-08  1.48120E-08  1.61359E-08  1.59913E-08  1.66440E-08  1.67750E-08  1.55009E-08
   1.55831E-08  1.53183E-08  1.44869E-08  1.41522E-08  1.29653E-08  1.26619E-08  1.19089E-08  1.15072E-08  1.12848E-08  1.13406E-08
   1.10653E-08  1.12337E-08  1.13494E-08  1.08240E-08  1.11026E-08  9.82640E-09  1.01012E-08  9.39902E-09  9.14363E-09  9.02797E-09
   9.46330E-09  9.76665E-09  1.00132E-08  1.08824E-08  1.15764E-08  1.22638E-08  1.21665E-08  1.28266E-08  1.44392E-08  1.40659E-08
   1.41308E-08  1.46047E-08  1.39760E-08  1.40846E-08  1.40248E-08  1.37066E-08  1.24982E-08  1.21063E-08  1.26499E-08  1.16732E-08
   1.09173E-08  1.17718E-08  1.25615E-08  1.20928E-08  1.27999E-08  1.47777E-08  1.51039E-08  1.58203E-08  1.62844E-08  1.69115E-08
   1.65384E-08  1.61987E-08  1.67927E-08  1.54104E-08  1.46407E-08  1.53029E-08  1.37757E-08  1.26490E-08  1.15028E-08  1.06973E-08
   1.02504E-08  9.86080E-09  9.73194E-09  9.72994E-09  9.38887E-09  9.30298E-09  9.33531E-09  9.13220E-09  9.07924E-09  9.06826E-09
   9.05508E-09  8.96738E-09  8.97041E-09  9.03140E-09  8.98467E-09  8.97143E-09  8.97102E-09  8.96584E-09  8.94183E-09  8.93345E-09
   8.96211E-09  8.81317E-09  8.79987E-09  8.85090E-09  8.74108E-09  8.69680E-09  8.67059E-09  8.64960E-09  8.63013E-09  8.61073E-09
   8.59065E-09  8.56950E-09  8.54701E-09  8.52296E-09  8.49721E-09  8.46963E-09  8.44014E-09  8.40862E-09  8.37501E-09  8.33923E-09
   8.30123E-09  8.26094E-09  8.21832E-09  8.17332E-09  8.12589E-09  8.07599E-09  8.02360E-09  7.96871E-09  7.91141E-09  7.85179E-09
   7.78995E-09  7.72601E-09  7.66009E-09  7.59229E-09  7.52278E-09  7.45170E-09  7.37925E-09  7.30562E-09  7.23106E-09  7.15584E-09
   7.08031E-09  7.00486E-09  6.93002E-09  6.85642E-09  6.78491E-09  6.71664E-09  6.65313E-09  6.59660E-09  6.55029E-09  6.51921E-09
   6.51164E-09  6.54196E-09  6.63816E-09  6.86209E-09  7.38118E-09  8.82483E-09  1.44872E-08  2.21012E-08  2.19629E-08  2.24585E-08
   2.39495E-08  2.41198E-08  2.35850E-08  2.34046E-08  2.33384E-08  2.21096E-08  2.33864E-08  2.38334E-08  1.30218E-08  6.84125E-09
   5.17238E-09  4.44597E-09  4.02071E-09  3.72378E-09  3.49189E-09  3.29699E-09  3.12497E-09  2.96800E-09  2.82152E-09  2.68262E-09
   2.54947E-09  2.42080E-09  2.29579E-09  2.17382E-09  2.05448E-09  1.93747E-09  1.82258E-09  1.70966E-09  1.59860E-09  1.48933E-09
   1.38182E-09  1.27603E-09  1.17195E-09  1.06960E-09  9.68988E-10  8.70118E-10  7.73032E-10  6.77765E-10  5.84342E-10  4.92816E-10
   4.03231E-10  3.15627E-10  2.30036E-10  1.46512E-10  6.51375E-11 -1.40688E-11 -9.10448E-11 -1.65749E-10 -2.38110E-10 -3.08066E-10
  -3.75602E-10 -4.40616E-10 -5.03069E-10 -5.62928E-10 -6.20124E-10 -6.74553E-10 -7.26237E-10 -7.75090E-10 -8.21127E-10 -8.64430E-10
  -9.05067E-10 -9.43101E-10 -9.78605E-10 -1.01165E-09 -1.04229E-09 -1.07061E-09 -1.09666E-09 -1.12052E-09 -1.14226E-09 -1.16193E-09
  -1.17961E-09 -1.19538E-09 -1.20928E-09 -1.22139E-09 -1.23177E-09 -1.24050E-09 -1.24764E-09 -1.25326E-09 -1.25742E-09 -1.26019E-09
  -1.26164E-09 -1.26183E-09 -1.26084E-09 -1.25872E-09 -1.25555E-09 -1.25139E-09 -1.24631E-09 -1.24037E-09 -1.23364E-09 -1.22620E-09
  -1.21809E-09 -1.20940E-09 -1.20018E-09 -1.19052E-09 -1.18046E-09 -1.17008E-09 -1.15944E-09 -1.14862E-09 -1.13766E-09 -1.12666E-09
  -1.11566E-09 -1.10474E-09 -1.09396E-09 -1.08336E-09 -1.07295E-09 -1.06273E-09 -1.05273E-09 -1.04294E-09 -1.03337E-09 -1.02404E-09
  -1.01495E-09 -1.00611E-09 -9.97540E-10 -9.89235E-10 -9.81210E-10 -9.73467E-10 -9.66026E-10 -9.58887E-10 -9.52063E-10 -9.45563E-10
  -9.39394E-10 -9.33564E-10 -9.28085E-10 -9.22968E-10 -9.18217E-10 -9.13838E-10 -9.09848E-10 -9.06254E-10 -9.03061E-10 -9.00280E-10
  -8.97919E-10 -8.95988E-10 -8.94493E-10 -8.93446E-10 -8.92855E-10 -8.92732E-10 -8.93076E-10 -8.93910E-10 -8.95227E-10 -8.97053E-10
  -8.99384E-10 -9.02229E-10 -9.05600E-10 -9.09518E-10 -9.13972E-10 -9.18976E-10 -9.24549E-10 -9.30678E-10 -9.37388E-10 -9.44655E-10
  -9.52467E-10 -9.60803E-10 -9.69646E-10 -9.78985E-10 -9.88806E-10 -9.99085E-10 -1.00981E-09 -1.02097E-09 -1.03255E-09 -1.04452E-09
  -1.05688E-09 -1.06960E-09 -1.08268E-09 -1.09610E-09 -1.10984E-09 -1.12388E-09 -1.13821E-09 -1.15281E-09 -1.16768E-09 -1.18278E-09
  -1.19812E-09 -1.21366E-09 -1.22940E-09 -1.24531E-09 -1.26139E-09 -1.27763E-09 -1.29399E-09 -1.31047E-09 -1.32705E-09 -1.34372E-09
  -1.36045E-09 -1.37724E-09 -1.39407E-09 -1.41092E-09 -1.42778E-09 -1.44463E-09 -1.46145E-09 -1.47824E-09 -1.49497E-09 -1.51163E-09
  -1.52820E-09 -1.54467E-09 -1.56102E-09
 NY background values follow
     8.910E-10    9.641E-10    1.037E-09    1.110E-09    1.183E-09    1.256E-09    1.329E-09    1.402E-09    1.475E-09    1.548E-09
     1.620E-09    1.693E-09    1.766E-09    1.839E-09    1.911E-09    1.984E-09    2.056E-09    2.129E-09    2.201E-09    2.273E-09
     2.345E-09    2.417E-09    2.490E-09    2.562E-09    2.633E-09    2.705E-09    2.777E-09    2.848E-09    2.920E-09    2.991E-09
     3.063E-09    3.134E-09    3.205E-09    3.276E-09    3.347E-09    3.417E-09    3.488E-09    3.558E-09    3.629E-09    3.699E-09
     3.769E-09    3.839E-09    3.908E-09    3.978E-09    4.047E-09    4.117E-09    4.186E-09    4.255E-09    4.323E-09    4.392E-09
     4.460E-09    4.528E-09    4.596E-09    4.663E-09    4.730E-09    4.797E-09    4.863E-09    4.929E-09    4.995E-09    5.060E-09
     5.125E-09    5.189E-09    5.253E-09    5.316E-09    5.379E-09    5.441E-09    5.503E-09    5.564E-09    5.625E-09    5.685E-09
     5.744E-09    5.802E-09    5.860E-09    5.917E-09    5.974E-09    6.030E-09    6.085E-09    6.139E-09    6.192E-09    6.245E-09
     6.296E-09    6.347E-09    6.397E-09    6.446E-09    6.494E-09    6.541E-09    6.587E-09    6.632E-09    6.677E-09    6.720E-09
     6.762E-09    6.803E-09    6.843E-09    6.881E-09    6.919E-09    6.955E-09    6.990E-09    7.024E-09    7.056E-09    7.087E-09
     7.117E-09    7.145E-09    7.172E-09    7.197E-09    7.220E-09    7.242E-09    7.262E-09    7.280E-09    7.296E-09    7.311E-09
     7.324E-09    7.335E-09    7.344E-09    7.351E-09    7.356E-09    7.359E-09    7.359E-09    7.358E-09    7.354E-09    7.348E-09
     7.340E-09    7.330E-09    7.317E-09    7.302E-09    7.284E-09    7.264E-09    7.241E-09    7.216E-09    7.188E-09    7.157E-09
     7.124E-09    7.088E-09    7.049E-09    7.007E-09    6.963E-09    6.915E-09    6.865E-09    6.811E-09    6.755E-09    6.696E-09
     6.634E-09    6.569E-09    6.502E-09    6.432E-09    6.360E-09    6.285E-09    6.208E-09    6.129E-09    6.047E-09    5.963E-09
     5.877E-09    5.790E-09    5.700E-09    5.608E-09    5.515E-09    5.420E-09    5.323E-09    5.224E-09    5.125E-09    5.023E-09
     4.920E-09    4.816E-09    4.711E-09    4.604E-09    4.497E-09    4.388E-09    4.279E-09    4.168E-09    4.057E-09    3.945E-09
     3.832E-09    3.718E-09    3.604E-09    3.490E-09    3.375E-09    3.260E-09    3.144E-09    3.029E-09    2.913E-09    2.797E-09
     2.681E-09    2.565E-09    2.450E-09    2.334E-09    2.219E-09    2.104E-09    1.989E-09    1.875E-09    1.762E-09    1.649E-09
     1.536E-09    1.424E-09    1.313E-09    1.203E-09    1.094E-09    9.853E-10    8.778E-10    7.713E-10    6.660E-10    5.617E-10
     4.587E-10    3.570E-10    2.566E-10    1.576E-10    6.001E-11   -3.606E-11   -1.305E-10   -2.234E-10   -3.146E-10   -4.040E-10
    -4.917E-10   -5.774E-10   -6.612E-10   -7.431E-10   -8.229E-10   -9.006E-10   -9.762E-10   -1.050E-09   -1.121E-09   -1.189E-09
    -1.256E-09   -1.319E-09   -1.381E-09   -1.439E-09   -1.496E-09   -1.549E-09   -1.600E-09   -1.648E-09   -1.693E-09   -1.735E-09
    -1.775E-09   -1.812E-09   -1.847E-09   -1.879E-09   -1.909E-09   -1.936E-09   -1.961E-09   -1.984E-09   -2.005E-09   -2.024E-09
    -2.041E-09   -2.056E-09   -2.069E-09   -2.081E-09   -2.090E-09   -2.099E-09   -2.105E-09   -2.110E-09   -2.113E-09   -2.116E-09
    -2.116E-09   -2.116E-09   -2.114E-09   -2.112E-09   -2.108E-09   -2.103E-09   -2.097E-09   -2.091E-09   -2.083E-09   -2.075E-09
    -2.067E-09   -2.057E-09   -2.048E-09   -2.037E-09   -2.027E-09   -2.016E-09   -2.005E-09   -1.993E-09   -1.982E-09   -1.970E-09
    -1.959E-09   -1.947E-09   -1.936E-09   -1.925E-09   -1.914E-09   -1.903E-09   -1.893E-09   -1.882E-09   -1.872E-09   -1.862E-09
    -1.853E-09   -1.844E-09   -1.835E-09   -1.826E-09   -1.817E-09   -1.809E-09   -1.801E-09   -1.793E-09   -1.786E-09   -1.779E-09
    -1.773E-09   -1.766E-09   -1.760E-09   -1.755E-09   -1.750E-09   -1.745E-09   -1.740E-09   -1.736E-09   -1.733E-09   -1.729E-09
    -1.727E-09   -1.724E-09   -1.722E-09   -1.721E-09   -1.720E-09   -1.719E-09   -1.719E-09   -1.720E-09   -1.720E-09   -1.722E-09
    -1.724E-09   -1.726E-09   -1.729E-09   -1.733E-09   -1.737E-09   -1.741E-09   -1.746E-09   -1.752E-09   -1.758E-09   -1.765E-09
    -1.773E-09   -1.781E-09   -1.789E-09   -1.798E-09   -1.807E-09   -1.817E-09   -1.828E-09   -1.838E-09   -1.849E-09   -1.861E-09
    -1.873E-09   -1.885E-09   -1.898E-09   -1.911E-09   -1.924E-09   -1.938E-09   -1.952E-09   -1.966E-09   -1.981E-09   -1.995E-09
    -2.010E-09   -2.025E-09   -2.041E-09   -2.056E-09   -2.072E-09   -2.088E-09   -2.104E-09   -2.120E-09   -2.136E-09   -2.152E-09
    -2.169E-09   -2.185E-09   -2.201E-09   -2.218E-09   -2.234E-09   -2.251E-09   -2.267E-09   -2.284E-09   -2.300E-09   -2.316E-09
    -2.332E-09   -2.348E-09   -2.364E-09
 Ala      Conc. = 6.17E-11
   9.38022E-10  1.00401E-09  1.08058E-09  1.16110E-09  1.23363E-09  1.29697E-09  1.37930E-09  1.45514E-09  1.50277E-09  1.58452E-09
   1.66334E-09  1.71573E-09  1.78756E-09  1.86081E-09  1.92782E-09  1.99714E-09  2.06758E-09  2.13858E-09  2.20989E-09  2.28137E-09
   2.35294E-09  2.42455E-09  2.49618E-09  2.56778E-09  2.63935E-09  2.71088E-09  2.78234E-09  2.85374E-09  2.92505E-09  2.99628E-09
   3.06742E-09  3.13846E-09  3.20940E-09  3.28024E-09  3.35096E-09  3.42156E-09  3.49204E-09  3.56241E-09  3.63263E-09  3.70273E-09
   3.77270E-09  3.84251E-09  3.91218E-09  3.98172E-09  4.05109E-09  4.12032E-09  4.18936E-09  4.25825E-09  4.32694E-09  4.39541E-09
   4.46365E-09  4.53163E-09  4.59933E-09  4.66674E-09  4.73382E-09  4.80058E-09  4.86697E-09  4.93298E-09  4.99859E-09  5.06379E-09
   5.12855E-09  5.19284E-09  5.25666E-09  5.31997E-09  5.38277E-09  5.44502E-09  5.50672E-09  5.56783E-09  5.62834E-09  5.68823E-09
   5.74748E-09  5.80607E-09  5.86398E-09  5.92119E-09  5.97767E-09  6.03342E-09  6.08841E-09  6.14262E-09  6.19603E-09  6.24863E-09
   6.30039E-09  6.35130E-09  6.40134E-09  6.45050E-09  6.49875E-09  6.54609E-09  6.59250E-09  6.63797E-09  6.68250E-09  6.72609E-09
   6.76874E-09  6.81048E-09  6.85134E-09  6.89138E-09  6.93071E-09  6.96961E-09  7.00864E-09  7.04914E-09  7.09509E-09  7.16278E-09
   7.26560E-09  7.24773E-09  7.30741E-09  7.42612E-09  7.42827E-09  7.45506E-09  7.48980E-09  7.51478E-09  7.51803E-09  7.53419E-09
   7.58488E-09  7.45602E-09  7.46103E-09  7.52881E-09  7.43448E-09  7.40441E-09  7.39129E-09  7.38241E-09  7.37418E-09  7.36520E-09
   7.35483E-09  7.34269E-09  7.32856E-09  7.31227E-09  7.29374E-09  7.27286E-09  7.24954E-09  7.22374E-09  7.19538E-09  7.16441E-09
   7.13078E-09  7.09443E-09  7.05534E-09  7.01343E-09  6.96866E-09  6.92101E-09  6.87041E-09  6.81685E-09  6.76040E-09  6.70114E-09
   6.63910E-09  6.57439E-09  6.50706E-09  6.43716E-09  6.36479E-09  6.29001E-09  6.21288E-09  6.13347E-09  6.05186E-09  5.96811E-09
   5.88231E-09  5.79450E-09  5.70477E-09  5.61318E-09  5.51980E-09  5.42473E-09  5.32802E-09  5.22976E-09  5.13002E-09  5.02889E-09
   4.92651E-09  4.82297E-09  4.71846E-09  4.61333E-09  4.50833E-09  4.40587E-09  4.31893E-09  4.26723E-09  4.13677E-09  4.03230E-09
   3.92928E-09  3.81626E-09  3.69956E-09  3.58453E-09  3.47238E-09  3.35007E-09  3.23462E-09  3.14959E-09  2.94957E-09  2.81385E-09
   2.69200E-09  2.57356E-09  2.45646E-09  2.34011E-09  2.22430E-09  2.10897E-09  1.99414E-09  1.87979E-09  1.76601E-09  1.65281E-09
   1.54026E-09  1.42839E-09  1.31729E-09  1.20698E-09  1.09754E-09  9.89020E-10  8.81482E-10  7.74978E-10  6.69574E-10  5.65318E-10
   4.62280E-10  3.60518E-10  2.60083E-10  1.61049E-10  6.34650E-11 -3.26192E-11 -1.27132E-10 -2.20016E-10 -3.11215E-10 -4.00662E-10
  -4.88299E-10 -5.74067E-10 -6.57922E-10 -7.39804E-10 -8.19618E-10 -8.97337E-10 -9.72892E-10 -1.04624E-09 -1.11729E-09 -1.18600E-09
  -1.25233E-09 -1.31618E-09 -1.37750E-09 -1.43627E-09 -1.49241E-09 -1.54581E-09 -1.59650E-09 -1.64438E-09 -1.68947E-09 -1.73185E-09
  -1.77159E-09 -1.80874E-09 -1.84339E-09 -1.87558E-09 -1.90540E-09 -1.93291E-09 -1.95817E-09 -1.98125E-09 -2.00222E-09 -2.02113E-09
  -2.03807E-09 -2.05311E-09 -2.06629E-09 -2.07769E-09 -2.08738E-09 -2.09542E-09 -2.10188E-09 -2.10683E-09 -2.11033E-09 -2.11245E-09
  -2.11325E-09 -2.11281E-09 -2.11119E-09 -2.10845E-09 -2.10466E-09 -2.09989E-09 -2.09420E-09 -2.08767E-09 -2.08036E-09 -2.07233E-09
  -2.06364E-09 -2.05438E-09 -2.04460E-09 -2.03437E-09 -2.02375E-09 -2.01282E-09 -2.00163E-09 -1.99027E-09 -1.97878E-09 -1.96724E-09
  -1.95571E-09 -1.94427E-09 -1.93297E-09 -1.92185E-09 -1.91092E-09 -1.90020E-09 -1.88969E-09 -1.87940E-09 -1.86934E-09 -1.85951E-09
  -1.84993E-09 -1.84061E-09 -1.83155E-09 -1.82276E-09 -1.81426E-09 -1.80604E-09 -1.79813E-09 -1.79052E-09 -1.78322E-09 -1.77626E-09
  -1.76963E-09 -1.76334E-09 -1.75740E-09 -1.75183E-09 -1.74663E-09 -1.74180E-09 -1.73736E-09 -1.73332E-09 -1.72968E-09 -1.72646E-09
  -1.72366E-09 -1.72129E-09 -1.71936E-09 -1.71788E-09 -1.71686E-09 -1.71631E-09 -1.71622E-09 -1.71663E-09 -1.71752E-09 -1.71892E-09
  -1.72083E-09 -1.72326E-09 -1.72621E-09 -1.72971E-09 -1.73375E-09 -1.73834E-09 -1.74349E-09 -1.74921E-09 -1.75551E-09 -1.76237E-09
  -1.76977E-09 -1.77769E-09 -1.78613E-09 -1.79506E-09 -1.80448E-09 -1.81435E-09 -1.82468E-09 -1.83543E-09 -1.84660E-09 -1.85818E-09
  -1.87013E-09 -1.88246E-09 -1.89514E-09 -1.90815E-09 -1.92149E-09 -1.93513E-09 -1.94906E-09 -1.96327E-09 -1.97774E-09 -1.99245E-09
  -2.00738E-09 -2.02253E-09 -2.03787E-09 -2.05339E-09 -2.06907E-09 -2.08491E-09 -2.10087E-09 -2.11695E-09 -2.13314E-09 -2.14940E-09
  -2.16574E-09 -2.18213E-09 -2.19856E-09 -2.21502E-09 -2.23147E-09 -2.24792E-09 -2.26435E-09 -2.28074E-09 -2.29706E-09 -2.31332E-09
  -2.32949E-09 -2.34556E-09 -2.36150E-09
 Asp      Conc. = 7.43E-10
   1.75107E-09  1.64226E-09  1.71832E-09  1.60415E-09  1.68448E-09  1.65421E-09  1.68537E-09  1.61684E-09  1.62886E-09  1.66889E-09
   1.72148E-09  1.78080E-09  1.84221E-09  1.90899E-09  1.97742E-09  2.04629E-09  2.11583E-09  2.18595E-09  2.25656E-09  2.32758E-09
   2.39897E-09  2.47068E-09  2.54271E-09  2.61506E-09  2.68774E-09  2.76080E-09  2.83431E-09  2.90835E-09  2.98309E-09  3.05873E-09
   3.13563E-09  3.21430E-09  3.29569E-09  3.38152E-09  3.47559E-09  3.58828E-09  3.74665E-09  3.81311E-09  3.97578E-09  4.00478E-09
   4.08436E-09  4.18510E-09  4.35402E-09  4.58924E-09  4.81255E-09  5.14037E-09  5.11620E-09  5.10899E-09  5.49118E-09  5.40402E-09
   5.46770E-09  5.65424E-09  5.77981E-09  5.79582E-09  5.74880E-09  5.90289E-09  5.46845E-09  5.43304E-09  5.73845E-09  5.59234E-09
   5.51366E-09  5.59325E-09  5.57549E-09  5.55816E-09  5.61526E-09  5.76741E-09  5.74625E-09  5.76052E-09  5.79224E-09  5.83220E-09
   5.87661E-09  5.92363E-09  5.97221E-09  6.02172E-09  6.07172E-09  6.12193E-09  6.17213E-09  6.22214E-09  6.27185E-09  6.32114E-09
   6.36993E-09  6.41815E-09  6.46574E-09  6.51263E-09  6.55878E-09  6.60415E-09  6.64870E-09  6.69238E-09  6.73517E-09  6.77703E-09
   6.81793E-09  6.85784E-09  6.89672E-09  6.93452E-09  6.97120E-09  7.00670E-09  7.04099E-09  7.07400E-09  7.10570E-09  7.13605E-09
   7.16498E-09  7.19247E-09  7.21847E-09  7.24292E-09  7.26580E-09  7.28704E-09  7.30662E-09  7.32448E-09  7.34059E-09  7.35489E-09
   7.36735E-09  7.37792E-09  7.38656E-09  7.39323E-09  7.39787E-09  7.40046E-09  7.40095E-09  7.39929E-09  7.39544E-09  7.38936E-09
   7.38101E-09  7.37034E-09  7.35732E-09  7.34188E-09  7.32401E-09  7.30365E-09  7.28077E-09  7.25532E-09  7.22726E-09  7.19653E-09
   7.16311E-09  7.12695E-09  7.08802E-09  7.04627E-09  7.00165E-09  6.95414E-09  6.90367E-09  6.85025E-09  6.79394E-09  6.73483E-09
   6.67295E-09  6.60841E-09  6.54127E-09  6.47159E-09  6.39946E-09  6.32494E-09  6.24812E-09  6.16906E-09  6.08784E-09  6.00455E-09
   5.91928E-09  5.83209E-09  5.74309E-09  5.65238E-09  5.56005E-09  5.46625E-09  5.37111E-09  5.27481E-09  5.17759E-09  5.07976E-09
   4.98184E-09  4.88461E-09  4.78955E-09  4.69981E-09  4.62342E-09  4.58754E-09  4.73538E-09  5.34962E-09  5.01315E-09  4.98749E-09
   4.99429E-09  4.88775E-09  4.74093E-09  4.61742E-09  4.53701E-09  4.33815E-09  4.20713E-09  4.48917E-09  3.36003E-09  2.99156E-09
   2.80156E-09  2.65382E-09  2.52113E-09  2.39537E-09  2.27337E-09  2.15372E-09  2.03574E-09  1.91901E-09  1.80338E-09  1.68871E-09
   1.57498E-09  1.46213E-09  1.35022E-09  1.23923E-09  1.12920E-09  1.02017E-09  9.12196E-10  8.05308E-10  6.99566E-10  5.95008E-10
   4.91702E-10  3.89698E-10  2.89046E-10  1.89813E-10  9.20491E-11 -4.20016E-12 -9.88651E-11 -1.91889E-10 -2.83218E-10 -3.72785E-10
  -4.60535E-10 -5.46408E-10 -6.30361E-10 -7.12336E-10 -7.92237E-10 -8.70038E-10 -9.45671E-10 -1.01909E-09 -1.09022E-09 -1.15899E-09
  -1.22538E-09 -1.28929E-09 -1.35068E-09 -1.40950E-09 -1.46570E-09 -1.51915E-09 -1.56989E-09 -1.61782E-09 -1.66295E-09 -1.70538E-09
  -1.74516E-09 -1.78236E-09 -1.81704E-09 -1.84928E-09 -1.87913E-09 -1.90668E-09 -1.93197E-09 -1.95509E-09 -1.97609E-09 -1.99505E-09
