 LCModel (Version 6.3-1R) Copyright: S.W. Provencher.          Ref.: Magn. Reson. Med. 30:672-679 (1993).                
 onepulse 16x11_ftSpec_smooth_lcm
 26 lines in following concentration table = NCONC+1
    Conc.  %SD /Cr+PCr  Metabolite                                         
 4.91E-10  64%   3.979 Ala                                                 
 1.65E-09  44%  13.388 Asp                                                 
    0.000 999%   0.000 Cr                                                  
 1.49E-09  41%  12.039 GABA                                                
 2.15E-09  35%  17.418 Glc                                                 
 6.27E-10 120%   5.080 Gln                                                 
    0.000 999%   0.000 Glu                                                 
 1.57E-10 742%   1.276 Glyc                                                
    0.000 999%   0.000 GPC                                                 
 6.99E-10  68%   5.669 GSH                                                 
 1.02E-09 103%   8.284 Ins                                                 
 3.41E-11 910%   0.277 Lac                                                 
 7.32E-10  41%   5.932 NAAG                                                
 3.02E-10 138%   2.449 NAA                                                 
    0.000 999%   0.000 PCh                                                 
 1.23E-10 288%   1.000 PCr                                                 
 3.38E-09  20%  27.421 PE                                                  
    0.000 999%   0.000 Scyllo                                              
    0.000 999%   0.000 Ser                                                 
    0.000 999%   0.000 Tau                                                 
    0.000 999%   0.000 GPC+PCh                                             
 1.03E-09  28%   8.382 NAA+NAAG                                            
 1.18E-09  40%   9.560 Ins+Glyc                                            
 1.23E-10 288%   1.000 Cr+PCr                                              
 6.27E-10 120%   5.080 Glu+Gln                                             
   6 lines in following misc. output table
  FWHM = 0.123 ppm    S/N =   4                                            
  Data shift = 0.481 ppm                                                   
  Ph:  79 deg     -22.2 deg/ppm                                            
  alphaB,S = 7.4E-01,   3.2E+00                                            
   10 spline knots.   Ns = 5(1)                                            
  (10)10 infls.   (11) 9 extrs.                                            
  363 points on ppm-axis = NY
      4.250000     4.238821     4.227641     4.216462     4.205282     4.194103     4.182923     4.171744     4.160564     4.149385
      4.138206     4.127026     4.115847     4.104667     4.093488     4.082308     4.071129     4.059949     4.048770     4.037591
      4.026411     4.015232     4.004052     3.992873     3.981693     3.970514     3.959334     3.948155     3.936975     3.925796
      3.914617     3.903437     3.892258     3.881078     3.869899     3.858719     3.847540     3.836360     3.825181     3.814002
      3.802822     3.791643     3.780463     3.769284     3.758104     3.746925     3.735745     3.724566     3.713387     3.702207
      3.691028     3.679848     3.668669     3.657489     3.646310     3.635130     3.623951     3.612772     3.601592     3.590413
      3.579233     3.568054     3.556874     3.545695     3.534515     3.523336     3.512156     3.500977     3.489798     3.478618
      3.467439     3.456259     3.445080     3.433900     3.422721     3.411541     3.400362     3.389183     3.378003     3.366824
      3.355644     3.344465     3.333285     3.322106     3.310926     3.299747     3.288568     3.277388     3.266209     3.255029
      3.243850     3.232670     3.221491     3.210311     3.199132     3.187953     3.176773     3.165594     3.154414     3.143235
      3.132055     3.120876     3.109696     3.098517     3.087337     3.076158     3.064979     3.053799     3.042620     3.031440
      3.020261     3.009081     2.997902     2.986722     2.975543     2.964364     2.953184     2.942005     2.930825     2.919646
      2.908466     2.897287     2.886107     2.874928     2.863749     2.852569     2.841390     2.830210     2.819031     2.807851
      2.796672     2.785492     2.774313     2.763134     2.751954     2.740775     2.729595     2.718416     2.707236     2.696057
      2.684877     2.673698     2.662519     2.651339     2.640160     2.628980     2.617801     2.606621     2.595442     2.584262
      2.573083     2.561903     2.550724     2.539545     2.528365     2.517186     2.506006     2.494827     2.483647     2.472468
      2.461288     2.450109     2.438930     2.427750     2.416571     2.405391     2.394212     2.383032     2.371853     2.360673
      2.349494     2.338315     2.327135     2.315956     2.304776     2.293597     2.282417     2.271238     2.260058     2.248879
      2.237700     2.226520     2.215341     2.204161     2.192982     2.181802     2.170623     2.159443     2.148264     2.137084
      2.125905     2.114726     2.103546     2.092367     2.081187     2.070008     2.058828     2.047649     2.036469     2.025290
      2.014111     2.002931     1.991752     1.980572     1.969393     1.958213     1.947034     1.935854     1.924675     1.913496
      1.902316     1.891137     1.879957     1.868778     1.857598     1.846419     1.835239     1.824060     1.812881     1.801701
      1.790522     1.779342     1.768163     1.756983     1.745804     1.734624     1.723445     1.712265     1.701086     1.689907
      1.678727     1.667548     1.656368     1.645189     1.634009     1.622830     1.611650     1.600471     1.589292     1.578112
      1.566933     1.555753     1.544574     1.533394     1.522215     1.511035     1.499856     1.488677     1.477497     1.466318
      1.455138     1.443959     1.432779     1.421600     1.410420     1.399241     1.388062     1.376882     1.365703     1.354523
      1.343344     1.332164     1.320985     1.309805     1.298626     1.287446     1.276267     1.265088     1.253908     1.242729
      1.231549     1.220370     1.209190     1.198011     1.186831     1.175652     1.164473     1.153293     1.142114     1.130934
      1.119755     1.108575     1.097396     1.086216     1.075037     1.063858     1.052678     1.041499     1.030319     1.019140
      1.007960     0.996781     0.985601     0.974422     0.963243     0.952063     0.940884     0.929704     0.918525     0.907345
      0.896166     0.884986     0.873807     0.862628     0.851448     0.840269     0.829089     0.817910     0.806730     0.795551
      0.784371     0.773192     0.762012     0.750833     0.739654     0.728474     0.717295     0.706115     0.694936     0.683756
      0.672577     0.661397     0.650218     0.639039     0.627859     0.616680     0.605500     0.594321     0.583141     0.571962
      0.560782     0.549603     0.538424     0.527244     0.516065     0.504885     0.493706     0.482526     0.471347     0.460167
      0.448988     0.437809     0.426629     0.415450     0.404270     0.393091     0.381911     0.370732     0.359552     0.348373
      0.337193     0.326014     0.314835     0.303655     0.292476     0.281296     0.270117     0.258937     0.247758     0.236578
      0.225399     0.214220     0.203040
 NY phased data points follow
   7.96671E-09  7.59413E-09  7.50395E-09  8.15441E-09  8.98601E-09  8.78522E-09  8.91278E-09  8.90188E-09  8.78866E-09  8.18396E-09
   8.20957E-09  7.85593E-09  8.16399E-09  7.58761E-09  9.65436E-09  9.32737E-09  9.50167E-09  7.96720E-09  7.33797E-09  6.61968E-09
   9.04710E-09  9.86382E-09  1.19287E-08  1.22636E-08  1.31244E-08  1.17286E-08  1.14105E-08  1.01593E-08  1.12942E-08  9.69144E-09
   1.03996E-08  1.01284E-08  1.00080E-08  9.31238E-09  1.01337E-08  8.64168E-09  8.55865E-09  7.51683E-09  8.12903E-09  7.01442E-09
   7.60695E-09  7.10522E-09  7.91931E-09  6.32745E-09  6.59101E-09  4.35977E-09  4.14062E-09  3.30624E-09  3.46984E-09  1.63260E-09
   1.36305E-09  1.79229E-09  5.98983E-09  8.55739E-09  1.12519E-08  9.63682E-09  1.08722E-08  9.39308E-09  9.73898E-09  8.46113E-09
   9.18056E-09  7.48792E-09  7.34917E-09  5.27906E-09  5.91221E-09  2.58113E-09  1.51391E-09 -8.28493E-10  2.36321E-09  6.42841E-09
   9.93450E-09  1.01639E-08  1.12075E-08  1.10540E-08  1.20928E-08  1.15988E-08  1.15646E-08  1.12166E-08  1.20344E-08  1.18334E-08
   1.20772E-08  1.17822E-08  1.21069E-08  1.10278E-08  1.20622E-08  1.06174E-08  1.08136E-08  1.03352E-08  1.03024E-08  9.11870E-09
   9.27598E-09  9.72231E-09  9.88933E-09  9.07406E-09  9.11230E-09  9.15654E-09  9.46545E-09  9.39658E-09  9.04434E-09  8.16819E-09
   7.26274E-09  5.91691E-09  7.03620E-09  6.82818E-09  6.55882E-09  6.08694E-09  7.13636E-09  6.29911E-09  6.50958E-09  6.56877E-09
   8.23625E-09  7.59881E-09  7.70635E-09  7.14590E-09  7.34363E-09  5.11964E-09  5.51556E-09  5.85496E-09  5.69560E-09  4.56128E-09
   5.23748E-09  4.90714E-09  5.37511E-09  4.74944E-09  5.30956E-09  4.95613E-09  4.78141E-09  2.81389E-09  3.04082E-09  4.16341E-09
   5.18983E-09  5.44078E-09  5.49140E-09  4.46229E-09  5.09221E-09  5.83972E-09  6.50994E-09  6.65067E-09  7.42625E-09  6.94132E-09
   7.69382E-09  7.22542E-09  7.31508E-09  6.96554E-09  7.05675E-09  7.32706E-09  7.37237E-09  7.21952E-09  7.19947E-09  7.18991E-09
   7.04947E-09  6.86967E-09  7.49897E-09  6.72611E-09  6.30339E-09  4.97837E-09  5.33885E-09  4.10672E-09 -1.02130E-09 -1.44902E-09
   4.76906E-09  1.07112E-08  1.39424E-08  1.54534E-08  1.62365E-08  1.85667E-08  1.92700E-08  1.97055E-08  2.00698E-08  2.09208E-08
   2.14843E-08  2.18104E-08  2.30136E-08  2.24093E-08  2.28774E-08  2.26829E-08  2.21576E-08  2.14626E-08  2.03654E-08  1.88830E-08
   1.66360E-08  1.44881E-08  1.27849E-08  1.07407E-08  8.14749E-09  5.54059E-09  3.80386E-09  1.08464E-09 -7.01300E-10 -2.46456E-09
  -2.96202E-09 -4.45777E-09 -4.95554E-09 -4.50324E-09 -4.35995E-09 -4.09732E-09 -3.95880E-09 -2.82479E-09 -2.27428E-09 -2.06871E-09
  -2.92471E-10 -1.05671E-09 -6.66662E-10 -6.29255E-10 -5.98432E-10 -4.86255E-10 -9.11276E-10 -4.15702E-10 -1.12759E-09 -1.05546E-09
  -7.45106E-10 -3.12858E-10 -4.95238E-10 -2.58077E-10  1.80320E-10  1.95201E-10 -1.05924E-10 -7.89858E-10 -9.24145E-10 -6.09260E-10
  -6.00307E-10 -4.20889E-10 -6.63406E-11 -8.22976E-10 -3.38754E-10 -3.81244E-11 -5.58114E-10  4.42407E-10  2.36252E-10 -6.52761E-10
  -7.67701E-10 -7.12993E-10 -8.67041E-10 -1.01916E-09 -1.50949E-09 -1.49506E-09 -8.92355E-10 -6.88863E-10 -1.05376E-09 -7.40276E-10
  -5.74355E-10 -4.79781E-10  1.66303E-11 -2.73278E-10 -8.28310E-11  2.25169E-11  9.11304E-12 -1.58473E-10  4.65237E-10  1.50808E-10
  -5.37567E-10 -3.54761E-10 -7.78376E-10 -1.15774E-09 -1.44526E-09 -1.55610E-09 -2.00720E-09 -2.15074E-09 -2.42176E-09 -2.19536E-09
  -2.54107E-09 -2.12635E-09 -2.41161E-09 -1.57291E-09 -1.29791E-09 -1.02353E-09 -1.14423E-09 -9.39282E-10 -5.32502E-10 -6.57041E-10
  -6.10745E-10  1.48103E-10 -2.92990E-10  2.29158E-11 -1.95207E-10  4.63348E-10  4.02394E-10  4.12312E-11 -2.68576E-10  8.21214E-10
   1.65562E-10  1.08269E-10 -5.02506E-11  4.99624E-10 -3.31671E-11  2.39068E-10  4.24376E-10  2.26292E-10  8.74340E-11  5.48542E-11
  -1.21092E-10 -2.43970E-10 -3.18358E-10 -2.41096E-11 -3.46920E-10 -4.80201E-10 -4.13178E-10 -8.73880E-10 -8.31021E-10 -6.77654E-10
  -8.13411E-10 -1.19920E-09 -9.27758E-10 -6.53473E-10 -1.20808E-09 -1.10612E-09 -1.51359E-09 -9.58709E-10 -1.26764E-09 -1.22549E-09
  -1.56921E-09 -1.25206E-09 -1.85590E-09 -1.86286E-09 -1.95270E-09 -1.62716E-09 -1.63367E-09 -1.47445E-09 -2.49298E-09 -1.33960E-09
  -1.83699E-09 -1.95048E-09 -1.97751E-09 -1.93793E-09 -2.30188E-09 -1.87958E-09 -2.19850E-09 -2.44953E-09 -2.37607E-09 -2.10375E-09
  -2.31495E-09 -2.46538E-09 -2.86105E-09 -2.43295E-09 -2.95294E-09 -2.45080E-09 -2.94399E-09 -3.50601E-09 -3.19227E-09 -2.53781E-09
  -3.39703E-09 -3.19932E-09 -3.02871E-09 -2.90618E-09 -3.01991E-09 -3.01631E-09 -3.24918E-09 -3.15750E-09 -3.61906E-09 -3.25907E-09
  -3.42617E-09 -3.29271E-09 -3.21780E-09 -4.05816E-09 -3.62285E-09 -3.86098E-09 -3.20621E-09 -3.79931E-09 -3.78188E-09 -4.04668E-09
  -3.69444E-09 -3.70202E-09 -4.00565E-09
 NY points of the fit to the data follow
   1.03131E-08  9.97169E-09  9.29811E-09  8.08926E-09  8.93816E-09  8.50411E-09  9.22106E-09  8.79770E-09  1.09660E-08  9.58232E-09
   7.01976E-09  6.89119E-09  7.02114E-09  6.86455E-09  8.64462E-09  9.27425E-09  8.26527E-09  8.88018E-09  9.47578E-09  8.46201E-09
   9.74046E-09  9.99930E-09  1.08699E-08  1.15247E-08  1.21486E-08  1.28239E-08  1.08374E-08  1.07283E-08  1.07638E-08  1.10006E-08
   1.14535E-08  1.10931E-08  1.13004E-08  9.56203E-09  9.22401E-09  8.60569E-09  7.59389E-09  7.33229E-09  6.89468E-09  7.08136E-09
   6.35119E-09  6.17307E-09  7.75574E-09  6.14480E-09  6.46762E-09  5.89323E-09  5.61507E-09  4.98424E-09  5.57267E-09  4.91225E-09
   5.65302E-09  5.68068E-09  5.89847E-09  6.05792E-09  6.93996E-09  6.08970E-09  6.24721E-09  6.36086E-09  7.09901E-09  6.40924E-09
   6.89210E-09  7.24614E-09  7.06664E-09  6.57433E-09  8.14281E-09  8.10280E-09  7.31640E-09  7.93664E-09  7.99170E-09  7.82130E-09
   8.74047E-09  8.96571E-09  9.26908E-09  8.43467E-09  9.43854E-09  1.16683E-08  1.18632E-08  1.17881E-08  1.18288E-08  1.20797E-08
   1.21858E-08  1.17617E-08  1.18973E-08  1.21381E-08  1.11714E-08  1.18894E-08  1.21427E-08  9.94298E-09  8.27400E-09  7.79370E-09
   7.56309E-09  7.10398E-09  7.05830E-09  7.63490E-09  6.70521E-09  6.51785E-09  7.01877E-09  6.43986E-09  6.38001E-09  6.75078E-09
   7.13235E-09  6.29718E-09  6.81143E-09  7.50554E-09  7.02657E-09  7.27625E-09  7.26363E-09  7.32182E-09  7.40965E-09  7.33588E-09
   7.74272E-09  6.67572E-09  6.58549E-09  7.14622E-09  6.35010E-09  6.10686E-09  6.00736E-09  5.98483E-09  5.88825E-09  5.89180E-09
   5.89077E-09  5.84185E-09  5.82828E-09  5.82402E-09  5.82296E-09  5.82306E-09  5.82347E-09  5.82353E-09  5.82296E-09  5.82157E-09
   5.81914E-09  5.81555E-09  5.81076E-09  5.80465E-09  5.79717E-09  5.78826E-09  5.77790E-09  5.76606E-09  5.75271E-09  5.73786E-09
   5.72148E-09  5.70359E-09  5.68422E-09  5.66339E-09  5.64111E-09  5.61746E-09  5.59250E-09  5.56633E-09  5.53909E-09  5.51094E-09
   5.48209E-09  5.45283E-09  5.42353E-09  5.39473E-09  5.36712E-09  5.34171E-09  5.31993E-09  5.30394E-09  5.29709E-09  5.30468E-09
   5.33571E-09  5.40665E-09  5.55109E-09  5.84828E-09  6.53176E-09  8.58418E-09  1.70227E-08  2.27187E-08  1.96055E-08  2.01105E-08
   2.08733E-08  2.16730E-08  2.26440E-08  2.25235E-08  2.28676E-08  2.20497E-08  2.40274E-08  2.33650E-08  1.27421E-08  6.89651E-09
   5.23313E-09  4.51433E-09  4.09892E-09  3.81507E-09  3.59912E-09  3.42246E-09  3.27039E-09  3.13466E-09  3.01039E-09  2.89442E-09
   2.78471E-09  2.67989E-09  2.57895E-09  2.48127E-09  2.38632E-09  2.29375E-09  2.20330E-09  2.11482E-09  2.02814E-09  1.94319E-09
   1.85991E-09  1.77826E-09  1.69822E-09  1.61980E-09  1.54300E-09  1.46784E-09  1.39437E-09  1.32258E-09  1.25253E-09  1.18415E-09
   1.11742E-09  1.05228E-09  9.88700E-10  9.26643E-10  8.66075E-10  8.06949E-10  7.49254E-10  6.92948E-10  6.38001E-10  5.84380E-10
   5.32077E-10  4.81042E-10  4.31260E-10  3.82703E-10  3.35341E-10  2.89156E-10  2.44128E-10  2.00213E-10  1.57392E-10  1.15659E-10
   7.49831E-11  3.53289E-11 -3.31135E-12 -4.09748E-11 -7.76740E-11 -1.13442E-10 -1.48298E-10 -1.82254E-10 -2.15342E-10 -2.47583E-10
  -2.78996E-10 -3.09602E-10 -3.39430E-10 -3.68500E-10 -3.96829E-10 -4.24441E-10 -4.51366E-10 -4.77627E-10 -5.03221E-10 -5.28180E-10
  -5.52541E-10 -5.76321E-10 -5.99532E-10 -6.22189E-10 -6.44348E-10 -6.65989E-10 -6.87158E-10 -7.07863E-10 -7.28140E-10 -7.48006E-10
  -7.67474E-10 -7.86567E-10 -8.05309E-10 -8.23722E-10 -8.41824E-10 -8.59637E-10 -8.77182E-10 -8.94480E-10 -9.11551E-10 -9.28417E-10
  -9.45099E-10 -9.61616E-10 -9.77991E-10 -9.94243E-10 -1.01039E-09 -1.02646E-09 -1.04247E-09 -1.05844E-09 -1.07440E-09 -1.09035E-09
  -1.10633E-09 -1.12235E-09 -1.13843E-09 -1.15460E-09 -1.17088E-09 -1.18728E-09 -1.20383E-09 -1.22055E-09 -1.23746E-09 -1.25458E-09
  -1.27192E-09 -1.28952E-09 -1.30739E-09 -1.32555E-09 -1.34403E-09 -1.36284E-09 -1.38200E-09 -1.40153E-09 -1.42147E-09 -1.44182E-09
  -1.46260E-09 -1.48385E-09 -1.50557E-09 -1.52779E-09 -1.55053E-09 -1.57381E-09 -1.59765E-09 -1.62208E-09 -1.64710E-09 -1.67275E-09
  -1.69904E-09 -1.72599E-09 -1.75361E-09 -1.78186E-09 -1.81074E-09 -1.84023E-09 -1.87031E-09 -1.90096E-09 -1.93217E-09 -1.96392E-09
  -1.99621E-09 -2.02899E-09 -2.06227E-09 -2.09602E-09 -2.13023E-09 -2.16489E-09 -2.19997E-09 -2.23545E-09 -2.27133E-09 -2.30758E-09
  -2.34420E-09 -2.38115E-09 -2.41843E-09 -2.45602E-09 -2.49389E-09 -2.53205E-09 -2.57046E-09 -2.60911E-09 -2.64799E-09 -2.68708E-09
  -2.72636E-09 -2.76582E-09 -2.80543E-09 -2.84518E-09 -2.88506E-09 -2.92505E-09 -2.96513E-09 -3.00529E-09 -3.04550E-09 -3.08576E-09
  -3.12604E-09 -3.16633E-09 -3.20661E-09 -3.24686E-09 -3.28708E-09 -3.32723E-09 -3.36732E-09 -3.40730E-09 -3.44719E-09 -3.48694E-09
  -3.52656E-09 -3.56602E-09 -3.60530E-09
 NY background values follow
    -6.229E-09   -6.110E-09   -5.991E-09   -5.873E-09   -5.754E-09   -5.635E-09   -5.516E-09   -5.397E-09   -5.279E-09   -5.160E-09
    -5.041E-09   -4.923E-09   -4.804E-09   -4.686E-09   -4.567E-09   -4.449E-09   -4.331E-09   -4.213E-09   -4.095E-09   -3.978E-09
    -3.860E-09   -3.743E-09   -3.626E-09   -3.509E-09   -3.393E-09   -3.277E-09   -3.161E-09   -3.045E-09   -2.929E-09   -2.814E-09
    -2.699E-09   -2.585E-09   -2.471E-09   -2.357E-09   -2.244E-09   -2.130E-09   -2.018E-09   -1.906E-09   -1.794E-09   -1.682E-09
    -1.571E-09   -1.461E-09   -1.351E-09   -1.241E-09   -1.132E-09   -1.024E-09   -9.158E-10   -8.083E-10   -7.014E-10   -5.951E-10
    -4.893E-10   -3.841E-10   -2.795E-10   -1.755E-10   -7.214E-11    3.055E-11    1.326E-10    2.339E-10    3.345E-10    4.344E-10
     5.336E-10    6.320E-10    7.296E-10    8.265E-10    9.225E-10    1.018E-09    1.112E-09    1.206E-09    1.298E-09    1.390E-09
     1.481E-09    1.570E-09    1.659E-09    1.747E-09    1.834E-09    1.920E-09    2.005E-09    2.089E-09    2.171E-09    2.253E-09
     2.334E-09    2.413E-09    2.491E-09    2.568E-09    2.644E-09    2.719E-09    2.793E-09    2.865E-09    2.936E-09    3.006E-09
     3.075E-09    3.142E-09    3.208E-09    3.272E-09    3.336E-09    3.398E-09    3.458E-09    3.517E-09    3.575E-09    3.631E-09
     3.686E-09    3.739E-09    3.791E-09    3.841E-09    3.890E-09    3.937E-09    3.983E-09    4.027E-09    4.069E-09    4.110E-09
     4.149E-09    4.187E-09    4.223E-09    4.257E-09    4.290E-09    4.321E-09    4.350E-09    4.378E-09    4.404E-09    4.428E-09
     4.450E-09    4.471E-09    4.490E-09    4.507E-09    4.522E-09    4.535E-09    4.547E-09    4.557E-09    4.565E-09    4.571E-09
     4.575E-09    4.577E-09    4.578E-09    4.576E-09    4.573E-09    4.568E-09    4.560E-09    4.551E-09    4.540E-09    4.526E-09
     4.511E-09    4.494E-09    4.474E-09    4.453E-09    4.430E-09    4.404E-09    4.376E-09    4.347E-09    4.315E-09    4.281E-09
     4.245E-09    4.207E-09    4.166E-09    4.123E-09    4.079E-09    4.032E-09    3.982E-09    3.931E-09    3.878E-09    3.822E-09
     3.765E-09    3.705E-09    3.644E-09    3.582E-09    3.517E-09    3.451E-09    3.383E-09    3.314E-09    3.244E-09    3.172E-09
     3.099E-09    3.025E-09    2.950E-09    2.874E-09    2.797E-09    2.719E-09    2.640E-09    2.560E-09    2.480E-09    2.399E-09
     2.318E-09    2.236E-09    2.154E-09    2.072E-09    1.989E-09    1.906E-09    1.823E-09    1.741E-09    1.658E-09    1.575E-09
     1.493E-09    1.410E-09    1.328E-09    1.247E-09    1.166E-09    1.085E-09    1.006E-09    9.266E-10    8.482E-10    7.708E-10
     6.942E-10    6.186E-10    5.441E-10    4.707E-10    3.985E-10    3.276E-10    2.580E-10    1.899E-10    1.232E-10    5.794E-11
    -5.864E-12   -6.825E-11   -1.292E-10   -1.889E-10   -2.471E-10   -3.041E-10   -3.597E-10   -4.141E-10   -4.672E-10   -5.190E-10
    -5.696E-10   -6.191E-10   -6.673E-10   -7.144E-10   -7.603E-10   -8.051E-10   -8.488E-10   -8.915E-10   -9.331E-10   -9.736E-10
    -1.013E-09   -1.052E-09   -1.089E-09   -1.126E-09   -1.162E-09   -1.196E-09   -1.230E-09   -1.263E-09   -1.295E-09   -1.327E-09
    -1.357E-09   -1.387E-09   -1.416E-09   -1.444E-09   -1.472E-09   -1.499E-09   -1.525E-09   -1.550E-09   -1.575E-09   -1.600E-09
    -1.623E-09   -1.646E-09   -1.669E-09   -1.691E-09   -1.712E-09   -1.733E-09   -1.754E-09   -1.774E-09   -1.794E-09   -1.813E-09
    -1.832E-09   -1.850E-09   -1.868E-09   -1.886E-09   -1.904E-09   -1.921E-09   -1.938E-09   -1.955E-09   -1.971E-09   -1.987E-09
    -2.004E-09   -2.019E-09   -2.035E-09   -2.051E-09   -2.067E-09   -2.082E-09   -2.098E-09   -2.113E-09   -2.129E-09   -2.144E-09
    -2.159E-09   -2.175E-09   -2.191E-09   -2.206E-09   -2.222E-09   -2.238E-09   -2.254E-09   -2.270E-09   -2.287E-09   -2.303E-09
    -2.320E-09   -2.337E-09   -2.355E-09   -2.372E-09   -2.390E-09   -2.409E-09   -2.427E-09   -2.446E-09   -2.466E-09   -2.486E-09
    -2.506E-09   -2.527E-09   -2.548E-09   -2.570E-09   -2.592E-09   -2.615E-09   -2.638E-09   -2.662E-09   -2.687E-09   -2.712E-09
    -2.738E-09   -2.764E-09   -2.791E-09   -2.819E-09   -2.848E-09   -2.877E-09   -2.906E-09   -2.936E-09   -2.967E-09   -2.998E-09
    -3.030E-09   -3.063E-09   -3.095E-09   -3.129E-09   -3.162E-09   -3.197E-09   -3.231E-09   -3.266E-09   -3.302E-09   -3.337E-09
    -3.374E-09   -3.410E-09   -3.447E-09   -3.484E-09   -3.521E-09   -3.559E-09   -3.597E-09   -3.635E-09   -3.673E-09   -3.712E-09
    -3.751E-09   -3.790E-09   -3.829E-09   -3.868E-09   -3.908E-09   -3.947E-09   -3.987E-09   -4.026E-09   -4.066E-09   -4.106E-09
    -4.146E-09   -4.185E-09   -4.225E-09   -4.265E-09   -4.305E-09   -4.344E-09   -4.384E-09   -4.423E-09   -4.463E-09   -4.502E-09
    -4.541E-09   -4.580E-09   -4.618E-09
 Ala      Conc. = 4.91E-10
  -5.84518E-09 -5.80760E-09 -5.60376E-09 -5.47845E-09 -5.35855E-09 -5.29365E-09 -5.12565E-09 -4.98641E-09 -5.06166E-09 -4.86329E-09
  -4.70969E-09 -4.75696E-09 -4.63363E-09 -4.51563E-09 -4.44175E-09 -4.34799E-09 -4.24499E-09 -4.13724E-09 -4.02682E-09 -3.91473E-09
  -3.80160E-09 -3.68781E-09 -3.57357E-09 -3.45907E-09 -3.34446E-09 -3.22980E-09 -3.11517E-09 -3.00062E-09 -2.88622E-09 -2.77197E-09
  -2.65791E-09 -2.54414E-09 -2.43059E-09 -2.31734E-09 -2.20439E-09 -2.09179E-09 -1.97953E-09 -1.86761E-09 -1.75610E-09 -1.64502E-09
  -1.53430E-09 -1.42401E-09 -1.31419E-09 -1.20485E-09 -1.09596E-09 -9.87574E-10 -8.79672E-10 -7.72302E-10 -6.65474E-10 -5.59219E-10
  -4.53471E-10 -3.48307E-10 -2.43723E-10 -1.39755E-10 -3.64157E-11  6.62949E-11  1.68349E-10  2.69733E-10  3.70425E-10  4.70414E-10
   5.69674E-10  6.68192E-10  7.65957E-10  8.62942E-10  9.59127E-10  1.05452E-09  1.14907E-09  1.24280E-09  1.33566E-09  1.42765E-09
   1.51875E-09  1.60896E-09  1.69825E-09  1.78662E-09  1.87405E-09  1.96053E-09  2.04605E-09  2.13060E-09  2.21420E-09  2.29681E-09
   2.37845E-09  2.45912E-09  2.53885E-09  2.61762E-09  2.69547E-09  2.77247E-09  2.84864E-09  2.92408E-09  2.99891E-09  3.07327E-09
   3.14744E-09  3.22177E-09  3.29684E-09  3.37355E-09  3.45347E-09  3.53949E-09  3.63744E-09  3.76125E-09  3.95257E-09  4.38544E-09
   5.03926E-09  4.35002E-09  4.96650E-09  5.76216E-09  5.35976E-09  5.66185E-09  5.67267E-09  5.73825E-09  5.90436E-09  5.80421E-09
   6.21729E-09  5.19137E-09  5.10751E-09  5.68970E-09  4.90599E-09  4.67343E-09  4.59302E-09  4.56233E-09  4.55259E-09  4.55297E-09
   4.55854E-09  4.56672E-09  4.57606E-09  4.58565E-09  4.59493E-09  4.60349E-09  4.61108E-09  4.61748E-09  4.62255E-09  4.62617E-09
   4.62825E-09  4.62872E-09  4.62752E-09  4.62460E-09  4.61991E-09  4.61343E-09  4.60511E-09  4.59494E-09  4.58287E-09  4.56890E-09
   4.55299E-09  4.53513E-09  4.51530E-09  4.49348E-09  4.46966E-09  4.44382E-09  4.41594E-09  4.38602E-09  4.35404E-09  4.31999E-09
   4.28387E-09  4.24568E-09  4.20540E-09  4.16305E-09  4.11863E-09  4.07216E-09  4.02369E-09  3.97334E-09  3.92129E-09  3.86779E-09
   3.81321E-09  3.75816E-09  3.70379E-09  3.65263E-09  3.61150E-09  3.60528E-09  3.77678E-09  4.24311E-09  3.75921E-09  3.83172E-09
   3.77158E-09  3.71452E-09  3.71280E-09  3.61856E-09  3.54511E-09  3.49938E-09  3.33210E-09  3.58057E-09  2.80062E-09  2.55335E-09
   2.42061E-09  2.31590E-09  2.22119E-09  2.13097E-09  2.04306E-09  1.95651E-09  1.87083E-09  1.78576E-09  1.70120E-09  1.61710E-09
   1.53344E-09  1.45024E-09  1.36752E-09  1.28535E-09  1.20375E-09  1.12278E-09  1.04250E-09  9.62981E-10  8.84267E-10  8.06444E-10
   7.29570E-10  6.53708E-10  5.78934E-10  5.05308E-10  4.32901E-10  3.61780E-10  2.92038E-10  2.23698E-10  1.56853E-10  9.14653E-11
   2.75238E-11 -3.49986E-11 -9.61193E-11 -1.55865E-10 -2.14253E-10 -2.71313E-10 -3.27054E-10 -3.81502E-10 -4.34686E-10 -4.86624E-10
  -5.37324E-10 -5.86823E-10 -6.35137E-10 -6.82286E-10 -7.28295E-10 -7.73182E-10 -8.16956E-10 -8.59664E-10 -9.01321E-10 -9.41927E-10
  -9.81517E-10 -1.02012E-09 -1.05774E-09 -1.09441E-09 -1.13014E-09 -1.16498E-09 -1.19892E-09 -1.23199E-09 -1.26421E-09 -1.29561E-09
  -1.32620E-09 -1.35600E-09 -1.38505E-09 -1.41335E-09 -1.44092E-09 -1.46780E-09 -1.49400E-09 -1.51955E-09 -1.54445E-09 -1.56872E-09
  -1.59241E-09 -1.61553E-09 -1.63809E-09 -1.66011E-09 -1.68164E-09 -1.70266E-09 -1.72322E-09 -1.74332E-09 -1.76300E-09 -1.78228E-09
  -1.80117E-09 -1.81969E-09 -1.83786E-09 -1.85572E-09 -1.87326E-09 -1.89053E-09 -1.90753E-09 -1.92429E-09 -1.94083E-09 -1.95717E-09
  -1.97333E-09 -1.98933E-09 -2.00519E-09 -2.02093E-09 -2.03658E-09 -2.05215E-09 -2.06766E-09 -2.08313E-09 -2.09859E-09 -2.11406E-09
  -2.12955E-09 -2.14509E-09 -2.16069E-09 -2.17639E-09 -2.19219E-09 -2.20812E-09 -2.22420E-09 -2.24045E-09 -2.25689E-09 -2.27354E-09
  -2.29042E-09 -2.30756E-09 -2.32497E-09 -2.34267E-09 -2.36068E-09 -2.37903E-09 -2.39774E-09 -2.41682E-09 -2.43630E-09 -2.45620E-09
  -2.47653E-09 -2.49732E-09 -2.51859E-09 -2.54037E-09 -2.56266E-09 -2.58549E-09 -2.60888E-09 -2.63285E-09 -2.65743E-09 -2.68263E-09
  -2.70847E-09 -2.73498E-09 -2.76214E-09 -2.78995E-09 -2.81838E-09 -2.84742E-09 -2.87705E-09 -2.90725E-09 -2.93801E-09 -2.96931E-09
  -3.00114E-09 -3.03347E-09 -3.06630E-09 -3.09960E-09 -3.13336E-09 -3.16755E-09 -3.20218E-09 -3.23721E-09 -3.27263E-09 -3.30842E-09
  -3.34457E-09 -3.38107E-09 -3.41788E-09 -3.45501E-09 -3.49242E-09 -3.53011E-09 -3.56805E-09 -3.60624E-09 -3.64465E-09 -3.68326E-09
  -3.72207E-09 -3.76105E-09 -3.80019E-09 -3.83947E-09 -3.87886E-09 -3.91837E-09 -3.95797E-09 -3.99764E-09 -4.03736E-09 -4.07713E-09
  -4.11692E-09 -4.15671E-09 -4.19650E-09 -4.23626E-09 -4.27597E-09 -4.31563E-09 -4.35521E-09 -4.39468E-09 -4.43406E-09 -4.47330E-09
  -4.51241E-09 -4.55135E-09 -4.59011E-09
 Asp      Conc. = 1.65E-09
  -4.21684E-09 -4.77612E-09 -4.56051E-09 -4.71528E-09 -4.86356E-09 -4.67001E-09 -4.87593E-09 -5.00663E-09 -4.99411E-09 -4.93173E-09
  -4.84780E-09 -4.75007E-09 -4.65129E-09 -4.53826E-09 -4.42502E-09 -4.31095E-09 -4.19576E-09 -4.07952E-09 -3.96246E-09 -3.84462E-09
  -3.72613E-09 -3.60700E-09 -3.48722E-09 -3.36676E-09 -3.24556E-09 -3.12345E-09 -3.00027E-09 -2.87569E-09 -2.74934E-09 -2.62055E-09
  -2.48836E-09 -2.35127E-09 -2.20647E-09 -2.04864E-09 -1.86533E-09 -1.62063E-09 -1.29748E-09 -1.27728E-09 -9.66935E-10 -1.03016E-09
  -8.09579E-10 -5.57531E-10 -6.77003E-12  2.24990E-10  1.18391E-09  1.07187E-09  9.84535E-10  1.06617E-09  1.94748E-09  1.47035E-09
   1.80957E-09  2.10426E-09  2.29816E-09  2.01213E-09  2.48843E-09  2.04965E-09  1.41236E-09  1.30638E-09  1.98418E-09  1.48621E-09
   1.31001E-09  1.52358E-09  1.34380E-09  1.28741E-09  1.49652E-09  1.65044E-09  1.57925E-09  1.58316E-09  1.62011E-09  1.67323E-09
   1.73540E-09  1.80307E-09  1.87421E-09  1.94760E-09  2.02240E-09  2.09805E-09  2.17414E-09  2.25036E-09  2.32650E-09  2.40233E-09
   2.47774E-09  2.55258E-09  2.62679E-09  2.70023E-09  2.77286E-09  2.84461E-09  2.91542E-09  2.98525E-09  3.05405E-09  3.12176E-09
   3.18836E-09  3.25380E-09  3.31809E-09  3.38113E-09  3.44293E-09  3.50348E-09  3.56273E-09  3.62064E-09  3.67720E-09  3.73239E-09
   3.78616E-09  3.83854E-09  3.88947E-09  3.93892E-09  3.98691E-09  4.03338E-09  4.07832E-09  4.12173E-09  4.16358E-09  4.20387E-09
   4.24257E-09  4.27968E-09  4.31517E-09  4.34904E-09  4.38126E-09  4.41182E-09  4.44071E-09  4.46792E-09  4.49343E-09  4.51723E-09
   4.53930E-09  4.55962E-09  4.57820E-09  4.59500E-09  4.61003E-09  4.62326E-09  4.63468E-09  4.64429E-09  4.65205E-09  4.65798E-09
   4.66204E-09  4.66423E-09  4.66454E-09  4.66295E-09  4.65945E-09  4.65403E-09  4.64668E-09  4.63739E-09  4.62614E-09  4.61294E-09
   4.59775E-09  4.58059E-09  4.56143E-09  4.54029E-09  4.51713E-09  4.49197E-09  4.46481E-09  4.43563E-09  4.40446E-09  4.37129E-09
   4.33614E-09  4.29905E-09  4.26004E-09  4.21917E-09  4.17651E-09  4.13219E-09  4.08637E-09  4.03939E-09  3.99173E-09  3.94412E-09
   3.89780E-09  3.85492E-09  3.81985E-09  3.80262E-09  3.83172E-09  4.01835E-09  5.03623E-09  6.09107E-09  4.98390E-09  5.33409E-09
   5.29079E-09  5.31809E-09  5.42960E-09  5.29529E-09  5.27581E-09  5.15990E-09  5.15972E-09  5.48870E-09  3.38795E-09  2.85489E-09
   2.62205E-09  2.46971E-09  2.34801E-09  2.24071E-09  2.14116E-09  2.04625E-09  1.95431E-09  1.86440E-09  1.77602E-09  1.68883E-09
   1.60263E-09  1.51731E-09  1.43279E-09  1.34910E-09  1.26617E-09  1.18405E-09  1.10276E-09  1.02236E-09  9.42856E-10  8.64327E-10
   7.86819E-10  7.10386E-10  6.35094E-10  5.60995E-10  4.88159E-10  4.16642E-10  3.46534E-10  2.77859E-10  2.10705E-10  1.45029E-10
   8.08193E-11  1.80463E-11 -4.33074E-11 -1.03273E-10 -1.61866E-10 -2.19118E-10 -2.75042E-10 -3.29661E-10 -3.83007E-10 -4.35098E-10
  -4.85945E-10 -5.35583E-10 -5.84030E-10 -6.31304E-10 -6.77433E-10 -7.22435E-10 -7.66320E-10 -8.09134E-10 -8.50892E-10 -8.91595E-10
