 LCModel (Version 6.3-1R) Copyright: S.W. Provencher.          Ref.: Magn. Reson. Med. 30:672-679 (1993).                
 onepulse 16x16_ftSpec_smooth_lcm
 26 lines in following concentration table = NCONC+1
    Conc.  %SD /Cr+PCr  Metabolite                                         
 1.12E-10 226%  15.714 Ala                                                 
    0.000 999%   0.000 Asp                                                 
 7.15E-12 999%   1.000 Cr                                                  
 2.09E-10 198%  29.177 GABA                                                
    0.000 999%   0.000 Glc                                                 
 3.39E-09  15% 474.157 Gln                                                 
    0.000 999%   0.000 Glu                                                 
    0.000 999%   0.000 Glyc                                                
    0.000 999%   0.000 GPC                                                 
 5.65E-10  77%  79.030 GSH                                                 
 9.99E-10  25% 139.740 Ins                                                 
 1.42E-10 174%  19.863 Lac                                                 
 1.55E-10 100%  21.664 NAAG                                                
    0.000 999%   0.000 NAA                                                 
 2.74E-11 332%   3.831 PCh                                                 
    0.000 999%   0.000 PCr                                                 
    0.000 999%   0.000 PE                                                  
    0.000 999%   0.000 Scyllo                                              
 8.47E-10  63% 118.461 Ser                                                 
 1.94E-09  18% 271.275 Tau                                                 
 2.74E-11 332%   3.831 GPC+PCh                                             
 1.55E-10 100%  21.664 NAA+NAAG                                            
 9.99E-10  25% 139.740 Ins+Glyc                                            
 7.15E-12 999%   1.000 Cr+PCr                                              
 3.39E-09  15% 474.157 Glu+Gln                                             
   6 lines in following misc. output table
  FWHM = 0.123 ppm    S/N =   3                                            
  Data shift = 0.447 ppm                                                   
  Ph:  -2 deg     -36.9 deg/ppm                                            
  alphaB,S = 9.3E-01,   1.5E+01                                            
    9 spline knots.   Ns = 5(1)                                            
  ( 6) 6 infls.   ( 5) 3 extrs.                                            
  363 points on ppm-axis = NY
      4.250000     4.238821     4.227641     4.216462     4.205282     4.194103     4.182923     4.171744     4.160564     4.149385
      4.138206     4.127026     4.115847     4.104667     4.093488     4.082308     4.071129     4.059949     4.048770     4.037591
      4.026411     4.015232     4.004052     3.992873     3.981693     3.970514     3.959334     3.948155     3.936975     3.925796
      3.914617     3.903437     3.892258     3.881078     3.869899     3.858719     3.847540     3.836360     3.825181     3.814002
      3.802822     3.791643     3.780463     3.769284     3.758104     3.746925     3.735745     3.724566     3.713387     3.702207
      3.691028     3.679848     3.668669     3.657489     3.646310     3.635130     3.623951     3.612772     3.601592     3.590413
      3.579233     3.568054     3.556874     3.545695     3.534515     3.523336     3.512156     3.500977     3.489798     3.478618
      3.467439     3.456259     3.445080     3.433900     3.422721     3.411541     3.400362     3.389183     3.378003     3.366824
      3.355644     3.344465     3.333285     3.322106     3.310926     3.299747     3.288568     3.277388     3.266209     3.255029
      3.243850     3.232670     3.221491     3.210311     3.199132     3.187953     3.176773     3.165594     3.154414     3.143235
      3.132055     3.120876     3.109696     3.098517     3.087337     3.076158     3.064979     3.053799     3.042620     3.031440
      3.020261     3.009081     2.997902     2.986722     2.975543     2.964364     2.953184     2.942005     2.930825     2.919646
      2.908466     2.897287     2.886107     2.874928     2.863749     2.852569     2.841390     2.830210     2.819031     2.807851
      2.796672     2.785492     2.774313     2.763134     2.751954     2.740775     2.729595     2.718416     2.707236     2.696057
      2.684877     2.673698     2.662519     2.651339     2.640160     2.628980     2.617801     2.606621     2.595442     2.584262
      2.573083     2.561903     2.550724     2.539545     2.528365     2.517186     2.506006     2.494827     2.483647     2.472468
      2.461288     2.450109     2.438930     2.427750     2.416571     2.405391     2.394212     2.383032     2.371853     2.360673
      2.349494     2.338315     2.327135     2.315956     2.304776     2.293597     2.282417     2.271238     2.260058     2.248879
      2.237700     2.226520     2.215341     2.204161     2.192982     2.181802     2.170623     2.159443     2.148264     2.137084
      2.125905     2.114726     2.103546     2.092367     2.081187     2.070008     2.058828     2.047649     2.036469     2.025290
      2.014111     2.002931     1.991752     1.980572     1.969393     1.958213     1.947034     1.935854     1.924675     1.913496
      1.902316     1.891137     1.879957     1.868778     1.857598     1.846419     1.835239     1.824060     1.812881     1.801701
      1.790522     1.779342     1.768163     1.756983     1.745804     1.734624     1.723445     1.712265     1.701086     1.689907
      1.678727     1.667548     1.656368     1.645189     1.634009     1.622830     1.611650     1.600471     1.589292     1.578112
      1.566933     1.555753     1.544574     1.533394     1.522215     1.511035     1.499856     1.488677     1.477497     1.466318
      1.455138     1.443959     1.432779     1.421600     1.410420     1.399241     1.388062     1.376882     1.365703     1.354523
      1.343344     1.332164     1.320985     1.309805     1.298626     1.287446     1.276267     1.265088     1.253908     1.242729
      1.231549     1.220370     1.209190     1.198011     1.186831     1.175652     1.164473     1.153293     1.142114     1.130934
      1.119755     1.108575     1.097396     1.086216     1.075037     1.063858     1.052678     1.041499     1.030319     1.019140
      1.007960     0.996781     0.985601     0.974422     0.963243     0.952063     0.940884     0.929704     0.918525     0.907345
      0.896166     0.884986     0.873807     0.862628     0.851448     0.840269     0.829089     0.817910     0.806730     0.795551
      0.784371     0.773192     0.762012     0.750833     0.739654     0.728474     0.717295     0.706115     0.694936     0.683756
      0.672577     0.661397     0.650218     0.639039     0.627859     0.616680     0.605500     0.594321     0.583141     0.571962
      0.560782     0.549603     0.538424     0.527244     0.516065     0.504885     0.493706     0.482526     0.471347     0.460167
      0.448988     0.437809     0.426629     0.415450     0.404270     0.393091     0.381911     0.370732     0.359552     0.348373
      0.337193     0.326014     0.314835     0.303655     0.292476     0.281296     0.270117     0.258937     0.247758     0.236578
      0.225399     0.214220     0.203040
 NY phased data points follow
   1.07278E-08  1.02932E-08  1.07882E-08  1.07495E-08  1.14231E-08  1.13315E-08  1.14063E-08  1.12422E-08  1.14630E-08  1.06907E-08
   1.11826E-08  1.03501E-08  1.01827E-08  9.53398E-09  1.02948E-08  1.06083E-08  1.21745E-08  1.11754E-08  1.07057E-08  1.01429E-08
   1.07305E-08  1.00802E-08  1.16709E-08  1.25110E-08  1.36624E-08  1.27957E-08  1.29470E-08  1.16982E-08  1.04869E-08  1.02284E-08
   9.51410E-09  9.16871E-09  8.96422E-09  8.67162E-09  8.34810E-09  7.96110E-09  8.36008E-09  7.69174E-09  7.26442E-09  6.22410E-09
   6.75667E-09  7.04001E-09  7.07379E-09  6.80670E-09  6.83838E-09  6.11054E-09  6.12252E-09  5.72120E-09  5.47815E-09  5.00170E-09
   4.84115E-09  4.44650E-09  5.02846E-09  6.92721E-09  1.01135E-08  1.30841E-08  1.38401E-08  1.25476E-08  1.17477E-08  1.04322E-08
   9.88062E-09  9.69968E-09  8.61840E-09  7.78636E-09  7.49053E-09  7.31750E-09  5.39960E-09  4.25541E-09  4.49065E-09  5.53639E-09
   7.13297E-09  1.04580E-08  1.29283E-08  1.32933E-08  1.33818E-08  1.26477E-08  1.15084E-08  1.19415E-08  1.06383E-08  1.09183E-08
   1.05176E-08  1.06702E-08  1.01783E-08  9.87524E-09  9.95459E-09  9.55218E-09  8.74533E-09  8.39667E-09  8.71947E-09  7.56690E-09
   7.42085E-09  7.16515E-09  7.36635E-09  6.88274E-09  6.79601E-09  7.18712E-09  6.86657E-09  7.24576E-09  7.02116E-09  6.72480E-09
   6.23013E-09  5.17320E-09  4.97703E-09  4.79394E-09  4.93717E-09  5.51969E-09  5.51345E-09  5.15766E-09  5.21178E-09  5.80471E-09
   5.90816E-09  6.29802E-09  6.43600E-09  6.97507E-09  6.27255E-09  5.60606E-09  4.95633E-09  5.00667E-09  4.26756E-09  4.19266E-09
   4.34269E-09  4.53319E-09  4.45680E-09  3.99886E-09  5.06569E-09  4.28930E-09  4.67424E-09  4.29623E-09  3.52627E-09  3.15779E-09
   3.05343E-09  3.43432E-09  4.25865E-09  5.36774E-09  4.71596E-09  4.39880E-09  4.70562E-09  5.08716E-09  5.26640E-09  5.79934E-09
   5.73589E-09  5.28299E-09  5.30749E-09  5.22264E-09  4.88598E-09  5.35790E-09  5.14775E-09  5.25525E-09  4.84171E-09  4.49202E-09
   5.00481E-09  5.50223E-09  5.67718E-09  5.59297E-09  4.97736E-09  4.70901E-09  4.13171E-09  3.18560E-09  2.25600E-09  2.11528E-09
   1.92215E-09  2.95801E-09  6.52409E-09  1.18818E-08  1.44394E-08  1.57089E-08  1.55061E-08  1.50071E-08  1.47100E-08  1.54483E-08
   1.44631E-08  1.43136E-08  1.36448E-08  1.40006E-08  1.36075E-08  1.42738E-08  1.35656E-08  1.29196E-08  1.31564E-08  1.23892E-08
   1.17338E-08  1.11303E-08  9.76884E-09  9.18168E-09  8.34986E-09  7.20534E-09  4.77574E-09  4.30261E-09  2.72232E-09  1.68478E-09
  -2.98135E-10 -1.34864E-09 -2.77129E-09 -3.10212E-09 -3.71247E-09 -4.55055E-09 -5.13259E-09 -4.69657E-09 -4.91477E-09 -4.04134E-09
  -4.11414E-09 -3.89416E-09 -3.17474E-09 -2.19520E-09 -1.62480E-09 -1.55836E-09 -6.53821E-10 -6.52742E-10 -1.32467E-09 -4.02511E-10
  -1.73501E-10 -1.26496E-09 -1.54679E-09 -8.16451E-10 -2.80183E-10 -1.22601E-09 -1.08615E-10  3.23701E-10 -3.37050E-10  4.34853E-11
  -8.45728E-10  1.14179E-10 -5.36231E-10 -2.66834E-10 -9.89586E-10 -8.22182E-10 -4.42423E-10 -9.87967E-11 -5.94119E-10  6.47689E-10
  -5.60921E-11  1.89427E-11 -7.44695E-10 -4.33776E-10 -2.63148E-10 -5.52307E-10 -1.30768E-09 -5.70180E-10 -1.95222E-10 -1.06751E-09
  -9.17093E-11 -6.02863E-10 -9.88904E-10  1.47407E-11 -9.48044E-10  2.12353E-10  2.72105E-10  4.04806E-10  6.34838E-10  1.28358E-12
   5.97268E-11  5.41844E-10  1.98040E-11 -5.36783E-10 -4.98902E-10 -6.99757E-10 -1.40321E-09 -1.19649E-09 -2.12281E-09 -1.10356E-09
  -1.65673E-09 -1.65328E-09 -1.21896E-09 -8.62944E-10 -9.89542E-10 -3.17991E-10 -7.97128E-10 -4.50670E-10 -8.86068E-11  7.18479E-11
  -5.80615E-11  1.37257E-10  8.92350E-11  4.20459E-10  1.43072E-12 -2.54032E-10  1.70228E-10  2.02862E-10  4.25118E-10  5.62168E-10
  -3.46797E-10 -5.19908E-11  2.37923E-10  5.28917E-11 -5.47277E-10 -1.84360E-10 -3.92983E-10  2.29206E-10 -5.07920E-10 -1.80234E-10
  -4.12329E-10 -7.59889E-10  3.21139E-10 -4.34710E-10 -8.40066E-10 -4.88496E-10 -5.11943E-10 -2.67224E-10 -1.09361E-09 -1.12741E-09
  -6.48244E-10 -4.71023E-10 -1.24348E-09 -8.98838E-10 -9.99847E-10 -1.04019E-09 -1.32265E-09 -1.04969E-09 -8.63832E-10 -1.31637E-09
  -1.63730E-09 -1.03573E-09 -1.51364E-09 -1.30555E-09 -1.60545E-09 -1.19403E-09 -1.74479E-09 -1.60265E-09 -1.38743E-09 -1.57871E-09
  -1.41836E-09 -1.56434E-09 -1.39063E-09 -1.46190E-09 -2.10133E-09 -1.50405E-09 -2.00568E-09 -1.46390E-09 -2.05593E-09 -1.71000E-09
  -2.23614E-09 -1.74539E-09 -1.70108E-09 -2.14089E-09 -2.17597E-09 -1.57007E-09 -2.38252E-09 -1.89626E-09 -2.21793E-09 -1.80311E-09
  -2.59972E-09 -2.04321E-09 -1.74297E-09 -2.19580E-09 -2.09083E-09 -2.28902E-09 -2.21390E-09 -2.43572E-09 -2.25296E-09 -1.62018E-09
  -2.35095E-09 -2.42627E-09 -1.84512E-09 -2.67405E-09 -1.44686E-09 -2.47023E-09 -2.60194E-09 -2.07816E-09 -2.02458E-09 -2.09005E-09
  -2.42575E-09 -2.26263E-09 -2.15393E-09
 NY points of the fit to the data follow
   1.19493E-08  1.15372E-08  1.06587E-08  1.03111E-08  1.05933E-08  1.08701E-08  1.05886E-08  1.08707E-08  1.14009E-08  1.12690E-08
   1.04393E-08  9.44664E-09  9.45299E-09  9.98166E-09  1.06139E-08  1.11119E-08  1.15784E-08  1.23636E-08  1.18624E-08  1.04116E-08
   1.01432E-08  1.11683E-08  1.20252E-08  1.28174E-08  1.31363E-08  1.28603E-08  1.21579E-08  1.11535E-08  1.01593E-08  1.01219E-08
   1.02987E-08  1.00343E-08  9.60274E-09  9.17234E-09  8.70451E-09  8.10541E-09  7.53314E-09  7.16056E-09  6.86846E-09  6.54780E-09
   6.32053E-09  6.28758E-09  6.31945E-09  6.21627E-09  6.04244E-09  5.78909E-09  5.74860E-09  5.53023E-09  5.46117E-09  5.62632E-09
   6.05915E-09  6.70738E-09  7.81903E-09  9.22169E-09  9.49874E-09  1.03036E-08  1.16792E-08  1.19474E-08  1.14172E-08  1.13523E-08
   1.14910E-08  1.13930E-08  1.09078E-08  1.00306E-08  9.47866E-09  9.55028E-09  8.57633E-09  7.53797E-09  7.31897E-09  8.13716E-09
   8.86979E-09  8.85142E-09  9.76025E-09  1.09749E-08  1.12214E-08  1.15930E-08  1.21687E-08  1.24129E-08  1.23462E-08  1.20533E-08
   1.13221E-08  1.09493E-08  1.07504E-08  9.73270E-09  9.09765E-09  8.84164E-09  7.93750E-09  7.10679E-09  6.70305E-09  6.44085E-09
   6.23074E-09  6.08563E-09  5.99582E-09  5.87786E-09  5.74389E-09  5.69244E-09  5.63108E-09  5.54356E-09  5.51207E-09  5.52719E-09
   5.63914E-09  5.60687E-09  5.52924E-09  5.61704E-09  5.67503E-09  5.66246E-09  5.69140E-09  5.85585E-09  5.87293E-09  5.86989E-09
   5.89923E-09  5.83769E-09  5.81836E-09  5.72367E-09  5.58115E-09  5.54789E-09  5.49656E-09  5.37835E-09  5.26373E-09  5.26456E-09
   5.15186E-09  4.99656E-09  4.92465E-09  4.87640E-09  4.83719E-09  4.80218E-09  4.76932E-09  4.73756E-09  4.70633E-09  4.67526E-09
   4.64413E-09  4.61279E-09  4.58113E-09  4.54908E-09  4.51660E-09  4.48365E-09  4.45020E-09  4.41624E-09  4.38178E-09  4.34682E-09
   4.31136E-09  4.27543E-09  4.23904E-09  4.20223E-09  4.16503E-09  4.12751E-09  4.08971E-09  4.05172E-09  4.01364E-09  3.97559E-09
   3.93773E-09  3.90028E-09  3.86353E-09  3.82787E-09  3.79382E-09  3.76216E-09  3.73403E-09  3.71115E-09  3.69629E-09  3.69415E-09
   3.71322E-09  3.77061E-09  3.90574E-09  4.23225E-09  5.22508E-09  9.24116E-09  1.25307E-08  1.66279E-08  1.81374E-08  1.68465E-08
   1.48700E-08  1.35714E-08  1.31176E-08  1.34956E-08  1.43773E-08  1.46754E-08  1.27921E-08  1.04407E-08  6.29421E-09  4.18530E-09
   3.50176E-09  3.15926E-09  2.94040E-09  2.77996E-09  2.65175E-09  2.54319E-09  2.44751E-09  2.36072E-09  2.28032E-09  2.20470E-09
   2.13271E-09  2.06359E-09  1.99677E-09  1.93182E-09  1.86845E-09  1.80639E-09  1.74548E-09  1.68557E-09  1.62655E-09  1.56834E-09
   1.51087E-09  1.45407E-09  1.39791E-09  1.34237E-09  1.28740E-09  1.23300E-09  1.17915E-09  1.12585E-09  1.07307E-09  1.02083E-09
   9.69127E-10  9.17962E-10  8.67337E-10  8.17264E-10  7.67731E-10  7.18762E-10  6.70373E-10  6.22561E-10  5.75333E-10  5.28715E-10
   4.82715E-10  4.37344E-10  3.92614E-10  3.48536E-10  3.05118E-10  2.62401E-10  2.20371E-10  1.79050E-10  1.38467E-10  9.86260E-11
   5.95413E-11  2.12335E-11 -1.62811E-11 -5.29944E-11 -8.88825E-11 -1.23928E-10 -1.58122E-10 -1.91445E-10 -2.23879E-10 -2.55402E-10
  -2.86009E-10 -3.15675E-10 -3.44386E-10 -3.72151E-10 -3.98993E-10 -4.24938E-10 -4.50007E-10 -4.74223E-10 -4.97610E-10 -5.20193E-10
  -5.41993E-10 -5.63036E-10 -5.83343E-10 -6.02938E-10 -6.21845E-10 -6.40083E-10 -6.57681E-10 -6.74658E-10 -6.91040E-10 -7.06847E-10
  -7.22104E-10 -7.36836E-10 -7.51062E-10 -7.64806E-10 -7.78093E-10 -7.90944E-10 -8.03381E-10 -8.15431E-10 -8.27114E-10 -8.38452E-10
  -8.49472E-10 -8.60190E-10 -8.70637E-10 -8.80829E-10 -8.90793E-10 -9.00550E-10 -9.10125E-10 -9.19537E-10 -9.28812E-10 -9.37970E-10
  -9.47035E-10 -9.56036E-10 -9.64986E-10 -9.73911E-10 -9.82835E-10 -9.91783E-10 -1.00077E-09 -1.00983E-09 -1.01898E-09 -1.02824E-09
  -1.03763E-09 -1.04718E-09 -1.05691E-09 -1.06684E-09 -1.07700E-09 -1.08742E-09 -1.09810E-09 -1.10907E-09 -1.12036E-09 -1.13198E-09
  -1.14397E-09 -1.15635E-09 -1.16913E-09 -1.18233E-09 -1.19593E-09 -1.20993E-09 -1.22432E-09 -1.23909E-09 -1.25423E-09 -1.26972E-09
  -1.28556E-09 -1.30174E-09 -1.31824E-09 -1.33507E-09 -1.35219E-09 -1.36962E-09 -1.38733E-09 -1.40531E-09 -1.42356E-09 -1.44207E-09
  -1.46083E-09 -1.47981E-09 -1.49903E-09 -1.51845E-09 -1.53809E-09 -1.55792E-09 -1.57793E-09 -1.59811E-09 -1.61846E-09 -1.63896E-09
  -1.65961E-09 -1.68040E-09 -1.70130E-09 -1.72232E-09 -1.74344E-09 -1.76465E-09 -1.78595E-09 -1.80732E-09 -1.82875E-09 -1.85023E-09
  -1.87176E-09 -1.89332E-09 -1.91490E-09 -1.93649E-09 -1.95808E-09 -1.97967E-09 -2.00123E-09 -2.02277E-09 -2.04427E-09 -2.06572E-09
  -2.08711E-09 -2.10843E-09 -2.12967E-09 -2.15082E-09 -2.17187E-09 -2.19281E-09 -2.21363E-09 -2.23432E-09 -2.25487E-09 -2.27528E-09
  -2.29552E-09 -2.31559E-09 -2.33548E-09
 NY background values follow
     1.672E-09    1.696E-09    1.720E-09    1.744E-09    1.768E-09    1.792E-09    1.816E-09    1.840E-09    1.864E-09    1.888E-09
     1.912E-09    1.936E-09    1.960E-09    1.984E-09    2.008E-09    2.032E-09    2.055E-09    2.079E-09    2.103E-09    2.127E-09
     2.151E-09    2.175E-09    2.199E-09    2.223E-09    2.247E-09    2.270E-09    2.294E-09    2.318E-09    2.342E-09    2.366E-09
     2.390E-09    2.414E-09    2.438E-09    2.461E-09    2.485E-09    2.509E-09    2.533E-09    2.557E-09    2.581E-09    2.604E-09
     2.628E-09    2.652E-09    2.676E-09    2.700E-09    2.723E-09    2.747E-09    2.771E-09    2.795E-09    2.819E-09    2.843E-09
     2.866E-09    2.890E-09    2.914E-09    2.938E-09    2.962E-09    2.985E-09    3.009E-09    3.033E-09    3.057E-09    3.080E-09
     3.104E-09    3.128E-09    3.152E-09    3.175E-09    3.199E-09    3.223E-09    3.246E-09    3.270E-09    3.293E-09    3.316E-09
     3.339E-09    3.362E-09    3.384E-09    3.407E-09    3.429E-09    3.451E-09    3.472E-09    3.494E-09    3.514E-09    3.535E-09
     3.555E-09    3.575E-09    3.595E-09    3.614E-09    3.632E-09    3.650E-09    3.668E-09    3.685E-09    3.702E-09    3.718E-09
     3.734E-09    3.749E-09    3.763E-09    3.777E-09    3.790E-09    3.803E-09    3.815E-09    3.826E-09    3.837E-09    3.846E-09
     3.855E-09    3.864E-09    3.871E-09    3.878E-09    3.884E-09    3.889E-09    3.893E-09    3.896E-09    3.899E-09    3.900E-09
     3.901E-09    3.900E-09    3.899E-09    3.897E-09    3.893E-09    3.889E-09    3.884E-09    3.877E-09    3.870E-09    3.861E-09
     3.851E-09    3.840E-09    3.828E-09    3.815E-09    3.800E-09    3.785E-09    3.768E-09    3.751E-09    3.732E-09    3.712E-09
     3.691E-09    3.670E-09    3.647E-09    3.623E-09    3.599E-09    3.573E-09    3.546E-09    3.519E-09    3.491E-09    3.461E-09
     3.431E-09    3.401E-09    3.369E-09    3.336E-09    3.303E-09    3.269E-09    3.234E-09    3.198E-09    3.162E-09    3.125E-09
     3.087E-09    3.049E-09    3.010E-09    2.970E-09    2.930E-09    2.889E-09    2.848E-09    2.806E-09    2.763E-09    2.720E-09
     2.676E-09    2.632E-09    2.587E-09    2.542E-09    2.497E-09    2.451E-09    2.404E-09    2.357E-09    2.310E-09    2.262E-09
     2.214E-09    2.166E-09    2.117E-09    2.068E-09    2.019E-09    1.970E-09    1.920E-09    1.870E-09    1.819E-09    1.769E-09
     1.718E-09    1.668E-09    1.617E-09    1.565E-09    1.514E-09    1.463E-09    1.411E-09    1.360E-09    1.308E-09    1.257E-09
     1.205E-09    1.154E-09    1.102E-09    1.051E-09    9.993E-10    9.479E-10    8.966E-10    8.455E-10    7.945E-10    7.436E-10
     6.929E-10    6.424E-10    5.921E-10    5.421E-10    4.922E-10    4.426E-10    3.933E-10    3.443E-10    2.957E-10    2.473E-10
     1.993E-10    1.517E-10    1.044E-10    5.758E-11    1.115E-11   -3.483E-11   -8.035E-11   -1.254E-10   -1.699E-10   -2.140E-10
    -2.575E-10   -3.004E-10   -3.428E-10   -3.846E-10   -4.258E-10   -4.664E-10   -5.063E-10   -5.456E-10   -5.842E-10   -6.221E-10
    -6.593E-10   -6.958E-10   -7.315E-10   -7.665E-10   -8.006E-10   -8.340E-10   -8.665E-10   -8.983E-10   -9.291E-10   -9.591E-10
    -9.882E-10   -1.016E-09   -1.044E-09   -1.070E-09   -1.095E-09   -1.120E-09   -1.144E-09   -1.167E-09   -1.189E-09   -1.210E-09
    -1.230E-09   -1.250E-09   -1.269E-09   -1.288E-09   -1.305E-09   -1.322E-09   -1.339E-09   -1.355E-09   -1.370E-09   -1.385E-09
    -1.399E-09   -1.412E-09   -1.426E-09   -1.438E-09   -1.451E-09   -1.462E-09   -1.474E-09   -1.485E-09   -1.495E-09   -1.506E-09
    -1.516E-09   -1.526E-09   -1.535E-09   -1.544E-09   -1.553E-09   -1.562E-09   -1.571E-09   -1.580E-09   -1.588E-09   -1.596E-09
    -1.604E-09   -1.613E-09   -1.621E-09   -1.629E-09   -1.637E-09   -1.645E-09   -1.653E-09   -1.661E-09   -1.670E-09   -1.678E-09
    -1.687E-09   -1.696E-09   -1.705E-09   -1.714E-09   -1.723E-09   -1.733E-09   -1.743E-09   -1.753E-09   -1.764E-09   -1.774E-09
    -1.786E-09   -1.797E-09   -1.809E-09   -1.822E-09   -1.835E-09   -1.848E-09   -1.862E-09   -1.876E-09   -1.890E-09   -1.905E-09
    -1.920E-09   -1.936E-09   -1.952E-09   -1.968E-09   -1.984E-09   -2.001E-09   -2.018E-09   -2.036E-09   -2.053E-09   -2.071E-09
    -2.089E-09   -2.108E-09   -2.126E-09   -2.145E-09   -2.164E-09   -2.183E-09   -2.203E-09   -2.222E-09   -2.242E-09   -2.262E-09
    -2.282E-09   -2.302E-09   -2.323E-09   -2.343E-09   -2.364E-09   -2.384E-09   -2.405E-09   -2.426E-09   -2.447E-09   -2.468E-09
    -2.489E-09   -2.510E-09   -2.531E-09   -2.552E-09   -2.573E-09   -2.594E-09   -2.615E-09   -2.636E-09   -2.657E-09   -2.678E-09
    -2.698E-09   -2.719E-09   -2.740E-09   -2.761E-09   -2.781E-09   -2.802E-09   -2.822E-09   -2.842E-09   -2.862E-09   -2.882E-09
    -2.902E-09   -2.921E-09   -2.941E-09
 Ala      Conc. = 1.12E-10
   1.74974E-09  1.78276E-09  1.80300E-09  1.82610E-09  1.85158E-09  1.87852E-09  1.90307E-09  1.91140E-09  1.92407E-09  1.95792E-09
   1.97202E-09  1.97703E-09  2.00040E-09  2.02065E-09  2.03635E-09  2.05522E-09  2.07576E-09  2.09724E-09  2.11930E-09  2.14174E-09
   2.16446E-09  2.18739E-09  2.21046E-09  2.23364E-09  2.25692E-09  2.28027E-09  2.30368E-09  2.32714E-09  2.35063E-09  2.37416E-09
   2.39772E-09  2.42130E-09  2.44490E-09  2.46851E-09  2.49215E-09  2.51579E-09  2.53944E-09  2.56310E-09  2.58677E-09  2.61045E-09
   2.63413E-09  2.65782E-09  2.68151E-09  2.70520E-09  2.72890E-09  2.75260E-09  2.77630E-09  2.80000E-09  2.82371E-09  2.84742E-09
   2.87112E-09  2.89483E-09  2.91854E-09  2.94225E-09  2.96596E-09  2.98967E-09  3.01338E-09  3.03709E-09  3.06080E-09  3.08451E-09
   3.10822E-09  3.13193E-09  3.15562E-09  3.17929E-09  3.20290E-09  3.22645E-09  3.24990E-09  3.27325E-09  3.29647E-09  3.31955E-09
   3.34246E-09  3.36519E-09  3.38772E-09  3.41003E-09  3.43210E-09  3.45391E-09  3.47545E-09  3.49670E-09  3.51764E-09  3.53825E-09
   3.55852E-09  3.57843E-09  3.59796E-09  3.61711E-09  3.63586E-09  3.65420E-09  3.67214E-09  3.68965E-09  3.70675E-09  3.72346E-09
   3.73981E-09  3.75586E-09  3.77169E-09  3.78749E-09  3.80356E-09  3.82046E-09  3.83938E-09  3.86306E-09  3.89947E-09  3.98055E-09
   4.15758E-09  4.17305E-09  4.13587E-09  4.25716E-09  4.33610E-09  4.32155E-09  4.27750E-09  4.27617E-09  4.30822E-09  4.30355E-09
   4.22426E-09  4.13370E-09  4.17629E-09  4.15100E-09  4.02331E-09  3.97288E-09  3.94597E-09  3.92704E-09  3.91135E-09  3.89695E-09
   3.88288E-09  3.86864E-09  3.85392E-09  3.83855E-09  3.82243E-09  3.80547E-09  3.78765E-09  3.76892E-09  3.74929E-09  3.72873E-09
   3.70724E-09  3.68484E-09  3.66150E-09  3.63726E-09  3.61211E-09  3.58607E-09  3.55914E-09  3.53133E-09  3.50268E-09  3.47317E-09
   3.44283E-09  3.41167E-09  3.37971E-09  3.34697E-09  3.31345E-09  3.27917E-09  3.24415E-09  3.20840E-09  3.17195E-09  3.13480E-09
   3.09699E-09  3.05850E-09  3.01939E-09  2.97966E-09  2.93932E-09  2.89841E-09  2.85696E-09  2.81498E-09  2.77253E-09  2.72965E-09
   2.68642E-09  2.64297E-09  2.59954E-09  2.55665E-09  2.51560E-09  2.48093E-09  2.47674E-09  2.55811E-09  2.55254E-09  2.47388E-09
   2.38704E-09  2.32246E-09  2.26511E-09  2.20707E-09  2.16435E-09  2.14641E-09  2.11813E-09  2.02679E-09  1.87791E-09  1.80143E-09
   1.74177E-09  1.68655E-09  1.63299E-09  1.58018E-09  1.52775E-09  1.47552E-09  1.42341E-09  1.37137E-09  1.31938E-09  1.26744E-09
   1.21553E-09  1.16369E-09  1.11190E-09  1.06019E-09  1.00856E-09  9.57023E-10  9.05606E-10  8.54319E-10  8.03174E-10  7.52195E-10
   7.01397E-10  6.50786E-10  6.00390E-10  5.50228E-10  5.00310E-10  4.50656E-10  4.01281E-10  3.52219E-10  3.03466E-10  2.55046E-10
   2.06979E-10  1.59289E-10  1.11987E-10  6.50967E-11  1.86207E-11 -2.74102E-11 -7.29729E-11 -1.18060E-10 -1.62657E-10 -2.06734E-10
  -2.50274E-10 -2.93263E-10 -3.35685E-10 -3.77524E-10 -4.18765E-10 -4.59367E-10 -4.99341E-10 -5.38658E-10 -5.77288E-10 -6.15226E-10
  -6.52454E-10 -6.88948E-10 -7.24693E-10 -7.59675E-10 -7.93869E-10 -8.27258E-10 -8.59830E-10 -8.91564E-10 -9.22443E-10 -9.52439E-10
  -9.81551E-10 -1.00975E-09 -1.03702E-09 -1.06337E-09 -1.08882E-09 -1.11340E-09 -1.13713E-09 -1.16003E-09 -1.18212E-09 -1.20342E-09
  -1.22397E-09 -1.24378E-09 -1.26287E-09 -1.28126E-09 -1.29899E-09 -1.31606E-09 -1.33252E-09 -1.34837E-09 -1.36363E-09 -1.37834E-09
  -1.39252E-09 -1.40618E-09 -1.41935E-09 -1.43205E-09 -1.44431E-09 -1.45615E-09 -1.46759E-09 -1.47865E-09 -1.48935E-09 -1.49972E-09
  -1.50979E-09 -1.51957E-09 -1.52908E-09 -1.53835E-09 -1.54740E-09 -1.55626E-09 -1.56495E-09 -1.57348E-09 -1.58188E-09 -1.59018E-09
  -1.59839E-09 -1.60655E-09 -1.61466E-09 -1.62276E-09 -1.63086E-09 -1.63900E-09 -1.64719E-09 -1.65545E-09 -1.66381E-09 -1.67229E-09
  -1.68091E-09 -1.68969E-09 -1.69867E-09 -1.70785E-09 -1.71726E-09 -1.72694E-09 -1.73689E-09 -1.74713E-09 -1.75770E-09 -1.76861E-09
  -1.77989E-09 -1.79157E-09 -1.80365E-09 -1.81616E-09 -1.82908E-09 -1.84240E-09 -1.85611E-09 -1.87021E-09 -1.88468E-09 -1.89952E-09
  -1.91470E-09 -1.93023E-09 -1.94609E-09 -1.96227E-09 -1.97876E-09 -1.99555E-09 -2.01263E-09 -2.03000E-09 -2.04763E-09 -2.06552E-09
  -2.08366E-09 -2.10204E-09 -2.12065E-09 -2.13948E-09 -2.15851E-09 -2.17775E-09 -2.19717E-09 -2.21677E-09 -2.23654E-09 -2.25646E-09
  -2.27653E-09 -2.29674E-09 -2.31707E-09 -2.33752E-09 -2.35808E-09 -2.37873E-09 -2.39947E-09 -2.42028E-09 -2.44116E-09 -2.46209E-09
  -2.48307E-09 -2.50408E-09 -2.52512E-09 -2.54617E-09 -2.56723E-09 -2.58828E-09 -2.60931E-09 -2.63031E-09 -2.65128E-09 -2.67220E-09
  -2.69306E-09 -2.71386E-09 -2.73457E-09 -2.75521E-09 -2.77574E-09 -2.79616E-09 -2.81646E-09 -2.83664E-09 -2.85668E-09 -2.87657E-09
  -2.89630E-09 -2.91586E-09 -2.93524E-09
 Cr       Conc. = 7.15E-12
   1.69402E-09  1.72194E-09  1.74238E-09  1.75360E-09  1.77334E-09  1.79574E-09  1.81889E-09  1.84233E-09  1.86593E-09  1.88962E-09
   1.91335E-09  1.93712E-09  1.96091E-09  1.98472E-09  2.00853E-09  2.03236E-09  2.05618E-09  2.08001E-09  2.10384E-09  2.12767E-09
   2.15150E-09  2.17533E-09  2.19916E-09  2.22299E-09  2.24683E-09  2.27068E-09  2.29457E-09  2.31853E-09  2.34266E-09  2.36727E-09
   2.39362E-09  2.43014E-09  2.47438E-09  2.50297E-09  2.52121E-09  2.53948E-09  2.56102E-09  2.58328E-09  2.60611E-09  2.63262E-09
   2.66263E-09  2.68839E-09  2.70149E-09  2.71073E-09  2.73051E-09  2.75261E-09  2.77547E-09  2.79866E-09  2.82204E-09  2.84553E-09
   2.86908E-09  2.89268E-09  2.91631E-09  2.93997E-09  2.96364E-09  2.98733E-09  3.01103E-09  3.03474E-09  3.05845E-09  3.08217E-09
   3.10590E-09  3.12962E-09  3.15334E-09  3.17703E-09  3.20067E-09  3.22424E-09  3.24772E-09  3.27109E-09  3.29434E-09  3.31744E-09
   3.34038E-09  3.36313E-09  3.38568E-09  3.40800E-09  3.43008E-09  3.45191E-09  3.47344E-09  3.49469E-09  3.51561E-09  3.53619E-09
   3.55642E-09  3.57627E-09  3.59572E-09  3.61476E-09  3.63336E-09  3.65151E-09  3.66919E-09  3.68638E-09  3.70305E-09  3.71920E-09
   3.73479E-09  3.74982E-09  3.76426E-09  3.77809E-09  3.79130E-09  3.80386E-09  3.81575E-09  3.82696E-09  3.83747E-09  3.84726E-09
   3.85630E-09  3.86459E-09  3.87209E-09  3.87879E-09  3.88468E-09  3.88973E-09  3.89392E-09  3.89723E-09  3.89966E-09  3.90116E-09
   3.90173E-09  3.90135E-09  3.89999E-09  3.89764E-09  3.89429E-09  3.88990E-09  3.88446E-09  3.87796E-09  3.87037E-09  3.86167E-09
   3.85184E-09  3.84087E-09  3.82874E-09  3.81549E-09  3.80111E-09  3.78562E-09  3.76905E-09  3.75141E-09  3.73272E-09  3.71299E-09
   3.69223E-09  3.67048E-09  3.64773E-09  3.62401E-09  3.59934E-09  3.57373E-09  3.54719E-09  3.51975E-09  3.49143E-09  3.46223E-09
   3.43217E-09  3.40128E-09  3.36956E-09  3.33705E-09  3.30374E-09  3.26965E-09  3.23481E-09  3.19923E-09  3.16292E-09  3.12591E-09
   3.08822E-09  3.04985E-09  3.01082E-09  2.97116E-09  2.93087E-09  2.88997E-09  2.84850E-09  2.80645E-09  2.76384E-09  2.72071E-09
   2.67706E-09  2.63292E-09  2.58833E-09  2.54332E-09  2.49801E-09  2.45268E-09  2.40887E-09  2.37019E-09  2.32561E-09  2.27600E-09
   2.22552E-09  2.17614E-09  2.12693E-09  2.07738E-09  2.02852E-09  1.98101E-09  1.93262E-09  1.87999E-09  1.82343E-09  1.77131E-09
   1.72009E-09  1.66899E-09  1.61785E-09  1.56663E-09  1.51532E-09  1.46393E-09  1.41247E-09  1.36095E-09  1.30939E-09  1.25780E-09
   1.20621E-09  1.15462E-09  1.10306E-09  1.05155E-09  1.00011E-09  9.48730E-10  8.97459E-10  8.46305E-10  7.95281E-10  7.44415E-10
   6.93719E-10  6.43205E-10  5.92898E-10  5.42819E-10  4.92979E-10  4.43398E-10  3.94092E-10  3.45096E-10  2.96405E-10  2.48044E-10
   2.00033E-10  1.52397E-10  1.05146E-10  5.83044E-11  1.18753E-11 -3.41107E-11 -7.96303E-11 -1.24675E-10 -1.69233E-10 -2.13271E-10
  -2.56774E-10 -2.99728E-10 -3.42114E-10 -3.83920E-10 -4.25129E-10 -4.65699E-10 -5.05642E-10 -5.44930E-10 -5.83532E-10 -6.21442E-10
