 LCModel (Version 6.3-1R) Copyright: S.W. Provencher.          Ref.: Magn. Reson. Med. 30:672-679 (1993).                
 onepulse 16x12_ftSpec_smooth_lcm
 26 lines in following concentration table = NCONC+1
    Conc.  %SD   /Cr    Metabolite                                         
 3.38E-10  92%   0.000 Ala                                                 
    0.000 999%   0.000 Asp                                                 
    0.000 999%   0.000 Cr                                                  
 7.38E-10  80%   0.000 GABA                                                
    0.000 999%   0.000 Glc                                                 
 1.05E-09  61%   0.000 Gln                                                 
    0.000 999%   0.000 Glu                                                 
 2.16E-09  24%   0.000 Glyc                                                
    0.000 999%   0.000 GPC                                                 
 1.79E-09  27%   0.000 GSH                                                 
    0.000 999%   0.000 Ins                                                 
 8.04E-11 377%   0.000 Lac                                                 
 4.94E-10  68%   0.000 NAAG                                                
 1.60E-10 320%   0.000 NAA                                                 
    0.000 999%   0.000 PCh                                                 
    0.000 999%   0.000 PCr                                                 
 2.70E-09  38%   0.000 PE                                                  
 8.23E-11 337%   0.000 Scyllo                                              
 9.19E-11 999%   0.000 Ser                                                 
 1.32E-09  76%   0.000 Tau                                                 
    0.000 999%   0.000 GPC+PCh                                             
 6.54E-10  49%   0.000 NAA+NAAG                                            
 2.16E-09  24%   0.000 Ins+Glyc                                            
    0.000 999%   0.000 Cr+PCr                                              
 1.05E-09  61%   0.000 Glu+Gln                                             
   6 lines in following misc. output table
  FWHM = 0.123 ppm    S/N =   3                                            
  Data shift = 0.470 ppm                                                   
  Ph:  69 deg     -21.8 deg/ppm                                            
  alphaB,S = 7.3E-01,   2.2E+01                                            
   10 spline knots.   Ns = 5(1)                                            
  (12) 4 infls.   (11) 3 extrs.                                            
  363 points on ppm-axis = NY
      4.250000     4.238821     4.227641     4.216462     4.205282     4.194103     4.182923     4.171744     4.160564     4.149385
      4.138206     4.127026     4.115847     4.104667     4.093488     4.082308     4.071129     4.059949     4.048770     4.037591
      4.026411     4.015232     4.004052     3.992873     3.981693     3.970514     3.959334     3.948155     3.936975     3.925796
      3.914617     3.903437     3.892258     3.881078     3.869899     3.858719     3.847540     3.836360     3.825181     3.814002
      3.802822     3.791643     3.780463     3.769284     3.758104     3.746925     3.735745     3.724566     3.713387     3.702207
      3.691028     3.679848     3.668669     3.657489     3.646310     3.635130     3.623951     3.612772     3.601592     3.590413
      3.579233     3.568054     3.556874     3.545695     3.534515     3.523336     3.512156     3.500977     3.489798     3.478618
      3.467439     3.456259     3.445080     3.433900     3.422721     3.411541     3.400362     3.389183     3.378003     3.366824
      3.355644     3.344465     3.333285     3.322106     3.310926     3.299747     3.288568     3.277388     3.266209     3.255029
      3.243850     3.232670     3.221491     3.210311     3.199132     3.187953     3.176773     3.165594     3.154414     3.143235
      3.132055     3.120876     3.109696     3.098517     3.087337     3.076158     3.064979     3.053799     3.042620     3.031440
      3.020261     3.009081     2.997902     2.986722     2.975543     2.964364     2.953184     2.942005     2.930825     2.919646
      2.908466     2.897287     2.886107     2.874928     2.863749     2.852569     2.841390     2.830210     2.819031     2.807851
      2.796672     2.785492     2.774313     2.763134     2.751954     2.740775     2.729595     2.718416     2.707236     2.696057
      2.684877     2.673698     2.662519     2.651339     2.640160     2.628980     2.617801     2.606621     2.595442     2.584262
      2.573083     2.561903     2.550724     2.539545     2.528365     2.517186     2.506006     2.494827     2.483647     2.472468
      2.461288     2.450109     2.438930     2.427750     2.416571     2.405391     2.394212     2.383032     2.371853     2.360673
      2.349494     2.338315     2.327135     2.315956     2.304776     2.293597     2.282417     2.271238     2.260058     2.248879
      2.237700     2.226520     2.215341     2.204161     2.192982     2.181802     2.170623     2.159443     2.148264     2.137084
      2.125905     2.114726     2.103546     2.092367     2.081187     2.070008     2.058828     2.047649     2.036469     2.025290
      2.014111     2.002931     1.991752     1.980572     1.969393     1.958213     1.947034     1.935854     1.924675     1.913496
      1.902316     1.891137     1.879957     1.868778     1.857598     1.846419     1.835239     1.824060     1.812881     1.801701
      1.790522     1.779342     1.768163     1.756983     1.745804     1.734624     1.723445     1.712265     1.701086     1.689907
      1.678727     1.667548     1.656368     1.645189     1.634009     1.622830     1.611650     1.600471     1.589292     1.578112
      1.566933     1.555753     1.544574     1.533394     1.522215     1.511035     1.499856     1.488677     1.477497     1.466318
      1.455138     1.443959     1.432779     1.421600     1.410420     1.399241     1.388062     1.376882     1.365703     1.354523
      1.343344     1.332164     1.320985     1.309805     1.298626     1.287446     1.276267     1.265088     1.253908     1.242729
      1.231549     1.220370     1.209190     1.198011     1.186831     1.175652     1.164473     1.153293     1.142114     1.130934
      1.119755     1.108575     1.097396     1.086216     1.075037     1.063858     1.052678     1.041499     1.030319     1.019140
      1.007960     0.996781     0.985601     0.974422     0.963243     0.952063     0.940884     0.929704     0.918525     0.907345
      0.896166     0.884986     0.873807     0.862628     0.851448     0.840269     0.829089     0.817910     0.806730     0.795551
      0.784371     0.773192     0.762012     0.750833     0.739654     0.728474     0.717295     0.706115     0.694936     0.683756
      0.672577     0.661397     0.650218     0.639039     0.627859     0.616680     0.605500     0.594321     0.583141     0.571962
      0.560782     0.549603     0.538424     0.527244     0.516065     0.504885     0.493706     0.482526     0.471347     0.460167
      0.448988     0.437809     0.426629     0.415450     0.404270     0.393091     0.381911     0.370732     0.359552     0.348373
      0.337193     0.326014     0.314835     0.303655     0.292476     0.281296     0.270117     0.258937     0.247758     0.236578
      0.225399     0.214220     0.203040
 NY phased data points follow
   8.12242E-09  9.11986E-09  8.97402E-09  8.89267E-09  9.36440E-09  1.01013E-08  9.91659E-09  9.90656E-09  9.72330E-09  9.83326E-09
   9.05698E-09  8.97702E-09  8.72646E-09  9.35292E-09  8.91069E-09  1.07979E-08  1.01967E-08  1.04703E-08  8.72342E-09  8.50284E-09
   8.19417E-09  1.06799E-08  1.15150E-08  1.34126E-08  1.34365E-08  1.41684E-08  1.22715E-08  1.20576E-08  1.08575E-08  1.19875E-08
   1.02126E-08  1.10986E-08  1.03028E-08  1.03829E-08  9.67693E-09  1.06045E-08  8.70543E-09  8.74583E-09  7.39317E-09  8.51699E-09
   7.47357E-09  8.30545E-09  7.34817E-09  8.29383E-09  6.42981E-09  6.81590E-09  4.72114E-09  4.52544E-09  3.69584E-09  3.73616E-09
   1.98900E-09  2.05154E-09  3.51999E-09  8.41339E-09  1.06126E-08  1.26937E-08  1.05374E-08  1.19765E-08  1.00920E-08  1.06470E-08
   9.02194E-09  9.63210E-09  8.10895E-09  7.85522E-09  5.97873E-09  6.23978E-09  2.88300E-09  2.61935E-09  8.24210E-10  4.81790E-09
   8.34012E-09  1.18296E-08  1.16656E-08  1.26541E-08  1.20695E-08  1.31101E-08  1.22827E-08  1.24550E-08  1.19465E-08  1.29186E-08
   1.22583E-08  1.28416E-08  1.21473E-08  1.25170E-08  1.10150E-08  1.24241E-08  1.07411E-08  1.11186E-08  1.00908E-08  1.05428E-08
   9.03424E-09  9.62473E-09  9.65056E-09  9.96360E-09  9.09325E-09  9.39538E-09  9.02715E-09  9.57754E-09  9.32777E-09  8.93500E-09
   7.84116E-09  7.08157E-09  5.69460E-09  7.47637E-09  6.81055E-09  6.71891E-09  6.05634E-09  7.52150E-09  6.43054E-09  6.81512E-09
   6.88014E-09  8.93807E-09  7.64801E-09  7.94295E-09  7.07435E-09  7.40240E-09  5.12755E-09  5.96243E-09  5.93480E-09  6.13453E-09
   4.76690E-09  5.71542E-09  5.14977E-09  5.88204E-09  4.95793E-09  5.75723E-09  5.11569E-09  5.06899E-09  3.16658E-09  3.82847E-09
   4.59209E-09  6.02474E-09  5.64490E-09  6.18963E-09  4.81747E-09  5.96773E-09  6.06225E-09  7.11900E-09  6.89252E-09  7.96308E-09
   7.14079E-09  7.99593E-09  7.02354E-09  7.65255E-09  7.04450E-09  7.50005E-09  7.01779E-09  7.70591E-09  7.05901E-09  7.26610E-09
   7.05606E-09  7.63529E-09  6.86555E-09  7.62941E-09  6.58459E-09  6.36638E-09  4.38857E-09  5.08998E-09  3.55013E-09 -1.94940E-10
   6.41462E-12  7.31907E-09  1.24949E-08  1.57044E-08  1.61932E-08  1.73231E-08  1.86689E-08  1.93622E-08  1.91449E-08  1.96683E-08
   1.98312E-08  2.04020E-08  2.02814E-08  2.16313E-08  2.03338E-08  2.09109E-08  2.02859E-08  2.00196E-08  1.89784E-08  1.82042E-08
   1.60711E-08  1.43189E-08  1.21641E-08  1.09047E-08  8.46613E-09  6.16098E-09  3.69463E-09  2.57709E-09 -5.36786E-10 -2.00981E-09
  -3.83056E-09 -4.02791E-09 -5.53326E-09 -5.67016E-09 -5.46992E-09 -4.88571E-09 -5.03142E-09 -4.68767E-09 -3.69269E-09 -2.91707E-09
  -2.79966E-09 -7.14927E-10 -1.71538E-09 -1.05966E-09 -1.18724E-09 -6.57785E-10 -1.22393E-09 -9.10937E-10 -1.01185E-09 -1.34203E-09
  -1.60306E-09 -7.77558E-10 -8.57894E-10 -6.68963E-10 -7.36024E-10  2.21551E-10 -5.40713E-10 -6.65599E-11 -1.16162E-09 -9.26407E-10
  -9.90440E-10 -7.35420E-10 -9.70486E-10 -3.46634E-10 -1.19510E-09 -1.94794E-10 -5.01441E-10 -4.28220E-10 -5.24614E-11  1.72592E-10
  -1.15107E-09 -1.09526E-09 -1.03813E-09 -8.41567E-10 -1.46875E-09 -1.46142E-09 -1.68541E-09 -8.24668E-10 -8.60182E-10 -1.13704E-09
  -1.00198E-09 -4.77784E-10 -8.94350E-10 -5.79806E-11 -4.52194E-10 -5.77916E-11 -2.09958E-10 -1.41500E-10 -4.10700E-10  4.95774E-10
  -1.71856E-10 -7.48856E-10 -8.98085E-10 -1.01749E-09 -1.70774E-09 -1.67153E-09 -2.00597E-09 -2.25774E-09 -2.36934E-09 -2.54568E-09
  -2.46905E-09 -2.30510E-09 -1.98024E-09 -1.88614E-09 -1.72074E-09 -1.03746E-09 -1.07408E-09 -8.03578E-10 -8.94075E-10 -3.51475E-10
  -9.31416E-10 -6.46515E-11  4.73706E-11 -1.12154E-10 -4.55117E-10 -4.58418E-11  3.35945E-10  3.52648E-10 -5.71992E-10 -3.28925E-10
   3.49140E-10 -2.10463E-11 -4.97744E-10 -3.11811E-11  1.66984E-10 -3.56194E-10 -4.24619E-10 -4.73644E-11 -3.05378E-10 -4.06950E-10
  -3.00281E-10 -4.94960E-10 -7.93932E-10 -8.05320E-10 -5.17406E-10 -9.03836E-10 -1.16103E-09 -9.51867E-10 -1.52749E-09 -1.13845E-09
  -1.04503E-09 -1.22107E-09 -1.74301E-09 -1.45157E-09 -1.10821E-09 -1.67820E-09 -1.75183E-09 -1.96104E-09 -1.40997E-09 -1.73606E-09
  -1.80978E-09 -1.88833E-09 -1.86222E-09 -2.21333E-09 -2.52903E-09 -2.34554E-09 -2.10963E-09 -1.94867E-09 -2.06891E-09 -2.93846E-09
  -1.95599E-09 -2.12071E-09 -2.72185E-09 -2.19669E-09 -2.37309E-09 -2.58695E-09 -2.51256E-09 -2.41503E-09 -3.01628E-09 -2.76015E-09
  -2.77638E-09 -2.68031E-09 -2.93045E-09 -3.28157E-09 -3.05881E-09 -3.18517E-09 -2.86906E-09 -3.37971E-09 -4.07352E-09 -3.36672E-09
  -2.92029E-09 -3.66822E-09 -3.59764E-09 -3.30414E-09 -3.07723E-09 -3.40452E-09 -3.33706E-09 -3.57683E-09 -3.37806E-09 -3.93602E-09
  -3.68537E-09 -3.78110E-09 -3.37993E-09 -3.44312E-09 -4.09197E-09 -3.92096E-09 -3.98882E-09 -3.56829E-09 -4.01547E-09 -3.91280E-09
  -4.32534E-09 -3.90422E-09 -3.91069E-09
 NY points of the fit to the data follow
   1.05112E-08  9.72263E-09  9.38103E-09  8.97385E-09  8.93668E-09  9.02320E-09  9.25778E-09  9.70752E-09  1.07858E-08  9.86366E-09
   8.94192E-09  8.52850E-09  8.24025E-09  8.53549E-09  9.39854E-09  1.00473E-08  1.09191E-08  1.16718E-08  1.14089E-08  9.32181E-09
   8.44663E-09  9.50481E-09  1.07404E-08  1.19219E-08  1.23092E-08  1.27581E-08  1.29886E-08  1.26381E-08  1.25517E-08  1.26969E-08
   1.25044E-08  1.15554E-08  1.06632E-08  1.00671E-08  9.60364E-09  9.01174E-09  8.62910E-09  8.74382E-09  8.65516E-09  8.47704E-09
   8.36179E-09  8.49795E-09  8.56203E-09  8.01994E-09  7.17725E-09  6.42900E-09  5.91565E-09  4.99284E-09  4.75102E-09  4.94089E-09
   5.48768E-09  5.91581E-09  6.12598E-09  6.90250E-09  7.76190E-09  7.99163E-09  8.39900E-09  9.07181E-09  9.44356E-09  9.36738E-09
   9.25031E-09  9.05571E-09  9.18374E-09  8.96439E-09  8.23594E-09  8.17760E-09  8.37173E-09  7.96778E-09  7.66794E-09  8.17928E-09
   8.77971E-09  9.06592E-09  9.69041E-09  1.01090E-08  1.07144E-08  1.15714E-08  1.26334E-08  1.35312E-08  1.37907E-08  1.35927E-08
   1.31959E-08  1.28898E-08  1.24702E-08  1.20250E-08  1.18302E-08  1.12327E-08  1.01398E-08  8.77965E-09  7.92035E-09  7.59132E-09
   7.34969E-09  7.20154E-09  7.20408E-09  7.07526E-09  6.83301E-09  6.82843E-09  6.77610E-09  6.61138E-09  6.60676E-09  6.71058E-09
   6.98593E-09  6.99482E-09  6.96555E-09  7.25360E-09  7.43163E-09  7.47124E-09  7.51683E-09  7.60956E-09  7.65022E-09  7.64434E-09
   7.48684E-09  7.23469E-09  7.28635E-09  7.16470E-09  6.82683E-09  6.71681E-09  6.65525E-09  6.57572E-09  6.50146E-09  6.48754E-09
   6.42305E-09  6.34980E-09  6.32163E-09  6.30581E-09  6.29440E-09  6.28466E-09  6.27539E-09  6.26590E-09  6.25582E-09  6.24488E-09
   6.23290E-09  6.21975E-09  6.20534E-09  6.18958E-09  6.17244E-09  6.15384E-09  6.13376E-09  6.11216E-09  6.08904E-09  6.06437E-09
   6.03815E-09  6.01039E-09  5.98109E-09  5.95027E-09  5.91796E-09  5.88419E-09  5.84903E-09  5.81255E-09  5.77485E-09  5.73607E-09
   5.69636E-09  5.65597E-09  5.61518E-09  5.57440E-09  5.53419E-09  5.49529E-09  5.45882E-09  5.42639E-09  5.40047E-09  5.38484E-09
   5.38570E-09  5.41386E-09  5.48998E-09  5.65865E-09  6.03493E-09  7.01355E-09  1.06651E-08  1.86895E-08  2.17060E-08  2.11784E-08
   2.05392E-08  2.05295E-08  2.08117E-08  2.11796E-08  2.15742E-08  2.21641E-08  2.13858E-08  1.60214E-08  7.82834E-09  5.50605E-09
   4.63863E-09  4.17242E-09  3.86518E-09  3.63562E-09  3.44934E-09  3.28950E-09  3.14691E-09  3.01617E-09  2.89398E-09  2.77818E-09
   2.66731E-09  2.56039E-09  2.45670E-09  2.35580E-09  2.25728E-09  2.16091E-09  2.06650E-09  1.97396E-09  1.88315E-09  1.79406E-09
   1.70664E-09  1.62088E-09  1.53678E-09  1.45435E-09  1.37363E-09  1.29463E-09  1.21742E-09  1.14200E-09  1.06843E-09  9.96650E-10
   9.26629E-10  8.58317E-10  7.91681E-10  7.26674E-10  6.63267E-10  6.01417E-10  5.41098E-10  4.82276E-10  4.24911E-10  3.68974E-10
   3.14448E-10  2.61286E-10  2.09462E-10  1.58952E-10  1.09720E-10  6.17413E-11  1.50007E-11 -3.05562E-11 -7.49504E-11 -1.18189E-10
  -1.60311E-10 -2.01351E-10 -2.41322E-10 -2.80266E-10 -3.18196E-10 -3.55153E-10 -3.91156E-10 -4.26223E-10 -4.60390E-10 -4.93680E-10
  -5.26119E-10 -5.57730E-10 -5.88544E-10 -6.18587E-10 -6.47878E-10 -6.76448E-10 -7.04327E-10 -7.31546E-10 -7.58102E-10 -7.84033E-10
  -8.09379E-10 -8.34163E-10 -8.58397E-10 -8.82103E-10 -9.05340E-10 -9.28092E-10 -9.50408E-10 -9.72302E-10 -9.93812E-10 -1.01496E-09
  -1.03576E-09 -1.05623E-09 -1.07640E-09 -1.09627E-09 -1.11588E-09 -1.13523E-09 -1.15435E-09 -1.17325E-09 -1.19195E-09 -1.21047E-09
  -1.22882E-09 -1.24704E-09 -1.26512E-09 -1.28310E-09 -1.30099E-09 -1.31880E-09 -1.33657E-09 -1.35429E-09 -1.37200E-09 -1.38970E-09
  -1.40743E-09 -1.42519E-09 -1.44300E-09 -1.46088E-09 -1.47886E-09 -1.49694E-09 -1.51514E-09 -1.53349E-09 -1.55201E-09 -1.57070E-09
  -1.58959E-09 -1.60869E-09 -1.62803E-09 -1.64762E-09 -1.66748E-09 -1.68763E-09 -1.70808E-09 -1.72886E-09 -1.74997E-09 -1.77145E-09
  -1.79330E-09 -1.81555E-09 -1.83821E-09 -1.86130E-09 -1.88484E-09 -1.90885E-09 -1.93334E-09 -1.95833E-09 -1.98384E-09 -2.00989E-09
  -2.03650E-09 -2.06369E-09 -2.09144E-09 -2.11974E-09 -2.14858E-09 -2.17795E-09 -2.20783E-09 -2.23820E-09 -2.26905E-09 -2.30037E-09
  -2.33214E-09 -2.36434E-09 -2.39697E-09 -2.43000E-09 -2.46342E-09 -2.49722E-09 -2.53138E-09 -2.56588E-09 -2.60072E-09 -2.63588E-09
  -2.67134E-09 -2.70708E-09 -2.74310E-09 -2.77938E-09 -2.81589E-09 -2.85264E-09 -2.88960E-09 -2.92676E-09 -2.96410E-09 -3.00162E-09
  -3.03928E-09 -3.07709E-09 -3.11502E-09 -3.15306E-09 -3.19120E-09 -3.22941E-09 -3.26770E-09 -3.30603E-09 -3.34440E-09 -3.38278E-09
  -3.42118E-09 -3.45956E-09 -3.49793E-09 -3.53625E-09 -3.57452E-09 -3.61273E-09 -3.65085E-09 -3.68887E-09 -3.72678E-09 -3.76457E-09
  -3.80221E-09 -3.83969E-09 -3.87701E-09
 NY background values follow
    -3.151E-09   -3.062E-09   -2.971E-09   -2.881E-09   -2.791E-09   -2.701E-09   -2.611E-09   -2.521E-09   -2.430E-09   -2.340E-09
    -2.250E-09   -2.160E-09   -2.069E-09   -1.979E-09   -1.889E-09   -1.799E-09   -1.709E-09   -1.619E-09   -1.529E-09   -1.439E-09
    -1.349E-09   -1.259E-09   -1.170E-09   -1.080E-09   -9.905E-10   -9.012E-10   -8.119E-10   -7.228E-10   -6.339E-10   -5.451E-10
    -4.564E-10   -3.679E-10   -2.796E-10   -1.914E-10   -1.034E-10   -1.567E-11    7.190E-11    1.593E-10    2.464E-10    3.333E-10
     4.200E-10    5.065E-10    5.927E-10    6.786E-10    7.643E-10    8.497E-10    9.348E-10    1.020E-09    1.104E-09    1.188E-09
     1.272E-09    1.356E-09    1.439E-09    1.522E-09    1.605E-09    1.687E-09    1.769E-09    1.850E-09    1.931E-09    2.012E-09
     2.091E-09    2.171E-09    2.250E-09    2.328E-09    2.406E-09    2.483E-09    2.560E-09    2.635E-09    2.711E-09    2.785E-09
     2.859E-09    2.932E-09    3.004E-09    3.076E-09    3.147E-09    3.217E-09    3.286E-09    3.354E-09    3.421E-09    3.488E-09
     3.553E-09    3.618E-09    3.681E-09    3.744E-09    3.805E-09    3.866E-09    3.925E-09    3.983E-09    4.041E-09    4.097E-09
     4.152E-09    4.205E-09    4.258E-09    4.309E-09    4.359E-09    4.408E-09    4.456E-09    4.502E-09    4.547E-09    4.590E-09
     4.632E-09    4.673E-09    4.713E-09    4.750E-09    4.787E-09    4.822E-09    4.855E-09    4.887E-09    4.918E-09    4.947E-09
     4.974E-09    5.000E-09    5.024E-09    5.047E-09    5.068E-09    5.087E-09    5.105E-09    5.121E-09    5.136E-09    5.149E-09
     5.160E-09    5.169E-09    5.177E-09    5.183E-09    5.187E-09    5.190E-09    5.191E-09    5.190E-09    5.187E-09    5.182E-09
     5.176E-09    5.168E-09    5.157E-09    5.145E-09    5.132E-09    5.116E-09    5.098E-09    5.079E-09    5.057E-09    5.034E-09
     5.008E-09    4.981E-09    4.952E-09    4.920E-09    4.887E-09    4.852E-09    4.814E-09    4.775E-09    4.733E-09    4.690E-09
     4.644E-09    4.596E-09    4.547E-09    4.494E-09    4.440E-09    4.384E-09    4.325E-09    4.265E-09    4.202E-09    4.138E-09
     4.071E-09    4.003E-09    3.933E-09    3.861E-09    3.788E-09    3.713E-09    3.636E-09    3.559E-09    3.480E-09    3.400E-09
     3.318E-09    3.236E-09    3.152E-09    3.068E-09    2.983E-09    2.897E-09    2.810E-09    2.722E-09    2.634E-09    2.546E-09
     2.457E-09    2.368E-09    2.278E-09    2.189E-09    2.099E-09    2.009E-09    1.919E-09    1.830E-09    1.740E-09    1.651E-09
     1.562E-09    1.473E-09    1.385E-09    1.297E-09    1.210E-09    1.124E-09    1.038E-09    9.538E-10    8.700E-10    7.871E-10
     7.054E-10    6.247E-10    5.453E-10    4.672E-10    3.903E-10    3.150E-10    2.411E-10    1.687E-10    9.805E-11    2.896E-11
    -3.855E-11   -1.045E-10   -1.689E-10   -2.319E-10   -2.933E-10   -3.533E-10   -4.118E-10   -4.690E-10   -5.247E-10   -5.792E-10
    -6.322E-10   -6.840E-10   -7.345E-10   -7.837E-10   -8.317E-10   -8.785E-10   -9.242E-10   -9.686E-10   -1.012E-09   -1.054E-09
    -1.095E-09   -1.135E-09   -1.174E-09   -1.212E-09   -1.250E-09   -1.286E-09   -1.321E-09   -1.355E-09   -1.388E-09   -1.421E-09
    -1.453E-09   -1.484E-09   -1.514E-09   -1.543E-09   -1.572E-09   -1.600E-09   -1.627E-09   -1.653E-09   -1.679E-09   -1.705E-09
    -1.729E-09   -1.754E-09   -1.777E-09   -1.800E-09   -1.823E-09   -1.845E-09   -1.867E-09   -1.888E-09   -1.909E-09   -1.930E-09
    -1.950E-09   -1.970E-09   -1.990E-09   -2.009E-09   -2.028E-09   -2.047E-09   -2.066E-09   -2.084E-09   -2.102E-09   -2.120E-09
    -2.138E-09   -2.156E-09   -2.174E-09   -2.191E-09   -2.209E-09   -2.226E-09   -2.243E-09   -2.261E-09   -2.278E-09   -2.295E-09
    -2.312E-09   -2.330E-09   -2.347E-09   -2.365E-09   -2.382E-09   -2.400E-09   -2.418E-09   -2.435E-09   -2.454E-09   -2.472E-09
    -2.490E-09   -2.509E-09   -2.528E-09   -2.547E-09   -2.567E-09   -2.586E-09   -2.606E-09   -2.627E-09   -2.647E-09   -2.668E-09
    -2.690E-09   -2.712E-09   -2.734E-09   -2.757E-09   -2.780E-09   -2.803E-09   -2.828E-09   -2.852E-09   -2.877E-09   -2.903E-09
    -2.929E-09   -2.956E-09   -2.983E-09   -3.011E-09   -3.040E-09   -3.069E-09   -3.098E-09   -3.128E-09   -3.158E-09   -3.189E-09
    -3.221E-09   -3.253E-09   -3.285E-09   -3.317E-09   -3.350E-09   -3.384E-09   -3.418E-09   -3.452E-09   -3.486E-09   -3.521E-09
    -3.556E-09   -3.591E-09   -3.627E-09   -3.663E-09   -3.699E-09   -3.735E-09   -3.772E-09   -3.808E-09   -3.845E-09   -3.882E-09
    -3.920E-09   -3.957E-09   -3.995E-09   -4.032E-09   -4.070E-09   -4.108E-09   -4.145E-09   -4.183E-09   -4.221E-09   -4.259E-09
    -4.297E-09   -4.335E-09   -4.373E-09   -4.411E-09   -4.449E-09   -4.487E-09   -4.524E-09   -4.562E-09   -4.599E-09   -4.637E-09
    -4.674E-09   -4.711E-09   -4.748E-09
 Ala      Conc. = 3.38E-10
  -2.89912E-09 -2.79599E-09 -2.70473E-09 -2.60593E-09 -2.51776E-09 -2.42661E-09 -2.33647E-09 -2.29183E-09 -2.23260E-09 -2.12685E-09
  -2.07662E-09 -2.03609E-09 -1.95041E-09 -1.87702E-09 -1.81028E-09 -1.73373E-09 -1.65238E-09 -1.56843E-09 -1.48294E-09 -1.39644E-09
  -1.30930E-09 -1.22171E-09 -1.13380E-09 -1.04569E-09 -9.57472E-10 -8.69171E-10 -7.80848E-10 -6.92528E-10 -6.04254E-10 -5.16034E-10
  -4.27880E-10 -3.39858E-10 -2.51935E-10 -1.64150E-10 -7.65063E-11  1.09688E-11  9.82742E-11  1.85416E-10  2.72348E-10  3.59057E-10
   4.45588E-10  5.31901E-10  6.17961E-10  7.03775E-10  7.89354E-10  8.74662E-10  9.59718E-10  1.04449E-09  1.12897E-09  1.21314E-09
   1.29705E-09  1.38064E-09  1.46392E-09  1.54685E-09  1.62943E-09  1.71164E-09  1.79346E-09  1.87486E-09  1.95582E-09  2.03633E-09
   2.11634E-09  2.19586E-09  2.27486E-09  2.35330E-09  2.43118E-09  2.50847E-09  2.58516E-09  2.66122E-09  2.73662E-09  2.81136E-09
   2.88541E-09  2.95875E-09  3.03136E-09  3.10323E-09  3.17433E-09  3.24466E-09  3.31418E-09  3.38289E-09  3.45079E-09  3.51784E-09
   3.58405E-09  3.64940E-09  3.71391E-09  3.77755E-09  3.84034E-09  3.90231E-09  3.96347E-09  4.02388E-09  4.08358E-09  4.14268E-09
   4.20133E-09  4.25973E-09  4.31823E-09  4.37735E-09  4.43798E-09  4.50171E-09  4.57160E-09  4.65447E-09  4.76905E-09  4.98579E-09
   5.38274E-09  5.46885E-09  5.50414E-09  5.84818E-09  6.06593E-09  6.12767E-09  6.16073E-09  6.20387E-09  6.25649E-09  6.24223E-09
   6.03730E-09  5.77227E-09  5.83596E-09  5.72679E-09  5.39695E-09  5.29219E-09  5.25316E-09  5.23719E-09  5.23122E-09  5.22999E-09
   5.23095E-09  5.23274E-09  5.23455E-09  5.23585E-09  5.23632E-09  5.23572E-09  5.23388E-09  5.23067E-09  5.22599E-09  5.21978E-09
   5.21195E-09  5.20248E-09  5.19131E-09  5.17841E-09  5.16374E-09  5.14728E-09  5.12900E-09  5.10887E-09  5.08688E-09  5.06301E-09
   5.03722E-09  5.00952E-09  4.97987E-09  4.94828E-09  4.91470E-09  4.87914E-09  4.84158E-09  4.80201E-09  4.76040E-09  4.71677E-09
   4.67108E-09  4.62334E-09  4.57354E-09  4.52168E-09  4.46775E-09  4.41176E-09  4.35375E-09  4.29380E-09  4.23206E-09  4.16870E-09
   4.10398E-09  4.03825E-09  3.97217E-09  3.90704E-09  3.84606E-09  3.79966E-09  3.82110E-09  4.01402E-09  4.04146E-09  3.94618E-09
   3.84535E-09  3.76474E-09  3.69276E-09  3.62314E-09  3.55236E-09  3.49007E-09  3.39393E-09  3.15520E-09  2.79239E-09  2.63288E-09
   2.51932E-09  2.41815E-09  2.32173E-09  2.22759E-09  2.13468E-09  2.04258E-09  1.95104E-09  1.85996E-09  1.76933E-09  1.67914E-09
   1.58940E-09  1.50019E-09  1.41151E-09  1.32347E-09  1.23608E-09  1.14943E-09  1.06358E-09  9.78608E-10  8.94552E-10  8.11514E-10
   7.29551E-10  6.48732E-10  5.69135E-10  4.90822E-10  4.13872E-10  3.38349E-10  2.64354E-10  1.91908E-10  1.21108E-10  5.19137E-11
  -1.56912E-11 -8.17370E-11 -1.46244E-10 -2.09245E-10 -2.70758E-10 -3.30816E-10 -3.89437E-10 -4.46645E-10 -5.02476E-10 -5.56951E-10
  -6.10082E-10 -6.61910E-10 -7.12456E-10 -7.61741E-10 -8.09796E-10 -8.56642E-10 -9.02292E-10 -9.46799E-10 -9.90180E-10 -1.03244E-09
  -1.07361E-09 -1.11374E-09 -1.15282E-09 -1.19090E-09 -1.22799E-09 -1.26413E-09 -1.29934E-09 -1.33364E-09 -1.36705E-09 -1.39961E-09
  -1.43133E-09 -1.46225E-09 -1.49238E-09 -1.52175E-09 -1.55039E-09 -1.57832E-09 -1.60557E-09 -1.63217E-09 -1.65812E-09 -1.68346E-09
  -1.70822E-09 -1.73243E-09 -1.75610E-09 -1.77925E-09 -1.80194E-09 -1.82416E-09 -1.84594E-09 -1.86731E-09 -1.88831E-09 -1.90895E-09
  -1.92924E-09 -1.94922E-09 -1.96889E-09 -1.98828E-09 -2.00740E-09 -2.02628E-09 -2.04493E-09 -2.06336E-09 -2.08160E-09 -2.09967E-09
  -2.11757E-09 -2.13533E-09 -2.15298E-09 -2.17051E-09 -2.18796E-09 -2.20534E-09 -2.22267E-09 -2.23997E-09 -2.25725E-09 -2.27453E-09
  -2.29183E-09 -2.30917E-09 -2.32657E-09 -2.34404E-09 -2.36160E-09 -2.37928E-09 -2.39707E-09 -2.41502E-09 -2.43313E-09 -2.45142E-09
  -2.46990E-09 -2.48861E-09 -2.50755E-09 -2.52674E-09 -2.54620E-09 -2.56595E-09 -2.58601E-09 -2.60639E-09 -2.62711E-09 -2.64820E-09
  -2.66966E-09 -2.69151E-09 -2.71378E-09 -2.73648E-09 -2.75963E-09 -2.78325E-09 -2.80735E-09 -2.83196E-09 -2.85708E-09 -2.88275E-09
  -2.90897E-09 -2.93576E-09 -2.96312E-09 -2.99104E-09 -3.01949E-09 -3.04847E-09 -3.07796E-09 -3.10794E-09 -3.13840E-09 -3.16933E-09
  -3.20070E-09 -3.23251E-09 -3.26475E-09 -3.29738E-09 -3.33041E-09 -3.36381E-09 -3.39758E-09 -3.43169E-09 -3.46613E-09 -3.50088E-09
  -3.53595E-09 -3.57129E-09 -3.60690E-09 -3.64278E-09 -3.67890E-09 -3.71524E-09 -3.75180E-09 -3.78855E-09 -3.82548E-09 -3.86259E-09
  -3.89984E-09 -3.93724E-09 -3.97476E-09 -4.01238E-09 -4.05010E-09 -4.08790E-09 -4.12576E-09 -4.16367E-09 -4.20162E-09 -4.23958E-09
  -4.27755E-09 -4.31550E-09 -4.35344E-09 -4.39133E-09 -4.42916E-09 -4.46693E-09 -4.50462E-09 -4.54220E-09 -4.57967E-09 -4.61700E-09
  -4.65420E-09 -4.69124E-09 -4.72810E-09
 GABA     Conc. = 7.38E-10
  -3.07317E-09 -2.98222E-09 -2.89112E-09 -2.79989E-09 -2.70851E-09 -2.61699E-09 -2.52533E-09 -2.43351E-09 -2.34152E-09 -2.24933E-09
  -2.15697E-09 -2.06437E-09 -1.97146E-09 -1.87833E-09 -1.78477E-09 -1.69079E-09 -1.59651E-09 -1.50148E-09 -1.40563E-09 -1.30898E-09
  -1.21104E-09 -1.11140E-09 -1.00952E-09 -9.04457E-10 -7.94763E-10 -6.78078E-10 -5.49381E-10 -3.98088E-10 -1.95627E-10  1.41032E-10
   3.10055E-10  4.18423E-10  8.88748E-10  1.21895E-09  1.27423E-09  1.48940E-09  1.72114E-09  1.86107E-09  1.92422E-09  1.87281E-09
   1.76845E-09  1.87566E-09  1.83139E-09  1.48964E-09  1.44989E-09  1.50853E-09  1.37555E-09  1.33040E-09  1.35480E-09  1.40659E-09
   1.47259E-09  1.54660E-09  1.62598E-09  1.71003E-09  1.79819E-09  1.89042E-09  1.98770E-09  2.09178E-09  2.20624E-09  2.33887E-09
   2.50751E-09  2.76677E-09  3.09085E-09  3.19614E-09  3.40685E-09  3.82819E-09  3.96471E-09  3.99385E-09  4.14441E-09  4.27580E-09
   4.34609E-09  4.32909E-09  4.19078E-09  4.08739E-09  4.14630E-09  3.94887E-09  3.70074E-09  3.77160E-09  3.78706E-09  3.78078E-09
   3.90587E-09  3.93136E-09  4.00943E-09  4.30806E-09  4.43811E-09  4.48990E-09  4.71799E-09  4.88766E-09  4.98815E-09  5.11069E-09
   5.14993E-09  5.18178E-09  5.31596E-09  5.28144E-09  5.12917E-09  5.19906E-09  5.19407E-09  5.04564E-09  5.02200E-09  5.01900E-09
   4.98152E-09  4.96745E-09  4.96866E-09  4.97842E-09  4.99317E-09  5.01072E-09  5.02992E-09  5.05003E-09  5.07052E-09  5.09105E-09
   5.11127E-09  5.13075E-09  5.14939E-09  5.16705E-09  5.18364E-09  5.19915E-09  5.21348E-09  5.22650E-09  5.23815E-09  5.24838E-09
   5.25714E-09  5.26442E-09  5.27017E-09  5.27436E-09  5.27696E-09  5.27794E-09  5.27727E-09  5.27492E-09  5.27088E-09  5.26513E-09
   5.25763E-09  5.24837E-09  5.23734E-09  5.22452E-09  5.20989E-09  5.19343E-09  5.17513E-09  5.15496E-09  5.13291E-09  5.10898E-09
   5.08314E-09  5.05538E-09  5.02569E-09  4.99406E-09  4.96046E-09  4.92489E-09  4.88735E-09  4.84782E-09  4.80629E-09  4.76277E-09
   4.71725E-09  4.66972E-09  4.62021E-09  4.56870E-09  4.51524E-09  4.45985E-09  4.40261E-09  4.34364E-09  4.28320E-09  4.22155E-09
   4.15915E-09  4.09671E-09  4.03548E-09  3.97800E-09  3.93045E-09  3.91215E-09  4.01505E-09  4.54013E-09  4.72678E-09  4.62215E-09
   4.49306E-09  4.40999E-09  4.34911E-09  4.29594E-09  4.23922E-09  4.20496E-09  4.11616E-09  3.73035E-09  3.01671E-09  2.74808E-09
   2.60098E-09  2.48474E-09  2.38003E-09  2.28075E-09  2.18437E-09  2.08982E-09  1.99645E-09  1.90397E-09  1.81223E-09  1.72115E-09
   1.63069E-09  1.54087E-09  1.45167E-09  1.36319E-09  1.27542E-09  1.18843E-09  1.10228E-09  1.01705E-09  9.32753E-10  8.49500E-10
   7.67342E-10  6.86346E-10  6.06586E-10  5.28122E-10  4.51032E-10  3.75380E-10  3.01262E-10  2.28702E-10  1.57796E-10  8.85006E-11
   2.08005E-11 -4.53357E-11 -1.09929E-10 -1.73011E-10 -2.34602E-10 -2.94735E-10 -3.53426E-10 -4.10702E-10 -4.66598E-10 -5.21136E-10
  -5.74329E-10 -6.26215E-10 -6.76818E-10 -7.26158E-10 -7.74266E-10 -8.21164E-10 -8.66865E-10 -9.11420E-10 -9.54848E-10 -9.97153E-10
