 LCModel (Version 6.3-1R) Copyright: S.W. Provencher.          Ref.: Magn. Reson. Med. 30:672-679 (1993).                
 onepulse 16x10_ftSpec_smooth_lcm
 26 lines in following concentration table = NCONC+1
    Conc.  %SD   /Cr    Metabolite                                         
 5.96E-10  55%   0.000 Ala                                                 
    0.000 999%   0.000 Asp                                                 
    0.000 999%   0.000 Cr                                                  
 1.64E-09  35%   0.000 GABA                                                
    0.000 999%   0.000 Glc                                                 
 3.62E-10 185%   0.000 Gln                                                 
    0.000 999%   0.000 Glu                                                 
 2.76E-09  21%   0.000 Glyc                                                
    0.000 999%   0.000 GPC                                                 
 1.95E-09  26%   0.000 GSH                                                 
    0.000 999%   0.000 Ins                                                 
 9.54E-11 334%   0.000 Lac                                                 
    0.000 999%   0.000 NAAG                                                
 9.01E-10  53%   0.000 NAA                                                 
    0.000 999%   0.000 PCh                                                 
    0.000 999%   0.000 PCr                                                 
 4.53E-09  21%   0.000 PE                                                  
 3.94E-11 669%   0.000 Scyllo                                              
    0.000 999%   0.000 Ser                                                 
 2.76E-10 386%   0.000 Tau                                                 
    0.000 999%   0.000 GPC+PCh                                             
 9.01E-10  33%   0.000 NAA+NAAG                                            
 2.76E-09  21%   0.000 Ins+Glyc                                            
    0.000 999%   0.000 Cr+PCr                                              
 3.62E-10 185%   0.000 Glu+Gln                                             
   6 lines in following misc. output table
  FWHM = 0.123 ppm    S/N =   4                                            
  Data shift = 0.470 ppm                                                   
  Ph: 120 deg      -4.4 deg/ppm                                            
  alphaB,S = 6.4E-01,   1.1E+01                                            
   10 spline knots.   Ns = 5(1)                                            
  (11) 8 infls.   (11) 5 extrs.                                            
  363 points on ppm-axis = NY
      4.250000     4.238821     4.227641     4.216462     4.205282     4.194103     4.182923     4.171744     4.160564     4.149385
      4.138206     4.127026     4.115847     4.104667     4.093488     4.082308     4.071129     4.059949     4.048770     4.037591
      4.026411     4.015232     4.004052     3.992873     3.981693     3.970514     3.959334     3.948155     3.936975     3.925796
      3.914617     3.903437     3.892258     3.881078     3.869899     3.858719     3.847540     3.836360     3.825181     3.814002
      3.802822     3.791643     3.780463     3.769284     3.758104     3.746925     3.735745     3.724566     3.713387     3.702207
      3.691028     3.679848     3.668669     3.657489     3.646310     3.635130     3.623951     3.612772     3.601592     3.590413
      3.579233     3.568054     3.556874     3.545695     3.534515     3.523336     3.512156     3.500977     3.489798     3.478618
      3.467439     3.456259     3.445080     3.433900     3.422721     3.411541     3.400362     3.389183     3.378003     3.366824
      3.355644     3.344465     3.333285     3.322106     3.310926     3.299747     3.288568     3.277388     3.266209     3.255029
      3.243850     3.232670     3.221491     3.210311     3.199132     3.187953     3.176773     3.165594     3.154414     3.143235
      3.132055     3.120876     3.109696     3.098517     3.087337     3.076158     3.064979     3.053799     3.042620     3.031440
      3.020261     3.009081     2.997902     2.986722     2.975543     2.964364     2.953184     2.942005     2.930825     2.919646
      2.908466     2.897287     2.886107     2.874928     2.863749     2.852569     2.841390     2.830210     2.819031     2.807851
      2.796672     2.785492     2.774313     2.763134     2.751954     2.740775     2.729595     2.718416     2.707236     2.696057
      2.684877     2.673698     2.662519     2.651339     2.640160     2.628980     2.617801     2.606621     2.595442     2.584262
      2.573083     2.561903     2.550724     2.539545     2.528365     2.517186     2.506006     2.494827     2.483647     2.472468
      2.461288     2.450109     2.438930     2.427750     2.416571     2.405391     2.394212     2.383032     2.371853     2.360673
      2.349494     2.338315     2.327135     2.315956     2.304776     2.293597     2.282417     2.271238     2.260058     2.248879
      2.237700     2.226520     2.215341     2.204161     2.192982     2.181802     2.170623     2.159443     2.148264     2.137084
      2.125905     2.114726     2.103546     2.092367     2.081187     2.070008     2.058828     2.047649     2.036469     2.025290
      2.014111     2.002931     1.991752     1.980572     1.969393     1.958213     1.947034     1.935854     1.924675     1.913496
      1.902316     1.891137     1.879957     1.868778     1.857598     1.846419     1.835239     1.824060     1.812881     1.801701
      1.790522     1.779342     1.768163     1.756983     1.745804     1.734624     1.723445     1.712265     1.701086     1.689907
      1.678727     1.667548     1.656368     1.645189     1.634009     1.622830     1.611650     1.600471     1.589292     1.578112
      1.566933     1.555753     1.544574     1.533394     1.522215     1.511035     1.499856     1.488677     1.477497     1.466318
      1.455138     1.443959     1.432779     1.421600     1.410420     1.399241     1.388062     1.376882     1.365703     1.354523
      1.343344     1.332164     1.320985     1.309805     1.298626     1.287446     1.276267     1.265088     1.253908     1.242729
      1.231549     1.220370     1.209190     1.198011     1.186831     1.175652     1.164473     1.153293     1.142114     1.130934
      1.119755     1.108575     1.097396     1.086216     1.075037     1.063858     1.052678     1.041499     1.030319     1.019140
      1.007960     0.996781     0.985601     0.974422     0.963243     0.952063     0.940884     0.929704     0.918525     0.907345
      0.896166     0.884986     0.873807     0.862628     0.851448     0.840269     0.829089     0.817910     0.806730     0.795551
      0.784371     0.773192     0.762012     0.750833     0.739654     0.728474     0.717295     0.706115     0.694936     0.683756
      0.672577     0.661397     0.650218     0.639039     0.627859     0.616680     0.605500     0.594321     0.583141     0.571962
      0.560782     0.549603     0.538424     0.527244     0.516065     0.504885     0.493706     0.482526     0.471347     0.460167
      0.448988     0.437809     0.426629     0.415450     0.404270     0.393091     0.381911     0.370732     0.359552     0.348373
      0.337193     0.326014     0.314835     0.303655     0.292476     0.281296     0.270117     0.258937     0.247758     0.236578
      0.225399     0.214220     0.203040
 NY phased data points follow
  -6.10275E-10  3.68106E-10  2.44693E-11 -3.36127E-11  3.71826E-10  1.53785E-09  1.58682E-09  1.93893E-09  2.09088E-09  2.34759E-09
   1.80510E-09  2.11486E-09  1.58513E-09  1.63187E-09  6.42118E-10  2.63401E-09  3.02329E-09  3.53277E-09  2.54251E-09  1.68360E-09
  -6.85580E-11  1.62986E-09  2.35028E-09  4.63529E-09  5.48374E-09  7.03815E-09  6.51044E-09  6.51735E-09  5.30695E-09  6.53534E-09
   5.48472E-09  5.74733E-09  6.09869E-09  6.20361E-09  5.49536E-09  6.38637E-09  5.57336E-09  5.46917E-09  4.72303E-09  5.06898E-09
   3.86182E-09  4.27229E-09  4.04131E-09  4.96439E-09  3.83679E-09  4.15088E-09  2.14575E-09  1.71908E-09  6.58059E-10  9.22318E-10
  -9.30890E-10 -1.69401E-09 -2.79812E-09 -1.28142E-11  2.52664E-09  5.88793E-09  5.65676E-09  6.75465E-09  6.12753E-09  6.37381E-09
   5.56035E-09  6.42871E-09  5.01635E-09  5.14784E-09  3.07119E-09  3.81610E-09  9.78994E-10 -1.11021E-09 -4.21448E-09 -3.04706E-09
   1.24692E-09  4.79776E-09  5.83193E-09  6.92288E-09  7.48612E-09  8.44885E-09  8.63875E-09  8.45831E-09  8.44296E-09  9.01325E-09
   9.52245E-09  9.36538E-09  9.70023E-09  1.00282E-08  9.56412E-09  1.03555E-08  9.34619E-09  9.21588E-09  9.40422E-09  9.06698E-09
   8.28441E-09  7.96402E-09  8.66035E-09  8.91540E-09  8.19360E-09  8.09170E-09  8.39286E-09  8.68424E-09  8.71180E-09  8.32104E-09
   7.71072E-09  7.05695E-09  5.69900E-09  6.19150E-09  6.29822E-09  5.99919E-09  5.64961E-09  6.39361E-09  5.85368E-09  5.93440E-09
   5.85856E-09  7.19814E-09  7.22662E-09  7.27729E-09  6.81941E-09  7.01765E-09  5.03651E-09  4.92503E-09  5.38782E-09  5.21436E-09
   4.20465E-09  4.61297E-09  4.46534E-09  4.84226E-09  4.40602E-09  4.78380E-09  4.71625E-09  4.44072E-09  2.56835E-09  2.48836E-09
   3.71045E-09  4.64822E-09  5.23558E-09  5.11211E-09  4.24896E-09  4.76493E-09  5.75244E-09  6.27785E-09  6.53765E-09  7.18885E-09
   6.88487E-09  7.76700E-09  7.57648E-09  7.35877E-09  7.00049E-09  7.19380E-09  7.76977E-09  7.56591E-09  7.54317E-09  7.68601E-09
   7.61171E-09  7.17209E-09  7.26161E-09  7.85688E-09  7.17059E-09  6.87033E-09  5.99540E-09  6.31154E-09  4.87561E-09 -5.22999E-10
  -6.43263E-10  5.37105E-09  1.15072E-08  1.48025E-08  1.65547E-08  1.72340E-08  1.97661E-08  2.04646E-08  2.11693E-08  2.13837E-08
   2.24652E-08  2.28983E-08  2.31667E-08  2.39829E-08  2.35255E-08  2.36524E-08  2.30472E-08  2.22246E-08  2.10305E-08  1.94138E-08
   1.75797E-08  1.48496E-08  1.22144E-08  1.02955E-08  7.86225E-09  5.24013E-09  2.43670E-09  3.95451E-10 -1.84903E-09 -3.33301E-09
  -4.79817E-09 -4.91046E-09 -6.30363E-09 -6.18559E-09 -5.58036E-09 -5.04072E-09 -4.59437E-09 -4.00690E-09 -2.96121E-09 -2.29231E-09
  -2.07629E-09 -6.13667E-10 -1.63161E-09 -1.06552E-09 -1.31909E-09 -1.21004E-09 -1.09360E-09 -1.50886E-09 -1.07364E-09 -1.68775E-09
  -1.42332E-09 -1.20986E-09 -7.20520E-10 -1.00523E-09 -6.77448E-10 -4.58005E-10 -3.17869E-10 -1.11104E-09 -1.62674E-09 -1.50573E-09
  -1.12559E-09 -1.01897E-09 -8.02213E-10 -5.80967E-10 -1.50732E-09 -8.60476E-10 -7.68229E-10 -1.10346E-09 -6.11960E-11 -7.51092E-10
  -1.53439E-09 -1.39966E-09 -1.60066E-09 -1.59524E-09 -1.78773E-09 -2.24874E-09 -1.99598E-09 -1.36990E-09 -1.31754E-09 -1.36977E-09
  -1.20853E-09 -1.03831E-09 -8.80680E-10 -6.41305E-10 -9.30453E-10 -6.66209E-10 -7.75629E-10 -7.35471E-10 -1.02398E-09 -5.26755E-10
  -1.07261E-09 -1.39140E-09 -1.54839E-09 -1.91637E-09 -2.28522E-09 -2.35884E-09 -2.71086E-09 -2.91276E-09 -3.16815E-09 -2.98311E-09
  -3.00371E-09 -3.04760E-09 -2.93511E-09 -2.86576E-09 -1.59802E-09 -1.72422E-09 -1.53668E-09 -1.54604E-09 -1.31209E-09 -9.67867E-10
  -1.10576E-09 -1.06004E-09 -4.36534E-10 -8.35805E-10 -3.65673E-10 -9.33085E-10 -1.79492E-10 -3.84698E-10 -6.90346E-10 -8.63380E-10
  -1.70777E-10 -9.22819E-10 -8.46715E-10 -1.23297E-09 -7.31238E-10 -1.17232E-09 -6.50186E-10 -1.02895E-09 -1.10706E-09 -1.31942E-09
  -1.66117E-09 -1.65379E-09 -1.71203E-09 -1.71151E-09 -1.70062E-09 -2.02260E-09 -2.16162E-09 -2.19010E-09 -2.64169E-09 -2.58838E-09
  -2.58037E-09 -2.68752E-09 -2.97474E-09 -2.55248E-09 -2.99102E-09 -3.05007E-09 -2.91591E-09 -3.28092E-09 -3.02344E-09 -3.26720E-09
  -3.45813E-09 -3.60102E-09 -3.39646E-09 -3.97831E-09 -3.79226E-09 -3.86964E-09 -3.67156E-09 -3.64861E-09 -3.94365E-09 -4.32157E-09
  -3.31202E-09 -4.39476E-09 -4.00572E-09 -4.40098E-09 -4.22613E-09 -4.62283E-09 -4.02633E-09 -4.73821E-09 -4.50258E-09 -4.65291E-09
  -4.25213E-09 -4.92355E-09 -4.95728E-09 -5.18986E-09 -4.73184E-09 -5.45380E-09 -4.71365E-09 -5.59385E-09 -5.57302E-09 -5.25410E-09
  -4.84265E-09 -5.86165E-09 -5.06004E-09 -5.45129E-09 -5.13818E-09 -5.40539E-09 -5.28332E-09 -5.55664E-09 -5.57114E-09 -5.80144E-09
  -5.27045E-09 -5.97815E-09 -5.41004E-09 -5.99673E-09 -6.14734E-09 -5.80449E-09 -5.69470E-09 -5.35463E-09 -6.05656E-09 -5.79674E-09
  -5.90056E-09 -5.57392E-09 -5.87451E-09
 NY points of the fit to the data follow
   2.47297E-09  1.43904E-09  1.25529E-09  3.32792E-10  2.52025E-10  4.09767E-10  5.13873E-10  1.05532E-09  3.02583E-09  4.74540E-09
   2.26118E-09  1.23562E-09  9.67564E-10  1.18231E-09  1.60220E-09  2.15519E-09  2.50068E-09  3.12713E-09  4.57521E-09  4.60044E-09
   6.22207E-10  7.70733E-10  1.84340E-09  3.41099E-09  4.35037E-09  5.57554E-09  6.17222E-09  6.43555E-09  6.85736E-09  7.58735E-09
   8.13079E-09  6.99038E-09  6.41860E-09  6.33755E-09  5.78380E-09  4.77400E-09  4.46013E-09  4.75101E-09  4.68817E-09  4.77049E-09
   4.54799E-09  4.26357E-09  4.94083E-09  4.79354E-09  3.46780E-09  2.13217E-09  2.16053E-09  7.70297E-10  6.15574E-11  1.40435E-10
   7.86731E-10  1.31834E-09  1.53913E-09  2.29959E-09  2.93479E-09  2.82688E-09  3.38136E-09  4.07722E-09  4.43500E-09  4.57981E-09
   4.72145E-09  4.38081E-09  4.72976E-09  4.85724E-09  4.15903E-09  4.57361E-09  5.02397E-09  4.59356E-09  4.55684E-09  4.94286E-09
   5.47989E-09  5.61615E-09  6.22480E-09  6.03128E-09  6.36755E-09  7.12353E-09  6.92680E-09  9.19148E-09  9.91269E-09  9.72423E-09
   9.56854E-09  9.36349E-09  9.71785E-09  9.76221E-09  9.52629E-09  9.33068E-09  9.79927E-09  9.71833E-09  6.67836E-09  5.92709E-09
   5.79391E-09  5.44238E-09  5.59386E-09  5.88166E-09  5.33959E-09  5.20475E-09  5.54509E-09  5.25935E-09  5.11757E-09  5.49704E-09
   6.01396E-09  5.78122E-09  5.83512E-09  6.53979E-09  6.71212E-09  6.74340E-09  6.91012E-09  7.06350E-09  7.14688E-09  7.35218E-09
   7.16636E-09  6.42647E-09  6.66570E-09  6.68562E-09  5.98090E-09  5.78444E-09  5.73191E-09  5.65872E-09  5.55221E-09  5.59351E-09
   5.56000E-09  5.48090E-09  5.47286E-09  5.48374E-09  5.50123E-09  5.52125E-09  5.54201E-09  5.56250E-09  5.58215E-09  5.60061E-09
   5.61758E-09  5.63288E-09  5.64637E-09  5.65797E-09  5.66756E-09  5.67509E-09  5.68051E-09  5.68376E-09  5.68482E-09  5.68367E-09
   5.68032E-09  5.67476E-09  5.66700E-09  5.65707E-09  5.64500E-09  5.63084E-09  5.61466E-09  5.59656E-09  5.57669E-09  5.55518E-09
   5.53228E-09  5.50827E-09  5.48350E-09  5.45852E-09  5.43400E-09  5.41091E-09  5.39060E-09  5.37514E-09  5.36762E-09  5.37281E-09
   5.39856E-09  5.45871E-09  5.58017E-09  5.82267E-09  6.34873E-09  7.77293E-09  1.31937E-08  2.06876E-08  2.26458E-08  2.19819E-08
   2.21946E-08  2.27959E-08  2.34065E-08  2.38906E-08  2.39336E-08  2.45571E-08  2.55181E-08  2.08935E-08  1.12849E-08  6.38616E-09
   4.92957E-09  4.25506E-09  3.84870E-09  3.56252E-09  3.33951E-09  3.15344E-09  2.99062E-09  2.84332E-09  2.70691E-09  2.57841E-09
   2.45590E-09  2.33806E-09  2.22398E-09  2.11306E-09  2.00482E-09  1.89895E-09  1.79524E-09  1.69356E-09  1.59377E-09  1.49583E-09
   1.39972E-09  1.30541E-09  1.21293E-09  1.12229E-09  1.03353E-09  9.46701E-10  8.61868E-10  7.79056E-10  6.98330E-10  6.19627E-10
   5.42900E-10  4.68088E-10  3.95147E-10  3.24021E-10  2.54669E-10  1.87035E-10  1.21089E-10  5.67820E-11 -5.93425E-12 -6.70984E-11
  -1.26738E-10 -1.84909E-10 -2.41647E-10 -2.96987E-10 -3.50972E-10 -4.03637E-10 -4.55009E-10 -5.05150E-10 -5.54090E-10 -6.01846E-10
  -6.48467E-10 -6.93997E-10 -7.38457E-10 -7.81900E-10 -8.24346E-10 -8.65848E-10 -9.06434E-10 -9.46128E-10 -9.84979E-10 -1.02302E-09
  -1.06028E-09 -1.09680E-09 -1.13261E-09 -1.16776E-09 -1.20226E-09 -1.23617E-09 -1.26952E-09 -1.30234E-09 -1.33465E-09 -1.36649E-09
  -1.39792E-09 -1.42895E-09 -1.45963E-09 -1.48997E-09 -1.52005E-09 -1.54986E-09 -1.57945E-09 -1.60886E-09 -1.63812E-09 -1.66727E-09
  -1.69633E-09 -1.72531E-09 -1.75423E-09 -1.78311E-09 -1.81195E-09 -1.84079E-09 -1.86962E-09 -1.89846E-09 -1.92734E-09 -1.95626E-09
  -1.98524E-09 -2.01429E-09 -2.04343E-09 -2.07267E-09 -2.10203E-09 -2.13153E-09 -2.16117E-09 -2.19097E-09 -2.22095E-09 -2.25112E-09
  -2.28149E-09 -2.31209E-09 -2.34291E-09 -2.37399E-09 -2.40534E-09 -2.43696E-09 -2.46888E-09 -2.50110E-09 -2.53365E-09 -2.56653E-09
  -2.59977E-09 -2.63337E-09 -2.66736E-09 -2.70174E-09 -2.73653E-09 -2.77175E-09 -2.80741E-09 -2.84352E-09 -2.88010E-09 -2.91717E-09
  -2.95474E-09 -2.99281E-09 -3.03141E-09 -3.07056E-09 -3.11026E-09 -3.15053E-09 -3.19139E-09 -3.23285E-09 -3.27493E-09 -3.31763E-09
  -3.36098E-09 -3.40499E-09 -3.44965E-09 -3.49494E-09 -3.54084E-09 -3.58734E-09 -3.63441E-09 -3.68204E-09 -3.73021E-09 -3.77890E-09
  -3.82810E-09 -3.87778E-09 -3.92792E-09 -3.97851E-09 -4.02953E-09 -4.08097E-09 -4.13279E-09 -4.18499E-09 -4.23754E-09 -4.29043E-09
  -4.34365E-09 -4.39716E-09 -4.45094E-09 -4.50500E-09 -4.55930E-09 -4.61383E-09 -4.66857E-09 -4.72349E-09 -4.77859E-09 -4.83384E-09
  -4.88923E-09 -4.94473E-09 -5.00033E-09 -5.05601E-09 -5.11175E-09 -5.16753E-09 -5.22334E-09 -5.27915E-09 -5.33495E-09 -5.39072E-09
  -5.44644E-09 -5.50209E-09 -5.55766E-09 -5.61312E-09 -5.66846E-09 -5.72365E-09 -5.77870E-09 -5.83355E-09 -5.88821E-09 -5.94266E-09
  -5.99687E-09 -6.05084E-09 -6.10453E-09
 NY background values follow
    -1.229E-08   -1.212E-08   -1.195E-08   -1.178E-08   -1.161E-08   -1.144E-08   -1.127E-08   -1.110E-08   -1.093E-08   -1.075E-08
    -1.058E-08   -1.041E-08   -1.024E-08   -1.007E-08   -9.902E-09   -9.732E-09   -9.563E-09   -9.393E-09   -9.223E-09   -9.054E-09
    -8.885E-09   -8.716E-09   -8.547E-09   -8.378E-09   -8.210E-09   -8.042E-09   -7.874E-09   -7.706E-09   -7.539E-09   -7.372E-09
    -7.205E-09   -7.039E-09   -6.873E-09   -6.708E-09   -6.542E-09   -6.377E-09   -6.213E-09   -6.049E-09   -5.885E-09   -5.722E-09
    -5.559E-09   -5.396E-09   -5.234E-09   -5.073E-09   -4.911E-09   -4.751E-09   -4.591E-09   -4.431E-09   -4.272E-09   -4.114E-09
    -3.956E-09   -3.798E-09   -3.641E-09   -3.485E-09   -3.329E-09   -3.174E-09   -3.020E-09   -2.866E-09   -2.713E-09   -2.561E-09
    -2.410E-09   -2.260E-09   -2.110E-09   -1.961E-09   -1.813E-09   -1.667E-09   -1.521E-09   -1.376E-09   -1.232E-09   -1.089E-09
    -9.476E-10   -8.071E-10   -6.678E-10   -5.297E-10   -3.928E-10   -2.572E-10   -1.228E-10    1.021E-11    1.419E-10    2.722E-10
     4.011E-10    5.285E-10    6.545E-10    7.790E-10    9.019E-10    1.023E-09    1.143E-09    1.261E-09    1.378E-09    1.493E-09
     1.606E-09    1.717E-09    1.827E-09    1.934E-09    2.040E-09    2.144E-09    2.246E-09    2.347E-09    2.445E-09    2.541E-09
     2.635E-09    2.728E-09    2.818E-09    2.906E-09    2.992E-09    3.075E-09    3.157E-09    3.236E-09    3.313E-09    3.388E-09
     3.461E-09    3.531E-09    3.599E-09    3.665E-09    3.728E-09    3.789E-09    3.848E-09    3.904E-09    3.958E-09    4.010E-09
     4.059E-09    4.106E-09    4.150E-09    4.192E-09    4.231E-09    4.268E-09    4.302E-09    4.334E-09    4.363E-09    4.390E-09
     4.413E-09    4.435E-09    4.454E-09    4.470E-09    4.483E-09    4.494E-09    4.502E-09    4.507E-09    4.510E-09    4.510E-09
     4.507E-09    4.501E-09    4.492E-09    4.481E-09    4.467E-09    4.450E-09    4.430E-09    4.407E-09    4.382E-09    4.353E-09
     4.321E-09    4.287E-09    4.250E-09    4.209E-09    4.166E-09    4.119E-09    4.070E-09    4.017E-09    3.962E-09    3.904E-09
     3.843E-09    3.780E-09    3.714E-09    3.646E-09    3.575E-09    3.502E-09    3.428E-09    3.351E-09    3.272E-09    3.191E-09
     3.109E-09    3.025E-09    2.940E-09    2.853E-09    2.764E-09    2.675E-09    2.584E-09    2.492E-09    2.400E-09    2.306E-09
     2.212E-09    2.117E-09    2.021E-09    1.925E-09    1.828E-09    1.731E-09    1.634E-09    1.537E-09    1.440E-09    1.343E-09
     1.246E-09    1.149E-09    1.053E-09    9.566E-10    8.612E-10    7.665E-10    6.725E-10    5.793E-10    4.871E-10    3.958E-10
     3.057E-10    2.168E-10    1.292E-10    4.304E-11   -4.167E-11   -1.248E-10   -2.062E-10   -2.859E-10   -3.637E-10   -4.397E-10
    -5.139E-10   -5.864E-10   -6.571E-10   -7.262E-10   -7.936E-10   -8.594E-10   -9.236E-10   -9.862E-10   -1.047E-09   -1.107E-09
    -1.165E-09   -1.222E-09   -1.278E-09   -1.332E-09   -1.385E-09   -1.436E-09   -1.486E-09   -1.535E-09   -1.583E-09   -1.630E-09
    -1.676E-09   -1.720E-09   -1.764E-09   -1.807E-09   -1.848E-09   -1.889E-09   -1.929E-09   -1.968E-09   -2.006E-09   -2.043E-09
    -2.080E-09   -2.115E-09   -2.151E-09   -2.185E-09   -2.219E-09   -2.252E-09   -2.285E-09   -2.317E-09   -2.349E-09   -2.380E-09
    -2.411E-09   -2.441E-09   -2.471E-09   -2.501E-09   -2.531E-09   -2.560E-09   -2.589E-09   -2.618E-09   -2.647E-09   -2.675E-09
    -2.704E-09   -2.732E-09   -2.761E-09   -2.789E-09   -2.818E-09   -2.846E-09   -2.874E-09   -2.903E-09   -2.931E-09   -2.960E-09
    -2.988E-09   -3.017E-09   -3.045E-09   -3.074E-09   -3.103E-09   -3.132E-09   -3.161E-09   -3.191E-09   -3.220E-09   -3.250E-09
    -3.280E-09   -3.310E-09   -3.340E-09   -3.371E-09   -3.402E-09   -3.433E-09   -3.465E-09   -3.497E-09   -3.529E-09   -3.561E-09
    -3.594E-09   -3.627E-09   -3.661E-09   -3.695E-09   -3.729E-09   -3.764E-09   -3.799E-09   -3.835E-09   -3.871E-09   -3.908E-09
    -3.945E-09   -3.982E-09   -4.021E-09   -4.059E-09   -4.099E-09   -4.139E-09   -4.179E-09   -4.220E-09   -4.262E-09   -4.304E-09
    -4.347E-09   -4.390E-09   -4.435E-09   -4.480E-09   -4.525E-09   -4.571E-09   -4.618E-09   -4.665E-09   -4.713E-09   -4.761E-09
    -4.810E-09   -4.859E-09   -4.909E-09   -4.959E-09   -5.010E-09   -5.061E-09   -5.112E-09   -5.164E-09   -5.216E-09   -5.268E-09
    -5.321E-09   -5.374E-09   -5.428E-09   -5.481E-09   -5.535E-09   -5.589E-09   -5.643E-09   -5.698E-09   -5.753E-09   -5.807E-09
    -5.862E-09   -5.917E-09   -5.973E-09   -6.028E-09   -6.083E-09   -6.138E-09   -6.194E-09   -6.249E-09   -6.304E-09   -6.360E-09
    -6.415E-09   -6.470E-09   -6.525E-09   -6.580E-09   -6.635E-09   -6.690E-09   -6.744E-09   -6.799E-09   -6.853E-09   -6.907E-09
    -6.961E-09   -7.014E-09   -7.067E-09
 Ala      Conc. = 5.96E-10
  -1.18358E-08 -1.16846E-08 -1.14947E-08 -1.12854E-08 -1.11410E-08 -1.09748E-08 -1.07583E-08 -1.06842E-08 -1.06028E-08 -1.03553E-08
  -1.02540E-08 -1.02011E-08 -1.00253E-08 -9.88158E-09 -9.75780E-09 -9.61409E-09 -9.46088E-09 -9.30260E-09 -9.14142E-09 -8.97835E-09
  -8.81412E-09 -8.64909E-09 -8.48351E-09 -8.31760E-09 -8.15154E-09 -7.98535E-09 -7.81917E-09 -7.65303E-09 -7.48700E-09 -7.32111E-09
  -7.15534E-09 -6.98987E-09 -6.82459E-09 -6.65959E-09 -6.49486E-09 -6.33046E-09 -6.16638E-09 -6.00260E-09 -5.83922E-09 -5.67627E-09
  -5.51363E-09 -5.35137E-09 -5.18960E-09 -5.02827E-09 -4.86735E-09 -4.70693E-09 -4.54695E-09 -4.38747E-09 -4.22851E-09 -4.07012E-09
  -3.91216E-09 -3.75476E-09 -3.59790E-09 -3.44163E-09 -3.28599E-09 -3.13095E-09 -2.97659E-09 -2.82291E-09 -2.66995E-09 -2.51774E-09
  -2.36632E-09 -2.21570E-09 -2.06591E-09 -1.91701E-09 -1.76901E-09 -1.62192E-09 -1.47579E-09 -1.33063E-09 -1.18649E-09 -1.04340E-09
  -9.01357E-10 -7.60409E-10 -6.20574E-10 -4.81877E-10 -3.44345E-10 -2.07992E-10 -7.28509E-11  6.10576E-11  1.93773E-10  3.25202E-10
   4.55381E-10  5.84286E-10  7.11963E-10  8.38364E-10  9.63523E-10  1.08752E-09  1.21036E-09  1.33217E-09  1.45304E-09  1.57315E-09
   1.69279E-09  1.81231E-09  1.93240E-09  2.05394E-09  2.17862E-09  2.30942E-09  2.45213E-09  2.62010E-09  2.85124E-09  3.29501E-09
   4.00164E-09  3.94314E-09  4.11507E-09  4.90345E-09  5.13468E-09  5.20018E-09  5.35416E-09  5.45437E-09  5.58761E-09  5.77154E-09
   5.51915E-09  4.78748E-09  5.04445E-09  5.06866E-09  4.37531E-09  4.18044E-09  4.12556E-09  4.11906E-09  4.13361E-09  4.15839E-09
   4.18831E-09  4.22064E-09  4.25381E-09  4.28682E-09  4.31905E-09  4.35003E-09  4.37947E-09  4.40712E-09  4.43283E-09  4.45644E-09
   4.47786E-09  4.49700E-09  4.51378E-09  4.52815E-09  4.54006E-09  4.54946E-09  4.55631E-09  4.56057E-09  4.56222E-09  4.56121E-09
   4.55753E-09  4.55116E-09  4.54205E-09  4.53021E-09  4.51560E-09  4.49821E-09  4.47801E-09  4.45498E-09  4.42913E-09  4.40042E-09
   4.36886E-09  4.33444E-09  4.29713E-09  4.25697E-09  4.21394E-09  4.16809E-09  4.11943E-09  4.06812E-09  4.01439E-09  3.95851E-09
   3.90090E-09  3.84220E-09  3.78360E-09  3.72757E-09  3.68048E-09  3.66422E-09  3.79694E-09  4.21501E-09  4.16179E-09  4.02429E-09
   3.97123E-09  3.92284E-09  3.86643E-09  3.81735E-09  3.72738E-09  3.66201E-09  3.66021E-09  3.43280E-09  2.72028E-09  2.47488E-09
   2.32938E-09  2.21015E-09  2.10075E-09  1.99585E-09  1.89328E-09  1.79207E-09  1.69171E-09  1.59195E-09  1.49269E-09  1.39388E-09
   1.29551E-09  1.19763E-09  1.10027E-09  1.00351E-09  9.07390E-10  8.12006E-10  7.17427E-10  6.23753E-10  5.31042E-10  4.39402E-10
   3.48918E-10  2.59673E-10  1.71765E-10  8.52776E-11  3.06307E-13 -8.30624E-11 -1.64713E-10 -2.44594E-10 -3.22605E-10 -3.98790E-10
  -4.73174E-10 -5.45799E-10 -6.16693E-10 -6.85901E-10 -7.53448E-10 -8.19380E-10 -8.83720E-10 -9.46506E-10 -1.00778E-09 -1.06757E-09
  -1.12591E-09 -1.18284E-09 -1.23839E-09 -1.29259E-09 -1.34548E-09 -1.39710E-09 -1.44747E-09 -1.49664E-09 -1.54465E-09 -1.59150E-09
  -1.63725E-09 -1.68194E-09 -1.72558E-09 -1.76823E-09 -1.80991E-09 -1.85067E-09 -1.89052E-09 -1.92951E-09 -1.96768E-09 -2.00504E-09
  -2.04165E-09 -2.07753E-09 -2.11271E-09 -2.14725E-09 -2.18115E-09 -2.21447E-09 -2.24723E-09 -2.27949E-09 -2.31124E-09 -2.34254E-09
  -2.37343E-09 -2.40394E-09 -2.43409E-09 -2.46392E-09 -2.49349E-09 -2.52280E-09 -2.55190E-09 -2.58082E-09 -2.60960E-09 -2.63828E-09
  -2.66686E-09 -2.69538E-09 -2.72384E-09 -2.75226E-09 -2.78066E-09 -2.80904E-09 -2.83743E-09 -2.86584E-09 -2.89428E-09 -2.92277E-09
  -2.95132E-09 -2.97994E-09 -3.00866E-09 -3.03748E-09 -3.06643E-09 -3.09551E-09 -3.12473E-09 -3.15412E-09 -3.18369E-09 -3.21346E-09
  -3.24342E-09 -3.27362E-09 -3.30404E-09 -3.33472E-09 -3.36567E-09 -3.39690E-09 -3.42841E-09 -3.46024E-09 -3.49240E-09 -3.52489E-09
  -3.55774E-09 -3.59095E-09 -3.62454E-09 -3.65853E-09 -3.69293E-09 -3.72776E-09 -3.76303E-09 -3.79875E-09 -3.83495E-09 -3.87162E-09
  -3.90880E-09 -3.94649E-09 -3.98470E-09 -4.02346E-09 -4.06277E-09 -4.10266E-09 -4.14313E-09 -4.18420E-09 -4.22589E-09 -4.26820E-09
  -4.31117E-09 -4.35478E-09 -4.39905E-09 -4.44395E-09 -4.48946E-09 -4.53556E-09 -4.58224E-09 -4.62947E-09 -4.67725E-09 -4.72554E-09
  -4.77434E-09 -4.82362E-09 -4.87337E-09 -4.92356E-09 -4.97418E-09 -5.02521E-09 -5.07663E-09 -5.12842E-09 -5.18057E-09 -5.23305E-09
  -5.28586E-09 -5.33896E-09 -5.39233E-09 -5.44598E-09 -5.49987E-09 -5.55397E-09 -5.60830E-09 -5.66280E-09 -5.71748E-09 -5.77231E-09
  -5.82727E-09 -5.88234E-09 -5.93752E-09 -5.99276E-09 -6.04807E-09 -6.10342E-09 -6.15879E-09 -6.21417E-09 -6.26953E-09 -6.32485E-09
  -6.38013E-09 -6.43533E-09 -6.49045E-09 -6.54546E-09 -6.60034E-09 -6.65508E-09 -6.70967E-09 -6.76406E-09 -6.81826E-09 -6.87224E-09
  -6.92599E-09 -6.97948E-09 -7.03270E-09
 GABA     Conc. = 1.64E-09
  -1.21208E-08 -1.19479E-08 -1.17749E-08 -1.16017E-08 -1.14284E-08 -1.12548E-08 -1.10811E-08 -1.09071E-08 -1.07329E-08 -1.05584E-08
  -1.03835E-08 -1.02084E-08 -1.00326E-08 -9.85650E-09 -9.67972E-09 -9.50202E-09 -9.32378E-09 -9.14441E-09 -8.96325E-09 -8.78056E-09
  -8.59568E-09 -8.40744E-09 -8.21505E-09 -8.01689E-09 -7.81005E-09 -7.59058E-09 -7.35037E-09 -7.07165E-09 -6.71173E-09 -6.13395E-09
  -5.56062E-09 -5.48605E-09 -4.73719E-09 -3.73204E-09 -3.67833E-09 -3.41975E-09 -2.75364E-09 -2.47694E-09 -2.26159E-09 -2.06740E-09
  -2.33731E-09 -2.59850E-09 -2.11560E-09 -2.54682E-09 -3.40671E-09 -3.21690E-09 -3.18924E-09 -3.54798E-09 -3.60620E-09 -3.55756E-09
  -3.45982E-09 -3.33572E-09 -3.19669E-09 -3.04516E-09 -2.88289E-09 -2.71133E-09 -2.52895E-09 -2.33242E-09 -2.11654E-09 -1.86799E-09
  -1.55595E-09 -1.10079E-09 -3.39534E-10 -1.68184E-10  5.52396E-11  1.23295E-09  1.49525E-09  1.37539E-09  1.86920E-09  2.16466E-09
   2.28372E-09  2.48966E-09  2.37301E-09  1.72535E-09  1.95658E-09  2.11010E-09  1.00652E-09  8.99177E-10  1.16061E-09  1.00731E-09
   1.20986E-09  1.24368E-09  1.26027E-09  1.93087E-09  2.26538E-09  2.21386E-09  2.76154E-09  3.17867E-09  3.24891E-09  3.64538E-09
   3.90224E-09  3.74561E-09  4.01407E-09  4.37683E-09  3.88244E-09  3.77181E-09  4.11236E-09  3.79231E-09  3.54540E-09  3.60036E-09
   3.52320E-09  3.45629E-09  3.44015E-09  3.45231E-09  3.48136E-09  3.52060E-09  3.56619E-09  3.61597E-09  3.66839E-09  3.72237E-09
   3.77767E-09  3.83283E-09  3.88750E-09  3.94146E-09  3.99429E-09  4.04586E-09  4.09641E-09  4.14540E-09  4.19269E-09  4.23820E-09
   4.28180E-09  4.32342E-09  4.36306E-09  4.40061E-09  4.43600E-09  4.46920E-09  4.50017E-09  4.52882E-09  4.55515E-09  4.57913E-09
   4.60069E-09  4.61981E-09  4.63647E-09  4.65066E-09  4.66234E-09  4.67147E-09  4.67804E-09  4.68203E-09  4.68339E-09  4.68213E-09
   4.67822E-09  4.67165E-09  4.66241E-09  4.65048E-09  4.63584E-09  4.61847E-09  4.59838E-09  4.57554E-09  4.54998E-09  4.52169E-09
   4.49068E-09  4.45696E-09  4.42055E-09  4.38151E-09  4.33988E-09  4.29578E-09  4.24930E-09  4.20075E-09  4.15053E-09  4.09917E-09
   4.04751E-09  3.99688E-09  3.94960E-09  3.91024E-09  3.88925E-09  3.91635E-09  4.11102E-09  5.15730E-09  5.72348E-09  5.54294E-09
   5.43070E-09  5.43547E-09  5.42450E-09  5.43428E-09  5.37867E-09  5.28841E-09  5.37701E-09  5.34613E-09  4.01532E-09  2.93235E-09
   2.59310E-09  2.40292E-09  2.25928E-09  2.13501E-09  2.02031E-09  1.91096E-09  1.80484E-09  1.70084E-09  1.59837E-09  1.49705E-09
   1.39669E-09  1.29719E-09  1.19849E-09  1.10061E-09  1.00355E-09  9.07355E-10  8.12077E-10  7.17791E-10  6.24543E-10  5.32425E-10
   4.41513E-10  3.51885E-10  2.63629E-10  1.76823E-10  9.15603E-11  7.92479E-12 -7.39737E-11 -1.54085E-10 -2.32310E-10 -3.08694E-10
  -3.83267E-10 -4.56070E-10 -5.27132E-10 -5.96499E-10 -6.64196E-10 -7.30271E-10 -7.94748E-10 -8.57664E-10 -9.19063E-10 -9.78977E-10
  -1.03743E-09 -1.09447E-09 -1.15013E-09 -1.20443E-09 -1.25743E-09 -1.30915E-09 -1.35961E-09 -1.40887E-09 -1.45697E-09 -1.50391E-09
