 LCModel (Version 6.3-1R) Copyright: S.W. Provencher.          Ref.: Magn. Reson. Med. 30:672-679 (1993).                
 onepulse 16x19_ftSpec_smooth_lcm
 26 lines in following concentration table = NCONC+1
    Conc.  %SD /Cr+PCr  Metabolite                                         
    0.000 999%   0.000 Ala                                                 
    0.000 999%   0.000 Asp                                                 
 3.74E-10  47%   1.000 Cr                                                  
    0.000 999%   0.000 GABA                                                
    0.000 999%   0.000 Glc                                                 
 2.52E-09  27%   6.752 Gln                                                 
 3.58E-11 999% 9.6E-02 Glu                                                 
 7.16E-10  51%   1.916 Glyc                                                
    0.000 999%   0.000 GPC                                                 
    0.000 999%   0.000 GSH                                                 
    0.000 999%   0.000 Ins                                                 
    0.000 999%   0.000 Lac                                                 
    0.000 999%   0.000 NAAG                                                
 3.43E-10  52%   0.917 NAA                                                 
 1.23E-10  77%   0.330 PCh                                                 
    0.000 999%   0.000 PCr                                                 
    0.000 999%   0.000 PE                                                  
 5.52E-11 407%   0.148 Scyllo                                              
 1.94E-09  23%   5.184 Ser                                                 
 8.08E-10  84%   2.162 Tau                                                 
 1.23E-10  77%   0.330 GPC+PCh                                             
 3.43E-10  52%   0.917 NAA+NAAG                                            
 7.16E-10  51%   1.916 Ins+Glyc                                            
 3.74E-10  47%   1.000 Cr+PCr                                              
 2.56E-09  16%   6.848 Glu+Gln                                             
   6 lines in following misc. output table
  FWHM = 0.089 ppm    S/N =   4                                            
  Data shift = 0.347 ppm                                                   
  Ph: -48 deg     -26.7 deg/ppm                                            
  alphaB,S = 1.7E-01,   4.3E+01                                            
   16 spline knots.   Ns = 5(1)                                            
  (11) 4 infls.   ( 9) 1 extrs.                                            
  363 points on ppm-axis = NY
      4.250000     4.238821     4.227641     4.216462     4.205282     4.194103     4.182923     4.171744     4.160564     4.149385
      4.138206     4.127026     4.115847     4.104667     4.093488     4.082308     4.071129     4.059949     4.048770     4.037591
      4.026411     4.015232     4.004052     3.992873     3.981693     3.970514     3.959334     3.948155     3.936975     3.925796
      3.914617     3.903437     3.892258     3.881078     3.869899     3.858719     3.847540     3.836360     3.825181     3.814002
      3.802822     3.791643     3.780463     3.769284     3.758104     3.746925     3.735745     3.724566     3.713387     3.702207
      3.691028     3.679848     3.668669     3.657489     3.646310     3.635130     3.623951     3.612772     3.601592     3.590413
      3.579233     3.568054     3.556874     3.545695     3.534515     3.523336     3.512156     3.500977     3.489798     3.478618
      3.467439     3.456259     3.445080     3.433900     3.422721     3.411541     3.400362     3.389183     3.378003     3.366824
      3.355644     3.344465     3.333285     3.322106     3.310926     3.299747     3.288568     3.277388     3.266209     3.255029
      3.243850     3.232670     3.221491     3.210311     3.199132     3.187953     3.176773     3.165594     3.154414     3.143235
      3.132055     3.120876     3.109696     3.098517     3.087337     3.076158     3.064979     3.053799     3.042620     3.031440
      3.020261     3.009081     2.997902     2.986722     2.975543     2.964364     2.953184     2.942005     2.930825     2.919646
      2.908466     2.897287     2.886107     2.874928     2.863749     2.852569     2.841390     2.830210     2.819031     2.807851
      2.796672     2.785492     2.774313     2.763134     2.751954     2.740775     2.729595     2.718416     2.707236     2.696057
      2.684877     2.673698     2.662519     2.651339     2.640160     2.628980     2.617801     2.606621     2.595442     2.584262
      2.573083     2.561903     2.550724     2.539545     2.528365     2.517186     2.506006     2.494827     2.483647     2.472468
      2.461288     2.450109     2.438930     2.427750     2.416571     2.405391     2.394212     2.383032     2.371853     2.360673
      2.349494     2.338315     2.327135     2.315956     2.304776     2.293597     2.282417     2.271238     2.260058     2.248879
      2.237700     2.226520     2.215341     2.204161     2.192982     2.181802     2.170623     2.159443     2.148264     2.137084
      2.125905     2.114726     2.103546     2.092367     2.081187     2.070008     2.058828     2.047649     2.036469     2.025290
      2.014111     2.002931     1.991752     1.980572     1.969393     1.958213     1.947034     1.935854     1.924675     1.913496
      1.902316     1.891137     1.879957     1.868778     1.857598     1.846419     1.835239     1.824060     1.812881     1.801701
      1.790522     1.779342     1.768163     1.756983     1.745804     1.734624     1.723445     1.712265     1.701086     1.689907
      1.678727     1.667548     1.656368     1.645189     1.634009     1.622830     1.611650     1.600471     1.589292     1.578112
      1.566933     1.555753     1.544574     1.533394     1.522215     1.511035     1.499856     1.488677     1.477497     1.466318
      1.455138     1.443959     1.432779     1.421600     1.410420     1.399241     1.388062     1.376882     1.365703     1.354523
      1.343344     1.332164     1.320985     1.309805     1.298626     1.287446     1.276267     1.265088     1.253908     1.242729
      1.231549     1.220370     1.209190     1.198011     1.186831     1.175652     1.164473     1.153293     1.142114     1.130934
      1.119755     1.108575     1.097396     1.086216     1.075037     1.063858     1.052678     1.041499     1.030319     1.019140
      1.007960     0.996781     0.985601     0.974422     0.963243     0.952063     0.940884     0.929704     0.918525     0.907345
      0.896166     0.884986     0.873807     0.862628     0.851448     0.840269     0.829089     0.817910     0.806730     0.795551
      0.784371     0.773192     0.762012     0.750833     0.739654     0.728474     0.717295     0.706115     0.694936     0.683756
      0.672577     0.661397     0.650218     0.639039     0.627859     0.616680     0.605500     0.594321     0.583141     0.571962
      0.560782     0.549603     0.538424     0.527244     0.516065     0.504885     0.493706     0.482526     0.471347     0.460167
      0.448988     0.437809     0.426629     0.415450     0.404270     0.393091     0.381911     0.370732     0.359552     0.348373
      0.337193     0.326014     0.314835     0.303655     0.292476     0.281296     0.270117     0.258937     0.247758     0.236578
      0.225399     0.214220     0.203040
 NY phased data points follow
   1.36823E-08  1.24893E-08  1.15653E-08  9.80176E-09  8.03311E-09  7.71226E-09  7.34125E-09  6.68895E-09  7.53948E-09  7.34897E-09
   7.97475E-09  7.66783E-09  7.96219E-09  7.64314E-09  8.60893E-09  7.85069E-09  7.72052E-09  7.60834E-09  7.65200E-09  7.07847E-09
   6.94919E-09  6.27991E-09  6.85462E-09  7.58409E-09  8.16613E-09  7.51827E-09  7.24296E-09  6.68182E-09  7.67517E-09  6.35367E-09
   7.57559E-09  7.90909E-09  9.08203E-09  8.02845E-09  7.23640E-09  6.71398E-09  4.54707E-09  4.36991E-09  3.77628E-09  3.43763E-09
   3.95749E-09  3.51301E-09  3.75280E-09  2.89100E-09  4.38147E-09  3.20280E-09  2.87999E-09  2.59316E-09  2.40046E-09  4.07625E-09
   3.77898E-09  3.64902E-09  4.42644E-09  4.19379E-09  4.33100E-09  3.67952E-09  4.23421E-09  3.84313E-09  3.75357E-09  4.56074E-09
   5.82816E-09  6.53994E-09  9.14013E-09  1.04248E-08  1.12444E-08  9.05654E-09  7.84526E-09  5.92758E-09  5.13806E-09  4.31490E-09
   4.97986E-09  3.17628E-09  3.69941E-09  3.27001E-09  3.71929E-09  2.24482E-09  4.69470E-09  5.34283E-09  7.08441E-09  8.60904E-09
   1.14703E-08  1.08505E-08  1.00389E-08  7.87334E-09  6.66472E-09  6.17848E-09  5.92626E-09  4.52958E-09  4.67040E-09  4.23042E-09
   4.31664E-09  4.02560E-09  3.88642E-09  2.62692E-09  3.46333E-09  1.88842E-09  2.96141E-09  1.79876E-09  2.07498E-09  2.33316E-09
   2.40385E-09  2.78982E-09  1.63764E-09  2.12547E-09  2.39931E-09  1.74429E-09  2.08722E-09  1.76159E-09  1.72461E-09  5.71952E-10
   1.33792E-09  5.40675E-10  1.21973E-09  1.93552E-09  1.91738E-09  2.13786E-09  1.93899E-09  2.90462E-09  3.31558E-09  2.49281E-09
   2.65287E-09  2.26643E-09  3.29583E-09  1.42536E-09  1.51435E-09  1.18035E-09  1.09208E-09  9.37962E-10  1.53422E-09  1.83358E-09
   2.18041E-09  1.25890E-09  2.33851E-09  2.51317E-09  2.05717E-09  1.22923E-09  1.83170E-09  1.45761E-09  1.83843E-09  2.40923E-09
   3.10063E-09  3.68488E-09  3.94909E-09  2.57812E-09  3.10102E-09  3.24417E-09  3.84677E-09  4.42504E-09  3.70692E-09  3.82090E-09
   3.26671E-09  3.54921E-09  3.83660E-09  3.59570E-09  3.99816E-09  3.44576E-09  3.60361E-09  3.61399E-09  3.92017E-09  4.44804E-09
   4.23973E-09  4.28530E-09  4.14590E-09  3.15126E-09  3.49629E-09  3.86740E-09  3.84655E-09  4.37451E-09  5.96092E-09  8.02929E-09
   1.01682E-08  1.37065E-08  1.51830E-08  1.44406E-08  1.24206E-08  1.00812E-08  8.10974E-09  8.03692E-09  7.22154E-09  5.88740E-09
   5.39727E-09  4.98464E-09  4.68510E-09  3.32365E-09  4.04774E-09  2.28397E-09  1.84125E-09  8.35671E-10 -8.66355E-11 -4.82040E-10
  -1.34629E-09 -2.51019E-09 -4.07282E-09 -4.69702E-09 -6.05004E-09 -6.64462E-09 -7.79483E-09 -8.93849E-09 -9.96089E-09 -1.05666E-08
  -1.07053E-08 -1.12013E-08 -1.00050E-08 -1.10956E-08 -1.07087E-08 -1.02266E-08 -8.45311E-09 -8.24737E-09 -6.95517E-09 -6.73109E-09
  -5.67711E-09 -4.02304E-09 -3.51286E-09 -2.15264E-09 -1.83077E-09 -1.35670E-09 -1.43958E-09 -1.65166E-09 -8.82156E-10 -1.55794E-09
  -1.93154E-09 -1.66008E-09 -8.89766E-10 -1.87508E-09 -1.29380E-09 -9.18159E-10 -1.15757E-09 -1.81959E-10 -1.21231E-09 -4.76332E-10
  -9.01927E-10 -1.59825E-09 -1.25800E-09 -1.45875E-09 -1.36390E-09 -6.70020E-10 -9.57497E-10 -2.65906E-11 -7.93406E-10 -6.71285E-10
  -7.06060E-10 -5.62088E-10 -7.78412E-10 -1.03903E-09 -1.41487E-09 -8.12456E-10 -8.43298E-10 -8.69150E-10 -1.10115E-09 -2.01950E-10
  -8.62415E-10 -1.83135E-10 -3.45466E-10  3.92052E-10  3.16652E-10 -4.11942E-10  6.04593E-11 -3.58352E-10 -5.79152E-10 -1.84402E-10
  -6.37871E-10 -1.12287E-09 -1.13092E-09 -1.23697E-09 -1.60094E-09 -1.09687E-09 -1.67928E-09 -8.90438E-10 -8.25856E-10 -4.96382E-10
  -1.85415E-10 -1.87247E-10 -3.13084E-10  2.79471E-10  3.60198E-10  3.01457E-10  6.25083E-10  5.34424E-10  3.12369E-10  5.30158E-10
   3.58514E-10 -4.71662E-10 -1.84875E-10  1.25580E-10 -8.61470E-10 -2.75640E-12 -3.96938E-11 -1.01618E-10 -4.04922E-10 -2.16717E-10
  -1.07865E-10 -8.14241E-10 -1.28768E-09 -2.23565E-10 -1.00635E-09 -4.76134E-10 -5.13552E-10 -9.52186E-10 -1.34507E-09 -8.96026E-10
  -6.68203E-10 -8.46449E-10 -1.07790E-09 -8.91345E-10 -1.04165E-09 -1.07095E-09 -1.02235E-09 -1.22162E-09 -1.12557E-09 -6.94881E-10
  -9.98916E-10 -1.30230E-09 -9.15433E-10 -1.58005E-09 -5.22006E-10 -9.73420E-10 -1.05528E-09 -1.14913E-09 -1.10819E-09 -1.46454E-09
  -9.56378E-10 -1.45146E-09 -5.94085E-10 -1.52852E-09 -1.11127E-09 -1.26789E-09 -1.36293E-09 -9.63474E-10 -1.01178E-09 -8.89507E-10
  -8.56030E-10 -1.06460E-09 -1.42129E-09 -6.83599E-10 -1.60955E-09 -7.94644E-10 -6.09082E-10 -1.61255E-09 -7.46460E-10 -6.14774E-10
  -7.97503E-10 -1.11225E-09 -8.55391E-10 -5.99820E-10 -9.81339E-10 -8.83308E-10 -7.94360E-10 -1.05558E-09 -8.05441E-10 -1.29311E-09
  -9.19919E-10 -5.31463E-10 -8.34009E-10 -1.09324E-09 -7.51252E-10 -7.22282E-10 -5.75287E-10 -8.75598E-10 -9.19838E-10 -1.25888E-09
  -1.01524E-10 -9.45496E-10 -9.22720E-10
 NY points of the fit to the data follow
   1.26622E-08  1.16507E-08  1.03662E-08  9.65367E-09  9.48795E-09  9.14985E-09  8.52566E-09  7.93943E-09  7.60842E-09  7.49140E-09
   7.68760E-09  7.77891E-09  7.78105E-09  7.86247E-09  7.67000E-09  7.56530E-09  7.61879E-09  7.68743E-09  7.50750E-09  6.96101E-09
   6.63648E-09  6.59493E-09  6.64637E-09  6.83873E-09  7.18304E-09  7.54402E-09  7.94934E-09  8.11922E-09  8.10894E-09  7.83256E-09
   7.38567E-09  7.02766E-09  6.86396E-09  6.56469E-09  6.17064E-09  5.71221E-09  5.48079E-09  5.20552E-09  4.91082E-09  4.67191E-09
   4.41200E-09  3.94609E-09  3.28746E-09  3.00017E-09  2.95017E-09  2.95631E-09  2.97722E-09  2.99968E-09  3.02756E-09  3.06466E-09
   3.13008E-09  3.22558E-09  3.35366E-09  3.50049E-09  3.69101E-09  4.00480E-09  4.53589E-09  5.12410E-09  5.79721E-09  6.62490E-09
   7.37544E-09  7.86661E-09  8.23523E-09  8.41512E-09  8.30314E-09  7.80948E-09  7.01940E-09  6.22982E-09  5.65518E-09  4.79788E-09
   3.98765E-09  3.71371E-09  3.68935E-09  3.72903E-09  4.02724E-09  4.53388E-09  5.29623E-09  6.26687E-09  7.25374E-09  8.17407E-09
   8.91724E-09  9.33855E-09  9.28646E-09  8.68603E-09  7.99484E-09  7.39544E-09  6.47051E-09  5.32373E-09  4.32203E-09  3.69794E-09
   3.28317E-09  3.04039E-09  2.87932E-09  2.76532E-09  2.68142E-09  2.61552E-09  2.56317E-09  2.52175E-09  2.48819E-09  2.46099E-09
   2.43930E-09  2.42188E-09  2.40773E-09  2.39647E-09  2.38780E-09  2.38153E-09  2.37748E-09  2.37522E-09  2.37463E-09  2.37558E-09
   2.37797E-09  2.38172E-09  2.38674E-09  2.39291E-09  2.40006E-09  2.40802E-09  2.41664E-09  2.42576E-09  2.43525E-09  2.44494E-09
   2.45472E-09  2.46445E-09  2.47399E-09  2.48322E-09  2.49201E-09  2.50024E-09  2.50779E-09  2.51453E-09  2.52036E-09  2.52514E-09
   2.52877E-09  2.53113E-09  2.53210E-09  2.53158E-09  2.52946E-09  2.52562E-09  2.51996E-09  2.51238E-09  2.50277E-09  2.49103E-09
   2.47705E-09  2.46079E-09  2.44217E-09  2.42116E-09  2.39771E-09  2.37177E-09  2.34331E-09  2.31232E-09  2.27877E-09  2.24268E-09
   2.20406E-09  2.16296E-09  2.11945E-09  2.07365E-09  2.02575E-09  1.97600E-09  1.92479E-09  1.87265E-09  1.82040E-09  1.76926E-09
   1.72112E-09  1.67902E-09  1.64825E-09  1.63857E-09  1.67076E-09  1.79894E-09  2.22824E-09  3.63304E-09  5.88654E-09  8.66401E-09
   1.14547E-08  1.36798E-08  1.47045E-08  1.43963E-08  1.32657E-08  1.19325E-08  1.03323E-08  7.76078E-09  4.19217E-09  1.67808E-09
   2.54138E-10 -2.95443E-10 -6.25701E-10 -8.71569E-10 -1.07513E-09 -1.25370E-09 -1.41560E-09 -1.56524E-09 -1.70507E-09 -1.83649E-09
  -1.96031E-09 -2.07693E-09 -2.18654E-09 -2.28915E-09 -2.38467E-09 -2.47294E-09 -2.55385E-09 -2.62763E-09 -2.69453E-09 -2.75480E-09
  -2.80866E-09 -2.85633E-09 -2.89801E-09 -2.93388E-09 -2.96415E-09 -2.98897E-09 -3.00855E-09 -3.02304E-09 -3.03262E-09 -3.03745E-09
  -3.03771E-09 -3.03356E-09 -3.02516E-09 -3.01267E-09 -2.99626E-09 -2.97609E-09 -2.95231E-09 -2.92509E-09 -2.89458E-09 -2.86094E-09
  -2.82432E-09 -2.78490E-09 -2.74281E-09 -2.69823E-09 -2.65131E-09 -2.60220E-09 -2.55108E-09 -2.49810E-09 -2.44342E-09 -2.38721E-09
  -2.32963E-09 -2.27084E-09 -2.21101E-09 -2.15028E-09 -2.08882E-09 -2.02681E-09 -1.96439E-09 -1.90172E-09 -1.83897E-09 -1.77630E-09
  -1.71388E-09 -1.65184E-09 -1.59037E-09 -1.52963E-09 -1.46976E-09 -1.41094E-09 -1.35332E-09 -1.29706E-09 -1.24233E-09 -1.18929E-09
  -1.13808E-09 -1.08889E-09 -1.04178E-09 -9.96733E-10 -9.53722E-10 -9.12721E-10 -8.73694E-10 -8.36618E-10 -8.01458E-10 -7.68190E-10
  -7.36785E-10 -7.07208E-10 -6.79438E-10 -6.53439E-10 -6.29188E-10 -6.06652E-10 -5.85793E-10 -5.66603E-10 -5.49042E-10 -5.33076E-10
  -5.18676E-10 -5.05823E-10 -4.94476E-10 -4.84610E-10 -4.76206E-10 -4.69214E-10 -4.63627E-10 -4.59402E-10 -4.56517E-10 -4.54933E-10
  -4.54614E-10 -4.55504E-10 -4.57545E-10 -4.60679E-10 -4.64856E-10 -4.70015E-10 -4.76102E-10 -4.83060E-10 -4.90832E-10 -4.99366E-10
  -5.08601E-10 -5.18485E-10 -5.28958E-10 -5.39967E-10 -5.51457E-10 -5.63367E-10 -5.75646E-10 -5.88234E-10 -6.01081E-10 -6.14121E-10
  -6.27308E-10 -6.40580E-10 -6.53881E-10 -6.67161E-10 -6.80357E-10 -6.93416E-10 -7.06282E-10 -7.18899E-10 -7.31247E-10 -7.43319E-10
  -7.55110E-10 -7.66614E-10 -7.77829E-10 -7.88745E-10 -7.99359E-10 -8.09667E-10 -8.19662E-10 -8.29339E-10 -8.38695E-10 -8.47720E-10
  -8.56415E-10 -8.64769E-10 -8.72779E-10 -8.80442E-10 -8.87749E-10 -8.94698E-10 -9.01281E-10 -9.07494E-10 -9.13332E-10 -9.18791E-10
  -9.23862E-10 -9.28544E-10 -9.32828E-10 -9.36712E-10 -9.40190E-10 -9.43257E-10 -9.45927E-10 -9.48220E-10 -9.50152E-10 -9.51744E-10
  -9.53012E-10 -9.53977E-10 -9.54656E-10 -9.55068E-10 -9.55234E-10 -9.55168E-10 -9.54893E-10 -9.54425E-10 -9.53784E-10 -9.52987E-10
  -9.52053E-10 -9.51002E-10 -9.49851E-10 -9.48620E-10 -9.47326E-10 -9.45990E-10 -9.44628E-10 -9.43258E-10 -9.41900E-10 -9.40576E-10
  -9.39300E-10 -9.38094E-10 -9.36971E-10
 NY background values follow
     1.895E-09    1.892E-09    1.888E-09    1.885E-09    1.881E-09    1.878E-09    1.875E-09    1.872E-09    1.869E-09    1.865E-09
     1.862E-09    1.859E-09    1.856E-09    1.853E-09    1.850E-09    1.846E-09    1.843E-09    1.840E-09    1.837E-09    1.833E-09
     1.830E-09    1.826E-09    1.823E-09    1.819E-09    1.815E-09    1.812E-09    1.808E-09    1.803E-09    1.799E-09    1.795E-09
     1.790E-09    1.786E-09    1.781E-09    1.776E-09    1.771E-09    1.766E-09    1.761E-09    1.756E-09    1.751E-09    1.746E-09
     1.740E-09    1.735E-09    1.730E-09    1.724E-09    1.719E-09    1.714E-09    1.708E-09    1.703E-09    1.697E-09    1.692E-09
     1.687E-09    1.682E-09    1.677E-09    1.671E-09    1.666E-09    1.661E-09    1.657E-09    1.652E-09    1.647E-09    1.643E-09
     1.638E-09    1.634E-09    1.630E-09    1.626E-09    1.622E-09    1.618E-09    1.614E-09    1.611E-09    1.607E-09    1.604E-09
     1.601E-09    1.598E-09    1.595E-09    1.593E-09    1.591E-09    1.588E-09    1.586E-09    1.585E-09    1.583E-09    1.582E-09
     1.581E-09    1.580E-09    1.579E-09    1.579E-09    1.578E-09    1.578E-09    1.579E-09    1.579E-09    1.580E-09    1.581E-09
     1.582E-09    1.584E-09    1.586E-09    1.589E-09    1.592E-09    1.595E-09    1.598E-09    1.602E-09    1.607E-09    1.612E-09
     1.617E-09    1.623E-09    1.629E-09    1.636E-09    1.643E-09    1.651E-09    1.659E-09    1.668E-09    1.678E-09    1.688E-09
     1.699E-09    1.710E-09    1.722E-09    1.734E-09    1.747E-09    1.760E-09    1.774E-09    1.787E-09    1.801E-09    1.814E-09
     1.828E-09    1.840E-09    1.853E-09    1.865E-09    1.876E-09    1.887E-09    1.896E-09    1.905E-09    1.912E-09    1.919E-09
     1.924E-09    1.927E-09    1.929E-09    1.930E-09    1.928E-09    1.925E-09    1.920E-09    1.913E-09    1.903E-09    1.891E-09
     1.877E-09    1.860E-09    1.841E-09    1.819E-09    1.794E-09    1.766E-09    1.736E-09    1.703E-09    1.666E-09    1.627E-09
     1.584E-09    1.538E-09    1.489E-09    1.437E-09    1.381E-09    1.321E-09    1.258E-09    1.191E-09    1.121E-09    1.046E-09
     9.683E-10    8.861E-10    8.000E-10    7.098E-10    6.154E-10    5.167E-10    4.138E-10    3.064E-10    1.947E-10    7.889E-11
    -4.062E-11   -1.634E-10   -2.891E-10   -4.173E-10   -5.476E-10   -6.796E-10   -8.129E-10   -9.471E-10   -1.082E-09   -1.217E-09
    -1.351E-09   -1.485E-09   -1.618E-09   -1.749E-09   -1.878E-09   -2.005E-09   -2.130E-09   -2.251E-09   -2.369E-09   -2.483E-09
    -2.592E-09   -2.697E-09   -2.797E-09   -2.891E-09   -2.980E-09   -3.062E-09   -3.138E-09   -3.207E-09   -3.270E-09   -3.326E-09
    -3.377E-09   -3.422E-09   -3.461E-09   -3.494E-09   -3.522E-09   -3.545E-09   -3.563E-09   -3.576E-09   -3.584E-09   -3.587E-09
    -3.586E-09   -3.581E-09   -3.571E-09   -3.558E-09   -3.540E-09   -3.519E-09   -3.495E-09   -3.467E-09   -3.435E-09   -3.401E-09
    -3.364E-09   -3.324E-09   -3.281E-09   -3.236E-09   -3.188E-09   -3.138E-09   -3.087E-09   -3.033E-09   -2.978E-09   -2.921E-09
    -2.863E-09   -2.804E-09   -2.744E-09   -2.683E-09   -2.621E-09   -2.558E-09   -2.495E-09   -2.432E-09   -2.369E-09   -2.306E-09
    -2.243E-09   -2.181E-09   -2.119E-09   -2.058E-09   -1.998E-09   -1.939E-09   -1.881E-09   -1.824E-09   -1.769E-09   -1.716E-09
    -1.665E-09   -1.615E-09   -1.568E-09   -1.522E-09   -1.479E-09   -1.438E-09   -1.398E-09   -1.361E-09   -1.326E-09   -1.292E-09
    -1.261E-09   -1.231E-09   -1.203E-09   -1.176E-09   -1.152E-09   -1.129E-09   -1.108E-09   -1.089E-09   -1.071E-09   -1.055E-09
    -1.040E-09   -1.027E-09   -1.015E-09   -1.005E-09   -9.967E-10   -9.895E-10   -9.836E-10   -9.792E-10   -9.761E-10   -9.743E-10
    -9.738E-10   -9.744E-10   -9.763E-10   -9.792E-10   -9.831E-10   -9.881E-10   -9.940E-10   -1.001E-09   -1.008E-09   -1.017E-09
    -1.026E-09   -1.035E-09   -1.046E-09   -1.056E-09   -1.068E-09   -1.079E-09   -1.091E-09   -1.104E-09   -1.116E-09   -1.129E-09
    -1.142E-09   -1.155E-09   -1.168E-09   -1.181E-09   -1.194E-09   -1.207E-09   -1.220E-09   -1.232E-09   -1.244E-09   -1.256E-09
    -1.268E-09   -1.279E-09   -1.290E-09   -1.301E-09   -1.311E-09   -1.321E-09   -1.331E-09   -1.341E-09   -1.350E-09   -1.359E-09
    -1.367E-09   -1.375E-09   -1.383E-09   -1.391E-09   -1.398E-09   -1.404E-09   -1.411E-09   -1.417E-09   -1.422E-09   -1.428E-09
    -1.432E-09   -1.437E-09   -1.441E-09   -1.445E-09   -1.448E-09   -1.451E-09   -1.453E-09   -1.455E-09   -1.457E-09   -1.458E-09
    -1.459E-09   -1.460E-09   -1.460E-09   -1.461E-09   -1.461E-09   -1.460E-09   -1.460E-09   -1.459E-09   -1.458E-09   -1.457E-09
    -1.456E-09   -1.455E-09   -1.453E-09   -1.452E-09   -1.450E-09   -1.449E-09   -1.447E-09   -1.445E-09   -1.444E-09   -1.442E-09
    -1.441E-09   -1.439E-09   -1.438E-09
 Cr       Conc. = 3.74E-10
   3.13349E-09  2.91605E-09  2.52827E-09  2.14690E-09  2.04457E-09  2.00181E-09  1.97790E-09  1.96224E-09  1.95093E-09  1.94218E-09
   1.93509E-09  1.92914E-09  1.92402E-09  1.91953E-09  1.91553E-09  1.91196E-09  1.90875E-09  1.90590E-09  1.90341E-09  1.90129E-09
   1.89960E-09  1.89844E-09  1.89794E-09  1.89833E-09  1.89994E-09  1.90335E-09  1.90951E-09  1.92022E-09  1.93923E-09  1.97601E-09
   2.06371E-09  2.36687E-09  2.81372E-09  3.30160E-09  3.77119E-09  4.11922E-09  4.22280E-09  4.09205E-09  3.86862E-09  3.66767E-09
   3.42611E-09  2.96259E-09  2.28838E-09  1.96873E-09  1.87227E-09  1.82675E-09  1.79943E-09  1.78051E-09  1.76612E-09  1.75444E-09
   1.74450E-09  1.73573E-09  1.72782E-09  1.72055E-09  1.71378E-09  1.70740E-09  1.70135E-09  1.69560E-09  1.69010E-09  1.68484E-09
   1.67978E-09  1.67493E-09  1.67027E-09  1.66579E-09  1.66149E-09  1.65737E-09  1.65342E-09  1.64966E-09  1.64607E-09  1.64266E-09
   1.63944E-09  1.63640E-09  1.63354E-09  1.63089E-09  1.62842E-09  1.62615E-09  1.62409E-09  1.62223E-09  1.62058E-09  1.61915E-09
   1.61793E-09  1.61695E-09  1.61618E-09  1.61566E-09  1.61536E-09  1.61532E-09  1.61554E-09  1.61604E-09  1.61682E-09  1.61790E-09
   1.61930E-09  1.62103E-09  1.62311E-09  1.62554E-09  1.62834E-09  1.63152E-09  1.63511E-09  1.63911E-09  1.64353E-09  1.64840E-09
   1.65372E-09  1.65951E-09  1.66579E-09  1.67256E-09  1.67984E-09  1.68764E-09  1.69599E-09  1.70488E-09  1.71435E-09  1.72439E-09
   1.73504E-09  1.74628E-09  1.75815E-09  1.77057E-09  1.78345E-09  1.79666E-09  1.81011E-09  1.82367E-09  1.83724E-09  1.85070E-09
   1.86396E-09  1.87688E-09  1.88937E-09  1.90132E-09  1.91261E-09  1.92313E-09  1.93277E-09  1.94143E-09  1.94898E-09  1.95533E-09
   1.96036E-09  1.96396E-09  1.96602E-09  1.96642E-09  1.96507E-09  1.96184E-09  1.95663E-09  1.94933E-09  1.93983E-09  1.92802E-09
   1.91378E-09  1.89705E-09  1.87774E-09  1.85579E-09  1.83112E-09  1.80367E-09  1.77337E-09  1.74015E-09  1.70393E-09  1.66465E-09
   1.62225E-09  1.57666E-09  1.52781E-09  1.47565E-09  1.42012E-09  1.36117E-09  1.29876E-09  1.23286E-09  1.16345E-09  1.09056E-09
   1.01427E-09  9.34744E-10  8.52386E-10  7.68023E-10  6.83789E-10  6.06503E-10  5.70071E-10  5.98303E-10  6.46574E-10  6.92764E-10
   7.11704E-10  6.63137E-10  5.27453E-10  3.36777E-10  1.38915E-10 -5.93485E-11 -3.06968E-10 -6.37634E-10 -9.44543E-10 -1.12480E-09
  -1.27797E-09 -1.42174E-09 -1.56059E-09 -1.69593E-09 -1.82818E-09 -1.95740E-09 -2.08342E-09 -2.20601E-09 -2.32485E-09 -2.43961E-09
  -2.54994E-09 -2.65548E-09 -2.75584E-09 -2.85065E-09 -2.93952E-09 -3.02207E-09 -3.09801E-09 -3.16744E-09 -3.23051E-09 -3.28739E-09
  -3.33823E-09 -3.38318E-09 -3.42241E-09 -3.45608E-09 -3.48433E-09 -3.50732E-09 -3.52521E-09 -3.53815E-09 -3.54630E-09 -3.54981E-09
  -3.54885E-09 -3.54355E-09 -3.53408E-09 -3.52060E-09 -3.50324E-09 -3.48219E-09 -3.45758E-09 -3.42956E-09 -3.39831E-09 -3.36396E-09
  -3.32668E-09 -3.28661E-09 -3.24391E-09 -3.19875E-09 -3.15126E-09 -3.10162E-09 -3.04998E-09 -2.99651E-09 -2.94135E-09 -2.88469E-09
  -2.82666E-09 -2.76744E-09 -2.70719E-09 -2.64606E-09 -2.58422E-09 -2.52182E-09 -2.45903E-09 -2.39601E-09 -2.33290E-09 -2.26990E-09
  -2.20714E-09 -2.14478E-09 -2.08300E-09 -2.02194E-09 -1.96177E-09 -1.90265E-09 -1.84473E-09 -1.78819E-09 -1.73318E-09 -1.67986E-09
  -1.62838E-09 -1.57892E-09 -1.53155E-09 -1.48624E-09 -1.44297E-09 -1.40172E-09 -1.36244E-09 -1.32512E-09 -1.28972E-09 -1.25621E-09
  -1.22457E-09 -1.19476E-09 -1.16676E-09 -1.14053E-09 -1.11605E-09 -1.09329E-09 -1.07220E-09 -1.05279E-09 -1.03501E-09 -1.01883E-09
  -1.00421E-09 -9.91144E-10 -9.79584E-10 -9.69507E-10 -9.60892E-10 -9.53690E-10 -9.47895E-10 -9.43463E-10 -9.40372E-10 -9.38583E-10
  -9.38060E-10 -9.38746E-10 -9.40585E-10 -9.43517E-10 -9.47493E-10 -9.52451E-10 -9.58339E-10 -9.65097E-10 -9.72670E-10 -9.81005E-10
  -9.90043E-10 -9.99729E-10 -1.01001E-09 -1.02082E-09 -1.03211E-09 -1.04382E-09 -1.05591E-09 -1.06830E-09 -1.08095E-09 -1.09379E-09
  -1.10678E-09 -1.11986E-09 -1.13296E-09 -1.14605E-09 -1.15905E-09 -1.17191E-09 -1.18458E-09 -1.19700E-09 -1.20915E-09 -1.22103E-09
  -1.23262E-09 -1.24393E-09 -1.25494E-09 -1.26566E-09 -1.27608E-09 -1.28619E-09 -1.29598E-09 -1.30546E-09 -1.31462E-09 -1.32344E-09
  -1.33194E-09 -1.34009E-09 -1.34790E-09 -1.35536E-09 -1.36246E-09 -1.36921E-09 -1.37559E-09 -1.38160E-09 -1.38723E-09 -1.39249E-09
  -1.39735E-09 -1.40182E-09 -1.40590E-09 -1.40958E-09 -1.41284E-09 -1.41570E-09 -1.41816E-09 -1.42024E-09 -1.42196E-09 -1.42334E-09
  -1.42439E-09 -1.42514E-09 -1.42561E-09 -1.42580E-09 -1.42575E-09 -1.42546E-09 -1.42497E-09 -1.42428E-09 -1.42342E-09 -1.42240E-09
  -1.42124E-09 -1.41996E-09 -1.41858E-09 -1.41712E-09 -1.41560E-09 -1.41403E-09 -1.41244E-09 -1.41084E-09 -1.40925E-09 -1.40769E-09
  -1.40618E-09 -1.40473E-09 -1.40337E-09
 Gln      Conc. = 2.52E-09
   3.30039E-09  3.79336E-09  4.27552E-09  4.76813E-09  5.22738E-09  5.57429E-09  5.73273E-09  5.67196E-09  5.39525E-09  4.99811E-09
   4.65059E-09  4.10051E-09  3.51768E-09  3.21888E-09  2.80971E-09  2.58601E-09  2.47024E-09  2.39887E-09  2.34992E-09  2.31412E-09
   2.28687E-09  2.26550E-09  2.24835E-09  2.23430E-09  2.22277E-09  2.21353E-09  2.20623E-09  2.19995E-09  2.19480E-09  2.19082E-09
   2.18753E-09  2.18492E-09  2.18304E-09  2.18189E-09  2.18152E-09  2.18197E-09  2.18332E-09  2.18565E-09  2.18906E-09  2.19367E-09
   2.19968E-09  2.20735E-09  2.21696E-09  2.22901E-09  2.24400E-09  2.26243E-09  2.28512E-09  2.31301E-09  2.34697E-09  2.38958E-09
   2.44440E-09  2.51456E-09  2.60791E-09  2.73841E-09  2.93281E-09  3.25976E-09  3.79219E-09  4.38128E-09  5.05544E-09  5.89063E-09
   6.65244E-09  7.17615E-09  7.56973E-09  7.77037E-09  7.63830E-09  7.12340E-09  6.33984E-09  5.58503E-09  5.04879E-09  4.23207E-09
   3.43037E-09  3.16075E-09  3.16163E-09  3.22594E-09  3.51845E-09  3.99356E-09  4.65766E-09  5.29309E-09  5.83681E-09  6.28822E-09
   6.59211E-09  6.71279E-09  6.61028E-09  6.17003E-09  5.69788E-09  5.28377E-09  4.60766E-09  3.94936E-09  3.59986E-09  3.18936E-09
   2.84804E-09  2.64130E-09  2.50164E-09  2.40209E-09  2.32815E-09  2.26964E-09  2.22317E-09  2.18635E-09  2.15650E-09  2.13235E-09
   2.11321E-09  2.09796E-09  2.08566E-09  2.07600E-09  2.06873E-09  2.06368E-09  2.06071E-09  2.05941E-09  2.05967E-09  2.06137E-09
   2.06444E-09  2.06879E-09  2.07434E-09  2.08099E-09  2.08856E-09  2.09689E-09  2.10583E-09  2.11523E-09  2.12494E-09  2.13483E-09
   2.14477E-09  2.15461E-09  2.16423E-09  2.17350E-09  2.18230E-09  2.19050E-09  2.19797E-09  2.20461E-09  2.21028E-09  2.21487E-09
   2.21826E-09  2.22033E-09  2.22097E-09  2.22007E-09  2.21750E-09  2.21315E-09  2.20692E-09  2.19869E-09  2.18835E-09  2.17578E-09
   2.16088E-09  2.14358E-09  2.12380E-09  2.10148E-09  2.07654E-09  2.04894E-09  2.01860E-09  1.98547E-09  1.94949E-09  1.91061E-09
   1.86879E-09  1.82398E-09  1.77616E-09  1.72531E-09  1.67143E-09  1.61454E-09  1.55469E-09  1.49197E-09  1.42654E-09  1.35865E-09
   1.28872E-09  1.21738E-09  1.14573E-09  1.07560E-09  1.01047E-09  9.57450E-10  9.33931E-10  9.96501E-10  1.42462E-09  2.25173E-09
   3.20957E-09  4.15579E-09  4.89731E-09  5.16396E-09  4.88433E-09  4.30916E-09  3.72949E-09  3.11720E-09  2.11823E-09  6.06281E-10
  -4.99290E-10 -9.00692E-10 -1.14695E-09 -1.33953E-09 -1.50673E-09 -1.65920E-09 -1.80163E-09 -1.93630E-09 -2.06435E-09 -2.18633E-09
  -2.30243E-09 -2.41268E-09 -2.51695E-09 -2.61503E-09 -2.70669E-09 -2.79163E-09 -2.86965E-09 -2.94089E-09 -3.00557E-09 -3.06387E-09
  -3.11598E-09 -3.16208E-09 -3.20234E-09 -3.23694E-09 -3.26605E-09 -3.28983E-09 -3.30844E-09 -3.32205E-09 -3.33082E-09 -3.33491E-09
  -3.33449E-09 -3.32970E-09 -3.32070E-09 -3.30767E-09 -3.29074E-09 -3.27008E-09 -3.24585E-09 -3.21820E-09 -3.18729E-09 -3.15327E-09
  -3.11630E-09 -3.07653E-09 -3.03412E-09 -2.98923E-09 -2.94201E-09 -2.89263E-09 -2.84124E-09 -2.78800E-09 -2.73308E-09 -2.67664E-09
