 LCModel (Version 6.3-1R) Copyright: S.W. Provencher.          Ref.: Magn. Reson. Med. 30:672-679 (1993).                
 onepulse 16x13_ftSpec_smooth_lcm
 26 lines in following concentration table = NCONC+1
    Conc.  %SD   /Cr    Metabolite                                         
    0.000 999%   0.000 Ala                                                 
    0.000 999%   0.000 Asp                                                 
    0.000 999%   0.000 Cr                                                  
 8.49E-11 631%   0.000 GABA                                                
    0.000 999%   0.000 Glc                                                 
 2.76E-09  21%   0.000 Gln                                                 
    0.000 999%   0.000 Glu                                                 
 2.19E-09  23%   0.000 Glyc                                                
    0.000 999%   0.000 GPC                                                 
 1.57E-09  33%   0.000 GSH                                                 
    0.000 999%   0.000 Ins                                                 
    0.000 999%   0.000 Lac                                                 
 2.84E-10  67%   0.000 NAAG                                                
    0.000 999%   0.000 NAA                                                 
 1.10E-10 170%   0.000 PCh                                                 
    0.000 999%   0.000 PCr                                                 
 1.89E-09  61%   0.000 PE                                                  
 2.09E-10 116%   0.000 Scyllo                                              
    0.000 999%   0.000 Ser                                                 
 1.01E-09  98%   0.000 Tau                                                 
 1.10E-10 170%   0.000 GPC+PCh                                             
 2.84E-10  67%   0.000 NAA+NAAG                                            
 2.19E-09  23%   0.000 Ins+Glyc                                            
    0.000 999%   0.000 Cr+PCr                                              
 2.76E-09  21%   0.000 Glu+Gln                                             
   6 lines in following misc. output table
  FWHM = 0.123 ppm    S/N =   3                                            
  Data shift = 0.436 ppm                                                   
  Ph:   6 deg     -37.1 deg/ppm                                            
  alphaB,S = 5.1E-01,   1.1E+01                                            
   10 spline knots.   Ns = 5(1)                                            
  (12) 6 infls.   (11) 3 extrs.                                            
  363 points on ppm-axis = NY
      4.250000     4.238821     4.227641     4.216462     4.205282     4.194103     4.182923     4.171744     4.160564     4.149385
      4.138206     4.127026     4.115847     4.104667     4.093488     4.082308     4.071129     4.059949     4.048770     4.037591
      4.026411     4.015232     4.004052     3.992873     3.981693     3.970514     3.959334     3.948155     3.936975     3.925796
      3.914617     3.903437     3.892258     3.881078     3.869899     3.858719     3.847540     3.836360     3.825181     3.814002
      3.802822     3.791643     3.780463     3.769284     3.758104     3.746925     3.735745     3.724566     3.713387     3.702207
      3.691028     3.679848     3.668669     3.657489     3.646310     3.635130     3.623951     3.612772     3.601592     3.590413
      3.579233     3.568054     3.556874     3.545695     3.534515     3.523336     3.512156     3.500977     3.489798     3.478618
      3.467439     3.456259     3.445080     3.433900     3.422721     3.411541     3.400362     3.389183     3.378003     3.366824
      3.355644     3.344465     3.333285     3.322106     3.310926     3.299747     3.288568     3.277388     3.266209     3.255029
      3.243850     3.232670     3.221491     3.210311     3.199132     3.187953     3.176773     3.165594     3.154414     3.143235
      3.132055     3.120876     3.109696     3.098517     3.087337     3.076158     3.064979     3.053799     3.042620     3.031440
      3.020261     3.009081     2.997902     2.986722     2.975543     2.964364     2.953184     2.942005     2.930825     2.919646
      2.908466     2.897287     2.886107     2.874928     2.863749     2.852569     2.841390     2.830210     2.819031     2.807851
      2.796672     2.785492     2.774313     2.763134     2.751954     2.740775     2.729595     2.718416     2.707236     2.696057
      2.684877     2.673698     2.662519     2.651339     2.640160     2.628980     2.617801     2.606621     2.595442     2.584262
      2.573083     2.561903     2.550724     2.539545     2.528365     2.517186     2.506006     2.494827     2.483647     2.472468
      2.461288     2.450109     2.438930     2.427750     2.416571     2.405391     2.394212     2.383032     2.371853     2.360673
      2.349494     2.338315     2.327135     2.315956     2.304776     2.293597     2.282417     2.271238     2.260058     2.248879
      2.237700     2.226520     2.215341     2.204161     2.192982     2.181802     2.170623     2.159443     2.148264     2.137084
      2.125905     2.114726     2.103546     2.092367     2.081187     2.070008     2.058828     2.047649     2.036469     2.025290
      2.014111     2.002931     1.991752     1.980572     1.969393     1.958213     1.947034     1.935854     1.924675     1.913496
      1.902316     1.891137     1.879957     1.868778     1.857598     1.846419     1.835239     1.824060     1.812881     1.801701
      1.790522     1.779342     1.768163     1.756983     1.745804     1.734624     1.723445     1.712265     1.701086     1.689907
      1.678727     1.667548     1.656368     1.645189     1.634009     1.622830     1.611650     1.600471     1.589292     1.578112
      1.566933     1.555753     1.544574     1.533394     1.522215     1.511035     1.499856     1.488677     1.477497     1.466318
      1.455138     1.443959     1.432779     1.421600     1.410420     1.399241     1.388062     1.376882     1.365703     1.354523
      1.343344     1.332164     1.320985     1.309805     1.298626     1.287446     1.276267     1.265088     1.253908     1.242729
      1.231549     1.220370     1.209190     1.198011     1.186831     1.175652     1.164473     1.153293     1.142114     1.130934
      1.119755     1.108575     1.097396     1.086216     1.075037     1.063858     1.052678     1.041499     1.030319     1.019140
      1.007960     0.996781     0.985601     0.974422     0.963243     0.952063     0.940884     0.929704     0.918525     0.907345
      0.896166     0.884986     0.873807     0.862628     0.851448     0.840269     0.829089     0.817910     0.806730     0.795551
      0.784371     0.773192     0.762012     0.750833     0.739654     0.728474     0.717295     0.706115     0.694936     0.683756
      0.672577     0.661397     0.650218     0.639039     0.627859     0.616680     0.605500     0.594321     0.583141     0.571962
      0.560782     0.549603     0.538424     0.527244     0.516065     0.504885     0.493706     0.482526     0.471347     0.460167
      0.448988     0.437809     0.426629     0.415450     0.404270     0.393091     0.381911     0.370732     0.359552     0.348373
      0.337193     0.326014     0.314835     0.303655     0.292476     0.281296     0.270117     0.258937     0.247758     0.236578
      0.225399     0.214220     0.203040
 NY phased data points follow
   1.13170E-08  1.34421E-08  1.18251E-08  1.34374E-08  1.26616E-08  1.41397E-08  1.26267E-08  1.44726E-08  1.31354E-08  1.41794E-08
   1.22149E-08  1.37006E-08  1.21138E-08  1.28328E-08  1.15527E-08  1.33778E-08  1.24856E-08  1.42868E-08  1.35966E-08  1.38144E-08
   1.23180E-08  1.24783E-08  1.19659E-08  1.42716E-08  1.49822E-08  1.64726E-08  1.55377E-08  1.57281E-08  1.36781E-08  1.26107E-08
   1.14795E-08  1.20591E-08  1.13260E-08  1.09267E-08  1.06843E-08  1.04847E-08  9.79513E-09  1.04195E-08  9.55829E-09  8.68114E-09
   8.07527E-09  8.36700E-09  8.95855E-09  8.96133E-09  8.80206E-09  8.46647E-09  8.30037E-09  7.40396E-09  7.28675E-09  6.44442E-09
   6.29384E-09  6.70059E-09  6.45953E-09  6.82274E-09  8.35925E-09  1.28139E-08  1.59553E-08  1.65721E-08  1.49569E-08  1.33503E-08
   1.32471E-08  1.16012E-08  1.13968E-08  1.00400E-08  1.00036E-08  9.18019E-09  8.31326E-09  7.60551E-09  6.81528E-09  5.56898E-09
   6.78649E-09  8.09606E-09  1.31772E-08  1.57544E-08  1.69395E-08  1.57122E-08  1.54797E-08  1.45080E-08  1.45540E-08  1.35135E-08
   1.34145E-08  1.31898E-08  1.33704E-08  1.26447E-08  1.25871E-08  1.20295E-08  1.14441E-08  1.05942E-08  1.13704E-08  9.81198E-09
   9.99291E-09  9.05252E-09  9.50002E-09  8.25517E-09  9.15976E-09  8.91488E-09  9.05586E-09  8.40666E-09  8.70883E-09  8.25543E-09
   8.66784E-09  8.04888E-09  7.06425E-09  6.54826E-09  5.80333E-09  5.73485E-09  7.50892E-09  6.54452E-09  6.51892E-09  6.57841E-09
   7.68544E-09  6.77008E-09  7.25629E-09  7.90059E-09  9.08004E-09  7.29742E-09  7.42605E-09  6.48361E-09  6.51045E-09  4.89344E-09
   6.04555E-09  5.88288E-09  6.07579E-09  5.11744E-09  6.09023E-09  5.65412E-09  6.21499E-09  5.37182E-09  6.10229E-09  5.41417E-09
   5.13123E-09  4.10052E-09  5.38869E-09  6.20068E-09  7.41368E-09  6.66350E-09  7.12875E-09  6.05177E-09  7.56723E-09  7.15797E-09
   8.29895E-09  7.85351E-09  8.62868E-09  7.67408E-09  8.30817E-09  7.17240E-09  7.96548E-09  7.30021E-09  7.93285E-09  7.00918E-09
   7.91726E-09  6.99133E-09  7.51482E-09  7.35574E-09  8.07840E-09  6.93844E-09  7.55178E-09  6.35870E-09  6.07101E-09  4.21780E-09
   5.44417E-09  3.76079E-09  2.59349E-09  5.63001E-09  1.38450E-08  1.70456E-08  1.88474E-08  1.77939E-08  1.86870E-08  1.84333E-08
   1.86993E-08  1.76545E-08  1.78680E-08  1.72814E-08  1.73523E-08  1.68535E-08  1.76308E-08  1.56455E-08  1.59029E-08  1.47267E-08
   1.43424E-08  1.26489E-08  1.17525E-08  8.92601E-09  7.72519E-09  5.63969E-09  4.66277E-09  1.78263E-09  1.49318E-10 -1.75333E-09
  -2.39318E-09 -5.32443E-09 -6.11341E-09 -7.38062E-09 -6.96905E-09 -8.03880E-09 -7.52881E-09 -7.23040E-09 -6.13105E-09 -6.42689E-09
  -5.55897E-09 -4.57408E-09 -3.64152E-09 -3.37473E-09 -1.42587E-09 -2.45298E-09 -1.72721E-09 -1.70190E-09 -1.05377E-09 -2.15198E-09
  -1.14086E-09 -1.72032E-09 -1.77068E-09 -2.15130E-09 -1.01690E-09 -1.41056E-09 -1.06796E-09 -1.02022E-09  7.47852E-11 -1.26930E-09
  -3.31038E-10 -1.72489E-09 -9.91165E-10 -1.40525E-09 -9.51106E-10 -1.50461E-09 -6.63337E-10 -1.47848E-09 -9.80050E-11 -1.02457E-09
  -2.72125E-10 -5.52067E-10 -8.07451E-11 -1.77578E-09 -1.41462E-09 -1.24929E-09 -8.31207E-10 -1.90024E-09 -1.38218E-09 -1.64238E-09
  -7.69660E-10 -8.87466E-10 -1.15463E-09 -1.21555E-09 -3.59226E-10 -1.23770E-09 -1.87665E-10 -4.09876E-10  2.16638E-11 -3.20947E-10
  -3.36410E-10 -5.36818E-10  4.17518E-10 -4.46271E-10 -9.37709E-10 -1.37928E-09 -1.22793E-09 -2.10391E-09 -1.67538E-09 -2.36989E-09
  -2.26505E-09 -2.34194E-09 -2.47759E-09 -2.46520E-09 -1.78877E-09 -1.57430E-09 -1.40101E-09 -1.64350E-09 -7.84514E-10 -9.54283E-10
  -3.66379E-10 -7.67258E-10 -2.97778E-10 -9.18157E-10  5.59039E-10 -6.51368E-11  4.76364E-11 -7.15331E-10  8.26184E-11  3.73059E-10
   4.35957E-10 -9.15893E-10 -2.34106E-10 -7.52898E-13 -1.21892E-11 -8.23632E-10  3.36212E-12 -1.25997E-11 -4.34321E-10 -7.17612E-10
  -3.56791E-10 -4.50062E-10 -6.05154E-10 -3.03883E-10 -5.70869E-10 -9.44875E-10 -9.12733E-10 -5.27359E-10 -9.75695E-10 -1.43302E-09
  -1.09635E-09 -1.49608E-09 -1.04265E-09 -9.39704E-10 -1.18282E-09 -1.55962E-09 -1.49099E-09 -1.12314E-09 -1.67298E-09 -1.58789E-09
  -1.80993E-09 -1.35412E-09 -1.60544E-09 -1.70300E-09 -1.67178E-09 -1.79584E-09 -1.82867E-09 -2.45122E-09 -2.12560E-09 -1.92721E-09
  -1.69159E-09 -1.92451E-09 -2.66650E-09 -1.85569E-09 -1.68751E-09 -2.70622E-09 -1.76224E-09 -2.06194E-09 -2.14519E-09 -2.35865E-09
  -1.89673E-09 -2.66192E-09 -2.44569E-09 -2.43964E-09 -2.37360E-09 -2.51481E-09 -2.87906E-09 -2.84129E-09 -2.63967E-09 -2.38132E-09
  -2.76206E-09 -3.60144E-09 -2.81218E-09 -2.27018E-09 -3.06290E-09 -3.01401E-09 -2.90400E-09 -2.49293E-09 -3.05896E-09 -2.76596E-09
  -2.83838E-09 -2.65264E-09 -3.25322E-09 -3.09778E-09 -3.30617E-09 -2.52982E-09 -2.72390E-09 -3.11271E-09 -3.31120E-09 -3.13689E-09
  -2.92292E-09 -3.25926E-09 -3.06736E-09
 NY points of the fit to the data follow
   1.34274E-08  1.34118E-08  1.32210E-08  1.26518E-08  1.23941E-08  1.22542E-08  1.22033E-08  1.26970E-08  1.42158E-08  1.45057E-08
   1.33974E-08  1.29405E-08  1.21629E-08  1.19992E-08  1.22873E-08  1.24421E-08  1.29191E-08  1.40560E-08  1.54321E-08  1.45847E-08
   1.17395E-08  1.21188E-08  1.28236E-08  1.42153E-08  1.49758E-08  1.52590E-08  1.52297E-08  1.47068E-08  1.39195E-08  1.31507E-08
   1.28480E-08  1.23511E-08  1.16491E-08  1.14665E-08  1.08853E-08  9.75572E-09  9.51653E-09  9.41291E-09  9.16146E-09  9.03219E-09
   8.93672E-09  8.89756E-09  9.05099E-09  9.02235E-09  8.44370E-09  7.80328E-09  7.76503E-09  7.04972E-09  6.87075E-09  7.12187E-09
   7.76495E-09  8.25942E-09  8.69949E-09  1.02264E-08  1.14170E-08  1.12528E-08  1.24044E-08  1.35535E-08  1.35473E-08  1.33776E-08
   1.34874E-08  1.29894E-08  1.28035E-08  1.25438E-08  1.10986E-08  1.02910E-08  1.06631E-08  9.72418E-09  8.79770E-09  9.23313E-09
   1.01375E-08  1.04225E-08  1.11453E-08  1.21843E-08  1.30914E-08  1.39181E-08  1.49736E-08  1.52222E-08  1.52365E-08  1.52606E-08
   1.47894E-08  1.40422E-08  1.35480E-08  1.28570E-08  1.19624E-08  1.12329E-08  1.03815E-08  9.12823E-09  8.52769E-09  8.19592E-09
   7.94517E-09  7.78646E-09  7.68889E-09  7.59722E-09  7.49657E-09  7.44344E-09  7.39389E-09  7.33944E-09  7.31026E-09  7.26879E-09
   7.23793E-09  7.22481E-09  7.21028E-09  7.19418E-09  7.18230E-09  7.17330E-09  7.16585E-09  7.15954E-09  7.15339E-09  7.14732E-09
   7.14111E-09  7.13452E-09  7.12740E-09  7.11958E-09  7.11094E-09  7.10137E-09  7.09078E-09  7.07908E-09  7.06617E-09  7.05201E-09
   7.03652E-09  7.01965E-09  7.00135E-09  6.98158E-09  6.96028E-09  6.93742E-09  6.91295E-09  6.88686E-09  6.85910E-09  6.82965E-09
   6.79846E-09  6.76554E-09  6.73084E-09  6.69435E-09  6.65606E-09  6.61593E-09  6.57398E-09  6.53018E-09  6.48453E-09  6.43703E-09
   6.38767E-09  6.33647E-09  6.28344E-09  6.22861E-09  6.17200E-09  6.11365E-09  6.05363E-09  5.99201E-09  5.92890E-09  5.86443E-09
   5.79875E-09  5.73213E-09  5.66486E-09  5.59736E-09  5.53020E-09  5.46416E-09  5.40042E-09  5.34071E-09  5.28769E-09  5.24547E-09
   5.22084E-09  5.22585E-09  5.28401E-09  5.44775E-09  5.85977E-09  7.05633E-09  1.18796E-08  1.90140E-08  2.03474E-08  1.96447E-08
   1.91563E-08  1.85648E-08  1.80319E-08  1.76023E-08  1.73788E-08  1.80467E-08  1.84757E-08  1.43698E-08  7.24740E-09  4.63657E-09
   3.73945E-09  3.26708E-09  2.95230E-09  2.71190E-09  2.51222E-09  2.33729E-09  2.17854E-09  2.03106E-09  1.89191E-09  1.75915E-09
   1.63154E-09  1.50824E-09  1.38866E-09  1.27246E-09  1.15932E-09  1.04907E-09  9.41604E-10  8.36874E-10  7.34807E-10  6.35436E-10
   5.38765E-10  4.44822E-10  3.53662E-10  2.65329E-10  1.79895E-10  9.74201E-11  1.80135E-11 -5.83027E-11 -1.31429E-10 -2.01459E-10
  -2.68457E-10 -3.32507E-10 -3.93673E-10 -4.52040E-10 -5.07665E-10 -5.60633E-10 -6.11000E-10 -6.58834E-10 -7.04213E-10 -7.47199E-10
  -7.87845E-10 -8.26232E-10 -8.62424E-10 -8.96477E-10 -9.28462E-10 -9.58444E-10 -9.86469E-10 -1.01263E-09 -1.03698E-09 -1.05956E-09
  -1.08046E-09 -1.09973E-09 -1.11743E-09 -1.13364E-09 -1.14840E-09 -1.16179E-09 -1.17387E-09 -1.18469E-09 -1.19432E-09 -1.20282E-09
  -1.21026E-09 -1.21668E-09 -1.22216E-09 -1.22677E-09 -1.23055E-09 -1.23357E-09 -1.23590E-09 -1.23761E-09 -1.23872E-09 -1.23932E-09
  -1.23947E-09 -1.23924E-09 -1.23868E-09 -1.23784E-09 -1.23682E-09 -1.23564E-09 -1.23438E-09 -1.23309E-09 -1.23185E-09 -1.23072E-09
  -1.22972E-09 -1.22887E-09 -1.22819E-09 -1.22768E-09 -1.22735E-09 -1.22723E-09 -1.22730E-09 -1.22760E-09 -1.22812E-09 -1.22889E-09
  -1.22990E-09 -1.23118E-09 -1.23273E-09 -1.23456E-09 -1.23668E-09 -1.23912E-09 -1.24186E-09 -1.24494E-09 -1.24834E-09 -1.25211E-09
  -1.25622E-09 -1.26071E-09 -1.26557E-09 -1.27083E-09 -1.27650E-09 -1.28257E-09 -1.28907E-09 -1.29600E-09 -1.30338E-09 -1.31122E-09
  -1.31952E-09 -1.32830E-09 -1.33757E-09 -1.34734E-09 -1.35762E-09 -1.36843E-09 -1.37976E-09 -1.39164E-09 -1.40407E-09 -1.41706E-09
  -1.43064E-09 -1.44479E-09 -1.45954E-09 -1.47490E-09 -1.49088E-09 -1.50749E-09 -1.52474E-09 -1.54263E-09 -1.56120E-09 -1.58043E-09
  -1.60034E-09 -1.62096E-09 -1.64225E-09 -1.66421E-09 -1.68681E-09 -1.71004E-09 -1.73388E-09 -1.75831E-09 -1.78332E-09 -1.80888E-09
  -1.83497E-09 -1.86158E-09 -1.88869E-09 -1.91628E-09 -1.94434E-09 -1.97283E-09 -2.00175E-09 -2.03108E-09 -2.06079E-09 -2.09087E-09
  -2.12131E-09 -2.15207E-09 -2.18315E-09 -2.21453E-09 -2.24618E-09 -2.27809E-09 -2.31024E-09 -2.34261E-09 -2.37518E-09 -2.40793E-09
  -2.44086E-09 -2.47393E-09 -2.50712E-09 -2.54043E-09 -2.57383E-09 -2.60730E-09 -2.64083E-09 -2.67439E-09 -2.70797E-09 -2.74155E-09
  -2.77511E-09 -2.80863E-09 -2.84210E-09 -2.87549E-09 -2.90878E-09 -2.94197E-09 -2.97503E-09 -3.00793E-09 -3.04067E-09 -3.07322E-09
  -3.10557E-09 -3.13769E-09 -3.16958E-09
 NY background values follow
     4.995E-10    5.623E-10    6.252E-10    6.880E-10    7.509E-10    8.138E-10    8.767E-10    9.395E-10    1.002E-09    1.065E-09
     1.128E-09    1.191E-09    1.254E-09    1.317E-09    1.379E-09    1.442E-09    1.505E-09    1.567E-09    1.630E-09    1.693E-09
     1.755E-09    1.818E-09    1.880E-09    1.942E-09    2.005E-09    2.067E-09    2.129E-09    2.191E-09    2.253E-09    2.315E-09
     2.377E-09    2.439E-09    2.501E-09    2.562E-09    2.624E-09    2.685E-09    2.747E-09    2.808E-09    2.869E-09    2.930E-09
     2.991E-09    3.052E-09    3.112E-09    3.173E-09    3.233E-09    3.293E-09    3.353E-09    3.413E-09    3.473E-09    3.533E-09
     3.592E-09    3.652E-09    3.711E-09    3.770E-09    3.829E-09    3.887E-09    3.946E-09    4.004E-09    4.062E-09    4.119E-09
     4.176E-09    4.233E-09    4.289E-09    4.345E-09    4.401E-09    4.456E-09    4.510E-09    4.564E-09    4.618E-09    4.671E-09
     4.723E-09    4.775E-09    4.826E-09    4.876E-09    4.925E-09    4.974E-09    5.022E-09    5.070E-09    5.116E-09    5.162E-09
     5.207E-09    5.251E-09    5.294E-09    5.336E-09    5.377E-09    5.417E-09    5.456E-09    5.494E-09    5.531E-09    5.567E-09
     5.602E-09    5.635E-09    5.668E-09    5.699E-09    5.729E-09    5.758E-09    5.786E-09    5.812E-09    5.837E-09    5.860E-09
     5.883E-09    5.903E-09    5.923E-09    5.941E-09    5.957E-09    5.972E-09    5.985E-09    5.997E-09    6.008E-09    6.017E-09
     6.024E-09    6.029E-09    6.033E-09    6.035E-09    6.036E-09    6.035E-09    6.032E-09    6.028E-09    6.021E-09    6.013E-09
     6.004E-09    5.992E-09    5.978E-09    5.963E-09    5.946E-09    5.927E-09    5.906E-09    5.883E-09    5.858E-09    5.831E-09
     5.802E-09    5.772E-09    5.739E-09    5.704E-09    5.667E-09    5.628E-09    5.587E-09    5.544E-09    5.498E-09    5.451E-09
     5.401E-09    5.349E-09    5.295E-09    5.239E-09    5.180E-09    5.119E-09    5.056E-09    4.991E-09    4.923E-09    4.853E-09
     4.780E-09    4.705E-09    4.628E-09    4.548E-09    4.466E-09    4.381E-09    4.294E-09    4.204E-09    4.113E-09    4.019E-09
     3.922E-09    3.824E-09    3.724E-09    3.623E-09    3.519E-09    3.414E-09    3.308E-09    3.200E-09    3.091E-09    2.981E-09
     2.870E-09    2.758E-09    2.646E-09    2.532E-09    2.418E-09    2.303E-09    2.189E-09    2.073E-09    1.958E-09    1.843E-09
     1.727E-09    1.612E-09    1.497E-09    1.382E-09    1.268E-09    1.155E-09    1.042E-09    9.300E-10    8.189E-10    7.087E-10
     5.997E-10    4.919E-10    3.854E-10    2.804E-10    1.769E-10    7.508E-11   -2.502E-11   -1.233E-10   -2.195E-10   -3.137E-10
    -4.057E-10   -4.955E-10   -5.828E-10   -6.677E-10   -7.499E-10   -8.295E-10   -9.062E-10   -9.800E-10   -1.051E-09   -1.119E-09
    -1.184E-09   -1.246E-09   -1.305E-09   -1.362E-09   -1.416E-09   -1.467E-09   -1.516E-09   -1.563E-09   -1.607E-09   -1.649E-09
    -1.688E-09   -1.725E-09   -1.760E-09   -1.794E-09   -1.825E-09   -1.854E-09   -1.881E-09   -1.906E-09   -1.929E-09   -1.951E-09
    -1.971E-09   -1.990E-09   -2.007E-09   -2.022E-09   -2.036E-09   -2.049E-09   -2.060E-09   -2.071E-09   -2.080E-09   -2.087E-09
    -2.094E-09   -2.100E-09   -2.105E-09   -2.109E-09   -2.112E-09   -2.115E-09   -2.117E-09   -2.118E-09   -2.118E-09   -2.118E-09
    -2.118E-09   -2.117E-09   -2.116E-09   -2.115E-09   -2.114E-09   -2.112E-09   -2.110E-09   -2.108E-09   -2.107E-09   -2.105E-09
    -2.104E-09   -2.102E-09   -2.101E-09   -2.100E-09   -2.100E-09   -2.099E-09   -2.099E-09   -2.099E-09   -2.099E-09   -2.099E-09
    -2.100E-09   -2.101E-09   -2.102E-09   -2.103E-09   -2.105E-09   -2.107E-09   -2.109E-09   -2.112E-09   -2.115E-09   -2.118E-09
    -2.122E-09   -2.126E-09   -2.131E-09   -2.136E-09   -2.141E-09   -2.147E-09   -2.153E-09   -2.159E-09   -2.166E-09   -2.174E-09
    -2.182E-09   -2.190E-09   -2.199E-09   -2.209E-09   -2.218E-09   -2.229E-09   -2.240E-09   -2.251E-09   -2.263E-09   -2.276E-09
    -2.289E-09   -2.303E-09   -2.318E-09   -2.333E-09   -2.348E-09   -2.364E-09   -2.381E-09   -2.399E-09   -2.417E-09   -2.436E-09
    -2.455E-09   -2.476E-09   -2.497E-09   -2.518E-09   -2.540E-09   -2.563E-09   -2.587E-09   -2.611E-09   -2.636E-09   -2.661E-09
    -2.686E-09   -2.713E-09   -2.739E-09   -2.767E-09   -2.794E-09   -2.822E-09   -2.851E-09   -2.880E-09   -2.909E-09   -2.939E-09
    -2.969E-09   -2.999E-09   -3.030E-09   -3.061E-09   -3.092E-09   -3.124E-09   -3.156E-09   -3.188E-09   -3.220E-09   -3.252E-09
    -3.285E-09   -3.317E-09   -3.350E-09   -3.383E-09   -3.416E-09   -3.449E-09   -3.482E-09   -3.516E-09   -3.549E-09   -3.582E-09
    -3.615E-09   -3.648E-09   -3.681E-09   -3.714E-09   -3.747E-09   -3.780E-09   -3.812E-09   -3.845E-09   -3.877E-09   -3.909E-09
    -3.941E-09   -3.973E-09   -4.004E-09
 GABA     Conc. = 8.49E-11
   5.08456E-10  5.71399E-10  6.34367E-10  6.97356E-10  7.60368E-10  8.23393E-10  8.86436E-10  9.49493E-10  1.01256E-09  1.07565E-09
   1.13874E-09  1.20185E-09  1.26498E-09  1.32811E-09  1.39128E-09  1.45447E-09  1.51766E-09  1.58093E-09  1.64426E-09  1.70765E-09
   1.77117E-09  1.83487E-09  1.89881E-09  1.96312E-09  2.02799E-09  2.09374E-09  2.16110E-09  2.23165E-09  2.30990E-09  2.40729E-09
   2.46684E-09  2.53364E-09  2.65762E-09  2.72969E-09  2.77725E-09  2.86575E-09  2.93651E-09  2.99673E-09  3.05768E-09  3.10127E-09
   3.13014E-09  3.20213E-09  3.25560E-09  3.25659E-09  3.30613E-09  3.37090E-09  3.40311E-09  3.44870E-09  3.50186E-09  3.55796E-09
   3.61557E-09  3.67390E-09  3.73276E-09  3.79203E-09  3.85164E-09  3.91158E-09  3.97198E-09  4.03305E-09  4.09527E-09  4.15979E-09
   4.22932E-09  4.31260E-09  4.39496E-09  4.44577E-09  4.53072E-09  4.62398E-09  4.66717E-09  4.71829E-09  4.78236E-09  4.83423E-09
   4.88448E-09  4.92808E-09  4.95162E-09  4.98179E-09  5.03850E-09  5.05503E-09  5.06570E-09  5.11615E-09  5.15709E-09  5.19855E-09
   5.25064E-09  5.28422E-09  5.33646E-09  5.41135E-09  5.44815E-09  5.49071E-09  5.55648E-09  5.59826E-09  5.63835E-09  5.68567E-09
   5.71425E-09  5.74092E-09  5.78718E-09  5.80838E-09  5.81046E-09  5.84567E-09  5.86900E-09  5.87095E-09  5.88930E-09  5.90834E-09
   5.92153E-09  5.93627E-09  5.95143E-09  5.96625E-09  5.98030E-09  5.99333E-09  6.00519E-09  6.01577E-09  6.02501E-09  6.03284E-09
   6.03922E-09  6.04408E-09  6.04738E-09  6.04910E-09  6.04921E-09  6.04768E-09  6.04449E-09  6.03960E-09  6.03300E-09  6.02466E-09
   6.01455E-09  6.00265E-09  5.98895E-09  5.97342E-09  5.95604E-09  5.93678E-09  5.91564E-09  5.89258E-09  5.86759E-09  5.84064E-09
   5.81172E-09  5.78080E-09  5.74788E-09  5.71291E-09  5.67589E-09  5.63680E-09  5.59562E-09  5.55232E-09  5.50689E-09  5.45931E-09
   5.40955E-09  5.35760E-09  5.30345E-09  5.24707E-09  5.18843E-09  5.12752E-09  5.06433E-09  4.99883E-09  4.93100E-09  4.86084E-09
   4.78830E-09  4.71339E-09  4.63610E-09  4.55637E-09  4.47423E-09  4.38963E-09  4.30262E-09  4.21323E-09  4.12162E-09  4.02792E-09
   3.93229E-09  3.83490E-09  3.73604E-09  3.63615E-09  3.53628E-09  3.43964E-09  3.36277E-09  3.33806E-09  3.24052E-09  3.12267E-09
   3.00937E-09  2.89318E-09  2.77650E-09  2.66080E-09  2.54435E-09  2.43547E-09  2.33192E-09  2.19472E-09  2.00123E-09  1.86610E-09
   1.74419E-09  1.62589E-09  1.50919E-09  1.39350E-09  1.27861E-09  1.16454E-09  1.05129E-09  9.38901E-10  8.27504E-10  7.17160E-10
   6.07954E-10  5.00014E-10  3.93399E-10  2.88268E-10  1.84668E-10  8.27306E-11 -1.74498E-11 -1.15746E-10 -2.12093E-10 -3.06347E-10
  -3.98417E-10 -4.88201E-10 -5.75585E-10 -6.60474E-10 -7.42755E-10 -8.22329E-10 -8.99059E-10 -9.72898E-10 -1.04372E-09 -1.11161E-09
  -1.17661E-09 -1.23878E-09 -1.29819E-09 -1.35490E-09 -1.40896E-09 -1.46045E-09 -1.50941E-09 -1.55592E-09 -1.60003E-09 -1.64182E-09
  -1.68131E-09 -1.71860E-09 -1.75374E-09 -1.78678E-09 -1.81780E-09 -1.84685E-09 -1.87397E-09 -1.89927E-09 -1.92278E-09 -1.94456E-09
  -1.96467E-09 -1.98319E-09 -2.00015E-09 -2.01564E-09 -2.02971E-09 -2.04243E-09 -2.05385E-09 -2.06403E-09 -2.07303E-09 -2.08092E-09
  -2.08776E-09 -2.09360E-09 -2.09851E-09 -2.10256E-09 -2.10579E-09 -2.10827E-09 -2.11007E-09 -2.11126E-09 -2.11186E-09 -2.11196E-09
  -2.11162E-09 -2.11091E-09 -2.10987E-09 -2.10856E-09 -2.10707E-09 -2.10543E-09 -2.10372E-09 -2.10198E-09 -2.10030E-09 -2.09874E-09
  -2.09730E-09 -2.09603E-09 -2.09492E-09 -2.09400E-09 -2.09326E-09 -2.09272E-09 -2.09239E-09 -2.09228E-09 -2.09240E-09 -2.09277E-09
  -2.09339E-09 -2.09428E-09 -2.09544E-09 -2.09688E-09 -2.09862E-09 -2.10067E-09 -2.10304E-09 -2.10574E-09 -2.10877E-09 -2.11216E-09
  -2.11590E-09 -2.12002E-09 -2.12452E-09 -2.12941E-09 -2.13470E-09 -2.14042E-09 -2.14655E-09 -2.15312E-09 -2.16014E-09 -2.16762E-09
  -2.17556E-09 -2.18398E-09 -2.19289E-09 -2.20231E-09 -2.21223E-09 -2.22268E-09 -2.23365E-09 -2.24517E-09 -2.25724E-09 -2.26989E-09
  -2.28311E-09 -2.29690E-09 -2.31130E-09 -2.32631E-09 -2.34193E-09 -2.35818E-09 -2.37508E-09 -2.39262E-09 -2.41083E-09 -2.42970E-09
  -2.44926E-09 -2.46952E-09 -2.49045E-09 -2.51205E-09 -2.53430E-09 -2.55717E-09 -2.58065E-09 -2.60472E-09 -2.62937E-09 -2.65456E-09
  -2.68030E-09 -2.70655E-09 -2.73329E-09 -2.76052E-09 -2.78820E-09 -2.81633E-09 -2.84489E-09 -2.87384E-09 -2.90319E-09 -2.93290E-09
  -2.96296E-09 -2.99335E-09 -3.02406E-09 -3.05506E-09 -3.08633E-09 -3.11786E-09 -3.14963E-09 -3.18162E-09 -3.21381E-09 -3.24618E-09
  -3.27872E-09 -3.31140E-09 -3.34421E-09 -3.37713E-09 -3.41013E-09 -3.44321E-09 -3.47634E-09 -3.50951E-09 -3.54269E-09 -3.57586E-09
  -3.60902E-09 -3.64214E-09 -3.67520E-09 -3.70818E-09 -3.74106E-09 -3.77383E-09 -3.80647E-09 -3.83896E-09 -3.87128E-09 -3.90341E-09
  -3.93533E-09 -3.96703E-09 -3.99848E-09
 Gln      Conc. = 2.76E-09
   3.35811E-09  3.91022E-09  4.14845E-09  4.16421E-09  4.23340E-09  4.27413E-09  4.10403E-09  3.78445E-09  3.87841E-09  3.33980E-09
   2.87923E-09  2.82609E-09  2.32533E-09  2.12689E-09  2.06176E-09  2.04918E-09  2.06229E-09  2.09086E-09  2.12912E-09  2.17378E-09
   2.22302E-09  2.27541E-09  2.33004E-09  2.38717E-09  2.44688E-09  2.50729E-09  2.56919E-09  2.63261E-09  2.69682E-09  2.76187E-09
   2.82779E-09  2.89458E-09  2.96232E-09  3.03107E-09  3.10089E-09  3.17189E-09  3.24418E-09  3.31787E-09  3.39361E-09  3.47143E-09
   3.55189E-09  3.63580E-09  3.72324E-09  3.81472E-09  3.91256E-09  4.01711E-09  4.12953E-09  4.25949E-09  4.40926E-09  4.58010E-09
   4.80000E-09  5.10090E-09  5.56136E-09  6.44480E-09  7.37479E-09  7.45528E-09  8.36318E-09  9.47417E-09  9.59753E-09  9.51601E-09
   9.82815E-09  9.82976E-09  9.76242E-09  9.55622E-09  8.79969E-09  8.16440E-09  8.31508E-09  7.61527E-09  6.72373E-09  6.57184E-09
   7.17905E-09  7.43695E-09  7.42428E-09  8.22886E-09  9.06296E-09  9.17807E-09  9.62776E-09  9.95612E-09  9.97106E-09  1.00673E-08
   1.01595E-08  9.60611E-09  9.23594E-09  9.25344E-09  8.51920E-09  7.83020E-09  7.68686E-09  7.24044E-09  6.88660E-09  6.69247E-09
   6.57284E-09  6.49820E-09  6.45141E-09  6.41728E-09  6.39433E-09  6.38072E-09  6.37228E-09  6.36805E-09  6.36771E-09  6.36977E-09
   6.37283E-09  6.37664E-09  6.38083E-09  6.38543E-09  6.39021E-09  6.39465E-09  6.39861E-09  6.40192E-09  6.40447E-09  6.40616E-09
   6.40686E-09  6.40651E-09  6.40501E-09  6.40230E-09  6.39832E-09  6.39301E-09  6.38631E-09  6.37817E-09  6.36856E-09  6.35742E-09
   6.34472E-09  6.33042E-09  6.31449E-09  6.29690E-09  6.27761E-09  6.25659E-09  6.23381E-09  6.20926E-09  6.18289E-09  6.15470E-09
   6.12463E-09  6.09269E-09  6.05885E-09  6.02307E-09  5.98536E-09  5.94567E-09  5.90401E-09  5.86034E-09  5.81466E-09  5.76695E-09
   5.71720E-09  5.66539E-09  5.61152E-09  5.55559E-09  5.49758E-09  5.43750E-09  5.37537E-09  5.31119E-09  5.24498E-09  5.17678E-09
   5.10663E-09  5.03461E-09  4.96082E-09  4.88536E-09  4.80844E-09  4.73031E-09  4.65142E-09  4.57237E-09  4.49422E-09  4.41852E-09
   4.34785E-09  4.28685E-09  4.24482E-09  4.24351E-09  4.34669E-09  4.82333E-09  7.11954E-09  8.00976E-09  7.75620E-09  7.52019E-09
   7.28170E-09  7.02631E-09  6.82270E-09  6.60482E-09  6.56249E-09  6.81124E-09  6.44441E-09  4.12096E-09  2.85963E-09  2.44196E-09
   2.20343E-09  2.02443E-09  1.87154E-09  1.73230E-09  1.60110E-09  1.47523E-09  1.35312E-09  1.23390E-09  1.11711E-09  1.00242E-09
   8.89669E-10  7.78786E-10  6.69700E-10  5.62471E-10  4.57071E-10  3.53577E-10  2.52039E-10  1.52549E-10  5.51465E-11 -4.00480E-11
  -1.32960E-10 -2.23503E-10 -3.11573E-10 -3.97086E-10 -4.79936E-10 -5.60034E-10 -6.37247E-10 -7.11533E-10 -7.82774E-10 -8.51046E-10
  -9.16403E-10 -9.78916E-10 -1.03864E-09 -1.09565E-09 -1.15000E-09 -1.20176E-09 -1.25098E-09 -1.29773E-09 -1.34207E-09 -1.38408E-09
  -1.42379E-09 -1.46128E-09 -1.49662E-09 -1.52985E-09 -1.56105E-09 -1.59027E-09 -1.61757E-09 -1.64303E-09 -1.66671E-09 -1.68864E-09
