 LCModel (Version 6.3-1R) Copyright: S.W. Provencher.          Ref.: Magn. Reson. Med. 30:672-679 (1993).                
 onepulse 16x18_ftSpec_smooth_lcm
 26 lines in following concentration table = NCONC+1
    Conc.  %SD   /Cr    Metabolite                                         
 7.89E-11 267%   0.000 Ala                                                 
 7.84E-10  76%   0.000 Asp                                                 
    0.000 999%   0.000 Cr                                                  
 2.70E-09  21%   0.000 GABA                                                
 1.38E-09  40%   0.000 Glc                                                 
    0.000 999%   0.000 Gln                                                 
 1.18E-10 410%   0.000 Glu                                                 
 6.59E-11 999%   0.000 Glyc                                                
 7.42E-11 999%   0.000 GPC                                                 
    0.000 999%   0.000 GSH                                                 
 1.48E-10 999%   0.000 Ins                                                 
    0.000 999%   0.000 Lac                                                 
    0.000 999%   0.000 NAAG                                                
 9.85E-10  20%   0.000 NAA                                                 
 6.32E-11 999%   0.000 PCh                                                 
    0.000 999%   0.000 PCr                                                 
    0.000 999%   0.000 PE                                                  
    0.000 999%   0.000 Scyllo                                              
 9.90E-11 999%   0.000 Ser                                                 
    0.000 999%   0.000 Tau                                                 
 1.37E-10  67%   0.000 GPC+PCh                                             
 9.85E-10  20%   0.000 NAA+NAAG                                            
 2.14E-10 140%   0.000 Ins+Glyc                                            
    0.000 999%   0.000 Cr+PCr                                              
 1.18E-10 410%   0.000 Glu+Gln                                             
   6 lines in following misc. output table
  FWHM = 0.089 ppm    S/N =   4                                            
  Data shift = 0.347 ppm                                                   
  Ph:  58 deg      17.7 deg/ppm                                            
  alphaB,S = 1.6E-01,   6.1E+01                                            
   16 spline knots.   Ns = 5(1)                                            
  ( 9) 2 infls.   ( 5) 1 extrs.                                            
  363 points on ppm-axis = NY
      4.250000     4.238821     4.227641     4.216462     4.205282     4.194103     4.182923     4.171744     4.160564     4.149385
      4.138206     4.127026     4.115847     4.104667     4.093488     4.082308     4.071129     4.059949     4.048770     4.037591
      4.026411     4.015232     4.004052     3.992873     3.981693     3.970514     3.959334     3.948155     3.936975     3.925796
      3.914617     3.903437     3.892258     3.881078     3.869899     3.858719     3.847540     3.836360     3.825181     3.814002
      3.802822     3.791643     3.780463     3.769284     3.758104     3.746925     3.735745     3.724566     3.713387     3.702207
      3.691028     3.679848     3.668669     3.657489     3.646310     3.635130     3.623951     3.612772     3.601592     3.590413
      3.579233     3.568054     3.556874     3.545695     3.534515     3.523336     3.512156     3.500977     3.489798     3.478618
      3.467439     3.456259     3.445080     3.433900     3.422721     3.411541     3.400362     3.389183     3.378003     3.366824
      3.355644     3.344465     3.333285     3.322106     3.310926     3.299747     3.288568     3.277388     3.266209     3.255029
      3.243850     3.232670     3.221491     3.210311     3.199132     3.187953     3.176773     3.165594     3.154414     3.143235
      3.132055     3.120876     3.109696     3.098517     3.087337     3.076158     3.064979     3.053799     3.042620     3.031440
      3.020261     3.009081     2.997902     2.986722     2.975543     2.964364     2.953184     2.942005     2.930825     2.919646
      2.908466     2.897287     2.886107     2.874928     2.863749     2.852569     2.841390     2.830210     2.819031     2.807851
      2.796672     2.785492     2.774313     2.763134     2.751954     2.740775     2.729595     2.718416     2.707236     2.696057
      2.684877     2.673698     2.662519     2.651339     2.640160     2.628980     2.617801     2.606621     2.595442     2.584262
      2.573083     2.561903     2.550724     2.539545     2.528365     2.517186     2.506006     2.494827     2.483647     2.472468
      2.461288     2.450109     2.438930     2.427750     2.416571     2.405391     2.394212     2.383032     2.371853     2.360673
      2.349494     2.338315     2.327135     2.315956     2.304776     2.293597     2.282417     2.271238     2.260058     2.248879
      2.237700     2.226520     2.215341     2.204161     2.192982     2.181802     2.170623     2.159443     2.148264     2.137084
      2.125905     2.114726     2.103546     2.092367     2.081187     2.070008     2.058828     2.047649     2.036469     2.025290
      2.014111     2.002931     1.991752     1.980572     1.969393     1.958213     1.947034     1.935854     1.924675     1.913496
      1.902316     1.891137     1.879957     1.868778     1.857598     1.846419     1.835239     1.824060     1.812881     1.801701
      1.790522     1.779342     1.768163     1.756983     1.745804     1.734624     1.723445     1.712265     1.701086     1.689907
      1.678727     1.667548     1.656368     1.645189     1.634009     1.622830     1.611650     1.600471     1.589292     1.578112
      1.566933     1.555753     1.544574     1.533394     1.522215     1.511035     1.499856     1.488677     1.477497     1.466318
      1.455138     1.443959     1.432779     1.421600     1.410420     1.399241     1.388062     1.376882     1.365703     1.354523
      1.343344     1.332164     1.320985     1.309805     1.298626     1.287446     1.276267     1.265088     1.253908     1.242729
      1.231549     1.220370     1.209190     1.198011     1.186831     1.175652     1.164473     1.153293     1.142114     1.130934
      1.119755     1.108575     1.097396     1.086216     1.075037     1.063858     1.052678     1.041499     1.030319     1.019140
      1.007960     0.996781     0.985601     0.974422     0.963243     0.952063     0.940884     0.929704     0.918525     0.907345
      0.896166     0.884986     0.873807     0.862628     0.851448     0.840269     0.829089     0.817910     0.806730     0.795551
      0.784371     0.773192     0.762012     0.750833     0.739654     0.728474     0.717295     0.706115     0.694936     0.683756
      0.672577     0.661397     0.650218     0.639039     0.627859     0.616680     0.605500     0.594321     0.583141     0.571962
      0.560782     0.549603     0.538424     0.527244     0.516065     0.504885     0.493706     0.482526     0.471347     0.460167
      0.448988     0.437809     0.426629     0.415450     0.404270     0.393091     0.381911     0.370732     0.359552     0.348373
      0.337193     0.326014     0.314835     0.303655     0.292476     0.281296     0.270117     0.258937     0.247758     0.236578
      0.225399     0.214220     0.203040
 NY phased data points follow
   5.71849E-09  7.01229E-09  8.25457E-09  9.28161E-09  8.89935E-09  7.58515E-09  8.17055E-09  6.76343E-09  6.64784E-09  6.22213E-09
   6.66241E-09  6.24538E-09  6.85128E-09  6.49526E-09  7.26303E-09  7.53706E-09  7.50257E-09  7.50856E-09  7.83365E-09  7.99493E-09
   7.98303E-09  7.25801E-09  6.80669E-09  6.76925E-09  7.86977E-09  8.47067E-09  8.55563E-09  7.69064E-09  8.09453E-09  8.03374E-09
   7.68973E-09  8.35970E-09  9.48912E-09  1.11254E-08  1.09067E-08  1.15145E-08  1.11618E-08  9.69834E-09  9.88771E-09  8.35472E-09
   8.68484E-09  7.93508E-09  8.27908E-09  7.28239E-09  7.52246E-09  7.79132E-09  7.01456E-09  6.75491E-09  5.35506E-09  5.80743E-09
   6.30913E-09  5.50068E-09  6.10143E-09  5.96563E-09  5.99811E-09  5.47880E-09  5.42879E-09  5.03247E-09  4.45752E-09  3.64701E-09
   4.07842E-09  3.89743E-09  5.87746E-09  8.17335E-09  1.13671E-08  1.20413E-08  1.18043E-08  1.07837E-08  9.71980E-09  8.51570E-09
   9.18346E-09  7.81908E-09  7.11978E-09  6.49456E-09  6.85552E-09  4.43639E-09  4.14880E-09  4.86641E-09  5.68701E-09  7.12839E-09
   1.02638E-08  1.25518E-08  1.28280E-08  1.27991E-08  1.14482E-08  1.08043E-08  1.11579E-08  9.89228E-09  9.64685E-09  9.35202E-09
   9.26537E-09  8.92422E-09  9.13018E-09  8.05565E-09  8.27502E-09  7.32364E-09  6.98631E-09  7.17412E-09  5.70044E-09  6.50408E-09
   5.78656E-09  6.74854E-09  5.59426E-09  5.50364E-09  6.01696E-09  5.59016E-09  5.60384E-09  5.29680E-09  5.12589E-09  4.16659E-09
   3.84543E-09  3.53313E-09  3.37838E-09  4.24708E-09  4.04410E-09  4.34322E-09  3.80410E-09  4.50629E-09  5.30344E-09  4.89171E-09
   4.99340E-09  4.49061E-09  5.51054E-09  4.18294E-09  3.50423E-09  3.41527E-09  3.03680E-09  2.74291E-09  2.88744E-09  3.16840E-09
   3.58327E-09  2.89269E-09  3.15610E-09  4.07936E-09  3.20901E-09  2.97914E-09  2.63366E-09  2.42484E-09  2.36654E-09  2.98881E-09
   3.40387E-09  4.48677E-09  4.85007E-09  3.57740E-09  3.68838E-09  4.12093E-09  4.36615E-09  5.26610E-09  4.46405E-09  4.48017E-09
   3.82491E-09  4.27466E-09  4.15260E-09  4.19318E-09  4.62495E-09  4.05948E-09  4.03930E-09  4.01424E-09  4.20230E-09  5.04340E-09
   4.84973E-09  4.82022E-09  4.27201E-09  3.49972E-09  3.69377E-09  3.86237E-09  3.52919E-09  4.19288E-09  5.47590E-09  7.83353E-09
   1.01363E-08  1.40201E-08  1.52226E-08  1.44508E-08  1.22977E-08  9.98433E-09  7.70629E-09  7.85075E-09  6.61755E-09  5.16885E-09
   4.27970E-09  3.87735E-09  3.38228E-09  2.13329E-09  2.36673E-09  3.74054E-10 -1.14910E-10 -1.25238E-09 -2.38654E-09 -2.93223E-09
  -4.22566E-09 -5.38146E-09 -6.88158E-09 -7.46354E-09 -9.16245E-09 -9.55467E-09 -1.04336E-08 -1.13269E-08 -1.20807E-08 -1.23134E-08
  -1.20838E-08 -1.18628E-08 -1.05399E-08 -1.10081E-08 -1.02360E-08 -9.13727E-09 -7.24780E-09 -6.64312E-09 -5.34034E-09 -5.29465E-09
  -3.48000E-09 -2.29376E-09 -1.69306E-09 -1.07193E-09 -1.10341E-09 -9.49339E-10 -1.39119E-09 -1.21803E-09 -8.23979E-10 -1.84417E-09
  -2.05868E-09 -1.20603E-09 -5.80891E-10 -1.73669E-09 -9.17945E-10 -6.66935E-10 -1.00300E-09 -4.31865E-10 -1.42707E-09 -8.09975E-10
  -1.27108E-09 -1.60803E-09 -1.19900E-09 -1.52244E-09 -6.09983E-10 -5.10335E-10 -8.41493E-10  2.32254E-11 -9.85828E-10 -9.01008E-10
  -9.60406E-10 -8.51514E-10 -9.07681E-10 -1.25128E-09 -1.08708E-09 -5.43565E-10 -3.30880E-10 -9.80147E-10 -4.63210E-10  4.34026E-11
  -7.34362E-10  2.64181E-10 -1.79940E-10  4.64997E-10 -1.18755E-10 -6.51386E-10 -2.09329E-10 -9.33964E-10 -7.85387E-10 -7.35036E-10
  -1.16916E-09 -1.43019E-09 -1.12008E-09 -1.13432E-09 -1.04899E-09 -6.13031E-10 -7.78923E-10  3.62840E-10  1.05093E-10  5.03443E-10
   6.82739E-10  4.68823E-10  5.25415E-10  9.98103E-10  4.85574E-10  5.45199E-10  6.70091E-10  1.61195E-10  9.20429E-11  9.22036E-11
  -5.40579E-10 -7.87012E-10 -3.63428E-11 -5.57064E-10 -4.53653E-10  1.38549E-11 -6.47508E-10 -3.81230E-10 -8.01426E-10 -4.48662E-10
  -5.71966E-10 -1.10827E-09 -8.06485E-10 -1.89279E-10 -8.55469E-10 -1.63124E-11 -8.52905E-10 -7.55548E-10 -5.61974E-10 -2.38927E-10
  -9.10935E-11 -5.08695E-10 -7.03623E-10 -6.32478E-11 -5.51491E-10 -1.47089E-10 -4.51211E-10 -2.41988E-10  2.13891E-10  1.10109E-10
  -6.93618E-10  2.32644E-10 -1.37828E-10  2.20126E-10  4.59483E-10  9.95676E-11  2.81163E-10  1.35936E-10 -8.24225E-11  6.86855E-10
   3.77567E-10  6.22282E-10  6.20104E-10  2.47381E-10  8.89916E-10  3.37706E-10  1.16176E-09  8.71355E-10  1.07497E-09  8.13429E-10
   8.54480E-10  4.54237E-10  1.17070E-09  1.04411E-09  1.02301E-09  1.57811E-09  6.19909E-10  1.19769E-09  1.47590E-09  1.24624E-09
   1.04235E-09  1.18230E-09  1.53996E-09  1.32931E-09  9.37972E-10  1.52032E-09  1.12349E-09  1.68092E-09  1.24358E-09  1.53446E-09
   1.77496E-09  1.40147E-09  1.35711E-09  1.65787E-09  1.72162E-09  1.69724E-09  1.36984E-09  1.46237E-09  1.32047E-09  2.14457E-09
   1.81784E-09  1.09874E-09  2.15153E-09
 NY points of the fit to the data follow
   7.02887E-09  7.37230E-09  7.60402E-09  7.78668E-09  7.82130E-09  7.69285E-09  7.43442E-09  7.09277E-09  6.84490E-09  6.58269E-09
   6.44732E-09  6.42574E-09  6.45987E-09  6.55062E-09  6.74246E-09  7.03194E-09  7.44216E-09  7.94595E-09  8.36018E-09  8.52550E-09
   8.50881E-09  8.27569E-09  7.87298E-09  7.51970E-09  7.32628E-09  7.24224E-09  7.35530E-09  7.75399E-09  8.20091E-09  8.64968E-09
   8.93040E-09  9.10587E-09  9.46352E-09  9.74028E-09  9.75179E-09  9.97248E-09  1.03714E-08  1.05605E-08  1.04034E-08  9.94115E-09
   9.36962E-09  8.89683E-09  7.96427E-09  6.92773E-09  6.55990E-09  6.30372E-09  5.94264E-09  5.85451E-09  5.87507E-09  5.91015E-09
   5.94463E-09  5.96972E-09  5.99584E-09  5.96782E-09  5.85729E-09  5.72352E-09  5.58197E-09  5.57029E-09  5.57687E-09  5.58457E-09
   5.70026E-09  6.02125E-09  6.53289E-09  7.13397E-09  8.00739E-09  8.96762E-09  9.70478E-09  1.02259E-08  1.05474E-08  1.05407E-08
   1.02132E-08  9.53085E-09  8.62806E-09  7.85806E-09  7.12576E-09  6.19923E-09  5.82527E-09  6.30351E-09  7.12006E-09  8.34156E-09
   9.84069E-09  1.11481E-08  1.19864E-08  1.23038E-08  1.21123E-08  1.16755E-08  1.10919E-08  1.01320E-08  8.96167E-09  8.58093E-09
   8.43577E-09  8.37403E-09  8.23616E-09  7.77411E-09  7.34915E-09  7.09614E-09  6.62036E-09  6.14871E-09  5.88530E-09  5.63639E-09
   5.43123E-09  5.30481E-09  5.22784E-09  5.19137E-09  5.17161E-09  5.15216E-09  5.12755E-09  5.09331E-09  5.04303E-09  4.96918E-09
   4.87290E-09  4.77981E-09  4.71943E-09  4.64503E-09  4.56466E-09  4.51789E-09  4.48237E-09  4.45140E-09  4.42260E-09  4.39481E-09
   4.36737E-09  4.33987E-09  4.31195E-09  4.28337E-09  4.25391E-09  4.22342E-09  4.19173E-09  4.15872E-09  4.12430E-09  4.08833E-09
   4.05074E-09  4.01142E-09  3.97029E-09  3.92727E-09  3.88229E-09  3.83528E-09  3.78617E-09  3.73489E-09  3.68139E-09  3.62560E-09
   3.56746E-09  3.50696E-09  3.44406E-09  3.37872E-09  3.31092E-09  3.24066E-09  3.16793E-09  3.09274E-09  3.01509E-09  2.93502E-09
   2.85258E-09  2.76784E-09  2.68091E-09  2.59195E-09  2.50118E-09  2.40888E-09  2.31550E-09  2.22163E-09  2.12818E-09  2.03646E-09
   1.94858E-09  1.86791E-09  1.80038E-09  1.75722E-09  1.76309E-09  1.88595E-09  2.40558E-09  3.93898E-09  6.31332E-09  9.15712E-09
   1.20018E-08  1.41492E-08  1.49873E-08  1.44099E-08  1.27926E-08  1.06066E-08  7.91481E-09  4.58431E-09  1.40476E-09 -1.60982E-13
  -5.74026E-10 -9.29090E-10 -1.19833E-09 -1.42381E-09 -1.62294E-09 -1.80411E-09 -1.97176E-09 -2.12835E-09 -2.27524E-09 -2.41322E-09
  -2.54266E-09 -2.66372E-09 -2.77636E-09 -2.88043E-09 -2.97576E-09 -3.06207E-09 -3.13920E-09 -3.20743E-09 -3.26711E-09 -3.31856E-09
  -3.36211E-09 -3.39806E-09 -3.42671E-09 -3.44836E-09 -3.46328E-09 -3.47176E-09 -3.47408E-09 -3.47051E-09 -3.46133E-09 -3.44682E-09
  -3.42723E-09 -3.40283E-09 -3.37390E-09 -3.34071E-09 -3.30350E-09 -3.26257E-09 -3.21815E-09 -3.17052E-09 -3.11994E-09 -3.06668E-09
  -3.01098E-09 -2.95313E-09 -2.89336E-09 -2.83196E-09 -2.76914E-09 -2.70503E-09 -2.63978E-09 -2.57351E-09 -2.50636E-09 -2.43845E-09
  -2.36992E-09 -2.30089E-09 -2.23152E-09 -2.16191E-09 -2.09219E-09 -2.02251E-09 -1.95299E-09 -1.88377E-09 -1.81495E-09 -1.74670E-09
  -1.67913E-09 -1.61237E-09 -1.54656E-09 -1.48182E-09 -1.41828E-09 -1.35607E-09 -1.29532E-09 -1.23616E-09 -1.17872E-09 -1.12314E-09
  -1.06952E-09 -1.01803E-09 -9.68684E-10 -9.21440E-10 -8.76239E-10 -8.33023E-10 -7.91723E-10 -7.52285E-10 -7.14642E-10 -6.78737E-10
  -6.44510E-10 -6.11893E-10 -5.80834E-10 -5.51264E-10 -5.23130E-10 -4.96366E-10 -4.70901E-10 -4.46698E-10 -4.23682E-10 -4.01789E-10
  -3.80958E-10 -3.61139E-10 -3.42257E-10 -3.24257E-10 -3.07088E-10 -2.90667E-10 -2.74957E-10 -2.59883E-10 -2.45390E-10 -2.31410E-10
  -2.17895E-10 -2.04795E-10 -1.92058E-10 -1.79634E-10 -1.67479E-10 -1.55538E-10 -1.43767E-10 -1.32111E-10 -1.20524E-10 -1.08958E-10
  -9.73609E-11 -8.56853E-11 -7.38812E-11 -6.18999E-11 -4.96933E-11 -3.72103E-11 -2.44037E-11 -1.12229E-11  2.37743E-12  1.64535E-11
   3.10457E-11  4.62093E-11  6.19917E-11  7.84373E-11  9.56001E-11  1.13528E-10  1.32267E-10  1.51867E-10  1.72320E-10  1.93597E-10
   2.15667E-10  2.38500E-10  2.62062E-10  2.86326E-10  3.11258E-10  3.36828E-10  3.63004E-10  3.89756E-10  4.17053E-10  4.44865E-10
   4.73158E-10  5.01904E-10  5.31072E-10  5.60628E-10  5.90545E-10  6.20788E-10  6.51330E-10  6.82139E-10  7.13184E-10  7.44432E-10
   7.75857E-10  8.07424E-10  8.39105E-10  8.70867E-10  9.02680E-10  9.34518E-10  9.66370E-10  9.98234E-10  1.03011E-09  1.06200E-09
   1.09389E-09  1.12579E-09  1.15769E-09  1.18960E-09  1.22151E-09  1.25342E-09  1.28533E-09  1.31723E-09  1.34913E-09  1.38102E-09
   1.41290E-09  1.44477E-09  1.47664E-09  1.50848E-09  1.54031E-09  1.57213E-09  1.60393E-09  1.63570E-09  1.66746E-09  1.69919E-09
   1.73089E-09  1.76257E-09  1.79423E-09
 NY background values follow
     1.924E-09    1.932E-09    1.940E-09    1.948E-09    1.956E-09    1.964E-09    1.972E-09    1.980E-09    1.988E-09    1.996E-09
     2.004E-09    2.012E-09    2.020E-09    2.029E-09    2.037E-09    2.046E-09    2.054E-09    2.063E-09    2.071E-09    2.080E-09
     2.089E-09    2.098E-09    2.107E-09    2.116E-09    2.126E-09    2.135E-09    2.144E-09    2.154E-09    2.164E-09    2.174E-09
     2.183E-09    2.194E-09    2.204E-09    2.214E-09    2.225E-09    2.236E-09    2.247E-09    2.258E-09    2.270E-09    2.282E-09
     2.294E-09    2.307E-09    2.319E-09    2.333E-09    2.346E-09    2.360E-09    2.374E-09    2.389E-09    2.404E-09    2.420E-09
     2.436E-09    2.452E-09    2.469E-09    2.487E-09    2.505E-09    2.524E-09    2.543E-09    2.562E-09    2.583E-09    2.603E-09
     2.624E-09    2.646E-09    2.668E-09    2.690E-09    2.713E-09    2.736E-09    2.759E-09    2.783E-09    2.807E-09    2.831E-09
     2.855E-09    2.879E-09    2.903E-09    2.928E-09    2.952E-09    2.977E-09    3.001E-09    3.025E-09    3.050E-09    3.074E-09
     3.098E-09    3.121E-09    3.145E-09    3.168E-09    3.191E-09    3.214E-09    3.236E-09    3.258E-09    3.280E-09    3.301E-09
     3.322E-09    3.342E-09    3.362E-09    3.381E-09    3.399E-09    3.417E-09    3.434E-09    3.450E-09    3.466E-09    3.481E-09
     3.495E-09    3.508E-09    3.520E-09    3.532E-09    3.542E-09    3.551E-09    3.560E-09    3.567E-09    3.573E-09    3.579E-09
     3.583E-09    3.585E-09    3.587E-09    3.587E-09    3.586E-09    3.584E-09    3.580E-09    3.574E-09    3.568E-09    3.559E-09
     3.549E-09    3.537E-09    3.524E-09    3.508E-09    3.491E-09    3.472E-09    3.451E-09    3.428E-09    3.403E-09    3.375E-09
     3.346E-09    3.314E-09    3.280E-09    3.244E-09    3.205E-09    3.164E-09    3.121E-09    3.075E-09    3.026E-09    2.975E-09
     2.921E-09    2.864E-09    2.804E-09    2.742E-09    2.676E-09    2.608E-09    2.537E-09    2.463E-09    2.386E-09    2.306E-09
     2.223E-09    2.136E-09    2.047E-09    1.954E-09    1.858E-09    1.759E-09    1.656E-09    1.551E-09    1.441E-09    1.329E-09
     1.212E-09    1.093E-09    9.694E-10    8.425E-10    7.121E-10    5.780E-10    4.401E-10    2.986E-10    1.533E-10    4.700E-12
    -1.468E-10   -3.009E-10   -4.569E-10   -6.146E-10   -7.733E-10   -9.328E-10   -1.093E-09   -1.252E-09   -1.411E-09   -1.569E-09
    -1.725E-09   -1.879E-09   -2.031E-09   -2.180E-09   -2.326E-09   -2.468E-09   -2.606E-09   -2.739E-09   -2.867E-09   -2.989E-09
    -3.106E-09   -3.216E-09   -3.319E-09   -3.415E-09   -3.503E-09   -3.583E-09   -3.654E-09   -3.717E-09   -3.772E-09   -3.819E-09
    -3.859E-09   -3.891E-09   -3.917E-09   -3.935E-09   -3.947E-09   -3.953E-09   -3.953E-09   -3.947E-09   -3.935E-09   -3.919E-09
    -3.897E-09   -3.870E-09   -3.840E-09   -3.805E-09   -3.766E-09   -3.723E-09   -3.677E-09   -3.628E-09   -3.576E-09   -3.521E-09
    -3.464E-09   -3.405E-09   -3.343E-09   -3.281E-09   -3.217E-09   -3.151E-09   -3.085E-09   -3.017E-09   -2.949E-09   -2.880E-09
    -2.810E-09   -2.740E-09   -2.670E-09   -2.599E-09   -2.529E-09   -2.458E-09   -2.387E-09   -2.317E-09   -2.247E-09   -2.178E-09
    -2.110E-09   -2.042E-09   -1.976E-09   -1.910E-09   -1.846E-09   -1.783E-09   -1.721E-09   -1.661E-09   -1.603E-09   -1.546E-09
    -1.492E-09   -1.440E-09   -1.390E-09   -1.342E-09   -1.296E-09   -1.252E-09   -1.210E-09   -1.170E-09   -1.131E-09   -1.095E-09
    -1.060E-09   -1.027E-09   -9.950E-10   -9.648E-10   -9.361E-10   -9.087E-10   -8.826E-10   -8.578E-10   -8.342E-10   -8.117E-10
    -7.903E-10   -7.699E-10   -7.504E-10   -7.319E-10   -7.141E-10   -6.971E-10   -6.809E-10   -6.653E-10   -6.502E-10   -6.357E-10
    -6.217E-10   -6.081E-10   -5.948E-10   -5.819E-10   -5.692E-10   -5.568E-10   -5.445E-10   -5.324E-10   -5.203E-10   -5.082E-10
    -4.962E-10   -4.840E-10   -4.718E-10   -4.593E-10   -4.466E-10   -4.337E-10   -4.204E-10   -4.068E-10   -3.928E-10   -3.783E-10
    -3.632E-10   -3.476E-10   -3.314E-10   -3.146E-10   -2.970E-10   -2.786E-10   -2.595E-10   -2.395E-10   -2.186E-10   -1.969E-10
    -1.744E-10   -1.512E-10   -1.272E-10   -1.026E-10   -7.726E-11   -5.131E-11   -2.474E-11    2.392E-12    3.007E-11    5.826E-11
     8.693E-11    1.160E-10    1.456E-10    1.755E-10    2.058E-10    2.364E-10    2.673E-10    2.985E-10    3.299E-10    3.615E-10
     3.932E-10    4.252E-10    4.572E-10    4.893E-10    5.215E-10    5.536E-10    5.858E-10    6.180E-10    6.502E-10    6.825E-10
     7.147E-10    7.469E-10    7.792E-10    8.114E-10    8.436E-10    8.759E-10    9.081E-10    9.403E-10    9.725E-10    1.005E-09
     1.037E-09    1.069E-09    1.101E-09    1.133E-09    1.166E-09    1.198E-09    1.230E-09    1.262E-09    1.294E-09    1.326E-09
     1.358E-09    1.390E-09    1.422E-09
 Ala      Conc. = 7.89E-11
   1.97264E-09  1.98795E-09  2.00134E-09  2.01314E-09  2.02322E-09  2.03205E-09  2.03850E-09  2.03963E-09  2.04148E-09  2.04661E-09
   2.04612E-09  2.04522E-09  2.04948E-09  2.05312E-09  2.05671E-09  2.06206E-09  2.06842E-09  2.07542E-09  2.08287E-09  2.09066E-09
   2.09872E-09  2.10700E-09  2.11549E-09  2.12416E-09  2.13299E-09  2.14199E-09  2.15113E-09  2.16042E-09  2.16986E-09  2.17945E-09
   2.18919E-09  2.19911E-09  2.20921E-09  2.21951E-09  2.23002E-09  2.24076E-09  2.25174E-09  2.26298E-09  2.27449E-09  2.28629E-09
   2.29839E-09  2.31081E-09  2.32356E-09  2.33666E-09  2.35013E-09  2.36398E-09  2.37822E-09  2.39289E-09  2.40797E-09  2.42350E-09
   2.43949E-09  2.45596E-09  2.47292E-09  2.49038E-09  2.50839E-09  2.52692E-09  2.54600E-09  2.56564E-09  2.58581E-09  2.60648E-09
   2.62761E-09  2.64918E-09  2.67116E-09  2.69350E-09  2.71619E-09  2.73919E-09  2.76247E-09  2.78601E-09  2.80976E-09  2.83370E-09
   2.85780E-09  2.88203E-09  2.90636E-09  2.93075E-09  2.95518E-09  2.97962E-09  3.00404E-09  3.02840E-09  3.05267E-09  3.07684E-09
   3.10086E-09  3.12471E-09  3.14836E-09  3.17179E-09  3.19496E-09  3.21785E-09  3.24044E-09  3.26269E-09  3.28460E-09  3.30613E-09
   3.32729E-09  3.34807E-09  3.36849E-09  3.38858E-09  3.40843E-09  3.42819E-09  3.44819E-09  3.46908E-09  3.49249E-09  3.52369E-09
   3.57396E-09  3.63212E-09  3.69470E-09  3.76809E-09  3.83747E-09  3.89224E-09  3.93045E-09  3.95015E-09  3.94672E-09  3.91392E-09
   3.85406E-09  3.79363E-09  3.76262E-09  3.71478E-09  3.65850E-09  3.63356E-09  3.61806E-09  3.60554E-09  3.59380E-09  3.58181E-09
   3.56906E-09  3.55519E-09  3.53999E-09  3.52330E-09  3.50498E-09  3.48493E-09  3.46306E-09  3.43930E-09  3.41356E-09  3.38578E-09
   3.35588E-09  3.32381E-09  3.28952E-09  3.25292E-09  3.21398E-09  3.17262E-09  3.12881E-09  3.08248E-09  3.03357E-09  2.98204E-09
   2.92780E-09  2.87084E-09  2.81112E-09  2.74860E-09  2.68323E-09  2.61497E-09  2.54380E-09  2.46966E-09  2.39252E-09  2.31234E-09
   2.22909E-09  2.14272E-09  2.05320E-09  1.96050E-09  1.86457E-09  1.76539E-09  1.66292E-09  1.55713E-09  1.44800E-09  1.33550E-09
   1.21961E-09  1.10035E-09  9.77757E-10  8.51909E-10  7.23101E-10  5.92141E-10  4.62581E-10  3.43914E-10  2.31327E-10  1.20744E-10
   6.69310E-12 -1.19743E-10 -2.65750E-10 -4.31151E-10 -6.09835E-10 -7.95122E-10 -9.86831E-10 -1.18720E-09 -1.38444E-09 -1.55285E-09
  -1.71320E-09 -1.86962E-09 -2.02278E-09 -2.17265E-09 -2.31894E-09 -2.46133E-09 -2.59941E-09 -2.73278E-09 -2.86100E-09 -2.98364E-09
  -3.10027E-09 -3.21047E-09 -3.31378E-09 -3.40975E-09 -3.49795E-09 -3.57795E-09 -3.64943E-09 -3.71258E-09 -3.76765E-09 -3.81490E-09
  -3.85459E-09 -3.88698E-09 -3.91233E-09 -3.93089E-09 -3.94294E-09 -3.94872E-09 -3.94849E-09 -3.94252E-09 -3.93107E-09 -3.91438E-09
  -3.89273E-09 -3.86637E-09 -3.83555E-09 -3.80055E-09 -3.76161E-09 -3.71901E-09 -3.67298E-09 -3.62380E-09 -3.57172E-09 -3.51700E-09
  -3.45989E-09 -3.40067E-09 -3.33958E-09 -3.27689E-09 -3.21281E-09 -3.14748E-09 -3.08104E-09 -3.01361E-09 -2.94532E-09 -2.87630E-09
  -2.80669E-09 -2.73660E-09 -2.66619E-09 -2.59556E-09 -2.52485E-09 -2.45420E-09 -2.38372E-09 -2.31356E-09 -2.24383E-09 -2.17467E-09
  -2.10622E-09 -2.03859E-09 -1.97192E-09 -1.90634E-09 -1.84197E-09 -1.77894E-09 -1.71739E-09 -1.65744E-09 -1.59923E-09 -1.54288E-09
  -1.48851E-09 -1.43627E-09 -1.38620E-09 -1.33823E-09 -1.29232E-09 -1.24840E-09 -1.20641E-09 -1.16629E-09 -1.12797E-09 -1.09140E-09
  -1.05652E-09 -1.02326E-09 -9.91559E-10 -9.61358E-10 -9.32600E-10 -9.05220E-10 -8.79146E-10 -8.54342E-10 -8.30732E-10 -8.08251E-10
  -7.86839E-10 -7.66446E-10 -7.46996E-10 -7.28436E-10 -7.10711E-10 -6.93741E-10 -6.77487E-10 -6.61876E-10 -6.46851E-10 -6.32345E-10
  -6.18309E-10 -6.04692E-10 -5.91445E-10 -5.78516E-10 -5.65861E-10 -5.53425E-10 -5.41162E-10 -5.29021E-10 -5.16952E-10 -5.04909E-10
  -4.92840E-10 -4.80697E-10 -4.68429E-10 -4.55989E-10 -4.43327E-10 -4.30393E-10 -4.17139E-10 -4.03515E-10 -3.89475E-10 -3.74963E-10
  -3.59939E-10 -3.44347E-10 -3.28139E-10 -3.11272E-10 -2.93691E-10 -2.75348E-10 -2.56198E-10 -2.36190E-10 -2.15332E-10 -1.93652E-10
  -1.71183E-10 -1.47954E-10 -1.23999E-10 -9.93449E-11 -7.40256E-11 -4.80712E-11 -2.15129E-11  5.61885E-12  3.32922E-11  6.14777E-11
   9.01422E-11  1.19257E-10  1.48791E-10  1.78712E-10  2.08990E-10  2.39594E-10  2.70493E-10  3.01657E-10  3.33055E-10  3.64654E-10
   3.96427E-10  4.28342E-10  4.60367E-10  4.92472E-10  5.24626E-10  5.56803E-10  5.88993E-10  6.21193E-10  6.53403E-10  6.85621E-10
   7.17845E-10  7.50074E-10  7.82306E-10  8.14539E-10  8.46772E-10  8.79004E-10  9.11232E-10  9.43454E-10  9.75671E-10  1.00788E-09
   1.04008E-09  1.07226E-09  1.10444E-09  1.13660E-09  1.16874E-09  1.20087E-09  1.23297E-09  1.26506E-09  1.29712E-09  1.32915E-09
   1.36117E-09  1.39315E-09  1.42510E-09
 Asp      Conc. = 7.84E-10
   2.90379E-09  2.81923E-09  2.70901E-09  2.60307E-09  2.49578E-09  2.38298E-09  2.29344E-09  2.20076E-09  2.15598E-09  2.13223E-09
   2.11905E-09  2.11207E-09  2.10920E-09  2.10936E-09  2.11139E-09  2.11440E-09  2.11838E-09  2.12320E-09  2.12874E-09  2.13491E-09
   2.14165E-09  2.14891E-09  2.15667E-09  2.16492E-09  2.17367E-09  2.18293E-09  2.19275E-09  2.20319E-09  2.21434E-09  2.22634E-09
   2.23941E-09  2.25384E-09  2.27012E-09  2.28903E-09  2.31196E-09  2.34186E-09  2.38641E-09  2.44657E-09  2.52481E-09  2.60822E-09
   2.68157E-09  2.73365E-09  2.76466E-09  2.80476E-09  2.86844E-09  3.01060E-09  3.19987E-09  3.39482E-09  3.58579E-09  3.74147E-09
   3.84475E-09  3.88238E-09  3.86242E-09  3.77539E-09  3.61750E-09  3.44865E-09  3.27384E-09  3.23386E-09  3.20368E-09  3.14102E-09
   3.10008E-09  3.09094E-09  3.07249E-09  3.05997E-09  3.06759E-09  3.05975E-09  3.02284E-09  3.00566E-09  3.00185E-09  3.00548E-09
   3.01381E-09  3.02535E-09  3.03920E-09  3.05479E-09  3.07169E-09  3.08962E-09  3.10834E-09  3.12767E-09  3.14748E-09  3.16763E-09
   3.18803E-09  3.20859E-09  3.22922E-09  3.24988E-09  3.27047E-09  3.29096E-09  3.31128E-09  3.33137E-09  3.35120E-09  3.37071E-09
   3.38985E-09  3.40858E-09  3.42685E-09  3.44463E-09  3.46188E-09  3.47853E-09  3.49458E-09  3.50997E-09  3.52466E-09  3.53862E-09
   3.55180E-09  3.56418E-09  3.57571E-09  3.58637E-09  3.59610E-09  3.60487E-09  3.61266E-09  3.61942E-09  3.62512E-09  3.62972E-09
   3.63320E-09  3.63550E-09  3.63659E-09  3.63644E-09  3.63499E-09  3.63217E-09  3.62796E-09  3.62227E-09  3.61507E-09  3.60629E-09
   3.59589E-09  3.58381E-09  3.57000E-09  3.55440E-09  3.53697E-09  3.51765E-09  3.49637E-09  3.47311E-09  3.44780E-09  3.42038E-09
   3.39080E-09  3.35902E-09  3.32498E-09  3.28863E-09  3.24991E-09  3.20877E-09  3.16517E-09  3.11905E-09  3.07036E-09  3.01904E-09
   2.96504E-09  2.90834E-09  2.84888E-09  2.78665E-09  2.72160E-09  2.65370E-09  2.58292E-09  2.50923E-09  2.43258E-09  2.35297E-09
   2.27036E-09  2.18473E-09  2.09606E-09  2.00435E-09  1.90959E-09  1.81177E-09  1.71094E-09  1.60713E-09  1.50042E-09  1.39094E-09
   1.27891E-09  1.16469E-09  1.04894E-09  9.32825E-10  8.18884E-10  7.13421E-10  6.38593E-10  6.92634E-10  8.49869E-10  1.06576E-09
   1.28826E-09  1.43073E-09  1.40988E-09  1.20714E-09  8.68986E-10  4.63076E-10  2.49578E-12 -5.45044E-10 -1.11297E-09 -1.42369E-09
  -1.62884E-09 -1.80587E-09 -1.97053E-09 -2.12755E-09 -2.27862E-09 -2.42437E-09 -2.56490E-09 -2.70012E-09 -2.82975E-09 -2.95351E-09
  -3.07103E-09 -3.18195E-09 -3.28585E-09 -3.38231E-09 -3.47093E-09 -3.55128E-09 -3.62306E-09 -3.68647E-09 -3.74177E-09 -3.78921E-09
  -3.82908E-09 -3.86162E-09 -3.88711E-09 -3.90580E-09 -3.91795E-09 -3.92383E-09 -3.92370E-09 -3.91782E-09 -3.90644E-09 -3.88983E-09
  -3.86825E-09 -3.84195E-09 -3.81120E-09 -3.77625E-09 -3.73737E-09 -3.69481E-09 -3.64883E-09 -3.59970E-09 -3.54766E-09 -3.49298E-09
  -3.43592E-09 -3.37674E-09 -3.31569E-09 -3.25303E-09 -3.18899E-09 -3.12370E-09 -3.05729E-09 -2.98989E-09 -2.92163E-09 -2.85265E-09
