 LCModel (Version 6.3-1R) Copyright: S.W. Provencher.          Ref.: Magn. Reson. Med. 30:672-679 (1993).                
 onepulse 16x17_ftSpec_smooth_lcm
 26 lines in following concentration table = NCONC+1
    Conc.  %SD   /Cr    Metabolite                                         
    0.000 999%   0.000 Ala                                                 
 1.86E-10 300%   0.000 Asp                                                 
    0.000 999%   0.000 Cr                                                  
 2.53E-09  15%   0.000 GABA                                                
 1.15E-09  49%   0.000 Glc                                                 
    0.000 999%   0.000 Gln                                                 
 6.03E-11 661%   0.000 Glu                                                 
    0.000 999%   0.000 Glyc                                                
 5.37E-11 819%   0.000 GPC                                                 
    0.000 999%   0.000 GSH                                                 
 3.32E-10  89%   0.000 Ins                                                 
    0.000 999%   0.000 Lac                                                 
    0.000 999%   0.000 NAAG                                                
 9.24E-10  18%   0.000 NAA                                                 
 6.29E-11 695%   0.000 PCh                                                 
    0.000 999%   0.000 PCr                                                 
    0.000 999%   0.000 PE                                                  
 8.96E-12 999%   0.000 Scyllo                                              
 1.32E-09  66%   0.000 Ser                                                 
    0.000 999%   0.000 Tau                                                 
 1.17E-10  47%   0.000 GPC+PCh                                             
 9.24E-10  18%   0.000 NAA+NAAG                                            
 3.32E-10  89%   0.000 Ins+Glyc                                            
    0.000 999%   0.000 Cr+PCr                                              
 6.03E-11 661%   0.000 Glu+Gln                                             
   6 lines in following misc. output table
  FWHM = 0.089 ppm    S/N =   4                                            
  Data shift = 0.347 ppm                                                   
  Ph:  58 deg      17.6 deg/ppm                                            
  alphaB,S = 1.6E-01,   7.5E+01                                            
   16 spline knots.   Ns = 5(1)                                            
  ( 9) 2 infls.   ( 5) 1 extrs.                                            
  363 points on ppm-axis = NY
      4.250000     4.238821     4.227641     4.216462     4.205282     4.194103     4.182923     4.171744     4.160564     4.149385
      4.138206     4.127026     4.115847     4.104667     4.093488     4.082308     4.071129     4.059949     4.048770     4.037591
      4.026411     4.015232     4.004052     3.992873     3.981693     3.970514     3.959334     3.948155     3.936975     3.925796
      3.914617     3.903437     3.892258     3.881078     3.869899     3.858719     3.847540     3.836360     3.825181     3.814002
      3.802822     3.791643     3.780463     3.769284     3.758104     3.746925     3.735745     3.724566     3.713387     3.702207
      3.691028     3.679848     3.668669     3.657489     3.646310     3.635130     3.623951     3.612772     3.601592     3.590413
      3.579233     3.568054     3.556874     3.545695     3.534515     3.523336     3.512156     3.500977     3.489798     3.478618
      3.467439     3.456259     3.445080     3.433900     3.422721     3.411541     3.400362     3.389183     3.378003     3.366824
      3.355644     3.344465     3.333285     3.322106     3.310926     3.299747     3.288568     3.277388     3.266209     3.255029
      3.243850     3.232670     3.221491     3.210311     3.199132     3.187953     3.176773     3.165594     3.154414     3.143235
      3.132055     3.120876     3.109696     3.098517     3.087337     3.076158     3.064979     3.053799     3.042620     3.031440
      3.020261     3.009081     2.997902     2.986722     2.975543     2.964364     2.953184     2.942005     2.930825     2.919646
      2.908466     2.897287     2.886107     2.874928     2.863749     2.852569     2.841390     2.830210     2.819031     2.807851
      2.796672     2.785492     2.774313     2.763134     2.751954     2.740775     2.729595     2.718416     2.707236     2.696057
      2.684877     2.673698     2.662519     2.651339     2.640160     2.628980     2.617801     2.606621     2.595442     2.584262
      2.573083     2.561903     2.550724     2.539545     2.528365     2.517186     2.506006     2.494827     2.483647     2.472468
      2.461288     2.450109     2.438930     2.427750     2.416571     2.405391     2.394212     2.383032     2.371853     2.360673
      2.349494     2.338315     2.327135     2.315956     2.304776     2.293597     2.282417     2.271238     2.260058     2.248879
      2.237700     2.226520     2.215341     2.204161     2.192982     2.181802     2.170623     2.159443     2.148264     2.137084
      2.125905     2.114726     2.103546     2.092367     2.081187     2.070008     2.058828     2.047649     2.036469     2.025290
      2.014111     2.002931     1.991752     1.980572     1.969393     1.958213     1.947034     1.935854     1.924675     1.913496
      1.902316     1.891137     1.879957     1.868778     1.857598     1.846419     1.835239     1.824060     1.812881     1.801701
      1.790522     1.779342     1.768163     1.756983     1.745804     1.734624     1.723445     1.712265     1.701086     1.689907
      1.678727     1.667548     1.656368     1.645189     1.634009     1.622830     1.611650     1.600471     1.589292     1.578112
      1.566933     1.555753     1.544574     1.533394     1.522215     1.511035     1.499856     1.488677     1.477497     1.466318
      1.455138     1.443959     1.432779     1.421600     1.410420     1.399241     1.388062     1.376882     1.365703     1.354523
      1.343344     1.332164     1.320985     1.309805     1.298626     1.287446     1.276267     1.265088     1.253908     1.242729
      1.231549     1.220370     1.209190     1.198011     1.186831     1.175652     1.164473     1.153293     1.142114     1.130934
      1.119755     1.108575     1.097396     1.086216     1.075037     1.063858     1.052678     1.041499     1.030319     1.019140
      1.007960     0.996781     0.985601     0.974422     0.963243     0.952063     0.940884     0.929704     0.918525     0.907345
      0.896166     0.884986     0.873807     0.862628     0.851448     0.840269     0.829089     0.817910     0.806730     0.795551
      0.784371     0.773192     0.762012     0.750833     0.739654     0.728474     0.717295     0.706115     0.694936     0.683756
      0.672577     0.661397     0.650218     0.639039     0.627859     0.616680     0.605500     0.594321     0.583141     0.571962
      0.560782     0.549603     0.538424     0.527244     0.516065     0.504885     0.493706     0.482526     0.471347     0.460167
      0.448988     0.437809     0.426629     0.415450     0.404270     0.393091     0.381911     0.370732     0.359552     0.348373
      0.337193     0.326014     0.314835     0.303655     0.292476     0.281296     0.270117     0.258937     0.247758     0.236578
      0.225399     0.214220     0.203040
 NY phased data points follow
   1.34680E-08  1.38624E-08  1.42850E-08  1.40612E-08  1.22104E-08  1.15132E-08  1.13487E-08  1.02719E-08  9.87916E-09  9.93793E-09
   1.00973E-08  9.98087E-09  1.05405E-08  1.04428E-08  1.11313E-08  1.07647E-08  1.08317E-08  1.07334E-08  1.07153E-08  1.07247E-08
   1.01994E-08  9.62229E-09  9.39331E-09  9.83686E-09  1.06945E-08  1.14359E-08  1.06454E-08  9.96850E-09  1.01167E-08  1.02783E-08
   1.00723E-08  1.12180E-08  1.22332E-08  1.30598E-08  1.21218E-08  1.21917E-08  1.09270E-08  9.67185E-09  9.56009E-09  8.32937E-09
   8.51011E-09  7.93317E-09  8.10344E-09  7.32379E-09  7.53256E-09  7.48760E-09  6.96837E-09  6.47175E-09  5.57161E-09  6.47454E-09
   6.50521E-09  6.26413E-09  6.51335E-09  6.40928E-09  5.96516E-09  5.90328E-09  5.69498E-09  5.45522E-09  5.15727E-09  5.03693E-09
   5.38709E-09  6.31797E-09  8.78205E-09  1.14306E-08  1.36784E-08  1.32687E-08  1.18529E-08  1.05605E-08  9.05035E-09  8.52970E-09
   8.57864E-09  7.23664E-09  6.56637E-09  6.40702E-09  6.41262E-09  4.19904E-09  4.47829E-09  5.66602E-09  7.16888E-09  9.11605E-09
   1.21696E-08  1.34290E-08  1.28172E-08  1.23791E-08  1.07110E-08  9.94712E-09  1.01251E-08  8.64436E-09  8.84344E-09  8.27003E-09
   8.35204E-09  7.67498E-09  7.72709E-09  7.03318E-09  6.94864E-09  5.85454E-09  5.84809E-09  5.87111E-09  4.58693E-09  5.16681E-09
   4.70339E-09  5.42926E-09  4.34835E-09  4.69377E-09  4.95242E-09  4.67339E-09  4.77220E-09  4.31727E-09  3.96266E-09  3.22172E-09
   2.74084E-09  2.84108E-09  2.99112E-09  3.67223E-09  3.69260E-09  3.85723E-09  3.39262E-09  4.10463E-09  4.58506E-09  4.51011E-09
   4.53272E-09  4.29735E-09  4.69886E-09  3.40556E-09  2.83141E-09  2.70340E-09  2.64406E-09  2.22975E-09  2.57995E-09  2.78393E-09
   3.18342E-09  2.67782E-09  2.91865E-09  3.77501E-09  2.68316E-09  3.15103E-09  2.26293E-09  2.18736E-09  2.23721E-09  2.94362E-09
   3.38530E-09  4.62643E-09  4.69289E-09  3.58132E-09  3.73973E-09  4.31678E-09  4.41825E-09  5.00610E-09  4.50933E-09  4.30042E-09
   3.69893E-09  4.21590E-09  3.78427E-09  4.11825E-09  4.39655E-09  3.98154E-09  3.93195E-09  3.81301E-09  3.97189E-09  4.96027E-09
   4.78992E-09  4.74525E-09  3.97559E-09  3.58978E-09  3.54800E-09  3.56772E-09  3.14570E-09  3.97447E-09  5.05759E-09  7.39150E-09
   9.95804E-09  1.40936E-08  1.53239E-08  1.44843E-08  1.23622E-08  1.02355E-08  8.05170E-09  8.16816E-09  6.86404E-09  5.43712E-09
   4.46478E-09  4.00705E-09  3.61216E-09  2.61815E-09  2.48781E-09  6.46017E-10  9.36975E-11 -7.42730E-10 -2.20218E-09 -2.71267E-09
  -4.23474E-09 -5.15075E-09 -6.43901E-09 -7.04474E-09 -9.08035E-09 -9.50924E-09 -1.00096E-08 -1.08754E-08 -1.15563E-08 -1.18650E-08
  -1.16587E-08 -1.14079E-08 -1.02602E-08 -1.02245E-08 -9.79799E-09 -8.53560E-09 -7.10769E-09 -6.15670E-09 -5.06209E-09 -4.98511E-09
  -3.47832E-09 -2.30489E-09 -1.69804E-09 -1.38836E-09 -1.35581E-09 -1.07989E-09 -1.80191E-09 -1.41406E-09 -9.86361E-10 -1.87313E-09
  -2.42948E-09 -1.34220E-09 -6.71763E-10 -1.40503E-09 -1.36063E-09 -2.04226E-10 -1.35612E-09 -5.89542E-10 -1.57473E-09 -9.43125E-10
  -1.18404E-09 -1.44596E-09 -1.34758E-09 -1.53400E-09 -7.86198E-10 -3.59764E-10 -1.08868E-09 -4.16040E-11 -7.16732E-10 -1.09781E-09
  -1.18136E-09 -1.04750E-09 -8.33742E-10 -1.18266E-09 -1.32328E-09 -7.36776E-10 -1.92572E-10 -9.99268E-10 -7.50908E-10  6.03546E-11
  -1.08118E-09  1.86341E-10 -3.68628E-10  2.11176E-10  2.95902E-10 -4.38689E-10 -1.53617E-10 -7.48428E-10 -9.74762E-10 -5.84062E-10
  -1.14479E-09 -1.43933E-09 -1.45671E-09 -1.13821E-09 -1.66905E-09 -9.35903E-10 -1.35353E-09 -1.77250E-10 -2.34476E-10 -1.39864E-10
   3.98709E-10  4.78659E-10  2.17382E-10  8.81498E-10  4.63841E-10  3.55780E-10  7.43691E-10  4.28332E-10  1.83387E-10  3.05988E-10
  -1.56698E-10 -4.09073E-10 -2.13879E-10 -4.02874E-10 -3.30921E-10  9.59581E-11 -6.79765E-10 -2.56185E-10 -1.01637E-09 -6.67085E-10
  -5.36523E-10 -7.69545E-10 -1.34716E-09 -4.59021E-10 -1.00912E-09 -3.00246E-10 -9.53212E-10 -1.05430E-09 -8.15898E-10 -9.85774E-10
  -3.38330E-10 -7.34804E-10 -1.46733E-09 -5.30666E-10 -1.03470E-09 -6.86124E-10 -1.14505E-09 -1.08074E-09 -5.64624E-10 -3.68780E-10
  -1.42390E-09 -7.26943E-10 -7.44095E-10 -7.54047E-10 -6.10711E-10 -5.17752E-10 -4.79675E-10 -6.77870E-10 -1.07557E-09 -1.81296E-10
  -5.29742E-10 -4.08167E-10 -2.66394E-10 -4.67827E-10 -2.47865E-10 -5.27001E-10 -2.00565E-11 -1.48080E-10 -1.46537E-11 -3.51616E-11
  -2.10808E-10 -2.88599E-10 -4.14658E-10  2.19493E-10 -1.70138E-10  4.75089E-10 -1.95926E-10  6.91979E-11  1.61320E-10  4.13009E-10
   2.07779E-10  6.39120E-11  2.83123E-10  7.47342E-10 -1.26021E-10  4.71914E-10  2.16816E-10  6.27172E-10  3.90269E-10  4.65552E-10
   9.30704E-10  3.96374E-10  5.52591E-10  5.42005E-10  7.84747E-10  8.28160E-10  7.64213E-10  8.28221E-10  3.95430E-10  6.76679E-10
   1.43532E-09  2.59283E-10  1.28137E-09
 NY points of the fit to the data follow
   1.48562E-08  1.40770E-08  1.33461E-08  1.27749E-08  1.21537E-08  1.14152E-08  1.06889E-08  1.02312E-08  1.00091E-08  9.94233E-09
   1.00787E-08  1.02479E-08  1.04043E-08  1.05611E-08  1.07041E-08  1.08527E-08  1.10519E-08  1.12093E-08  1.11643E-08  1.09387E-08
   1.06474E-08  1.02763E-08  9.87705E-09  9.64483E-09  9.59337E-09  9.72568E-09  1.00659E-08  1.04757E-08  1.08175E-08  1.10688E-08
   1.11501E-08  1.11964E-08  1.13093E-08  1.13027E-08  1.12008E-08  1.12832E-08  1.12644E-08  1.09429E-08  1.03427E-08  9.59127E-09
   8.85426E-09  8.11130E-09  7.18786E-09  6.57694E-09  6.40105E-09  6.16464E-09  5.97471E-09  5.98518E-09  6.04092E-09  6.09592E-09
   6.17104E-09  6.26369E-09  6.37228E-09  6.46513E-09  6.53900E-09  6.59815E-09  6.67891E-09  6.76259E-09  6.85542E-09  6.99758E-09
   7.26657E-09  7.70874E-09  8.28466E-09  8.91042E-09  9.69408E-09  1.03845E-08  1.08040E-08  1.09953E-08  1.09258E-08  1.05365E-08
   9.87851E-09  9.00812E-09  8.12432E-09  7.46504E-09  6.77132E-09  6.20010E-09  6.35667E-09  7.06870E-09  8.04623E-09  9.37068E-09
   1.07014E-08  1.16526E-08  1.20920E-08  1.20051E-08  1.14634E-08  1.06979E-08  9.76321E-09  8.62576E-09  7.62802E-09  7.43243E-09
   7.34173E-09  7.25117E-09  6.96977E-09  6.49620E-09  6.17757E-09  5.86958E-09  5.40304E-09  5.07865E-09  4.88145E-09  4.67451E-09
   4.52116E-09  4.42363E-09  4.35703E-09  4.30908E-09  4.27301E-09  4.24475E-09  4.22196E-09  4.20295E-09  4.18662E-09  4.17213E-09
   4.15872E-09  4.14603E-09  4.13381E-09  4.12184E-09  4.10991E-09  4.09782E-09  4.08523E-09  4.07201E-09  4.05802E-09  4.04316E-09
   4.02734E-09  4.01046E-09  3.99240E-09  3.97307E-09  3.95238E-09  3.93025E-09  3.90660E-09  3.88135E-09  3.85445E-09  3.82581E-09
   3.79536E-09  3.76304E-09  3.72877E-09  3.69249E-09  3.65413E-09  3.61363E-09  3.57092E-09  3.52595E-09  3.47865E-09  3.42896E-09
   3.37680E-09  3.32218E-09  3.26503E-09  3.20533E-09  3.14305E-09  3.07816E-09  3.01065E-09  2.94052E-09  2.86776E-09  2.79237E-09
   2.71441E-09  2.63389E-09  2.55092E-09  2.46562E-09  2.37814E-09  2.28875E-09  2.19782E-09  2.10586E-09  2.01369E-09  1.92251E-09
   1.83425E-09  1.75207E-09  1.68163E-09  1.63375E-09  1.63273E-09  1.74724E-09  2.26833E-09  3.72079E-09  6.06838E-09  8.94476E-09
   1.18256E-08  1.40419E-08  1.50514E-08  1.47155E-08  1.32599E-08  1.10029E-08  8.09198E-09  4.69885E-09  1.71814E-09  2.80913E-10
  -3.25962E-10 -7.06446E-10 -9.94400E-10 -1.23396E-09 -1.44397E-09 -1.63376E-09 -1.80839E-09 -1.97076E-09 -2.12253E-09 -2.26472E-09
  -2.39787E-09 -2.52227E-09 -2.63798E-09 -2.74495E-09 -2.84306E-09 -2.93210E-09 -3.01195E-09 -3.08293E-09 -3.14539E-09 -3.19967E-09
  -3.24611E-09 -3.28502E-09 -3.31669E-09 -3.34143E-09 -3.35952E-09 -3.37124E-09 -3.37688E-09 -3.37669E-09 -3.37097E-09 -3.35996E-09
  -3.34395E-09 -3.32318E-09 -3.29792E-09 -3.26844E-09 -3.23498E-09 -3.19782E-09 -3.15719E-09 -3.11337E-09 -3.06659E-09 -3.01713E-09
  -2.96522E-09 -2.91112E-09 -2.85508E-09 -2.79734E-09 -2.73814E-09 -2.67761E-09 -2.61588E-09 -2.55310E-09 -2.48939E-09 -2.42491E-09
  -2.35978E-09 -2.29413E-09 -2.22810E-09 -2.16184E-09 -2.09545E-09 -2.02909E-09 -1.96288E-09 -1.89697E-09 -1.83146E-09 -1.76652E-09
  -1.70225E-09 -1.63880E-09 -1.57628E-09 -1.51485E-09 -1.45461E-09 -1.39569E-09 -1.33824E-09 -1.28236E-09 -1.22821E-09 -1.17589E-09
  -1.12553E-09 -1.07727E-09 -1.03115E-09 -9.87128E-10 -9.45164E-10 -9.05216E-10 -8.67227E-10 -8.31160E-10 -7.96964E-10 -7.64595E-10
  -7.34010E-10 -7.05154E-10 -6.77992E-10 -6.52469E-10 -6.28549E-10 -6.06180E-10 -5.85305E-10 -5.65906E-10 -5.47922E-10 -5.31303E-10
  -5.16006E-10 -5.01995E-10 -4.89211E-10 -4.77617E-10 -4.67175E-10 -4.57821E-10 -4.49531E-10 -4.42249E-10 -4.35935E-10 -4.30538E-10
  -4.26007E-10 -4.22275E-10 -4.19274E-10 -4.16935E-10 -4.15199E-10 -4.13993E-10 -4.13256E-10 -4.12919E-10 -4.12919E-10 -4.13192E-10
  -4.13672E-10 -4.14294E-10 -4.14995E-10 -4.15712E-10 -4.16382E-10 -4.16940E-10 -4.17325E-10 -4.17473E-10 -4.17328E-10 -4.16818E-10
  -4.15892E-10 -4.14482E-10 -4.12529E-10 -4.09979E-10 -4.06765E-10 -4.02829E-10 -3.98116E-10 -3.92564E-10 -3.86170E-10 -3.78952E-10
  -3.70928E-10 -3.62118E-10 -3.52540E-10 -3.42211E-10 -3.31151E-10 -3.19380E-10 -3.06915E-10 -2.93774E-10 -2.79978E-10 -2.65542E-10
  -2.50489E-10 -2.34832E-10 -2.18591E-10 -2.01788E-10 -1.84435E-10 -1.66556E-10 -1.48166E-10 -1.29281E-10 -1.09922E-10 -9.01083E-11
  -6.98520E-11 -4.91753E-11 -2.80938E-11 -6.62664E-12  1.52086E-11  3.73974E-11  5.99166E-11  8.27437E-11  1.05860E-10  1.29243E-10
   1.52872E-10  1.76726E-10  2.00784E-10  2.25027E-10  2.49429E-10  2.73978E-10  2.98645E-10  3.23415E-10  3.48266E-10  3.73180E-10
   3.98137E-10  4.23113E-10  4.48094E-10  4.73057E-10  4.97985E-10  5.22856E-10  5.47654E-10  5.72361E-10  5.96955E-10  6.21417E-10
   6.45731E-10  6.69877E-10  6.93842E-10
 NY background values follow
     5.563E-09    5.544E-09    5.524E-09    5.505E-09    5.485E-09    5.465E-09    5.446E-09    5.426E-09    5.405E-09    5.385E-09
     5.365E-09    5.345E-09    5.324E-09    5.303E-09    5.283E-09    5.262E-09    5.241E-09    5.219E-09    5.198E-09    5.177E-09
     5.155E-09    5.133E-09    5.112E-09    5.090E-09    5.068E-09    5.046E-09    5.023E-09    5.001E-09    4.978E-09    4.956E-09
     4.933E-09    4.910E-09    4.887E-09    4.864E-09    4.841E-09    4.819E-09    4.796E-09    4.773E-09    4.750E-09    4.728E-09
     4.706E-09    4.684E-09    4.662E-09    4.640E-09    4.619E-09    4.598E-09    4.577E-09    4.556E-09    4.536E-09    4.517E-09
     4.498E-09    4.479E-09    4.461E-09    4.443E-09    4.426E-09    4.409E-09    4.393E-09    4.378E-09    4.363E-09    4.349E-09
     4.336E-09    4.322E-09    4.310E-09    4.298E-09    4.286E-09    4.275E-09    4.264E-09    4.253E-09    4.243E-09    4.233E-09
     4.223E-09    4.214E-09    4.205E-09    4.196E-09    4.187E-09    4.179E-09    4.170E-09    4.162E-09    4.154E-09    4.145E-09
     4.137E-09    4.129E-09    4.120E-09    4.112E-09    4.104E-09    4.095E-09    4.086E-09    4.077E-09    4.068E-09    4.059E-09
     4.050E-09    4.040E-09    4.030E-09    4.020E-09    4.010E-09    3.999E-09    3.989E-09    3.977E-09    3.966E-09    3.954E-09
     3.942E-09    3.930E-09    3.917E-09    3.904E-09    3.890E-09    3.876E-09    3.862E-09    3.847E-09    3.832E-09    3.816E-09
     3.800E-09    3.784E-09    3.767E-09    3.749E-09    3.731E-09    3.712E-09    3.692E-09    3.671E-09    3.650E-09    3.627E-09
     3.604E-09    3.579E-09    3.554E-09    3.527E-09    3.499E-09    3.469E-09    3.438E-09    3.405E-09    3.371E-09    3.335E-09
     3.298E-09    3.258E-09    3.217E-09    3.174E-09    3.129E-09    3.082E-09    3.032E-09    2.981E-09    2.927E-09    2.871E-09
     2.812E-09    2.751E-09    2.688E-09    2.621E-09    2.553E-09    2.481E-09    2.407E-09    2.330E-09    2.250E-09    2.167E-09
     2.082E-09    1.993E-09    1.902E-09    1.807E-09    1.709E-09    1.608E-09    1.504E-09    1.396E-09    1.286E-09    1.171E-09
     1.054E-09    9.328E-10    8.082E-10    6.801E-10    5.483E-10    4.129E-10    2.738E-10    1.309E-10   -1.573E-11   -1.657E-10
    -3.187E-10   -4.742E-10   -6.317E-10   -7.909E-10   -9.512E-10   -1.112E-09   -1.274E-09   -1.435E-09   -1.596E-09   -1.755E-09
    -1.913E-09   -2.070E-09   -2.224E-09   -2.375E-09   -2.523E-09   -2.667E-09   -2.807E-09   -2.942E-09   -3.073E-09   -3.198E-09
    -3.317E-09   -3.430E-09   -3.537E-09   -3.636E-09   -3.727E-09   -3.811E-09   -3.886E-09   -3.953E-09   -4.012E-09   -4.063E-09
    -4.107E-09   -4.144E-09   -4.174E-09   -4.197E-09   -4.214E-09   -4.225E-09   -4.229E-09   -4.229E-09   -4.222E-09   -4.211E-09
    -4.194E-09   -4.173E-09   -4.148E-09   -4.118E-09   -4.085E-09   -4.048E-09   -4.007E-09   -3.964E-09   -3.917E-09   -3.868E-09
    -3.816E-09   -3.762E-09   -3.706E-09   -3.649E-09   -3.590E-09   -3.530E-09   -3.468E-09   -3.406E-09   -3.342E-09   -3.278E-09
    -3.213E-09   -3.148E-09   -3.082E-09   -3.016E-09   -2.950E-09   -2.884E-09   -2.818E-09   -2.752E-09   -2.687E-09   -2.622E-09
    -2.558E-09   -2.495E-09   -2.433E-09   -2.372E-09   -2.312E-09   -2.253E-09   -2.196E-09   -2.140E-09   -2.086E-09   -2.034E-09
    -1.983E-09   -1.935E-09   -1.889E-09   -1.845E-09   -1.803E-09   -1.764E-09   -1.726E-09   -1.690E-09   -1.655E-09   -1.623E-09
    -1.592E-09   -1.563E-09   -1.536E-09   -1.511E-09   -1.487E-09   -1.464E-09   -1.443E-09   -1.424E-09   -1.405E-09   -1.389E-09
    -1.373E-09   -1.359E-09   -1.346E-09   -1.334E-09   -1.323E-09   -1.314E-09   -1.305E-09   -1.298E-09   -1.291E-09   -1.285E-09
    -1.280E-09   -1.276E-09   -1.273E-09   -1.270E-09   -1.268E-09   -1.266E-09   -1.265E-09   -1.265E-09   -1.264E-09   -1.264E-09
    -1.264E-09   -1.264E-09   -1.264E-09   -1.264E-09   -1.264E-09   -1.264E-09   -1.264E-09   -1.264E-09   -1.263E-09   -1.262E-09
    -1.260E-09   -1.258E-09   -1.255E-09   -1.252E-09   -1.248E-09   -1.244E-09   -1.238E-09   -1.232E-09   -1.225E-09   -1.217E-09
    -1.208E-09   -1.198E-09   -1.188E-09   -1.177E-09   -1.165E-09   -1.152E-09   -1.139E-09   -1.125E-09   -1.110E-09   -1.095E-09
    -1.079E-09   -1.062E-09   -1.045E-09   -1.027E-09   -1.009E-09   -9.898E-10   -9.704E-10   -9.505E-10   -9.300E-10   -9.092E-10
    -8.878E-10   -8.661E-10   -8.439E-10   -8.213E-10   -7.983E-10   -7.750E-10   -7.513E-10   -7.273E-10   -7.030E-10   -6.784E-10
    -6.536E-10   -6.285E-10   -6.032E-10   -5.777E-10   -5.520E-10   -5.262E-10   -5.002E-10   -4.742E-10   -4.480E-10   -4.218E-10
    -3.955E-10   -3.691E-10   -3.428E-10   -3.164E-10   -2.901E-10   -2.638E-10   -2.376E-10   -2.115E-10   -1.855E-10   -1.595E-10
    -1.338E-10   -1.081E-10   -8.269E-11
 Asp      Conc. = 1.86E-10
   5.73299E-09  5.67516E-09  5.62383E-09  5.57174E-09  5.52763E-09  5.48594E-09  5.45002E-09  5.42416E-09  5.40430E-09  5.38585E-09
   5.36776E-09  5.34968E-09  5.33152E-09  5.31315E-09  5.29444E-09  5.27549E-09  5.25635E-09  5.23706E-09  5.21763E-09  5.19807E-09
   5.17839E-09  5.15862E-09  5.13879E-09  5.11890E-09  5.09896E-09  5.07905E-09  5.05916E-09  5.03933E-09  5.01962E-09  5.00012E-09
   4.98092E-09  4.96217E-09  4.94409E-09  4.92697E-09  4.91131E-09  4.89805E-09  4.88880E-09  4.88187E-09  4.87680E-09  4.86961E-09
   4.85766E-09  4.84076E-09  4.82323E-09  4.81049E-09  4.80986E-09  4.82227E-09  4.83738E-09  4.84767E-09  4.85388E-09  4.84456E-09
   4.82184E-09  4.78380E-09  4.73201E-09  4.66747E-09  4.59874E-09  4.53583E-09  4.49300E-09  4.46673E-09  4.43408E-09  4.39914E-09
   4.37970E-09  4.36151E-09  4.34249E-09  4.32827E-09  4.31279E-09  4.29268E-09  4.27209E-09  4.25705E-09  4.24448E-09  4.23325E-09
   4.22288E-09  4.21313E-09  4.20383E-09  4.19490E-09  4.18623E-09  4.17779E-09  4.16953E-09  4.16139E-09  4.15333E-09  4.14535E-09
   4.13737E-09  4.12939E-09  4.12135E-09  4.11327E-09  4.10505E-09  4.09674E-09  4.08828E-09  4.07967E-09  4.07090E-09  4.06194E-09
   4.05280E-09  4.04344E-09  4.03386E-09  4.02404E-09  4.01398E-09  4.00363E-09  3.99302E-09  3.98212E-09  3.97091E-09  3.95938E-09
   3.94751E-09  3.93530E-09  3.92272E-09  3.90977E-09  3.89643E-09  3.88267E-09  3.86851E-09  3.85390E-09  3.83885E-09  3.82334E-09
   3.80737E-09  3.79090E-09  3.77390E-09  3.75637E-09  3.73822E-09  3.71938E-09  3.69979E-09  3.67937E-09  3.65806E-09  3.63577E-09
   3.61246E-09  3.58805E-09  3.56246E-09  3.53564E-09  3.50750E-09  3.47799E-09  3.44703E-09  3.41455E-09  3.38049E-09  3.34477E-09
   3.30733E-09  3.26809E-09  3.22698E-09  3.18394E-09  3.13890E-09  3.09178E-09  3.04253E-09  2.99107E-09  2.93733E-09  2.88124E-09
   2.82271E-09  2.76173E-09  2.69823E-09  2.63215E-09  2.56345E-09  2.49208E-09  2.41799E-09  2.34112E-09  2.26144E-09  2.17887E-09
   2.09340E-09  2.00496E-09  1.91351E-09  1.81900E-09  1.72139E-09  1.62064E-09  1.51671E-09  1.40957E-09  1.29919E-09  1.18555E-09
   1.06866E-09  9.48554E-10  8.25358E-10  6.99278E-10  5.70935E-10  4.42028E-10  3.19660E-10  2.25947E-10  1.54710E-10  9.54171E-11
   3.31214E-11 -5.28445E-11 -1.78707E-10 -3.46760E-10 -5.48266E-10 -7.72160E-10 -1.01491E-09 -1.27402E-09 -1.52258E-09 -1.70894E-09
  -1.87775E-09 -2.03968E-09 -2.19710E-09 -2.35058E-09 -2.50015E-09 -2.64562E-09 -2.78669E-09 -2.92301E-09 -3.05418E-09 -3.17982E-09
  -3.29951E-09 -3.41285E-09 -3.51940E-09 -3.61872E-09 -3.71042E-09 -3.79406E-09 -3.86935E-09 -3.93646E-09 -3.99564E-09 -4.04715E-09
  -4.09123E-09 -4.12813E-09 -4.15812E-09 -4.18144E-09 -4.19835E-09 -4.20908E-09 -4.21390E-09 -4.21306E-09 -4.20681E-09 -4.19540E-09
  -4.17907E-09 -4.15809E-09 -4.13269E-09 -4.10314E-09 -4.06967E-09 -4.03254E-09 -3.99201E-09 -3.94831E-09 -3.90169E-09 -3.85242E-09
  -3.80072E-09 -3.74686E-09 -3.69107E-09 -3.63360E-09 -3.57468E-09 -3.51444E-09 -3.45301E-09 -3.39052E-09 -3.32713E-09 -3.26295E-09
  -3.19812E-09 -3.13278E-09 -3.06706E-09 -3.00109E-09 -2.93499E-09 -2.86892E-09 -2.80299E-09 -2.73735E-09 -2.67211E-09 -2.60742E-09
  -2.54340E-09 -2.48018E-09 -2.41789E-09 -2.35667E-09 -2.29662E-09 -2.23790E-09 -2.18062E-09 -2.12491E-09 -2.07090E-09 -2.01873E-09
  -1.96849E-09 -1.92034E-09 -1.87431E-09 -1.83037E-09 -1.78847E-09 -1.74858E-09 -1.71062E-09 -1.67458E-09 -1.64039E-09 -1.60801E-09
  -1.57740E-09 -1.54851E-09 -1.52129E-09 -1.49570E-09 -1.47170E-09 -1.44923E-09 -1.42824E-09 -1.40871E-09 -1.39058E-09 -1.37380E-09
  -1.35832E-09 -1.34412E-09 -1.33112E-09 -1.31930E-09 -1.30862E-09 -1.29901E-09 -1.29045E-09 -1.28288E-09 -1.27626E-09 -1.27055E-09
  -1.26568E-09 -1.26160E-09 -1.25823E-09 -1.25551E-09 -1.25338E-09 -1.25176E-09 -1.25060E-09 -1.24982E-09 -1.24936E-09 -1.24916E-09
  -1.24915E-09 -1.24927E-09 -1.24945E-09 -1.24963E-09 -1.24975E-09 -1.24975E-09 -1.24955E-09 -1.24911E-09 -1.24835E-09 -1.24722E-09
  -1.24565E-09 -1.24359E-09 -1.24097E-09 -1.23774E-09 -1.23383E-09 -1.22918E-09 -1.22374E-09 -1.21744E-09 -1.21030E-09 -1.20231E-09
  -1.19350E-09 -1.18389E-09 -1.17350E-09 -1.16234E-09 -1.15044E-09 -1.13782E-09 -1.12448E-09 -1.11046E-09 -1.09577E-09 -1.08042E-09
  -1.06444E-09 -1.04784E-09 -1.03065E-09 -1.01288E-09 -9.94550E-10 -9.75678E-10 -9.56281E-10 -9.36376E-10 -9.15983E-10 -8.95123E-10
  -8.73806E-10 -8.52056E-10 -8.29887E-10 -8.07320E-10 -7.84371E-10 -7.61056E-10 -7.37397E-10 -7.13418E-10 -6.89136E-10 -6.64574E-10
  -6.39755E-10 -6.14696E-10 -5.89421E-10 -5.63950E-10 -5.38305E-10 -5.12502E-10 -4.86567E-10 -4.60517E-10 -4.34374E-10 -4.08156E-10
  -3.81882E-10 -3.55575E-10 -3.29253E-10 -3.02935E-10 -2.76641E-10 -2.50391E-10 -2.24202E-10 -1.98093E-10 -1.72084E-10 -1.46195E-10
  -1.20442E-10 -9.48453E-11 -6.94181E-11
 GABA     Conc. = 2.53E-09
   6.42494E-09  6.41841E-09  6.41245E-09  6.40713E-09  6.40252E-09  6.39871E-09  6.39577E-09  6.39384E-09  6.39304E-09  6.39351E-09
   6.39543E-09  6.39905E-09  6.40461E-09  6.41238E-09  6.42274E-09  6.43606E-09  6.45279E-09  6.47363E-09  6.49933E-09  6.53092E-09
   6.56986E-09  6.61798E-09  6.67785E-09  6.75318E-09  6.84917E-09  6.97416E-09  7.14198E-09  7.37828E-09  7.73846E-09  8.24291E-09
   8.78678E-09  9.41478E-09  1.01408E-08  1.07609E-08  1.12035E-08  1.14686E-08  1.14543E-08  1.11091E-08  1.04646E-08  9.63905E-09
   8.81727E-09  7.98128E-09  6.94461E-09  6.19677E-09  5.85678E-09  5.44981E-09  5.11570E-09  5.02651E-09  5.01264E-09  5.02933E-09
   5.06207E-09  5.10519E-09  5.15714E-09  5.21817E-09  5.28965E-09  5.37433E-09  5.47685E-09  5.60418E-09  5.76775E-09  5.98746E-09
   6.30361E-09  6.79682E-09  7.38554E-09  8.00400E-09  8.74538E-09  9.43648E-09  9.90560E-09  1.01527E-08  1.01188E-08  9.75330E-09
   9.08210E-09  8.20863E-09  7.33817E-09  6.65093E-09  5.85247E-09  5.09495E-09  4.89174E-09  4.77131E-09  4.58992E-09  4.63127E-09
   4.79867E-09  5.00600E-09  5.32668E-09  5.73216E-09  6.12017E-09  6.53151E-09  6.95198E-09  7.29492E-09  7.52477E-09  7.58653E-09
   7.52407E-09  7.41915E-09  7.11347E-09  6.61396E-09  6.26970E-09  5.93761E-09  5.44874E-09  5.10346E-09  4.88681E-09  4.66173E-09
   4.49144E-09  4.37803E-09  4.29651E-09  4.23450E-09  4.18516E-09  4.14433E-09  4.10960E-09  4.07926E-09  4.05210E-09  4.02729E-09
   4.00399E-09  3.98183E-09  3.96052E-09  3.93982E-09  3.91948E-09  3.89928E-09  3.87888E-09  3.85811E-09  3.83682E-09  3.81490E-09
   3.79224E-09  3.76872E-09  3.74423E-09  3.71865E-09  3.69188E-09  3.66385E-09  3.63444E-09  3.60359E-09  3.57123E-09  3.53726E-09
   3.50160E-09  3.46419E-09  3.42495E-09  3.38379E-09  3.34065E-09  3.29546E-09  3.24815E-09  3.19865E-09  3.14689E-09  3.09280E-09
   3.03628E-09  2.97734E-09  2.91590E-09  2.85192E-09  2.78536E-09  2.71618E-09  2.64434E-09  2.56982E-09  2.49257E-09  2.41256E-09
   2.32981E-09  2.24427E-09  2.15598E-09  2.06495E-09  1.97123E-09  1.87491E-09  1.77613E-09  1.67509E-09  1.57216E-09  1.46785E-09
   1.36305E-09  1.25927E-09  1.15929E-09  1.06862E-09  1.00031E-09  9.94312E-10  1.23667E-09  1.87130E-09  2.78730E-09  3.82395E-09
   4.75121E-09  5.31226E-09  5.35989E-09  4.91758E-09  4.11115E-09  3.04302E-09  1.73741E-09  3.24511E-10 -6.71689E-10 -1.08541E-09
  -1.35865E-09 -1.57988E-09 -1.77512E-09 -1.95455E-09 -2.12281E-09 -2.28225E-09 -2.43405E-09 -2.57879E-09 -2.71668E-09 -2.84775E-09
  -2.97190E-09 -3.08891E-09 -3.19853E-09 -3.30042E-09 -3.39428E-09 -3.47976E-09 -3.55660E-09 -3.62504E-09 -3.68534E-09 -3.73781E-09
  -3.78271E-09 -3.82032E-09 -3.85090E-09 -3.87473E-09 -3.89206E-09 -3.90315E-09 -3.90828E-09 -3.90769E-09 -3.90164E-09 -3.89039E-09
  -3.87419E-09 -3.85331E-09 -3.82799E-09 -3.79848E-09 -3.76505E-09 -3.72794E-09 -3.68740E-09 -3.64368E-09 -3.59704E-09 -3.54773E-09
  -3.49599E-09 -3.44207E-09 -3.38622E-09 -3.32869E-09 -3.26970E-09 -3.20939E-09 -3.14788E-09 -3.08533E-09 -3.02185E-09 -2.95760E-09
