 LCModel (Version 6.3-1R) Copyright: S.W. Provencher.          Ref.: Magn. Reson. Med. 30:672-679 (1993).                
 onepulse 16x15_ftSpec_smooth_lcm
 26 lines in following concentration table = NCONC+1
    Conc.  %SD /Cr+PCr  Metabolite                                         
    0.000 999%   0.000 Ala                                                 
 2.14E-10 294%   0.730 Asp                                                 
    0.000 999%   0.000 Cr                                                  
    0.000 999%   0.000 GABA                                                
    0.000 999%   0.000 Glc                                                 
 3.31E-09  15%  11.292 Gln                                                 
    0.000 999%   0.000 Glu                                                 
 5.03E-10 277%   1.718 Glyc                                                
    0.000 999%   0.000 GPC                                                 
    0.000 999%   0.000 GSH                                                 
 4.68E-10 254%   1.597 Ins                                                 
    0.000 999%   0.000 Lac                                                 
 8.26E-11 323%   0.282 NAAG                                                
 1.39E-10 247%   0.474 NAA                                                 
    0.000 999%   0.000 PCh                                                 
 2.93E-10  73%   1.000 PCr                                                 
 1.23E-09  61%   4.184 PE                                                  
 3.33E-11 695%   0.114 Scyllo                                              
 7.34E-10  79%   2.507 Ser                                                 
 8.80E-10  88%   3.004 Tau                                                 
    0.000 999%   0.000 GPC+PCh                                             
 2.21E-10  98%   0.756 NAA+NAAG                                            
 9.71E-10  41%   3.315 Ins+Glyc                                            
 2.93E-10  73%   1.000 Cr+PCr                                              
 3.31E-09  15%  11.292 Glu+Gln                                             
   6 lines in following misc. output table
  FWHM = 0.101 ppm    S/N =   3                                            
  Data shift = 0.380 ppm                                                   
  Ph: -40 deg     -39.8 deg/ppm                                            
  alphaB,S = 7.9E-01,   2.6E+01                                            
    9 spline knots.   Ns = 5(1)                                            
  (10) 4 infls.   ( 9) 3 extrs.                                            
  363 points on ppm-axis = NY
      4.250000     4.238821     4.227641     4.216462     4.205282     4.194103     4.182923     4.171744     4.160564     4.149385
      4.138206     4.127026     4.115847     4.104667     4.093488     4.082308     4.071129     4.059949     4.048770     4.037591
      4.026411     4.015232     4.004052     3.992873     3.981693     3.970514     3.959334     3.948155     3.936975     3.925796
      3.914617     3.903437     3.892258     3.881078     3.869899     3.858719     3.847540     3.836360     3.825181     3.814002
      3.802822     3.791643     3.780463     3.769284     3.758104     3.746925     3.735745     3.724566     3.713387     3.702207
      3.691028     3.679848     3.668669     3.657489     3.646310     3.635130     3.623951     3.612772     3.601592     3.590413
      3.579233     3.568054     3.556874     3.545695     3.534515     3.523336     3.512156     3.500977     3.489798     3.478618
      3.467439     3.456259     3.445080     3.433900     3.422721     3.411541     3.400362     3.389183     3.378003     3.366824
      3.355644     3.344465     3.333285     3.322106     3.310926     3.299747     3.288568     3.277388     3.266209     3.255029
      3.243850     3.232670     3.221491     3.210311     3.199132     3.187953     3.176773     3.165594     3.154414     3.143235
      3.132055     3.120876     3.109696     3.098517     3.087337     3.076158     3.064979     3.053799     3.042620     3.031440
      3.020261     3.009081     2.997902     2.986722     2.975543     2.964364     2.953184     2.942005     2.930825     2.919646
      2.908466     2.897287     2.886107     2.874928     2.863749     2.852569     2.841390     2.830210     2.819031     2.807851
      2.796672     2.785492     2.774313     2.763134     2.751954     2.740775     2.729595     2.718416     2.707236     2.696057
      2.684877     2.673698     2.662519     2.651339     2.640160     2.628980     2.617801     2.606621     2.595442     2.584262
      2.573083     2.561903     2.550724     2.539545     2.528365     2.517186     2.506006     2.494827     2.483647     2.472468
      2.461288     2.450109     2.438930     2.427750     2.416571     2.405391     2.394212     2.383032     2.371853     2.360673
      2.349494     2.338315     2.327135     2.315956     2.304776     2.293597     2.282417     2.271238     2.260058     2.248879
      2.237700     2.226520     2.215341     2.204161     2.192982     2.181802     2.170623     2.159443     2.148264     2.137084
      2.125905     2.114726     2.103546     2.092367     2.081187     2.070008     2.058828     2.047649     2.036469     2.025290
      2.014111     2.002931     1.991752     1.980572     1.969393     1.958213     1.947034     1.935854     1.924675     1.913496
      1.902316     1.891137     1.879957     1.868778     1.857598     1.846419     1.835239     1.824060     1.812881     1.801701
      1.790522     1.779342     1.768163     1.756983     1.745804     1.734624     1.723445     1.712265     1.701086     1.689907
      1.678727     1.667548     1.656368     1.645189     1.634009     1.622830     1.611650     1.600471     1.589292     1.578112
      1.566933     1.555753     1.544574     1.533394     1.522215     1.511035     1.499856     1.488677     1.477497     1.466318
      1.455138     1.443959     1.432779     1.421600     1.410420     1.399241     1.388062     1.376882     1.365703     1.354523
      1.343344     1.332164     1.320985     1.309805     1.298626     1.287446     1.276267     1.265088     1.253908     1.242729
      1.231549     1.220370     1.209190     1.198011     1.186831     1.175652     1.164473     1.153293     1.142114     1.130934
      1.119755     1.108575     1.097396     1.086216     1.075037     1.063858     1.052678     1.041499     1.030319     1.019140
      1.007960     0.996781     0.985601     0.974422     0.963243     0.952063     0.940884     0.929704     0.918525     0.907345
      0.896166     0.884986     0.873807     0.862628     0.851448     0.840269     0.829089     0.817910     0.806730     0.795551
      0.784371     0.773192     0.762012     0.750833     0.739654     0.728474     0.717295     0.706115     0.694936     0.683756
      0.672577     0.661397     0.650218     0.639039     0.627859     0.616680     0.605500     0.594321     0.583141     0.571962
      0.560782     0.549603     0.538424     0.527244     0.516065     0.504885     0.493706     0.482526     0.471347     0.460167
      0.448988     0.437809     0.426629     0.415450     0.404270     0.393091     0.381911     0.370732     0.359552     0.348373
      0.337193     0.326014     0.314835     0.303655     0.292476     0.281296     0.270117     0.258937     0.247758     0.236578
      0.225399     0.214220     0.203040
 NY phased data points follow
   1.14215E-08  8.45388E-09  9.98128E-09  8.04072E-09  9.00057E-09  7.25776E-09  9.76174E-09  8.17680E-09  9.91457E-09  8.90322E-09
   1.05566E-08  8.84416E-09  1.01327E-08  8.89461E-09  9.56659E-09  7.87334E-09  9.46091E-09  7.72240E-09  8.68226E-09  7.79043E-09
   9.70025E-09  9.21673E-09  1.09816E-08  8.66424E-09  9.11169E-09  7.96517E-09  9.30158E-09  8.56251E-09  1.12330E-08  1.05165E-08
   1.14155E-08  8.99704E-09  9.38231E-09  6.55858E-09  6.75414E-09  5.83569E-09  6.51003E-09  5.38941E-09  6.07822E-09  5.08900E-09
   5.64931E-09  4.92122E-09  5.99021E-09  4.41297E-09  4.81563E-09  3.92163E-09  5.52506E-09  5.44858E-09  5.94139E-09  5.01330E-09
   5.48802E-09  4.61686E-09  5.31150E-09  4.67770E-09  5.26074E-09  4.78158E-09  5.94955E-09  5.76492E-09  8.04130E-09  1.01279E-08
   1.40003E-08  1.43165E-08  1.31347E-08  1.00522E-08  9.62887E-09  7.89383E-09  7.94798E-09  6.77930E-09  6.37133E-09  5.69098E-09
   6.11394E-09  4.99666E-09  4.67673E-09  4.08716E-09  5.85283E-09  7.44659E-09  1.04312E-08  1.33475E-08  1.43654E-08  1.29589E-08
   1.20779E-08  1.03393E-08  9.75804E-09  9.13858E-09  8.41700E-09  8.48176E-09  8.24590E-09  7.95510E-09  7.37991E-09  6.93980E-09
   7.08770E-09  5.92372E-09  5.70553E-09  5.61030E-09  5.47646E-09  4.62901E-09  4.74812E-09  4.65473E-09  4.64805E-09  4.52842E-09
   4.93591E-09  4.81531E-09  4.78298E-09  4.86308E-09  4.59629E-09  4.27777E-09  3.75021E-09  2.76703E-09  3.36133E-09  2.95040E-09
   3.87748E-09  4.53765E-09  4.23602E-09  4.00958E-09  4.64431E-09  4.86468E-09  5.01047E-09  5.14489E-09  5.76999E-09  5.38677E-09
   4.39325E-09  3.79824E-09  3.43246E-09  3.38779E-09  2.84950E-09  3.35922E-09  3.66578E-09  3.75916E-09  3.56724E-09  3.78131E-09
   4.27364E-09  3.66344E-09  4.03596E-09  3.56607E-09  3.34445E-09  2.94294E-09  3.50573E-09  4.26093E-09  5.41271E-09  5.69981E-09
   5.11569E-09  4.99341E-09  5.35108E-09  5.79750E-09  5.74726E-09  6.30991E-09  5.95771E-09  5.64373E-09  5.59369E-09  5.37857E-09
   5.17939E-09  5.39994E-09  5.39315E-09  5.44767E-09  4.91967E-09  5.08321E-09  5.44123E-09  5.71609E-09  5.90213E-09  5.64762E-09
   5.11207E-09  4.89520E-09  4.35182E-09  3.63182E-09  3.52272E-09  4.35993E-09  4.61751E-09  6.69847E-09  1.17558E-08  1.67368E-08
   1.72016E-08  1.66023E-08  1.50556E-08  1.43073E-08  1.34384E-08  1.31810E-08  1.16848E-08  1.12746E-08  1.04535E-08  1.01280E-08
   9.70163E-09  9.60358E-09  7.90470E-09  7.35288E-09  6.84449E-09  5.53162E-09  4.27046E-09  3.00718E-09  1.12739E-09  5.36115E-10
  -8.14177E-10 -2.24633E-09 -4.48308E-09 -4.81335E-09 -6.11030E-09 -6.72041E-09 -8.46176E-09 -8.67789E-09 -9.06856E-09 -8.47437E-09
  -8.70463E-09 -8.40700E-09 -7.81544E-09 -6.76194E-09 -6.56129E-09 -5.21151E-09 -4.76043E-09 -3.91691E-09 -3.25311E-09 -2.02841E-09
  -2.25157E-09 -1.97283E-09 -1.20511E-09 -1.58549E-09 -2.23676E-09 -1.05775E-09 -1.61401E-09 -2.21457E-09 -2.10896E-09 -1.20362E-09
  -1.19849E-09 -1.50878E-09 -2.92232E-10 -3.78172E-10 -1.28939E-09 -9.14261E-10 -1.70369E-09 -7.07561E-10 -1.40182E-09 -1.07382E-09
  -1.66776E-09 -9.41024E-10 -1.01031E-09 -2.71794E-10 -1.09883E-09  1.35907E-10 -9.63252E-10 -5.98333E-10 -1.91038E-09 -1.04148E-09
  -9.92651E-10 -1.05468E-09 -1.99946E-09 -7.33667E-10 -9.62114E-10 -9.23983E-10 -4.35030E-10 -1.18074E-09 -1.01644E-09 -1.59290E-10
  -1.24144E-09  1.83783E-10 -7.53739E-11  1.81743E-10 -1.75065E-10 -6.31864E-10 -4.93054E-10 -4.71156E-12 -1.05885E-09 -1.40058E-09
  -1.47769E-09 -1.54973E-09 -2.22919E-09 -1.65066E-09 -2.60586E-09 -1.34096E-09 -2.04654E-09 -1.71048E-09 -1.35672E-09 -5.75343E-10
  -8.25747E-10 -4.52768E-10 -9.29906E-10 -1.76801E-10 -1.92776E-10  1.92697E-10 -4.23568E-10 -5.81692E-11 -1.08985E-10  7.14079E-10
  -5.95401E-10 -1.55562E-10 -4.76756E-10  1.32125E-10  2.24708E-10  3.11635E-11 -1.19778E-09 -2.37610E-10 -4.78769E-10 -4.04580E-10
  -1.28825E-09 -4.28890E-10 -8.05394E-10 -4.79574E-10 -1.27430E-09 -5.83361E-10 -1.14971E-09 -1.00466E-09 -4.93946E-10 -1.25683E-09
  -1.59517E-09 -1.13682E-09 -1.04299E-09 -1.25044E-09 -2.12701E-09 -1.54228E-09 -1.46233E-09 -1.25522E-09 -1.82869E-09 -1.50373E-09
  -1.74715E-09 -1.70638E-09 -2.00001E-09 -1.72707E-09 -1.75093E-09 -2.07580E-09 -2.05594E-09 -1.76191E-09 -2.12687E-09 -2.01597E-09
  -2.31643E-09 -1.84913E-09 -2.75155E-09 -2.00023E-09 -2.11652E-09 -2.02468E-09 -2.31640E-09 -2.39246E-09 -2.02777E-09 -2.11064E-09
  -2.94084E-09 -1.85675E-09 -2.76113E-09 -2.13092E-09 -2.87982E-09 -2.16511E-09 -3.15794E-09 -2.27841E-09 -2.57022E-09 -2.73232E-09
  -2.94099E-09 -2.47065E-09 -3.22171E-09 -2.40747E-09 -2.73272E-09 -2.55719E-09 -3.51468E-09 -2.22751E-09 -2.45522E-09 -2.87720E-09
  -2.87420E-09 -2.82007E-09 -2.92376E-09 -3.16409E-09 -2.76414E-09 -2.16529E-09 -2.97446E-09 -2.91743E-09 -2.80587E-09 -3.05595E-09
  -2.08070E-09 -3.01921E-09 -3.01588E-09
 NY points of the fit to the data follow
   1.03060E-08  9.81781E-09  9.37256E-09  9.29222E-09  9.24682E-09  9.11875E-09  8.85244E-09  8.55228E-09  8.70547E-09  9.35193E-09
   9.70311E-09  9.47645E-09  9.37010E-09  9.01607E-09  8.95320E-09  9.02954E-09  9.24032E-09  9.34738E-09  8.93429E-09  8.05284E-09
   7.78122E-09  8.11884E-09  8.75602E-09  9.46941E-09  9.96867E-09  1.02339E-08  1.04223E-08  1.03043E-08  1.01047E-08  9.77139E-09
   9.31435E-09  8.75776E-09  8.28518E-09  7.87061E-09  7.39990E-09  6.74911E-09  6.05262E-09  5.62819E-09  5.44063E-09  5.35750E-09
   5.26997E-09  5.03282E-09  4.59218E-09  4.29691E-09  4.30571E-09  4.39043E-09  4.47436E-09  4.53184E-09  4.60891E-09  4.71994E-09
   4.88535E-09  5.08089E-09  5.30798E-09  5.58274E-09  6.04210E-09  6.87002E-09  7.78824E-09  8.64419E-09  9.59663E-09  1.05073E-08
   1.11105E-08  1.13482E-08  1.12879E-08  1.10454E-08  1.05372E-08  9.67131E-09  8.74462E-09  8.20562E-09  7.35629E-09  6.36597E-09
   6.09745E-09  6.22552E-09  6.43659E-09  6.96672E-09  7.62589E-09  8.50342E-09  9.45756E-09  1.04275E-08  1.12036E-08  1.16465E-08
   1.17618E-08  1.15674E-08  1.08977E-08  1.02286E-08  9.77967E-09  8.97285E-09  7.94258E-09  7.25476E-09  6.45770E-09  5.89880E-09
   5.59393E-09  5.39915E-09  5.26324E-09  5.16587E-09  5.08859E-09  5.02666E-09  4.97768E-09  4.93750E-09  4.90307E-09  4.87229E-09
   4.84807E-09  4.82774E-09  4.80817E-09  4.78956E-09  4.77268E-09  4.75713E-09  4.74212E-09  4.72732E-09  4.71244E-09  4.69730E-09
   4.68174E-09  4.66560E-09  4.64874E-09  4.63104E-09  4.61240E-09  4.59272E-09  4.57190E-09  4.54988E-09  4.52656E-09  4.50189E-09
   4.47579E-09  4.44821E-09  4.41911E-09  4.38852E-09  4.35644E-09  4.32291E-09  4.28795E-09  4.25158E-09  4.21384E-09  4.17476E-09
   4.13436E-09  4.09269E-09  4.04976E-09  4.00564E-09  3.96034E-09  3.91392E-09  3.86641E-09  3.81785E-09  3.76831E-09  3.71781E-09
   3.66642E-09  3.61419E-09  3.56119E-09  3.50747E-09  3.45310E-09  3.39815E-09  3.34273E-09  3.28692E-09  3.23082E-09  3.17459E-09
   3.11837E-09  3.06232E-09  3.00670E-09  2.95178E-09  2.89793E-09  2.84562E-09  2.79552E-09  2.74852E-09  2.70590E-09  2.66961E-09
   2.64263E-09  2.62992E-09  2.64024E-09  2.69064E-09  2.81925E-09  3.13231E-09  4.06237E-09  7.12613E-09  1.16224E-08  1.55335E-08
   1.72714E-08  1.69664E-08  1.57883E-08  1.47632E-08  1.41693E-08  1.38104E-08  1.27811E-08  9.85151E-09  5.16593E-09  2.78377E-09
   2.04120E-09  1.67784E-09  1.44845E-09  1.28126E-09  1.14799E-09  1.03528E-09  9.36012E-10  8.46068E-10  7.62899E-10  6.84853E-10
   6.10803E-10  5.39986E-10  4.71831E-10  4.05947E-10  3.42018E-10  2.79810E-10  2.19163E-10  1.59935E-10  1.02014E-10  4.53266E-11
  -1.01978E-11 -6.46207E-11 -1.17974E-10 -1.70287E-10 -2.21596E-10 -2.71916E-10 -3.21266E-10 -3.69643E-10 -4.17077E-10 -4.63567E-10
  -5.09117E-10 -5.53721E-10 -5.97387E-10 -6.40109E-10 -6.81901E-10 -7.22745E-10 -7.62634E-10 -8.01572E-10 -8.39563E-10 -8.76583E-10
  -9.12630E-10 -9.47699E-10 -9.81788E-10 -1.01489E-09 -1.04701E-09 -1.07810E-09 -1.10819E-09 -1.13726E-09 -1.16529E-09 -1.19229E-09
  -1.21824E-09 -1.24314E-09 -1.26697E-09 -1.28973E-09 -1.31140E-09 -1.33198E-09 -1.35147E-09 -1.36984E-09 -1.38710E-09 -1.40322E-09
  -1.41820E-09 -1.43204E-09 -1.44472E-09 -1.45626E-09 -1.46670E-09 -1.47608E-09 -1.48444E-09 -1.49180E-09 -1.49821E-09 -1.50371E-09
  -1.50833E-09 -1.51211E-09 -1.51508E-09 -1.51728E-09 -1.51875E-09 -1.51953E-09 -1.51965E-09 -1.51914E-09 -1.51806E-09 -1.51642E-09
  -1.51427E-09 -1.51165E-09 -1.50859E-09 -1.50513E-09 -1.50130E-09 -1.49714E-09 -1.49270E-09 -1.48799E-09 -1.48307E-09 -1.47797E-09
  -1.47272E-09 -1.46736E-09 -1.46193E-09 -1.45646E-09 -1.45099E-09 -1.44556E-09 -1.44021E-09 -1.43496E-09 -1.42986E-09 -1.42495E-09
  -1.42025E-09 -1.41581E-09 -1.41166E-09 -1.40784E-09 -1.40439E-09 -1.40134E-09 -1.39873E-09 -1.39659E-09 -1.39496E-09 -1.39389E-09
  -1.39340E-09 -1.39352E-09 -1.39431E-09 -1.39579E-09 -1.39800E-09 -1.40098E-09 -1.40476E-09 -1.40938E-09 -1.41488E-09 -1.42129E-09
  -1.42865E-09 -1.43700E-09 -1.44637E-09 -1.45677E-09 -1.46819E-09 -1.48059E-09 -1.49396E-09 -1.50827E-09 -1.52349E-09 -1.53960E-09
  -1.55657E-09 -1.57438E-09 -1.59301E-09 -1.61243E-09 -1.63261E-09 -1.65352E-09 -1.67516E-09 -1.69748E-09 -1.72046E-09 -1.74409E-09
  -1.76833E-09 -1.79316E-09 -1.81855E-09 -1.84449E-09 -1.87094E-09 -1.89788E-09 -1.92528E-09 -1.95312E-09 -1.98138E-09 -2.01003E-09
  -2.03904E-09 -2.06840E-09 -2.09807E-09 -2.12802E-09 -2.15825E-09 -2.18872E-09 -2.21939E-09 -2.25027E-09 -2.28130E-09 -2.31248E-09
  -2.34377E-09 -2.37515E-09 -2.40661E-09 -2.43810E-09 -2.46960E-09 -2.50110E-09 -2.53256E-09 -2.56397E-09 -2.59529E-09 -2.62650E-09
  -2.65758E-09 -2.68850E-09 -2.71924E-09 -2.74977E-09 -2.78006E-09 -2.81009E-09 -2.83985E-09 -2.86929E-09 -2.89840E-09 -2.92716E-09
  -2.95552E-09 -2.98349E-09 -3.01101E-09
 NY background values follow
     1.586E-09    1.611E-09    1.636E-09    1.662E-09    1.687E-09    1.711E-09    1.736E-09    1.761E-09    1.785E-09    1.810E-09
     1.834E-09    1.859E-09    1.883E-09    1.907E-09    1.931E-09    1.955E-09    1.978E-09    2.002E-09    2.026E-09    2.050E-09
     2.073E-09    2.097E-09    2.120E-09    2.144E-09    2.167E-09    2.191E-09    2.214E-09    2.237E-09    2.261E-09    2.284E-09
     2.308E-09    2.331E-09    2.354E-09    2.378E-09    2.401E-09    2.425E-09    2.448E-09    2.472E-09    2.496E-09    2.519E-09
     2.543E-09    2.567E-09    2.591E-09    2.615E-09    2.639E-09    2.663E-09    2.687E-09    2.711E-09    2.736E-09    2.760E-09
     2.785E-09    2.810E-09    2.834E-09    2.859E-09    2.885E-09    2.910E-09    2.935E-09    2.961E-09    2.987E-09    3.012E-09
     3.038E-09    3.065E-09    3.091E-09    3.118E-09    3.144E-09    3.171E-09    3.197E-09    3.224E-09    3.251E-09    3.277E-09
     3.304E-09    3.330E-09    3.356E-09    3.382E-09    3.407E-09    3.433E-09    3.458E-09    3.482E-09    3.507E-09    3.530E-09
     3.554E-09    3.577E-09    3.599E-09    3.621E-09    3.642E-09    3.663E-09    3.683E-09    3.703E-09    3.721E-09    3.739E-09
     3.756E-09    3.773E-09    3.788E-09    3.803E-09    3.816E-09    3.829E-09    3.841E-09    3.852E-09    3.861E-09    3.870E-09
     3.878E-09    3.884E-09    3.889E-09    3.893E-09    3.896E-09    3.898E-09    3.898E-09    3.897E-09    3.894E-09    3.890E-09
     3.885E-09    3.878E-09    3.870E-09    3.860E-09    3.848E-09    3.835E-09    3.820E-09    3.804E-09    3.786E-09    3.766E-09
     3.744E-09    3.721E-09    3.696E-09    3.669E-09    3.640E-09    3.610E-09    3.577E-09    3.544E-09    3.508E-09    3.472E-09
     3.433E-09    3.393E-09    3.352E-09    3.309E-09    3.266E-09    3.220E-09    3.174E-09    3.126E-09    3.077E-09    3.027E-09
     2.976E-09    2.923E-09    2.870E-09    2.816E-09    2.760E-09    2.704E-09    2.647E-09    2.589E-09    2.530E-09    2.471E-09
     2.411E-09    2.350E-09    2.288E-09    2.226E-09    2.163E-09    2.100E-09    2.036E-09    1.972E-09    1.908E-09    1.843E-09
     1.777E-09    1.712E-09    1.646E-09    1.580E-09    1.514E-09    1.447E-09    1.381E-09    1.314E-09    1.248E-09    1.181E-09
     1.115E-09    1.048E-09    9.823E-10    9.162E-10    8.504E-10    7.848E-10    7.195E-10    6.546E-10    5.900E-10    5.258E-10
     4.621E-10    3.989E-10    3.362E-10    2.740E-10    2.124E-10    1.513E-10    9.080E-11    3.088E-11   -2.845E-11   -8.718E-11
    -1.453E-10   -2.028E-10   -2.597E-10   -3.159E-10   -3.715E-10   -4.264E-10   -4.806E-10   -5.342E-10   -5.871E-10   -6.392E-10
    -6.907E-10   -7.414E-10   -7.914E-10   -8.406E-10   -8.891E-10   -9.369E-10   -9.838E-10   -1.030E-09   -1.075E-09   -1.120E-09
    -1.164E-09   -1.207E-09   -1.249E-09   -1.290E-09   -1.330E-09   -1.370E-09   -1.408E-09   -1.446E-09   -1.483E-09   -1.519E-09
    -1.554E-09   -1.588E-09   -1.621E-09   -1.653E-09   -1.685E-09   -1.715E-09   -1.744E-09   -1.773E-09   -1.800E-09   -1.826E-09
    -1.851E-09   -1.876E-09   -1.899E-09   -1.921E-09   -1.942E-09   -1.962E-09   -1.981E-09   -1.999E-09   -2.015E-09   -2.031E-09
    -2.045E-09   -2.059E-09   -2.071E-09   -2.082E-09   -2.092E-09   -2.101E-09   -2.109E-09   -2.116E-09   -2.122E-09   -2.127E-09
    -2.131E-09   -2.134E-09   -2.137E-09   -2.139E-09   -2.140E-09   -2.140E-09   -2.140E-09   -2.139E-09   -2.138E-09   -2.136E-09
    -2.133E-09   -2.130E-09   -2.127E-09   -2.123E-09   -2.119E-09   -2.114E-09   -2.109E-09   -2.104E-09   -2.099E-09   -2.094E-09
    -2.088E-09   -2.082E-09   -2.077E-09   -2.071E-09   -2.065E-09   -2.059E-09   -2.054E-09   -2.048E-09   -2.043E-09   -2.037E-09
    -2.032E-09   -2.028E-09   -2.023E-09   -2.019E-09   -2.015E-09   -2.012E-09   -2.009E-09   -2.007E-09   -2.005E-09   -2.003E-09
    -2.003E-09   -2.003E-09   -2.003E-09   -2.004E-09   -2.006E-09   -2.009E-09   -2.012E-09   -2.017E-09   -2.022E-09   -2.028E-09
    -2.035E-09   -2.043E-09   -2.052E-09   -2.062E-09   -2.074E-09   -2.086E-09   -2.099E-09   -2.113E-09   -2.128E-09   -2.144E-09
    -2.160E-09   -2.178E-09   -2.196E-09   -2.215E-09   -2.235E-09   -2.256E-09   -2.277E-09   -2.299E-09   -2.322E-09   -2.345E-09
    -2.369E-09   -2.394E-09   -2.419E-09   -2.445E-09   -2.471E-09   -2.497E-09   -2.525E-09   -2.552E-09   -2.580E-09   -2.608E-09
    -2.637E-09   -2.666E-09   -2.696E-09   -2.725E-09   -2.755E-09   -2.785E-09   -2.816E-09   -2.846E-09   -2.877E-09   -2.908E-09
    -2.939E-09   -2.970E-09   -3.001E-09   -3.032E-09   -3.064E-09   -3.095E-09   -3.126E-09   -3.157E-09   -3.188E-09   -3.219E-09
    -3.250E-09   -3.281E-09   -3.311E-09   -3.341E-09   -3.371E-09   -3.401E-09   -3.430E-09   -3.459E-09   -3.488E-09   -3.517E-09
    -3.545E-09   -3.572E-09   -3.600E-09
 Asp      Conc. = 2.14E-10
   1.81672E-09  1.80356E-09  1.80256E-09  1.79805E-09  1.80402E-09  1.80205E-09  1.80031E-09  1.80329E-09  1.81791E-09  1.83678E-09
   1.85759E-09  1.87947E-09  1.90212E-09  1.92537E-09  1.94873E-09  1.97216E-09  1.99567E-09  2.01925E-09  2.04289E-09  2.06658E-09
   2.09033E-09  2.11413E-09  2.13800E-09  2.16194E-09  2.18596E-09  2.21010E-09  2.23438E-09  2.25884E-09  2.28352E-09  2.30849E-09
   2.33385E-09  2.35975E-09  2.38639E-09  2.41418E-09  2.44384E-09  2.47709E-09  2.51810E-09  2.56130E-09  2.60540E-09  2.64085E-09
   2.66612E-09  2.68597E-09  2.71528E-09  2.76654E-09  2.84341E-09  2.93712E-09  3.00824E-09  3.03761E-09  3.05914E-09  3.08340E-09
   3.12779E-09  3.17049E-09  3.19486E-09  3.18791E-09  3.15355E-09  3.11394E-09  3.09868E-09  3.13162E-09  3.15100E-09  3.14001E-09
   3.14661E-09  3.15818E-09  3.16779E-09  3.19079E-09  3.21972E-09  3.24072E-09  3.25166E-09  3.26914E-09  3.28974E-09  3.31194E-09
   3.33506E-09  3.35873E-09  3.38270E-09  3.40682E-09  3.43097E-09  3.45505E-09  3.47900E-09  3.50273E-09  3.52620E-09  3.54936E-09
   3.57215E-09  3.59453E-09  3.61645E-09  3.63788E-09  3.65878E-09  3.67910E-09  3.69881E-09  3.71787E-09  3.73625E-09  3.75390E-09
   3.77080E-09  3.78691E-09  3.80219E-09  3.81660E-09  3.83012E-09  3.84271E-09  3.85433E-09  3.86496E-09  3.87455E-09  3.88307E-09
   3.89049E-09  3.89678E-09  3.90189E-09  3.90581E-09  3.90848E-09  3.90989E-09  3.90999E-09  3.90876E-09  3.90615E-09  3.90215E-09
   3.89670E-09  3.88978E-09  3.88136E-09  3.87140E-09  3.85987E-09  3.84674E-09  3.83197E-09  3.81552E-09  3.79738E-09  3.77750E-09
   3.75584E-09  3.73238E-09  3.70711E-09  3.68007E-09  3.65129E-09  3.62082E-09  3.58868E-09  3.55493E-09  3.51961E-09  3.48274E-09
   3.44437E-09  3.40454E-09  3.36328E-09  3.32065E-09  3.27666E-09  3.23138E-09  3.18482E-09  3.13704E-09  3.08808E-09  3.03796E-09
   2.98674E-09  2.93445E-09  2.88113E-09  2.82683E-09  2.77157E-09  2.71540E-09  2.65836E-09  2.60050E-09  2.54184E-09  2.48245E-09
   2.42235E-09  2.36158E-09  2.30020E-09  2.23826E-09  2.17579E-09  2.11285E-09  2.04950E-09  1.98579E-09  1.92181E-09  1.85766E-09
   1.79344E-09  1.72937E-09  1.66575E-09  1.60317E-09  1.54294E-09  1.48892E-09  1.45823E-09  1.49815E-09  1.56323E-09  1.59551E-09
   1.55879E-09  1.47232E-09  1.37245E-09  1.28348E-09  1.20675E-09  1.13363E-09  1.03259E-09  8.70426E-10  6.71756E-10  5.71575E-10
   4.94926E-10  4.25245E-10  3.58722E-10  2.94061E-10  2.30689E-10  1.68340E-10  1.06868E-10  4.61822E-11 -1.37611E-11 -7.29895E-11
  -1.31530E-10 -1.89378E-10 -2.46548E-10 -3.03028E-10 -3.58825E-10 -4.13940E-10 -4.68353E-10 -5.22064E-10 -5.75070E-10 -6.27354E-10
  -6.78910E-10 -7.29741E-10 -7.79828E-10 -8.29158E-10 -8.77731E-10 -9.25534E-10 -9.72559E-10 -1.01878E-09 -1.06421E-09 -1.10884E-09
  -1.15264E-09 -1.19561E-09 -1.23774E-09 -1.27902E-09 -1.31944E-09 -1.35900E-09 -1.39766E-09 -1.43544E-09 -1.47233E-09 -1.50830E-09
  -1.54334E-09 -1.57746E-09 -1.61063E-09 -1.64285E-09 -1.67413E-09 -1.70441E-09 -1.73372E-09 -1.76204E-09 -1.78935E-09 -1.81565E-09
  -1.84092E-09 -1.86516E-09 -1.88836E-09 -1.91050E-09 -1.93158E-09 -1.95158E-09 -1.97050E-09 -1.98832E-09 -2.00504E-09 -2.02064E-09
  -2.03512E-09 -2.04846E-09 -2.06065E-09 -2.07172E-09 -2.08170E-09 -2.09062E-09 -2.09853E-09 -2.10546E-09 -2.11144E-09 -2.11652E-09
  -2.12072E-09 -2.12410E-09 -2.12667E-09 -2.12848E-09 -2.12956E-09 -2.12996E-09 -2.12970E-09 -2.12883E-09 -2.12738E-09 -2.12538E-09
  -2.12288E-09 -2.11991E-09 -2.11650E-09 -2.11270E-09 -2.10853E-09 -2.10404E-09 -2.09926E-09 -2.09423E-09 -2.08899E-09 -2.08356E-09
  -2.07799E-09 -2.07232E-09 -2.06658E-09 -2.06080E-09 -2.05502E-09 -2.04929E-09 -2.04363E-09 -2.03808E-09 -2.03268E-09 -2.02747E-09
  -2.02248E-09 -2.01775E-09 -2.01331E-09 -2.00920E-09 -2.00546E-09 -2.00212E-09 -1.99923E-09 -1.99680E-09 -1.99490E-09 -1.99354E-09
  -1.99277E-09 -1.99261E-09 -1.99312E-09 -1.99432E-09 -1.99626E-09 -1.99896E-09 -2.00247E-09 -2.00681E-09 -2.01204E-09 -2.01817E-09
  -2.02526E-09 -2.03334E-09 -2.04243E-09 -2.05256E-09 -2.06371E-09 -2.07584E-09 -2.08894E-09 -2.10298E-09 -2.11792E-09 -2.13376E-09
  -2.15047E-09 -2.16801E-09 -2.18637E-09 -2.20551E-09 -2.22542E-09 -2.24607E-09 -2.26743E-09 -2.28948E-09 -2.31220E-09 -2.33555E-09
  -2.35952E-09 -2.38408E-09 -2.40920E-09 -2.43486E-09 -2.46104E-09 -2.48770E-09 -2.51483E-09 -2.54240E-09 -2.57039E-09 -2.59875E-09
  -2.62749E-09 -2.65657E-09 -2.68596E-09 -2.71564E-09 -2.74559E-09 -2.77578E-09 -2.80617E-09 -2.83676E-09 -2.86752E-09 -2.89841E-09
  -2.92942E-09 -2.96052E-09 -2.99168E-09 -3.02289E-09 -3.05411E-09 -3.08532E-09 -3.11649E-09 -3.14760E-09 -3.17863E-09 -3.20955E-09
  -3.24033E-09 -3.27096E-09 -3.30140E-09 -3.33163E-09 -3.36162E-09 -3.39135E-09 -3.42080E-09 -3.44994E-09 -3.47875E-09 -3.50720E-09
  -3.53526E-09 -3.56291E-09 -3.59013E-09
 Gln      Conc. = 3.31E-09
   4.32307E-09  5.02117E-09  5.68985E-09  6.18043E-09  6.45841E-09  6.51587E-09  6.36721E-09  6.02550E-09  5.60688E-09  5.31236E-09
   4.75628E-09  3.99360E-09  3.68373E-09  3.18087E-09  2.89631E-09  2.76793E-09  2.70144E-09  2.66560E-09  2.64750E-09  2.64070E-09
   2.64164E-09  2.64816E-09  2.65874E-09  2.67247E-09  2.68909E-09  2.70842E-09  2.72920E-09  2.75154E-09  2.77570E-09  2.80091E-09
   2.82718E-09  2.85455E-09  2.88304E-09  2.91271E-09  2.94362E-09  2.97586E-09  3.00955E-09  3.04482E-09  3.08183E-09  3.12083E-09
   3.16226E-09  3.20654E-09  3.25438E-09  3.30647E-09  3.36340E-09  3.42619E-09  3.49627E-09  3.57490E-09  3.66598E-09  3.77574E-09
   3.90894E-09  4.07613E-09  4.29936E-09  4.62421E-09  5.16572E-09  6.07685E-09  7.03422E-09  7.87105E-09  8.81925E-09  9.78276E-09
   1.04318E-08  1.07190E-08  1.06895E-08  1.04474E-08  9.91606E-09  9.04406E-09  8.12895E-09  7.60682E-09  6.75905E-09  5.75826E-09
   5.45976E-09  5.55306E-09  5.73550E-09  6.25067E-09  6.89572E-09  7.71676E-09  8.51507E-09  9.17470E-09  9.61989E-09  9.85907E-09
   9.95081E-09  9.85322E-09  9.30535E-09  8.70543E-09  8.29818E-09  7.56514E-09  6.72297E-09  6.33161E-09  5.84239E-09  5.39302E-09
   5.13112E-09  4.96028E-09  4.84244E-09  4.75793E-09  4.69204E-09  4.63967E-09  4.59823E-09  4.56447E-09  4.53659E-09  4.51368E-09
   4.49413E-09  4.47654E-09  4.46048E-09  4.44559E-09  4.43164E-09  4.41845E-09  4.40540E-09  4.39228E-09  4.37891E-09  4.36511E-09
   4.35074E-09  4.33566E-09  4.31976E-09  4.30293E-09  4.28507E-09  4.26609E-09  4.24591E-09  4.22446E-09  4.20166E-09  4.17746E-09
   4.15178E-09  4.12458E-09  4.09581E-09  4.06551E-09  4.03369E-09  4.00037E-09  3.96557E-09  3.92933E-09  3.89168E-09  3.85264E-09
   3.81225E-09  3.77053E-09  3.72752E-09  3.68325E-09  3.63777E-09  3.59109E-09  3.54327E-09  3.49433E-09  3.44433E-09  3.39329E-09
   3.34127E-09  3.28831E-09  3.23444E-09  3.17973E-09  3.12421E-09  3.06794E-09  3.01098E-09  2.95338E-09  2.89522E-09  2.83657E-09
   2.77751E-09  2.71813E-09  2.65854E-09  2.59890E-09  2.53934E-09  2.48008E-09  2.42141E-09  2.36366E-09  2.30735E-09  2.25321E-09
   2.20233E-09  2.15647E-09  2.11862E-09  2.09433E-09  2.09511E-09  2.14946E-09  2.35094E-09  3.17202E-09  4.84851E-09  6.60768E-09
   7.66879E-09  7.77685E-09  7.32434E-09  6.80332E-09  6.45385E-09  6.25256E-09  5.95756E-09  5.06662E-09  3.28653E-09  1.71779E-09
   1.25970E-09  1.03582E-09  8.87986E-10  7.73742E-10  6.77284E-10  5.91460E-10  5.12567E-10  4.38505E-10  3.68009E-10  3.00269E-10
   2.34735E-10  1.71053E-10  1.08946E-10  4.82423E-11 -1.12078E-11 -6.95121E-11 -1.26732E-10 -1.82930E-10 -2.38156E-10 -2.92434E-10
  -3.45792E-10 -3.98259E-10 -4.49837E-10 -5.00534E-10 -5.50364E-10 -5.99328E-10 -6.47430E-10 -6.94653E-10 -7.41020E-10 -7.86518E-10
  -8.31144E-10 -8.74885E-10 -9.17744E-10 -9.59708E-10 -1.00079E-09 -1.04096E-09 -1.08022E-09 -1.11856E-09 -1.15598E-09 -1.19246E-09
  -1.22800E-09 -1.26258E-09 -1.29620E-09 -1.32886E-09 -1.36055E-09 -1.39124E-09 -1.42094E-09 -1.44964E-09 -1.47731E-09 -1.50396E-09
