 LCModel (Version 6.3-1R) Copyright: S.W. Provencher.          Ref.: Magn. Reson. Med. 30:672-679 (1993).                
 onepulse 16x14_ftSpec_smooth_lcm
 26 lines in following concentration table = NCONC+1
    Conc.  %SD /Cr+PCr  Metabolite                                         
    0.000 999%   0.000 Ala                                                 
    0.000 999%   0.000 Asp                                                 
 1.02E-10 309%   1.000 Cr                                                  
 1.41E-09  54%  13.935 GABA                                                
 7.99E-10  65%   7.867 Glc                                                 
 1.47E-09  45%  14.475 Gln                                                 
 1.67E-10 491%   1.645 Glu                                                 
 6.71E-10 172%   6.610 Glyc                                                
    0.000 999%   0.000 GPC                                                 
    0.000 999%   0.000 GSH                                                 
 1.16E-11 999%   0.114 Ins                                                 
    0.000 999%   0.000 Lac                                                 
    0.000 999%   0.000 NAAG                                                
 7.73E-10  29%   7.613 NAA                                                 
    0.000 999%   0.000 PCh                                                 
    0.000 999%   0.000 PCr                                                 
 1.61E-09  28%  15.906 PE                                                  
 6.06E-11 217%   0.597 Scyllo                                              
 2.80E-10 221%   2.754 Ser                                                 
    0.000 999%   0.000 Tau                                                 
    0.000 999%   0.000 GPC+PCh                                             
 7.73E-10  29%   7.613 NAA+NAAG                                            
 6.83E-10  49%   6.725 Ins+Glyc                                            
 1.02E-10 309%   1.000 Cr+PCr                                              
 1.64E-09  35%  16.119 Glu+Gln                                             
   6 lines in following misc. output table
  FWHM = 0.078 ppm    S/N =   4                                            
  Data shift = 0.358 ppm                                                   
  Ph:  20 deg      -6.8 deg/ppm                                            
  alphaB,S = 1.8E-01,   2.3E+01                                            
   12 spline knots.   Ns = 5(1)                                            
  (10) 4 infls.   ( 9) 3 extrs.                                            
  363 points on ppm-axis = NY
      4.250000     4.238821     4.227641     4.216462     4.205282     4.194103     4.182923     4.171744     4.160564     4.149385
      4.138206     4.127026     4.115847     4.104667     4.093488     4.082308     4.071129     4.059949     4.048770     4.037591
      4.026411     4.015232     4.004052     3.992873     3.981693     3.970514     3.959334     3.948155     3.936975     3.925796
      3.914617     3.903437     3.892258     3.881078     3.869899     3.858719     3.847540     3.836360     3.825181     3.814002
      3.802822     3.791643     3.780463     3.769284     3.758104     3.746925     3.735745     3.724566     3.713387     3.702207
      3.691028     3.679848     3.668669     3.657489     3.646310     3.635130     3.623951     3.612772     3.601592     3.590413
      3.579233     3.568054     3.556874     3.545695     3.534515     3.523336     3.512156     3.500977     3.489798     3.478618
      3.467439     3.456259     3.445080     3.433900     3.422721     3.411541     3.400362     3.389183     3.378003     3.366824
      3.355644     3.344465     3.333285     3.322106     3.310926     3.299747     3.288568     3.277388     3.266209     3.255029
      3.243850     3.232670     3.221491     3.210311     3.199132     3.187953     3.176773     3.165594     3.154414     3.143235
      3.132055     3.120876     3.109696     3.098517     3.087337     3.076158     3.064979     3.053799     3.042620     3.031440
      3.020261     3.009081     2.997902     2.986722     2.975543     2.964364     2.953184     2.942005     2.930825     2.919646
      2.908466     2.897287     2.886107     2.874928     2.863749     2.852569     2.841390     2.830210     2.819031     2.807851
      2.796672     2.785492     2.774313     2.763134     2.751954     2.740775     2.729595     2.718416     2.707236     2.696057
      2.684877     2.673698     2.662519     2.651339     2.640160     2.628980     2.617801     2.606621     2.595442     2.584262
      2.573083     2.561903     2.550724     2.539545     2.528365     2.517186     2.506006     2.494827     2.483647     2.472468
      2.461288     2.450109     2.438930     2.427750     2.416571     2.405391     2.394212     2.383032     2.371853     2.360673
      2.349494     2.338315     2.327135     2.315956     2.304776     2.293597     2.282417     2.271238     2.260058     2.248879
      2.237700     2.226520     2.215341     2.204161     2.192982     2.181802     2.170623     2.159443     2.148264     2.137084
      2.125905     2.114726     2.103546     2.092367     2.081187     2.070008     2.058828     2.047649     2.036469     2.025290
      2.014111     2.002931     1.991752     1.980572     1.969393     1.958213     1.947034     1.935854     1.924675     1.913496
      1.902316     1.891137     1.879957     1.868778     1.857598     1.846419     1.835239     1.824060     1.812881     1.801701
      1.790522     1.779342     1.768163     1.756983     1.745804     1.734624     1.723445     1.712265     1.701086     1.689907
      1.678727     1.667548     1.656368     1.645189     1.634009     1.622830     1.611650     1.600471     1.589292     1.578112
      1.566933     1.555753     1.544574     1.533394     1.522215     1.511035     1.499856     1.488677     1.477497     1.466318
      1.455138     1.443959     1.432779     1.421600     1.410420     1.399241     1.388062     1.376882     1.365703     1.354523
      1.343344     1.332164     1.320985     1.309805     1.298626     1.287446     1.276267     1.265088     1.253908     1.242729
      1.231549     1.220370     1.209190     1.198011     1.186831     1.175652     1.164473     1.153293     1.142114     1.130934
      1.119755     1.108575     1.097396     1.086216     1.075037     1.063858     1.052678     1.041499     1.030319     1.019140
      1.007960     0.996781     0.985601     0.974422     0.963243     0.952063     0.940884     0.929704     0.918525     0.907345
      0.896166     0.884986     0.873807     0.862628     0.851448     0.840269     0.829089     0.817910     0.806730     0.795551
      0.784371     0.773192     0.762012     0.750833     0.739654     0.728474     0.717295     0.706115     0.694936     0.683756
      0.672577     0.661397     0.650218     0.639039     0.627859     0.616680     0.605500     0.594321     0.583141     0.571962
      0.560782     0.549603     0.538424     0.527244     0.516065     0.504885     0.493706     0.482526     0.471347     0.460167
      0.448988     0.437809     0.426629     0.415450     0.404270     0.393091     0.381911     0.370732     0.359552     0.348373
      0.337193     0.326014     0.314835     0.303655     0.292476     0.281296     0.270117     0.258937     0.247758     0.236578
      0.225399     0.214220     0.203040
 NY phased data points follow
   5.26278E-09  8.55930E-09  8.77843E-09  8.57019E-09  7.67229E-09  8.04201E-09  7.24414E-09  6.80067E-09  5.98049E-09  6.91093E-09
   5.95241E-09  6.75268E-09  6.83503E-09  7.61537E-09  7.23695E-09  8.33039E-09  8.22188E-09  8.24627E-09  7.67238E-09  8.54909E-09
   7.43444E-09  7.44492E-09  6.97423E-09  7.84816E-09  8.21803E-09  9.85176E-09  8.98929E-09  9.20011E-09  8.09822E-09  8.10328E-09
   8.28330E-09  1.04426E-08  1.14939E-08  1.29563E-08  1.27663E-08  1.33195E-08  1.11916E-08  1.12076E-08  1.04023E-08  1.10262E-08
   9.73915E-09  1.02796E-08  9.21623E-09  9.36849E-09  9.03746E-09  9.57581E-09  7.84890E-09  7.71798E-09  6.51851E-09  7.90204E-09
   7.44759E-09  8.03524E-09  6.97544E-09  7.38221E-09  6.18177E-09  6.38732E-09  5.24828E-09  4.88505E-09  4.27734E-09  4.10364E-09
   3.28931E-09  4.46605E-09  7.75362E-09  1.24238E-08  1.37676E-08  1.35407E-08  1.20364E-08  1.23935E-08  1.08789E-08  1.10904E-08
   9.43650E-09  9.41939E-09  8.64725E-09  8.16829E-09  6.76144E-09  5.86713E-09  4.16901E-09  5.23984E-09  5.90791E-09  1.05726E-08
   1.33907E-08  1.51749E-08  1.44812E-08  1.44684E-08  1.33666E-08  1.35793E-08  1.24504E-08  1.26884E-08  1.23238E-08  1.26407E-08
   1.18773E-08  1.17700E-08  1.14388E-08  1.08635E-08  9.86961E-09  1.04424E-08  9.33721E-09  9.22409E-09  8.29101E-09  8.68753E-09
   7.64817E-09  8.16537E-09  7.95189E-09  8.15929E-09  7.60171E-09  7.90072E-09  7.39163E-09  7.59432E-09  6.88882E-09  5.74166E-09
   5.57980E-09  4.96781E-09  5.12436E-09  6.58233E-09  5.77718E-09  5.70491E-09  5.96562E-09  6.64684E-09  6.17854E-09  6.52474E-09
   7.27478E-09  7.65597E-09  6.12703E-09  5.87753E-09  5.06997E-09  4.97467E-09  3.94112E-09  4.70252E-09  4.77219E-09  4.84713E-09
   4.36357E-09  4.89349E-09  4.89584E-09  4.84004E-09  4.54514E-09  4.71520E-09  4.28679E-09  3.75804E-09  3.87211E-09  4.95186E-09
   6.01226E-09  6.46693E-09  5.87789E-09  5.83836E-09  5.71153E-09  6.60902E-09  6.30159E-09  7.03891E-09  6.61235E-09  6.57001E-09
   6.08300E-09  6.03828E-09  5.48203E-09  5.81579E-09  5.67113E-09  5.73029E-09  5.12999E-09  5.55204E-09  5.27755E-09  5.63802E-09
   5.80572E-09  5.61310E-09  4.88385E-09  4.85133E-09  4.17422E-09  3.56315E-09  3.56611E-09  4.86634E-09  4.71221E-09  6.92731E-09
   1.29040E-08  1.76808E-08  1.67961E-08  1.51004E-08  1.27879E-08  1.19544E-08  1.03850E-08  9.39460E-09  7.57289E-09  6.85087E-09
   5.62967E-09  4.66880E-09  4.01826E-09  2.80875E-09  6.31492E-10 -8.24021E-11 -1.50736E-09 -3.24701E-09 -4.97983E-09 -6.84643E-09
  -8.78016E-09 -9.47605E-09 -1.07904E-08 -1.20605E-08 -1.36070E-08 -1.35592E-08 -1.38213E-08 -1.40276E-08 -1.47122E-08 -1.35096E-08
  -1.25255E-08 -1.11187E-08 -1.04793E-08 -8.86012E-09 -7.40538E-09 -6.30086E-09 -5.62114E-09 -4.09806E-09 -3.20188E-09 -2.79313E-09
  -1.91558E-09 -1.70316E-09 -2.40710E-09 -1.88014E-09 -1.62699E-09 -2.52084E-09 -2.36051E-09 -1.73894E-09 -2.51429E-09 -2.41615E-09
  -1.71249E-09 -1.28451E-09 -1.56002E-09 -1.38763E-09 -5.95540E-10 -1.81512E-09 -1.87735E-09 -1.89084E-09 -1.99879E-09 -1.36541E-09
  -1.67758E-09 -1.53583E-09 -1.29830E-09 -1.08398E-09 -8.38254E-10 -8.83382E-10 -1.31822E-09 -8.58574E-10 -1.67263E-09 -1.76015E-09
  -2.29969E-09 -7.64380E-10 -1.11679E-09 -1.36982E-09 -1.38664E-09 -2.59105E-10 -7.96920E-10 -1.83706E-10 -8.90229E-10 -9.01019E-10
  -1.03803E-10 -5.32519E-10 -5.63220E-10  2.23330E-10 -7.08025E-10 -6.40758E-10 -1.34787E-09 -1.13661E-09 -8.73722E-10 -1.42589E-09
  -2.21922E-09 -1.81511E-09 -1.45771E-09 -1.58281E-09 -1.08874E-09 -9.00623E-10 -7.45504E-10  1.18218E-10 -2.76154E-10  4.89819E-10
   9.20414E-10  9.39929E-10  4.96325E-10  4.03923E-10  7.50367E-10  7.13359E-10  5.33364E-10  9.99762E-11  3.29927E-11  5.50214E-11
   4.86704E-10 -4.03964E-10 -9.29612E-10 -5.25753E-10 -4.97639E-10 -5.28629E-11 -1.04043E-09 -1.59658E-09 -9.76352E-10 -3.83660E-10
  -1.15030E-09 -1.15603E-09 -9.32233E-10 -4.90805E-10 -1.48084E-09 -9.67535E-10 -1.11252E-09 -5.92968E-10 -1.35442E-09 -5.14609E-10
  -1.38990E-09 -1.18893E-09 -9.65019E-10 -5.06533E-10 -1.19752E-09 -1.17121E-09 -5.63334E-10 -3.06175E-10 -4.95233E-10 -4.11501E-10
  -8.44602E-10 -4.59639E-10 -6.18379E-10 -1.72663E-10 -5.66841E-10 -5.24656E-11 -3.36676E-10  2.15690E-11 -1.05823E-10 -1.36631E-10
  -1.59798E-11 -4.50798E-11  2.39258E-10 -4.96294E-11  6.23294E-10  7.35660E-10  3.95667E-10  3.28146E-10  3.01463E-10  1.03575E-09
   7.24232E-10  7.53699E-11  1.32752E-09  5.55126E-10  7.28440E-10  7.79693E-10  1.09648E-09  7.33464E-10  1.22151E-09  1.43062E-09
   1.02649E-09  1.38411E-09  1.39694E-09  1.66786E-09  1.88653E-09  1.77732E-09  1.36299E-09  1.62759E-09  2.46502E-09  2.10937E-09
   1.18433E-09  2.17939E-09  2.00280E-09  2.27632E-09  1.83321E-09  2.61229E-09  2.23898E-09  1.99837E-09  1.94006E-09  2.61937E-09
   2.36597E-09  2.90837E-09  1.83297E-09
 NY points of the fit to the data follow
   7.08179E-09  7.32631E-09  7.36294E-09  7.52156E-09  7.62498E-09  7.71730E-09  7.62555E-09  7.41857E-09  7.05087E-09  6.64341E-09
   6.45141E-09  6.39764E-09  6.85992E-09  7.27784E-09  7.45521E-09  7.48828E-09  7.64148E-09  8.09194E-09  8.50122E-09  8.31658E-09
   7.77013E-09  7.53911E-09  7.46073E-09  7.50850E-09  7.64127E-09  7.85733E-09  8.36116E-09  9.01440E-09  9.58755E-09  1.00439E-08
   1.05410E-08  1.09069E-08  1.10683E-08  1.09533E-08  1.09129E-08  1.09926E-08  1.12399E-08  1.11297E-08  1.09812E-08  1.07494E-08
   1.04685E-08  1.04131E-08  9.97878E-09  8.97607E-09  8.49046E-09  8.23776E-09  7.76689E-09  7.40094E-09  7.09754E-09  6.81160E-09
   6.55862E-09  6.38021E-09  6.28509E-09  6.22379E-09  6.16677E-09  6.16847E-09  6.22853E-09  6.43239E-09  6.80604E-09  7.26918E-09
   7.78666E-09  8.39080E-09  8.99470E-09  9.49299E-09  1.00089E-08  1.04502E-08  1.07064E-08  1.09895E-08  1.10682E-08  1.06417E-08
   1.03126E-08  1.00061E-08  9.41243E-09  8.90668E-09  8.70065E-09  8.25350E-09  7.91964E-09  8.20653E-09  8.81635E-09  9.93121E-09
   1.16414E-08  1.33526E-08  1.42879E-08  1.44614E-08  1.44011E-08  1.43231E-08  1.41626E-08  1.36186E-08  1.21015E-08  1.11555E-08
   1.06678E-08  1.03942E-08  1.02737E-08  9.93545E-09  9.53818E-09  9.40219E-09  9.11504E-09  8.70292E-09  8.46139E-09  8.23934E-09
   8.00141E-09  7.80596E-09  7.64306E-09  7.50387E-09  7.38263E-09  7.27510E-09  7.17825E-09  7.08994E-09  7.00863E-09  6.93325E-09
   6.86271E-09  6.79602E-09  6.73251E-09  6.67156E-09  6.61272E-09  6.55570E-09  6.50003E-09  6.44534E-09  6.39128E-09  6.33762E-09
   6.28406E-09  6.23045E-09  6.17654E-09  6.12212E-09  6.06699E-09  6.01097E-09  5.95388E-09  5.89555E-09  5.83583E-09  5.77459E-09
   5.71165E-09  5.64689E-09  5.58017E-09  5.51136E-09  5.44033E-09  5.36696E-09  5.29115E-09  5.21276E-09  5.13167E-09  5.04780E-09
   4.96101E-09  4.87123E-09  4.77836E-09  4.68228E-09  4.58291E-09  4.48017E-09  4.37397E-09  4.26425E-09  4.15096E-09  4.03402E-09
   3.91338E-09  3.78905E-09  3.66103E-09  3.52933E-09  3.39405E-09  3.25532E-09  3.11340E-09  2.96861E-09  2.82155E-09  2.67310E-09
   2.52477E-09  2.37889E-09  2.23982E-09  2.11593E-09  2.02466E-09  2.01049E-09  2.24020E-09  3.25467E-09  5.43155E-09  9.09915E-09
   1.34851E-08  1.66125E-08  1.71811E-08  1.58599E-08  1.41988E-08  1.29843E-08  1.13440E-08  7.72225E-09  2.65117E-09  4.91921E-10
  -3.40137E-10 -8.38964E-10 -1.20869E-09 -1.51364E-09 -1.78029E-09 -2.02144E-09 -2.24392E-09 -2.45163E-09 -2.64691E-09 -2.83115E-09
  -3.00519E-09 -3.16951E-09 -3.32437E-09 -3.46986E-09 -3.60594E-09 -3.73249E-09 -3.84939E-09 -3.95637E-09 -4.05324E-09 -4.13973E-09
  -4.21553E-09 -4.28037E-09 -4.33401E-09 -4.37674E-09 -4.40896E-09 -4.43111E-09 -4.44358E-09 -4.44679E-09 -4.44115E-09 -4.42706E-09
  -4.40492E-09 -4.37512E-09 -4.33807E-09 -4.29416E-09 -4.24377E-09 -4.18730E-09 -4.12515E-09 -4.05768E-09 -3.98531E-09 -3.90839E-09
  -3.82733E-09 -3.74250E-09 -3.65428E-09 -3.56306E-09 -3.46919E-09 -3.37307E-09 -3.27504E-09 -3.17552E-09 -3.07483E-09 -2.97336E-09
  -2.87148E-09 -2.76953E-09 -2.66789E-09 -2.56689E-09 -2.46692E-09 -2.36829E-09 -2.27139E-09 -2.17652E-09 -2.08407E-09 -1.99434E-09
  -1.90769E-09 -1.82443E-09 -1.74489E-09 -1.66911E-09 -1.59699E-09 -1.52841E-09 -1.46327E-09 -1.40144E-09 -1.34282E-09 -1.28730E-09
  -1.23477E-09 -1.18513E-09 -1.13823E-09 -1.09400E-09 -1.05232E-09 -1.01309E-09 -9.76177E-10 -9.41487E-10 -9.08921E-10 -8.78353E-10
  -8.49709E-10 -8.22852E-10 -7.97681E-10 -7.74119E-10 -7.52030E-10 -7.31328E-10 -7.11902E-10 -6.93672E-10 -6.76520E-10 -6.60348E-10
  -6.45064E-10 -6.30561E-10 -6.16753E-10 -6.03552E-10 -5.90853E-10 -5.78549E-10 -5.66577E-10 -5.54825E-10 -5.43211E-10 -5.31644E-10
  -5.20057E-10 -5.08330E-10 -4.96407E-10 -4.84219E-10 -4.71740E-10 -4.58945E-10 -4.45808E-10 -4.32306E-10 -4.18414E-10 -4.04110E-10
  -3.89370E-10 -3.74171E-10 -3.58494E-10 -3.42316E-10 -3.25619E-10 -3.08381E-10 -2.90585E-10 -2.72210E-10 -2.53239E-10 -2.33655E-10
  -2.13443E-10 -1.92586E-10 -1.71068E-10 -1.48875E-10 -1.25995E-10 -1.02412E-10 -7.81170E-11 -5.30947E-11 -2.73372E-11 -8.33333E-13
   2.64263E-11  5.44521E-11  8.32486E-11  1.12825E-10  1.43190E-10  1.74342E-10  2.06293E-10  2.39045E-10  2.72599E-10  3.06960E-10
   3.42129E-10  3.78108E-10  4.14894E-10  4.52468E-10  4.90768E-10  5.29728E-10  5.69283E-10  6.09367E-10  6.49917E-10  6.90869E-10
   7.32161E-10  7.73733E-10  8.15522E-10  8.57471E-10  8.99518E-10  9.41606E-10  9.83679E-10  1.02568E-09  1.06756E-09  1.10925E-09
   1.15071E-09  1.19188E-09  1.23271E-09  1.27316E-09  1.31317E-09  1.35269E-09  1.39167E-09  1.43008E-09  1.46786E-09  1.50498E-09
   1.54138E-09  1.57703E-09  1.61189E-09  1.64590E-09  1.67905E-09  1.71129E-09  1.74258E-09  1.77289E-09  1.80219E-09  1.83043E-09
   1.85760E-09  1.88366E-09  1.90858E-09
 NY background values follow
     4.837E-09    4.852E-09    4.867E-09    4.881E-09    4.895E-09    4.907E-09    4.919E-09    4.930E-09    4.941E-09    4.950E-09
     4.960E-09    4.968E-09    4.976E-09    4.983E-09    4.990E-09    4.996E-09    5.001E-09    5.006E-09    5.010E-09    5.014E-09
     5.017E-09    5.020E-09    5.022E-09    5.023E-09    5.025E-09    5.025E-09    5.025E-09    5.025E-09    5.025E-09    5.023E-09
     5.022E-09    5.020E-09    5.018E-09    5.015E-09    5.012E-09    5.009E-09    5.006E-09    5.002E-09    4.998E-09    4.994E-09
     4.989E-09    4.985E-09    4.980E-09    4.975E-09    4.970E-09    4.965E-09    4.959E-09    4.954E-09    4.948E-09    4.943E-09
     4.937E-09    4.931E-09    4.926E-09    4.920E-09    4.915E-09    4.910E-09    4.904E-09    4.899E-09    4.894E-09    4.889E-09
     4.884E-09    4.880E-09    4.876E-09    4.872E-09    4.868E-09    4.865E-09    4.862E-09    4.859E-09    4.856E-09    4.854E-09
     4.853E-09    4.852E-09    4.851E-09    4.851E-09    4.851E-09    4.852E-09    4.853E-09    4.855E-09    4.857E-09    4.860E-09
     4.864E-09    4.868E-09    4.873E-09    4.879E-09    4.885E-09    4.892E-09    4.899E-09    4.906E-09    4.914E-09    4.922E-09
     4.930E-09    4.939E-09    4.947E-09    4.956E-09    4.964E-09    4.973E-09    4.981E-09    4.989E-09    4.997E-09    5.005E-09
     5.012E-09    5.019E-09    5.025E-09    5.030E-09    5.035E-09    5.039E-09    5.043E-09    5.046E-09    5.047E-09    5.048E-09
     5.048E-09    5.046E-09    5.043E-09    5.039E-09    5.034E-09    5.027E-09    5.019E-09    5.009E-09    4.998E-09    4.985E-09
     4.970E-09    4.953E-09    4.934E-09    4.914E-09    4.891E-09    4.866E-09    4.839E-09    4.809E-09    4.777E-09    4.743E-09
     4.706E-09    4.666E-09    4.623E-09    4.578E-09    4.529E-09    4.478E-09    4.423E-09    4.365E-09    4.304E-09    4.240E-09
     4.172E-09    4.100E-09    4.025E-09    3.946E-09    3.863E-09    3.777E-09    3.686E-09    3.592E-09    3.493E-09    3.390E-09
     3.283E-09    3.171E-09    3.055E-09    2.934E-09    2.809E-09    2.679E-09    2.544E-09    2.404E-09    2.259E-09    2.110E-09
     1.955E-09    1.795E-09    1.630E-09    1.460E-09    1.285E-09    1.107E-09    9.250E-10    7.398E-10    5.519E-10    3.615E-10
     1.691E-10   -2.485E-11   -2.200E-10   -4.159E-10   -6.122E-10   -8.085E-10   -1.004E-09   -1.199E-09   -1.393E-09   -1.585E-09
    -1.775E-09   -1.962E-09   -2.147E-09   -2.328E-09   -2.506E-09   -2.679E-09   -2.848E-09   -3.012E-09   -3.170E-09   -3.323E-09
    -3.470E-09   -3.610E-09   -3.744E-09   -3.870E-09   -3.988E-09   -4.098E-09   -4.200E-09   -4.293E-09   -4.377E-09   -4.451E-09
    -4.515E-09   -4.568E-09   -4.611E-09   -4.644E-09   -4.666E-09   -4.679E-09   -4.682E-09   -4.677E-09   -4.663E-09   -4.641E-09
    -4.610E-09   -4.573E-09   -4.528E-09   -4.477E-09   -4.420E-09   -4.356E-09   -4.287E-09   -4.213E-09   -4.134E-09   -4.051E-09
    -3.964E-09   -3.873E-09   -3.778E-09   -3.681E-09   -3.582E-09   -3.480E-09   -3.376E-09   -3.271E-09   -3.165E-09   -3.058E-09
    -2.951E-09   -2.844E-09   -2.737E-09   -2.631E-09   -2.526E-09   -2.423E-09   -2.321E-09   -2.221E-09   -2.124E-09   -2.030E-09
    -1.939E-09   -1.851E-09   -1.767E-09   -1.687E-09   -1.610E-09   -1.538E-09   -1.468E-09   -1.402E-09   -1.339E-09   -1.280E-09
    -1.223E-09   -1.170E-09   -1.119E-09   -1.071E-09   -1.025E-09   -9.822E-10   -9.415E-10   -9.031E-10   -8.668E-10   -8.326E-10
    -8.004E-10   -7.699E-10   -7.412E-10   -7.142E-10   -6.886E-10   -6.645E-10   -6.416E-10   -6.201E-10   -5.996E-10   -5.801E-10
    -5.616E-10   -5.438E-10   -5.268E-10   -5.104E-10   -4.946E-10   -4.792E-10   -4.641E-10   -4.493E-10   -4.347E-10   -4.201E-10
    -4.055E-10   -3.909E-10   -3.760E-10   -3.609E-10   -3.456E-10   -3.299E-10   -3.140E-10   -2.977E-10   -2.810E-10   -2.640E-10
    -2.465E-10   -2.286E-10   -2.103E-10   -1.914E-10   -1.721E-10   -1.523E-10   -1.319E-10   -1.109E-10   -8.944E-11   -6.733E-11
    -4.462E-11   -2.128E-11    2.697E-12    2.733E-11    5.263E-11    7.861E-11    1.053E-10    1.327E-10    1.608E-10    1.896E-10
     2.192E-10    2.495E-10    2.805E-10    3.124E-10    3.450E-10    3.783E-10    4.125E-10    4.474E-10    4.831E-10    5.196E-10
     5.569E-10    5.950E-10    6.339E-10    6.735E-10    7.139E-10    7.549E-10    7.965E-10    8.386E-10    8.811E-10    9.241E-10
     9.673E-10    1.011E-09    1.055E-09    1.098E-09    1.142E-09    1.186E-09    1.230E-09    1.274E-09    1.318E-09    1.361E-09
     1.405E-09    1.448E-09    1.490E-09    1.533E-09    1.574E-09    1.616E-09    1.656E-09    1.696E-09    1.736E-09    1.775E-09
     1.813E-09    1.850E-09    1.887E-09    1.922E-09    1.957E-09    1.991E-09    2.024E-09    2.056E-09    2.087E-09    2.116E-09
     2.145E-09    2.173E-09    2.199E-09
 Cr       Conc. = 1.02E-10
   5.15108E-09  5.20735E-09  5.21793E-09  5.12707E-09  5.06245E-09  5.03210E-09  5.01586E-09  5.00664E-09  5.00131E-09  4.99827E-09
   4.99658E-09  4.99567E-09  4.99515E-09  4.99475E-09  4.99425E-09  4.99353E-09  4.99244E-09  4.99089E-09  4.98878E-09  4.98600E-09
   4.98249E-09  4.97810E-09  4.97273E-09  4.96623E-09  4.95841E-09  4.94897E-09  4.93759E-09  4.92374E-09  4.90665E-09  4.88517E-09
   4.85778E-09  4.82851E-09  4.82311E-09  4.86741E-09  4.99885E-09  5.20556E-09  5.40424E-09  5.51952E-09  5.55622E-09  5.57081E-09
   5.60423E-09  5.62230E-09  5.53461E-09  5.34233E-09  5.25022E-09  5.19561E-09  5.15753E-09  5.12841E-09  5.10478E-09  5.08483E-09
   5.06746E-09  5.05204E-09  5.03809E-09  5.02535E-09  5.01358E-09  5.00262E-09  4.99239E-09  4.98279E-09  4.97376E-09  4.96526E-09
   4.95727E-09  4.94976E-09  4.94272E-09  4.93615E-09  4.93004E-09  4.92438E-09  4.91920E-09  4.91448E-09  4.91025E-09  4.90652E-09
   4.90328E-09  4.90057E-09  4.89839E-09  4.89677E-09  4.89571E-09  4.89522E-09  4.89534E-09  4.89611E-09  4.89748E-09  4.89952E-09
   4.90224E-09  4.90567E-09  4.90978E-09  4.91451E-09  4.91981E-09  4.92563E-09  4.93192E-09  4.93862E-09  4.94567E-09  4.95302E-09
   4.96062E-09  4.96839E-09  4.97628E-09  4.98425E-09  4.99221E-09  5.00011E-09  5.00789E-09  5.01549E-09  5.02284E-09  5.02988E-09
   5.03654E-09  5.04276E-09  5.04849E-09  5.05363E-09  5.05814E-09  5.06194E-09  5.06497E-09  5.06715E-09  5.06842E-09  5.06871E-09
   5.06795E-09  5.06607E-09  5.06299E-09  5.05865E-09  5.05298E-09  5.04590E-09  5.03735E-09  5.02725E-09  5.01551E-09  5.00210E-09
   4.98689E-09  4.96985E-09  4.95090E-09  4.92994E-09  4.90688E-09  4.88166E-09  4.85417E-09  4.82433E-09  4.79206E-09  4.75728E-09
   4.71988E-09  4.67980E-09  4.63693E-09  4.59121E-09  4.54253E-09  4.49081E-09  4.43599E-09  4.37794E-09  4.31659E-09  4.25188E-09
   4.18369E-09  4.11195E-09  4.03658E-09  3.95749E-09  3.87459E-09  3.78780E-09  3.69704E-09  3.60221E-09  3.50327E-09  3.40009E-09
   3.29259E-09  3.18073E-09  3.06440E-09  2.94352E-09  2.81802E-09  2.68782E-09  2.55286E-09  2.41304E-09  2.26830E-09  2.11857E-09
   1.96384E-09  1.80400E-09  1.63919E-09  1.46985E-09  1.29664E-09  1.12063E-09  9.44952E-10  7.78531E-10  6.26472E-10  4.93718E-10
   3.66676E-10  2.15559E-10  2.52009E-11 -1.89826E-10 -4.06269E-10 -6.15290E-10 -8.32743E-10 -1.08073E-09 -1.34464E-09 -1.55599E-09
  -1.75332E-09 -1.94465E-09 -2.13162E-09 -2.31452E-09 -2.49327E-09 -2.66762E-09 -2.83727E-09 -3.00186E-09 -3.16104E-09 -3.31441E-09
  -3.46160E-09 -3.60222E-09 -3.73589E-09 -3.86223E-09 -3.98083E-09 -4.09131E-09 -4.19332E-09 -4.28642E-09 -4.37027E-09 -4.44450E-09
  -4.50870E-09 -4.56252E-09 -4.60565E-09 -4.63833E-09 -4.66092E-09 -4.67380E-09 -4.67735E-09 -4.67195E-09 -4.65798E-09 -4.63581E-09
  -4.60584E-09 -4.56843E-09 -4.52398E-09 -4.47285E-09 -4.41543E-09 -4.35210E-09 -4.28324E-09 -4.20922E-09 -4.13043E-09 -4.04723E-09
  -3.96002E-09 -3.86916E-09 -3.77502E-09 -3.67798E-09 -3.57841E-09 -3.47668E-09 -3.37315E-09 -3.26821E-09 -3.16220E-09 -3.05548E-09
  -2.94844E-09 -2.84141E-09 -2.73476E-09 -2.62884E-09 -2.52400E-09 -2.42059E-09 -2.31896E-09 -2.21943E-09 -2.12238E-09 -2.02812E-09
  -1.93699E-09 -1.84931E-09 -1.76541E-09 -1.68532E-09 -1.60894E-09 -1.53617E-09 -1.46687E-09 -1.40094E-09 -1.33827E-09 -1.27875E-09
  -1.22226E-09 -1.16870E-09 -1.11793E-09 -1.06987E-09 -1.02440E-09 -9.81432E-10 -9.40817E-10 -9.02464E-10 -8.66274E-10 -8.32119E-10
  -7.99926E-10 -7.69557E-10 -7.40909E-10 -7.13906E-10 -6.88411E-10 -6.64337E-10 -6.41573E-10 -6.20039E-10 -5.99614E-10 -5.80202E-10
  -5.61709E-10 -5.44027E-10 -5.27071E-10 -5.10752E-10 -4.94964E-10 -4.79599E-10 -4.64596E-10 -4.49840E-10 -4.35250E-10 -4.20735E-10
  -4.06226E-10 -3.91603E-10 -3.76812E-10 -3.61780E-10 -3.46483E-10 -3.30894E-10 -3.14988E-10 -2.98742E-10 -2.82129E-10 -2.65128E-10
  -2.47715E-10 -2.29866E-10 -2.11562E-10 -1.92778E-10 -1.73498E-10 -1.53699E-10 -1.33363E-10 -1.12469E-10 -9.10015E-11 -6.89413E-11
  -4.62740E-11 -2.29809E-11  9.52307E-13  2.55402E-11  5.07958E-11  7.67347E-11  1.03367E-10  1.30707E-10  1.58764E-10  1.87548E-10
   2.17070E-10  2.47339E-10  2.78362E-10  3.10146E-10  3.42701E-10  3.76026E-10  4.10133E-10  4.45024E-10  4.80700E-10  5.17166E-10
   5.54423E-10  5.92475E-10  6.31316E-10  6.70930E-10  7.11254E-10  7.52222E-10  7.93768E-10  8.35829E-10  8.78340E-10  9.21238E-10
   9.64462E-10  1.00795E-09  1.05164E-09  1.09547E-09  1.13939E-09  1.18334E-09  1.22725E-09  1.27108E-09  1.31477E-09  1.35827E-09
   1.40151E-09  1.44446E-09  1.48705E-09  1.52924E-09  1.57098E-09  1.61222E-09  1.65291E-09  1.69301E-09  1.73247E-09  1.77125E-09
   1.80931E-09  1.84660E-09  1.88308E-09  1.91872E-09  1.95347E-09  1.98729E-09  2.02016E-09  2.05204E-09  2.08289E-09  2.11268E-09
   2.14137E-09  2.16895E-09  2.19537E-09
 GABA     Conc. = 1.41E-09
   4.30078E-09  4.30753E-09  4.31314E-09  4.31758E-09  4.32084E-09  4.32287E-09  4.32363E-09  4.32310E-09  4.32121E-09  4.31792E-09
   4.31315E-09  4.30685E-09  4.29895E-09  4.28935E-09  4.27796E-09  4.26469E-09  4.24935E-09  4.23181E-09  4.21182E-09  4.18904E-09
   4.16322E-09  4.13409E-09  4.10114E-09  4.06393E-09  4.02206E-09  3.97494E-09  3.92285E-09  3.86737E-09  3.81753E-09  3.82301E-09
   3.91024E-09  4.11711E-09  4.46502E-09  4.84895E-09  5.27684E-09  5.86507E-09  6.51267E-09  7.04773E-09  7.40891E-09  7.56528E-09
   7.56748E-09  7.75428E-09  7.62397E-09  6.98535E-09  6.71520E-09  6.58298E-09  6.17562E-09  5.86450E-09  5.64636E-09  5.48105E-09
   5.34853E-09  5.23765E-09  5.14184E-09  5.05714E-09  4.98064E-09  4.91003E-09  4.84417E-09  4.78242E-09  4.72518E-09  4.67514E-09
   4.63946E-09  4.64926E-09  4.75483E-09  4.98127E-09  5.36161E-09  5.83232E-09  6.29388E-09  6.78516E-09  7.30058E-09  7.69474E-09
   7.87417E-09  7.82941E-09  7.60001E-09  7.40986E-09  7.28710E-09  6.74607E-09  6.21981E-09  6.06632E-09  5.85621E-09  5.60450E-09
   5.45756E-09  5.38202E-09  5.39197E-09  5.47729E-09  5.58448E-09  5.75612E-09  6.02255E-09  6.30597E-09  6.58589E-09  6.84285E-09
   6.99635E-09  7.14596E-09  7.33414E-09  7.23746E-09  7.03528E-09  7.06185E-09  6.91436E-09  6.62324E-09  6.48803E-09  6.36020E-09
   6.20666E-09  6.08764E-09  5.99447E-09  5.91925E-09  5.85696E-09  5.80389E-09  5.75771E-09  5.71672E-09  5.67975E-09  5.64605E-09
   5.61480E-09  5.58525E-09  5.55692E-09  5.52936E-09  5.50230E-09  5.47557E-09  5.44882E-09  5.42178E-09  5.39422E-09  5.36597E-09
   5.33681E-09  5.30668E-09  5.27536E-09  5.24272E-09  5.20860E-09  5.17288E-09  5.13540E-09  5.09604E-09  5.05470E-09  5.01125E-09
   4.96558E-09  4.91756E-09  4.86709E-09  4.81407E-09  4.75837E-09  4.69991E-09  4.63860E-09  4.57431E-09  4.50694E-09  4.43641E-09
   4.36261E-09  4.28545E-09  4.20485E-09  4.12069E-09  4.03289E-09  3.94136E-09  3.84602E-09  3.74676E-09  3.64355E-09  3.53625E-09
   3.42479E-09  3.30912E-09  3.18917E-09  3.06485E-09  2.93613E-09  2.80296E-09  2.66534E-09  2.52324E-09  2.37673E-09  2.22593E-09
   2.07113E-09  1.91272E-09  1.75176E-09  1.59049E-09  1.43360E-09  1.29376E-09  1.22494E-09  1.33383E-09  1.68875E-09  2.31095E-09
   2.96103E-09  3.25365E-09  3.05519E-09  2.59103E-09  2.14338E-09  1.76236E-09  1.19679E-09  2.08202E-10 -8.08326E-10 -1.22217E-09
  -1.50451E-09 -1.74282E-09 -1.95989E-09 -2.16394E-09 -2.35851E-09 -2.54524E-09 -2.72492E-09 -2.89787E-09 -3.06417E-09 -3.22372E-09
  -3.37635E-09 -3.52184E-09 -3.65989E-09 -3.79023E-09 -3.91252E-09 -4.02640E-09 -4.13158E-09 -4.22765E-09 -4.31429E-09 -4.39116E-09
  -4.45786E-09 -4.51406E-09 -4.55946E-09 -4.59432E-09 -4.61900E-09 -4.63389E-09 -4.63937E-09 -4.63584E-09 -4.62367E-09 -4.60326E-09
  -4.57498E-09 -4.53922E-09 -4.49636E-09 -4.44679E-09 -4.39089E-09 -4.32904E-09 -4.26161E-09 -4.18900E-09 -4.11158E-09 -4.02973E-09
  -3.94383E-09 -3.85425E-09 -3.76137E-09 -3.66557E-09 -3.56720E-09 -3.46666E-09 -3.36429E-09 -3.26049E-09 -3.15560E-09 -3.04998E-09
