 LCModel (Version 6.3-1R) Copyright: S.W. Provencher.          Ref.: Magn. Reson. Med. 30:672-679 (1993).                
 onepulse 16x27_ftSpec_smooth_lcm
 26 lines in following concentration table = NCONC+1
    Conc.  %SD /Cr+PCr  Metabolite                                         
    0.000 999%   0.000 Ala                                                 
 1.53E-09  67%   4.983 Asp                                                 
    0.000 999%   0.000 Cr                                                  
 6.38E-10 161%   2.073 GABA                                                
 8.54E-10 160%   2.776 Glc                                                 
 2.24E-09  49%   7.281 Gln                                                 
    0.000 999%   0.000 Glu                                                 
    0.000 999%   0.000 Glyc                                                
    0.000 999%   0.000 GPC                                                 
 6.97E-10 139%   2.266 GSH                                                 
 2.06E-09  35%   6.712 Ins                                                 
    0.000 999%   0.000 Lac                                                 
 6.89E-10  81%   2.240 NAAG                                                
    0.000 999%   0.000 NAA                                                 
    0.000 999%   0.000 PCh                                                 
 3.08E-10 184%   1.000 PCr                                                 
 2.56E-09  50%   8.330 PE                                                  
 2.77E-10 158%   0.899 Scyllo                                              
    0.000 999%   0.000 Ser                                                 
 2.49E-13 999% 8.1E-04 Tau                                                 
    0.000 999%   0.000 GPC+PCh                                             
 6.89E-10  71%   2.240 NAA+NAAG                                            
 2.06E-09  35%   6.712 Ins+Glyc                                            
 3.08E-10 184%   1.000 Cr+PCr                                              
 2.24E-09  49%   7.281 Glu+Gln                                             
   6 lines in following misc. output table
  FWHM = 0.123 ppm    S/N =   3                                            
  Data shift = 0.402 ppm                                                   
  Ph: -17 deg     -34.8 deg/ppm                                            
  alphaB,S = 3.0E-01,   2.6E+01                                            
   10 spline knots.   Ns = 5(1)                                            
  ( 8) 3 infls.   ( 7) 3 extrs.                                            
  363 points on ppm-axis = NY
      4.250000     4.238821     4.227641     4.216462     4.205282     4.194103     4.182923     4.171744     4.160564     4.149385
      4.138206     4.127026     4.115847     4.104667     4.093488     4.082308     4.071129     4.059949     4.048770     4.037591
      4.026411     4.015232     4.004052     3.992873     3.981693     3.970514     3.959334     3.948155     3.936975     3.925796
      3.914617     3.903437     3.892258     3.881078     3.869899     3.858719     3.847540     3.836360     3.825181     3.814002
      3.802822     3.791643     3.780463     3.769284     3.758104     3.746925     3.735745     3.724566     3.713387     3.702207
      3.691028     3.679848     3.668669     3.657489     3.646310     3.635130     3.623951     3.612772     3.601592     3.590413
      3.579233     3.568054     3.556874     3.545695     3.534515     3.523336     3.512156     3.500977     3.489798     3.478618
      3.467439     3.456259     3.445080     3.433900     3.422721     3.411541     3.400362     3.389183     3.378003     3.366824
      3.355644     3.344465     3.333285     3.322106     3.310926     3.299747     3.288568     3.277388     3.266209     3.255029
      3.243850     3.232670     3.221491     3.210311     3.199132     3.187953     3.176773     3.165594     3.154414     3.143235
      3.132055     3.120876     3.109696     3.098517     3.087337     3.076158     3.064979     3.053799     3.042620     3.031440
      3.020261     3.009081     2.997902     2.986722     2.975543     2.964364     2.953184     2.942005     2.930825     2.919646
      2.908466     2.897287     2.886107     2.874928     2.863749     2.852569     2.841390     2.830210     2.819031     2.807851
      2.796672     2.785492     2.774313     2.763134     2.751954     2.740775     2.729595     2.718416     2.707236     2.696057
      2.684877     2.673698     2.662519     2.651339     2.640160     2.628980     2.617801     2.606621     2.595442     2.584262
      2.573083     2.561903     2.550724     2.539545     2.528365     2.517186     2.506006     2.494827     2.483647     2.472468
      2.461288     2.450109     2.438930     2.427750     2.416571     2.405391     2.394212     2.383032     2.371853     2.360673
      2.349494     2.338315     2.327135     2.315956     2.304776     2.293597     2.282417     2.271238     2.260058     2.248879
      2.237700     2.226520     2.215341     2.204161     2.192982     2.181802     2.170623     2.159443     2.148264     2.137084
      2.125905     2.114726     2.103546     2.092367     2.081187     2.070008     2.058828     2.047649     2.036469     2.025290
      2.014111     2.002931     1.991752     1.980572     1.969393     1.958213     1.947034     1.935854     1.924675     1.913496
      1.902316     1.891137     1.879957     1.868778     1.857598     1.846419     1.835239     1.824060     1.812881     1.801701
      1.790522     1.779342     1.768163     1.756983     1.745804     1.734624     1.723445     1.712265     1.701086     1.689907
      1.678727     1.667548     1.656368     1.645189     1.634009     1.622830     1.611650     1.600471     1.589292     1.578112
      1.566933     1.555753     1.544574     1.533394     1.522215     1.511035     1.499856     1.488677     1.477497     1.466318
      1.455138     1.443959     1.432779     1.421600     1.410420     1.399241     1.388062     1.376882     1.365703     1.354523
      1.343344     1.332164     1.320985     1.309805     1.298626     1.287446     1.276267     1.265088     1.253908     1.242729
      1.231549     1.220370     1.209190     1.198011     1.186831     1.175652     1.164473     1.153293     1.142114     1.130934
      1.119755     1.108575     1.097396     1.086216     1.075037     1.063858     1.052678     1.041499     1.030319     1.019140
      1.007960     0.996781     0.985601     0.974422     0.963243     0.952063     0.940884     0.929704     0.918525     0.907345
      0.896166     0.884986     0.873807     0.862628     0.851448     0.840269     0.829089     0.817910     0.806730     0.795551
      0.784371     0.773192     0.762012     0.750833     0.739654     0.728474     0.717295     0.706115     0.694936     0.683756
      0.672577     0.661397     0.650218     0.639039     0.627859     0.616680     0.605500     0.594321     0.583141     0.571962
      0.560782     0.549603     0.538424     0.527244     0.516065     0.504885     0.493706     0.482526     0.471347     0.460167
      0.448988     0.437809     0.426629     0.415450     0.404270     0.393091     0.381911     0.370732     0.359552     0.348373
      0.337193     0.326014     0.314835     0.303655     0.292476     0.281296     0.270117     0.258937     0.247758     0.236578
      0.225399     0.214220     0.203040
 NY phased data points follow
   1.26880E-08  1.31912E-08  1.19696E-08  1.28834E-08  1.20749E-08  1.34990E-08  1.24453E-08  1.38172E-08  1.32252E-08  1.47010E-08
   1.39505E-08  1.41722E-08  1.27481E-08  1.35959E-08  1.25962E-08  1.32524E-08  1.18776E-08  1.22894E-08  1.15273E-08  1.28534E-08
   1.30486E-08  1.38409E-08  1.18473E-08  1.23658E-08  1.11626E-08  1.20999E-08  1.29007E-08  1.45713E-08  1.47564E-08  1.48179E-08
   1.32827E-08  1.23381E-08  1.08179E-08  1.08091E-08  9.75709E-09  1.00270E-08  1.02035E-08  1.02673E-08  9.77575E-09  9.49894E-09
   9.01832E-09  9.26641E-09  8.10510E-09  8.67484E-09  7.76686E-09  8.36432E-09  8.65747E-09  9.07307E-09  8.63929E-09  8.21612E-09
   7.76205E-09  7.53339E-09  7.70357E-09  8.30584E-09  8.11464E-09  8.83605E-09  8.18331E-09  9.70556E-09  1.20540E-08  1.35198E-08
   1.37184E-08  1.27064E-08  1.21449E-08  1.09057E-08  1.00434E-08  9.12827E-09  9.38692E-09  8.56650E-09  8.23828E-09  8.09882E-09
   7.89454E-09  7.73718E-09  7.37669E-09  7.89049E-09  1.18254E-08  1.57538E-08  1.83014E-08  1.82212E-08  1.65965E-08  1.51289E-08
   1.48147E-08  1.38533E-08  1.38043E-08  1.28349E-08  1.27650E-08  1.29136E-08  1.24785E-08  1.15146E-08  1.13724E-08  1.07810E-08
   1.09204E-08  9.55647E-09  1.00022E-08  9.03133E-09  9.26584E-09  8.63296E-09  8.75886E-09  8.34225E-09  9.10357E-09  8.28722E-09
   8.84201E-09  8.18700E-09  8.31341E-09  7.78072E-09  6.69952E-09  6.51076E-09  5.75601E-09  5.26808E-09  6.12238E-09  6.17265E-09
   6.94532E-09  5.93623E-09  6.38538E-09  6.57758E-09  7.09916E-09  6.75736E-09  7.81238E-09  6.80959E-09  6.82366E-09  6.38941E-09
   5.98384E-09  4.84380E-09  5.50459E-09  5.12853E-09  5.68728E-09  5.26766E-09  5.31196E-09  5.14832E-09  6.11216E-09  5.74107E-09
   5.93055E-09  5.75444E-09  5.54108E-09  5.07665E-09  6.14206E-09  6.39247E-09  7.98819E-09  8.65772E-09  9.04642E-09  8.65320E-09
   9.20884E-09  9.20510E-09  1.04646E-08  1.09307E-08  1.11820E-08  1.06937E-08  1.09058E-08  1.04789E-08  1.07583E-08  9.94008E-09
   1.08854E-08  1.02061E-08  1.04979E-08  1.04499E-08  1.02342E-08  9.96050E-09  1.06077E-08  1.07756E-08  1.08117E-08  1.00464E-08
   1.07166E-08  9.72672E-09  1.02379E-08  9.58868E-09  1.00247E-08  1.01149E-08  1.52722E-08  2.02656E-08  2.40250E-08  2.37881E-08
   2.29812E-08  2.25952E-08  2.22856E-08  2.09201E-08  2.10243E-08  2.02507E-08  2.02480E-08  1.94504E-08  1.96975E-08  1.82617E-08
   1.81627E-08  1.69873E-08  1.56414E-08  1.42576E-08  1.30826E-08  1.09296E-08  9.78949E-09  6.45817E-09  4.21294E-09  1.05749E-09
  -2.18386E-09 -5.27628E-09 -7.89375E-09 -1.09796E-08 -1.36003E-08 -1.60171E-08 -1.78425E-08 -1.92520E-08 -1.99479E-08 -2.10158E-08
  -2.02289E-08 -1.94070E-08 -1.78828E-08 -1.61891E-08 -1.36794E-08 -1.21047E-08 -8.93482E-09 -7.25495E-09 -5.37681E-09 -4.04430E-09
  -3.10011E-09 -2.35329E-09 -2.56201E-09 -2.86637E-09 -2.63976E-09 -3.73327E-09 -2.98085E-09 -3.44096E-09 -3.14508E-09 -2.66691E-09
  -1.88353E-09 -1.91997E-09 -1.68580E-09 -2.07708E-09 -1.37342E-09 -2.34854E-09 -1.79857E-09 -2.39580E-09 -2.34244E-09 -2.48633E-09
  -2.08098E-09 -2.40540E-09 -1.67361E-09 -1.39039E-09 -9.21549E-10 -1.82695E-09 -1.42753E-09 -2.07238E-09 -1.78025E-09 -2.03518E-09
  -2.22767E-09 -2.66188E-09 -2.02860E-09 -2.49028E-09 -1.65521E-09 -2.14957E-09 -1.60418E-09 -1.77015E-09 -9.14986E-10 -1.21075E-09
  -1.22597E-09 -1.41072E-09 -4.38218E-10 -1.49940E-09 -1.01323E-09 -1.59982E-09 -1.37485E-09 -1.90953E-09 -2.08258E-09 -2.11690E-09
  -2.45234E-09 -3.16057E-09 -2.47149E-09 -2.87745E-09 -2.42976E-09 -2.76356E-09 -2.31772E-09 -2.19312E-09 -1.26785E-09 -1.91268E-09
  -1.19454E-09 -1.02239E-09 -5.04375E-10 -9.25833E-10 -4.63822E-10 -4.97604E-10 -2.68750E-10 -4.45328E-10 -9.16953E-10 -3.36802E-10
  -5.80449E-10 -1.06123E-09 -2.89394E-10 -1.36416E-09 -1.05724E-09 -1.12111E-09 -1.05519E-09 -1.70247E-09 -8.91247E-10 -1.34910E-09
  -1.61184E-09 -1.77393E-09 -1.39504E-09 -1.75048E-09 -1.90382E-09 -1.69313E-09 -1.75281E-09 -2.12032E-09 -1.66689E-09 -2.26319E-09
  -1.78324E-09 -2.23766E-09 -2.25423E-09 -1.97822E-09 -2.07611E-09 -2.39242E-09 -2.30349E-09 -2.58594E-09 -2.47140E-09 -2.87929E-09
  -2.62547E-09 -3.23541E-09 -2.37161E-09 -2.81287E-09 -2.64267E-09 -3.05098E-09 -2.66701E-09 -2.64964E-09 -2.69904E-09 -3.10327E-09
  -2.48201E-09 -3.25354E-09 -3.10308E-09 -3.15170E-09 -2.62957E-09 -2.74928E-09 -2.43053E-09 -3.38697E-09 -3.34732E-09 -2.79155E-09
  -3.20231E-09 -2.51357E-09 -3.14080E-09 -3.23621E-09 -3.35006E-09 -2.82041E-09 -3.27544E-09 -3.19004E-09 -2.80929E-09 -2.96085E-09
  -3.16079E-09 -2.99216E-09 -3.40287E-09 -3.07542E-09 -3.16243E-09 -3.44847E-09 -3.46572E-09 -3.45153E-09 -3.22103E-09 -3.76671E-09
  -3.33984E-09 -3.50526E-09 -3.46369E-09 -3.25348E-09 -3.33700E-09 -3.72312E-09 -3.72736E-09 -3.28319E-09 -3.33115E-09 -3.43908E-09
  -3.27343E-09 -3.35369E-09 -3.43968E-09
 NY points of the fit to the data follow
   1.39827E-08  1.34496E-08  1.27385E-08  1.21268E-08  1.22272E-08  1.27893E-08  1.29535E-08  1.30484E-08  1.37103E-08  1.41107E-08
   1.38268E-08  1.35608E-08  1.32217E-08  1.33590E-08  1.34348E-08  1.30601E-08  1.28679E-08  1.31146E-08  1.27861E-08  1.15406E-08
   1.09245E-08  1.16204E-08  1.23162E-08  1.28631E-08  1.32411E-08  1.38294E-08  1.43849E-08  1.43060E-08  1.35258E-08  1.28289E-08
   1.25300E-08  1.20596E-08  1.15527E-08  1.13655E-08  1.08630E-08  1.01933E-08  9.59931E-09  9.41768E-09  9.40989E-09  9.30254E-09
   9.10532E-09  8.81018E-09  8.24775E-09  7.80555E-09  7.81839E-09  7.90542E-09  7.79343E-09  7.37420E-09  7.38977E-09  7.66083E-09
   8.10665E-09  8.56462E-09  8.84830E-09  9.05234E-09  9.55530E-09  1.00054E-08  1.03193E-08  1.11515E-08  1.18129E-08  1.17493E-08
   1.16749E-08  1.16787E-08  1.17396E-08  1.16184E-08  1.11617E-08  1.07053E-08  1.04707E-08  1.00376E-08  9.41150E-09  9.40724E-09
   9.80329E-09  1.02617E-08  1.08020E-08  1.12905E-08  1.20296E-08  1.30833E-08  1.45424E-08  1.57114E-08  1.61259E-08  1.60019E-08
   1.56295E-08  1.49924E-08  1.43291E-08  1.40742E-08  1.36860E-08  1.25586E-08  1.10633E-08  9.73258E-09  9.13512E-09  8.81120E-09
   8.56209E-09  8.41021E-09  8.32073E-09  8.15374E-09  7.96908E-09  7.91545E-09  7.80767E-09  7.66099E-09  7.59640E-09  7.52557E-09
   7.47257E-09  7.45614E-09  7.44504E-09  7.44017E-09  7.44784E-09  7.46424E-09  7.48648E-09  7.51301E-09  7.54217E-09  7.57352E-09
   7.60641E-09  7.64019E-09  7.67446E-09  7.70884E-09  7.74303E-09  7.77678E-09  7.80977E-09  7.84174E-09  7.87246E-09  7.90171E-09
   7.92930E-09  7.95505E-09  7.97879E-09  8.00034E-09  8.01952E-09  8.03619E-09  8.05018E-09  8.06134E-09  8.06954E-09  8.07462E-09
   8.07644E-09  8.07488E-09  8.06978E-09  8.06103E-09  8.04850E-09  8.03206E-09  8.01159E-09  7.98696E-09  7.95806E-09  7.92478E-09
   7.88702E-09  7.84467E-09  7.79764E-09  7.74585E-09  7.68919E-09  7.62762E-09  7.56109E-09  7.48955E-09  7.41300E-09  7.33145E-09
   7.24496E-09  7.15365E-09  7.05769E-09  6.95736E-09  6.85309E-09  6.74548E-09  6.63552E-09  6.52487E-09  6.41605E-09  6.31277E-09
   6.22088E-09  6.15018E-09  6.11869E-09  6.16341E-09  6.37393E-09  7.02994E-09  9.46140E-09  1.70914E-08  2.32183E-08  2.54249E-08
   2.49855E-08  2.38146E-08  2.28929E-08  2.25405E-08  2.27924E-08  2.28766E-08  2.08679E-08  1.47391E-08  6.60217E-09  4.23543E-09
   3.25956E-09  2.67158E-09  2.23995E-09  1.88625E-09  1.57706E-09  1.29597E-09  1.03403E-09  7.86029E-10  5.48843E-10  3.20463E-10
   9.96044E-11 -1.14519E-10 -3.22461E-10 -5.24473E-10 -7.20776E-10 -9.11399E-10 -1.09634E-09 -1.27550E-09 -1.44881E-09 -1.61608E-09
  -1.77717E-09 -1.93187E-09 -2.07999E-09 -2.22130E-09 -2.35558E-09 -2.48259E-09 -2.60207E-09 -2.71381E-09 -2.81764E-09 -2.91374E-09
  -3.00231E-09 -3.08357E-09 -3.15773E-09 -3.22499E-09 -3.28554E-09 -3.33961E-09 -3.38737E-09 -3.42904E-09 -3.46481E-09 -3.49489E-09
  -3.51945E-09 -3.53871E-09 -3.55287E-09 -3.56210E-09 -3.56662E-09 -3.56661E-09 -3.56225E-09 -3.55377E-09 -3.54137E-09 -3.52518E-09
  -3.50543E-09 -3.48233E-09 -3.45604E-09 -3.42678E-09 -3.39473E-09 -3.36009E-09 -3.32305E-09 -3.28378E-09 -3.24250E-09 -3.19939E-09
  -3.15465E-09 -3.10845E-09 -3.06100E-09 -3.01249E-09 -2.96310E-09 -2.91303E-09 -2.86249E-09 -2.81166E-09 -2.76070E-09 -2.70981E-09
  -2.65921E-09 -2.60910E-09 -2.55963E-09 -2.51099E-09 -2.46343E-09 -2.41706E-09 -2.37214E-09 -2.32882E-09 -2.28730E-09 -2.24780E-09
  -2.21035E-09 -2.17497E-09 -2.14161E-09 -2.11023E-09 -2.08080E-09 -2.05329E-09 -2.02767E-09 -2.00390E-09 -1.98194E-09 -1.96176E-09
  -1.94334E-09 -1.92662E-09 -1.91159E-09 -1.89820E-09 -1.88641E-09 -1.87621E-09 -1.86755E-09 -1.86040E-09 -1.85472E-09 -1.85048E-09
  -1.84764E-09 -1.84619E-09 -1.84606E-09 -1.84722E-09 -1.84967E-09 -1.85336E-09 -1.85823E-09 -1.86427E-09 -1.87144E-09 -1.87972E-09
  -1.88906E-09 -1.89942E-09 -1.91077E-09 -1.92310E-09 -1.93633E-09 -1.95048E-09 -1.96546E-09 -1.98127E-09 -1.99787E-09 -2.01523E-09
  -2.03332E-09 -2.05206E-09 -2.07148E-09 -2.09150E-09 -2.11211E-09 -2.13327E-09 -2.15495E-09 -2.17709E-09 -2.19970E-09 -2.22270E-09
  -2.24609E-09 -2.26983E-09 -2.29389E-09 -2.31825E-09 -2.34292E-09 -2.36788E-09 -2.39313E-09 -2.41864E-09 -2.44442E-09 -2.47045E-09
  -2.49671E-09 -2.52321E-09 -2.54992E-09 -2.57684E-09 -2.60396E-09 -2.63127E-09 -2.65875E-09 -2.68640E-09 -2.71420E-09 -2.74215E-09
  -2.77023E-09 -2.79843E-09 -2.82674E-09 -2.85516E-09 -2.88367E-09 -2.91226E-09 -2.94092E-09 -2.96964E-09 -2.99840E-09 -3.02721E-09
  -3.05604E-09 -3.08489E-09 -3.11375E-09 -3.14260E-09 -3.17143E-09 -3.20024E-09 -3.22902E-09 -3.25775E-09 -3.28642E-09 -3.31502E-09
  -3.34354E-09 -3.37197E-09 -3.40031E-09 -3.42853E-09 -3.45663E-09 -3.48460E-09 -3.51243E-09 -3.54010E-09 -3.56762E-09 -3.59495E-09
  -3.62211E-09 -3.64906E-09 -3.67581E-09
 NY background values follow
    -1.892E-09   -1.806E-09   -1.721E-09   -1.635E-09   -1.550E-09   -1.464E-09   -1.379E-09   -1.293E-09   -1.208E-09   -1.122E-09
    -1.037E-09   -9.514E-10   -8.661E-10   -7.808E-10   -6.955E-10   -6.103E-10   -5.252E-10   -4.402E-10   -3.553E-10   -2.705E-10
    -1.857E-10   -1.011E-10   -1.665E-11    6.771E-11    1.519E-10    2.360E-10    3.199E-10    4.037E-10    4.872E-10    5.706E-10
     6.539E-10    7.369E-10    8.197E-10    9.024E-10    9.848E-10    1.067E-09    1.149E-09    1.231E-09    1.312E-09    1.393E-09
     1.474E-09    1.555E-09    1.636E-09    1.716E-09    1.796E-09    1.875E-09    1.954E-09    2.033E-09    2.112E-09    2.190E-09
     2.268E-09    2.346E-09    2.423E-09    2.500E-09    2.577E-09    2.653E-09    2.729E-09    2.804E-09    2.879E-09    2.954E-09
     3.028E-09    3.102E-09    3.176E-09    3.249E-09    3.322E-09    3.395E-09    3.467E-09    3.539E-09    3.610E-09    3.682E-09
     3.752E-09    3.823E-09    3.893E-09    3.962E-09    4.032E-09    4.101E-09    4.169E-09    4.237E-09    4.305E-09    4.373E-09
     4.440E-09    4.506E-09    4.573E-09    4.639E-09    4.704E-09    4.769E-09    4.834E-09    4.899E-09    4.963E-09    5.027E-09
     5.090E-09    5.153E-09    5.215E-09    5.278E-09    5.339E-09    5.401E-09    5.462E-09    5.523E-09    5.583E-09    5.643E-09
     5.702E-09    5.761E-09    5.820E-09    5.878E-09    5.936E-09    5.994E-09    6.051E-09    6.107E-09    6.163E-09    6.217E-09
     6.270E-09    6.322E-09    6.373E-09    6.423E-09    6.470E-09    6.517E-09    6.561E-09    6.603E-09    6.643E-09    6.681E-09
     6.717E-09    6.750E-09    6.781E-09    6.809E-09    6.834E-09    6.856E-09    6.875E-09    6.891E-09    6.904E-09    6.913E-09
     6.918E-09    6.920E-09    6.918E-09    6.912E-09    6.902E-09    6.888E-09    6.870E-09    6.847E-09    6.819E-09    6.787E-09
     6.750E-09    6.708E-09    6.661E-09    6.608E-09    6.551E-09    6.488E-09    6.419E-09    6.345E-09    6.264E-09    6.178E-09
     6.086E-09    5.988E-09    5.883E-09    5.772E-09    5.654E-09    5.530E-09    5.398E-09    5.261E-09    5.117E-09    4.966E-09
     4.810E-09    4.649E-09    4.483E-09    4.311E-09    4.135E-09    3.955E-09    3.770E-09    3.582E-09    3.390E-09    3.195E-09
     2.997E-09    2.797E-09    2.594E-09    2.389E-09    2.182E-09    1.974E-09    1.764E-09    1.553E-09    1.342E-09    1.131E-09
     9.188E-10    7.073E-10    4.962E-10    2.858E-10    7.641E-11   -1.316E-10   -3.381E-10   -5.428E-10   -7.453E-10   -9.453E-10
    -1.143E-09   -1.337E-09   -1.528E-09   -1.716E-09   -1.899E-09   -2.079E-09   -2.254E-09   -2.425E-09   -2.590E-09   -2.751E-09
    -2.906E-09   -3.055E-09   -3.197E-09   -3.334E-09   -3.464E-09   -3.587E-09   -3.703E-09   -3.811E-09   -3.911E-09   -4.005E-09
    -4.090E-09   -4.169E-09   -4.241E-09   -4.305E-09   -4.364E-09   -4.416E-09   -4.461E-09   -4.501E-09   -4.535E-09   -4.564E-09
    -4.586E-09   -4.604E-09   -4.617E-09   -4.624E-09   -4.628E-09   -4.626E-09   -4.621E-09   -4.611E-09   -4.597E-09   -4.580E-09
    -4.559E-09   -4.535E-09   -4.507E-09   -4.477E-09   -4.444E-09   -4.408E-09   -4.370E-09   -4.330E-09   -4.288E-09   -4.244E-09
    -4.199E-09   -4.151E-09   -4.103E-09   -4.054E-09   -4.004E-09   -3.953E-09   -3.902E-09   -3.850E-09   -3.798E-09   -3.747E-09
    -3.695E-09   -3.645E-09   -3.594E-09   -3.545E-09   -3.497E-09   -3.450E-09   -3.404E-09   -3.360E-09   -3.318E-09   -3.278E-09
    -3.240E-09   -3.204E-09   -3.170E-09   -3.138E-09   -3.108E-09   -3.080E-09   -3.054E-09   -3.030E-09   -3.007E-09   -2.986E-09
    -2.967E-09   -2.950E-09   -2.935E-09   -2.921E-09   -2.908E-09   -2.898E-09   -2.889E-09   -2.881E-09   -2.875E-09   -2.870E-09
    -2.867E-09   -2.865E-09   -2.864E-09   -2.865E-09   -2.867E-09   -2.870E-09   -2.874E-09   -2.880E-09   -2.887E-09   -2.894E-09
    -2.903E-09   -2.913E-09   -2.924E-09   -2.936E-09   -2.949E-09   -2.962E-09   -2.977E-09   -2.992E-09   -3.008E-09   -3.025E-09
    -3.043E-09   -3.061E-09   -3.080E-09   -3.100E-09   -3.120E-09   -3.140E-09   -3.162E-09   -3.183E-09   -3.206E-09   -3.228E-09
    -3.251E-09   -3.274E-09   -3.298E-09   -3.322E-09   -3.346E-09   -3.371E-09   -3.395E-09   -3.420E-09   -3.446E-09   -3.471E-09
    -3.497E-09   -3.523E-09   -3.549E-09   -3.576E-09   -3.602E-09   -3.629E-09   -3.656E-09   -3.684E-09   -3.711E-09   -3.738E-09
    -3.766E-09   -3.794E-09   -3.822E-09   -3.849E-09   -3.878E-09   -3.906E-09   -3.934E-09   -3.962E-09   -3.990E-09   -4.019E-09
    -4.047E-09   -4.075E-09   -4.104E-09   -4.132E-09   -4.161E-09   -4.189E-09   -4.217E-09   -4.245E-09   -4.274E-09   -4.302E-09
    -4.330E-09   -4.358E-09   -4.385E-09   -4.413E-09   -4.441E-09   -4.468E-09   -4.496E-09   -4.523E-09   -4.550E-09   -4.577E-09
    -4.603E-09   -4.630E-09   -4.656E-09
 Asp      Conc. = 1.53E-09
  -2.70030E-10 -4.35102E-10 -5.19184E-10 -6.30130E-10 -6.74713E-10 -7.86632E-10 -9.02656E-10 -9.80871E-10 -9.70185E-10 -9.26656E-10
  -8.67771E-10 -7.99983E-10 -7.25624E-10 -6.46191E-10 -5.65452E-10 -4.83750E-10 -4.01004E-10 -3.17324E-10 -2.32869E-10 -1.47707E-10
  -6.19138E-11  2.44922E-11  1.11529E-10  1.99223E-10  2.87633E-10  3.76892E-10  4.67146E-10  5.58637E-10  6.51679E-10  7.46758E-10
   8.44576E-10  9.46168E-10  1.05333E-09  1.16915E-09  1.29994E-09  1.46114E-09  1.69007E-09  1.89341E-09  2.10005E-09  2.22259E-09
   2.28415E-09  2.35727E-09  2.55526E-09  2.92474E-09  3.43161E-09  3.99732E-09  4.22293E-09  4.15125E-09  4.26318E-09  4.44789E-09
   4.69119E-09  4.91494E-09  5.01127E-09  4.84606E-09  4.47778E-09  4.12607E-09  3.95538E-09  4.08719E-09  4.07924E-09  3.86090E-09
   3.79018E-09  3.75599E-09  3.71373E-09  3.77470E-09  3.87578E-09  3.90696E-09  3.86210E-09  3.86609E-09  3.89348E-09  3.93308E-09
   3.97998E-09  4.03159E-09  4.08643E-09  4.14355E-09  4.20231E-09  4.26228E-09  4.32312E-09  4.38461E-09  4.44657E-09  4.50885E-09
   4.57133E-09  4.63394E-09  4.69660E-09  4.75924E-09  4.82182E-09  4.88431E-09  4.94666E-09  5.00885E-09  5.07085E-09  5.13264E-09
   5.19420E-09  5.25552E-09  5.31658E-09  5.37737E-09  5.43787E-09  5.49809E-09  5.55800E-09  5.61761E-09  5.67690E-09  5.73587E-09
   5.79451E-09  5.85283E-09  5.91081E-09  5.96844E-09  6.02574E-09  6.08261E-09  6.13893E-09  6.19458E-09  6.24943E-09  6.30336E-09
   6.35623E-09  6.40792E-09  6.45831E-09  6.50726E-09  6.55466E-09  6.60038E-09  6.64428E-09  6.68625E-09  6.72616E-09  6.76388E-09
   6.79928E-09  6.83226E-09  6.86267E-09  6.89039E-09  6.91530E-09  6.93728E-09  6.95619E-09  6.97192E-09  6.98433E-09  6.99331E-09
   6.99873E-09  7.00047E-09  6.99839E-09  6.99239E-09  6.98232E-09  6.96808E-09  6.94953E-09  6.92656E-09  6.89904E-09  6.86686E-09
   6.82987E-09  6.78798E-09  6.74105E-09  6.68897E-09  6.63162E-09  6.56887E-09  6.50063E-09  6.42677E-09  6.34718E-09  6.26176E-09
   6.17040E-09  6.07303E-09  5.96954E-09  5.85986E-09  5.74394E-09  5.62175E-09  5.49336E-09  5.35912E-09  5.21961E-09  5.07555E-09
   4.92796E-09  4.77833E-09  4.62927E-09  4.48583E-09  4.35997E-09  4.28869E-09  4.44833E-09  5.27092E-09  5.89065E-09  6.00173E-09
   5.77122E-09  5.44578E-09  5.15111E-09  4.92834E-09  4.78148E-09  4.60961E-09  4.16329E-09  3.18410E-09  1.95477E-09  1.46902E-09
   1.15937E-09  8.99380E-10  6.59826E-10  4.30942E-10  2.08655E-10 -8.84547E-12 -2.22506E-10 -4.32766E-10 -6.39741E-10 -8.43466E-10
  -1.04387E-09 -1.24079E-09 -1.43408E-09 -1.62348E-09 -1.80883E-09 -1.98985E-09 -2.16632E-09 -2.33795E-09 -2.50452E-09 -2.66574E-09
  -2.82134E-09 -2.97107E-09 -3.11464E-09 -3.25179E-09 -3.38224E-09 -3.50572E-09 -3.62191E-09 -3.73062E-09 -3.83160E-09 -3.92505E-09
  -4.01114E-09 -4.09007E-09 -4.16202E-09 -4.22720E-09 -4.28579E-09 -4.33800E-09 -4.38399E-09 -4.42398E-09 -4.45815E-09 -4.48670E-09
  -4.50980E-09 -4.52766E-09 -4.54047E-09 -4.54842E-09 -4.55170E-09 -4.55050E-09 -4.54499E-09 -4.53540E-09 -4.52192E-09 -4.50469E-09
  -4.48394E-09 -4.45987E-09 -4.43264E-09 -4.40246E-09 -4.36952E-09 -4.33401E-09 -4.29613E-09 -4.25604E-09 -4.21396E-09 -4.17007E-09
  -4.12455E-09 -4.07761E-09 -4.02943E-09 -3.98020E-09 -3.93011E-09 -3.87936E-09 -3.82815E-09 -3.77665E-09 -3.72504E-09 -3.67352E-09
  -3.62230E-09 -3.57157E-09 -3.52149E-09 -3.47226E-09 -3.42411E-09 -3.37717E-09 -3.33167E-09 -3.28779E-09 -3.24572E-09 -3.20567E-09
  -3.16769E-09 -3.13176E-09 -3.09788E-09 -3.06597E-09 -3.03603E-09 -3.00801E-09 -2.98188E-09 -2.95761E-09 -2.93516E-09 -2.91449E-09
  -2.89558E-09 -2.87838E-09 -2.86287E-09 -2.84901E-09 -2.83675E-09 -2.82609E-09 -2.81696E-09 -2.80935E-09 -2.80321E-09 -2.79852E-09
  -2.79523E-09 -2.79333E-09 -2.79274E-09 -2.79347E-09 -2.79548E-09 -2.79872E-09 -2.80315E-09 -2.80876E-09 -2.81550E-09 -2.82335E-09
  -2.83225E-09 -2.84218E-09 -2.85310E-09 -2.86500E-09 -2.87781E-09 -2.89153E-09 -2.90610E-09 -2.92149E-09 -2.93766E-09 -2.95460E-09
  -2.97227E-09 -2.99059E-09 -3.00959E-09 -3.02920E-09 -3.04938E-09 -3.07013E-09 -3.09139E-09 -3.11311E-09 -3.13531E-09 -3.15789E-09
  -3.18086E-09 -3.20419E-09 -3.22783E-09 -3.25178E-09 -3.27603E-09 -3.30058E-09 -3.32541E-09 -3.35050E-09 -3.37586E-09 -3.40147E-09
  -3.42732E-09 -3.45340E-09 -3.47969E-09 -3.50619E-09 -3.53289E-09 -3.55977E-09 -3.58683E-09 -3.61406E-09 -3.64144E-09 -3.66896E-09
  -3.69661E-09 -3.72439E-09 -3.75227E-09 -3.78026E-09 -3.80834E-09 -3.83650E-09 -3.86472E-09 -3.89301E-09 -3.92134E-09 -3.94971E-09
  -3.97810E-09 -4.00651E-09 -4.03493E-09 -4.06334E-09 -4.09173E-09 -4.12009E-09 -4.14842E-09 -4.17670E-09 -4.20492E-09 -4.23306E-09
  -4.26113E-09 -4.28911E-09 -4.31698E-09 -4.34475E-09 -4.37238E-09 -4.39989E-09 -4.42725E-09 -4.45445E-09 -4.48149E-09 -4.50836E-09
  -4.53503E-09 -4.56151E-09 -4.58778E-09
 GABA     Conc. = 6.38E-10
  -1.82480E-09 -1.73847E-09 -1.65206E-09 -1.56555E-09 -1.47895E-09 -1.39226E-09 -1.30547E-09 -1.21858E-09 -1.13157E-09 -1.04443E-09
  -9.57158E-10 -8.69720E-10 -7.82065E-10 -6.94228E-10 -6.06078E-10 -5.17598E-10 -4.28836E-10 -3.39537E-10 -2.49587E-10 -1.58908E-10
  -6.71979E-11  2.59183E-11  1.20934E-10  2.18643E-10  3.20254E-10  4.27813E-10  5.45407E-10  6.81626E-10  8.59506E-10  1.13934E-09
   1.34354E-09  1.48923E-09  1.82202E-09  2.13138E-09  2.28122E-09  2.45046E-09  2.62717E-09  2.74802E-09  2.77697E-09  2.72459E-09
   2.66400E-09  2.70335E-09  2.59743E-09  2.37417E-09  2.37673E-09  2.39045E-09  2.29496E-09  2.28442E-09  2.31975E-09  2.37415E-09
   2.43875E-09  2.50940E-09  2.58425E-09  2.66270E-09  2.74445E-09  2.82963E-09  2.91906E-09  3.01432E-09  3.11848E-09  3.23786E-09
   3.38698E-09  3.60949E-09  3.88172E-09  4.05178E-09  4.25788E-09  4.55559E-09  4.73556E-09  4.82121E-09  4.91362E-09  4.99828E-09
   5.03183E-09  4.98715E-09  4.88638E-09  4.82683E-09  4.80176E-09  4.62825E-09  4.51837E-09  4.57704E-09  4.58278E-09  4.60321E-09
   4.71341E-09  4.78715E-09  4.88211E-09  5.09360E-09  5.25362E-09  5.36216E-09  5.53391E-09  5.70020E-09  5.82583E-09  5.92036E-09
   5.97214E-09  6.03508E-09  6.11552E-09  6.07809E-09  6.01721E-09  6.07016E-09  6.04700E-09  5.97207E-09  5.97976E-09  5.98975E-09
   5.98735E-09  6.00426E-09  6.03309E-09  6.06907E-09  6.10959E-09  6.15296E-09  6.19822E-09  6.24469E-09  6.29189E-09  6.33939E-09
   6.38677E-09  6.43364E-09  6.47977E-09  6.52494E-09  6.56900E-09  6.61180E-09  6.65312E-09  6.69275E-09  6.73055E-09  6.76635E-09
   6.80001E-09  6.83139E-09  6.86035E-09  6.88674E-09  6.91041E-09  6.93125E-09  6.94911E-09  6.96385E-09  6.97535E-09  6.98347E-09
   6.98808E-09  6.98905E-09  6.98626E-09  6.97957E-09  6.96886E-09  6.95400E-09  6.93486E-09  6.91131E-09  6.88322E-09  6.85049E-09
   6.81296E-09  6.77053E-09  6.72307E-09  6.67045E-09  6.61254E-09  6.54923E-09  6.48039E-09  6.40591E-09  6.32566E-09  6.23953E-09
   6.14738E-09  6.04913E-09  5.94466E-09  5.83386E-09  5.71663E-09  5.59289E-09  5.46263E-09  5.32608E-09  5.18366E-09  5.03582E-09
   4.88316E-09  4.72645E-09  4.56695E-09  4.40689E-09  4.25139E-09  4.11594E-09  4.07398E-09  4.30756E-09  4.45427E-09  4.38665E-09
   4.17477E-09  3.92186E-09  3.68052E-09  3.46801E-09  3.28626E-09  3.09344E-09  2.78563E-09  2.25461E-09  1.61794E-09  1.29244E-09
   1.04003E-09  8.08307E-10  5.85317E-10  3.67185E-10  1.52368E-10 -5.96851E-11 -2.69227E-10 -4.76283E-10 -6.80709E-10 -8.82367E-10
  -1.08107E-09 -1.27657E-09 -1.46866E-09 -1.65704E-09 -1.84151E-09 -2.02177E-09 -2.19757E-09 -2.36861E-09 -2.53467E-09 -2.69543E-09
  -2.85062E-09 -2.99998E-09 -3.14322E-09 -3.28007E-09 -3.41025E-09 -3.53348E-09 -3.64946E-09 -3.75795E-09 -3.85875E-09 -3.95203E-09
  -4.03795E-09 -4.11673E-09 -4.18855E-09 -4.25361E-09 -4.31208E-09 -4.36417E-09 -4.41007E-09 -4.44995E-09 -4.48404E-09 -4.51250E-09
  -4.53552E-09 -4.55331E-09 -4.56605E-09 -4.57394E-09 -4.57715E-09 -4.57589E-09 -4.57032E-09 -4.56068E-09 -4.54715E-09 -4.52988E-09
