 LCModel (Version 6.3-1R) Copyright: S.W. Provencher.          Ref.: Magn. Reson. Med. 30:672-679 (1993).                
 onepulse 16x24_ftSpec_smooth_lcm
 26 lines in following concentration table = NCONC+1
    Conc.  %SD /Cr+PCr  Metabolite                                         
    0.000 999%   0.000 Ala                                                 
    0.000 999%   0.000 Asp                                                 
    0.000 999%   0.000 Cr                                                  
    0.000 999%   0.000 GABA                                                
 5.22E-10 174%   3.107 Glc                                                 
 2.31E-09  26%  13.774 Gln                                                 
    0.000 999%   0.000 Glu                                                 
    0.000 999%   0.000 Glyc                                                
 2.77E-11 999%   0.165 GPC                                                 
    0.000 999%   0.000 GSH                                                 
 1.41E-09  37%   8.417 Ins                                                 
    0.000 999%   0.000 Lac                                                 
 4.41E-10  52%   2.627 NAAG                                                
    0.000 999%   0.000 NAA                                                 
    0.000 999%   0.000 PCh                                                 
 1.68E-10 184%   1.000 PCr                                                 
 1.33E-09 186%   7.934 PE                                                  
 1.29E-10 220%   0.769 Scyllo                                              
 2.65E-09  74%  15.752 Ser                                                 
    0.000 999%   0.000 Tau                                                 
 2.77E-11 999%   0.165 GPC+PCh                                             
 4.41E-10  52%   2.627 NAA+NAAG                                            
 1.41E-09  37%   8.417 Ins+Glyc                                            
 1.68E-10 184%   1.000 Cr+PCr                                              
 2.31E-09  26%  13.774 Glu+Gln                                             
   6 lines in following misc. output table
  FWHM = 0.101 ppm    S/N =   3                                            
  Data shift = 0.391 ppm                                                   
  Ph: -45 deg     -41.7 deg/ppm                                            
  alphaB,S = 7.6E-01,   5.1E+01                                            
    8 spline knots.   Ns = 5(1)                                            
  ( 8) 4 infls.   ( 5) 1 extrs.                                            
  363 points on ppm-axis = NY
      4.250000     4.238821     4.227641     4.216462     4.205282     4.194103     4.182923     4.171744     4.160564     4.149385
      4.138206     4.127026     4.115847     4.104667     4.093488     4.082308     4.071129     4.059949     4.048770     4.037591
      4.026411     4.015232     4.004052     3.992873     3.981693     3.970514     3.959334     3.948155     3.936975     3.925796
      3.914617     3.903437     3.892258     3.881078     3.869899     3.858719     3.847540     3.836360     3.825181     3.814002
      3.802822     3.791643     3.780463     3.769284     3.758104     3.746925     3.735745     3.724566     3.713387     3.702207
      3.691028     3.679848     3.668669     3.657489     3.646310     3.635130     3.623951     3.612772     3.601592     3.590413
      3.579233     3.568054     3.556874     3.545695     3.534515     3.523336     3.512156     3.500977     3.489798     3.478618
      3.467439     3.456259     3.445080     3.433900     3.422721     3.411541     3.400362     3.389183     3.378003     3.366824
      3.355644     3.344465     3.333285     3.322106     3.310926     3.299747     3.288568     3.277388     3.266209     3.255029
      3.243850     3.232670     3.221491     3.210311     3.199132     3.187953     3.176773     3.165594     3.154414     3.143235
      3.132055     3.120876     3.109696     3.098517     3.087337     3.076158     3.064979     3.053799     3.042620     3.031440
      3.020261     3.009081     2.997902     2.986722     2.975543     2.964364     2.953184     2.942005     2.930825     2.919646
      2.908466     2.897287     2.886107     2.874928     2.863749     2.852569     2.841390     2.830210     2.819031     2.807851
      2.796672     2.785492     2.774313     2.763134     2.751954     2.740775     2.729595     2.718416     2.707236     2.696057
      2.684877     2.673698     2.662519     2.651339     2.640160     2.628980     2.617801     2.606621     2.595442     2.584262
      2.573083     2.561903     2.550724     2.539545     2.528365     2.517186     2.506006     2.494827     2.483647     2.472468
      2.461288     2.450109     2.438930     2.427750     2.416571     2.405391     2.394212     2.383032     2.371853     2.360673
      2.349494     2.338315     2.327135     2.315956     2.304776     2.293597     2.282417     2.271238     2.260058     2.248879
      2.237700     2.226520     2.215341     2.204161     2.192982     2.181802     2.170623     2.159443     2.148264     2.137084
      2.125905     2.114726     2.103546     2.092367     2.081187     2.070008     2.058828     2.047649     2.036469     2.025290
      2.014111     2.002931     1.991752     1.980572     1.969393     1.958213     1.947034     1.935854     1.924675     1.913496
      1.902316     1.891137     1.879957     1.868778     1.857598     1.846419     1.835239     1.824060     1.812881     1.801701
      1.790522     1.779342     1.768163     1.756983     1.745804     1.734624     1.723445     1.712265     1.701086     1.689907
      1.678727     1.667548     1.656368     1.645189     1.634009     1.622830     1.611650     1.600471     1.589292     1.578112
      1.566933     1.555753     1.544574     1.533394     1.522215     1.511035     1.499856     1.488677     1.477497     1.466318
      1.455138     1.443959     1.432779     1.421600     1.410420     1.399241     1.388062     1.376882     1.365703     1.354523
      1.343344     1.332164     1.320985     1.309805     1.298626     1.287446     1.276267     1.265088     1.253908     1.242729
      1.231549     1.220370     1.209190     1.198011     1.186831     1.175652     1.164473     1.153293     1.142114     1.130934
      1.119755     1.108575     1.097396     1.086216     1.075037     1.063858     1.052678     1.041499     1.030319     1.019140
      1.007960     0.996781     0.985601     0.974422     0.963243     0.952063     0.940884     0.929704     0.918525     0.907345
      0.896166     0.884986     0.873807     0.862628     0.851448     0.840269     0.829089     0.817910     0.806730     0.795551
      0.784371     0.773192     0.762012     0.750833     0.739654     0.728474     0.717295     0.706115     0.694936     0.683756
      0.672577     0.661397     0.650218     0.639039     0.627859     0.616680     0.605500     0.594321     0.583141     0.571962
      0.560782     0.549603     0.538424     0.527244     0.516065     0.504885     0.493706     0.482526     0.471347     0.460167
      0.448988     0.437809     0.426629     0.415450     0.404270     0.393091     0.381911     0.370732     0.359552     0.348373
      0.337193     0.326014     0.314835     0.303655     0.292476     0.281296     0.270117     0.258937     0.247758     0.236578
      0.225399     0.214220     0.203040
 NY phased data points follow
   1.44141E-08  1.32890E-08  1.16592E-08  1.14657E-08  1.12188E-08  1.06388E-08  1.09521E-08  1.06154E-08  1.07919E-08  1.13110E-08
   1.17192E-08  1.23189E-08  1.28286E-08  1.21184E-08  1.27486E-08  1.24558E-08  1.17501E-08  1.16033E-08  1.13291E-08  1.12890E-08
   1.11480E-08  1.12938E-08  1.24250E-08  1.18139E-08  1.19604E-08  1.12052E-08  1.04656E-08  1.09242E-08  1.22443E-08  1.32717E-08
   1.47041E-08  1.47136E-08  1.32302E-08  1.28628E-08  1.20802E-08  1.06124E-08  1.08418E-08  1.05540E-08  1.00905E-08  9.74615E-09
   9.32400E-09  9.44672E-09  9.32007E-09  8.79922E-09  8.43899E-09  7.65144E-09  7.31964E-09  7.91207E-09  7.78174E-09  7.83598E-09
   7.62612E-09  7.31401E-09  6.25579E-09  6.57556E-09  6.50616E-09  6.30478E-09  6.54812E-09  6.18291E-09  6.71397E-09  8.65915E-09
   1.12067E-08  1.24178E-08  1.26661E-08  1.21681E-08  1.16995E-08  1.03237E-08  9.30204E-09  9.00287E-09  7.62845E-09  7.59741E-09
   7.38545E-09  6.76030E-09  5.80102E-09  5.92175E-09  5.81209E-09  7.32681E-09  1.05230E-08  1.40675E-08  1.55780E-08  1.59590E-08
   1.50515E-08  1.43561E-08  1.32230E-08  1.30862E-08  1.26994E-08  1.19126E-08  1.17782E-08  1.19583E-08  1.12720E-08  1.13949E-08
   1.05030E-08  1.00330E-08  9.55423E-09  9.61476E-09  8.92496E-09  8.58640E-09  7.73170E-09  8.37663E-09  7.67154E-09  8.48336E-09
   7.91975E-09  7.65890E-09  7.72974E-09  7.44567E-09  7.74439E-09  6.26637E-09  6.26849E-09  5.27898E-09  4.83667E-09  5.04740E-09
   5.09691E-09  6.23057E-09  5.64387E-09  5.39477E-09  6.11783E-09  6.23282E-09  5.68004E-09  6.85783E-09  6.32721E-09  6.01510E-09
   5.72682E-09  5.09015E-09  4.63495E-09  4.42491E-09  4.06836E-09  4.85667E-09  4.31818E-09  4.25975E-09  4.36490E-09  4.51587E-09
   4.72474E-09  4.46969E-09  4.18598E-09  4.15539E-09  3.76295E-09  4.42995E-09  4.18741E-09  4.99523E-09  6.68058E-09  6.43345E-09
   6.53623E-09  6.32720E-09  6.66919E-09  7.02853E-09  7.74033E-09  7.62189E-09  7.69665E-09  7.17943E-09  7.19916E-09  7.30717E-09
   7.06889E-09  6.92547E-09  6.61013E-09  6.89413E-09  6.86051E-09  6.35013E-09  6.49891E-09  6.85534E-09  6.74846E-09  6.41534E-09
   6.16485E-09  6.09534E-09  5.78256E-09  6.02849E-09  6.22374E-09  7.08099E-09  8.49178E-09  1.15303E-08  1.66268E-08  1.91356E-08
   1.90191E-08  1.79286E-08  1.77949E-08  1.65612E-08  1.57594E-08  1.46264E-08  1.41128E-08  1.37716E-08  1.38698E-08  1.29195E-08
   1.18011E-08  1.15157E-08  1.03288E-08  9.97822E-09  8.71721E-09  7.01859E-09  6.05009E-09  4.44829E-09  2.50046E-09  1.21380E-09
  -1.12743E-09 -3.88934E-09 -5.04126E-09 -7.63506E-09 -9.47551E-09 -1.16131E-08 -1.30039E-08 -1.43927E-08 -1.53860E-08 -1.54406E-08
  -1.63290E-08 -1.60416E-08 -1.49660E-08 -1.42957E-08 -1.23131E-08 -1.06436E-08 -9.46589E-09 -8.04116E-09 -5.98629E-09 -5.20647E-09
  -3.48166E-09 -3.03841E-09 -1.73774E-09 -2.37073E-09 -1.80021E-09 -1.60559E-09 -2.28775E-09 -2.00913E-09 -2.16225E-09 -2.49282E-09
  -2.49029E-09 -1.86146E-09 -1.60421E-09 -1.38083E-09 -1.21454E-09 -1.14806E-09 -1.05370E-09 -1.63802E-09 -1.39677E-09 -1.93880E-09
  -1.88486E-09 -2.11314E-09 -1.75582E-09 -1.52358E-09 -8.89842E-10 -6.57669E-10 -1.28878E-09 -6.50208E-10 -9.73178E-10 -1.27468E-09
  -1.57037E-09 -1.57840E-09 -1.54108E-09 -1.96545E-09 -1.50735E-09 -1.68517E-09 -1.06850E-09 -9.12227E-10 -9.31358E-10 -3.32130E-10
   2.51883E-10 -5.82089E-10  9.52513E-11 -1.91024E-10 -9.95549E-10 -6.76847E-10 -1.27657E-09 -1.32915E-09 -1.61168E-09 -1.65829E-09
  -1.69145E-09 -2.18433E-09 -1.83436E-09 -1.62415E-09 -1.40394E-09 -1.55526E-09 -1.70745E-09 -5.54088E-10 -6.42189E-10 -3.59523E-10
  -2.67212E-10 -2.13478E-10  2.16210E-10  5.81338E-10 -4.47773E-10  4.44337E-10 -1.44550E-10  8.19178E-11  1.29969E-10 -3.37206E-10
  -8.58987E-11 -1.18239E-09 -1.59028E-10 -5.58594E-10 -1.00487E-09 -7.13987E-10 -7.38928E-10 -9.28429E-10 -1.29253E-09 -8.36484E-10
  -1.54756E-09 -1.17850E-09 -9.22856E-10 -1.12141E-09 -1.28472E-09 -1.33490E-09 -1.43131E-09 -2.05516E-09 -1.11720E-09 -1.38117E-09
  -2.15267E-09 -1.73171E-09 -1.35238E-09 -1.73939E-09 -1.53173E-09 -1.76686E-09 -1.50849E-09 -1.37330E-09 -1.67030E-09 -1.76670E-09
  -1.86702E-09 -1.67989E-09 -1.64584E-09 -1.74186E-09 -1.66708E-09 -1.32481E-09 -2.20644E-09 -1.41167E-09 -1.43810E-09 -1.55679E-09
  -2.01741E-09 -1.10098E-09 -1.68006E-09 -1.27398E-09 -1.78302E-09 -1.22568E-09 -1.80055E-09 -1.10456E-09 -2.17703E-09 -1.27425E-09
  -1.28471E-09 -1.29561E-09 -1.24739E-09 -1.46786E-09 -1.32219E-09 -1.08283E-09 -1.01438E-09 -1.97671E-09 -1.15306E-09 -1.57069E-09
  -1.35745E-09 -1.30991E-09 -1.27651E-09 -1.40399E-09 -1.10732E-09 -1.51392E-09 -1.29239E-09 -1.07944E-09 -1.46904E-09 -1.10702E-09
  -1.30216E-09 -1.10097E-09 -1.41223E-09 -1.12350E-09 -9.68701E-10 -6.51117E-10 -1.31413E-09 -1.09673E-09 -9.40529E-10 -3.89516E-10
  -6.52955E-10 -7.59200E-10 -9.05286E-10
 NY points of the fit to the data follow
   1.30149E-08  1.29513E-08  1.24636E-08  1.21606E-08  1.19517E-08  1.18116E-08  1.13701E-08  1.06518E-08  1.02262E-08  1.04088E-08
   1.09099E-08  1.14288E-08  1.18481E-08  1.21733E-08  1.24872E-08  1.26259E-08  1.25949E-08  1.25672E-08  1.23319E-08  1.16448E-08
   1.09663E-08  1.06432E-08  1.05994E-08  1.07233E-08  1.10404E-08  1.15559E-08  1.22454E-08  1.28778E-08  1.32307E-08  1.32972E-08
   1.33178E-08  1.31496E-08  1.28657E-08  1.25631E-08  1.21515E-08  1.15912E-08  1.09885E-08  1.04256E-08  1.00025E-08  9.67409E-09
   9.39071E-09  9.08760E-09  8.70641E-09  8.30425E-09  8.01326E-09  7.75627E-09  7.52266E-09  7.31658E-09  7.13959E-09  6.98976E-09
   6.84694E-09  6.70988E-09  6.57126E-09  6.45204E-09  6.55348E-09  6.98048E-09  7.42072E-09  7.99228E-09  8.79873E-09  9.60086E-09
   1.02412E-08  1.07643E-08  1.11342E-08  1.12876E-08  1.11351E-08  1.07125E-08  1.02487E-08  9.74065E-09  9.01623E-09  8.45864E-09
   8.13060E-09  8.04839E-09  8.21957E-09  8.47785E-09  8.87368E-09  9.51526E-09  1.06103E-08  1.19321E-08  1.31429E-08  1.40181E-08
   1.45163E-08  1.46375E-08  1.44559E-08  1.42621E-08  1.39218E-08  1.31625E-08  1.21836E-08  1.11812E-08  1.04801E-08  9.97881E-09
   9.59429E-09  9.28422E-09  9.02378E-09  8.79983E-09  8.59948E-09  8.42062E-09  8.26275E-09  8.11922E-09  7.98263E-09  7.85103E-09
   7.73446E-09  7.63090E-09  7.53137E-09  7.43440E-09  7.34393E-09  7.25911E-09  7.17878E-09  7.10214E-09  7.02837E-09  6.95708E-09
   6.88797E-09  6.82064E-09  6.75482E-09  6.69023E-09  6.62664E-09  6.56386E-09  6.50169E-09  6.43996E-09  6.37851E-09  6.31723E-09
   6.25594E-09  6.19458E-09  6.13299E-09  6.07111E-09  6.00882E-09  5.94602E-09  5.88264E-09  5.81862E-09  5.75386E-09  5.68830E-09
   5.62187E-09  5.55449E-09  5.48614E-09  5.41674E-09  5.34623E-09  5.27455E-09  5.20171E-09  5.12761E-09  5.05223E-09  4.97551E-09
   4.89745E-09  4.81801E-09  4.73717E-09  4.65488E-09  4.57117E-09  4.48602E-09  4.39946E-09  4.31159E-09  4.22253E-09  4.13244E-09
   4.04147E-09  3.94983E-09  3.85777E-09  3.76560E-09  3.67372E-09  3.58265E-09  3.49310E-09  3.40607E-09  3.32300E-09  3.24608E-09
   3.17877E-09  3.12693E-09  3.10126E-09  3.12343E-09  3.24470E-09  3.61972E-09  4.95519E-09  9.43717E-09  1.46172E-08  1.84113E-08
   2.01661E-08  2.03347E-08  1.97096E-08  1.87962E-08  1.76164E-08  1.57168E-08  1.24843E-08  7.89100E-09  3.59201E-09  2.27609E-09
   1.70792E-09  1.36054E-09  1.10680E-09  9.01765E-10  7.25463E-10  5.67703E-10  4.22757E-10  2.87184E-10  1.58739E-10  3.59943E-11
  -8.20209E-11 -1.96032E-10 -3.06504E-10 -4.13795E-10 -5.18128E-10 -6.19708E-10 -7.18671E-10 -8.15065E-10 -9.08967E-10 -1.00043E-09
  -1.08946E-09 -1.17605E-09 -1.26020E-09 -1.34190E-09 -1.42114E-09 -1.49787E-09 -1.57206E-09 -1.64369E-09 -1.71274E-09 -1.77911E-09
  -1.84282E-09 -1.90380E-09 -1.96201E-09 -2.01742E-09 -2.06998E-09 -2.11963E-09 -2.16634E-09 -2.21009E-09 -2.25080E-09 -2.28853E-09
  -2.32335E-09 -2.35534E-09 -2.38455E-09 -2.41105E-09 -2.43491E-09 -2.45622E-09 -2.47501E-09 -2.49137E-09 -2.50537E-09 -2.51706E-09
  -2.52652E-09 -2.53382E-09 -2.53902E-09 -2.54218E-09 -2.54339E-09 -2.54269E-09 -2.54016E-09 -2.53586E-09 -2.52986E-09 -2.52222E-09
  -2.51300E-09 -2.50229E-09 -2.49013E-09 -2.47659E-09 -2.46173E-09 -2.44562E-09 -2.42833E-09 -2.40991E-09 -2.39042E-09 -2.36993E-09
  -2.34851E-09 -2.32619E-09 -2.30307E-09 -2.27917E-09 -2.25457E-09 -2.22935E-09 -2.20353E-09 -2.17718E-09 -2.15036E-09 -2.12312E-09
  -2.09553E-09 -2.06764E-09 -2.03950E-09 -2.01116E-09 -1.98268E-09 -1.95410E-09 -1.92550E-09 -1.89689E-09 -1.86835E-09 -1.83992E-09
  -1.81164E-09 -1.78356E-09 -1.75574E-09 -1.72820E-09 -1.70102E-09 -1.67421E-09 -1.64783E-09 -1.62192E-09 -1.59651E-09 -1.57165E-09
  -1.54738E-09 -1.52373E-09 -1.50074E-09 -1.47844E-09 -1.45687E-09 -1.43607E-09 -1.41607E-09 -1.39687E-09 -1.37854E-09 -1.36109E-09
  -1.34454E-09 -1.32892E-09 -1.31417E-09 -1.30029E-09 -1.28722E-09 -1.27496E-09 -1.26345E-09 -1.25269E-09 -1.24264E-09 -1.23326E-09
  -1.22455E-09 -1.21645E-09 -1.20896E-09 -1.20204E-09 -1.19566E-09 -1.18980E-09 -1.18443E-09 -1.17953E-09 -1.17506E-09 -1.17101E-09
  -1.16736E-09 -1.16406E-09 -1.16111E-09 -1.15847E-09 -1.15613E-09 -1.15406E-09 -1.15224E-09 -1.15064E-09 -1.14925E-09 -1.14804E-09
  -1.14700E-09 -1.14609E-09 -1.14530E-09 -1.14462E-09 -1.14402E-09 -1.14347E-09 -1.14298E-09 -1.14251E-09 -1.14206E-09 -1.14159E-09
  -1.14111E-09 -1.14058E-09 -1.14000E-09 -1.13935E-09 -1.13861E-09 -1.13778E-09 -1.13683E-09 -1.13576E-09 -1.13456E-09 -1.13320E-09
  -1.13169E-09 -1.13000E-09 -1.12814E-09 -1.12609E-09 -1.12383E-09 -1.12137E-09 -1.11870E-09 -1.11580E-09 -1.11267E-09 -1.10931E-09
  -1.10571E-09 -1.10186E-09 -1.09776E-09 -1.09340E-09 -1.08879E-09 -1.08392E-09 -1.07879E-09 -1.07340E-09 -1.06773E-09 -1.06181E-09
  -1.05562E-09 -1.04917E-09 -1.04247E-09
 NY background values follow
     3.709E-09    3.747E-09    3.785E-09    3.822E-09    3.859E-09    3.895E-09    3.930E-09    3.965E-09    3.999E-09    4.032E-09
     4.065E-09    4.097E-09    4.129E-09    4.160E-09    4.190E-09    4.220E-09    4.249E-09    4.278E-09    4.306E-09    4.333E-09
     4.360E-09    4.386E-09    4.412E-09    4.437E-09    4.461E-09    4.485E-09    4.508E-09    4.531E-09    4.553E-09    4.575E-09
     4.596E-09    4.616E-09    4.637E-09    4.656E-09    4.675E-09    4.694E-09    4.712E-09    4.729E-09    4.746E-09    4.763E-09
     4.779E-09    4.794E-09    4.809E-09    4.824E-09    4.838E-09    4.852E-09    4.866E-09    4.879E-09    4.891E-09    4.904E-09
     4.915E-09    4.927E-09    4.938E-09    4.949E-09    4.959E-09    4.969E-09    4.979E-09    4.989E-09    4.998E-09    5.007E-09
     5.015E-09    5.024E-09    5.032E-09    5.040E-09    5.047E-09    5.055E-09    5.062E-09    5.069E-09    5.076E-09    5.083E-09
     5.089E-09    5.096E-09    5.102E-09    5.108E-09    5.114E-09    5.120E-09    5.125E-09    5.131E-09    5.136E-09    5.141E-09
     5.146E-09    5.151E-09    5.155E-09    5.159E-09    5.163E-09    5.166E-09    5.169E-09    5.171E-09    5.174E-09    5.175E-09
     5.176E-09    5.177E-09    5.177E-09    5.177E-09    5.176E-09    5.175E-09    5.172E-09    5.170E-09    5.166E-09    5.162E-09
     5.157E-09    5.151E-09    5.145E-09    5.137E-09    5.129E-09    5.120E-09    5.110E-09    5.099E-09    5.088E-09    5.075E-09
     5.061E-09    5.046E-09    5.030E-09    5.013E-09    4.994E-09    4.975E-09    4.954E-09    4.932E-09    4.909E-09    4.885E-09
     4.859E-09    4.832E-09    4.803E-09    4.773E-09    4.742E-09    4.709E-09    4.675E-09    4.639E-09    4.601E-09    4.562E-09
     4.521E-09    4.479E-09    4.435E-09    4.389E-09    4.341E-09    4.292E-09    4.241E-09    4.188E-09    4.133E-09    4.076E-09
     4.017E-09    3.956E-09    3.894E-09    3.829E-09    3.762E-09    3.693E-09    3.623E-09    3.550E-09    3.475E-09    3.398E-09
     3.320E-09    3.239E-09    3.157E-09    3.074E-09    2.989E-09    2.902E-09    2.814E-09    2.725E-09    2.635E-09    2.543E-09
     2.450E-09    2.356E-09    2.261E-09    2.166E-09    2.069E-09    1.972E-09    1.874E-09    1.776E-09    1.677E-09    1.577E-09
     1.477E-09    1.377E-09    1.277E-09    1.176E-09    1.076E-09    9.754E-10    8.750E-10    7.747E-10    6.747E-10    5.749E-10
     4.756E-10    3.768E-10    2.784E-10    1.807E-10    8.368E-11   -1.259E-11   -1.080E-10   -2.025E-10   -2.961E-10   -3.885E-10
    -4.799E-10   -5.700E-10   -6.589E-10   -7.465E-10   -8.326E-10   -9.172E-10   -1.000E-09   -1.082E-09   -1.162E-09   -1.240E-09
    -1.316E-09   -1.390E-09   -1.462E-09   -1.533E-09   -1.601E-09   -1.667E-09   -1.731E-09   -1.793E-09   -1.852E-09   -1.909E-09
    -1.963E-09   -2.015E-09   -2.064E-09   -2.111E-09   -2.155E-09   -2.196E-09   -2.235E-09   -2.271E-09   -2.304E-09   -2.334E-09
    -2.361E-09   -2.385E-09   -2.407E-09   -2.426E-09   -2.443E-09   -2.457E-09   -2.469E-09   -2.479E-09   -2.486E-09   -2.491E-09
    -2.494E-09   -2.495E-09   -2.493E-09   -2.490E-09   -2.485E-09   -2.478E-09   -2.470E-09   -2.459E-09   -2.447E-09   -2.434E-09
    -2.419E-09   -2.402E-09   -2.384E-09   -2.365E-09   -2.345E-09   -2.323E-09   -2.300E-09   -2.276E-09   -2.252E-09   -2.226E-09
    -2.199E-09   -2.172E-09   -2.143E-09   -2.114E-09   -2.085E-09   -2.054E-09   -2.024E-09   -1.992E-09   -1.961E-09   -1.929E-09
    -1.896E-09   -1.864E-09   -1.831E-09   -1.798E-09   -1.765E-09   -1.732E-09   -1.699E-09   -1.666E-09   -1.633E-09   -1.600E-09
    -1.567E-09   -1.535E-09   -1.503E-09   -1.471E-09   -1.440E-09   -1.409E-09   -1.378E-09   -1.348E-09   -1.319E-09   -1.290E-09
    -1.262E-09   -1.234E-09   -1.207E-09   -1.181E-09   -1.156E-09   -1.131E-09   -1.107E-09   -1.084E-09   -1.062E-09   -1.041E-09
    -1.021E-09   -1.002E-09   -9.835E-10   -9.661E-10   -9.495E-10   -9.338E-10   -9.188E-10   -9.046E-10   -8.911E-10   -8.784E-10
    -8.663E-10   -8.549E-10   -8.442E-10   -8.340E-10   -8.244E-10   -8.153E-10   -8.067E-10   -7.987E-10   -7.911E-10   -7.840E-10
    -7.772E-10   -7.709E-10   -7.649E-10   -7.593E-10   -7.540E-10   -7.489E-10   -7.442E-10   -7.397E-10   -7.354E-10   -7.314E-10
    -7.275E-10   -7.238E-10   -7.203E-10   -7.168E-10   -7.135E-10   -7.102E-10   -7.071E-10   -7.039E-10   -7.009E-10   -6.978E-10
    -6.947E-10   -6.916E-10   -6.885E-10   -6.853E-10   -6.821E-10   -6.787E-10   -6.753E-10   -6.718E-10   -6.682E-10   -6.645E-10
    -6.606E-10   -6.565E-10   -6.524E-10   -6.480E-10   -6.434E-10   -6.387E-10   -6.338E-10   -6.287E-10   -6.233E-10   -6.178E-10
    -6.120E-10   -6.060E-10   -5.998E-10   -5.933E-10   -5.866E-10   -5.797E-10   -5.725E-10   -5.651E-10   -5.574E-10   -5.495E-10
    -5.414E-10   -5.330E-10   -5.243E-10
 Glc      Conc. = 5.22E-10
   3.59391E-09  3.83588E-09  4.04877E-09  4.23884E-09  4.38827E-09  4.50808E-09  4.57417E-09  4.60355E-09  4.57056E-09  4.48493E-09
   4.41413E-09  4.36691E-09  4.34064E-09  4.37238E-09  4.52897E-09  4.79802E-09  5.12265E-09  5.44536E-09  5.69897E-09  5.88066E-09
   6.03395E-09  6.15736E-09  6.22730E-09  6.24505E-09  6.17375E-09  6.02245E-09  5.89626E-09  5.82189E-09  5.78777E-09  5.77162E-09
   5.74426E-09  5.70916E-09  5.68100E-09  5.64337E-09  5.59060E-09  5.54919E-09  5.51519E-09  5.47504E-09  5.43704E-09  5.40836E-09
   5.38647E-09  5.36911E-09  5.35526E-09  5.34406E-09  5.33500E-09  5.32765E-09  5.32172E-09  5.31692E-09  5.31310E-09  5.31008E-09
   5.30772E-09  5.30593E-09  5.30461E-09  5.30369E-09  5.30313E-09  5.30283E-09  5.30278E-09  5.30297E-09  5.30327E-09  5.30375E-09
   5.30437E-09  5.30507E-09  5.30587E-09  5.30674E-09  5.30770E-09  5.30871E-09  5.30977E-09  5.31086E-09  5.31201E-09  5.31321E-09
   5.31444E-09  5.31571E-09  5.31705E-09  5.31841E-09  5.31982E-09  5.32123E-09  5.32261E-09  5.32396E-09  5.32523E-09  5.32641E-09
   5.32746E-09  5.32836E-09  5.32907E-09  5.32958E-09  5.32987E-09  5.32990E-09  5.32963E-09  5.32906E-09  5.32815E-09  5.32687E-09
   5.32519E-09  5.32310E-09  5.32054E-09  5.31752E-09  5.31398E-09  5.30989E-09  5.30525E-09  5.30001E-09  5.29415E-09  5.28763E-09
   5.28042E-09  5.27251E-09  5.26384E-09  5.25441E-09  5.24417E-09  5.23309E-09  5.22114E-09  5.20831E-09  5.19456E-09  5.17981E-09
   5.16412E-09  5.14738E-09  5.12959E-09  5.11072E-09  5.09073E-09  5.06960E-09  5.04729E-09  5.02378E-09  4.99902E-09  4.97301E-09
   4.94567E-09  4.91702E-09  4.88699E-09  4.85557E-09  4.82273E-09  4.78842E-09  4.75261E-09  4.71530E-09  4.67643E-09  4.63598E-09
   4.59392E-09  4.55020E-09  4.50482E-09  4.45774E-09  4.40893E-09  4.35833E-09  4.30598E-09  4.25179E-09  4.19575E-09  4.13782E-09
   4.07800E-09  4.01624E-09  3.95253E-09  3.88682E-09  3.81910E-09  3.74935E-09  3.67756E-09  3.60379E-09  3.52811E-09  3.45060E-09
   3.37133E-09  3.29037E-09  3.20779E-09  3.12370E-09  3.03816E-09  2.95128E-09  2.86317E-09  2.77394E-09  2.68376E-09  2.59281E-09
   2.50135E-09  2.40980E-09  2.31884E-09  2.22981E-09  2.14576E-09  2.07591E-09  2.06286E-09  2.23278E-09  2.44051E-09  2.56583E-09
   2.57211E-09  2.48656E-09  2.35541E-09  2.20774E-09  2.04441E-09  1.83869E-09  1.55502E-09  1.19282E-09  8.50392E-10  6.81965E-10
   5.55788E-10  4.42546E-10  3.35135E-10  2.31105E-10  1.29373E-10  2.94254E-11 -6.89914E-11 -1.65986E-10 -2.61663E-10 -3.56013E-10
  -4.49009E-10 -5.40658E-10 -6.30899E-10 -7.19697E-10 -8.06973E-10 -8.92700E-10 -9.76827E-10 -1.05925E-09 -1.13994E-09 -1.21885E-09
  -1.29589E-09 -1.37100E-09 -1.44413E-09 -1.51521E-09 -1.58419E-09 -1.65099E-09 -1.71556E-09 -1.77785E-09 -1.83780E-09 -1.89531E-09
  -1.95038E-09 -2.00292E-09 -2.05288E-09 -2.10021E-09 -2.14486E-09 -2.18676E-09 -2.22587E-09 -2.26214E-09 -2.29552E-09 -2.32605E-09
  -2.35379E-09 -2.37880E-09 -2.40115E-09 -2.42090E-09 -2.43811E-09 -2.45285E-09 -2.46519E-09 -2.47518E-09 -2.48289E-09 -2.48838E-09
  -2.49173E-09 -2.49299E-09 -2.49223E-09 -2.48951E-09 -2.48489E-09 -2.47845E-09 -2.47025E-09 -2.46034E-09 -2.44880E-09 -2.43568E-09
  -2.42105E-09 -2.40498E-09 -2.38753E-09 -2.36875E-09 -2.34871E-09 -2.32748E-09 -2.30511E-09 -2.28167E-09 -2.25722E-09 -2.23181E-09
  -2.20553E-09 -2.17840E-09 -2.15052E-09 -2.12190E-09 -2.09263E-09 -2.06277E-09 -2.03237E-09 -2.00149E-09 -1.97018E-09 -1.93850E-09
  -1.90650E-09 -1.87424E-09 -1.84178E-09 -1.80916E-09 -1.77643E-09 -1.74365E-09 -1.71088E-09 -1.67815E-09 -1.64552E-09 -1.61304E-09
  -1.58074E-09 -1.54869E-09 -1.51693E-09 -1.48548E-09 -1.45443E-09 -1.42378E-09 -1.39360E-09 -1.36392E-09 -1.33477E-09 -1.30620E-09
  -1.27826E-09 -1.25097E-09 -1.22438E-09 -1.19850E-09 -1.17339E-09 -1.14907E-09 -1.12558E-09 -1.10293E-09 -1.08118E-09 -1.06033E-09
  -1.04042E-09 -1.02146E-09 -1.00340E-09 -9.86233E-10 -9.69914E-10 -9.54425E-10 -9.39724E-10 -9.25791E-10 -9.12594E-10 -9.00105E-10
  -8.88298E-10 -8.77139E-10 -8.66609E-10 -8.56674E-10 -8.47306E-10 -8.38481E-10 -8.30176E-10 -8.22363E-10 -8.15011E-10 -8.08097E-10
  -8.01600E-10 -7.95489E-10 -7.89749E-10 -7.84344E-10 -7.79260E-10 -7.74467E-10 -7.69949E-10 -7.65676E-10 -7.61632E-10 -7.57795E-10
  -7.54143E-10 -7.50647E-10 -7.47300E-10 -7.44077E-10 -7.40955E-10 -7.37914E-10 -7.34947E-10 -7.32026E-10 -7.29139E-10 -7.26260E-10
  -7.23383E-10 -7.20487E-10 -7.17553E-10 -7.14570E-10 -7.11527E-10 -7.08405E-10 -7.05193E-10 -7.01874E-10 -6.98444E-10 -6.94876E-10
  -6.91177E-10 -6.87321E-10 -6.83309E-10 -6.79126E-10 -6.74755E-10 -6.70206E-10 -6.65456E-10 -6.60506E-10 -6.55342E-10 -6.49964E-10
  -6.44365E-10 -6.38535E-10 -6.32475E-10 -6.26178E-10 -6.19645E-10 -6.12866E-10 -6.05850E-10 -5.98584E-10 -5.91073E-10 -5.83317E-10
  -5.75313E-10 -5.67066E-10 -5.58579E-10
 Gln      Conc. = 2.31E-09
   2.56362E-09  3.01028E-09  3.56752E-09  4.18820E-09  4.79528E-09  5.32085E-09  5.71385E-09  5.94544E-09  6.03958E-09  6.08979E-09
   5.92547E-09  5.71381E-09  5.53129E-09  5.25384E-09  5.05514E-09  4.91493E-09  4.81089E-09  4.73065E-09  4.66701E-09  4.61542E-09
   4.57284E-09  4.53711E-09  4.50666E-09  4.48041E-09  4.45764E-09  4.43768E-09  4.41963E-09  4.40325E-09  4.38809E-09  4.37364E-09
   4.35963E-09  4.34580E-09  4.33190E-09  4.31776E-09  4.30315E-09  4.28793E-09  4.27185E-09  4.25474E-09  4.23633E-09  4.21647E-09
   4.19496E-09  4.17164E-09  4.14645E-09  4.11914E-09  4.08929E-09  4.05667E-09  4.02087E-09  3.98079E-09  3.93724E-09  3.89114E-09
   3.84148E-09  3.79125E-09  3.75027E-09  3.75169E-09  3.96262E-09  4.46754E-09  4.97295E-09  5.60265E-09  6.48024E-09  7.39302E-09
   8.15811E-09  8.78484E-09  9.22799E-09  9.42433E-09  9.32536E-09  8.96672E-09  8.54377E-09  8.06660E-09  7.34586E-09  6.74321E-09
   6.34852E-09  6.15514E-09  6.18687E-09  6.35134E-09  6.74450E-09  7.35890E-09  7.98657E-09  8.60224E-09  9.16492E-09  9.62378E-09
   9.93738E-09  1.00282E-08  9.87784E-09  9.68048E-09  9.38419E-09  8.88188E-09  8.46313E-09  8.11778E-09  7.73432E-09  7.43287E-09
   7.20491E-09  7.02492E-09  6.87847E-09  6.75524E-09  6.64836E-09  6.55485E-09  6.47208E-09  6.39766E-09  6.33030E-09  6.26874E-09
   6.21171E-09  6.15831E-09  6.10801E-09  6.06036E-09  6.01499E-09  5.97144E-09  5.92934E-09  5.88841E-09  5.84841E-09  5.80909E-09
   5.77032E-09  5.73189E-09  5.69364E-09  5.65545E-09  5.61718E-09  5.57873E-09  5.53998E-09  5.50084E-09  5.46119E-09  5.42100E-09
   5.38012E-09  5.33854E-09  5.29613E-09  5.25286E-09  5.20866E-09  5.16345E-09  5.11717E-09  5.06981E-09  5.02126E-09  4.97149E-09
   4.92046E-09  4.86810E-09  4.81439E-09  4.75927E-09  4.70269E-09  4.64459E-09  4.58500E-09  4.52381E-09  4.46101E-09  4.39655E-09
   4.33042E-09  4.26257E-09  4.19299E-09  4.12160E-09  4.04843E-09  3.97342E-09  3.89659E-09  3.81801E-09  3.73774E-09  3.65587E-09
   3.57250E-09  3.48773E-09  3.40165E-09  3.31442E-09  3.22617E-09  3.13710E-09  3.04744E-09  2.95750E-09  2.86770E-09  2.77865E-09
   2.69130E-09  2.60720E-09  2.52913E-09  2.46264E-09  2.42071E-09  2.44205E-09  2.70068E-09  3.77360E-09  5.03674E-09  5.94740E-09
   6.33147E-09  6.30317E-09  6.06732E-09  5.75633E-09  5.37826E-09  4.81774E-09  3.91562E-09  2.65848E-09  1.46393E-09  1.04365E-09
   8.21871E-10  6.58233E-10  5.19316E-10  3.93462E-10  2.75531E-10  1.62937E-10  5.42632E-11 -5.13069E-11 -1.54331E-10 -2.55103E-10
  -3.53804E-10 -4.50595E-10 -5.45524E-10 -6.38639E-10 -7.29925E-10 -8.19402E-10 -9.07059E-10 -9.92827E-10 -1.07669E-09 -1.15862E-09
  -1.23857E-09 -1.31648E-09 -1.39229E-09 -1.46597E-09 -1.53746E-09 -1.60670E-09 -1.67364E-09 -1.73823E-09 -1.80043E-09 -1.86013E-09
  -1.91734E-09 -1.97197E-09 -2.02398E-09 -2.07331E-09 -2.11993E-09 -2.16375E-09 -2.20475E-09 -2.24288E-09 -2.27808E-09 -2.31040E-09
  -2.33989E-09 -2.36664E-09 -2.39069E-09 -2.41212E-09 -2.43098E-09 -2.44735E-09 -2.46129E-09 -2.47286E-09 -2.48212E-09 -2.48915E-09
