 LCModel (Version 6.3-1R) Copyright: S.W. Provencher.          Ref.: Magn. Reson. Med. 30:672-679 (1993).                
 onepulse 16x20_ftSpec_smooth_lcm
 26 lines in following concentration table = NCONC+1
    Conc.  %SD   /Cr    Metabolite                                         
 1.05E-11 999%   0.000 Ala                                                 
 2.19E-10 258%   0.000 Asp                                                 
    0.000 999%   0.000 Cr                                                  
 2.52E-09  14%   0.000 GABA                                                
 1.27E-09  32%   0.000 Glc                                                 
    0.000 999%   0.000 Gln                                                 
    0.000 999%   0.000 Glu                                                 
    0.000 999%   0.000 Glyc                                                
 5.25E-11 868%   0.000 GPC                                                 
    0.000 999%   0.000 GSH                                                 
 3.35E-10  86%   0.000 Ins                                                 
    0.000 999%   0.000 Lac                                                 
    0.000 999%   0.000 NAAG                                                
 1.01E-09  16%   0.000 NAA                                                 
 7.35E-11 614%   0.000 PCh                                                 
    0.000 999%   0.000 PCr                                                 
    0.000 999%   0.000 PE                                                  
    0.000 999%   0.000 Scyllo                                              
 1.30E-09  61%   0.000 Ser                                                 
    0.000 999%   0.000 Tau                                                 
 1.26E-10  45%   0.000 GPC+PCh                                             
 1.01E-09  16%   0.000 NAA+NAAG                                            
 3.35E-10  86%   0.000 Ins+Glyc                                            
    0.000 999%   0.000 Cr+PCr                                              
    0.000 999%   0.000 Glu+Gln                                             
   6 lines in following misc. output table
  FWHM = 0.089 ppm    S/N =   4                                            
  Data shift = 0.347 ppm                                                   
  Ph:  50 deg      16.4 deg/ppm                                            
  alphaB,S = 1.7E-01,   4.0E+01                                            
   16 spline knots.   Ns = 5(1)                                            
  ( 9) 4 infls.   ( 5) 1 extrs.                                            
  363 points on ppm-axis = NY
      4.250000     4.238821     4.227641     4.216462     4.205282     4.194103     4.182923     4.171744     4.160564     4.149385
      4.138206     4.127026     4.115847     4.104667     4.093488     4.082308     4.071129     4.059949     4.048770     4.037591
      4.026411     4.015232     4.004052     3.992873     3.981693     3.970514     3.959334     3.948155     3.936975     3.925796
      3.914617     3.903437     3.892258     3.881078     3.869899     3.858719     3.847540     3.836360     3.825181     3.814002
      3.802822     3.791643     3.780463     3.769284     3.758104     3.746925     3.735745     3.724566     3.713387     3.702207
      3.691028     3.679848     3.668669     3.657489     3.646310     3.635130     3.623951     3.612772     3.601592     3.590413
      3.579233     3.568054     3.556874     3.545695     3.534515     3.523336     3.512156     3.500977     3.489798     3.478618
      3.467439     3.456259     3.445080     3.433900     3.422721     3.411541     3.400362     3.389183     3.378003     3.366824
      3.355644     3.344465     3.333285     3.322106     3.310926     3.299747     3.288568     3.277388     3.266209     3.255029
      3.243850     3.232670     3.221491     3.210311     3.199132     3.187953     3.176773     3.165594     3.154414     3.143235
      3.132055     3.120876     3.109696     3.098517     3.087337     3.076158     3.064979     3.053799     3.042620     3.031440
      3.020261     3.009081     2.997902     2.986722     2.975543     2.964364     2.953184     2.942005     2.930825     2.919646
      2.908466     2.897287     2.886107     2.874928     2.863749     2.852569     2.841390     2.830210     2.819031     2.807851
      2.796672     2.785492     2.774313     2.763134     2.751954     2.740775     2.729595     2.718416     2.707236     2.696057
      2.684877     2.673698     2.662519     2.651339     2.640160     2.628980     2.617801     2.606621     2.595442     2.584262
      2.573083     2.561903     2.550724     2.539545     2.528365     2.517186     2.506006     2.494827     2.483647     2.472468
      2.461288     2.450109     2.438930     2.427750     2.416571     2.405391     2.394212     2.383032     2.371853     2.360673
      2.349494     2.338315     2.327135     2.315956     2.304776     2.293597     2.282417     2.271238     2.260058     2.248879
      2.237700     2.226520     2.215341     2.204161     2.192982     2.181802     2.170623     2.159443     2.148264     2.137084
      2.125905     2.114726     2.103546     2.092367     2.081187     2.070008     2.058828     2.047649     2.036469     2.025290
      2.014111     2.002931     1.991752     1.980572     1.969393     1.958213     1.947034     1.935854     1.924675     1.913496
      1.902316     1.891137     1.879957     1.868778     1.857598     1.846419     1.835239     1.824060     1.812881     1.801701
      1.790522     1.779342     1.768163     1.756983     1.745804     1.734624     1.723445     1.712265     1.701086     1.689907
      1.678727     1.667548     1.656368     1.645189     1.634009     1.622830     1.611650     1.600471     1.589292     1.578112
      1.566933     1.555753     1.544574     1.533394     1.522215     1.511035     1.499856     1.488677     1.477497     1.466318
      1.455138     1.443959     1.432779     1.421600     1.410420     1.399241     1.388062     1.376882     1.365703     1.354523
      1.343344     1.332164     1.320985     1.309805     1.298626     1.287446     1.276267     1.265088     1.253908     1.242729
      1.231549     1.220370     1.209190     1.198011     1.186831     1.175652     1.164473     1.153293     1.142114     1.130934
      1.119755     1.108575     1.097396     1.086216     1.075037     1.063858     1.052678     1.041499     1.030319     1.019140
      1.007960     0.996781     0.985601     0.974422     0.963243     0.952063     0.940884     0.929704     0.918525     0.907345
      0.896166     0.884986     0.873807     0.862628     0.851448     0.840269     0.829089     0.817910     0.806730     0.795551
      0.784371     0.773192     0.762012     0.750833     0.739654     0.728474     0.717295     0.706115     0.694936     0.683756
      0.672577     0.661397     0.650218     0.639039     0.627859     0.616680     0.605500     0.594321     0.583141     0.571962
      0.560782     0.549603     0.538424     0.527244     0.516065     0.504885     0.493706     0.482526     0.471347     0.460167
      0.448988     0.437809     0.426629     0.415450     0.404270     0.393091     0.381911     0.370732     0.359552     0.348373
      0.337193     0.326014     0.314835     0.303655     0.292476     0.281296     0.270117     0.258937     0.247758     0.236578
      0.225399     0.214220     0.203040
 NY phased data points follow
   1.28605E-08  1.31994E-08  1.45439E-08  1.31237E-08  1.28550E-08  1.08749E-08  1.11903E-08  9.39551E-09  1.01552E-08  9.05534E-09
   1.00112E-08  9.60388E-09  1.02338E-08  9.21174E-09  1.05105E-08  1.04455E-08  1.06392E-08  1.00172E-08  1.09382E-08  9.57876E-09
   1.02771E-08  9.06835E-09  9.27920E-09  9.00718E-09  1.04051E-08  9.91525E-09  1.08434E-08  9.24619E-09  1.10104E-08  9.18498E-09
   9.60669E-09  9.82682E-09  1.17691E-08  1.20563E-08  1.20081E-08  1.22183E-08  1.07420E-08  9.63227E-09  9.25851E-09  7.82698E-09
   8.39223E-09  7.55350E-09  8.13457E-09  6.42611E-09  7.68885E-09  7.38082E-09  6.37333E-09  5.85744E-09  4.96325E-09  5.45506E-09
   6.41886E-09  5.26022E-09  6.28150E-09  5.80278E-09  6.63830E-09  5.26562E-09  5.90538E-09  5.17201E-09  4.98482E-09  4.53031E-09
   6.01668E-09  5.47328E-09  7.98233E-09  9.56320E-09  1.24582E-08  1.17416E-08  1.16942E-08  9.81913E-09  9.54382E-09  7.53147E-09
   8.29748E-09  6.36906E-09  6.43785E-09  5.42810E-09  5.91596E-09  4.01339E-09  5.11702E-09  5.70206E-09  6.77729E-09  7.96450E-09
   1.15838E-08  1.28517E-08  1.33759E-08  1.20562E-08  1.08160E-08  1.00894E-08  9.80382E-09  8.75482E-09  8.36399E-09  7.78960E-09
   7.88097E-09  7.60439E-09  7.53889E-09  6.20870E-09  6.80971E-09  5.13783E-09  6.06878E-09  4.88878E-09  4.93338E-09  4.75760E-09
   4.94523E-09  5.42871E-09  4.30160E-09  4.45242E-09  4.79713E-09  3.84208E-09  4.39115E-09  3.92170E-09  4.21229E-09  2.57827E-09
   3.38929E-09  2.40249E-09  2.32613E-09  3.00617E-09  3.15695E-09  3.38706E-09  3.25841E-09  3.67770E-09  4.55958E-09  3.63328E-09
   3.88336E-09  3.49091E-09  4.53037E-09  3.05643E-09  2.88983E-09  2.32076E-09  2.20218E-09  1.68124E-09  2.27540E-09  2.53307E-09
   2.81024E-09  1.94042E-09  2.96459E-09  2.96618E-09  2.98700E-09  1.73999E-09  2.43893E-09  2.02709E-09  2.20979E-09  2.70206E-09
   3.37811E-09  3.85372E-09  4.29755E-09  3.25421E-09  3.39358E-09  3.62290E-09  4.05860E-09  4.55779E-09  4.22790E-09  4.39749E-09
   3.92703E-09  3.75274E-09  4.31854E-09  3.94875E-09  4.12614E-09  3.74060E-09  3.82443E-09  3.90653E-09  4.05775E-09  4.35642E-09
   4.23558E-09  4.33968E-09  4.51494E-09  3.48254E-09  3.54480E-09  4.05967E-09  4.21155E-09  4.56160E-09  6.25023E-09  8.02943E-09
   1.01018E-08  1.32612E-08  1.51805E-08  1.43833E-08  1.23485E-08  9.76987E-09  8.00205E-09  7.41237E-09  6.67067E-09  5.20914E-09
   4.93450E-09  4.12231E-09  3.85316E-09  2.16285E-09  2.93650E-09  1.01655E-09  4.75629E-10 -6.44486E-10 -1.56351E-09 -2.25754E-09
  -2.93288E-09 -4.46877E-09 -5.82652E-09 -6.69390E-09 -7.96233E-09 -8.66202E-09 -9.90545E-09 -1.10639E-08 -1.18930E-08 -1.21091E-08
  -1.23195E-08 -1.27706E-08 -1.14116E-08 -1.23875E-08 -1.15296E-08 -1.07187E-08 -8.79228E-09 -8.73620E-09 -6.86511E-09 -6.47142E-09
  -5.31938E-09 -3.85858E-09 -3.10792E-09 -1.83650E-09 -1.20930E-09 -9.83642E-10 -1.07542E-09 -1.62339E-09 -6.71789E-10 -1.61509E-09
  -1.44288E-09 -1.63613E-09 -1.06847E-09 -2.12630E-09 -9.46945E-10 -1.22055E-09 -8.38134E-10 -4.85430E-10 -1.22146E-09 -3.42325E-10
  -1.28276E-09 -1.87740E-09 -1.17542E-09 -1.61612E-09 -1.31307E-09 -9.75002E-10 -4.88876E-10 -4.61833E-10 -8.11296E-10 -7.91483E-10
  -7.15285E-10 -6.56442E-10 -9.66388E-10 -1.35765E-09 -1.36949E-09 -7.13634E-10 -1.07006E-09 -9.65008E-10 -7.28446E-10 -4.03482E-10
  -4.71111E-10 -1.05674E-10 -2.88949E-10  4.87123E-10 -2.01067E-10 -6.35038E-10 -1.32253E-10 -1.00235E-09 -6.26500E-10 -5.08363E-10
  -1.05977E-09 -1.42203E-09 -9.26319E-10 -1.59579E-09 -1.26424E-09 -1.05057E-09 -9.23616E-10 -3.69798E-10 -2.73248E-10  5.26909E-11
   1.87151E-10  5.45528E-11  9.44720E-11  6.13796E-10  6.45566E-10  2.81819E-10  6.00167E-10  1.45439E-10  1.94959E-10  6.45346E-11
  -2.46283E-11 -8.19726E-10 -1.30812E-10 -6.09251E-10 -8.25647E-10 -1.18669E-10  1.91930E-11 -6.25907E-10 -5.94887E-10 -4.36247E-10
  -4.63864E-10 -1.48659E-09 -7.62451E-10 -3.93679E-10 -9.21481E-10 -3.61791E-10 -8.01974E-10 -1.00239E-09 -1.25329E-09 -3.05116E-10
  -6.56228E-10 -9.17324E-10 -5.28766E-10 -6.70596E-10 -8.56327E-10 -4.66902E-10 -6.16946E-10 -4.96744E-10 -6.05487E-10 -1.75276E-10
  -4.42631E-10 -5.46332E-10 -3.94462E-10 -3.70631E-10  2.99987E-10 -5.97399E-10 -4.56630E-10 -6.76907E-10  3.54736E-11 -4.72923E-10
  -1.54047E-10 -2.18431E-10  3.21478E-10 -7.04238E-10  2.48175E-10 -1.91245E-10  2.40017E-10  3.20582E-11  3.28660E-10  6.44955E-11
   3.60251E-10 -7.54755E-11  2.55264E-10  2.45521E-10 -1.39729E-10  9.38978E-10  4.18153E-10  6.59095E-11  1.25016E-09  5.77462E-10
   5.53846E-10  2.27277E-10  9.75227E-10  3.40026E-10  5.93665E-10  5.77172E-10  7.25514E-10  2.59235E-10  5.18065E-10  2.51218E-10
   1.14634E-09  9.24094E-10  6.28167E-10  5.45692E-10  1.04656E-09  6.78219E-10  9.55554E-10  7.03152E-10  8.29357E-10  7.99116E-10
   1.43243E-09  3.76295E-10  1.40352E-09
 NY points of the fit to the data follow
   1.44972E-08  1.37880E-08  1.29653E-08  1.23840E-08  1.18770E-08  1.12229E-08  1.04406E-08  9.92642E-09  9.68361E-09  9.49314E-09
   9.54062E-09  9.66333E-09  9.80802E-09  1.00160E-08  1.02313E-08  1.03909E-08  1.05948E-08  1.08274E-08  1.08463E-08  1.06072E-08
   1.02984E-08  9.89907E-09  9.47523E-09  9.30942E-09  9.26755E-09  9.26574E-09  9.49023E-09  9.91883E-09  1.03300E-08  1.06085E-08
   1.06119E-08  1.06986E-08  1.09960E-08  1.09874E-08  1.06874E-08  1.07255E-08  1.07970E-08  1.05640E-08  9.98818E-09  9.21998E-09
   8.56557E-09  8.01667E-09  7.03693E-09  6.27413E-09  6.15927E-09  5.93748E-09  5.65174E-09  5.61371E-09  5.65521E-09  5.68325E-09
   5.73819E-09  5.82017E-09  5.93289E-09  6.00633E-09  6.04178E-09  6.06023E-09  6.12254E-09  6.20051E-09  6.28077E-09  6.38808E-09
   6.64963E-09  7.09523E-09  7.57592E-09  8.07826E-09  8.94438E-09  9.66001E-09  1.00028E-08  1.02120E-08  1.02391E-08  9.95701E-09
   9.40649E-09  8.56868E-09  7.69122E-09  7.19722E-09  6.56326E-09  5.78792E-09  5.94628E-09  6.90055E-09  7.82687E-09  9.04068E-09
   1.03974E-08  1.14671E-08  1.20497E-08  1.19301E-08  1.12416E-08  1.05962E-08  9.98828E-09  8.90827E-09  7.50995E-09  7.15676E-09
   6.99736E-09  6.96662E-09  6.74527E-09  6.19029E-09  5.88167E-09  5.66727E-09  5.16757E-09  4.80779E-09  4.62774E-09  4.41390E-09
   4.24849E-09  4.14266E-09  4.07127E-09  4.02291E-09  3.98643E-09  3.95601E-09  3.92976E-09  3.90628E-09  3.88401E-09  3.86079E-09
   3.83535E-09  3.81160E-09  3.79451E-09  3.77553E-09  3.75539E-09  3.74032E-09  3.72641E-09  3.71262E-09  3.69855E-09  3.68395E-09
   3.66868E-09  3.65261E-09  3.63560E-09  3.61753E-09  3.59831E-09  3.57785E-09  3.55604E-09  3.53284E-09  3.50815E-09  3.48191E-09
   3.45403E-09  3.42445E-09  3.39310E-09  3.35990E-09  3.32481E-09  3.28775E-09  3.24866E-09  3.20749E-09  3.16417E-09  3.11865E-09
   3.07084E-09  3.02075E-09  2.96833E-09  2.91352E-09  2.85630E-09  2.79665E-09  2.73455E-09  2.66999E-09  2.60297E-09  2.53351E-09
   2.46164E-09  2.38741E-09  2.31094E-09  2.23235E-09  2.15185E-09  2.06973E-09  1.98642E-09  1.90253E-09  1.81900E-09  1.73722E-09
   1.65943E-09  1.58938E-09  1.53373E-09  1.50562E-09  1.53532E-09  1.71292E-09  2.44342E-09  4.23550E-09  6.57522E-09  9.16203E-09
   1.18734E-08  1.40712E-08  1.49767E-08  1.43360E-08  1.26277E-08  1.05694E-08  8.23961E-09  5.11360E-09  1.80987E-09  1.54734E-10
  -4.91437E-10 -8.79077E-10 -1.16632E-09 -1.40292E-09 -1.60943E-09 -1.79580E-09 -1.96732E-09 -2.12698E-09 -2.27650E-09 -2.41689E-09
  -2.54870E-09 -2.67221E-09 -2.78750E-09 -2.89449E-09 -2.99306E-09 -3.08300E-09 -3.16420E-09 -3.23691E-09 -3.30147E-09 -3.35819E-09
  -3.40735E-09 -3.44924E-09 -3.48412E-09 -3.51226E-09 -3.53391E-09 -3.54932E-09 -3.55873E-09 -3.56239E-09 -3.56053E-09 -3.55339E-09
  -3.54120E-09 -3.52419E-09 -3.50260E-09 -3.47666E-09 -3.44658E-09 -3.41261E-09 -3.37496E-09 -3.33386E-09 -3.28954E-09 -3.24222E-09
  -3.19211E-09 -3.13945E-09 -3.08446E-09 -3.02735E-09 -2.96833E-09 -2.90757E-09 -2.84520E-09 -2.78138E-09 -2.71626E-09 -2.65001E-09
  -2.58276E-09 -2.51467E-09 -2.44589E-09 -2.37657E-09 -2.30686E-09 -2.23692E-09 -2.16688E-09 -2.09691E-09 -2.02714E-09 -1.95774E-09
  -1.88885E-09 -1.82061E-09 -1.75318E-09 -1.68672E-09 -1.62134E-09 -1.55721E-09 -1.49449E-09 -1.43330E-09 -1.37381E-09 -1.31616E-09
  -1.26047E-09 -1.20693E-09 -1.15558E-09 -1.10637E-09 -1.05925E-09 -1.01418E-09 -9.71087E-10 -9.29940E-10 -8.90674E-10 -8.53242E-10
  -8.17593E-10 -7.83667E-10 -7.51423E-10 -7.20798E-10 -6.91751E-10 -6.64224E-10 -6.38154E-10 -6.13515E-10 -5.90242E-10 -5.68276E-10
  -5.47569E-10 -5.28080E-10 -5.09742E-10 -4.92510E-10 -4.76343E-10 -4.61166E-10 -4.46954E-10 -4.33640E-10 -4.21179E-10 -4.09513E-10
  -3.98596E-10 -3.88376E-10 -3.78797E-10 -3.69806E-10 -3.61357E-10 -3.53391E-10 -3.45861E-10 -3.38711E-10 -3.31890E-10 -3.25349E-10
  -3.19034E-10 -3.12893E-10 -3.06876E-10 -3.00931E-10 -2.95007E-10 -2.89053E-10 -2.83018E-10 -2.76850E-10 -2.70505E-10 -2.63920E-10
  -2.57057E-10 -2.49858E-10 -2.42275E-10 -2.34263E-10 -2.25766E-10 -2.16734E-10 -2.07124E-10 -1.96882E-10 -1.86006E-10 -1.74514E-10
  -1.62421E-10 -1.49746E-10 -1.36506E-10 -1.22715E-10 -1.08394E-10 -9.35580E-11 -7.82246E-11 -6.24109E-11 -4.61345E-11 -2.94101E-11
  -1.22587E-11  5.30748E-12  2.32698E-11  4.16083E-11  6.03118E-11  7.93576E-11  9.87334E-11  1.18422E-10  1.38405E-10  1.58665E-10
   1.79190E-10  1.99959E-10  2.20959E-10  2.42169E-10  2.63576E-10  2.85165E-10  3.06922E-10  3.28836E-10  3.50899E-10  3.73099E-10
   3.95426E-10  4.17871E-10  4.40422E-10  4.63069E-10  4.85801E-10  5.08612E-10  5.31485E-10  5.54415E-10  5.77390E-10  6.00400E-10
   6.23438E-10  6.46488E-10  6.69545E-10  6.92597E-10  7.15635E-10  7.38648E-10  7.61627E-10  7.84563E-10  8.07445E-10  8.30262E-10
   8.53006E-10  8.75667E-10  8.98238E-10
 NY background values follow
     4.537E-09    4.522E-09    4.507E-09    4.492E-09    4.476E-09    4.461E-09    4.446E-09    4.430E-09    4.415E-09    4.400E-09
     4.384E-09    4.369E-09    4.353E-09    4.337E-09    4.322E-09    4.306E-09    4.290E-09    4.275E-09    4.259E-09    4.243E-09
     4.227E-09    4.211E-09    4.195E-09    4.179E-09    4.163E-09    4.147E-09    4.131E-09    4.115E-09    4.098E-09    4.082E-09
     4.065E-09    4.049E-09    4.032E-09    4.016E-09    4.000E-09    3.983E-09    3.967E-09    3.951E-09    3.935E-09    3.919E-09
     3.903E-09    3.887E-09    3.872E-09    3.857E-09    3.842E-09    3.827E-09    3.813E-09    3.798E-09    3.785E-09    3.771E-09
     3.758E-09    3.745E-09    3.732E-09    3.720E-09    3.709E-09    3.698E-09    3.687E-09    3.676E-09    3.667E-09    3.657E-09
     3.648E-09    3.640E-09    3.632E-09    3.624E-09    3.616E-09    3.609E-09    3.602E-09    3.595E-09    3.589E-09    3.583E-09
     3.577E-09    3.571E-09    3.566E-09    3.561E-09    3.555E-09    3.550E-09    3.545E-09    3.541E-09    3.536E-09    3.531E-09
     3.526E-09    3.522E-09    3.517E-09    3.512E-09    3.507E-09    3.503E-09    3.498E-09    3.493E-09    3.487E-09    3.482E-09
     3.477E-09    3.471E-09    3.465E-09    3.459E-09    3.453E-09    3.447E-09    3.440E-09    3.433E-09    3.426E-09    3.419E-09
     3.411E-09    3.403E-09    3.394E-09    3.386E-09    3.377E-09    3.367E-09    3.357E-09    3.347E-09    3.336E-09    3.325E-09
     3.313E-09    3.301E-09    3.288E-09    3.275E-09    3.261E-09    3.247E-09    3.232E-09    3.216E-09    3.199E-09    3.181E-09
     3.162E-09    3.143E-09    3.122E-09    3.099E-09    3.076E-09    3.051E-09    3.025E-09    2.997E-09    2.968E-09    2.937E-09
     2.905E-09    2.871E-09    2.835E-09    2.797E-09    2.757E-09    2.716E-09    2.672E-09    2.626E-09    2.578E-09    2.527E-09
     2.475E-09    2.420E-09    2.362E-09    2.302E-09    2.240E-09    2.175E-09    2.107E-09    2.036E-09    1.963E-09    1.887E-09
     1.808E-09    1.726E-09    1.641E-09    1.553E-09    1.462E-09    1.367E-09    1.270E-09    1.169E-09    1.064E-09    9.568E-10
     8.457E-10    7.311E-10    6.129E-10    4.911E-10    3.656E-10    2.363E-10    1.032E-10   -3.367E-11   -1.744E-10   -3.187E-10
    -4.660E-10   -6.160E-10   -7.683E-10   -9.223E-10   -1.078E-09   -1.234E-09   -1.391E-09   -1.548E-09   -1.704E-09   -1.860E-09
    -2.014E-09   -2.167E-09   -2.318E-09   -2.466E-09   -2.612E-09   -2.754E-09   -2.892E-09   -3.026E-09   -3.155E-09   -3.279E-09
    -3.398E-09   -3.510E-09   -3.617E-09   -3.716E-09   -3.809E-09   -3.893E-09   -3.970E-09   -4.039E-09   -4.100E-09   -4.154E-09
    -4.201E-09   -4.241E-09   -4.274E-09   -4.301E-09   -4.321E-09   -4.335E-09   -4.344E-09   -4.347E-09   -4.344E-09   -4.337E-09
    -4.324E-09   -4.307E-09   -4.285E-09   -4.259E-09   -4.229E-09   -4.195E-09   -4.157E-09   -4.116E-09   -4.072E-09   -4.025E-09
    -3.975E-09   -3.922E-09   -3.867E-09   -3.810E-09   -3.752E-09   -3.691E-09   -3.629E-09   -3.565E-09   -3.500E-09   -3.434E-09
    -3.367E-09   -3.300E-09   -3.231E-09   -3.162E-09   -3.093E-09   -3.023E-09   -2.953E-09   -2.883E-09   -2.814E-09   -2.745E-09
    -2.676E-09   -2.608E-09   -2.541E-09   -2.475E-09   -2.410E-09   -2.346E-09   -2.283E-09   -2.222E-09   -2.163E-09   -2.105E-09
    -2.050E-09   -1.996E-09   -1.945E-09   -1.896E-09   -1.849E-09   -1.804E-09   -1.761E-09   -1.720E-09   -1.681E-09   -1.644E-09
    -1.608E-09   -1.574E-09   -1.542E-09   -1.512E-09   -1.483E-09   -1.455E-09   -1.429E-09   -1.405E-09   -1.381E-09   -1.359E-09
    -1.339E-09   -1.319E-09   -1.301E-09   -1.283E-09   -1.267E-09   -1.252E-09   -1.238E-09   -1.224E-09   -1.212E-09   -1.200E-09
    -1.189E-09   -1.179E-09   -1.169E-09   -1.160E-09   -1.151E-09   -1.143E-09   -1.135E-09   -1.128E-09   -1.121E-09   -1.114E-09
    -1.108E-09   -1.101E-09   -1.095E-09   -1.089E-09   -1.083E-09   -1.076E-09   -1.070E-09   -1.064E-09   -1.057E-09   -1.050E-09
    -1.043E-09   -1.035E-09   -1.027E-09   -1.019E-09   -1.010E-09   -1.001E-09   -9.907E-10   -9.801E-10   -9.688E-10   -9.569E-10
    -9.444E-10   -9.313E-10   -9.176E-10   -9.033E-10   -8.885E-10   -8.732E-10   -8.574E-10   -8.411E-10   -8.243E-10   -8.071E-10
    -7.894E-10   -7.713E-10   -7.528E-10   -7.339E-10   -7.146E-10   -6.950E-10   -6.751E-10   -6.548E-10   -6.342E-10   -6.133E-10
    -5.922E-10   -5.708E-10   -5.491E-10   -5.273E-10   -5.052E-10   -4.830E-10   -4.605E-10   -4.379E-10   -4.152E-10   -3.923E-10
    -3.692E-10   -3.460E-10   -3.228E-10   -2.994E-10   -2.759E-10   -2.523E-10   -2.287E-10   -2.050E-10   -1.812E-10   -1.574E-10
    -1.335E-10   -1.097E-10   -8.579E-11   -6.190E-11   -3.802E-11   -1.416E-11    9.684E-12    3.349E-11    5.725E-11    8.096E-11
     1.046E-10    1.282E-10    1.517E-10
 Ala      Conc. = 1.05E-11
   4.54646E-09  4.53165E-09  4.51655E-09  4.50123E-09  4.48564E-09  4.46994E-09  4.45374E-09  4.43692E-09  4.42072E-09  4.40472E-09
   4.38779E-09  4.37132E-09  4.35550E-09  4.33936E-09  4.32331E-09  4.30745E-09  4.29164E-09  4.27584E-09  4.26002E-09  4.24416E-09
   4.22827E-09  4.21232E-09  4.19635E-09  4.18031E-09  4.16421E-09  4.14808E-09  4.13188E-09  4.11562E-09  4.09930E-09  4.08293E-09
   4.06652E-09  4.05008E-09  4.03364E-09  4.01723E-09  4.00084E-09  3.98451E-09  3.96826E-09  3.95210E-09  3.93605E-09  3.92012E-09
   3.90436E-09  3.88875E-09  3.87334E-09  3.85813E-09  3.84316E-09  3.82842E-09  3.81396E-09  3.79979E-09  3.78590E-09  3.77235E-09
   3.75915E-09  3.74630E-09  3.73385E-09  3.72179E-09  3.71019E-09  3.69899E-09  3.68825E-09  3.67799E-09  3.66818E-09  3.65881E-09
   3.64985E-09  3.64128E-09  3.63310E-09  3.62526E-09  3.61777E-09  3.61061E-09  3.60374E-09  3.59715E-09  3.59083E-09  3.58475E-09
   3.57889E-09  3.57324E-09  3.56778E-09  3.56249E-09  3.55734E-09  3.55233E-09  3.54743E-09  3.54261E-09  3.53787E-09  3.53319E-09
   3.52853E-09  3.52390E-09  3.51924E-09  3.51458E-09  3.50986E-09  3.50510E-09  3.50026E-09  3.49534E-09  3.49032E-09  3.48519E-09
   3.47996E-09  3.47458E-09  3.46908E-09  3.46345E-09  3.45769E-09  3.45183E-09  3.44591E-09  3.44006E-09  3.43453E-09  3.43022E-09
   3.42818E-09  3.42548E-09  3.42311E-09  3.42268E-09  3.42030E-09  3.41461E-09  3.40632E-09  3.39581E-09  3.38274E-09  3.36570E-09
   3.34440E-09  3.32311E-09  3.30712E-09  3.28815E-09  3.26708E-09  3.25021E-09  3.23396E-09  3.21741E-09  3.20021E-09  3.18220E-09
   3.16327E-09  3.14331E-09  3.12225E-09  3.10002E-09  3.07653E-09  3.05173E-09  3.02553E-09  2.99788E-09  2.96870E-09  2.93794E-09
   2.90551E-09  2.87136E-09  2.83542E-09  2.79761E-09  2.75790E-09  2.71618E-09  2.67241E-09  2.62652E-09  2.57845E-09  2.52812E-09
   2.47545E-09  2.42041E-09  2.36294E-09  2.30298E-09  2.24047E-09  2.17534E-09  2.10756E-09  2.03704E-09  1.96375E-09  1.88762E-09
   1.80860E-09  1.72661E-09  1.64163E-09  1.55358E-09  1.46241E-09  1.36806E-09  1.27049E-09  1.16961E-09  1.06541E-09  9.57796E-10
   8.46734E-10  7.32166E-10  6.14068E-10  4.92369E-10  3.67083E-10  2.38274E-10  1.06471E-10 -2.69382E-11 -1.63648E-10 -3.03505E-10
  -4.46082E-10 -5.92233E-10 -7.42918E-10 -8.98052E-10 -1.05622E-09 -1.21560E-09 -1.37576E-09 -1.53758E-09 -1.69984E-09 -1.85719E-09
  -2.01231E-09 -2.16549E-09 -2.31645E-09 -2.46485E-09 -2.61025E-09 -2.75226E-09 -2.89046E-09 -3.02442E-09 -3.15370E-09 -3.27789E-09
  -3.39656E-09 -3.50929E-09 -3.61565E-09 -3.71519E-09 -3.80751E-09 -3.89219E-09 -3.96891E-09 -4.03783E-09 -4.09915E-09 -4.15311E-09
  -4.19992E-09 -4.23980E-09 -4.27297E-09 -4.29965E-09 -4.32006E-09 -4.33442E-09 -4.34295E-09 -4.34587E-09 -4.34341E-09 -4.33577E-09
  -4.32319E-09 -4.30588E-09 -4.28406E-09 -4.25795E-09 -4.22777E-09 -4.19375E-09 -4.15609E-09 -4.11503E-09 -4.07078E-09 -4.02355E-09
  -3.97358E-09 -3.92107E-09 -3.86625E-09 -3.80934E-09 -3.75053E-09 -3.68998E-09 -3.62785E-09 -3.56427E-09 -3.49940E-09 -3.43340E-09
  -3.36641E-09 -3.29858E-09 -3.23007E-09 -3.16101E-09 -3.09157E-09 -3.02188E-09 -2.95211E-09 -2.88240E-09 -2.81288E-09 -2.74374E-09
  -2.67510E-09 -2.60710E-09 -2.53991E-09 -2.47367E-09 -2.40852E-09 -2.34461E-09 -2.28209E-09 -2.22111E-09 -2.16181E-09 -2.10435E-09
  -2.04885E-09 -1.99548E-09 -1.94429E-09 -1.89523E-09 -1.84825E-09 -1.80332E-09 -1.76036E-09 -1.71932E-09 -1.68017E-09 -1.64283E-09
  -1.60727E-09 -1.57342E-09 -1.54125E-09 -1.51068E-09 -1.48168E-09 -1.45419E-09 -1.42815E-09 -1.40353E-09 -1.38026E-09 -1.35830E-09
  -1.33758E-09 -1.31806E-09 -1.29969E-09 -1.28241E-09 -1.26619E-09 -1.25095E-09 -1.23666E-09 -1.22326E-09 -1.21070E-09 -1.19893E-09
  -1.18790E-09 -1.17755E-09 -1.16783E-09 -1.15869E-09 -1.15008E-09 -1.14195E-09 -1.13424E-09 -1.12690E-09 -1.11987E-09 -1.11312E-09
  -1.10658E-09 -1.10021E-09 -1.09395E-09 -1.08775E-09 -1.08157E-09 -1.07534E-09 -1.06902E-09 -1.06256E-09 -1.05591E-09 -1.04901E-09
  -1.04182E-09 -1.03429E-09 -1.02636E-09 -1.01799E-09 -1.00913E-09 -9.99722E-10 -9.89725E-10 -9.79087E-10 -9.67807E-10 -9.55899E-10
  -9.43380E-10 -9.30269E-10 -9.16584E-10 -9.02337E-10 -8.87551E-10 -8.72240E-10 -8.56422E-10 -8.40113E-10 -8.23332E-10 -8.06093E-10
  -7.88418E-10 -7.70318E-10 -7.51812E-10 -7.32921E-10 -7.13655E-10 -6.94037E-10 -6.74079E-10 -6.53799E-10 -6.33214E-10 -6.12344E-10
  -5.91199E-10 -5.69800E-10 -5.48162E-10 -5.26302E-10 -5.04238E-10 -4.81981E-10 -4.59547E-10 -4.36947E-10 -4.14188E-10 -3.91283E-10
  -3.68242E-10 -3.45074E-10 -3.21791E-10 -2.98401E-10 -2.74919E-10 -2.51348E-10 -2.27705E-10 -2.03997E-10 -1.80234E-10 -1.56426E-10
  -1.32583E-10 -1.08717E-10 -8.48359E-11 -6.09505E-11 -3.70701E-11 -1.32061E-11  1.06332E-11  3.44388E-11  5.81993E-11  8.19038E-11
   1.05544E-10  1.29110E-10  1.52596E-10
 Asp      Conc. = 2.19E-10
   4.75930E-09  4.69855E-09  4.64697E-09  4.59202E-09  4.55012E-09  4.50829E-09  4.46969E-09  4.44188E-09  4.42354E-09  4.40796E-09
   4.39338E-09  4.37921E-09  4.36528E-09  4.35150E-09  4.33752E-09  4.32343E-09  4.30928E-09  4.29511E-09  4.28090E-09  4.26667E-09
   4.25243E-09  4.23820E-09  4.22399E-09  4.20982E-09  4.19570E-09  4.18169E-09  4.16779E-09  4.15405E-09  4.14054E-09  4.12732E-09
   4.11452E-09  4.10229E-09  4.09088E-09  4.08063E-09  4.07219E-09  4.06679E-09  4.06673E-09  4.06756E-09  4.07151E-09  4.07261E-09
   4.06895E-09  4.06087E-09  4.05294E-09  4.05005E-09  4.06168E-09  4.08829E-09  4.11215E-09  4.13146E-09  4.15598E-09  4.15569E-09
   4.13792E-09  4.10758E-09  4.06708E-09  4.01158E-09  3.94428E-09  3.87177E-09  3.81939E-09  3.80054E-09  3.77397E-09  3.73491E-09
   3.71858E-09  3.70300E-09  3.68201E-09  3.67012E-09  3.66107E-09  3.64544E-09  3.62506E-09  3.61172E-09  3.60152E-09  3.59298E-09
   3.58549E-09  3.57871E-09  3.57246E-09  3.56662E-09  3.56109E-09  3.55582E-09  3.55074E-09  3.54582E-09  3.54102E-09  3.53632E-09
   3.53166E-09  3.52706E-09  3.52244E-09  3.51782E-09  3.51314E-09  3.50843E-09  3.50363E-09  3.49873E-09  3.49373E-09  3.48859E-09
   3.48332E-09  3.47788E-09  3.47226E-09  3.46645E-09  3.46044E-09  3.45418E-09  3.44770E-09  3.44095E-09  3.43393E-09  3.42663E-09
   3.41901E-09  3.41108E-09  3.40280E-09  3.39418E-09  3.38518E-09  3.37579E-09  3.36602E-09  3.35581E-09  3.34518E-09  3.33410E-09
   3.32256E-09  3.31054E-09  3.29801E-09  3.28494E-09  3.27127E-09  3.25692E-09  3.24183E-09  3.22594E-09  3.20919E-09  3.19149E-09
   3.17279E-09  3.15302E-09  3.13211E-09  3.11001E-09  3.08664E-09  3.06195E-09  3.03585E-09  3.00829E-09  2.97921E-09  2.94853E-09
   2.91618E-09  2.88211E-09  2.84625E-09  2.80852E-09  2.76888E-09  2.72724E-09  2.68355E-09  2.63774E-09  2.58974E-09  2.53949E-09
   2.48690E-09  2.43195E-09  2.37457E-09  2.31470E-09  2.25228E-09  2.18725E-09  2.11957E-09  2.04917E-09  1.97600E-09  1.90000E-09
   1.82112E-09  1.73931E-09  1.65451E-09  1.56667E-09  1.47575E-09  1.38169E-09  1.28447E-09  1.18402E-09  1.08035E-09  9.73419E-10
   8.63253E-10  7.49907E-10  6.33549E-10  5.14490E-10  3.93604E-10  2.73425E-10  1.65174E-10  1.00335E-10  4.33142E-11 -9.69577E-12
  -5.78498E-11 -1.26879E-10 -2.45683E-10 -4.21829E-10 -6.34956E-10 -8.55214E-10 -1.08104E-09 -1.33967E-09 -1.61716E-09 -1.80774E-09
  -1.97536E-09 -2.13497E-09 -2.28982E-09 -2.44078E-09 -2.58801E-09 -2.73136E-09 -2.87058E-09 -3.00534E-09 -3.13526E-09 -3.25997E-09
  -3.37907E-09 -3.49216E-09 -3.59882E-09 -3.69862E-09 -3.79117E-09 -3.87603E-09 -3.95292E-09 -4.02198E-09 -4.08344E-09 -4.13751E-09
  -4.18442E-09 -4.22438E-09 -4.25763E-09 -4.28438E-09 -4.30486E-09 -4.31927E-09 -4.32786E-09 -4.33082E-09 -4.32840E-09 -4.32080E-09
  -4.30826E-09 -4.29098E-09 -4.26918E-09 -4.24310E-09 -4.21295E-09 -4.17895E-09 -4.14131E-09 -4.10027E-09 -4.05603E-09 -4.00882E-09
  -3.95886E-09 -3.90637E-09 -3.85156E-09 -3.79466E-09 -3.73586E-09 -3.67532E-09 -3.61320E-09 -3.54963E-09 -3.48477E-09 -3.41877E-09
