 LCModel (Version 6.3-1R) Copyright: S.W. Provencher.          Ref.: Magn. Reson. Med. 30:672-679 (1993).                
 onepulse 16x21_ftSpec_smooth_lcm
 26 lines in following concentration table = NCONC+1
    Conc.  %SD   /Cr    Metabolite                                         
 2.09E-11 999%   0.000 Ala                                                 
 2.14E-10 249%   0.000 Asp                                                 
    0.000 999%   0.000 Cr                                                  
 2.54E-09  13%   0.000 GABA                                                
 1.35E-09  29%   0.000 Glc                                                 
    0.000 999%   0.000 Gln                                                 
    0.000 999%   0.000 Glu                                                 
    0.000 999%   0.000 Glyc                                                
    0.000 999%   0.000 GPC                                                 
    0.000 999%   0.000 GSH                                                 
 3.64E-10  71%   0.000 Ins                                                 
    0.000 999%   0.000 Lac                                                 
    0.000 999%   0.000 NAAG                                                
 1.05E-09  16%   0.000 NAA                                                 
 1.30E-10  46%   0.000 PCh                                                 
    0.000 999%   0.000 PCr                                                 
    0.000 999%   0.000 PE                                                  
    0.000 999%   0.000 Scyllo                                              
 1.18E-09  52%   0.000 Ser                                                 
    0.000 999%   0.000 Tau                                                 
 1.30E-10  46%   0.000 GPC+PCh                                             
 1.05E-09  16%   0.000 NAA+NAAG                                            
 3.64E-10  71%   0.000 Ins+Glyc                                            
    0.000 999%   0.000 Cr+PCr                                              
    0.000 999%   0.000 Glu+Gln                                             
   6 lines in following misc. output table
  FWHM = 0.089 ppm    S/N =   3                                            
  Data shift = 0.347 ppm                                                   
  Ph:  45 deg      13.2 deg/ppm                                            
  alphaB,S = 1.7E-01,   6.3E+01                                            
   16 spline knots.   Ns = 5(1)                                            
  ( 9) 2 infls.   ( 9) 1 extrs.                                            
  363 points on ppm-axis = NY
      4.250000     4.238821     4.227641     4.216462     4.205282     4.194103     4.182923     4.171744     4.160564     4.149385
      4.138206     4.127026     4.115847     4.104667     4.093488     4.082308     4.071129     4.059949     4.048770     4.037591
      4.026411     4.015232     4.004052     3.992873     3.981693     3.970514     3.959334     3.948155     3.936975     3.925796
      3.914617     3.903437     3.892258     3.881078     3.869899     3.858719     3.847540     3.836360     3.825181     3.814002
      3.802822     3.791643     3.780463     3.769284     3.758104     3.746925     3.735745     3.724566     3.713387     3.702207
      3.691028     3.679848     3.668669     3.657489     3.646310     3.635130     3.623951     3.612772     3.601592     3.590413
      3.579233     3.568054     3.556874     3.545695     3.534515     3.523336     3.512156     3.500977     3.489798     3.478618
      3.467439     3.456259     3.445080     3.433900     3.422721     3.411541     3.400362     3.389183     3.378003     3.366824
      3.355644     3.344465     3.333285     3.322106     3.310926     3.299747     3.288568     3.277388     3.266209     3.255029
      3.243850     3.232670     3.221491     3.210311     3.199132     3.187953     3.176773     3.165594     3.154414     3.143235
      3.132055     3.120876     3.109696     3.098517     3.087337     3.076158     3.064979     3.053799     3.042620     3.031440
      3.020261     3.009081     2.997902     2.986722     2.975543     2.964364     2.953184     2.942005     2.930825     2.919646
      2.908466     2.897287     2.886107     2.874928     2.863749     2.852569     2.841390     2.830210     2.819031     2.807851
      2.796672     2.785492     2.774313     2.763134     2.751954     2.740775     2.729595     2.718416     2.707236     2.696057
      2.684877     2.673698     2.662519     2.651339     2.640160     2.628980     2.617801     2.606621     2.595442     2.584262
      2.573083     2.561903     2.550724     2.539545     2.528365     2.517186     2.506006     2.494827     2.483647     2.472468
      2.461288     2.450109     2.438930     2.427750     2.416571     2.405391     2.394212     2.383032     2.371853     2.360673
      2.349494     2.338315     2.327135     2.315956     2.304776     2.293597     2.282417     2.271238     2.260058     2.248879
      2.237700     2.226520     2.215341     2.204161     2.192982     2.181802     2.170623     2.159443     2.148264     2.137084
      2.125905     2.114726     2.103546     2.092367     2.081187     2.070008     2.058828     2.047649     2.036469     2.025290
      2.014111     2.002931     1.991752     1.980572     1.969393     1.958213     1.947034     1.935854     1.924675     1.913496
      1.902316     1.891137     1.879957     1.868778     1.857598     1.846419     1.835239     1.824060     1.812881     1.801701
      1.790522     1.779342     1.768163     1.756983     1.745804     1.734624     1.723445     1.712265     1.701086     1.689907
      1.678727     1.667548     1.656368     1.645189     1.634009     1.622830     1.611650     1.600471     1.589292     1.578112
      1.566933     1.555753     1.544574     1.533394     1.522215     1.511035     1.499856     1.488677     1.477497     1.466318
      1.455138     1.443959     1.432779     1.421600     1.410420     1.399241     1.388062     1.376882     1.365703     1.354523
      1.343344     1.332164     1.320985     1.309805     1.298626     1.287446     1.276267     1.265088     1.253908     1.242729
      1.231549     1.220370     1.209190     1.198011     1.186831     1.175652     1.164473     1.153293     1.142114     1.130934
      1.119755     1.108575     1.097396     1.086216     1.075037     1.063858     1.052678     1.041499     1.030319     1.019140
      1.007960     0.996781     0.985601     0.974422     0.963243     0.952063     0.940884     0.929704     0.918525     0.907345
      0.896166     0.884986     0.873807     0.862628     0.851448     0.840269     0.829089     0.817910     0.806730     0.795551
      0.784371     0.773192     0.762012     0.750833     0.739654     0.728474     0.717295     0.706115     0.694936     0.683756
      0.672577     0.661397     0.650218     0.639039     0.627859     0.616680     0.605500     0.594321     0.583141     0.571962
      0.560782     0.549603     0.538424     0.527244     0.516065     0.504885     0.493706     0.482526     0.471347     0.460167
      0.448988     0.437809     0.426629     0.415450     0.404270     0.393091     0.381911     0.370732     0.359552     0.348373
      0.337193     0.326014     0.314835     0.303655     0.292476     0.281296     0.270117     0.258937     0.247758     0.236578
      0.225399     0.214220     0.203040
 NY phased data points follow
   1.17704E-08  1.24782E-08  1.44333E-08  1.27801E-08  1.29877E-08  1.10184E-08  1.09263E-08  9.67639E-09  1.01099E-08  8.93205E-09
   9.61630E-09  9.46828E-09  1.00486E-08  9.21998E-09  1.02679E-08  1.05091E-08  1.08631E-08  1.00419E-08  1.13204E-08  9.54533E-09
   1.01693E-08  9.42074E-09  9.52881E-09  9.04024E-09  9.97409E-09  9.71758E-09  1.09677E-08  9.45043E-09  1.12071E-08  9.38913E-09
   9.37605E-09  9.55833E-09  1.15636E-08  1.19803E-08  1.24349E-08  1.25552E-08  1.12250E-08  1.04533E-08  9.72083E-09  8.24464E-09
   8.68917E-09  7.87376E-09  8.51609E-09  6.87234E-09  7.75125E-09  7.76472E-09  6.75964E-09  6.16260E-09  5.47421E-09  5.45775E-09
   6.43120E-09  5.41843E-09  6.19213E-09  5.73760E-09  6.63465E-09  5.30737E-09  5.77983E-09  5.19315E-09  5.14856E-09  4.69565E-09
   5.94555E-09  5.34702E-09  7.37766E-09  8.95880E-09  1.19301E-08  1.16786E-08  1.18634E-08  1.01892E-08  1.02173E-08  8.06100E-09
   8.28673E-09  6.69033E-09  6.51710E-09  5.62200E-09  5.97681E-09  4.45658E-09  4.98731E-09  5.72131E-09  6.59319E-09  7.66497E-09
   1.12534E-08  1.29418E-08  1.37148E-08  1.29738E-08  1.15854E-08  1.06856E-08  1.00903E-08  9.53073E-09  9.01477E-09  8.22040E-09
   8.42872E-09  8.17925E-09  7.94528E-09  6.99728E-09  7.19405E-09  5.50644E-09  6.52511E-09  5.34562E-09  5.50407E-09  4.79200E-09
   5.17394E-09  5.75497E-09  4.53586E-09  4.89602E-09  5.08934E-09  4.09661E-09  4.79219E-09  4.09009E-09  4.63685E-09  2.90797E-09
   3.66834E-09  2.78755E-09  2.43740E-09  2.84446E-09  3.25537E-09  3.60499E-09  3.53451E-09  3.56569E-09  4.50568E-09  3.67389E-09
   3.82139E-09  3.77036E-09  4.45073E-09  3.29060E-09  3.17408E-09  2.36476E-09  2.41817E-09  1.67999E-09  2.31752E-09  2.63579E-09
   2.59380E-09  2.06599E-09  3.07001E-09  2.80828E-09  3.12776E-09  1.92781E-09  2.50027E-09  2.16983E-09  2.28610E-09  2.79958E-09
   3.26202E-09  3.97295E-09  4.37915E-09  3.73933E-09  3.57680E-09  3.83853E-09  4.26278E-09  4.45202E-09  4.52655E-09  4.63063E-09
   4.39913E-09  3.90529E-09  4.45161E-09  4.18567E-09  4.12326E-09  3.76872E-09  3.87684E-09  4.05216E-09  4.14263E-09  4.17040E-09
   4.26925E-09  4.39841E-09  4.61305E-09  3.81284E-09  3.68896E-09  4.17610E-09  4.45149E-09  4.72611E-09  6.34319E-09  7.97516E-09
   1.00142E-08  1.28161E-08  1.53316E-08  1.46701E-08  1.28407E-08  1.02292E-08  8.66962E-09  7.64821E-09  6.96689E-09  5.37526E-09
   5.31782E-09  4.18801E-09  4.12944E-09  2.13936E-09  2.81060E-09  9.96024E-10  2.86694E-10 -6.35843E-10 -1.74811E-09 -2.72541E-09
  -3.25375E-09 -4.97664E-09 -6.15224E-09 -7.19862E-09 -8.73833E-09 -9.59610E-09 -1.07808E-08 -1.22002E-08 -1.28813E-08 -1.30965E-08
  -1.34012E-08 -1.41192E-08 -1.27591E-08 -1.32156E-08 -1.25650E-08 -1.15209E-08 -9.65815E-09 -9.42301E-09 -7.26078E-09 -6.53082E-09
  -5.54445E-09 -4.14619E-09 -3.02945E-09 -2.01963E-09 -9.27523E-10 -8.63822E-10 -8.13726E-10 -1.64587E-09 -6.16010E-10 -1.50648E-09
  -1.16221E-09 -1.64524E-09 -1.23467E-09 -2.19283E-09 -1.05136E-09 -1.19061E-09 -8.79399E-10 -5.81504E-10 -1.17865E-09 -1.94775E-10
  -1.26386E-09 -1.88409E-09 -1.08859E-09 -1.71964E-09 -1.39570E-09 -1.28055E-09 -3.23002E-10 -7.36559E-10 -5.19836E-10 -8.05091E-10
  -7.94071E-10 -5.31850E-10 -1.01505E-09 -1.35165E-09 -1.42342E-09 -5.91745E-10 -1.23124E-09 -1.16966E-09 -6.52774E-10 -6.41927E-10
  -1.57683E-10 -2.31075E-10 -2.86247E-10  4.40582E-10 -1.70345E-10 -7.45954E-10 -2.05877E-12 -1.18576E-09 -5.83086E-10 -5.61327E-10
  -1.04528E-09 -1.34327E-09 -7.18252E-10 -1.64352E-09 -1.23100E-09 -1.12639E-09 -6.48774E-10 -4.77877E-10 -2.53371E-10 -6.79388E-11
   1.77204E-10  1.05444E-10 -1.71607E-11  5.62951E-10  7.75672E-10  1.25561E-10  5.72085E-10  2.37923E-11  2.11437E-10  4.94967E-11
   1.00918E-10 -5.52453E-10 -1.81569E-10 -7.12650E-10 -6.33534E-10 -3.07226E-10  1.98612E-10 -8.66787E-10 -6.36004E-10 -5.67949E-10
  -2.79810E-10 -1.30632E-09 -6.44460E-10 -5.04321E-10 -7.36059E-10 -4.06902E-10 -7.62137E-10 -8.26454E-10 -1.17186E-09 -2.86424E-10
  -6.73834E-10 -1.02994E-09 -2.10198E-10 -7.53983E-10 -8.89108E-10 -2.46533E-10 -4.19784E-10 -3.66207E-10 -5.64261E-10 -2.51449E-10
  -5.51892E-11 -6.88825E-10 -2.09643E-10 -1.61109E-10  3.22794E-10 -5.91403E-10 -3.06075E-10 -8.30953E-10  5.27757E-10 -3.57699E-10
  -1.93245E-10  6.26128E-11  4.15339E-10 -4.25624E-10  3.15068E-10  2.17454E-10  3.35057E-10  1.87760E-11  3.97934E-10  1.06711E-10
   4.63979E-10  2.16971E-10  2.91784E-10  3.52522E-10  1.12267E-10  8.83132E-10  7.30301E-10  2.94558E-10  1.29701E-09  7.29057E-10
   6.67384E-10  2.97208E-10  1.19900E-09  2.98075E-10  8.84532E-10  6.97866E-10  1.01290E-09  3.28615E-10  5.94868E-10  3.46173E-10
   1.26862E-09  9.44565E-10  8.92098E-10  5.84571E-10  1.12072E-09  6.36179E-10  1.11167E-09  9.47580E-10  1.13539E-09  6.80075E-10
   1.37448E-09  7.47182E-10  1.57106E-09
 NY points of the fit to the data follow
   1.36042E-08  1.31513E-08  1.26733E-08  1.23296E-08  1.19077E-08  1.12701E-08  1.04989E-08  9.89577E-09  9.53902E-09  9.31113E-09
   9.34173E-09  9.47783E-09  9.65485E-09  9.88333E-09  1.01340E-08  1.03686E-08  1.06363E-08  1.08858E-08  1.09440E-08  1.07929E-08
   1.05739E-08  1.02285E-08  9.76516E-09  9.40799E-09  9.20221E-09  9.12539E-09  9.29681E-09  9.71402E-09  1.01805E-08  1.05972E-08
   1.07609E-08  1.08406E-08  1.10386E-08  1.10579E-08  1.08698E-08  1.09168E-08  1.10504E-08  1.09254E-08  1.04767E-08  9.81757E-09
   9.14843E-09  8.50654E-09  7.54170E-09  6.75746E-09  6.50622E-09  6.19722E-09  5.86223E-09  5.77306E-09  5.77414E-09  5.79018E-09
   5.83044E-09  5.88254E-09  5.95232E-09  5.99765E-09  6.02268E-09  6.05033E-09  6.11373E-09  6.18123E-09  6.23012E-09  6.28904E-09
   6.46601E-09  6.83735E-09  7.33458E-09  7.88175E-09  8.70072E-09  9.47125E-09  9.96322E-09  1.02746E-08  1.03991E-08  1.02307E-08
   9.77012E-09  9.01164E-09  8.15259E-09  7.48898E-09  6.74819E-09  6.00144E-09  6.01023E-09  6.75794E-09  7.71142E-09  8.99106E-09
   1.03823E-08  1.15340E-08  1.23034E-08  1.25334E-08  1.21764E-08  1.15097E-08  1.05861E-08  9.27792E-09  7.94487E-09  7.58720E-09
   7.45780E-09  7.39320E-09  7.15929E-09  6.67707E-09  6.34600E-09  6.06310E-09  5.57296E-09  5.19926E-09  4.97752E-09  4.74334E-09
   4.56248E-09  4.44403E-09  4.36245E-09  4.30693E-09  4.26538E-09  4.23031E-09  4.19825E-09  4.16691E-09  4.13410E-09  4.09757E-09
   4.05755E-09  4.02019E-09  3.99133E-09  3.95925E-09  3.92746E-09  3.90511E-09  3.88552E-09  3.86683E-09  3.84836E-09  3.82973E-09
   3.81072E-09  3.79113E-09  3.77081E-09  3.74960E-09  3.72738E-09  3.70404E-09  3.67948E-09  3.65361E-09  3.62635E-09  3.59760E-09
   3.56728E-09  3.53533E-09  3.50166E-09  3.46618E-09  3.42886E-09  3.38960E-09  3.34834E-09  3.30502E-09  3.25959E-09  3.21197E-09
   3.16210E-09  3.10997E-09  3.05550E-09  2.99867E-09  2.93944E-09  2.87779E-09  2.81371E-09  2.74719E-09  2.67822E-09  2.60683E-09
   2.53308E-09  2.45701E-09  2.37876E-09  2.29848E-09  2.21639E-09  2.13282E-09  2.04824E-09  1.96330E-09  1.87901E-09  1.79683E-09
   1.71911E-09  1.64964E-09  1.59515E-09  1.56851E-09  1.59856E-09  1.76772E-09  2.42912E-09  4.12915E-09  6.51969E-09  9.18942E-09
   1.18253E-08  1.39335E-08  1.49916E-08  1.47561E-08  1.33806E-08  1.11673E-08  8.20699E-09  4.59275E-09  1.33203E-09 -1.69282E-10
  -7.73543E-10 -1.14424E-09 -1.42317E-09 -1.65557E-09 -1.86021E-09 -2.04618E-09 -2.21824E-09 -2.37906E-09 -2.53011E-09 -2.67226E-09
  -2.80591E-09 -2.93124E-09 -3.04823E-09 -3.15674E-09 -3.25658E-09 -3.34747E-09 -3.42926E-09 -3.50220E-09 -3.56662E-09 -3.62283E-09
  -3.67113E-09 -3.71181E-09 -3.74514E-09 -3.77139E-09 -3.79084E-09 -3.80373E-09 -3.81034E-09 -3.81090E-09 -3.80569E-09 -3.79493E-09
  -3.77889E-09 -3.75782E-09 -3.73194E-09 -3.70152E-09 -3.66679E-09 -3.62801E-09 -3.58540E-09 -3.53921E-09 -3.48970E-09 -3.43708E-09
  -3.38161E-09 -3.32353E-09 -3.26307E-09 -3.20048E-09 -3.13597E-09 -3.06970E-09 -3.00184E-09 -2.93252E-09 -2.86192E-09 -2.79018E-09
  -2.71747E-09 -2.64394E-09 -2.56975E-09 -2.49504E-09 -2.41997E-09 -2.34471E-09 -2.26941E-09 -2.19422E-09 -2.11928E-09 -2.04477E-09
  -1.97085E-09 -1.89764E-09 -1.82533E-09 -1.75406E-09 -1.68397E-09 -1.61524E-09 -1.54801E-09 -1.48243E-09 -1.41867E-09 -1.35689E-09
  -1.29720E-09 -1.23981E-09 -1.18475E-09 -1.13197E-09 -1.08143E-09 -1.03306E-09 -9.86812E-10 -9.42626E-10 -9.00441E-10 -8.60202E-10
  -8.21856E-10 -7.85335E-10 -7.50594E-10 -7.17566E-10 -6.86203E-10 -6.56443E-10 -6.28216E-10 -6.01493E-10 -5.76202E-10 -5.52279E-10
  -5.29670E-10 -5.08329E-10 -4.88184E-10 -4.69183E-10 -4.51280E-10 -4.34395E-10 -4.18495E-10 -4.03509E-10 -3.89387E-10 -3.76062E-10
  -3.63488E-10 -3.51613E-10 -3.40383E-10 -3.29745E-10 -3.19653E-10 -3.10049E-10 -3.00888E-10 -2.92112E-10 -2.83672E-10 -2.75520E-10
  -2.67600E-10 -2.59862E-10 -2.52255E-10 -2.44727E-10 -2.37228E-10 -2.29704E-10 -2.22106E-10 -2.14382E-10 -2.06484E-10 -1.98352E-10
  -1.89946E-10 -1.81207E-10 -1.72084E-10 -1.62534E-10 -1.52497E-10 -1.41925E-10 -1.30769E-10 -1.18976E-10 -1.06546E-10 -9.34931E-11
  -7.98352E-11 -6.55910E-11 -5.07787E-11 -3.54134E-11 -1.95155E-11 -3.10152E-12  1.38104E-11  3.12029E-11  4.90570E-11  6.73576E-11
   8.60831E-11  1.05220E-10  1.24749E-10  1.44650E-10  1.64910E-10  1.85506E-10  2.06424E-10  2.27647E-10  2.49154E-10  2.70928E-10
   2.92955E-10  3.15214E-10  3.37688E-10  3.60360E-10  3.83211E-10  4.06227E-10  4.29396E-10  4.52710E-10  4.76163E-10  4.99748E-10
   5.23455E-10  5.47278E-10  5.71210E-10  5.95243E-10  6.19368E-10  6.43582E-10  6.67871E-10  6.92232E-10  7.16656E-10  7.41136E-10
   7.65666E-10  7.90235E-10  8.14838E-10  8.39468E-10  8.64116E-10  8.88775E-10  9.13437E-10  9.38098E-10  9.62747E-10  9.87375E-10
   1.01198E-09  1.03655E-09  1.06108E-09
 NY background values follow
     4.083E-09    4.073E-09    4.062E-09    4.052E-09    4.042E-09    4.032E-09    4.021E-09    4.011E-09    4.001E-09    3.990E-09
     3.980E-09    3.970E-09    3.960E-09    3.949E-09    3.939E-09    3.928E-09    3.918E-09    3.908E-09    3.897E-09    3.887E-09
     3.876E-09    3.866E-09    3.855E-09    3.844E-09    3.834E-09    3.823E-09    3.812E-09    3.801E-09    3.790E-09    3.779E-09
     3.768E-09    3.757E-09    3.746E-09    3.735E-09    3.724E-09    3.713E-09    3.702E-09    3.691E-09    3.681E-09    3.670E-09
     3.660E-09    3.649E-09    3.639E-09    3.629E-09    3.620E-09    3.610E-09    3.601E-09    3.592E-09    3.583E-09    3.575E-09
     3.567E-09    3.559E-09    3.552E-09    3.545E-09    3.538E-09    3.532E-09    3.526E-09    3.521E-09    3.516E-09    3.511E-09
     3.507E-09    3.503E-09    3.500E-09    3.497E-09    3.494E-09    3.491E-09    3.489E-09    3.487E-09    3.485E-09    3.484E-09
     3.482E-09    3.481E-09    3.480E-09    3.479E-09    3.478E-09    3.477E-09    3.476E-09    3.475E-09    3.475E-09    3.474E-09
     3.473E-09    3.472E-09    3.471E-09    3.470E-09    3.469E-09    3.468E-09    3.467E-09    3.465E-09    3.464E-09    3.462E-09
     3.460E-09    3.457E-09    3.455E-09    3.452E-09    3.449E-09    3.446E-09    3.442E-09    3.438E-09    3.434E-09    3.429E-09
     3.424E-09    3.419E-09    3.413E-09    3.407E-09    3.401E-09    3.394E-09    3.386E-09    3.378E-09    3.370E-09    3.361E-09
     3.352E-09    3.342E-09    3.331E-09    3.320E-09    3.308E-09    3.296E-09    3.283E-09    3.268E-09    3.253E-09    3.237E-09
     3.220E-09    3.202E-09    3.182E-09    3.161E-09    3.139E-09    3.116E-09    3.091E-09    3.064E-09    3.036E-09    3.006E-09
     2.975E-09    2.941E-09    2.906E-09    2.869E-09    2.830E-09    2.788E-09    2.745E-09    2.699E-09    2.651E-09    2.601E-09
     2.548E-09    2.493E-09    2.435E-09    2.375E-09    2.312E-09    2.246E-09    2.177E-09    2.106E-09    2.031E-09    1.954E-09
     1.873E-09    1.790E-09    1.703E-09    1.613E-09    1.520E-09    1.423E-09    1.323E-09    1.220E-09    1.113E-09    1.002E-09
     8.878E-10    7.697E-10    6.478E-10    5.221E-10    3.925E-10    2.589E-10    1.212E-10   -2.055E-11   -1.664E-10   -3.160E-10
    -4.689E-10   -6.246E-10   -7.828E-10   -9.428E-10   -1.104E-09   -1.267E-09   -1.430E-09   -1.593E-09   -1.756E-09   -1.918E-09
    -2.078E-09   -2.237E-09   -2.394E-09   -2.548E-09   -2.699E-09   -2.847E-09   -2.990E-09   -3.129E-09   -3.263E-09   -3.392E-09
    -3.514E-09   -3.631E-09   -3.740E-09   -3.843E-09   -3.938E-09   -4.024E-09   -4.102E-09   -4.172E-09   -4.234E-09   -4.288E-09
    -4.335E-09   -4.374E-09   -4.406E-09   -4.431E-09   -4.449E-09   -4.461E-09   -4.467E-09   -4.467E-09   -4.461E-09   -4.450E-09
    -4.434E-09   -4.412E-09   -4.386E-09   -4.356E-09   -4.321E-09   -4.282E-09   -4.239E-09   -4.193E-09   -4.143E-09   -4.091E-09
    -4.035E-09   -3.977E-09   -3.917E-09   -3.855E-09   -3.790E-09   -3.724E-09   -3.656E-09   -3.587E-09   -3.517E-09   -3.445E-09
    -3.373E-09   -3.299E-09   -3.225E-09   -3.151E-09   -3.076E-09   -3.001E-09   -2.926E-09   -2.851E-09   -2.776E-09   -2.702E-09
    -2.628E-09   -2.555E-09   -2.483E-09   -2.412E-09   -2.342E-09   -2.273E-09   -2.206E-09   -2.141E-09   -2.077E-09   -2.015E-09
    -1.956E-09   -1.899E-09   -1.844E-09   -1.791E-09   -1.741E-09   -1.693E-09   -1.646E-09   -1.602E-09   -1.560E-09   -1.520E-09
    -1.482E-09   -1.446E-09   -1.411E-09   -1.378E-09   -1.347E-09   -1.317E-09   -1.289E-09   -1.262E-09   -1.237E-09   -1.213E-09
    -1.191E-09   -1.169E-09   -1.149E-09   -1.130E-09   -1.113E-09   -1.096E-09   -1.080E-09   -1.065E-09   -1.051E-09   -1.038E-09
    -1.025E-09   -1.013E-09   -1.002E-09   -9.913E-10   -9.812E-10   -9.716E-10   -9.624E-10   -9.536E-10   -9.452E-10   -9.370E-10
    -9.291E-10   -9.213E-10   -9.136E-10   -9.061E-10   -8.985E-10   -8.909E-10   -8.833E-10   -8.755E-10   -8.675E-10   -8.593E-10
    -8.508E-10   -8.420E-10   -8.328E-10   -8.231E-10   -8.130E-10   -8.023E-10   -7.911E-10   -7.792E-10   -7.666E-10   -7.534E-10
    -7.396E-10   -7.253E-10   -7.103E-10   -6.948E-10   -6.787E-10   -6.622E-10   -6.451E-10   -6.275E-10   -6.095E-10   -5.910E-10
    -5.721E-10   -5.528E-10   -5.331E-10   -5.130E-10   -4.925E-10   -4.717E-10   -4.506E-10   -4.292E-10   -4.074E-10   -3.854E-10
    -3.632E-10   -3.407E-10   -3.180E-10   -2.951E-10   -2.720E-10   -2.487E-10   -2.253E-10   -2.017E-10   -1.779E-10   -1.541E-10
    -1.301E-10   -1.060E-10   -8.177E-11   -5.744E-11   -3.302E-11   -8.497E-12    1.610E-11    4.078E-11    6.552E-11    9.033E-11
     1.152E-10    1.401E-10    1.650E-10    1.900E-10    2.150E-10    2.400E-10    2.650E-10    2.901E-10    3.151E-10    3.401E-10
     3.651E-10    3.900E-10    4.150E-10
 Ala      Conc. = 2.09E-11
   4.09998E-09  4.09093E-09  4.08134E-09  4.07129E-09  4.06080E-09  4.04995E-09  4.03829E-09  4.02565E-09  4.01369E-09  4.00203E-09
   3.98905E-09  3.97673E-09  3.96551E-09  3.95395E-09  3.94259E-09  3.93166E-09  3.92092E-09  3.91028E-09  3.89968E-09  3.88908E-09
   3.87848E-09  3.86786E-09  3.85721E-09  3.84653E-09  3.83580E-09  3.82504E-09  3.81422E-09  3.80334E-09  3.79241E-09  3.78142E-09
   3.77039E-09  3.75934E-09  3.74828E-09  3.73723E-09  3.72621E-09  3.71524E-09  3.70434E-09  3.69353E-09  3.68281E-09  3.67222E-09
   3.66177E-09  3.65146E-09  3.64134E-09  3.63141E-09  3.62170E-09  3.61221E-09  3.60297E-09  3.59401E-09  3.58531E-09  3.57693E-09
   3.56888E-09  3.56115E-09  3.55379E-09  3.54681E-09  3.54026E-09  3.53407E-09  3.52832E-09  3.52302E-09  3.51813E-09  3.51365E-09
   3.50954E-09  3.50579E-09  3.50239E-09  3.49930E-09  3.49651E-09  3.49400E-09  3.49175E-09  3.48974E-09  3.48795E-09  3.48636E-09
   3.48495E-09  3.48370E-09  3.48259E-09  3.48160E-09  3.48070E-09  3.47990E-09  3.47915E-09  3.47844E-09  3.47775E-09  3.47708E-09
   3.47637E-09  3.47564E-09  3.47483E-09  3.47397E-09  3.47300E-09  3.47194E-09  3.47075E-09  3.46943E-09  3.46797E-09  3.46636E-09
   3.46460E-09  3.46267E-09  3.46059E-09  3.45836E-09  3.45601E-09  3.45359E-09  3.45120E-09  3.44904E-09  3.44762E-09  3.44847E-09
   3.45405E-09  3.46001E-09  3.46637E-09  3.47571E-09  3.48353E-09  3.48700E-09  3.48542E-09  3.47845E-09  3.46530E-09  3.44472E-09
   3.41793E-09  3.39157E-09  3.37180E-09  3.34720E-09  3.32149E-09  3.30398E-09  3.28833E-09  3.27284E-09  3.25691E-09  3.24026E-09
   3.22270E-09  3.20412E-09  3.18440E-09  3.16347E-09  3.14123E-09  3.11762E-09  3.09255E-09  3.06595E-09  3.03776E-09  3.00789E-09
   2.97629E-09  2.94288E-09  2.90760E-09  2.87036E-09  2.83112E-09  2.78979E-09  2.74631E-09  2.70062E-09  2.65264E-09  2.60231E-09
   2.54954E-09  2.49429E-09  2.43650E-09  2.37610E-09  2.31303E-09  2.24722E-09  2.17862E-09  2.10715E-09  2.03277E-09  1.95539E-09
   1.87498E-09  1.79145E-09  1.70476E-09  1.61483E-09  1.52162E-09  1.42504E-09  1.32506E-09  1.22160E-09  1.11461E-09  1.00402E-09
   8.89787E-10  7.71853E-10  6.50196E-10  5.24759E-10  3.95590E-10  2.62856E-10  1.27525E-10 -7.86090E-12 -1.45468E-10 -2.86045E-10
  -4.29981E-10 -5.78546E-10 -7.33040E-10 -8.93721E-10 -1.05944E-09 -1.22860E-09 -1.40063E-09 -1.57510E-09 -1.74826E-09 -1.91311E-09
  -2.07490E-09 -2.23441E-09 -2.39151E-09 -2.54583E-09 -2.69698E-09 -2.84452E-09 -2.98801E-09 -3.12700E-09 -3.26104E-09 -3.38967E-09
  -3.51244E-09 -3.62891E-09 -3.73861E-09 -3.84107E-09 -3.93586E-09 -4.02251E-09 -4.10071E-09 -4.17061E-09 -4.23244E-09 -4.28645E-09
  -4.33287E-09 -4.37194E-09 -4.40390E-09 -4.42898E-09 -4.44742E-09 -4.45946E-09 -4.46534E-09 -4.46530E-09 -4.45957E-09 -4.44840E-09
  -4.43201E-09 -4.41065E-09 -4.38455E-09 -4.35396E-09 -4.31911E-09 -4.28023E-09 -4.23758E-09 -4.19138E-09 -4.14187E-09 -4.08929E-09
  -4.03387E-09 -3.97587E-09 -3.91550E-09 -3.85302E-09 -3.78863E-09 -3.72250E-09 -3.65477E-09 -3.58561E-09 -3.51516E-09 -3.44359E-09
  -3.37105E-09 -3.29770E-09 -3.22368E-09 -3.14916E-09 -3.07427E-09 -2.99920E-09 -2.92408E-09 -2.84907E-09 -2.77432E-09 -2.70000E-09
  -2.62626E-09 -2.55324E-09 -2.48111E-09 -2.41002E-09 -2.34011E-09 -2.27155E-09 -2.20449E-09 -2.13909E-09 -2.07549E-09 -2.01387E-09
  -1.95435E-09 -1.89711E-09 -1.84220E-09 -1.78957E-09 -1.73918E-09 -1.69095E-09 -1.64484E-09 -1.60079E-09 -1.55873E-09 -1.51862E-09
  -1.48039E-09 -1.44398E-09 -1.40935E-09 -1.37643E-09 -1.34517E-09 -1.31551E-09 -1.28737E-09 -1.26074E-09 -1.23553E-09 -1.21168E-09
  -1.18914E-09 -1.16787E-09 -1.14779E-09 -1.12884E-09 -1.11099E-09 -1.09416E-09 -1.07830E-09 -1.06335E-09 -1.04926E-09 -1.03596E-09
  -1.02341E-09 -1.01155E-09 -1.00033E-09 -9.89703E-10 -9.79613E-10 -9.70006E-10 -9.60836E-10 -9.52046E-10 -9.43588E-10 -9.35412E-10
  -9.27462E-10 -9.19691E-10 -9.12045E-10 -9.04472E-10 -8.96924E-10 -8.89346E-10 -8.81689E-10 -8.73901E-10 -8.65934E-10 -8.57727E-10
  -8.49241E-10 -8.40417E-10 -8.31204E-10 -8.21559E-10 -8.11422E-10 -8.00745E-10 -7.89479E-10 -7.77572E-10 -7.65021E-10 -7.51843E-10
  -7.38055E-10 -7.23675E-10 -7.08723E-10 -6.93212E-10 -6.77164E-10 -6.60594E-10 -6.43522E-10 -6.25964E-10 -6.07940E-10 -5.89464E-10
  -5.70558E-10 -5.51236E-10 -5.31516E-10 -5.11420E-10 -4.90960E-10 -4.70159E-10 -4.49031E-10 -4.27594E-10 -4.05866E-10 -3.83867E-10
  -3.61610E-10 -3.39117E-10 -3.16402E-10 -2.93486E-10 -2.70385E-10 -2.47114E-10 -2.23685E-10 -2.00106E-10 -1.76383E-10 -1.52524E-10
  -1.28538E-10 -1.04430E-10 -8.02084E-11 -5.58810E-11 -3.14569E-11 -6.93934E-12  1.76591E-11  4.23341E-11  6.70773E-11  9.18817E-11
   1.16741E-10  1.41644E-10  1.66587E-10  1.91560E-10  2.16558E-10  2.41570E-10  2.66592E-10  2.91617E-10  3.16634E-10  3.41638E-10
   3.66620E-10  3.91573E-10  4.16494E-10
 Asp      Conc. = 2.14E-10
   4.32207E-09  4.27325E-09  4.22862E-09  4.18059E-09  4.13990E-09  4.09850E-09  4.06289E-09  4.03689E-09  4.02052E-09  4.00751E-09
   3.99605E-09  3.98542E-09  3.97531E-09  3.96551E-09  3.95571E-09  3.94593E-09  3.93619E-09  3.92651E-09  3.91686E-09  3.90724E-09
   3.89765E-09  3.88809E-09  3.87859E-09  3.86912E-09  3.85972E-09  3.85041E-09  3.84119E-09  3.83211E-09  3.82322E-09  3.81456E-09
   3.80626E-09  3.79844E-09  3.79131E-09  3.78520E-09  3.78065E-09  3.77881E-09  3.78206E-09  3.78753E-09  3.79627E-09  3.80324E-09
   3.80600E-09  3.80425E-09  3.80179E-09  3.80398E-09  3.81742E-09  3.84550E-09  3.87493E-09  3.90151E-09  3.93330E-09  3.95209E-09
   3.95687E-09  3.94233E-09  3.90866E-09  3.85541E-09  3.79080E-09  3.72894E-09  3.68599E-09  3.66760E-09  3.64093E-09  3.60722E-09
   3.59248E-09  3.58111E-09  3.56832E-09  3.56180E-09  3.55525E-09  3.54236E-09  3.52616E-09  3.51644E-09  3.50980E-09  3.50487E-09
   3.50103E-09  3.49794E-09  3.49540E-09  3.49327E-09  3.49146E-09  3.48990E-09  3.48853E-09  3.48729E-09  3.48614E-09  3.48508E-09
   3.48402E-09  3.48298E-09  3.48189E-09  3.48078E-09  3.47955E-09  3.47825E-09  3.47682E-09  3.47524E-09  3.47352E-09  3.47161E-09
   3.46953E-09  3.46722E-09  3.46470E-09  3.46192E-09  3.45890E-09  3.45558E-09  3.45198E-09  3.44808E-09  3.44384E-09  3.43928E-09
   3.43434E-09  3.42904E-09  3.42335E-09  3.41725E-09  3.41073E-09  3.40377E-09  3.39637E-09  3.38849E-09  3.38013E-09  3.37126E-09
   3.36189E-09  3.35198E-09  3.34151E-09  3.33045E-09  3.31874E-09  3.30628E-09  3.29304E-09  3.27892E-09  3.26388E-09  3.24783E-09
   3.23071E-09  3.21246E-09  3.19300E-09  3.17227E-09  3.15020E-09  3.12673E-09  3.10178E-09  3.07528E-09  3.04719E-09  3.01741E-09
   2.98588E-09  2.95255E-09  2.91733E-09  2.88017E-09  2.84099E-09  2.79973E-09  2.75631E-09  2.71069E-09  2.66278E-09  2.61252E-09
   2.55982E-09  2.50465E-09  2.44694E-09  2.38662E-09  2.32364E-09  2.25793E-09  2.18943E-09  2.11808E-09  2.04382E-09  1.96659E-09
   1.88634E-09  1.80299E-09  1.71650E-09  1.62681E-09  1.53387E-09  1.43762E-09  1.33802E-09  1.23503E-09  1.12862E-09  1.01877E-09
   9.05484E-10  7.88821E-10  6.68938E-10  5.46125E-10  4.21193E-10  2.96427E-10  1.81551E-10  1.04427E-10  4.29093E-11 -1.41677E-11
  -7.48494E-11 -1.56218E-10 -2.76069E-10 -4.41746E-10 -6.45910E-10 -8.76242E-10 -1.13077E-09 -1.41003E-09 -1.68134E-09 -1.87416E-09
  -2.04646E-09 -2.21133E-09 -2.37162E-09 -2.52804E-09 -2.68064E-09 -2.82924E-09 -2.97353E-09 -3.11314E-09 -3.24767E-09 -3.37669E-09
  -3.49978E-09 -3.61652E-09 -3.72644E-09 -3.82909E-09 -3.92403E-09 -4.01082E-09 -4.08913E-09 -4.15913E-09 -4.22106E-09 -4.27514E-09
  -4.32163E-09 -4.36076E-09 -4.39277E-09 -4.41789E-09 -4.43638E-09 -4.44846E-09 -4.45437E-09 -4.45436E-09 -4.44866E-09 -4.43751E-09
  -4.42114E-09 -4.39980E-09 -4.37372E-09 -4.34314E-09 -4.30831E-09 -4.26945E-09 -4.22680E-09 -4.18061E-09 -4.13111E-09 -4.07854E-09
  -4.02314E-09 -3.96514E-09 -3.90478E-09 -3.84230E-09 -3.77792E-09 -3.71179E-09 -3.64407E-09 -3.57491E-09 -3.50447E-09 -3.43290E-09
