 LCModel (Version 6.3-1R) Copyright: S.W. Provencher.          Ref.: Magn. Reson. Med. 30:672-679 (1993).                
 onepulse 16x23_ftSpec_smooth_lcm
 26 lines in following concentration table = NCONC+1
    Conc.  %SD /Cr+PCr  Metabolite                                         
    0.000 999%   0.000 Ala                                                 
    0.000 999%   0.000 Asp                                                 
    0.000 999%   0.000 Cr                                                  
    0.000 999%   0.000 GABA                                                
    0.000 999%   0.000 Glc                                                 
 1.86E-09  30%   8.153 Gln                                                 
    0.000 999%   0.000 Glu                                                 
    0.000 999%   0.000 Glyc                                                
 1.57E-10  69%   0.688 GPC                                                 
    0.000 999%   0.000 GSH                                                 
 1.24E-09  31%   5.456 Ins                                                 
    0.000 999%   0.000 Lac                                                 
 2.47E-10 135%   1.082 NAAG                                                
 3.21E-10 140%   1.408 NAA                                                 
    0.000 999%   0.000 PCh                                                 
 2.28E-10 104%   1.000 PCr                                                 
    0.000 999%   0.000 PE                                                  
 1.46E-10 188%   0.639 Scyllo                                              
 3.55E-09  23%  15.577 Ser                                                 
 4.08E-10 207%   1.790 Tau                                                 
 1.57E-10  69%   0.688 GPC+PCh                                             
 5.68E-10  48%   2.490 NAA+NAAG                                            
 1.24E-09  31%   5.456 Ins+Glyc                                            
 2.28E-10 104%   1.000 Cr+PCr                                              
 1.86E-09  30%   8.153 Glu+Gln                                             
   6 lines in following misc. output table
  FWHM = 0.089 ppm    S/N =   3                                            
  Data shift = 0.369 ppm                                                   
  Ph: -46 deg     -36.2 deg/ppm                                            
  alphaB,S = 9.0E-01,   5.0E+01                                            
    8 spline knots.   Ns = 5(1)                                            
  ( 7) 2 infls.   ( 3) 1 extrs.                                            
  363 points on ppm-axis = NY
      4.250000     4.238821     4.227641     4.216462     4.205282     4.194103     4.182923     4.171744     4.160564     4.149385
      4.138206     4.127026     4.115847     4.104667     4.093488     4.082308     4.071129     4.059949     4.048770     4.037591
      4.026411     4.015232     4.004052     3.992873     3.981693     3.970514     3.959334     3.948155     3.936975     3.925796
      3.914617     3.903437     3.892258     3.881078     3.869899     3.858719     3.847540     3.836360     3.825181     3.814002
      3.802822     3.791643     3.780463     3.769284     3.758104     3.746925     3.735745     3.724566     3.713387     3.702207
      3.691028     3.679848     3.668669     3.657489     3.646310     3.635130     3.623951     3.612772     3.601592     3.590413
      3.579233     3.568054     3.556874     3.545695     3.534515     3.523336     3.512156     3.500977     3.489798     3.478618
      3.467439     3.456259     3.445080     3.433900     3.422721     3.411541     3.400362     3.389183     3.378003     3.366824
      3.355644     3.344465     3.333285     3.322106     3.310926     3.299747     3.288568     3.277388     3.266209     3.255029
      3.243850     3.232670     3.221491     3.210311     3.199132     3.187953     3.176773     3.165594     3.154414     3.143235
      3.132055     3.120876     3.109696     3.098517     3.087337     3.076158     3.064979     3.053799     3.042620     3.031440
      3.020261     3.009081     2.997902     2.986722     2.975543     2.964364     2.953184     2.942005     2.930825     2.919646
      2.908466     2.897287     2.886107     2.874928     2.863749     2.852569     2.841390     2.830210     2.819031     2.807851
      2.796672     2.785492     2.774313     2.763134     2.751954     2.740775     2.729595     2.718416     2.707236     2.696057
      2.684877     2.673698     2.662519     2.651339     2.640160     2.628980     2.617801     2.606621     2.595442     2.584262
      2.573083     2.561903     2.550724     2.539545     2.528365     2.517186     2.506006     2.494827     2.483647     2.472468
      2.461288     2.450109     2.438930     2.427750     2.416571     2.405391     2.394212     2.383032     2.371853     2.360673
      2.349494     2.338315     2.327135     2.315956     2.304776     2.293597     2.282417     2.271238     2.260058     2.248879
      2.237700     2.226520     2.215341     2.204161     2.192982     2.181802     2.170623     2.159443     2.148264     2.137084
      2.125905     2.114726     2.103546     2.092367     2.081187     2.070008     2.058828     2.047649     2.036469     2.025290
      2.014111     2.002931     1.991752     1.980572     1.969393     1.958213     1.947034     1.935854     1.924675     1.913496
      1.902316     1.891137     1.879957     1.868778     1.857598     1.846419     1.835239     1.824060     1.812881     1.801701
      1.790522     1.779342     1.768163     1.756983     1.745804     1.734624     1.723445     1.712265     1.701086     1.689907
      1.678727     1.667548     1.656368     1.645189     1.634009     1.622830     1.611650     1.600471     1.589292     1.578112
      1.566933     1.555753     1.544574     1.533394     1.522215     1.511035     1.499856     1.488677     1.477497     1.466318
      1.455138     1.443959     1.432779     1.421600     1.410420     1.399241     1.388062     1.376882     1.365703     1.354523
      1.343344     1.332164     1.320985     1.309805     1.298626     1.287446     1.276267     1.265088     1.253908     1.242729
      1.231549     1.220370     1.209190     1.198011     1.186831     1.175652     1.164473     1.153293     1.142114     1.130934
      1.119755     1.108575     1.097396     1.086216     1.075037     1.063858     1.052678     1.041499     1.030319     1.019140
      1.007960     0.996781     0.985601     0.974422     0.963243     0.952063     0.940884     0.929704     0.918525     0.907345
      0.896166     0.884986     0.873807     0.862628     0.851448     0.840269     0.829089     0.817910     0.806730     0.795551
      0.784371     0.773192     0.762012     0.750833     0.739654     0.728474     0.717295     0.706115     0.694936     0.683756
      0.672577     0.661397     0.650218     0.639039     0.627859     0.616680     0.605500     0.594321     0.583141     0.571962
      0.560782     0.549603     0.538424     0.527244     0.516065     0.504885     0.493706     0.482526     0.471347     0.460167
      0.448988     0.437809     0.426629     0.415450     0.404270     0.393091     0.381911     0.370732     0.359552     0.348373
      0.337193     0.326014     0.314835     0.303655     0.292476     0.281296     0.270117     0.258937     0.247758     0.236578
      0.225399     0.214220     0.203040
 NY phased data points follow
   1.41081E-08  1.30907E-08  1.30883E-08  1.18930E-08  1.05547E-08  1.02785E-08  1.01256E-08  9.31940E-09  9.60987E-09  9.34320E-09
   9.66384E-09  9.88881E-09  1.03574E-08  1.08873E-08  1.16361E-08  1.07127E-08  1.18529E-08  1.09863E-08  1.04204E-08  1.04154E-08
   1.03031E-08  1.01048E-08  1.00456E-08  9.96010E-09  1.12045E-08  1.05233E-08  1.12061E-08  1.02333E-08  9.51933E-09  9.74553E-09
   1.12620E-08  1.21565E-08  1.35443E-08  1.37522E-08  1.23672E-08  1.21794E-08  1.13500E-08  9.64842E-09  1.00694E-08  9.39816E-09
   9.36058E-09  8.66602E-09  8.48465E-09  8.78036E-09  8.36862E-09  7.80648E-09  7.36367E-09  6.69792E-09  6.76043E-09  6.78119E-09
   6.86755E-09  6.71033E-09  6.93387E-09  6.36888E-09  5.70408E-09  5.82485E-09  5.74313E-09  5.47787E-09  5.84594E-09  5.48258E-09
   6.29228E-09  7.92250E-09  1.07643E-08  1.17048E-08  1.21329E-08  1.12734E-08  1.12805E-08  9.69461E-09  8.81122E-09  8.16278E-09
   7.10669E-09  6.85754E-09  6.77558E-09  5.89732E-09  5.13358E-09  5.51767E-09  5.83144E-09  6.90467E-09  1.00912E-08  1.32054E-08
   1.45648E-08  1.51206E-08  1.40614E-08  1.30841E-08  1.20925E-08  1.19141E-08  1.16188E-08  1.05924E-08  1.06506E-08  1.07228E-08
   1.02391E-08  1.00963E-08  9.53073E-09  8.41453E-09  8.58463E-09  8.28999E-09  7.87727E-09  7.20675E-09  6.66415E-09  7.61703E-09
   6.61007E-09  7.11954E-09  6.97379E-09  6.40296E-09  6.77175E-09  6.17000E-09  6.63931E-09  5.26521E-09  5.31756E-09  4.54920E-09
   4.08986E-09  4.12804E-09  4.34720E-09  5.30867E-09  4.96822E-09  4.59881E-09  5.47085E-09  5.31476E-09  4.87111E-09  5.69452E-09
   5.56745E-09  5.07111E-09  4.85852E-09  4.16744E-09  3.89018E-09  3.41637E-09  3.32186E-09  4.13123E-09  3.57298E-09  3.35149E-09
   3.90204E-09  3.74719E-09  4.13097E-09  3.59778E-09  3.45035E-09  3.45135E-09  3.09249E-09  3.88142E-09  3.53837E-09  4.57529E-09
   5.82489E-09  5.54705E-09  5.44946E-09  5.20445E-09  5.70778E-09  5.91000E-09  6.45159E-09  6.32711E-09  6.39901E-09  5.83058E-09
   6.02019E-09  6.08702E-09  5.90202E-09  5.46615E-09  5.33737E-09  5.62121E-09  5.65662E-09  5.23440E-09  5.45671E-09  5.79732E-09
   5.66259E-09  5.29048E-09  5.11592E-09  5.08672E-09  5.15239E-09  5.31174E-09  5.96449E-09  7.25197E-09  9.09167E-09  1.18726E-08
   1.63575E-08  1.77446E-08  1.72292E-08  1.56088E-08  1.48822E-08  1.35331E-08  1.28228E-08  1.12772E-08  1.10780E-08  1.03808E-08
   1.04885E-08  8.91754E-09  8.30740E-09  7.64647E-09  6.40493E-09  6.06848E-09  4.59763E-09  3.01103E-09  2.24664E-09  6.24584E-10
  -1.06804E-09 -2.15050E-09 -4.49064E-09 -6.48457E-09 -7.52536E-09 -9.97468E-09 -1.12878E-08 -1.27507E-08 -1.36012E-08 -1.48509E-08
  -1.51244E-08 -1.48107E-08 -1.53187E-08 -1.47224E-08 -1.32505E-08 -1.26107E-08 -1.05071E-08 -9.01665E-09 -7.98180E-09 -6.69240E-09
  -4.67651E-09 -3.98518E-09 -2.30810E-09 -1.94216E-09 -1.08305E-09 -1.86437E-09 -1.25497E-09 -1.43265E-09 -1.71739E-09 -1.67862E-09
  -1.71353E-09 -2.27665E-09 -2.12024E-09 -1.36675E-09 -1.35254E-09 -8.86284E-10 -1.20344E-09 -7.28111E-10 -7.92162E-10 -1.71862E-09
  -1.15520E-09 -1.89588E-09 -1.64218E-09 -1.93314E-09 -1.14505E-09 -1.12159E-09 -5.58209E-10 -4.66246E-10 -1.19611E-09 -3.90430E-10
  -9.85992E-10 -1.18358E-09 -1.58331E-09 -1.07950E-09 -1.24093E-09 -1.82360E-09 -1.09953E-09 -1.33811E-09 -3.75818E-10 -5.96229E-10
  -5.61625E-10  1.12536E-10  4.38760E-10 -7.09426E-10  1.99770E-10 -6.53056E-10 -9.46710E-10 -6.57720E-10 -1.13029E-09 -1.29338E-09
  -1.12386E-09 -1.43998E-09 -1.50895E-09 -1.70578E-09 -1.18539E-09 -1.09082E-09 -8.91172E-10 -1.00440E-09 -7.59505E-10  5.96698E-11
  -2.99629E-10 -1.93700E-11  3.49523E-10  9.02230E-11  5.81144E-10  3.69324E-10 -1.61754E-10  4.77974E-10  1.00497E-11  1.87265E-10
   3.95303E-11 -4.19269E-10 -3.14793E-10 -9.63303E-10  1.86809E-10 -7.13487E-10 -8.60783E-10 -7.15741E-10 -5.08325E-10 -8.29267E-10
  -1.05383E-09 -7.47461E-10 -1.17860E-09 -6.87593E-10 -7.89683E-10 -8.45310E-10 -1.12780E-09 -1.01023E-09 -1.15472E-09 -1.65363E-09
  -6.09843E-10 -1.13910E-09 -1.74631E-09 -1.07142E-09 -7.49010E-10 -1.15322E-09 -8.60969E-10 -1.23007E-09 -5.08034E-10 -1.07116E-09
  -1.12702E-09 -1.13695E-09 -7.42114E-10 -1.01261E-09 -8.46450E-10 -1.34042E-09 -6.47635E-10 -6.72744E-10 -1.39668E-09 -5.60100E-10
  -5.52219E-10 -8.21160E-10 -9.61208E-10 -2.19832E-10 -6.47582E-10 -5.75801E-10 -7.55117E-10 -4.81778E-10 -7.14743E-10 -2.30495E-10
  -1.02990E-09 -1.83158E-10 -4.83920E-10 -3.10845E-10 -2.99261E-10 -4.04174E-10 -1.78223E-10 -2.41817E-11 -2.44878E-10 -8.87663E-10
   4.08671E-11 -5.99615E-10 -1.71220E-10 -1.17155E-10 -1.14073E-12 -1.75267E-10 -7.21295E-11 -4.58497E-10  7.59289E-11 -1.62839E-11
  -7.78888E-11  9.40633E-11 -6.10422E-11 -5.92236E-11 -1.13944E-10  1.79091E-10  5.00058E-10  2.72239E-10 -2.25648E-10  2.09982E-10
   4.71396E-10  9.93152E-10  3.13755E-10
 NY points of the fit to the data follow
   1.21038E-08  1.24804E-08  1.20949E-08  1.16112E-08  1.15315E-08  1.14263E-08  1.09426E-08  1.01987E-08  9.57965E-09  9.40664E-09
   9.57188E-09  9.87167E-09  1.03749E-08  1.08608E-08  1.12596E-08  1.13977E-08  1.13377E-08  1.13048E-08  1.11200E-08  1.05319E-08
   9.94581E-09  9.58052E-09  9.34800E-09  9.19076E-09  9.35444E-09  9.88084E-09  1.06341E-08  1.13208E-08  1.17466E-08  1.18968E-08
   1.20597E-08  1.20948E-08  1.20383E-08  1.17712E-08  1.12774E-08  1.06620E-08  1.02435E-08  9.95075E-09  9.73211E-09  9.55129E-09
   9.35415E-09  9.06141E-09  8.62024E-09  8.14149E-09  7.83483E-09  7.60550E-09  7.40939E-09  7.22608E-09  7.05026E-09  6.89239E-09
   6.74889E-09  6.62212E-09  6.51026E-09  6.40263E-09  6.35093E-09  6.48523E-09  6.72472E-09  7.05510E-09  7.58583E-09  8.22758E-09
   8.83519E-09  9.41041E-09  9.89104E-09  1.02068E-08  1.02936E-08  1.01237E-08  9.79213E-09  9.39408E-09  8.78308E-09  8.13529E-09
   7.70703E-09  7.43460E-09  7.27364E-09  7.25597E-09  7.36100E-09  7.65375E-09  8.18633E-09  9.06354E-09  1.02141E-08  1.14096E-08
   1.24550E-08  1.31971E-08  1.35456E-08  1.36905E-08  1.36509E-08  1.31906E-08  1.23503E-08  1.13206E-08  1.02869E-08  9.54508E-09
   9.05596E-09  8.68988E-09  8.39541E-09  8.14738E-09  7.92968E-09  7.73692E-09  7.56631E-09  7.41134E-09  7.26583E-09  7.12785E-09
   7.00209E-09  6.88686E-09  6.77654E-09  6.66974E-09  6.56858E-09  6.47237E-09  6.38016E-09  6.29132E-09  6.20518E-09  6.12140E-09
   6.03970E-09  5.95975E-09  5.88130E-09  5.80413E-09  5.72804E-09  5.65286E-09  5.57844E-09  5.50462E-09  5.43129E-09  5.35836E-09
   5.28566E-09  5.21318E-09  5.14077E-09  5.06838E-09  4.99595E-09  4.92338E-09  4.85062E-09  4.77764E-09  4.70437E-09  4.63075E-09
   4.55675E-09  4.48230E-09  4.40741E-09  4.33202E-09  4.25609E-09  4.17957E-09  4.10251E-09  4.02480E-09  3.94647E-09  3.86746E-09
   3.78780E-09  3.70745E-09  3.62643E-09  3.54469E-09  3.46228E-09  3.37920E-09  3.29547E-09  3.21119E-09  3.12643E-09  3.04134E-09
   2.95602E-09  2.87066E-09  2.78543E-09  2.70061E-09  2.61648E-09  2.53346E-09  2.45209E-09  2.37313E-09  2.29765E-09  2.22723E-09
   2.16430E-09  2.11289E-09  2.07998E-09  2.07911E-09  2.14015E-09  2.34521E-09  3.02391E-09  5.57745E-09  9.26737E-09  1.30008E-08
   1.59949E-08  1.77838E-08  1.83707E-08  1.80782E-08  1.71211E-08  1.52902E-08  1.21414E-08  7.70285E-09  3.35459E-09  1.68323E-09
   1.05807E-09  7.07376E-10  4.65353E-10  2.77568E-10  1.20910E-10 -1.60795E-11 -1.39702E-10 -2.53682E-10 -3.60422E-10 -4.61439E-10
  -5.57757E-10 -6.50140E-10 -7.39081E-10 -8.24960E-10 -9.08018E-10 -9.88479E-10 -1.06650E-09 -1.14213E-09 -1.21548E-09 -1.28661E-09
  -1.35555E-09 -1.42231E-09 -1.48689E-09 -1.54932E-09 -1.60959E-09 -1.66766E-09 -1.72355E-09 -1.77724E-09 -1.82871E-09 -1.87790E-09
  -1.92486E-09 -1.96950E-09 -2.01182E-09 -2.05180E-09 -2.08943E-09 -2.12464E-09 -2.15743E-09 -2.18779E-09 -2.21566E-09 -2.24110E-09
  -2.26416E-09 -2.28489E-09 -2.30333E-09 -2.31955E-09 -2.33359E-09 -2.34550E-09 -2.35534E-09 -2.36316E-09 -2.36900E-09 -2.37293E-09
  -2.37499E-09 -2.37523E-09 -2.37370E-09 -2.37046E-09 -2.36555E-09 -2.35904E-09 -2.35096E-09 -2.34137E-09 -2.33032E-09 -2.31786E-09
  -2.30403E-09 -2.28891E-09 -2.27252E-09 -2.25493E-09 -2.23617E-09 -2.21630E-09 -2.19538E-09 -2.17344E-09 -2.15054E-09 -2.12672E-09
  -2.10205E-09 -2.07654E-09 -2.05029E-09 -2.02329E-09 -1.99561E-09 -1.96732E-09 -1.93844E-09 -1.90902E-09 -1.87911E-09 -1.84874E-09
  -1.81798E-09 -1.78686E-09 -1.75542E-09 -1.72371E-09 -1.69176E-09 -1.65963E-09 -1.62735E-09 -1.59496E-09 -1.56251E-09 -1.53003E-09
  -1.49756E-09 -1.46514E-09 -1.43281E-09 -1.40059E-09 -1.36855E-09 -1.33669E-09 -1.30507E-09 -1.27372E-09 -1.24266E-09 -1.21193E-09
  -1.18157E-09 -1.15160E-09 -1.12206E-09 -1.09297E-09 -1.06436E-09 -1.03626E-09 -1.00871E-09 -9.81705E-10 -9.55300E-10 -9.29508E-10
  -9.04345E-10 -8.79834E-10 -8.55956E-10 -8.32702E-10 -8.10059E-10 -7.88023E-10 -7.66573E-10 -7.45707E-10 -7.25409E-10 -7.05671E-10
  -6.86485E-10 -6.67835E-10 -6.49718E-10 -6.32120E-10 -6.15029E-10 -5.98439E-10 -5.82342E-10 -5.66728E-10 -5.51584E-10 -5.36902E-10
  -5.22677E-10 -5.08896E-10 -4.95556E-10 -4.82642E-10 -4.70151E-10 -4.58072E-10 -4.46401E-10 -4.35125E-10 -4.24242E-10 -4.13743E-10
  -4.03622E-10 -3.93865E-10 -3.84477E-10 -3.75446E-10 -3.66764E-10 -3.58424E-10 -3.50430E-10 -3.42768E-10 -3.35438E-10 -3.28428E-10
  -3.21740E-10 -3.15367E-10 -3.09302E-10 -3.03543E-10 -2.98091E-10 -2.92936E-10 -2.88079E-10 -2.83512E-10 -2.79240E-10 -2.75249E-10
  -2.71550E-10 -2.68130E-10 -2.64996E-10 -2.62142E-10 -2.59561E-10 -2.57267E-10 -2.55246E-10 -2.53505E-10 -2.52038E-10 -2.50850E-10
  -2.49941E-10 -2.49309E-10 -2.48957E-10 -2.48884E-10 -2.49096E-10 -2.49589E-10 -2.50373E-10 -2.51442E-10 -2.52803E-10 -2.54460E-10
  -2.56413E-10 -2.58667E-10 -2.61230E-10
 NY background values follow
     3.229E-09    3.282E-09    3.334E-09    3.385E-09    3.435E-09    3.484E-09    3.532E-09    3.580E-09    3.626E-09    3.672E-09
     3.716E-09    3.760E-09    3.803E-09    3.846E-09    3.887E-09    3.927E-09    3.967E-09    4.005E-09    4.043E-09    4.080E-09
     4.116E-09    4.151E-09    4.185E-09    4.219E-09    4.252E-09    4.283E-09    4.314E-09    4.344E-09    4.373E-09    4.402E-09
     4.429E-09    4.456E-09    4.482E-09    4.507E-09    4.531E-09    4.554E-09    4.577E-09    4.598E-09    4.619E-09    4.640E-09
     4.659E-09    4.677E-09    4.695E-09    4.712E-09    4.728E-09    4.744E-09    4.758E-09    4.772E-09    4.785E-09    4.798E-09
     4.810E-09    4.821E-09    4.831E-09    4.840E-09    4.849E-09    4.857E-09    4.864E-09    4.871E-09    4.877E-09    4.883E-09
     4.887E-09    4.891E-09    4.895E-09    4.897E-09    4.899E-09    4.901E-09    4.902E-09    4.902E-09    4.901E-09    4.900E-09
     4.899E-09    4.897E-09    4.894E-09    4.891E-09    4.887E-09    4.882E-09    4.877E-09    4.872E-09    4.866E-09    4.859E-09
     4.851E-09    4.843E-09    4.835E-09    4.826E-09    4.816E-09    4.805E-09    4.794E-09    4.783E-09    4.770E-09    4.757E-09
     4.743E-09    4.729E-09    4.714E-09    4.698E-09    4.682E-09    4.664E-09    4.646E-09    4.628E-09    4.608E-09    4.588E-09
     4.567E-09    4.545E-09    4.522E-09    4.499E-09    4.475E-09    4.450E-09    4.424E-09    4.397E-09    4.369E-09    4.341E-09
     4.312E-09    4.281E-09    4.250E-09    4.218E-09    4.185E-09    4.151E-09    4.116E-09    4.080E-09    4.044E-09    4.006E-09
     3.967E-09    3.927E-09    3.886E-09    3.844E-09    3.801E-09    3.757E-09    3.712E-09    3.666E-09    3.619E-09    3.571E-09
     3.521E-09    3.471E-09    3.419E-09    3.366E-09    3.312E-09    3.257E-09    3.201E-09    3.143E-09    3.085E-09    3.025E-09
     2.963E-09    2.901E-09    2.838E-09    2.773E-09    2.707E-09    2.639E-09    2.571E-09    2.501E-09    2.430E-09    2.358E-09
     2.285E-09    2.211E-09    2.135E-09    2.059E-09    1.983E-09    1.905E-09    1.827E-09    1.748E-09    1.668E-09    1.588E-09
     1.507E-09    1.425E-09    1.344E-09    1.262E-09    1.179E-09    1.097E-09    1.014E-09    9.307E-10    8.477E-10    7.646E-10
     6.815E-10    5.986E-10    5.157E-10    4.331E-10    3.507E-10    2.686E-10    1.869E-10    1.057E-10    2.485E-11   -5.543E-11
    -1.351E-10   -2.142E-10   -2.925E-10   -3.701E-10   -4.469E-10   -5.228E-10   -5.978E-10   -6.718E-10   -7.449E-10   -8.168E-10
    -8.876E-10   -9.572E-10   -1.026E-09   -1.093E-09   -1.159E-09   -1.223E-09   -1.286E-09   -1.347E-09   -1.407E-09   -1.466E-09
    -1.522E-09   -1.578E-09   -1.631E-09   -1.683E-09   -1.732E-09   -1.780E-09   -1.826E-09   -1.870E-09   -1.913E-09   -1.953E-09
    -1.991E-09   -2.027E-09   -2.061E-09   -2.092E-09   -2.122E-09   -2.149E-09   -2.174E-09   -2.197E-09   -2.217E-09   -2.235E-09
    -2.251E-09   -2.264E-09   -2.275E-09   -2.285E-09   -2.292E-09   -2.297E-09   -2.300E-09   -2.301E-09   -2.300E-09   -2.298E-09
    -2.294E-09   -2.288E-09   -2.280E-09   -2.270E-09   -2.259E-09   -2.247E-09   -2.233E-09   -2.217E-09   -2.201E-09   -2.182E-09
    -2.163E-09   -2.142E-09   -2.120E-09   -2.097E-09   -2.073E-09   -2.048E-09   -2.022E-09   -1.994E-09   -1.966E-09   -1.937E-09
    -1.908E-09   -1.877E-09   -1.846E-09   -1.814E-09   -1.781E-09   -1.748E-09   -1.715E-09   -1.680E-09   -1.646E-09   -1.611E-09
    -1.575E-09   -1.540E-09   -1.504E-09   -1.468E-09   -1.431E-09   -1.395E-09   -1.358E-09   -1.321E-09   -1.285E-09   -1.248E-09
    -1.211E-09   -1.175E-09   -1.138E-09   -1.102E-09   -1.066E-09   -1.030E-09   -9.943E-10   -9.591E-10   -9.241E-10   -8.895E-10
    -8.553E-10   -8.216E-10   -7.883E-10   -7.555E-10   -7.232E-10   -6.914E-10   -6.602E-10   -6.296E-10   -5.997E-10   -5.704E-10
    -5.417E-10   -5.137E-10   -4.864E-10   -4.598E-10   -4.338E-10   -4.084E-10   -3.836E-10   -3.595E-10   -3.360E-10   -3.130E-10
    -2.906E-10   -2.688E-10   -2.476E-10   -2.269E-10   -2.067E-10   -1.871E-10   -1.680E-10   -1.494E-10   -1.312E-10   -1.136E-10
    -9.650E-11   -7.983E-11   -6.364E-11   -4.790E-11   -3.261E-11   -1.775E-11   -3.331E-12    1.067E-11    2.425E-11    3.742E-11
     5.019E-11    6.257E-11    7.455E-11    8.616E-11    9.739E-11    1.082E-10    1.187E-10    1.289E-10    1.387E-10    1.481E-10
     1.572E-10    1.659E-10    1.744E-10    1.824E-10    1.902E-10    1.977E-10    2.048E-10    2.116E-10    2.181E-10    2.242E-10
     2.301E-10    2.357E-10    2.409E-10    2.459E-10    2.506E-10    2.549E-10    2.590E-10    2.627E-10    2.662E-10    2.694E-10
     2.722E-10    2.748E-10    2.770E-10    2.790E-10    2.807E-10    2.820E-10    2.831E-10    2.838E-10    2.842E-10    2.843E-10
     2.841E-10    2.836E-10    2.827E-10
 Gln      Conc. = 1.86E-09
   1.79953E-09  2.07857E-09  2.47613E-09  2.98331E-09  3.54311E-09  4.09279E-09  4.57495E-09  4.94533E-09  5.19101E-09  5.36259E-09
   5.35586E-09  5.16800E-09  5.04344E-09  4.83628E-09  4.66473E-09  4.54778E-09  4.46528E-09  4.40516E-09  4.36036E-09  4.32648E-09
   4.30056E-09  4.28058E-09  4.26506E-09  4.25298E-09  4.24367E-09  4.23662E-09  4.23101E-09  4.22648E-09  4.22279E-09  4.21942E-09
   4.21610E-09  4.21257E-09  4.20863E-09  4.20411E-09  4.19880E-09  4.19258E-09  4.18522E-09  4.17657E-09  4.16645E-09  4.15460E-09
   4.14089E-09  4.12505E-09  4.10699E-09  4.08650E-09  4.06327E-09  4.03701E-09  4.00741E-09  3.97352E-09  3.93511E-09  3.89264E-09
   3.84495E-09  3.79219E-09  3.73710E-09  3.69047E-09  3.70873E-09  3.91046E-09  4.21200E-09  4.59103E-09  5.16702E-09  5.87619E-09
   6.58011E-09  7.26690E-09  7.85480E-09  8.24778E-09  8.38630E-09  8.26982E-09  8.00368E-09  7.69193E-09  7.15047E-09  6.54598E-09
   6.13175E-09  5.85519E-09  5.68682E-09  5.68815E-09  5.84690E-09  6.20947E-09  6.66005E-09  7.15435E-09  7.66465E-09  8.12986E-09
   8.50304E-09  8.72892E-09  8.72787E-09  8.62468E-09  8.45795E-09  8.10019E-09  7.70589E-09  7.41098E-09  7.07571E-09  6.77742E-09
   6.55037E-09  6.36920E-09  6.21954E-09  6.09204E-09  5.97979E-09  5.87963E-09  5.78921E-09  5.70636E-09  5.62974E-09  5.55832E-09
   5.49096E-09  5.42678E-09  5.36529E-09  5.30610E-09  5.24886E-09  5.19328E-09  5.13895E-09  5.08568E-09  5.03323E-09  4.98139E-09
   4.93009E-09  4.87913E-09  4.82839E-09  4.77777E-09  4.72718E-09  4.67652E-09  4.62572E-09  4.57471E-09  4.52340E-09  4.47177E-09
   4.41971E-09  4.36722E-09  4.31421E-09  4.26067E-09  4.20654E-09  4.15178E-09  4.09634E-09  4.04023E-09  3.98338E-09  3.92577E-09
   3.86738E-09  3.80815E-09  3.74811E-09  3.68720E-09  3.62540E-09  3.56266E-09  3.49904E-09  3.43445E-09  3.36890E-09  3.30235E-09
   3.23482E-09  3.16628E-09  3.09672E-09  3.02610E-09  2.95446E-09  2.88176E-09  2.80802E-09  2.73330E-09  2.65764E-09  2.58113E-09
   2.50381E-09  2.42578E-09  2.34710E-09  2.26789E-09  2.18825E-09  2.10832E-09  2.02827E-09  1.94830E-09  1.86872E-09  1.78993E-09
   1.71251E-09  1.63742E-09  1.56623E-09  1.50195E-09  1.45094E-09  1.42991E-09  1.50111E-09  1.98172E-09  2.74135E-09  3.52715E-09
   4.15586E-09  4.51530E-09  4.59845E-09  4.47630E-09  4.20317E-09  3.73929E-09  2.98347E-09  1.92599E-09  8.51552E-10  3.69432E-10
   1.58469E-10  1.56990E-11 -1.00555E-10 -2.03504E-10 -2.98641E-10 -3.88621E-10 -4.74864E-10 -5.58166E-10 -6.39076E-10 -7.17874E-10
  -7.94736E-10 -8.69824E-10 -9.43188E-10 -1.01488E-09 -1.08490E-09 -1.15328E-09 -1.22001E-09 -1.28504E-09 -1.34836E-09 -1.40998E-09
  -1.46984E-09 -1.52792E-09 -1.58417E-09 -1.63857E-09 -1.69109E-09 -1.74166E-09 -1.79028E-09 -1.83690E-09 -1.88150E-09 -1.92400E-09
  -1.96442E-09 -2.00268E-09 -2.03876E-09 -2.07263E-09 -2.10426E-09 -2.13360E-09 -2.16063E-09 -2.18532E-09 -2.20763E-09 -2.22761E-09
  -2.24528E-09 -2.26072E-09 -2.27395E-09 -2.28503E-09 -2.29401E-09 -2.30094E-09 -2.30586E-09 -2.30882E-09 -2.30988E-09 -2.30908E-09
  -2.30648E-09 -2.30211E-09 -2.29604E-09 -2.28831E-09 -2.27897E-09 -2.26806E-09 -2.25565E-09 -2.24178E-09 -2.22650E-09 -2.20985E-09
  -2.19188E-09 -2.17267E-09 -2.15223E-09 -2.13063E-09 -2.10791E-09 -2.08412E-09 -2.05931E-09 -2.03353E-09 -2.00683E-09 -1.97925E-09
  -1.95086E-09 -1.92167E-09 -1.89176E-09 -1.86115E-09 -1.82990E-09 -1.79807E-09 -1.76568E-09 -1.73278E-09 -1.69943E-09 -1.66566E-09
  -1.63152E-09 -1.59706E-09 -1.56232E-09 -1.52733E-09 -1.49213E-09 -1.45678E-09 -1.42132E-09 -1.38578E-09 -1.35020E-09 -1.31462E-09
  -1.27908E-09 -1.24362E-09 -1.20827E-09 -1.17307E-09 -1.13807E-09 -1.10329E-09 -1.06876E-09 -1.03454E-09 -1.00062E-09 -9.67072E-10
  -9.33913E-10 -9.01171E-10 -8.68883E-10 -8.37067E-10 -8.05762E-10 -7.74993E-10 -7.44789E-10 -7.15160E-10 -6.86154E-10 -6.57783E-10
  -6.30066E-10 -6.03024E-10 -5.76637E-10 -5.50898E-10 -5.25792E-10 -5.01316E-10 -4.77448E-10 -4.54185E-10 -4.31514E-10 -4.09423E-10
  -3.87906E-10 -3.66946E-10 -3.46541E-10 -3.26675E-10 -3.07337E-10 -2.88521E-10 -2.70219E-10 -2.52419E-10 -2.35110E-10 -2.18284E-10
  -2.01934E-10 -1.86047E-10 -1.70622E-10 -1.55642E-10 -1.41106E-10 -1.27000E-10 -1.13322E-10 -1.00057E-10 -8.72042E-11 -7.47546E-11
  -6.27017E-11 -5.10315E-11 -3.97481E-11 -2.88406E-11 -1.83006E-11 -8.12031E-12  1.69556E-12  1.11620E-11  2.02790E-11  2.90583E-11
   3.74970E-11  4.56042E-11  5.33858E-11  6.08432E-11  6.79776E-11  7.47967E-11  8.13012E-11  8.74980E-11  9.33834E-11  9.89716E-11
   1.04250E-10  1.09234E-10  1.13915E-10  1.18299E-10  1.22394E-10  1.26187E-10  1.29689E-10  1.32895E-10  1.35811E-10  1.38431E-10
   1.40757E-10  1.42790E-10  1.44527E-10  1.45969E-10  1.47111E-10  1.47955E-10  1.48493E-10  1.48730E-10  1.48661E-10  1.48279E-10
   1.47587E-10  1.46577E-10  1.45245E-10
 GPC      Conc. = 1.57E-10
   3.24348E-09  3.30420E-09  3.30251E-09  3.25068E-09  3.21231E-09  3.23787E-09  3.35430E-09  3.52908E-09  3.72760E-09  3.92179E-09
   4.09524E-09  4.23788E-09  4.33524E-09  4.37140E-09  4.34307E-09  4.24013E-09  4.11352E-09  3.98744E-09  3.88131E-09  3.77791E-09
   3.66140E-09  3.51479E-09  3.31838E-09  3.17057E-09  3.34883E-09  3.81436E-09  4.45771E-09  5.15309E-09  5.78937E-09  6.32244E-09
   6.77049E-09  7.14481E-09  7.37482E-09  7.31183E-09  6.86506E-09  6.28953E-09  5.98894E-09  5.80614E-09  5.68231E-09  5.59289E-09
   5.52564E-09  5.47354E-09  5.43231E-09  5.39909E-09  5.37196E-09  5.34949E-09  5.33070E-09  5.31478E-09  5.30115E-09  5.28937E-09
   5.27903E-09  5.26988E-09  5.26164E-09  5.25412E-09  5.24717E-09  5.24059E-09  5.23432E-09  5.22829E-09  5.22231E-09  5.21640E-09
   5.21049E-09  5.20449E-09  5.19841E-09  5.19218E-09  5.18581E-09  5.17921E-09  5.17238E-09  5.16528E-09  5.15792E-09  5.15028E-09
   5.14233E-09  5.13406E-09  5.12550E-09  5.11658E-09  5.10733E-09  5.09773E-09  5.08774E-09  5.07736E-09  5.06657E-09  5.05536E-09
   5.04369E-09  5.03157E-09  5.01898E-09  5.00589E-09  4.99230E-09  4.97820E-09  4.96356E-09  4.94839E-09  4.93266E-09  4.91635E-09
   4.89945E-09  4.88198E-09  4.86387E-09  4.84516E-09  4.82580E-09  4.80579E-09  4.78512E-09  4.76378E-09  4.74175E-09  4.71901E-09
   4.69557E-09  4.67140E-09  4.64648E-09  4.62083E-09  4.59440E-09  4.56719E-09  4.53919E-09  4.51040E-09  4.48079E-09  4.45033E-09
   4.41906E-09  4.38692E-09  4.35391E-09  4.32001E-09  4.28523E-09  4.24953E-09  4.21293E-09  4.17540E-09  4.13691E-09  4.09750E-09
   4.05708E-09  4.01571E-09  3.97333E-09  3.92995E-09  3.88556E-09  3.84013E-09  3.79364E-09  3.74613E-09  3.69755E-09  3.64788E-09
   3.59713E-09  3.54527E-09  3.49231E-09  3.43823E-09  3.38301E-09  3.32662E-09  3.26912E-09  3.21043E-09  3.15057E-09  3.08951E-09
   3.02727E-09  2.96382E-09  2.89916E-09  2.83325E-09  2.76612E-09  2.69775E-09  2.62814E-09  2.55735E-09  2.48541E-09  2.41238E-09
   2.33832E-09  2.26327E-09  2.18729E-09  2.11044E-09  2.03277E-09  1.95434E-09  1.87522E-09  1.79546E-09  1.71514E-09  1.63436E-09
   1.55318E-09  1.47177E-09  1.39030E-09  1.30912E-09  1.22890E-09  1.15156E-09  1.08539E-09  1.05922E-09  1.05170E-09  1.04219E-09
   1.01636E-09  9.66190E-10  8.93199E-10  8.04287E-10  7.02928E-10  5.83721E-10  4.37832E-10  2.68213E-10  1.06655E-10  2.26838E-12
  -8.70326E-11 -1.71409E-10 -2.53289E-10 -3.33457E-10 -4.12266E-10 -4.89865E-10 -5.66306E-10 -6.41581E-10 -7.15733E-10 -7.88712E-10
  -8.60468E-10 -9.31005E-10 -1.00026E-09 -1.06819E-09 -1.13475E-09 -1.19989E-09 -1.26360E-09 -1.32578E-09 -1.38640E-09 -1.44545E-09
  -1.50285E-09 -1.55857E-09 -1.61255E-09 -1.66475E-09 -1.71515E-09 -1.76368E-09 -1.81030E-09 -1.85498E-09 -1.89769E-09 -1.93834E-09
  -1.97696E-09 -2.01346E-09 -2.04782E-09 -2.08000E-09 -2.10999E-09 -2.13770E-09 -2.16314E-09 -2.18627E-09 -2.20705E-09 -2.22552E-09
  -2.24171E-09 -2.25568E-09 -2.26748E-09 -2.27715E-09 -2.28473E-09 -2.29028E-09 -2.29385E-09 -2.29548E-09 -2.29523E-09 -2.29313E-09
