 LCModel (Version 6.3-1R) Copyright: S.W. Provencher.          Ref.: Magn. Reson. Med. 30:672-679 (1993).                
 onepulse 16x29_ftSpec_smooth_lcm
 26 lines in following concentration table = NCONC+1
    Conc.  %SD /Cr+PCr  Metabolite                                         
 2.00E-10 213%   0.583 Ala                                                 
 1.35E-09  88%   3.917 Asp                                                 
    0.000 999%   0.000 Cr                                                  
 8.46E-10 109%   2.459 GABA                                                
    0.000 999%   0.000 Glc                                                 
    0.000 999%   0.000 Gln                                                 
    0.000 999%   0.000 Glu                                                 
    0.000 999%   0.000 Glyc                                                
    0.000 999%   0.000 GPC                                                 
 9.59E-10  57%   2.786 GSH                                                 
 2.30E-09  19%   6.681 Ins                                                 
    0.000 999%   0.000 Lac                                                 
    0.000 999%   0.000 NAAG                                                
 6.81E-10  48%   1.979 NAA                                                 
    0.000 999%   0.000 PCh                                                 
 3.44E-10 118%   1.000 PCr                                                 
 2.28E-09  38%   6.623 PE                                                  
 2.38E-10  92%   0.691 Scyllo                                              
 3.25E-09  70%   9.444 Ser                                                 
    0.000 999%   0.000 Tau                                                 
    0.000 999%   0.000 GPC+PCh                                             
 6.81E-10  48%   1.979 NAA+NAAG                                            
 2.30E-09  19%   6.681 Ins+Glyc                                            
 3.44E-10 118%   1.000 Cr+PCr                                              
    0.000 999%   0.000 Glu+Gln                                             
   6 lines in following misc. output table
  FWHM = 0.123 ppm    S/N =   3                                            
  Data shift = 0.447 ppm                                                   
  Ph: 132 deg      16.5 deg/ppm                                            
  alphaB,S = 3.9E-01,   1.3E+01                                            
   10 spline knots.   Ns = 5(1)                                            
  (10) 4 infls.   ( 9) 3 extrs.                                            
  363 points on ppm-axis = NY
      4.250000     4.238821     4.227641     4.216462     4.205282     4.194103     4.182923     4.171744     4.160564     4.149385
      4.138206     4.127026     4.115847     4.104667     4.093488     4.082308     4.071129     4.059949     4.048770     4.037591
      4.026411     4.015232     4.004052     3.992873     3.981693     3.970514     3.959334     3.948155     3.936975     3.925796
      3.914617     3.903437     3.892258     3.881078     3.869899     3.858719     3.847540     3.836360     3.825181     3.814002
      3.802822     3.791643     3.780463     3.769284     3.758104     3.746925     3.735745     3.724566     3.713387     3.702207
      3.691028     3.679848     3.668669     3.657489     3.646310     3.635130     3.623951     3.612772     3.601592     3.590413
      3.579233     3.568054     3.556874     3.545695     3.534515     3.523336     3.512156     3.500977     3.489798     3.478618
      3.467439     3.456259     3.445080     3.433900     3.422721     3.411541     3.400362     3.389183     3.378003     3.366824
      3.355644     3.344465     3.333285     3.322106     3.310926     3.299747     3.288568     3.277388     3.266209     3.255029
      3.243850     3.232670     3.221491     3.210311     3.199132     3.187953     3.176773     3.165594     3.154414     3.143235
      3.132055     3.120876     3.109696     3.098517     3.087337     3.076158     3.064979     3.053799     3.042620     3.031440
      3.020261     3.009081     2.997902     2.986722     2.975543     2.964364     2.953184     2.942005     2.930825     2.919646
      2.908466     2.897287     2.886107     2.874928     2.863749     2.852569     2.841390     2.830210     2.819031     2.807851
      2.796672     2.785492     2.774313     2.763134     2.751954     2.740775     2.729595     2.718416     2.707236     2.696057
      2.684877     2.673698     2.662519     2.651339     2.640160     2.628980     2.617801     2.606621     2.595442     2.584262
      2.573083     2.561903     2.550724     2.539545     2.528365     2.517186     2.506006     2.494827     2.483647     2.472468
      2.461288     2.450109     2.438930     2.427750     2.416571     2.405391     2.394212     2.383032     2.371853     2.360673
      2.349494     2.338315     2.327135     2.315956     2.304776     2.293597     2.282417     2.271238     2.260058     2.248879
      2.237700     2.226520     2.215341     2.204161     2.192982     2.181802     2.170623     2.159443     2.148264     2.137084
      2.125905     2.114726     2.103546     2.092367     2.081187     2.070008     2.058828     2.047649     2.036469     2.025290
      2.014111     2.002931     1.991752     1.980572     1.969393     1.958213     1.947034     1.935854     1.924675     1.913496
      1.902316     1.891137     1.879957     1.868778     1.857598     1.846419     1.835239     1.824060     1.812881     1.801701
      1.790522     1.779342     1.768163     1.756983     1.745804     1.734624     1.723445     1.712265     1.701086     1.689907
      1.678727     1.667548     1.656368     1.645189     1.634009     1.622830     1.611650     1.600471     1.589292     1.578112
      1.566933     1.555753     1.544574     1.533394     1.522215     1.511035     1.499856     1.488677     1.477497     1.466318
      1.455138     1.443959     1.432779     1.421600     1.410420     1.399241     1.388062     1.376882     1.365703     1.354523
      1.343344     1.332164     1.320985     1.309805     1.298626     1.287446     1.276267     1.265088     1.253908     1.242729
      1.231549     1.220370     1.209190     1.198011     1.186831     1.175652     1.164473     1.153293     1.142114     1.130934
      1.119755     1.108575     1.097396     1.086216     1.075037     1.063858     1.052678     1.041499     1.030319     1.019140
      1.007960     0.996781     0.985601     0.974422     0.963243     0.952063     0.940884     0.929704     0.918525     0.907345
      0.896166     0.884986     0.873807     0.862628     0.851448     0.840269     0.829089     0.817910     0.806730     0.795551
      0.784371     0.773192     0.762012     0.750833     0.739654     0.728474     0.717295     0.706115     0.694936     0.683756
      0.672577     0.661397     0.650218     0.639039     0.627859     0.616680     0.605500     0.594321     0.583141     0.571962
      0.560782     0.549603     0.538424     0.527244     0.516065     0.504885     0.493706     0.482526     0.471347     0.460167
      0.448988     0.437809     0.426629     0.415450     0.404270     0.393091     0.381911     0.370732     0.359552     0.348373
      0.337193     0.326014     0.314835     0.303655     0.292476     0.281296     0.270117     0.258937     0.247758     0.236578
      0.225399     0.214220     0.203040
 NY phased data points follow
   9.87371E-09  9.88575E-09  9.87242E-09  9.99456E-09  1.05633E-08  1.03134E-08  1.10736E-08  1.13860E-08  1.14283E-08  1.08250E-08
   1.10247E-08  1.07141E-08  1.07593E-08  1.03164E-08  1.00619E-08  9.76499E-09  1.05488E-08  1.07497E-08  1.08608E-08  1.01929E-08
   9.75888E-09  9.15473E-09  9.83850E-09  1.03994E-08  1.19291E-08  1.19163E-08  1.25096E-08  1.22088E-08  1.16814E-08  1.07646E-08
   1.08865E-08  1.01328E-08  1.03298E-08  1.01761E-08  1.03310E-08  9.99622E-09  1.00000E-08  1.00184E-08  9.45956E-09  8.82320E-09
   8.95048E-09  8.34457E-09  8.68360E-09  8.37659E-09  9.22087E-09  8.17721E-09  8.00175E-09  7.74145E-09  7.38324E-09  7.15354E-09
   7.37694E-09  7.14900E-09  6.67525E-09  6.34332E-09  7.90436E-09  8.56542E-09  1.02579E-08  9.88014E-09  1.00670E-08  9.67576E-09
   9.67064E-09  8.54298E-09  8.45690E-09  8.17349E-09  7.69321E-09  6.88269E-09  6.72328E-09  5.77748E-09  5.44577E-09  4.01151E-09
   5.58192E-09  7.69099E-09  1.07491E-08  1.20121E-08  1.28253E-08  1.17226E-08  1.19188E-08  1.14324E-08  1.22595E-08  1.14586E-08
   1.11897E-08  1.14981E-08  1.19639E-08  1.10976E-08  1.12913E-08  1.09249E-08  1.11407E-08  1.04639E-08  1.06854E-08  9.93102E-09
   1.00354E-08  9.48475E-09  9.68501E-09  9.27363E-09  9.54034E-09  9.11297E-09  9.40260E-09  9.21872E-09  9.25182E-09  9.11149E-09
   8.52761E-09  8.12701E-09  7.80096E-09  6.75956E-09  7.13440E-09  6.90480E-09  7.53635E-09  6.86484E-09  6.88821E-09  6.56518E-09
   6.79173E-09  7.03204E-09  7.23861E-09  7.10573E-09  6.88382E-09  6.43788E-09  6.43792E-09  5.29011E-09  5.06641E-09  5.32975E-09
   4.92168E-09  5.13626E-09  4.47249E-09  4.38512E-09  4.53099E-09  4.43026E-09  4.57088E-09  4.46861E-09  4.16805E-09  3.12269E-09
   3.93790E-09  3.72998E-09  4.72297E-09  5.19962E-09  5.75501E-09  5.60771E-09  5.90513E-09  5.98528E-09  6.72401E-09  7.42296E-09
   8.27705E-09  8.01568E-09  8.09541E-09  8.25488E-09  8.40519E-09  8.13084E-09  8.46467E-09  8.59105E-09  8.75500E-09  9.01269E-09
   8.79009E-09  8.54951E-09  8.99915E-09  9.25853E-09  9.54589E-09  9.04112E-09  9.70213E-09  9.06868E-09  9.53955E-09  8.64740E-09
   8.34866E-09  7.75871E-09  1.01977E-08  1.39525E-08  1.69969E-08  1.92940E-08  1.95779E-08  1.95833E-08  2.02897E-08  2.03750E-08
   2.08222E-08  2.12329E-08  2.14566E-08  2.12833E-08  2.19961E-08  2.17337E-08  2.20568E-08  2.22765E-08  2.16722E-08  2.06714E-08
   2.03559E-08  1.90393E-08  1.82874E-08  1.61678E-08  1.41688E-08  1.17653E-08  8.91371E-09  5.88265E-09  3.00700E-09  2.45172E-10
  -2.88937E-09 -5.48830E-09 -8.00230E-09 -9.55567E-09 -1.14929E-08 -1.31156E-08 -1.33050E-08 -1.31593E-08 -1.23805E-08 -1.18501E-08
  -9.94648E-09 -9.26491E-09 -6.70886E-09 -5.42714E-09 -3.88746E-09 -2.73280E-09 -1.33784E-09 -6.98735E-10 -4.26519E-10 -9.82620E-10
  -1.13780E-09 -1.80028E-09 -1.43783E-09 -1.90458E-09 -1.82609E-09 -1.33714E-09 -3.00028E-10 -4.76508E-11  3.74856E-10 -1.54758E-10
   1.40197E-10 -7.55317E-10 -6.92694E-10 -1.28737E-09 -1.41853E-09 -1.40839E-09 -7.17779E-10 -8.22350E-10  1.99167E-10  3.87057E-10
   4.85678E-10 -7.07155E-10 -1.32892E-09 -1.78975E-09 -1.43070E-09 -1.63211E-09 -1.46816E-09 -1.66828E-09 -1.23267E-09 -1.25095E-09
  -8.44285E-10 -7.76668E-10 -5.84119E-10 -9.22923E-10 -4.98958E-10 -1.01806E-09 -1.11030E-09 -1.57719E-09 -7.11371E-10 -1.30792E-09
  -1.42681E-09 -1.44083E-09 -1.42906E-09 -1.21440E-09 -1.27351E-09 -1.60264E-09 -1.36305E-09 -2.16530E-09 -1.60959E-09 -2.00477E-09
  -1.81874E-09 -1.68047E-09 -1.59242E-09 -1.28880E-09 -8.30478E-10 -1.31265E-09 -7.75665E-10 -5.32834E-10 -4.24797E-10 -5.63522E-10
  -3.28313E-10 -3.89899E-10  1.21010E-10 -2.17758E-10 -6.66746E-10 -4.37273E-10 -5.78822E-11 -9.63634E-10 -2.14100E-10 -1.15913E-09
  -8.84197E-10 -1.04786E-09 -1.07385E-09 -1.21247E-09 -9.16037E-10 -1.15292E-09 -1.24403E-09 -1.53080E-09 -1.28900E-09 -1.57337E-09
  -1.48701E-09 -1.68108E-09 -1.41046E-09 -1.58507E-09 -1.58693E-09 -1.41951E-09 -1.53472E-09 -1.77298E-09 -1.79698E-09 -1.40191E-09
  -1.61589E-09 -1.63849E-09 -1.66850E-09 -1.90770E-09 -1.76158E-09 -1.96806E-09 -1.87472E-09 -2.18245E-09 -1.73398E-09 -1.98452E-09
  -1.84206E-09 -2.24285E-09 -2.01308E-09 -1.91843E-09 -2.08337E-09 -2.15503E-09 -1.79193E-09 -2.12165E-09 -2.46524E-09 -2.19841E-09
  -1.86111E-09 -1.90153E-09 -1.51650E-09 -2.37147E-09 -2.39667E-09 -2.07285E-09 -1.99284E-09 -1.72658E-09 -2.30522E-09 -2.25511E-09
  -2.35866E-09 -2.26905E-09 -2.31969E-09 -2.22680E-09 -2.15365E-09 -2.19959E-09 -2.46766E-09 -2.40780E-09 -2.49295E-09 -2.32426E-09
  -2.29921E-09 -2.63243E-09 -2.59432E-09 -2.42009E-09 -2.32632E-09 -2.72658E-09 -2.54221E-09 -2.57854E-09 -2.46202E-09 -2.35287E-09
  -2.55899E-09 -2.74559E-09 -2.75923E-09 -2.26382E-09 -2.44827E-09 -2.41178E-09 -2.23924E-09 -2.39956E-09 -2.67729E-09 -2.37375E-09
  -2.44408E-09 -2.46709E-09 -2.51883E-09
 NY points of the fit to the data follow
   1.31669E-08  1.01231E-08  9.37989E-09  9.92782E-09  1.06935E-08  1.04613E-08  9.86479E-09  1.08694E-08  1.19563E-08  1.07832E-08
   1.02327E-08  1.01587E-08  1.04204E-08  1.10965E-08  1.09298E-08  1.01541E-08  1.02869E-08  1.16559E-08  1.06411E-08  8.16227E-09
   8.24721E-09  1.00788E-08  1.08085E-08  1.11220E-08  1.14936E-08  1.23389E-08  1.23838E-08  1.17805E-08  1.07607E-08  1.08786E-08
   1.11942E-08  1.12934E-08  1.05409E-08  1.00488E-08  9.68254E-09  9.45388E-09  9.04227E-09  9.08101E-09  9.02413E-09  8.90460E-09
   8.81925E-09  8.78503E-09  8.04229E-09  7.62793E-09  7.92726E-09  7.68553E-09  7.25911E-09  6.94082E-09  7.51679E-09  7.99375E-09
   8.60954E-09  9.04719E-09  9.05915E-09  8.98930E-09  8.86296E-09  8.33740E-09  8.66921E-09  9.07992E-09  9.06415E-09  8.69216E-09
   8.64459E-09  8.54277E-09  8.55375E-09  8.57030E-09  8.68269E-09  8.86242E-09  8.79948E-09  8.67966E-09  8.79899E-09  9.11136E-09
   9.31837E-09  9.29778E-09  9.44982E-09  9.61431E-09  9.77564E-09  9.82064E-09  1.04521E-08  1.20124E-08  1.18897E-08  1.13934E-08
   1.09955E-08  1.08394E-08  1.08971E-08  1.06130E-08  1.04678E-08  1.05738E-08  1.04958E-08  9.42281E-09  7.42878E-09  7.34233E-09
   7.38133E-09  7.47094E-09  7.66815E-09  7.57617E-09  7.44029E-09  7.61946E-09  7.59676E-09  7.46511E-09  7.56242E-09  7.70652E-09
   7.82105E-09  7.78222E-09  7.84679E-09  8.02592E-09  8.06150E-09  8.04189E-09  8.04518E-09  8.06448E-09  8.07475E-09  8.03611E-09
   7.87868E-09  7.72926E-09  7.80453E-09  7.71443E-09  7.51938E-09  7.49064E-09  7.49277E-09  7.50156E-09  7.51124E-09  7.51994E-09
   7.52692E-09  7.53196E-09  7.53489E-09  7.53565E-09  7.53420E-09  7.53055E-09  7.52465E-09  7.51653E-09  7.50615E-09  7.49350E-09
   7.47856E-09  7.46134E-09  7.44181E-09  7.41994E-09  7.39573E-09  7.36913E-09  7.34016E-09  7.30876E-09  7.27494E-09  7.23870E-09
   7.19998E-09  7.15881E-09  7.11520E-09  7.06914E-09  7.02061E-09  6.96968E-09  6.91639E-09  6.86081E-09  6.80301E-09  6.74315E-09
   6.68135E-09  6.61789E-09  6.55309E-09  6.48733E-09  6.42127E-09  6.35568E-09  6.29194E-09  6.23180E-09  6.17818E-09  6.13545E-09
   6.11072E-09  6.11630E-09  6.17563E-09  6.33884E-09  6.73408E-09  7.79338E-09  1.17487E-08  2.08243E-08  2.31045E-08  2.21112E-08
   2.17516E-08  2.18716E-08  2.18336E-08  2.18779E-08  2.25887E-08  2.41572E-08  2.54850E-08  2.11932E-08  9.78836E-09  6.24432E-09
   4.97945E-09  4.31390E-09  3.87858E-09  3.55373E-09  3.28981E-09  3.06301E-09  2.86043E-09  2.67462E-09  2.50108E-09  2.33684E-09
   2.17994E-09  2.02910E-09  1.88336E-09  1.74213E-09  1.60492E-09  1.47143E-09  1.34144E-09  1.21484E-09  1.09148E-09  9.71358E-10
   8.54443E-10  7.40737E-10  6.30272E-10  5.23074E-10  4.19203E-10  3.18709E-10  2.21695E-10  1.28163E-10  3.82145E-11 -4.82639E-11
  -1.31353E-10 -2.11148E-10 -2.87731E-10 -3.61196E-10 -4.31617E-10 -4.99089E-10 -5.63679E-10 -6.25467E-10 -6.84544E-10 -7.40985E-10
  -7.94850E-10 -8.46232E-10 -8.95203E-10 -9.41834E-10 -9.86205E-10 -1.02839E-09 -1.06844E-09 -1.10646E-09 -1.14253E-09 -1.17668E-09
  -1.20900E-09 -1.23957E-09 -1.26845E-09 -1.29572E-09 -1.32144E-09 -1.34570E-09 -1.36855E-09 -1.39005E-09 -1.41029E-09 -1.42932E-09
  -1.44721E-09 -1.46404E-09 -1.47986E-09 -1.49474E-09 -1.50874E-09 -1.52193E-09 -1.53437E-09 -1.54614E-09 -1.55727E-09 -1.56782E-09
  -1.57788E-09 -1.58751E-09 -1.59674E-09 -1.60562E-09 -1.61426E-09 -1.62267E-09 -1.63092E-09 -1.63906E-09 -1.64715E-09 -1.65525E-09
  -1.66336E-09 -1.67150E-09 -1.67967E-09 -1.68787E-09 -1.69610E-09 -1.70436E-09 -1.71265E-09 -1.72097E-09 -1.72932E-09 -1.73769E-09
  -1.74610E-09 -1.75453E-09 -1.76299E-09 -1.77146E-09 -1.77996E-09 -1.78848E-09 -1.79702E-09 -1.80558E-09 -1.81415E-09 -1.82273E-09
  -1.83132E-09 -1.83992E-09 -1.84852E-09 -1.85711E-09 -1.86571E-09 -1.87430E-09 -1.88288E-09 -1.89144E-09 -1.89999E-09 -1.90851E-09
  -1.91700E-09 -1.92546E-09 -1.93388E-09 -1.94226E-09 -1.95059E-09 -1.95887E-09 -1.96708E-09 -1.97523E-09 -1.98331E-09 -1.99131E-09
  -1.99923E-09 -2.00704E-09 -2.01477E-09 -2.02238E-09 -2.02989E-09 -2.03727E-09 -2.04452E-09 -2.05163E-09 -2.05861E-09 -2.06542E-09
  -2.07207E-09 -2.07855E-09 -2.08484E-09 -2.09091E-09 -2.09674E-09 -2.10231E-09 -2.10759E-09 -2.11257E-09 -2.11722E-09 -2.12151E-09
  -2.12543E-09 -2.12895E-09 -2.13206E-09 -2.13473E-09 -2.13694E-09 -2.13868E-09 -2.13992E-09 -2.14065E-09 -2.14084E-09 -2.14047E-09
  -2.13954E-09 -2.13801E-09 -2.13588E-09 -2.13313E-09 -2.12973E-09 -2.12568E-09 -2.12096E-09 -2.11555E-09 -2.10944E-09 -2.10261E-09
  -2.09505E-09 -2.08675E-09 -2.07769E-09 -2.06786E-09 -2.05724E-09 -2.04583E-09 -2.03361E-09 -2.02058E-09 -2.00672E-09 -1.99202E-09
  -1.97648E-09 -1.96007E-09 -1.94281E-09 -1.92466E-09 -1.90564E-09 -1.88572E-09 -1.86492E-09 -1.84320E-09 -1.82058E-09 -1.79705E-09
  -1.77260E-09 -1.74722E-09 -1.72092E-09
 NY background values follow
     6.454E-09    6.514E-09    6.573E-09    6.632E-09    6.689E-09    6.745E-09    6.801E-09    6.856E-09    6.909E-09    6.962E-09
     7.014E-09    7.066E-09    7.116E-09    7.165E-09    7.213E-09    7.261E-09    7.307E-09    7.353E-09    7.398E-09    7.442E-09
     7.484E-09    7.526E-09    7.567E-09    7.607E-09    7.646E-09    7.684E-09    7.722E-09    7.758E-09    7.793E-09    7.827E-09
     7.861E-09    7.893E-09    7.924E-09    7.955E-09    7.984E-09    8.012E-09    8.040E-09    8.066E-09    8.091E-09    8.115E-09
     8.139E-09    8.161E-09    8.182E-09    8.202E-09    8.221E-09    8.239E-09    8.256E-09    8.272E-09    8.287E-09    8.301E-09
     8.314E-09    8.325E-09    8.336E-09    8.345E-09    8.354E-09    8.361E-09    8.367E-09    8.373E-09    8.377E-09    8.380E-09
     8.382E-09    8.383E-09    8.384E-09    8.383E-09    8.381E-09    8.378E-09    8.375E-09    8.370E-09    8.365E-09    8.359E-09
     8.352E-09    8.344E-09    8.335E-09    8.325E-09    8.315E-09    8.304E-09    8.292E-09    8.279E-09    8.266E-09    8.252E-09
     8.237E-09    8.222E-09    8.206E-09    8.189E-09    8.172E-09    8.154E-09    8.135E-09    8.116E-09    8.097E-09    8.077E-09
     8.056E-09    8.036E-09    8.014E-09    7.992E-09    7.970E-09    7.948E-09    7.925E-09    7.902E-09    7.878E-09    7.854E-09
     7.830E-09    7.806E-09    7.781E-09    7.757E-09    7.732E-09    7.707E-09    7.682E-09    7.656E-09    7.630E-09    7.604E-09
     7.577E-09    7.550E-09    7.522E-09    7.494E-09    7.465E-09    7.435E-09    7.405E-09    7.374E-09    7.342E-09    7.309E-09
     7.275E-09    7.240E-09    7.204E-09    7.166E-09    7.128E-09    7.088E-09    7.047E-09    7.005E-09    6.961E-09    6.915E-09
     6.869E-09    6.820E-09    6.770E-09    6.718E-09    6.664E-09    6.609E-09    6.551E-09    6.492E-09    6.430E-09    6.366E-09
     6.301E-09    6.233E-09    6.162E-09    6.090E-09    6.015E-09    5.937E-09    5.857E-09    5.775E-09    5.690E-09    5.602E-09
     5.511E-09    5.418E-09    5.321E-09    5.222E-09    5.120E-09    5.015E-09    4.907E-09    4.795E-09    4.681E-09    4.565E-09
     4.445E-09    4.323E-09    4.199E-09    4.073E-09    3.944E-09    3.814E-09    3.681E-09    3.547E-09    3.411E-09    3.274E-09
     3.136E-09    2.996E-09    2.856E-09    2.714E-09    2.572E-09    2.428E-09    2.285E-09    2.141E-09    1.997E-09    1.852E-09
     1.708E-09    1.564E-09    1.420E-09    1.276E-09    1.133E-09    9.912E-10    8.497E-10    7.091E-10    5.696E-10    4.313E-10
     2.942E-10    1.587E-10    2.468E-11   -1.076E-10   -2.381E-10   -3.666E-10   -4.930E-10   -6.172E-10   -7.392E-10   -8.586E-10
    -9.755E-10   -1.090E-09   -1.201E-09   -1.310E-09   -1.415E-09   -1.517E-09   -1.617E-09   -1.712E-09   -1.804E-09   -1.893E-09
    -1.979E-09   -2.061E-09   -2.140E-09   -2.216E-09   -2.289E-09   -2.359E-09   -2.426E-09   -2.490E-09   -2.552E-09   -2.611E-09
    -2.667E-09   -2.720E-09   -2.772E-09   -2.820E-09   -2.867E-09   -2.911E-09   -2.953E-09   -2.992E-09   -3.030E-09   -3.066E-09
    -3.099E-09   -3.131E-09   -3.161E-09   -3.190E-09   -3.217E-09   -3.242E-09   -3.266E-09   -3.288E-09   -3.309E-09   -3.328E-09
    -3.346E-09   -3.364E-09   -3.380E-09   -3.395E-09   -3.409E-09   -3.422E-09   -3.434E-09   -3.445E-09   -3.456E-09   -3.466E-09
    -3.476E-09   -3.485E-09   -3.493E-09   -3.501E-09   -3.508E-09   -3.516E-09   -3.523E-09   -3.529E-09   -3.536E-09   -3.543E-09
    -3.549E-09   -3.556E-09   -3.562E-09   -3.568E-09   -3.574E-09   -3.580E-09   -3.586E-09   -3.592E-09   -3.598E-09   -3.604E-09
    -3.610E-09   -3.616E-09   -3.621E-09   -3.627E-09   -3.632E-09   -3.638E-09   -3.643E-09   -3.648E-09   -3.653E-09   -3.658E-09
    -3.663E-09   -3.668E-09   -3.673E-09   -3.678E-09   -3.683E-09   -3.687E-09   -3.692E-09   -3.696E-09   -3.700E-09   -3.705E-09
    -3.709E-09   -3.712E-09   -3.716E-09   -3.720E-09   -3.724E-09   -3.727E-09   -3.730E-09   -3.733E-09   -3.736E-09   -3.739E-09
    -3.742E-09   -3.744E-09   -3.747E-09   -3.749E-09   -3.751E-09   -3.752E-09   -3.754E-09   -3.755E-09   -3.756E-09   -3.757E-09
    -3.758E-09   -3.758E-09   -3.758E-09   -3.758E-09   -3.758E-09   -3.757E-09   -3.756E-09   -3.754E-09   -3.752E-09   -3.750E-09
    -3.747E-09   -3.744E-09   -3.740E-09   -3.736E-09   -3.731E-09   -3.726E-09   -3.720E-09   -3.714E-09   -3.707E-09   -3.699E-09
    -3.691E-09   -3.682E-09   -3.672E-09   -3.662E-09   -3.651E-09   -3.640E-09   -3.627E-09   -3.614E-09   -3.600E-09   -3.586E-09
    -3.570E-09   -3.554E-09   -3.537E-09   -3.519E-09   -3.500E-09   -3.481E-09   -3.460E-09   -3.439E-09   -3.417E-09   -3.394E-09
    -3.370E-09   -3.345E-09   -3.319E-09   -3.293E-09   -3.265E-09   -3.237E-09   -3.207E-09   -3.177E-09   -3.145E-09   -3.113E-09
    -3.080E-09   -3.046E-09   -3.010E-09
 Ala      Conc. = 2.00E-10
   6.61746E-09  6.64925E-09  6.70531E-09  6.75262E-09  6.79130E-09  6.84296E-09  6.87226E-09  6.88320E-09  6.95487E-09  7.00523E-09
   7.00430E-09  7.05914E-09  7.12046E-09  7.15527E-09  7.20126E-09  7.25133E-09  7.30136E-09  7.35044E-09  7.39839E-09  7.44513E-09
   7.49070E-09  7.53510E-09  7.57835E-09  7.62047E-09  7.66151E-09  7.70144E-09  7.74031E-09  7.77811E-09  7.81486E-09  7.85055E-09
   7.88517E-09  7.91879E-09  7.95134E-09  7.98287E-09  8.01334E-09  8.04280E-09  8.07121E-09  8.09856E-09  8.12489E-09  8.15021E-09
   8.17443E-09  8.19760E-09  8.21974E-09  8.24085E-09  8.26087E-09  8.27986E-09  8.29776E-09  8.31460E-09  8.33039E-09  8.34512E-09
   8.35874E-09  8.37128E-09  8.38273E-09  8.39311E-09  8.40244E-09  8.41070E-09  8.41792E-09  8.42410E-09  8.42928E-09  8.43344E-09
   8.43663E-09  8.43885E-09  8.44010E-09  8.44043E-09  8.43984E-09  8.43834E-09  8.43596E-09  8.43272E-09  8.42864E-09  8.42373E-09
   8.41803E-09  8.41154E-09  8.40431E-09  8.39634E-09  8.38768E-09  8.37833E-09  8.36835E-09  8.35777E-09  8.34657E-09  8.33487E-09
   8.32265E-09  8.31000E-09  8.29690E-09  8.28350E-09  8.26982E-09  8.25591E-09  8.24190E-09  8.22788E-09  8.21399E-09  8.20042E-09
   8.18735E-09  8.17515E-09  8.16413E-09  8.15500E-09  8.14865E-09  8.14654E-09  8.15140E-09  8.16876E-09  8.21201E-09  8.32233E-09
   8.44063E-09  8.37063E-09  8.38972E-09  8.51772E-09  8.50011E-09  8.42705E-09  8.37739E-09  8.34462E-09  8.30387E-09  8.21529E-09
   8.00917E-09  7.81249E-09  7.84183E-09  7.70707E-09  7.46858E-09  7.39741E-09  7.35817E-09  7.32669E-09  7.29712E-09  7.26755E-09
   7.23722E-09  7.20581E-09  7.17313E-09  7.13910E-09  7.10363E-09  7.06670E-09  7.02822E-09  6.98821E-09  6.94657E-09  6.90328E-09
   6.85829E-09  6.81156E-09  6.76306E-09  6.71269E-09  6.66044E-09  6.60623E-09  6.55005E-09  6.49180E-09  6.43147E-09  6.36899E-09
   6.30428E-09  6.23730E-09  6.16802E-09  6.09637E-09  6.02226E-09  5.94567E-09  5.86655E-09  5.78483E-09  5.70046E-09  5.61341E-09
   5.52357E-09  5.43094E-09  5.33549E-09  5.23710E-09  5.13577E-09  5.03142E-09  4.92414E-09  4.81392E-09  4.70098E-09  4.58549E-09
   4.46771E-09  4.34792E-09  4.22664E-09  4.10476E-09  3.98440E-09  3.87237E-09  3.80358E-09  3.82960E-09  3.73094E-09  3.57730E-09
   3.43569E-09  3.30106E-09  3.16221E-09  3.02359E-09  2.89550E-09  2.78136E-09  2.66564E-09  2.45676E-09  2.11620E-09  1.92155E-09
   1.75999E-09  1.60763E-09  1.45910E-09  1.31272E-09  1.16780E-09  1.02417E-09  8.81703E-10  7.40386E-10  6.00339E-10  4.61608E-10
   3.24277E-10  1.88488E-10  5.42990E-11 -7.81014E-11 -2.08669E-10 -3.37252E-10 -4.63743E-10 -5.87994E-10 -7.09937E-10 -8.29405E-10
  -9.46300E-10 -1.06051E-09 -1.17190E-09 -1.28038E-09 -1.38582E-09 -1.48812E-09 -1.58712E-09 -1.68280E-09 -1.77500E-09 -1.86383E-09
  -1.94933E-09 -2.03158E-09 -2.11064E-09 -2.18659E-09 -2.25949E-09 -2.32943E-09 -2.39645E-09 -2.46064E-09 -2.52207E-09 -2.58081E-09
  -2.63692E-09 -2.69047E-09 -2.74155E-09 -2.79021E-09 -2.83654E-09 -2.88059E-09 -2.92243E-09 -2.96215E-09 -2.99982E-09 -3.03549E-09
  -3.06923E-09 -3.10113E-09 -3.13124E-09 -3.15964E-09 -3.18640E-09 -3.21158E-09 -3.23527E-09 -3.25750E-09 -3.27836E-09 -3.29792E-09
  -3.31624E-09 -3.33338E-09 -3.34942E-09 -3.36441E-09 -3.37842E-09 -3.39152E-09 -3.40377E-09 -3.41523E-09 -3.42595E-09 -3.43600E-09
  -3.44545E-09 -3.45436E-09 -3.46277E-09 -3.47075E-09 -3.47836E-09 -3.48565E-09 -3.49268E-09 -3.49949E-09 -3.50615E-09 -3.51272E-09
  -3.51921E-09 -3.52563E-09 -3.53198E-09 -3.53826E-09 -3.54447E-09 -3.55061E-09 -3.55669E-09 -3.56270E-09 -3.56864E-09 -3.57451E-09
  -3.58032E-09 -3.58606E-09 -3.59173E-09 -3.59733E-09 -3.60286E-09 -3.60832E-09 -3.61371E-09 -3.61902E-09 -3.62425E-09 -3.62941E-09
  -3.63449E-09 -3.63948E-09 -3.64439E-09 -3.64921E-09 -3.65394E-09 -3.65858E-09 -3.66312E-09 -3.66755E-09 -3.67189E-09 -3.67612E-09
  -3.68024E-09 -3.68424E-09 -3.68812E-09 -3.69188E-09 -3.69551E-09 -3.69900E-09 -3.70236E-09 -3.70556E-09 -3.70862E-09 -3.71152E-09
  -3.71426E-09 -3.71683E-09 -3.71922E-09 -3.72143E-09 -3.72346E-09 -3.72529E-09 -3.72691E-09 -3.72832E-09 -3.72952E-09 -3.73049E-09
  -3.73123E-09 -3.73172E-09 -3.73195E-09 -3.73190E-09 -3.73153E-09 -3.73084E-09 -3.72979E-09 -3.72837E-09 -3.72655E-09 -3.72432E-09
  -3.72164E-09 -3.71851E-09 -3.71489E-09 -3.71078E-09 -3.70614E-09 -3.70097E-09 -3.69524E-09 -3.68893E-09 -3.68203E-09 -3.67451E-09
  -3.66637E-09 -3.65757E-09 -3.64811E-09 -3.63798E-09 -3.62714E-09 -3.61560E-09 -3.60333E-09 -3.59031E-09 -3.57654E-09 -3.56200E-09
  -3.54668E-09 -3.53056E-09 -3.51363E-09 -3.49589E-09 -3.47730E-09 -3.45788E-09 -3.43760E-09 -3.41645E-09 -3.39443E-09 -3.37152E-09
  -3.34772E-09 -3.32302E-09 -3.29740E-09 -3.27087E-09 -3.24341E-09 -3.21502E-09 -3.18570E-09 -3.15543E-09 -3.12421E-09 -3.09203E-09
  -3.05890E-09 -3.02480E-09 -2.98974E-09
 Asp      Conc. = 1.35E-09
   6.88951E-09  6.66790E-09  6.68071E-09  6.60852E-09  6.56080E-09  6.57898E-09  6.44430E-09  6.53570E-09  6.65885E-09  6.77503E-09
   6.88187E-09  6.98114E-09  7.07565E-09  7.16611E-09  7.24927E-09  7.32859E-09  7.40501E-09  7.47900E-09  7.55101E-09  7.62137E-09
   7.69040E-09  7.75840E-09  7.82563E-09  7.89240E-09  7.95904E-09  8.02585E-09  8.09326E-09  8.16172E-09  8.23183E-09  8.30433E-09
   8.38021E-09  8.46096E-09  8.54865E-09  8.64670E-09  8.76103E-09  8.90193E-09  9.04168E-09  9.10319E-09  9.13967E-09  9.14862E-09
   9.22229E-09  9.39059E-09  9.70666E-09  9.89079E-09  1.02431E-08  1.01468E-08  9.79298E-09  9.64749E-09  9.83314E-09  9.78605E-09
   9.76846E-09  9.82645E-09  9.64277E-09  9.23832E-09  8.97593E-09  8.44576E-09  8.42574E-09  8.59449E-09  8.51810E-09  8.20141E-09
   8.20239E-09  8.17590E-09  8.08549E-09  8.17953E-09  8.26350E-09  8.18187E-09  8.10507E-09  8.08834E-09  8.08769E-09  8.09200E-09
   8.09756E-09  8.10291E-09  8.10740E-09  8.11072E-09  8.11277E-09  8.11349E-09  8.11290E-09  8.11103E-09  8.10787E-09  8.10353E-09
   8.09804E-09  8.09144E-09  8.08376E-09  8.07509E-09  8.06547E-09  8.05491E-09  8.04347E-09  8.03118E-09  8.01810E-09  8.00428E-09
   7.98971E-09  7.97449E-09  7.95857E-09  7.94207E-09  7.92500E-09  7.90734E-09  7.88916E-09  7.87051E-09  7.85141E-09  7.83188E-09
   7.81200E-09  7.79169E-09  7.77105E-09  7.75015E-09  7.72890E-09  7.70739E-09  7.68557E-09  7.66335E-09  7.64072E-09  7.61762E-09
   7.59399E-09  7.56981E-09  7.54501E-09  7.51955E-09  7.49338E-09  7.46642E-09  7.43867E-09  7.41004E-09  7.38048E-09  7.34996E-09
   7.31838E-09  7.28574E-09  7.25194E-09  7.21696E-09  7.18071E-09  7.14317E-09  7.10425E-09  7.06392E-09  7.02210E-09  6.97874E-09
   6.93379E-09  6.88719E-09  6.83890E-09  6.78881E-09  6.73691E-09  6.68311E-09  6.62739E-09  6.56966E-09  6.50989E-09  6.44802E-09
   6.38397E-09  6.31768E-09  6.24915E-09  6.17828E-09  6.10501E-09  6.02932E-09  5.95114E-09  5.87044E-09  5.78716E-09  5.70129E-09
   5.61274E-09  5.52154E-09  5.42766E-09  5.33106E-09  5.23179E-09  5.12983E-09  5.02540E-09  4.91865E-09  4.81005E-09  4.70017E-09
   4.58991E-09  4.48072E-09  4.37531E-09  4.27941E-09  4.20771E-09  4.21028E-09  4.55194E-09  5.42993E-09  5.51040E-09  5.26790E-09
   5.11259E-09  5.00431E-09  4.87471E-09  4.75602E-09  4.71302E-09  4.76423E-09  4.77514E-09  4.13267E-09  2.73979E-09  2.27894E-09
   2.02208E-09  1.82319E-09  1.64775E-09  1.48413E-09  1.32738E-09  1.17523E-09  1.02641E-09  8.80215E-10  7.36346E-10  5.94568E-10
   4.54770E-10  3.16963E-10  1.81106E-10  4.73164E-11 -8.44171E-11 -2.13983E-10 -3.41307E-10 -4.66268E-10 -5.88817E-10 -7.08804E-10
  -8.26145E-10 -9.40736E-10 -1.05246E-09 -1.16122E-09 -1.26691E-09 -1.36942E-09 -1.46861E-09 -1.56444E-09 -1.65678E-09 -1.74572E-09
  -1.83132E-09 -1.91366E-09 -1.99280E-09 -2.06882E-09 -2.14178E-09 -2.21177E-09 -2.27884E-09 -2.34307E-09 -2.40453E-09 -2.46331E-09
  -2.51944E-09 -2.57303E-09 -2.62414E-09 -2.67283E-09 -2.71918E-09 -2.76326E-09 -2.80513E-09 -2.84488E-09 -2.88259E-09 -2.91829E-09
