 LCModel (Version 6.3-1R) Copyright: S.W. Provencher.          Ref.: Magn. Reson. Med. 30:672-679 (1993).                
 onepulse 16x28_ftSpec_smooth_lcm
 26 lines in following concentration table = NCONC+1
    Conc.  %SD   /Cr    Metabolite                                         
    0.000 999%   0.000 Ala                                                 
 1.79E-09  74%   0.000 Asp                                                 
    0.000 999%   0.000 Cr                                                  
 8.09E-10 125%   0.000 GABA                                                
    0.000 999%   0.000 Glc                                                 
 1.84E-09  61%   0.000 Gln                                                 
    0.000 999%   0.000 Glu                                                 
 9.38E-10 335%   0.000 Glyc                                                
    0.000 999%   0.000 GPC                                                 
 1.10E-09  97%   0.000 GSH                                                 
 1.49E-09 175%   0.000 Ins                                                 
    0.000 999%   0.000 Lac                                                 
 5.80E-10  97%   0.000 NAAG                                                
    0.000 999%   0.000 NAA                                                 
    0.000 999%   0.000 PCh                                                 
    0.000 999%   0.000 PCr                                                 
 2.21E-09  74%   0.000 PE                                                  
 4.68E-10  96%   0.000 Scyllo                                              
 5.87E-10 241%   0.000 Ser                                                 
 1.64E-10 935%   0.000 Tau                                                 
    0.000 999%   0.000 GPC+PCh                                             
 5.80E-10  84%   0.000 NAA+NAAG                                            
 2.43E-09  36%   0.000 Ins+Glyc                                            
    0.000 999%   0.000 Cr+PCr                                              
 1.84E-09  61%   0.000 Glu+Gln                                             
   6 lines in following misc. output table
  FWHM = 0.123 ppm    S/N =   2                                            
  Data shift = 0.414 ppm                                                   
  Ph: -38 deg     -48.4 deg/ppm                                            
  alphaB,S = 7.8E-01,   2.6E+01                                            
    8 spline knots.   Ns = 5(1)                                            
  (12) 4 infls.   ( 7) 3 extrs.                                            
  363 points on ppm-axis = NY
      4.250000     4.238821     4.227641     4.216462     4.205282     4.194103     4.182923     4.171744     4.160564     4.149385
      4.138206     4.127026     4.115847     4.104667     4.093488     4.082308     4.071129     4.059949     4.048770     4.037591
      4.026411     4.015232     4.004052     3.992873     3.981693     3.970514     3.959334     3.948155     3.936975     3.925796
      3.914617     3.903437     3.892258     3.881078     3.869899     3.858719     3.847540     3.836360     3.825181     3.814002
      3.802822     3.791643     3.780463     3.769284     3.758104     3.746925     3.735745     3.724566     3.713387     3.702207
      3.691028     3.679848     3.668669     3.657489     3.646310     3.635130     3.623951     3.612772     3.601592     3.590413
      3.579233     3.568054     3.556874     3.545695     3.534515     3.523336     3.512156     3.500977     3.489798     3.478618
      3.467439     3.456259     3.445080     3.433900     3.422721     3.411541     3.400362     3.389183     3.378003     3.366824
      3.355644     3.344465     3.333285     3.322106     3.310926     3.299747     3.288568     3.277388     3.266209     3.255029
      3.243850     3.232670     3.221491     3.210311     3.199132     3.187953     3.176773     3.165594     3.154414     3.143235
      3.132055     3.120876     3.109696     3.098517     3.087337     3.076158     3.064979     3.053799     3.042620     3.031440
      3.020261     3.009081     2.997902     2.986722     2.975543     2.964364     2.953184     2.942005     2.930825     2.919646
      2.908466     2.897287     2.886107     2.874928     2.863749     2.852569     2.841390     2.830210     2.819031     2.807851
      2.796672     2.785492     2.774313     2.763134     2.751954     2.740775     2.729595     2.718416     2.707236     2.696057
      2.684877     2.673698     2.662519     2.651339     2.640160     2.628980     2.617801     2.606621     2.595442     2.584262
      2.573083     2.561903     2.550724     2.539545     2.528365     2.517186     2.506006     2.494827     2.483647     2.472468
      2.461288     2.450109     2.438930     2.427750     2.416571     2.405391     2.394212     2.383032     2.371853     2.360673
      2.349494     2.338315     2.327135     2.315956     2.304776     2.293597     2.282417     2.271238     2.260058     2.248879
      2.237700     2.226520     2.215341     2.204161     2.192982     2.181802     2.170623     2.159443     2.148264     2.137084
      2.125905     2.114726     2.103546     2.092367     2.081187     2.070008     2.058828     2.047649     2.036469     2.025290
      2.014111     2.002931     1.991752     1.980572     1.969393     1.958213     1.947034     1.935854     1.924675     1.913496
      1.902316     1.891137     1.879957     1.868778     1.857598     1.846419     1.835239     1.824060     1.812881     1.801701
      1.790522     1.779342     1.768163     1.756983     1.745804     1.734624     1.723445     1.712265     1.701086     1.689907
      1.678727     1.667548     1.656368     1.645189     1.634009     1.622830     1.611650     1.600471     1.589292     1.578112
      1.566933     1.555753     1.544574     1.533394     1.522215     1.511035     1.499856     1.488677     1.477497     1.466318
      1.455138     1.443959     1.432779     1.421600     1.410420     1.399241     1.388062     1.376882     1.365703     1.354523
      1.343344     1.332164     1.320985     1.309805     1.298626     1.287446     1.276267     1.265088     1.253908     1.242729
      1.231549     1.220370     1.209190     1.198011     1.186831     1.175652     1.164473     1.153293     1.142114     1.130934
      1.119755     1.108575     1.097396     1.086216     1.075037     1.063858     1.052678     1.041499     1.030319     1.019140
      1.007960     0.996781     0.985601     0.974422     0.963243     0.952063     0.940884     0.929704     0.918525     0.907345
      0.896166     0.884986     0.873807     0.862628     0.851448     0.840269     0.829089     0.817910     0.806730     0.795551
      0.784371     0.773192     0.762012     0.750833     0.739654     0.728474     0.717295     0.706115     0.694936     0.683756
      0.672577     0.661397     0.650218     0.639039     0.627859     0.616680     0.605500     0.594321     0.583141     0.571962
      0.560782     0.549603     0.538424     0.527244     0.516065     0.504885     0.493706     0.482526     0.471347     0.460167
      0.448988     0.437809     0.426629     0.415450     0.404270     0.393091     0.381911     0.370732     0.359552     0.348373
      0.337193     0.326014     0.314835     0.303655     0.292476     0.281296     0.270117     0.258937     0.247758     0.236578
      0.225399     0.214220     0.203040
 NY phased data points follow
   9.36950E-09  8.23127E-09  9.33084E-09  8.78769E-09  1.01280E-08  9.20689E-09  1.07449E-08  9.91391E-09  1.11948E-08  1.03831E-08
   1.06696E-08  9.16320E-09  9.98738E-09  9.02268E-09  9.76268E-09  8.59382E-09  9.19211E-09  8.46169E-09  9.98440E-09  9.89285E-09
   1.04042E-08  8.74238E-09  9.25060E-09  8.31129E-09  9.71877E-09  1.02878E-08  1.18329E-08  1.15169E-08  1.12484E-08  9.95238E-09
   9.18892E-09  7.75893E-09  7.99893E-09  7.28613E-09  7.59358E-09  7.76139E-09  7.96497E-09  7.51558E-09  7.43574E-09  7.10123E-09
   7.24754E-09  6.13219E-09  6.87586E-09  6.26749E-09  6.98831E-09  7.01891E-09  7.56449E-09  7.15047E-09  6.61328E-09  6.49341E-09
   6.57438E-09  6.57726E-09  7.31251E-09  7.23299E-09  7.79441E-09  7.32661E-09  9.07056E-09  1.07845E-08  1.18543E-08  1.18113E-08
   1.06706E-08  1.01445E-08  9.28511E-09  8.55932E-09  7.76880E-09  8.01349E-09  7.63225E-09  7.12637E-09  7.15105E-09  6.98108E-09
   7.10367E-09  6.91205E-09  7.84447E-09  1.16319E-08  1.49279E-08  1.67822E-08  1.63587E-08  1.48075E-08  1.32606E-08  1.30833E-08
   1.24137E-08  1.25043E-08  1.12724E-08  1.14150E-08  1.16745E-08  1.12013E-08  1.02753E-08  1.02613E-08  9.78303E-09  9.83310E-09
   8.79612E-09  9.09956E-09  8.21057E-09  8.51340E-09  7.97448E-09  8.24434E-09  7.77194E-09  8.30511E-09  7.66941E-09  8.25603E-09
   7.64971E-09  7.76234E-09  7.13110E-09  6.39046E-09  6.13462E-09  5.61179E-09  5.12538E-09  5.99357E-09  5.96625E-09  6.65549E-09
   5.66992E-09  6.15309E-09  6.05496E-09  6.70555E-09  6.51747E-09  7.17481E-09  6.43575E-09  6.32891E-09  5.89104E-09  5.72547E-09
   4.47539E-09  5.16909E-09  5.00196E-09  5.25328E-09  5.13357E-09  4.83562E-09  4.96986E-09  5.58019E-09  5.50626E-09  5.65716E-09
   5.59233E-09  5.25350E-09  4.75946E-09  6.01380E-09  6.14945E-09  7.73207E-09  8.13754E-09  8.70499E-09  8.33518E-09  8.93811E-09
   8.94719E-09  1.01548E-08  1.06445E-08  1.11651E-08  1.05383E-08  1.08057E-08  1.05688E-08  1.08219E-08  1.01699E-08  1.09451E-08
   1.06315E-08  1.08507E-08  1.08980E-08  1.06676E-08  1.04075E-08  1.10558E-08  1.12603E-08  1.13624E-08  1.07474E-08  1.14566E-08
   1.05759E-08  1.10856E-08  1.01478E-08  1.03703E-08  1.01396E-08  1.46338E-08  1.91406E-08  2.27690E-08  2.37000E-08  2.31622E-08
   2.27892E-08  2.30846E-08  2.22622E-08  2.25200E-08  2.22475E-08  2.23114E-08  2.17105E-08  2.21971E-08  2.12849E-08  2.13340E-08
   2.08403E-08  1.96251E-08  1.83121E-08  1.76067E-08  1.56618E-08  1.47567E-08  1.18343E-08  9.53844E-09  6.60583E-09  3.46878E-09
   2.08491E-10 -2.66048E-09 -5.72712E-09 -8.70539E-09 -1.13528E-08 -1.35696E-08 -1.51844E-08 -1.66157E-08 -1.80084E-08 -1.77460E-08
  -1.72554E-08 -1.60926E-08 -1.50052E-08 -1.26929E-08 -1.15902E-08 -8.56454E-09 -6.95395E-09 -5.07925E-09 -3.71607E-09 -2.33368E-09
  -1.65539E-09 -1.44196E-09 -2.00379E-09 -1.90755E-09 -2.84212E-09 -2.29626E-09 -2.73504E-09 -2.58280E-09 -2.10619E-09 -1.03782E-09
  -9.87890E-10 -5.16473E-10 -1.13106E-09 -5.04451E-10 -1.45219E-09 -1.11778E-09 -1.65786E-09 -1.79174E-09 -1.86510E-09 -1.27668E-09
  -1.54404E-09 -6.68516E-10 -4.03330E-10  1.04155E-10 -9.03670E-10 -1.03475E-09 -1.61214E-09 -1.37418E-09 -1.50766E-09 -1.51461E-09
  -1.95158E-09 -1.42714E-09 -1.70145E-09 -1.15055E-09 -1.21597E-09 -9.17351E-10 -1.18807E-09 -5.18336E-10 -7.98721E-10 -8.57552E-10
  -1.33281E-09 -3.44965E-10 -1.00344E-09 -9.71495E-10 -1.07827E-09 -1.08551E-09 -1.04237E-09 -1.26409E-09 -1.39799E-09 -1.35913E-09
  -2.30589E-09 -1.82646E-09 -2.21812E-09 -2.08362E-09 -2.04128E-09 -1.99135E-09 -1.88907E-09 -1.13261E-09 -1.58425E-09 -1.22474E-09
  -7.37436E-10 -5.65810E-10 -6.31223E-10 -4.25652E-10 -3.25597E-10  1.08660E-10  9.96678E-11 -4.99116E-10 -1.57558E-10  3.24801E-10
  -5.32013E-10  2.91881E-10 -4.96082E-10 -5.61131E-10 -4.49107E-10 -4.93312E-10 -8.04283E-10 -4.30745E-10 -3.86153E-10 -6.89894E-10
  -9.23177E-10 -7.39094E-10 -8.38082E-10 -1.07156E-09 -9.92889E-10 -8.56705E-10 -1.04383E-09 -1.01755E-09 -9.69059E-10 -9.33133E-10
  -1.02792E-09 -1.42514E-09 -8.32992E-10 -9.96043E-10 -1.03704E-09 -1.05119E-09 -1.24248E-09 -1.22290E-09 -1.46368E-09 -1.32012E-09
  -1.86062E-09 -1.42891E-09 -1.37501E-09 -1.52997E-09 -1.67133E-09 -1.71805E-09 -1.34028E-09 -1.58527E-09 -1.71727E-09 -1.38992E-09
  -1.45805E-09 -2.10768E-09 -1.90887E-09 -1.67477E-09 -1.44728E-09 -1.13546E-09 -1.44623E-09 -2.26052E-09 -1.44510E-09 -1.92404E-09
  -1.06461E-09 -1.62603E-09 -1.61445E-09 -1.96956E-09 -1.60848E-09 -1.87105E-09 -1.77372E-09 -1.64170E-09 -1.37354E-09 -1.81951E-09
  -1.50281E-09 -1.89524E-09 -1.65342E-09 -1.55971E-09 -1.71768E-09 -2.01869E-09 -1.88790E-09 -1.65760E-09 -1.93626E-09 -2.03541E-09
  -1.82946E-09 -2.08047E-09 -1.60297E-09 -1.77722E-09 -1.88728E-09 -2.41183E-09 -1.80516E-09 -1.88374E-09 -1.85597E-09 -1.83203E-09
  -1.62771E-09 -2.08991E-09 -1.69762E-09
 NY points of the fit to the data follow
   1.11351E-08  1.02965E-08  9.54172E-09  8.92679E-09  8.93479E-09  9.25652E-09  9.29231E-09  9.42021E-09  1.07166E-08  1.11434E-08
   1.06931E-08  1.02099E-08  9.58753E-09  9.40837E-09  9.28391E-09  9.07147E-09  9.29801E-09  1.01295E-08  1.03889E-08  8.83723E-09
   7.99411E-09  8.54568E-09  9.17267E-09  9.80681E-09  1.05318E-08  1.15605E-08  1.22484E-08  1.19293E-08  1.05692E-08  9.38384E-09
   9.05752E-09  8.41034E-09  7.74442E-09  7.61641E-09  7.51547E-09  7.23643E-09  7.11549E-09  7.27412E-09  7.38069E-09  7.24734E-09
   7.09250E-09  7.13879E-09  7.19407E-09  7.10711E-09  7.16242E-09  7.19389E-09  6.91328E-09  6.19776E-09  6.16560E-09  6.48318E-09
   7.05917E-09  7.66414E-09  7.99432E-09  8.27241E-09  8.77359E-09  9.01344E-09  9.20931E-09  1.00385E-08  1.05796E-08  1.03289E-08
   1.01870E-08  1.01552E-08  1.02270E-08  1.00929E-08  9.63439E-09  9.35138E-09  9.22906E-09  8.79876E-09  8.28547E-09  8.43361E-09
   8.92056E-09  9.32835E-09  9.84137E-09  1.03179E-08  1.10210E-08  1.19381E-08  1.31516E-08  1.40764E-08  1.43220E-08  1.41506E-08
   1.38046E-08  1.32780E-08  1.27825E-08  1.26036E-08  1.23073E-08  1.13468E-08  1.00624E-08  8.93192E-09  8.44260E-09  8.19582E-09
   7.99536E-09  7.88614E-09  7.84925E-09  7.69333E-09  7.50004E-09  7.47993E-09  7.38113E-09  7.21326E-09  7.15539E-09  7.09390E-09
   7.03923E-09  7.02377E-09  7.01654E-09  7.01698E-09  7.02916E-09  7.04908E-09  7.07382E-09  7.10187E-09  7.13164E-09  7.16274E-09
   7.19446E-09  7.22620E-09  7.25762E-09  7.28840E-09  7.31831E-09  7.34718E-09  7.37476E-09  7.40084E-09  7.42526E-09  7.44785E-09
   7.46853E-09  7.48716E-09  7.50365E-09  7.51789E-09  7.52977E-09  7.53923E-09  7.54617E-09  7.55050E-09  7.55217E-09  7.55110E-09
   7.54720E-09  7.54043E-09  7.53072E-09  7.51802E-09  7.50226E-09  7.48341E-09  7.46138E-09  7.43615E-09  7.40767E-09  7.37591E-09
   7.34083E-09  7.30240E-09  7.26060E-09  7.21542E-09  7.16683E-09  7.11485E-09  7.05955E-09  7.00111E-09  6.93974E-09  6.87569E-09
   6.80924E-09  6.74073E-09  6.67057E-09  6.59929E-09  6.52753E-09  6.45617E-09  6.38638E-09  6.31980E-09  6.25886E-09  6.20724E-09
   6.17085E-09  6.15991E-09  6.19341E-09  6.31116E-09  6.61131E-09  7.40758E-09  1.02337E-08  1.86352E-08  2.43252E-08  2.56599E-08
   2.47950E-08  2.36531E-08  2.29894E-08  2.31187E-08  2.39316E-08  2.45306E-08  2.27472E-08  1.64955E-08  8.02728E-09  5.66197E-09
   4.73702E-09  4.21475E-09  3.85426E-09  3.57376E-09  3.33830E-09  3.13060E-09  2.94119E-09  2.76451E-09  2.59707E-09  2.43664E-09
   2.28170E-09  2.13121E-09  1.98447E-09  1.84096E-09  1.70033E-09  1.56231E-09  1.42674E-09  1.29351E-09  1.16254E-09  1.03378E-09
   9.07241E-10  7.82909E-10  6.60812E-10  5.40986E-10  4.23479E-10  3.08346E-10  1.95647E-10  8.54455E-11 -2.21873E-11 -1.27158E-10
  -2.29418E-10 -3.28863E-10 -4.25414E-10 -5.18989E-10 -6.09504E-10 -6.96856E-10 -7.80956E-10 -8.61733E-10 -9.39077E-10 -1.01303E-09
  -1.08364E-09 -1.15101E-09 -1.21516E-09 -1.27618E-09 -1.33411E-09 -1.38905E-09 -1.44103E-09 -1.49013E-09 -1.53640E-09 -1.57991E-09
  -1.62072E-09 -1.65890E-09 -1.69449E-09 -1.72757E-09 -1.75819E-09 -1.78642E-09 -1.81232E-09 -1.83594E-09 -1.85735E-09 -1.87661E-09
  -1.89376E-09 -1.90891E-09 -1.92207E-09 -1.93332E-09 -1.94271E-09 -1.95031E-09 -1.95618E-09 -1.96038E-09 -1.96297E-09 -1.96400E-09
  -1.96355E-09 -1.96164E-09 -1.95840E-09 -1.95380E-09 -1.94795E-09 -1.94093E-09 -1.93277E-09 -1.92352E-09 -1.91325E-09 -1.90202E-09
  -1.88990E-09 -1.87695E-09 -1.86321E-09 -1.84876E-09 -1.83364E-09 -1.81792E-09 -1.80167E-09 -1.78491E-09 -1.76775E-09 -1.75022E-09
  -1.73239E-09 -1.71429E-09 -1.69603E-09 -1.67762E-09 -1.65917E-09 -1.64069E-09 -1.62226E-09 -1.60396E-09 -1.58580E-09 -1.56788E-09
  -1.55025E-09 -1.53297E-09 -1.51610E-09 -1.49968E-09 -1.48379E-09 -1.46849E-09 -1.45384E-09 -1.43985E-09 -1.42665E-09 -1.41427E-09
  -1.40275E-09 -1.39215E-09 -1.38244E-09 -1.37360E-09 -1.36562E-09 -1.35847E-09 -1.35214E-09 -1.34662E-09 -1.34188E-09 -1.33791E-09
  -1.33469E-09 -1.33220E-09 -1.33043E-09 -1.32936E-09 -1.32896E-09 -1.32922E-09 -1.33014E-09 -1.33169E-09 -1.33384E-09 -1.33658E-09
  -1.33991E-09 -1.34378E-09 -1.34821E-09 -1.35315E-09 -1.35861E-09 -1.36454E-09 -1.37096E-09 -1.37782E-09 -1.38512E-09 -1.39284E-09
  -1.40096E-09 -1.40946E-09 -1.41833E-09 -1.42755E-09 -1.43710E-09 -1.44695E-09 -1.45712E-09 -1.46755E-09 -1.47826E-09 -1.48920E-09
  -1.50037E-09 -1.51175E-09 -1.52332E-09 -1.53506E-09 -1.54696E-09 -1.55900E-09 -1.57117E-09 -1.58343E-09 -1.59579E-09 -1.60820E-09
  -1.62068E-09 -1.63318E-09 -1.64571E-09 -1.65823E-09 -1.67072E-09 -1.68320E-09 -1.69561E-09 -1.70796E-09 -1.72021E-09 -1.73236E-09
  -1.74439E-09 -1.75627E-09 -1.76800E-09 -1.77955E-09 -1.79091E-09 -1.80205E-09 -1.81298E-09 -1.82365E-09 -1.83406E-09 -1.84419E-09
  -1.85402E-09 -1.86353E-09 -1.87272E-09
 NY background values follow
    -4.381E-09   -4.276E-09   -4.170E-09   -4.065E-09   -3.960E-09   -3.855E-09   -3.750E-09   -3.645E-09   -3.540E-09   -3.436E-09
    -3.331E-09   -3.227E-09   -3.122E-09   -3.018E-09   -2.914E-09   -2.810E-09   -2.706E-09   -2.603E-09   -2.499E-09   -2.396E-09
    -2.292E-09   -2.189E-09   -2.086E-09   -1.983E-09   -1.880E-09   -1.778E-09   -1.675E-09   -1.573E-09   -1.470E-09   -1.368E-09
    -1.266E-09   -1.164E-09   -1.063E-09   -9.611E-10   -8.596E-10   -7.583E-10   -6.571E-10   -5.561E-10   -4.552E-10   -3.544E-10
    -2.538E-10   -1.534E-10   -5.308E-11    4.711E-11    1.471E-10    2.470E-10    3.467E-10    4.462E-10    5.457E-10    6.449E-10
     7.440E-10    8.429E-10    9.417E-10    1.040E-09    1.139E-09    1.237E-09    1.335E-09    1.433E-09    1.531E-09    1.629E-09
     1.726E-09    1.823E-09    1.921E-09    2.018E-09    2.114E-09    2.211E-09    2.308E-09    2.404E-09    2.500E-09    2.596E-09
     2.692E-09    2.787E-09    2.883E-09    2.978E-09    3.073E-09    3.168E-09    3.262E-09    3.356E-09    3.450E-09    3.543E-09
     3.636E-09    3.728E-09    3.819E-09    3.910E-09    4.000E-09    4.090E-09    4.178E-09    4.266E-09    4.352E-09    4.438E-09
     4.522E-09    4.606E-09    4.688E-09    4.769E-09    4.849E-09    4.928E-09    5.005E-09    5.081E-09    5.155E-09    5.228E-09
     5.299E-09    5.368E-09    5.436E-09    5.503E-09    5.567E-09    5.630E-09    5.690E-09    5.749E-09    5.806E-09    5.861E-09
     5.913E-09    5.964E-09    6.012E-09    6.058E-09    6.102E-09    6.143E-09    6.183E-09    6.219E-09    6.253E-09    6.285E-09
     6.314E-09    6.340E-09    6.363E-09    6.384E-09    6.402E-09    6.417E-09    6.429E-09    6.438E-09    6.444E-09    6.447E-09
     6.447E-09    6.444E-09    6.437E-09    6.427E-09    6.414E-09    6.398E-09    6.378E-09    6.354E-09    6.327E-09    6.296E-09
     6.262E-09    6.224E-09    6.182E-09    6.136E-09    6.087E-09    6.033E-09    5.976E-09    5.915E-09    5.850E-09    5.781E-09
     5.709E-09    5.634E-09    5.555E-09    5.473E-09    5.388E-09    5.299E-09    5.208E-09    5.114E-09    5.017E-09    4.918E-09
     4.816E-09    4.712E-09    4.605E-09    4.496E-09    4.385E-09    4.272E-09    4.157E-09    4.040E-09    3.922E-09    3.802E-09
     3.680E-09    3.557E-09    3.433E-09    3.307E-09    3.180E-09    3.053E-09    2.924E-09    2.795E-09    2.665E-09    2.534E-09
     2.403E-09    2.271E-09    2.139E-09    2.007E-09    1.875E-09    1.743E-09    1.611E-09    1.479E-09    1.347E-09    1.216E-09
     1.085E-09    9.551E-10    8.258E-10    6.972E-10    5.696E-10    4.429E-10    3.174E-10    1.931E-10    7.008E-11   -5.150E-11
    -1.716E-10   -2.900E-10   -4.067E-10   -5.216E-10   -6.346E-10   -7.456E-10   -8.544E-10   -9.610E-10   -1.065E-09   -1.167E-09
    -1.267E-09   -1.363E-09   -1.457E-09   -1.548E-09   -1.637E-09   -1.722E-09   -1.804E-09   -1.883E-09   -1.958E-09   -2.030E-09
    -2.099E-09   -2.165E-09   -2.227E-09   -2.287E-09   -2.343E-09   -2.397E-09   -2.448E-09   -2.495E-09   -2.540E-09   -2.583E-09
    -2.622E-09   -2.659E-09   -2.694E-09   -2.726E-09   -2.756E-09   -2.783E-09   -2.808E-09   -2.830E-09   -2.851E-09   -2.869E-09
    -2.886E-09   -2.900E-09   -2.912E-09   -2.923E-09   -2.931E-09   -2.938E-09   -2.943E-09   -2.947E-09   -2.949E-09   -2.949E-09
    -2.948E-09   -2.945E-09   -2.941E-09   -2.936E-09   -2.929E-09   -2.922E-09   -2.913E-09   -2.903E-09   -2.892E-09   -2.880E-09
    -2.868E-09   -2.854E-09   -2.840E-09   -2.825E-09   -2.809E-09   -2.793E-09   -2.776E-09   -2.759E-09   -2.741E-09   -2.723E-09
    -2.704E-09   -2.686E-09   -2.667E-09   -2.648E-09   -2.629E-09   -2.610E-09   -2.591E-09   -2.572E-09   -2.554E-09   -2.535E-09
    -2.517E-09   -2.499E-09   -2.482E-09   -2.465E-09   -2.449E-09   -2.433E-09   -2.418E-09   -2.403E-09   -2.390E-09   -2.377E-09
    -2.365E-09   -2.354E-09   -2.344E-09   -2.334E-09   -2.326E-09   -2.318E-09   -2.312E-09   -2.306E-09   -2.300E-09   -2.296E-09
    -2.292E-09   -2.289E-09   -2.287E-09   -2.286E-09   -2.285E-09   -2.285E-09   -2.285E-09   -2.286E-09   -2.288E-09   -2.290E-09
    -2.293E-09   -2.296E-09   -2.300E-09   -2.305E-09   -2.310E-09   -2.315E-09   -2.321E-09   -2.328E-09   -2.335E-09   -2.342E-09
    -2.350E-09   -2.358E-09   -2.366E-09   -2.375E-09   -2.384E-09   -2.393E-09   -2.403E-09   -2.413E-09   -2.423E-09   -2.434E-09
    -2.445E-09   -2.456E-09   -2.467E-09   -2.478E-09   -2.489E-09   -2.501E-09   -2.513E-09   -2.524E-09   -2.536E-09   -2.548E-09
    -2.560E-09   -2.572E-09   -2.584E-09   -2.596E-09   -2.609E-09   -2.621E-09   -2.632E-09   -2.644E-09   -2.656E-09   -2.668E-09
    -2.679E-09   -2.691E-09   -2.702E-09   -2.713E-09   -2.724E-09   -2.735E-09   -2.745E-09   -2.755E-09   -2.765E-09   -2.775E-09
    -2.784E-09   -2.793E-09   -2.802E-09
 Asp      Conc. = 1.79E-09
  -2.50175E-09 -2.68470E-09 -2.76332E-09 -2.88179E-09 -2.92095E-09 -3.04646E-09 -3.18433E-09 -3.27568E-09 -3.26039E-09 -3.20585E-09
  -3.13304E-09 -3.04968E-09 -2.95848E-09 -2.86117E-09 -2.76243E-09 -2.66260E-09 -2.56154E-09 -2.45945E-09 -2.35644E-09 -2.25262E-09
  -2.14805E-09 -2.04276E-09 -1.93671E-09 -1.82987E-09 -1.72213E-09 -1.61338E-09 -1.50339E-09 -1.39191E-09 -1.27851E-09 -1.16264E-09
  -1.04345E-09 -9.19656E-10 -7.89098E-10 -6.48004E-10 -4.88545E-10 -2.91362E-10 -1.05338E-11  2.22220E-10  4.61490E-10  5.91975E-10
   6.59277E-10  7.59624E-10  1.02966E-09  1.49835E-09  2.11979E-09  2.77907E-09  2.97016E-09  2.82545E-09  2.98942E-09  3.22943E-09
   3.52493E-09  3.82289E-09  3.96551E-09  3.77837E-09  3.35646E-09  2.96432E-09  2.78201E-09  2.95250E-09  2.95164E-09  2.69021E-09
   2.61219E-09  2.58058E-09  2.53936E-09  2.62795E-09  2.76464E-09  2.81481E-09  2.77175E-09  2.78749E-09  2.83143E-09  2.89017E-09
   2.95784E-09  3.03136E-09  3.10892E-09  3.18945E-09  3.27213E-09  3.35639E-09  3.44181E-09  3.52806E-09  3.61486E-09  3.70201E-09
   3.78932E-09  3.87662E-09  3.96380E-09  4.05072E-09  4.13727E-09  4.22336E-09  4.30890E-09  4.39380E-09  4.47797E-09  4.56134E-09
   4.64385E-09  4.72540E-09  4.80596E-09  4.88543E-09  4.96376E-09  5.04089E-09  5.11676E-09  5.19130E-09  5.26445E-09  5.33616E-09
   5.40636E-09  5.47501E-09  5.54204E-09  5.60739E-09  5.67102E-09  5.73287E-09  5.79287E-09  5.85097E-09  5.90712E-09  5.96129E-09
   6.01337E-09  6.06335E-09  6.11117E-09  6.15677E-09  6.20009E-09  6.24108E-09  6.27969E-09  6.31587E-09  6.34956E-09  6.38070E-09
   6.40926E-09  6.43517E-09  6.45838E-09  6.47883E-09  6.49648E-09  6.51128E-09  6.52317E-09  6.53210E-09  6.53801E-09  6.54086E-09
   6.54059E-09  6.53716E-09  6.53050E-09  6.52057E-09  6.50732E-09  6.49070E-09  6.47065E-09  6.44713E-09  6.42008E-09  6.38947E-09
   6.35523E-09  6.31732E-09  6.27569E-09  6.23032E-09  6.18113E-09  6.12809E-09  6.07120E-09  6.01057E-09  5.94631E-09  5.87855E-09
   5.80742E-09  5.73305E-09  5.65559E-09  5.57521E-09  5.49208E-09  5.40643E-09  5.31851E-09  5.22866E-09  5.13734E-09  5.04516E-09
   4.95311E-09  4.86279E-09  4.77715E-09  4.70222E-09  4.65283E-09  4.67620E-09  5.00317E-09  6.15289E-09  6.89568E-09  6.99053E-09
   6.75837E-09  6.48435E-09  6.28051E-09  6.19355E-09  6.20678E-09  6.18595E-09  5.80823E-09  4.76564E-09  3.39893E-09  2.93722E-09
   2.68800E-09  2.49821E-09  2.33223E-09  2.17800E-09  2.03040E-09  1.88694E-09  1.74629E-09  1.60773E-09  1.47080E-09  1.33526E-09
   1.20098E-09  1.06787E-09  9.35930E-10  8.05158E-10  6.75596E-10  5.47281E-10  4.20274E-10  2.94657E-10  1.70497E-10  4.78663E-11
  -7.31381E-11 -1.92438E-10 -3.09942E-10 -4.25559E-10 -5.39195E-10 -6.50754E-10 -7.60142E-10 -8.67267E-10 -9.72033E-10 -1.07432E-09
  -1.17407E-09 -1.27116E-09 -1.36549E-09 -1.45697E-09 -1.54550E-09 -1.63098E-09 -1.71330E-09 -1.79238E-09 -1.86811E-09 -1.94053E-09
  -2.00967E-09 -2.07563E-09 -2.13843E-09 -2.19816E-09 -2.25484E-09 -2.30858E-09 -2.35942E-09 -2.40740E-09 -2.45260E-09 -2.49506E-09
  -2.53488E-09 -2.57208E-09 -2.60673E-09 -2.63889E-09 -2.66863E-09 -2.69599E-09 -2.72105E-09 -2.74385E-09 -2.76447E-09 -2.78294E-09
  -2.79934E-09 -2.81374E-09 -2.82618E-09 -2.83672E-09 -2.84541E-09 -2.85233E-09 -2.85754E-09 -2.86109E-09 -2.86304E-09 -2.86343E-09
  -2.86237E-09 -2.85986E-09 -2.85602E-09 -2.85083E-09 -2.84440E-09 -2.83682E-09 -2.82809E-09 -2.81829E-09 -2.80748E-09 -2.79571E-09
  -2.78306E-09 -2.76958E-09 -2.75534E-09 -2.74038E-09 -2.72475E-09 -2.70852E-09 -2.69179E-09 -2.67454E-09 -2.65689E-09 -2.63889E-09
  -2.62058E-09 -2.60202E-09 -2.58329E-09 -2.56442E-09 -2.54551E-09 -2.52657E-09 -2.50770E-09 -2.48895E-09 -2.47035E-09 -2.45198E-09
  -2.43392E-09 -2.41620E-09 -2.39890E-09 -2.38205E-09 -2.36573E-09 -2.35001E-09 -2.33494E-09 -2.32053E-09 -2.30691E-09 -2.29411E-09
  -2.28218E-09 -2.27116E-09 -2.26104E-09 -2.25179E-09 -2.24339E-09 -2.23584E-09 -2.22911E-09 -2.22318E-09 -2.21803E-09 -2.21366E-09
  -2.21004E-09 -2.20714E-09 -2.20497E-09 -2.20350E-09 -2.20270E-09 -2.20257E-09 -2.20309E-09 -2.20423E-09 -2.20599E-09 -2.20833E-09
  -2.21126E-09 -2.21474E-09 -2.21877E-09 -2.22331E-09 -2.22837E-09 -2.23391E-09 -2.23993E-09 -2.24639E-09 -2.25329E-09 -2.26061E-09
  -2.26834E-09 -2.27644E-09 -2.28491E-09 -2.29373E-09 -2.30288E-09 -2.31233E-09 -2.32209E-09 -2.33213E-09 -2.34243E-09 -2.35297E-09
  -2.36374E-09 -2.37471E-09 -2.38587E-09 -2.39720E-09 -2.40870E-09 -2.42033E-09 -2.43208E-09 -2.44394E-09 -2.45588E-09 -2.46788E-09
  -2.47994E-09 -2.49203E-09 -2.50414E-09 -2.51624E-09 -2.52831E-09 -2.54037E-09 -2.55235E-09 -2.56428E-09 -2.57610E-09 -2.58782E-09
  -2.59942E-09 -2.61088E-09 -2.62217E-09 -2.63328E-09 -2.64421E-09 -2.65491E-09 -2.66540E-09 -2.67562E-09 -2.68558E-09 -2.69527E-09
  -2.70465E-09 -2.71371E-09 -2.72245E-09
 GABA     Conc. = 8.09E-10
  -4.29603E-09 -4.18941E-09 -4.08281E-09 -3.97623E-09 -3.86964E-09 -3.76308E-09 -3.65649E-09 -3.54987E-09 -3.44321E-09 -3.33644E-09
  -3.22959E-09 -3.12261E-09 -3.01540E-09 -2.90802E-09 -2.80027E-09 -2.69213E-09 -2.58365E-09 -2.47451E-09 -2.36452E-09 -2.25363E-09
  -2.14139E-09 -2.02732E-09 -1.91080E-09 -1.79079E-09 -1.66568E-09 -1.53288E-09 -1.38697E-09 -1.21670E-09 -9.91482E-10 -6.29219E-10
  -3.92396E-10 -2.31096E-10  2.15044E-10  5.97996E-10  7.48165E-10  9.65732E-10  1.19859E-09  1.34846E-09  1.38578E-09  1.32637E-09
   1.25483E-09  1.31713E-09  1.19289E-09  8.98233E-10  8.96882E-10  9.19314E-10  7.90683E-10  7.70137E-10  8.12023E-10  8.79703E-10
   9.61199E-10  1.05087E-09  1.14633E-09  1.24678E-09  1.35178E-09  1.46151E-09  1.57698E-09  1.70019E-09  1.83526E-09  1.99033E-09
   2.18460E-09  2.47610E-09  2.83124E-09  3.02533E-09  3.28250E-09  3.68281E-09  3.89447E-09  3.98771E-09  4.12363E-09  4.25123E-09
   4.31007E-09  4.27055E-09  4.15618E-09  4.08967E-09  4.07865E-09  3.86377E-09  3.71311E-09  3.79857E-09  3.81422E-09  3.84411E-09
   3.99592E-09  4.08359E-09  4.20590E-09  4.50132E-09  4.69990E-09  4.82552E-09  5.06089E-09  5.27722E-09  5.43155E-09  5.55915E-09
   5.63210E-09  5.71580E-09  5.83066E-09  5.79088E-09  5.70897E-09  5.78419E-09  5.76119E-09  5.65798E-09  5.66474E-09  5.67563E-09
   5.66591E-09  5.68030E-09  5.70932E-09  5.74651E-09  5.78837E-09  5.83271E-09  5.87839E-09  5.92462E-09  5.97087E-09  6.01674E-09
   6.06175E-09  6.10550E-09  6.14782E-09  6.18854E-09  6.22755E-09  6.26477E-09  6.30005E-09  6.33322E-09  6.36419E-09  6.39285E-09
   6.41915E-09  6.44300E-09  6.46434E-09  6.48307E-09  6.49913E-09  6.51246E-09  6.52300E-09  6.53066E-09  6.53540E-09  6.53715E-09
   6.53584E-09  6.53144E-09  6.52386E-09  6.51307E-09  6.49899E-09  6.48161E-09  6.46080E-09  6.43656E-09  6.40881E-09  6.37752E-09
   6.34262E-09  6.30406E-09  6.26179E-09  6.21577E-09  6.16593E-09  6.11222E-09  6.05464E-09  5.99329E-09  5.92827E-09  5.85970E-09
   5.78768E-09  5.71234E-09  5.63378E-09  5.55215E-09  5.46758E-09  5.38022E-09  5.29025E-09  5.19786E-09  5.10332E-09  5.00696E-09
   4.90928E-09  4.81104E-09  4.71359E-09  4.61965E-09  4.53571E-09  4.48214E-09  4.55668E-09  5.01899E-09  5.30152E-09  5.28415E-09
   5.11247E-09  4.91910E-09  4.75641E-09  4.64645E-09  4.58295E-09  4.50721E-09  4.27308E-09  3.73426E-09  3.02979E-09  2.74330E-09
   2.55768E-09  2.39951E-09  2.25211E-09  2.10997E-09  1.97077E-09  1.83344E-09  1.69744E-09  1.56250E-09  1.42845E-09  1.29525E-09
   1.16289E-09  1.03139E-09  9.00805E-10  7.71191E-10  6.42626E-10  5.15175E-10  3.88924E-10  2.63970E-10  1.40396E-10  1.82865E-11
  -1.02253E-10 -2.21137E-10 -3.38266E-10 -4.53544E-10 -5.66873E-10 -6.78152E-10 -7.87286E-10 -8.94179E-10 -9.98731E-10 -1.10083E-09
  -1.20039E-09 -1.29731E-09 -1.39149E-09 -1.48283E-09 -1.57123E-09 -1.65658E-09 -1.73878E-09 -1.81776E-09 -1.89339E-09 -1.96571E-09
  -2.03476E-09 -2.10064E-09 -2.16336E-09 -2.22301E-09 -2.27963E-09 -2.33331E-09 -2.38408E-09 -2.43200E-09 -2.47714E-09 -2.51956E-09
