 LCModel (Version 6.3-1R) Copyright: S.W. Provencher.          Ref.: Magn. Reson. Med. 30:672-679 (1993).                
 onepulse 16x22_ftSpec_smooth_lcm
 26 lines in following concentration table = NCONC+1
    Conc.  %SD /Cr+PCr  Metabolite                                         
    0.000 999%   0.000 Ala                                                 
    0.000 999%   0.000 Asp                                                 
 3.96E-10  54%   1.000 Cr                                                  
    0.000 999%   0.000 GABA                                                
    0.000 999%   0.000 Glc                                                 
 2.38E-09  40%   5.995 Gln                                                 
 1.90E-10 445%   0.481 Glu                                                 
 1.23E-09  24%   3.098 Glyc                                                
    0.000 999%   0.000 GPC                                                 
    0.000 999%   0.000 GSH                                                 
    0.000 999%   0.000 Ins                                                 
    0.000 999%   0.000 Lac                                                 
 1.89E-11 999% 4.8E-02 NAAG                                                
 4.24E-10  97%   1.071 NAA                                                 
 2.36E-10  31%   0.596 PCh                                                 
    0.000 999%   0.000 PCr                                                 
    0.000 999%   0.000 PE                                                  
 3.07E-10  33%   0.776 Scyllo                                              
 2.28E-09  24%   5.752 Ser                                                 
    0.000 999%   0.000 Tau                                                 
 2.36E-10  31%   0.596 GPC+PCh                                             
 4.43E-10  51%   1.118 NAA+NAAG                                            
 1.23E-09  24%   3.098 Ins+Glyc                                            
 3.96E-10  54%   1.000 Cr+PCr                                              
 2.57E-09  19%   6.476 Glu+Gln                                             
   6 lines in following misc. output table
  FWHM = 0.089 ppm    S/N =   3                                            
  Data shift = 0.347 ppm                                                   
  Ph: -55 deg     -31.0 deg/ppm                                            
  alphaB,S = 1.8E-01,   4.5E+01                                            
   16 spline knots.   Ns = 5(1)                                            
  ( 9) 4 infls.   ( 5) 1 extrs.                                            
  363 points on ppm-axis = NY
      4.250000     4.238821     4.227641     4.216462     4.205282     4.194103     4.182923     4.171744     4.160564     4.149385
      4.138206     4.127026     4.115847     4.104667     4.093488     4.082308     4.071129     4.059949     4.048770     4.037591
      4.026411     4.015232     4.004052     3.992873     3.981693     3.970514     3.959334     3.948155     3.936975     3.925796
      3.914617     3.903437     3.892258     3.881078     3.869899     3.858719     3.847540     3.836360     3.825181     3.814002
      3.802822     3.791643     3.780463     3.769284     3.758104     3.746925     3.735745     3.724566     3.713387     3.702207
      3.691028     3.679848     3.668669     3.657489     3.646310     3.635130     3.623951     3.612772     3.601592     3.590413
      3.579233     3.568054     3.556874     3.545695     3.534515     3.523336     3.512156     3.500977     3.489798     3.478618
      3.467439     3.456259     3.445080     3.433900     3.422721     3.411541     3.400362     3.389183     3.378003     3.366824
      3.355644     3.344465     3.333285     3.322106     3.310926     3.299747     3.288568     3.277388     3.266209     3.255029
      3.243850     3.232670     3.221491     3.210311     3.199132     3.187953     3.176773     3.165594     3.154414     3.143235
      3.132055     3.120876     3.109696     3.098517     3.087337     3.076158     3.064979     3.053799     3.042620     3.031440
      3.020261     3.009081     2.997902     2.986722     2.975543     2.964364     2.953184     2.942005     2.930825     2.919646
      2.908466     2.897287     2.886107     2.874928     2.863749     2.852569     2.841390     2.830210     2.819031     2.807851
      2.796672     2.785492     2.774313     2.763134     2.751954     2.740775     2.729595     2.718416     2.707236     2.696057
      2.684877     2.673698     2.662519     2.651339     2.640160     2.628980     2.617801     2.606621     2.595442     2.584262
      2.573083     2.561903     2.550724     2.539545     2.528365     2.517186     2.506006     2.494827     2.483647     2.472468
      2.461288     2.450109     2.438930     2.427750     2.416571     2.405391     2.394212     2.383032     2.371853     2.360673
      2.349494     2.338315     2.327135     2.315956     2.304776     2.293597     2.282417     2.271238     2.260058     2.248879
      2.237700     2.226520     2.215341     2.204161     2.192982     2.181802     2.170623     2.159443     2.148264     2.137084
      2.125905     2.114726     2.103546     2.092367     2.081187     2.070008     2.058828     2.047649     2.036469     2.025290
      2.014111     2.002931     1.991752     1.980572     1.969393     1.958213     1.947034     1.935854     1.924675     1.913496
      1.902316     1.891137     1.879957     1.868778     1.857598     1.846419     1.835239     1.824060     1.812881     1.801701
      1.790522     1.779342     1.768163     1.756983     1.745804     1.734624     1.723445     1.712265     1.701086     1.689907
      1.678727     1.667548     1.656368     1.645189     1.634009     1.622830     1.611650     1.600471     1.589292     1.578112
      1.566933     1.555753     1.544574     1.533394     1.522215     1.511035     1.499856     1.488677     1.477497     1.466318
      1.455138     1.443959     1.432779     1.421600     1.410420     1.399241     1.388062     1.376882     1.365703     1.354523
      1.343344     1.332164     1.320985     1.309805     1.298626     1.287446     1.276267     1.265088     1.253908     1.242729
      1.231549     1.220370     1.209190     1.198011     1.186831     1.175652     1.164473     1.153293     1.142114     1.130934
      1.119755     1.108575     1.097396     1.086216     1.075037     1.063858     1.052678     1.041499     1.030319     1.019140
      1.007960     0.996781     0.985601     0.974422     0.963243     0.952063     0.940884     0.929704     0.918525     0.907345
      0.896166     0.884986     0.873807     0.862628     0.851448     0.840269     0.829089     0.817910     0.806730     0.795551
      0.784371     0.773192     0.762012     0.750833     0.739654     0.728474     0.717295     0.706115     0.694936     0.683756
      0.672577     0.661397     0.650218     0.639039     0.627859     0.616680     0.605500     0.594321     0.583141     0.571962
      0.560782     0.549603     0.538424     0.527244     0.516065     0.504885     0.493706     0.482526     0.471347     0.460167
      0.448988     0.437809     0.426629     0.415450     0.404270     0.393091     0.381911     0.370732     0.359552     0.348373
      0.337193     0.326014     0.314835     0.303655     0.292476     0.281296     0.270117     0.258937     0.247758     0.236578
      0.225399     0.214220     0.203040
 NY phased data points follow
   1.39638E-08  1.35366E-08  1.17134E-08  9.33347E-09  8.46791E-09  6.85703E-09  6.82431E-09  6.95233E-09  6.68072E-09  6.77004E-09
   7.29288E-09  7.57471E-09  7.56572E-09  7.79785E-09  8.04789E-09  8.36257E-09  7.28052E-09  7.38796E-09  7.19511E-09  5.80036E-09
   6.42142E-09  6.26985E-09  6.13876E-09  6.38406E-09  6.42902E-09  7.14435E-09  6.93731E-09  6.41578E-09  6.82568E-09  5.22095E-09
   6.09244E-09  7.06529E-09  8.23802E-09  7.62476E-09  7.50016E-09  5.76745E-09  4.34683E-09  4.13660E-09  2.58869E-09  2.67081E-09
   3.03684E-09  2.80008E-09  2.99402E-09  2.23266E-09  3.23512E-09  2.85120E-09  2.12510E-09  2.14524E-09  1.92821E-09  2.66370E-09
   2.94793E-09  2.97054E-09  3.30562E-09  3.45032E-09  3.64330E-09  2.96659E-09  3.45310E-09  3.67429E-09  3.80530E-09  4.47525E-09
   5.18944E-09  5.69515E-09  7.51944E-09  9.21852E-09  1.02050E-08  8.85580E-09  7.73524E-09  6.12758E-09  5.62651E-09  3.65201E-09
   3.85475E-09  2.87767E-09  3.08898E-09  3.05166E-09  3.49383E-09  2.83760E-09  4.10017E-09  5.33722E-09  6.51886E-09  8.35437E-09
   1.13383E-08  1.15386E-08  1.09156E-08  9.21134E-09  7.18344E-09  6.13262E-09  5.40059E-09  5.29624E-09  4.50942E-09  3.97581E-09
   4.30573E-09  4.02814E-09  3.45870E-09  3.15501E-09  2.55759E-09  1.73021E-09  2.66478E-09  1.73671E-09  1.97546E-09  1.18355E-09
   2.05917E-09  2.39785E-09  1.27675E-09  2.25608E-09  1.77606E-09  1.49817E-09  1.87956E-09  1.35259E-09  1.71043E-09  3.25168E-10
   1.13758E-09  2.94449E-10  4.73190E-10  8.66227E-10  1.62191E-09  2.10203E-09  1.77833E-09  1.87989E-09  2.68313E-09  1.90891E-09
   2.05040E-09  2.43893E-09  2.41281E-09  1.58644E-09  1.50571E-09  7.93572E-10  9.88184E-10  4.80659E-10  1.27527E-09  1.71576E-09
   1.26703E-09  1.34772E-09  2.18283E-09  1.84206E-09  2.24625E-09  1.31347E-09  1.87186E-09  1.64250E-09  1.91494E-09  2.57357E-09
   2.72333E-09  3.86702E-09  4.20766E-09  3.70894E-09  3.46853E-09  3.64022E-09  4.15543E-09  4.19716E-09  4.47901E-09  4.36951E-09
   4.28662E-09  3.73302E-09  4.18581E-09  4.02272E-09  3.85696E-09  3.44272E-09  3.64959E-09  3.91601E-09  3.99534E-09  3.80221E-09
   4.14317E-09  4.34021E-09  4.36177E-09  3.87946E-09  3.82901E-09  4.17150E-09  4.52393E-09  4.84234E-09  6.22451E-09  7.83076E-09
   9.84621E-09  1.24996E-08  1.56589E-08  1.53181E-08  1.38416E-08  1.14811E-08  1.02595E-08  8.96443E-09  8.34448E-09  6.71983E-09
   6.84621E-09  5.79517E-09  5.96424E-09  3.99030E-09  4.29127E-09  3.01968E-09  2.13087E-09  1.61312E-09  3.49711E-10 -8.71789E-10
  -1.28624E-09 -2.91026E-09 -4.12481E-09 -5.10678E-09 -7.01377E-09 -8.24397E-09 -9.23607E-09 -1.11968E-08 -1.20204E-08 -1.27950E-08
  -1.32164E-08 -1.44407E-08 -1.37897E-08 -1.37333E-08 -1.38262E-08 -1.31276E-08 -1.14410E-08 -1.11329E-08 -9.07418E-09 -7.92987E-09
  -7.04738E-09 -5.86042E-09 -4.16360E-09 -3.45806E-09 -1.84231E-09 -1.57822E-09 -9.72113E-10 -1.88307E-09 -1.03681E-09 -1.47810E-09
  -1.35102E-09 -1.60505E-09 -1.43112E-09 -2.21583E-09 -1.78946E-09 -1.20699E-09 -1.28294E-09 -6.55350E-10 -1.23600E-09 -3.64005E-10
  -6.13755E-10 -1.75719E-09 -9.64982E-10 -1.70955E-09 -1.50250E-09 -1.79130E-09 -7.94581E-10 -8.88722E-10 -5.36623E-10 -4.15756E-10
  -1.04060E-09 -2.70686E-10 -7.83874E-10 -1.02198E-09 -1.51953E-09 -7.90824E-10 -9.69569E-10 -1.72363E-09 -9.45772E-10 -1.22871E-09
  -3.69951E-10 -4.65226E-10 -5.42746E-10  1.18708E-10  5.05701E-10 -7.22091E-10  3.08961E-10 -5.78569E-10 -7.11705E-10 -3.35146E-10
  -6.90272E-10 -1.16294E-09 -6.64082E-10 -1.23860E-09 -1.47290E-09 -1.54083E-09 -1.23611E-09 -1.05560E-09 -1.00500E-09 -8.91084E-10
  -7.21087E-10 -2.10133E-10 -5.38855E-10 -3.60083E-10  4.27889E-10 -2.83436E-11  3.86325E-10  2.36316E-10  8.74865E-12  2.94943E-10
   3.07284E-10  1.18067E-10  1.87383E-10 -2.83618E-10 -2.90212E-10 -6.61575E-10  3.28058E-10 -2.36519E-10 -7.01105E-10 -5.84700E-10
  -2.65031E-10 -4.84813E-10 -1.00492E-09 -4.62569E-10 -9.48825E-10 -4.83366E-10 -7.22591E-10 -6.22847E-10 -1.10901E-09 -9.61215E-10
  -6.72828E-10 -1.58013E-09 -8.32041E-10 -7.81424E-10 -1.66780E-09 -1.26201E-09 -8.46434E-10 -1.13384E-09 -9.43944E-10 -1.45684E-09
  -5.84342E-10 -1.19925E-09 -1.32433E-09 -1.32252E-09 -6.95636E-10 -1.09293E-09 -1.03692E-09 -1.71052E-09 -1.32120E-09 -6.80225E-10
  -1.77413E-09 -1.25720E-09 -9.86437E-10 -1.12583E-09 -1.58285E-09 -9.11033E-10 -1.00970E-09 -1.10150E-09 -1.26891E-09 -1.09288E-09
  -1.34194E-09 -8.81054E-10 -1.40894E-09 -1.14218E-09 -1.29042E-09 -1.39336E-09 -8.52258E-10 -1.34958E-09 -9.93106E-10 -8.11498E-10
  -6.77774E-10 -1.50909E-09 -8.78251E-10 -1.04188E-09 -1.27678E-09 -9.33691E-10 -8.55952E-10 -7.86470E-10 -1.06713E-09 -1.31105E-09
  -1.27600E-09 -8.10010E-10 -1.05055E-09 -8.96499E-10 -1.12034E-09 -9.92583E-10 -1.34642E-09 -1.01215E-09 -8.44462E-10 -7.57190E-10
  -1.37838E-09 -1.00157E-09 -1.22022E-09
 NY points of the fit to the data follow
   1.33675E-08  1.20689E-08  1.05421E-08  9.64112E-09  9.35054E-09  8.81507E-09  7.97775E-09  7.24667E-09  6.83959E-09  6.91087E-09
   7.27704E-09  7.49972E-09  7.85278E-09  8.07996E-09  7.88637E-09  7.57388E-09  7.21950E-09  7.08429E-09  6.79403E-09  6.03460E-09
   5.40533E-09  5.68232E-09  5.97523E-09  6.19249E-09  6.66105E-09  7.16921E-09  7.51495E-09  7.44575E-09  6.93104E-09  6.70982E-09
   6.58076E-09  6.54467E-09  6.56209E-09  6.30382E-09  5.52933E-09  4.62756E-09  4.52794E-09  4.44897E-09  4.29275E-09  4.09777E-09
   3.80748E-09  3.27975E-09  2.56834E-09  2.22203E-09  2.17277E-09  2.19170E-09  2.23038E-09  2.27476E-09  2.32867E-09  2.39050E-09
   2.47541E-09  2.58315E-09  2.72150E-09  2.87986E-09  3.09506E-09  3.46034E-09  3.99583E-09  4.54191E-09  5.22356E-09  6.01543E-09
   6.70044E-09  7.20566E-09  7.63028E-09  7.85866E-09  7.80090E-09  7.35900E-09  6.63753E-09  5.95925E-09  5.31982E-09  4.36164E-09
   3.70813E-09  3.48126E-09  3.38461E-09  3.42039E-09  3.72101E-09  4.26456E-09  5.04418E-09  6.07691E-09  7.15253E-09  8.14642E-09
   8.98127E-09  9.53328E-09  9.59574E-09  9.12663E-09  8.53773E-09  7.81358E-09  6.65237E-09  5.36057E-09  4.11975E-09  3.40575E-09
   3.00721E-09  2.77354E-09  2.61910E-09  2.51006E-09  2.43113E-09  2.37015E-09  2.32274E-09  2.28678E-09  2.25857E-09  2.23654E-09
   2.22047E-09  2.20872E-09  2.19989E-09  2.19382E-09  2.19034E-09  2.18923E-09  2.19008E-09  2.19257E-09  2.19653E-09  2.20182E-09
   2.20834E-09  2.21598E-09  2.22468E-09  2.23428E-09  2.24463E-09  2.25554E-09  2.26687E-09  2.27846E-09  2.29016E-09  2.30183E-09
   2.31333E-09  2.32454E-09  2.33531E-09  2.34553E-09  2.35506E-09  2.36379E-09  2.37158E-09  2.37833E-09  2.38391E-09  2.38820E-09
   2.39110E-09  2.39248E-09  2.39224E-09  2.39027E-09  2.38645E-09  2.38068E-09  2.37285E-09  2.36286E-09  2.35061E-09  2.33600E-09
   2.31892E-09  2.29934E-09  2.27722E-09  2.25253E-09  2.22523E-09  2.19533E-09  2.16279E-09  2.12763E-09  2.08985E-09  2.04948E-09
   2.00658E-09  1.96120E-09  1.91346E-09  1.86351E-09  1.81156E-09  1.75793E-09  1.70303E-09  1.64747E-09  1.59213E-09  1.53833E-09
   1.48806E-09  1.44456E-09  1.41331E-09  1.40447E-09  1.43940E-09  1.57335E-09  2.01360E-09  3.43914E-09  5.79909E-09  8.45977E-09
   1.11349E-08  1.35295E-08  1.50971E-08  1.54849E-08  1.48938E-08  1.37280E-08  1.18513E-08  8.59550E-09  4.19021E-09  1.10712E-09
  -8.94814E-11 -6.15755E-10 -9.47861E-10 -1.19837E-09 -1.40633E-09 -1.58870E-09 -1.75392E-09 -1.90654E-09 -2.04912E-09 -2.18318E-09
  -2.30957E-09 -2.42879E-09 -2.54104E-09 -2.64637E-09 -2.74474E-09 -2.83601E-09 -2.92007E-09 -2.99716E-09 -3.06751E-09 -3.13135E-09
  -3.18888E-09 -3.24031E-09 -3.28581E-09 -3.32556E-09 -3.35972E-09 -3.38846E-09 -3.41194E-09 -3.43030E-09 -3.44371E-09 -3.45230E-09
  -3.45622E-09 -3.45563E-09 -3.45065E-09 -3.44144E-09 -3.42814E-09 -3.41088E-09 -3.38981E-09 -3.36506E-09 -3.33677E-09 -3.30509E-09
  -3.27014E-09 -3.23206E-09 -3.19100E-09 -3.14708E-09 -3.10046E-09 -3.05130E-09 -2.99977E-09 -2.94605E-09 -2.89030E-09 -2.83271E-09
  -2.77342E-09 -2.71263E-09 -2.65049E-09 -2.58718E-09 -2.52286E-09 -2.45772E-09 -2.39191E-09 -2.32561E-09 -2.25897E-09 -2.19220E-09
  -2.12544E-09 -2.05886E-09 -1.99264E-09 -1.92696E-09 -1.86196E-09 -1.79782E-09 -1.73472E-09 -1.67282E-09 -1.61230E-09 -1.55333E-09
  -1.49605E-09 -1.44067E-09 -1.38726E-09 -1.33579E-09 -1.28626E-09 -1.23865E-09 -1.19292E-09 -1.14906E-09 -1.10705E-09 -1.06686E-09
  -1.02847E-09 -9.91859E-10 -9.57009E-10 -9.23890E-10 -8.92489E-10 -8.62778E-10 -8.34723E-10 -8.08330E-10 -7.83562E-10 -7.60390E-10
  -7.38796E-10 -7.18767E-10 -7.00267E-10 -6.83280E-10 -6.67794E-10 -6.53763E-10 -6.41192E-10 -6.30042E-10 -6.20299E-10 -6.11930E-10
  -6.04907E-10 -5.99183E-10 -5.94706E-10 -5.91427E-10 -5.89305E-10 -5.88284E-10 -5.88322E-10 -5.89365E-10 -5.91368E-10 -5.94285E-10
  -5.98065E-10 -6.02660E-10 -6.08023E-10 -6.14105E-10 -6.20859E-10 -6.28235E-10 -6.36187E-10 -6.44664E-10 -6.53624E-10 -6.63009E-10
  -6.72782E-10 -6.82886E-10 -6.93275E-10 -7.03907E-10 -7.14727E-10 -7.25689E-10 -7.36746E-10 -7.47848E-10 -7.58974E-10 -7.70115E-10
  -7.81257E-10 -7.92392E-10 -8.03510E-10 -8.14596E-10 -8.25644E-10 -8.36642E-10 -8.47579E-10 -8.58445E-10 -8.69230E-10 -8.79921E-10
  -8.90513E-10 -9.00988E-10 -9.11340E-10 -9.21560E-10 -9.31633E-10 -9.41553E-10 -9.51305E-10 -9.60881E-10 -9.70270E-10 -9.79464E-10
  -9.88447E-10 -9.97213E-10 -1.00575E-09 -1.01405E-09 -1.02210E-09 -1.02988E-09 -1.03742E-09 -1.04472E-09 -1.05179E-09 -1.05864E-09
  -1.06529E-09 -1.07176E-09 -1.07804E-09 -1.08415E-09 -1.09012E-09 -1.09593E-09 -1.10163E-09 -1.10720E-09 -1.11267E-09 -1.11804E-09
  -1.12334E-09 -1.12856E-09 -1.13373E-09 -1.13885E-09 -1.14395E-09 -1.14902E-09 -1.15409E-09 -1.15915E-09 -1.16424E-09 -1.16935E-09
  -1.17451E-09 -1.17972E-09 -1.18500E-09
 NY background values follow
     5.590E-10    5.654E-10    5.719E-10    5.785E-10    5.851E-10    5.917E-10    5.983E-10    6.050E-10    6.117E-10    6.185E-10
     6.252E-10    6.320E-10    6.388E-10    6.455E-10    6.523E-10    6.591E-10    6.659E-10    6.726E-10    6.794E-10    6.861E-10
     6.928E-10    6.994E-10    7.061E-10    7.127E-10    7.193E-10    7.258E-10    7.322E-10    7.387E-10    7.450E-10    7.513E-10
     7.576E-10    7.638E-10    7.700E-10    7.761E-10    7.822E-10    7.883E-10    7.944E-10    8.005E-10    8.066E-10    8.127E-10
     8.189E-10    8.250E-10    8.312E-10    8.374E-10    8.437E-10    8.500E-10    8.564E-10    8.628E-10    8.694E-10    8.760E-10
     8.827E-10    8.894E-10    8.963E-10    9.033E-10    9.104E-10    9.177E-10    9.250E-10    9.325E-10    9.402E-10    9.479E-10
     9.558E-10    9.638E-10    9.719E-10    9.801E-10    9.885E-10    9.969E-10    1.005E-09    1.014E-09    1.023E-09    1.032E-09
     1.041E-09    1.050E-09    1.059E-09    1.068E-09    1.077E-09    1.087E-09    1.096E-09    1.105E-09    1.115E-09    1.125E-09
     1.134E-09    1.144E-09    1.154E-09    1.164E-09    1.173E-09    1.183E-09    1.193E-09    1.203E-09    1.213E-09    1.224E-09
     1.234E-09    1.244E-09    1.255E-09    1.266E-09    1.277E-09    1.288E-09    1.299E-09    1.310E-09    1.322E-09    1.334E-09
     1.346E-09    1.358E-09    1.371E-09    1.383E-09    1.396E-09    1.410E-09    1.423E-09    1.437E-09    1.451E-09    1.466E-09
     1.481E-09    1.496E-09    1.512E-09    1.528E-09    1.544E-09    1.560E-09    1.576E-09    1.592E-09    1.608E-09    1.623E-09
     1.638E-09    1.653E-09    1.666E-09    1.679E-09    1.691E-09    1.702E-09    1.712E-09    1.720E-09    1.727E-09    1.733E-09
     1.737E-09    1.739E-09    1.740E-09    1.739E-09    1.736E-09    1.730E-09    1.723E-09    1.713E-09    1.700E-09    1.685E-09
     1.667E-09    1.647E-09    1.624E-09    1.598E-09    1.569E-09    1.537E-09    1.502E-09    1.463E-09    1.422E-09    1.378E-09
     1.330E-09    1.279E-09    1.225E-09    1.167E-09    1.106E-09    1.042E-09    9.734E-10    9.016E-10    8.261E-10    7.469E-10
     6.638E-10    5.770E-10    4.862E-10    3.915E-10    2.928E-10    1.900E-10    8.312E-11   -2.794E-11   -1.432E-10   -2.623E-10
    -3.849E-10   -5.106E-10   -6.390E-10   -7.697E-10   -9.024E-10   -1.037E-09   -1.172E-09   -1.308E-09   -1.445E-09   -1.582E-09
    -1.718E-09   -1.854E-09   -1.989E-09   -2.122E-09   -2.253E-09   -2.382E-09   -2.508E-09   -2.631E-09   -2.751E-09   -2.867E-09
    -2.979E-09   -3.086E-09   -3.189E-09   -3.286E-09   -3.377E-09   -3.462E-09   -3.541E-09   -3.613E-09   -3.680E-09   -3.740E-09
    -3.794E-09   -3.843E-09   -3.886E-09   -3.923E-09   -3.956E-09   -3.982E-09   -4.004E-09   -4.021E-09   -4.033E-09   -4.040E-09
    -4.043E-09   -4.041E-09   -4.035E-09   -4.025E-09   -4.011E-09   -3.993E-09   -3.971E-09   -3.945E-09   -3.916E-09   -3.884E-09
    -3.848E-09   -3.809E-09   -3.768E-09   -3.723E-09   -3.676E-09   -3.626E-09   -3.574E-09   -3.520E-09   -3.464E-09   -3.406E-09
    -3.346E-09   -3.285E-09   -3.223E-09   -3.159E-09   -3.094E-09   -3.029E-09   -2.962E-09   -2.896E-09   -2.829E-09   -2.762E-09
    -2.695E-09   -2.628E-09   -2.561E-09   -2.495E-09   -2.430E-09   -2.366E-09   -2.302E-09   -2.240E-09   -2.179E-09   -2.120E-09
    -2.062E-09   -2.007E-09   -1.953E-09   -1.901E-09   -1.852E-09   -1.804E-09   -1.758E-09   -1.714E-09   -1.671E-09   -1.631E-09
    -1.592E-09   -1.556E-09   -1.520E-09   -1.487E-09   -1.455E-09   -1.426E-09   -1.397E-09   -1.371E-09   -1.346E-09   -1.322E-09
    -1.300E-09   -1.280E-09   -1.262E-09   -1.244E-09   -1.229E-09   -1.214E-09   -1.202E-09   -1.190E-09   -1.180E-09   -1.172E-09
    -1.164E-09   -1.159E-09   -1.154E-09   -1.150E-09   -1.148E-09   -1.147E-09   -1.147E-09   -1.148E-09   -1.149E-09   -1.152E-09
    -1.156E-09   -1.160E-09   -1.165E-09   -1.171E-09   -1.178E-09   -1.185E-09   -1.192E-09   -1.201E-09   -1.210E-09   -1.219E-09
    -1.228E-09   -1.238E-09   -1.248E-09   -1.259E-09   -1.269E-09   -1.280E-09   -1.291E-09   -1.302E-09   -1.313E-09   -1.324E-09
    -1.335E-09   -1.346E-09   -1.357E-09   -1.367E-09   -1.378E-09   -1.389E-09   -1.400E-09   -1.410E-09   -1.421E-09   -1.431E-09
    -1.442E-09   -1.452E-09   -1.462E-09   -1.472E-09   -1.482E-09   -1.492E-09   -1.501E-09   -1.511E-09   -1.520E-09   -1.529E-09
    -1.538E-09   -1.546E-09   -1.554E-09   -1.562E-09   -1.570E-09   -1.578E-09   -1.585E-09   -1.592E-09   -1.599E-09   -1.606E-09
    -1.612E-09   -1.618E-09   -1.624E-09   -1.630E-09   -1.636E-09   -1.642E-09   -1.647E-09   -1.652E-09   -1.658E-09   -1.663E-09
    -1.668E-09   -1.673E-09   -1.678E-09   -1.683E-09   -1.687E-09   -1.692E-09   -1.697E-09   -1.702E-09   -1.707E-09   -1.711E-09
    -1.716E-09   -1.721E-09   -1.726E-09
 Cr       Conc. = 3.96E-10
   2.03569E-09  1.77678E-09  1.32917E-09  8.82068E-10  7.68563E-10  7.28413E-10  7.10897E-10  7.03124E-10  7.00418E-10  7.00687E-10
   7.02860E-10  7.06334E-10  7.10748E-10  7.15875E-10  7.21573E-10  7.27750E-10  7.34352E-10  7.41354E-10  7.48755E-10  7.56580E-10
   7.64880E-10  7.73744E-10  7.83310E-10  7.93790E-10  8.05515E-10  8.19024E-10  8.35227E-10  8.55807E-10  8.84247E-10  9.29220E-10
   1.02043E-09  1.30899E-09  1.73421E-09  2.18497E-09  2.63625E-09  3.03721E-09  3.28685E-09  3.33635E-09  3.23995E-09  3.07303E-09
   2.79099E-09  2.25581E-09  1.51837E-09  1.12911E-09  1.02343E-09  9.81194E-10  9.61241E-10  9.51506E-10  9.47256E-10  9.46281E-10
   9.47418E-10  9.49999E-10  9.53624E-10  9.58033E-10  9.63064E-10  9.68589E-10  9.74534E-10  9.80843E-10  9.87463E-10  9.94356E-10
   1.00149E-09  1.00885E-09  1.01640E-09  1.02413E-09  1.03204E-09  1.04010E-09  1.04830E-09  1.05664E-09  1.06511E-09  1.07371E-09
   1.08241E-09  1.09123E-09  1.10014E-09  1.10916E-09  1.11826E-09  1.12745E-09  1.13673E-09  1.14608E-09  1.15551E-09  1.16501E-09
   1.17457E-09  1.18420E-09  1.19388E-09  1.20362E-09  1.21340E-09  1.22324E-09  1.23315E-09  1.24313E-09  1.25320E-09  1.26336E-09
   1.27364E-09  1.28404E-09  1.29457E-09  1.30524E-09  1.31607E-09  1.32707E-09  1.33824E-09  1.34961E-09  1.36118E-09  1.37296E-09
   1.38496E-09  1.39720E-09  1.40969E-09  1.42244E-09  1.43546E-09  1.44876E-09  1.46236E-09  1.47625E-09  1.49047E-09  1.50502E-09
   1.51990E-09  1.53514E-09  1.55074E-09  1.56663E-09  1.58272E-09  1.59888E-09  1.61502E-09  1.63101E-09  1.64675E-09  1.66213E-09
   1.67704E-09  1.69137E-09  1.70500E-09  1.71783E-09  1.72975E-09  1.74065E-09  1.75041E-09  1.75893E-09  1.76609E-09  1.77180E-09
   1.77592E-09  1.77837E-09  1.77902E-09  1.77776E-09  1.77450E-09  1.76910E-09  1.76148E-09  1.75151E-09  1.73909E-09  1.72411E-09
   1.70645E-09  1.68605E-09  1.66287E-09  1.63683E-09  1.60790E-09  1.57602E-09  1.54113E-09  1.50318E-09  1.46213E-09  1.41791E-09
   1.37049E-09  1.31981E-09  1.26583E-09  1.20850E-09  1.14779E-09  1.08365E-09  1.01607E-09  9.45025E-10  8.70524E-10  7.92595E-10
   7.11324E-10  6.26887E-10  5.39657E-10  4.50405E-10  3.61073E-10  2.77736E-10  2.30009E-10  2.49403E-10  2.82934E-10  3.14587E-10
   3.36521E-10  3.20277E-10  2.36810E-10  9.06505E-11 -9.00942E-11 -2.98285E-10 -5.73225E-10 -9.38676E-10 -1.28522E-09 -1.47744E-09
  -1.63617E-09 -1.78364E-09 -1.92541E-09 -2.06329E-09 -2.19789E-09 -2.32934E-09 -2.45755E-09 -2.58233E-09 -2.70339E-09 -2.82042E-09
  -2.93311E-09 -3.04111E-09 -3.14405E-09 -3.24157E-09 -3.33331E-09 -3.41890E-09 -3.49807E-09 -3.57088E-09 -3.63749E-09 -3.69804E-09
  -3.75265E-09 -3.80147E-09 -3.84463E-09 -3.88227E-09 -3.91453E-09 -3.94153E-09 -3.96343E-09 -3.98034E-09 -3.99242E-09 -3.99978E-09
  -4.00257E-09 -4.00092E-09 -3.99497E-09 -3.98485E-09 -3.97068E-09 -3.95263E-09 -3.93080E-09 -3.90534E-09 -3.87638E-09 -3.84406E-09
  -3.80851E-09 -3.76986E-09 -3.72825E-09 -3.68381E-09 -3.63669E-09 -3.58706E-09 -3.53508E-09 -3.48092E-09 -3.42475E-09 -3.36675E-09
  -3.30707E-09 -3.24589E-09 -3.18339E-09 -3.11973E-09 -3.05507E-09 -2.98959E-09 -2.92345E-09 -2.85684E-09 -2.78989E-09 -2.72282E-09
  -2.65577E-09 -2.58890E-09 -2.52240E-09 -2.45644E-09 -2.39117E-09 -2.32677E-09 -2.26341E-09 -2.20126E-09 -2.14049E-09 -2.08127E-09
  -2.02375E-09 -1.96813E-09 -1.91448E-09 -1.86278E-09 -1.81303E-09 -1.76519E-09 -1.71924E-09 -1.67516E-09 -1.63293E-09 -1.59252E-09
  -1.55392E-09 -1.51709E-09 -1.48203E-09 -1.44870E-09 -1.41710E-09 -1.38718E-09 -1.35892E-09 -1.33232E-09 -1.30735E-09 -1.28398E-09
  -1.26219E-09 -1.24196E-09 -1.22326E-09 -1.20608E-09 -1.19040E-09 -1.17618E-09 -1.16341E-09 -1.15207E-09 -1.14213E-09 -1.13357E-09
  -1.12636E-09 -1.12044E-09 -1.11577E-09 -1.11231E-09 -1.10999E-09 -1.10878E-09 -1.10863E-09 -1.10949E-09 -1.11130E-09 -1.11403E-09
  -1.11762E-09 -1.12203E-09 -1.12720E-09 -1.13309E-09 -1.13966E-09 -1.14685E-09 -1.15461E-09 -1.16290E-09 -1.17167E-09 -1.18086E-09
  -1.19044E-09 -1.20036E-09 -1.21056E-09 -1.22100E-09 -1.23163E-09 -1.24240E-09 -1.25326E-09 -1.26417E-09 -1.27511E-09 -1.28605E-09
  -1.29700E-09 -1.30794E-09 -1.31887E-09 -1.32976E-09 -1.34061E-09 -1.35141E-09 -1.36215E-09 -1.37282E-09 -1.38341E-09 -1.39390E-09
  -1.40429E-09 -1.41457E-09 -1.42472E-09 -1.43474E-09 -1.44461E-09 -1.45432E-09 -1.46387E-09 -1.47324E-09 -1.48243E-09 -1.49141E-09
  -1.50019E-09 -1.50875E-09 -1.51707E-09 -1.52516E-09 -1.53300E-09 -1.54057E-09 -1.54790E-09 -1.55498E-09 -1.56184E-09 -1.56847E-09
  -1.57491E-09 -1.58115E-09 -1.58721E-09 -1.59311E-09 -1.59885E-09 -1.60445E-09 -1.60991E-09 -1.61526E-09 -1.62050E-09 -1.62565E-09
  -1.63071E-09 -1.63570E-09 -1.64064E-09 -1.64553E-09 -1.65039E-09 -1.65522E-09 -1.66005E-09 -1.66488E-09 -1.66973E-09 -1.67460E-09
  -1.67951E-09 -1.68448E-09 -1.68951E-09
 Gln      Conc. = 2.38E-09
   1.96628E-09  2.42436E-09  2.86646E-09  3.32841E-09  3.74534E-09  4.04969E-09  4.19870E-09  4.15590E-09  3.91685E-09  3.55879E-09
   3.19167E-09  2.60749E-09  2.18759E-09  1.87757E-09  1.50831E-09  1.33550E-09  1.24597E-09  1.19291E-09  1.15912E-09  1.13691E-09
   1.12229E-09  1.11294E-09  1.10739E-09  1.10474E-09  1.10453E-09  1.10655E-09  1.11028E-09  1.11506E-09  1.12110E-09  1.12813E-09
   1.13587E-09  1.14434E-09  1.15355E-09  1.16354E-09  1.17434E-09  1.18600E-09  1.19858E-09  1.21216E-09  1.22686E-09  1.24277E-09
   1.26014E-09  1.27918E-09  1.30021E-09  1.32367E-09  1.35001E-09  1.37974E-09  1.41371E-09  1.45277E-09  1.49802E-09  1.55211E-09
   1.61804E-09  1.69935E-09  1.80452E-09  1.94807E-09  2.15982E-09  2.51904E-09  3.02836E-09  3.55137E-09  4.21675E-09  5.00384E-09
   5.68673E-09  6.19429E-09  6.58428E-09  6.76991E-09  6.63159E-09  6.12379E-09  5.38580E-09  4.74213E-09  4.15977E-09  3.27739E-09
   2.66391E-09  2.47687E-09  2.46601E-09  2.57290E-09  2.86904E-09  3.36894E-09  4.00650E-09  4.60415E-09  5.14765E-09  5.60569E-09
   5.92520E-09  6.06556E-09  5.93634E-09  5.51840E-09  5.12714E-09  4.67377E-09  3.96066E-09  3.42665E-09  3.07674E-09  2.66881E-09
   2.38803E-09  2.21564E-09  2.10005E-09  2.01931E-09  1.96012E-09  1.91434E-09  1.87967E-09  1.85361E-09  1.83364E-09  1.81888E-09
   1.80846E-09  1.80127E-09  1.79659E-09  1.79418E-09  1.79383E-09  1.79539E-09  1.79858E-09  1.80312E-09  1.80889E-09  1.81580E-09
   1.82376E-09  1.83269E-09  1.84253E-09  1.85317E-09  1.86443E-09  1.87617E-09  1.88823E-09  1.90047E-09  1.91274E-09  1.92492E-09
   1.93686E-09  1.94844E-09  1.95953E-09  1.97000E-09  1.97973E-09  1.98859E-09  1.99647E-09  2.00324E-09  2.00879E-09  2.01300E-09
   2.01575E-09  2.01693E-09  2.01642E-09  2.01410E-09  2.00987E-09  2.00361E-09  1.99521E-09  1.98456E-09  1.97155E-09  1.95607E-09
   1.93801E-09  1.91731E-09  1.89392E-09  1.86779E-09  1.83888E-09  1.80713E-09  1.77250E-09  1.73496E-09  1.69447E-09  1.65099E-09
   1.60451E-09  1.55499E-09  1.50244E-09  1.44685E-09  1.38825E-09  1.32667E-09  1.26220E-09  1.19494E-09  1.12510E-09  1.05293E-09
   9.78909E-10  9.03720E-10  8.28533E-10  7.55339E-10  6.87921E-10  6.34281E-10  6.15068E-10  7.04818E-10  1.23910E-09  1.98699E-09
   2.76529E-09  3.53704E-09  4.17844E-09  4.47897E-09  4.37231E-09  3.99624E-09  3.49007E-09  2.71508E-09  1.39189E-09 -2.65087E-10
  -1.02933E-09 -1.36029E-09 -1.58368E-09 -1.76609E-09 -1.92804E-09 -2.07764E-09 -2.21857E-09 -2.35263E-09 -2.48068E-09 -2.60313E-09
  -2.72009E-09 -2.83153E-09 -2.93728E-09 -3.03712E-09 -3.13082E-09 -3.21806E-09 -3.29864E-09 -3.37268E-09 -3.44035E-09 -3.50183E-09
  -3.55726E-09 -3.60681E-09 -3.65062E-09 -3.68885E-09 -3.72164E-09 -3.74913E-09 -3.77146E-09 -3.78878E-09 -3.80122E-09 -3.80893E-09
  -3.81203E-09 -3.81068E-09 -3.80500E-09 -3.79514E-09 -3.78122E-09 -3.76339E-09 -3.74178E-09 -3.71652E-09 -3.68776E-09 -3.65562E-09
  -3.62025E-09 -3.58177E-09 -3.54032E-09 -3.49603E-09 -3.44907E-09 -3.39958E-09 -3.34773E-09 -3.29371E-09 -3.23767E-09 -3.17979E-09
