 LCModel (Version 6.3-1R) Copyright: S.W. Provencher.          Ref.: Magn. Reson. Med. 30:672-679 (1993).                
 onepulse 16x25_ftSpec_smooth_lcm
 26 lines in following concentration table = NCONC+1
    Conc.  %SD /Cr+PCr  Metabolite                                         
    0.000 999%   0.000 Ala                                                 
    0.000 999%   0.000 Asp                                                 
    0.000 999%   0.000 Cr                                                  
    0.000 999%   0.000 GABA                                                
 3.72E-11 999%   0.459 Glc                                                 
 1.59E-09  48%  19.639 Gln                                                 
    0.000 999%   0.000 Glu                                                 
    0.000 999%   0.000 Glyc                                                
 1.11E-10 317%   1.367 GPC                                                 
    0.000 999%   0.000 GSH                                                 
 1.79E-09  37%  22.049 Ins                                                 
    0.000 999%   0.000 Lac                                                 
 5.55E-10  48%   6.849 NAAG                                                
    0.000 999%   0.000 NAA                                                 
    0.000 999%   0.000 PCh                                                 
 8.10E-11 410%   1.000 PCr                                                 
 5.81E-10 404%   7.172 PE                                                  
 2.56E-10 130%   3.162 Scyllo                                              
 5.64E-09  38%  69.601 Ser                                                 
    0.000 999%   0.000 Tau                                                 
 1.11E-10 317%   1.367 GPC+PCh                                             
 5.55E-10  48%   6.849 NAA+NAAG                                            
 1.79E-09  37%  22.049 Ins+Glyc                                            
 8.10E-11 410%   1.000 Cr+PCr                                              
 1.59E-09  48%  19.639 Glu+Gln                                             
   6 lines in following misc. output table
  FWHM = 0.101 ppm    S/N =   3                                            
  Data shift = 0.402 ppm                                                   
  Ph: -33 deg     -43.1 deg/ppm                                            
  alphaB,S = 9.8E-01,   4.6E+01                                            
    9 spline knots.   Ns = 5(1)                                            
  ( 6) 4 infls.   ( 5) 1 extrs.                                            
  363 points on ppm-axis = NY
      4.250000     4.238821     4.227641     4.216462     4.205282     4.194103     4.182923     4.171744     4.160564     4.149385
      4.138206     4.127026     4.115847     4.104667     4.093488     4.082308     4.071129     4.059949     4.048770     4.037591
      4.026411     4.015232     4.004052     3.992873     3.981693     3.970514     3.959334     3.948155     3.936975     3.925796
      3.914617     3.903437     3.892258     3.881078     3.869899     3.858719     3.847540     3.836360     3.825181     3.814002
      3.802822     3.791643     3.780463     3.769284     3.758104     3.746925     3.735745     3.724566     3.713387     3.702207
      3.691028     3.679848     3.668669     3.657489     3.646310     3.635130     3.623951     3.612772     3.601592     3.590413
      3.579233     3.568054     3.556874     3.545695     3.534515     3.523336     3.512156     3.500977     3.489798     3.478618
      3.467439     3.456259     3.445080     3.433900     3.422721     3.411541     3.400362     3.389183     3.378003     3.366824
      3.355644     3.344465     3.333285     3.322106     3.310926     3.299747     3.288568     3.277388     3.266209     3.255029
      3.243850     3.232670     3.221491     3.210311     3.199132     3.187953     3.176773     3.165594     3.154414     3.143235
      3.132055     3.120876     3.109696     3.098517     3.087337     3.076158     3.064979     3.053799     3.042620     3.031440
      3.020261     3.009081     2.997902     2.986722     2.975543     2.964364     2.953184     2.942005     2.930825     2.919646
      2.908466     2.897287     2.886107     2.874928     2.863749     2.852569     2.841390     2.830210     2.819031     2.807851
      2.796672     2.785492     2.774313     2.763134     2.751954     2.740775     2.729595     2.718416     2.707236     2.696057
      2.684877     2.673698     2.662519     2.651339     2.640160     2.628980     2.617801     2.606621     2.595442     2.584262
      2.573083     2.561903     2.550724     2.539545     2.528365     2.517186     2.506006     2.494827     2.483647     2.472468
      2.461288     2.450109     2.438930     2.427750     2.416571     2.405391     2.394212     2.383032     2.371853     2.360673
      2.349494     2.338315     2.327135     2.315956     2.304776     2.293597     2.282417     2.271238     2.260058     2.248879
      2.237700     2.226520     2.215341     2.204161     2.192982     2.181802     2.170623     2.159443     2.148264     2.137084
      2.125905     2.114726     2.103546     2.092367     2.081187     2.070008     2.058828     2.047649     2.036469     2.025290
      2.014111     2.002931     1.991752     1.980572     1.969393     1.958213     1.947034     1.935854     1.924675     1.913496
      1.902316     1.891137     1.879957     1.868778     1.857598     1.846419     1.835239     1.824060     1.812881     1.801701
      1.790522     1.779342     1.768163     1.756983     1.745804     1.734624     1.723445     1.712265     1.701086     1.689907
      1.678727     1.667548     1.656368     1.645189     1.634009     1.622830     1.611650     1.600471     1.589292     1.578112
      1.566933     1.555753     1.544574     1.533394     1.522215     1.511035     1.499856     1.488677     1.477497     1.466318
      1.455138     1.443959     1.432779     1.421600     1.410420     1.399241     1.388062     1.376882     1.365703     1.354523
      1.343344     1.332164     1.320985     1.309805     1.298626     1.287446     1.276267     1.265088     1.253908     1.242729
      1.231549     1.220370     1.209190     1.198011     1.186831     1.175652     1.164473     1.153293     1.142114     1.130934
      1.119755     1.108575     1.097396     1.086216     1.075037     1.063858     1.052678     1.041499     1.030319     1.019140
      1.007960     0.996781     0.985601     0.974422     0.963243     0.952063     0.940884     0.929704     0.918525     0.907345
      0.896166     0.884986     0.873807     0.862628     0.851448     0.840269     0.829089     0.817910     0.806730     0.795551
      0.784371     0.773192     0.762012     0.750833     0.739654     0.728474     0.717295     0.706115     0.694936     0.683756
      0.672577     0.661397     0.650218     0.639039     0.627859     0.616680     0.605500     0.594321     0.583141     0.571962
      0.560782     0.549603     0.538424     0.527244     0.516065     0.504885     0.493706     0.482526     0.471347     0.460167
      0.448988     0.437809     0.426629     0.415450     0.404270     0.393091     0.381911     0.370732     0.359552     0.348373
      0.337193     0.326014     0.314835     0.303655     0.292476     0.281296     0.270117     0.258937     0.247758     0.236578
      0.225399     0.214220     0.203040
 NY phased data points follow
   9.56949E-09  7.85933E-09  7.69222E-09  7.18347E-09  7.00185E-09  6.75921E-09  7.01898E-09  6.35375E-09  7.07256E-09  7.16290E-09
   8.31121E-09  8.70685E-09  8.88484E-09  8.75068E-09  9.64262E-09  9.17417E-09  9.30250E-09  8.59389E-09  8.68052E-09  8.28533E-09
   8.60296E-09  9.75350E-09  9.99957E-09  9.49965E-09  9.63494E-09  8.16301E-09  8.46350E-09  9.09660E-09  1.06831E-08  1.21614E-08
   1.36291E-08  1.27339E-08  1.25750E-08  1.20392E-08  1.12812E-08  1.05033E-08  1.11381E-08  1.04431E-08  1.06137E-08  9.87871E-09
   9.83828E-09  9.77579E-09  9.62965E-09  9.08503E-09  8.74943E-09  7.34150E-09  8.27666E-09  7.98212E-09  8.44945E-09  7.83243E-09
   7.97542E-09  6.45458E-09  6.42523E-09  6.23248E-09  5.90642E-09  5.75238E-09  5.30101E-09  4.39235E-09  6.24131E-09  8.35738E-09
   1.07139E-08  1.12259E-08  1.20097E-08  1.14309E-08  1.09472E-08  9.48922E-09  9.85750E-09  8.24620E-09  7.99037E-09  7.43362E-09
   7.15399E-09  5.71120E-09  5.19798E-09  3.64224E-09  4.54354E-09  7.18042E-09  1.14633E-08  1.39678E-08  1.51546E-08  1.47298E-08
   1.50209E-08  1.40246E-08  1.41412E-08  1.38156E-08  1.35627E-08  1.32217E-08  1.38147E-08  1.29531E-08  1.33872E-08  1.24232E-08
   1.26685E-08  1.15781E-08  1.19028E-08  1.11089E-08  1.10660E-08  1.00849E-08  1.02399E-08  9.60319E-09  1.05799E-08  1.00802E-08
   9.89112E-09  9.84798E-09  9.70685E-09  1.01507E-08  8.68948E-09  8.43723E-09  7.52418E-09  6.45788E-09  6.81024E-09  6.49575E-09
   7.71125E-09  6.99973E-09  6.79251E-09  7.20487E-09  7.70358E-09  6.97874E-09  8.39736E-09  7.86052E-09  7.65073E-09  7.41581E-09
   6.81470E-09  5.96397E-09  5.99957E-09  5.34945E-09  5.99978E-09  5.47087E-09  5.53420E-09  5.16512E-09  5.67142E-09  5.61727E-09
   5.54363E-09  5.21774E-09  5.04277E-09  4.54287E-09  4.91055E-09  4.88207E-09  5.52636E-09  7.27405E-09  7.31702E-09  7.35661E-09
   7.42877E-09  7.60194E-09  8.19563E-09  9.01664E-09  9.09303E-09  9.13790E-09  8.90990E-09  8.65007E-09  8.85712E-09  8.36922E-09
   8.71223E-09  8.18705E-09  8.45647E-09  8.40558E-09  7.94655E-09  7.91696E-09  8.28130E-09  8.31377E-09  8.13861E-09  7.57793E-09
   7.72728E-09  6.97020E-09  7.25990E-09  7.11364E-09  7.58700E-09  8.31298E-09  1.18847E-08  1.73627E-08  2.08702E-08  2.08356E-08
   2.00687E-08  2.02239E-08  1.91662E-08  1.80854E-08  1.74475E-08  1.66298E-08  1.64330E-08  1.62538E-08  1.57559E-08  1.42921E-08
   1.40649E-08  1.27330E-08  1.20287E-08  1.07280E-08  8.97815E-09  7.53100E-09  5.83315E-09  3.33170E-09  1.59869E-09 -1.09081E-09
  -4.34412E-09 -6.11647E-09 -8.69688E-09 -1.10918E-08 -1.35378E-08 -1.52891E-08 -1.67531E-08 -1.78088E-08 -1.80031E-08 -1.89081E-08
  -1.81959E-08 -1.71460E-08 -1.59406E-08 -1.37863E-08 -1.17065E-08 -1.01978E-08 -8.08289E-09 -6.26345E-09 -5.18806E-09 -3.67024E-09
  -3.30845E-09 -1.99846E-09 -2.79249E-09 -2.19050E-09 -2.08293E-09 -2.97392E-09 -2.46965E-09 -2.81468E-09 -2.84217E-09 -2.62844E-09
  -2.13262E-09 -1.84866E-09 -1.86194E-09 -1.50050E-09 -1.50683E-09 -1.77960E-09 -1.86671E-09 -1.98346E-09 -2.23957E-09 -2.28612E-09
  -2.33260E-09 -2.16618E-09 -1.77142E-09 -1.09411E-09 -1.13218E-09 -1.52184E-09 -1.07028E-09 -1.44041E-09 -1.62954E-09 -1.90125E-09
  -2.13514E-09 -2.07425E-09 -2.04589E-09 -1.81749E-09 -1.66009E-09 -1.55233E-09 -1.03908E-09 -1.01872E-09 -3.87946E-10 -2.40442E-10
  -7.38658E-10 -1.47291E-10 -3.89564E-10 -1.29126E-09 -1.00187E-09 -1.76654E-09 -1.61771E-09 -2.27497E-09 -2.00971E-09 -2.07183E-09
  -2.53540E-09 -2.13795E-09 -1.77430E-09 -1.54683E-09 -1.64853E-09 -1.66892E-09 -5.27536E-10 -4.73874E-10 -1.11136E-10 -3.57891E-10
   4.16547E-11  3.16730E-10  6.69504E-10 -4.48831E-10  5.60861E-10 -3.64732E-10  7.43267E-11 -2.69397E-10 -4.11190E-10 -3.75285E-10
  -1.33941E-09 -4.30481E-10 -8.60638E-10 -1.24981E-09 -8.99344E-10 -1.04232E-09 -1.36919E-09 -1.52221E-09 -9.66506E-10 -1.91898E-09
  -1.38490E-09 -1.21059E-09 -1.35654E-09 -1.64032E-09 -1.55768E-09 -1.63732E-09 -2.07586E-09 -1.22975E-09 -1.70694E-09 -2.11262E-09
  -1.56457E-09 -1.60844E-09 -1.74088E-09 -1.57847E-09 -1.78927E-09 -1.66234E-09 -1.43555E-09 -1.60559E-09 -1.72948E-09 -1.85931E-09
  -1.56280E-09 -1.43694E-09 -1.34469E-09 -1.40184E-09 -1.26541E-09 -1.74091E-09 -9.74318E-10 -1.17703E-09 -1.42119E-09 -1.47726E-09
  -8.25866E-10 -1.42173E-09 -7.67650E-10 -1.33863E-09 -6.35145E-10 -1.38043E-09 -7.36712E-10 -1.85885E-09 -3.22999E-10 -9.31347E-10
  -5.13209E-10 -7.92012E-10 -8.33629E-10 -8.63170E-10 -2.62057E-10 -6.62512E-10 -1.14314E-09 -4.18104E-10 -6.73502E-10 -6.03087E-10
  -5.88382E-10 -6.49147E-10 -6.30833E-10 -3.11819E-10 -7.48806E-10 -3.58991E-10 -3.40376E-10 -5.18927E-10 -3.03710E-10 -3.16135E-10
  -1.13931E-11 -3.86251E-10  9.17620E-11  6.46150E-12  2.64371E-10 -2.00308E-10  2.91862E-10  2.68753E-10  5.64130E-10  2.23038E-10
   4.25239E-10  8.20204E-11  4.12841E-10
 NY points of the fit to the data follow
   6.20121E-09  8.08646E-09  8.37234E-09  7.89670E-09  7.97486E-09  8.42910E-09  8.30138E-09  7.28403E-09  6.24635E-09  6.11289E-09
   6.63111E-09  7.30770E-09  7.95599E-09  8.61527E-09  9.24064E-09  9.52767E-09  9.46675E-09  9.47619E-09  9.67161E-09  9.36480E-09
   8.78971E-09  8.36182E-09  8.11189E-09  7.90697E-09  8.14516E-09  8.94473E-09  1.00801E-08  1.11155E-08  1.16089E-08  1.14886E-08
   1.15973E-08  1.17856E-08  1.19124E-08  1.19138E-08  1.16551E-08  1.10646E-08  1.04914E-08  9.98185E-09  9.59350E-09  9.30151E-09
   9.08014E-09  8.89727E-09  8.67974E-09  8.43138E-09  8.23017E-09  8.03161E-09  7.83711E-09  7.67288E-09  7.53525E-09  7.43224E-09
   7.32846E-09  7.21903E-09  7.07439E-09  6.89901E-09  6.86459E-09  7.11512E-09  7.36303E-09  7.71383E-09  8.26648E-09  8.81202E-09
   9.22249E-09  9.61062E-09  9.96419E-09  1.02342E-08  1.02986E-08  1.01401E-08  9.93874E-09  9.69447E-09  9.21619E-09  8.82846E-09
   8.59314E-09  8.55229E-09  8.69982E-09  8.85142E-09  9.03873E-09  9.38942E-09  1.04176E-08  1.18040E-08  1.30968E-08  1.40473E-08
   1.46393E-08  1.49049E-08  1.49482E-08  1.51016E-08  1.52212E-08  1.48764E-08  1.40476E-08  1.29324E-08  1.22138E-08  1.17185E-08
   1.13332E-08  1.10179E-08  1.07517E-08  1.05202E-08  1.03092E-08  1.01169E-08  9.94688E-09  9.79156E-09  9.63924E-09  9.48666E-09
   9.34951E-09  9.22891E-09  9.11168E-09  8.99373E-09  8.88184E-09  8.77552E-09  8.67357E-09  8.57511E-09  8.47916E-09  8.38532E-09
   8.29329E-09  8.20266E-09  8.11321E-09  8.02460E-09  7.93669E-09  7.84922E-09  7.76206E-09  7.67504E-09  7.58804E-09  7.50099E-09
   7.41364E-09  7.32603E-09  7.23805E-09  7.14967E-09  7.06086E-09  6.97159E-09  6.88185E-09  6.79163E-09  6.70094E-09  6.60978E-09
   6.51816E-09  6.42611E-09  6.33364E-09  6.24080E-09  6.14760E-09  6.05412E-09  5.96037E-09  5.86644E-09  5.77240E-09  5.67829E-09
   5.58424E-09  5.49032E-09  5.39664E-09  5.30337E-09  5.21057E-09  5.11845E-09  5.02721E-09  4.93708E-09  4.84828E-09  4.76116E-09
   4.67610E-09  4.59350E-09  4.51396E-09  4.43822E-09  4.36711E-09  4.30182E-09  4.24393E-09  4.19553E-09  4.15957E-09  4.14043E-09
   4.14461E-09  4.18278E-09  4.27320E-09  4.45091E-09  4.79324E-09  5.51556E-09  7.50178E-09  1.32709E-08  1.90949E-08  2.24556E-08
   2.32607E-08  2.25693E-08  2.14542E-08  2.05069E-08  1.95973E-08  1.78447E-08  1.41301E-08  8.33613E-09  2.79040E-09  1.26402E-09
   7.98945E-10  5.72478E-10  4.25976E-10  3.12847E-10  2.15561E-10  1.26497E-10  4.19913E-11 -3.98306E-11 -1.19949E-10 -1.98889E-10
  -2.76940E-10 -3.54220E-10 -4.30802E-10 -5.06673E-10 -5.81827E-10 -6.56236E-10 -7.29839E-10 -8.02597E-10 -8.74467E-10 -9.45389E-10
  -1.01532E-09 -1.08423E-09 -1.15206E-09 -1.21876E-09 -1.28431E-09 -1.34867E-09 -1.41180E-09 -1.47366E-09 -1.53423E-09 -1.59349E-09
  -1.65140E-09 -1.70794E-09 -1.76308E-09 -1.81681E-09 -1.86911E-09 -1.91996E-09 -1.96932E-09 -2.01721E-09 -2.06360E-09 -2.10848E-09
  -2.15182E-09 -2.19363E-09 -2.23389E-09 -2.27261E-09 -2.30978E-09 -2.34537E-09 -2.37939E-09 -2.41185E-09 -2.44272E-09 -2.47202E-09
  -2.49974E-09 -2.52588E-09 -2.55045E-09 -2.57345E-09 -2.59487E-09 -2.61473E-09 -2.63303E-09 -2.64979E-09 -2.66500E-09 -2.67866E-09
  -2.69081E-09 -2.70144E-09 -2.71056E-09 -2.71820E-09 -2.72439E-09 -2.72917E-09 -2.73256E-09 -2.73460E-09 -2.73531E-09 -2.73472E-09
  -2.73288E-09 -2.72981E-09 -2.72554E-09 -2.72009E-09 -2.71351E-09 -2.70583E-09 -2.69706E-09 -2.68725E-09 -2.67642E-09 -2.66459E-09
  -2.65181E-09 -2.63810E-09 -2.62349E-09 -2.60800E-09 -2.59166E-09 -2.57450E-09 -2.55655E-09 -2.53784E-09 -2.51838E-09 -2.49820E-09
  -2.47734E-09 -2.45581E-09 -2.43364E-09 -2.41085E-09 -2.38747E-09 -2.36351E-09 -2.33901E-09 -2.31397E-09 -2.28843E-09 -2.26240E-09
  -2.23590E-09 -2.20895E-09 -2.18157E-09 -2.15378E-09 -2.12559E-09 -2.09702E-09 -2.06809E-09 -2.03881E-09 -2.00920E-09 -1.97926E-09
  -1.94902E-09 -1.91849E-09 -1.88767E-09 -1.85657E-09 -1.82522E-09 -1.79361E-09 -1.76176E-09 -1.72967E-09 -1.69736E-09 -1.66482E-09
  -1.63207E-09 -1.59910E-09 -1.56593E-09 -1.53255E-09 -1.49897E-09 -1.46518E-09 -1.43120E-09 -1.39701E-09 -1.36263E-09 -1.32805E-09
  -1.29327E-09 -1.25830E-09 -1.22314E-09 -1.18779E-09 -1.15225E-09 -1.11653E-09 -1.08062E-09 -1.04453E-09 -1.00827E-09 -9.71829E-10
  -9.35219E-10 -8.98442E-10 -8.61500E-10 -8.24397E-10 -7.87136E-10 -7.49722E-10 -7.12159E-10 -6.74450E-10 -6.36599E-10 -5.98612E-10
  -5.60491E-10 -5.22240E-10 -4.83869E-10 -4.45378E-10 -4.06771E-10 -3.68058E-10 -3.29241E-10 -2.90326E-10 -2.51318E-10 -2.12224E-10
  -1.73048E-10 -1.33798E-10 -9.44773E-11 -5.50943E-11 -1.56531E-11  2.38384E-11  6.33728E-11  1.02946E-10  1.42551E-10  1.82178E-10
   2.21824E-10  2.61480E-10  3.01139E-10  3.40795E-10  3.80436E-10  4.20061E-10  4.59660E-10  4.99224E-10  5.38747E-10  5.78224E-10
   6.17639E-10  6.56992E-10  6.96268E-10
 NY background values follow
    -9.484E-10   -7.990E-10   -6.508E-10   -5.039E-10   -3.582E-10   -2.139E-10   -7.082E-11    7.088E-11    2.112E-10    3.502E-10
     4.879E-10    6.241E-10    7.589E-10    8.923E-10    1.024E-09    1.155E-09    1.284E-09    1.411E-09    1.537E-09    1.662E-09
     1.785E-09    1.907E-09    2.027E-09    2.145E-09    2.262E-09    2.377E-09    2.491E-09    2.603E-09    2.714E-09    2.823E-09
     2.931E-09    3.036E-09    3.141E-09    3.243E-09    3.344E-09    3.444E-09    3.542E-09    3.638E-09    3.732E-09    3.825E-09
     3.916E-09    4.006E-09    4.094E-09    4.180E-09    4.265E-09    4.348E-09    4.430E-09    4.510E-09    4.588E-09    4.664E-09
     4.739E-09    4.813E-09    4.884E-09    4.954E-09    5.023E-09    5.090E-09    5.155E-09    5.219E-09    5.281E-09    5.341E-09
     5.400E-09    5.457E-09    5.513E-09    5.567E-09    5.620E-09    5.671E-09    5.720E-09    5.768E-09    5.815E-09    5.859E-09
     5.902E-09    5.944E-09    5.984E-09    6.022E-09    6.059E-09    6.094E-09    6.127E-09    6.159E-09    6.189E-09    6.218E-09
     6.244E-09    6.270E-09    6.293E-09    6.315E-09    6.335E-09    6.354E-09    6.370E-09    6.385E-09    6.399E-09    6.411E-09
     6.421E-09    6.429E-09    6.435E-09    6.440E-09    6.443E-09    6.445E-09    6.444E-09    6.442E-09    6.438E-09    6.432E-09
     6.425E-09    6.415E-09    6.404E-09    6.391E-09    6.377E-09    6.360E-09    6.342E-09    6.322E-09    6.300E-09    6.276E-09
     6.250E-09    6.223E-09    6.193E-09    6.162E-09    6.129E-09    6.094E-09    6.057E-09    6.019E-09    5.978E-09    5.936E-09
     5.892E-09    5.846E-09    5.798E-09    5.748E-09    5.696E-09    5.643E-09    5.588E-09    5.531E-09    5.472E-09    5.412E-09
     5.350E-09    5.287E-09    5.222E-09    5.156E-09    5.088E-09    5.019E-09    4.949E-09    4.877E-09    4.804E-09    4.729E-09
     4.654E-09    4.577E-09    4.499E-09    4.421E-09    4.341E-09    4.260E-09    4.178E-09    4.096E-09    4.012E-09    3.928E-09
     3.843E-09    3.757E-09    3.671E-09    3.584E-09    3.497E-09    3.409E-09    3.321E-09    3.232E-09    3.143E-09    3.053E-09
     2.963E-09    2.874E-09    2.784E-09    2.693E-09    2.603E-09    2.513E-09    2.423E-09    2.332E-09    2.242E-09    2.153E-09
     2.063E-09    1.973E-09    1.884E-09    1.796E-09    1.707E-09    1.620E-09    1.532E-09    1.445E-09    1.359E-09    1.274E-09
     1.189E-09    1.105E-09    1.021E-09    9.385E-10    8.566E-10    7.757E-10    6.956E-10    6.164E-10    5.381E-10    4.608E-10
     3.845E-10    3.093E-10    2.350E-10    1.619E-10    8.982E-11    1.888E-11   -5.090E-11   -1.195E-10   -1.869E-10   -2.531E-10
    -3.181E-10   -3.818E-10   -4.443E-10   -5.054E-10   -5.652E-10   -6.237E-10   -6.809E-10   -7.366E-10   -7.910E-10   -8.440E-10
    -8.956E-10   -9.458E-10   -9.945E-10   -1.042E-09   -1.088E-09   -1.132E-09   -1.175E-09   -1.216E-09   -1.256E-09   -1.294E-09
    -1.331E-09   -1.366E-09   -1.400E-09   -1.432E-09   -1.463E-09   -1.492E-09   -1.520E-09   -1.546E-09   -1.571E-09   -1.594E-09
    -1.615E-09   -1.635E-09   -1.654E-09   -1.671E-09   -1.686E-09   -1.700E-09   -1.713E-09   -1.723E-09   -1.733E-09   -1.741E-09
    -1.747E-09   -1.752E-09   -1.756E-09   -1.758E-09   -1.759E-09   -1.758E-09   -1.756E-09   -1.753E-09   -1.749E-09   -1.743E-09
    -1.736E-09   -1.728E-09   -1.719E-09   -1.709E-09   -1.697E-09   -1.685E-09   -1.672E-09   -1.657E-09   -1.642E-09   -1.626E-09
    -1.609E-09   -1.591E-09   -1.572E-09   -1.552E-09   -1.532E-09   -1.511E-09   -1.489E-09   -1.466E-09   -1.443E-09   -1.419E-09
    -1.395E-09   -1.370E-09   -1.344E-09   -1.318E-09   -1.291E-09   -1.264E-09   -1.236E-09   -1.208E-09   -1.179E-09   -1.150E-09
    -1.121E-09   -1.091E-09   -1.061E-09   -1.030E-09   -9.991E-10   -9.679E-10   -9.364E-10   -9.047E-10   -8.726E-10   -8.404E-10
    -8.078E-10   -7.751E-10   -7.421E-10   -7.090E-10   -6.756E-10   -6.421E-10   -6.083E-10   -5.744E-10   -5.404E-10   -5.062E-10
    -4.718E-10   -4.373E-10   -4.026E-10   -3.678E-10   -3.329E-10   -2.978E-10   -2.626E-10   -2.273E-10   -1.918E-10   -1.562E-10
    -1.204E-10   -8.457E-11   -4.857E-11   -1.244E-11    2.382E-11    6.019E-11    9.669E-11    1.333E-10    1.700E-10    2.069E-10
     2.438E-10    2.809E-10    3.180E-10    3.553E-10    3.927E-10    4.301E-10    4.677E-10    5.053E-10    5.430E-10    5.808E-10
     6.187E-10    6.566E-10    6.946E-10    7.326E-10    7.707E-10    8.089E-10    8.471E-10    8.854E-10    9.236E-10    9.620E-10
     1.000E-09    1.039E-09    1.077E-09    1.115E-09    1.154E-09    1.192E-09    1.231E-09    1.269E-09    1.307E-09    1.345E-09
     1.384E-09    1.422E-09    1.460E-09    1.498E-09    1.536E-09    1.574E-09    1.612E-09    1.650E-09    1.688E-09    1.725E-09
     1.763E-09    1.800E-09    1.837E-09
 Glc      Conc. = 3.72E-11
  -1.01264E-09 -8.50150E-10 -6.90467E-10 -5.32164E-10 -3.76320E-10 -2.21676E-10 -7.07418E-11  7.64407E-11  2.17961E-10  3.51139E-10
   4.81404E-10  6.10247E-10  7.37346E-10  8.65411E-10  1.00071E-09  1.14417E-09  1.29186E-09  1.43998E-09  1.58338E-09  1.72087E-09
   1.85675E-09  1.99156E-09  2.12338E-09  2.25152E-09  2.37139E-09  2.48021E-09  2.58497E-09  2.69075E-09  2.79802E-09  2.90565E-09
   3.01118E-09  3.11429E-09  3.21653E-09  3.31673E-09  3.41373E-09  3.50946E-09  3.60432E-09  3.69699E-09  3.78767E-09  3.87726E-09
   3.96568E-09  4.05281E-09  4.13858E-09  4.22295E-09  4.30585E-09  4.38729E-09  4.46723E-09  4.54563E-09  4.62253E-09  4.69788E-09
   4.77169E-09  4.84393E-09  4.91463E-09  4.98377E-09  5.05133E-09  5.11734E-09  5.18178E-09  5.24469E-09  5.30602E-09  5.36583E-09
   5.42407E-09  5.48077E-09  5.53593E-09  5.58954E-09  5.64159E-09  5.69209E-09  5.74103E-09  5.78840E-09  5.83420E-09  5.87842E-09
   5.92106E-09  5.96211E-09  6.00158E-09  6.03944E-09  6.07569E-09  6.11035E-09  6.14337E-09  6.17480E-09  6.20456E-09  6.23272E-09
   6.25923E-09  6.28409E-09  6.30728E-09  6.32884E-09  6.34873E-09  6.36692E-09  6.38345E-09  6.39829E-09  6.41143E-09  6.42287E-09
   6.43259E-09  6.44062E-09  6.44693E-09  6.45149E-09  6.45432E-09  6.45541E-09  6.45475E-09  6.45233E-09  6.44814E-09  6.44221E-09
   6.43448E-09  6.42497E-09  6.41367E-09  6.40057E-09  6.38568E-09  6.36898E-09  6.35045E-09  6.33011E-09  6.30797E-09  6.28397E-09
   6.25817E-09  6.23049E-09  6.20099E-09  6.16961E-09  6.13641E-09  6.10134E-09  6.06443E-09  6.02565E-09  5.98500E-09  5.94254E-09
   5.89811E-09  5.85186E-09  5.80373E-09  5.75378E-09  5.70203E-09  5.64851E-09  5.59325E-09  5.53629E-09  5.47768E-09  5.41743E-09
   5.35559E-09  5.29220E-09  5.22728E-09  5.16090E-09  5.09307E-09  5.02385E-09  4.95326E-09  4.88136E-09  4.80819E-09  4.73379E-09
   4.65820E-09  4.58147E-09  4.50363E-09  4.42477E-09  4.34487E-09  4.26400E-09  4.18222E-09  4.09958E-09  4.01609E-09  3.93185E-09
   3.84689E-09  3.76121E-09  3.67492E-09  3.58807E-09  3.50067E-09  3.41278E-09  3.32448E-09  3.23582E-09  3.14682E-09  3.05761E-09
   2.96818E-09  2.87869E-09  2.78921E-09  2.69995E-09  2.61122E-09  2.52393E-09  2.44195E-09  2.37358E-09  2.30396E-09  2.22523E-09
   2.13793E-09  2.04610E-09  1.95348E-09  1.86193E-09  1.77075E-09  1.67662E-09  1.57567E-09  1.46826E-09  1.36378E-09  1.27428E-09
   1.18821E-09  1.10351E-09  1.01982E-09  9.37033E-10  8.55110E-10  7.74067E-10  6.93921E-10  6.14688E-10  5.36398E-10  4.59080E-10
   3.82747E-10  3.07443E-10  2.33178E-10  1.59996E-10  8.79091E-11  1.69337E-11 -5.28865E-11 -1.21536E-10 -1.88998E-10 -2.55239E-10
  -3.20242E-10 -3.83998E-10 -4.46476E-10 -5.07651E-10 -5.67517E-10 -6.26049E-10 -6.83236E-10 -7.39039E-10 -7.93470E-10 -8.46507E-10
  -8.98131E-10 -9.48322E-10 -9.97075E-10 -1.04437E-09 -1.09022E-09 -1.13459E-09 -1.17747E-09 -1.21886E-09 -1.25876E-09 -1.29715E-09
  -1.33401E-09 -1.36936E-09 -1.40318E-09 -1.43549E-09 -1.46626E-09 -1.49549E-09 -1.52319E-09 -1.54936E-09 -1.57398E-09 -1.59707E-09
  -1.61863E-09 -1.63866E-09 -1.65715E-09 -1.67413E-09 -1.68959E-09 -1.70354E-09 -1.71598E-09 -1.72693E-09 -1.73640E-09 -1.74438E-09
  -1.75090E-09 -1.75596E-09 -1.75957E-09 -1.76177E-09 -1.76258E-09 -1.76204E-09 -1.76018E-09 -1.75702E-09 -1.75261E-09 -1.74697E-09
  -1.74014E-09 -1.73214E-09 -1.72301E-09 -1.71277E-09 -1.70147E-09 -1.68913E-09 -1.67577E-09 -1.66144E-09 -1.64615E-09 -1.62995E-09
  -1.61285E-09 -1.59489E-09 -1.57610E-09 -1.55650E-09 -1.53613E-09 -1.51500E-09 -1.49315E-09 -1.47060E-09 -1.44738E-09 -1.42351E-09
  -1.39902E-09 -1.37393E-09 -1.34828E-09 -1.32207E-09 -1.29534E-09 -1.26810E-09 -1.24038E-09 -1.21221E-09 -1.18359E-09 -1.15455E-09
  -1.12512E-09 -1.09530E-09 -1.06512E-09 -1.03459E-09 -1.00374E-09 -9.72574E-10 -9.41112E-10 -9.09369E-10 -8.77360E-10 -8.45097E-10
  -8.12594E-10 -7.79862E-10 -7.46914E-10 -7.13760E-10 -6.80411E-10 -6.46875E-10 -6.13161E-10 -5.79276E-10 -5.45229E-10 -5.11024E-10
  -4.76669E-10 -4.42168E-10 -4.07524E-10 -3.72740E-10 -3.37818E-10 -3.02757E-10 -2.67558E-10 -2.32224E-10 -1.96754E-10 -1.61151E-10
  -1.25415E-10 -8.95491E-11 -5.35541E-11 -1.74320E-11  1.88150E-11  5.51849E-11  9.16753E-11  1.28284E-10  1.65008E-10  2.01845E-10
   2.38791E-10  2.75845E-10  3.13003E-10  3.50261E-10  3.87616E-10  4.25065E-10  4.62604E-10  5.00228E-10  5.37936E-10  5.75721E-10
   6.13580E-10  6.51510E-10  6.89503E-10  7.27556E-10  7.65668E-10  8.03828E-10  8.42034E-10  8.80282E-10  9.18564E-10  9.56876E-10
   9.95215E-10  1.03357E-09  1.07194E-09  1.11032E-09  1.14869E-09  1.18707E-09  1.22543E-09  1.26378E-09  1.30210E-09  1.34039E-09
   1.37864E-09  1.41685E-09  1.45501E-09  1.49311E-09  1.53115E-09  1.56911E-09  1.60700E-09  1.64480E-09  1.68251E-09  1.72011E-09
   1.75761E-09  1.79499E-09  1.83224E-09
 Gln      Conc. = 1.59E-09
  -2.59729E-09 -2.28822E-09 -1.88103E-09 -1.38658E-09 -8.53524E-10 -3.28067E-10  1.53325E-10  5.58253E-10  8.83256E-10  1.21620E-09
   1.39022E-09  1.46310E-09  1.55264E-09  1.52343E-09  1.51454E-09  1.53414E-09  1.57323E-09  1.62544E-09  1.68676E-09  1.75452E-09
   1.82686E-09  1.90237E-09  1.98002E-09  2.05905E-09  2.13905E-09  2.21962E-09  2.30010E-09  2.38031E-09  2.46002E-09  2.53880E-09
   2.61643E-09  2.69267E-09  2.76734E-09  2.84025E-09  2.91122E-09  2.98005E-09  3.04656E-09  3.11054E-09  3.17170E-09  3.22985E-09
   3.28472E-09  3.33605E-09  3.38363E-09  3.42714E-09  3.46593E-09  3.49959E-09  3.52739E-09  3.54778E-09  3.56060E-09  3.56559E-09
   3.55986E-09  3.54259E-09  3.51618E-09  3.49700E-09  3.61877E-09  3.96842E-09  4.29086E-09  4.69741E-09  5.32471E-09  6.00363E-09
   6.59367E-09  7.14176E-09  7.62018E-09  7.96094E-09  8.10144E-09  8.04115E-09  7.92501E-09  7.76236E-09  7.34374E-09  6.94318E-09
   6.66384E-09  6.51878E-09  6.51760E-09  6.57993E-09  6.81661E-09  7.23723E-09  7.66679E-09  8.10595E-09  8.54167E-09  8.93718E-09
   9.26110E-09  9.44527E-09  9.45344E-09  9.43756E-09  9.34663E-09  9.06102E-09  8.81823E-09  8.61692E-09  8.36157E-09  8.15342E-09
   7.99316E-09  7.86514E-09  7.75996E-09  7.67035E-09  7.59129E-09  7.52078E-09  7.45698E-09  7.39815E-09  7.34341E-09  7.29190E-09
   7.24263E-09  7.19493E-09  7.14843E-09  7.10279E-09  7.05780E-09  7.01311E-09  6.96843E-09  6.92360E-09  6.87846E-09  6.83281E-09
   6.78657E-09  6.73959E-09  6.69181E-09  6.64309E-09  6.59341E-09  6.54266E-09  6.49080E-09  6.43777E-09  6.38351E-09  6.32803E-09
   6.27115E-09  6.21296E-09  6.15339E-09  6.09246E-09  6.03016E-09  5.96652E-09  5.90153E-09  5.83522E-09  5.76760E-09  5.69869E-09
   5.62852E-09  5.55712E-09  5.48449E-09  5.41070E-09  5.33574E-09  5.25967E-09  5.18251E-09  5.10431E-09  5.02511E-09  4.94494E-09
   4.86386E-09  4.78189E-09  4.69911E-09  4.61557E-09  4.53129E-09  4.44634E-09  4.36080E-09  4.27475E-09  4.18821E-09  4.10132E-09
   4.01416E-09  3.92678E-09  3.83935E-09  3.75203E-09  3.66492E-09  3.57827E-09  3.49236E-09  3.40751E-09  3.32421E-09  3.24317E-09
   3.16539E-09  3.09257E-09  3.02759E-09  2.97610E-09  2.95086E-09  2.98916E-09  3.25538E-09  4.09256E-09  4.86949E-09  5.25129E-09
   5.25999E-09  5.06561E-09  4.82456E-09  4.61447E-09  4.40142E-09  4.04183E-09  3.37207E-09  2.40644E-09  1.54631E-09  1.29406E-09
   1.15863E-09  1.05304E-09  9.58713E-10  8.69766E-10  7.83877E-10  7.00022E-10  6.17698E-10  5.36640E-10  4.56724E-10  3.77889E-10
   3.00094E-10  2.23353E-10  1.47656E-10  7.30363E-11 -4.99524E-13 -7.29374E-11 -1.44234E-10 -2.14374E-10 -2.83341E-10 -3.51098E-10
  -4.17626E-10 -4.82915E-10 -5.46933E-10 -6.09652E-10 -6.71065E-10 -7.31147E-10 -7.89883E-10 -8.47234E-10 -9.03210E-10 -9.57788E-10
  -1.01095E-09 -1.06267E-09 -1.11295E-09 -1.16176E-09 -1.20912E-09 -1.25499E-09 -1.29936E-09 -1.34223E-09 -1.38360E-09 -1.42345E-09
  -1.46176E-09 -1.49854E-09 -1.53379E-09 -1.56750E-09 -1.59968E-09 -1.63029E-09 -1.65937E-09 -1.68689E-09 -1.71286E-09 -1.73728E-09
