 LCModel (Version 6.3-1R) Copyright: S.W. Provencher.          Ref.: Magn. Reson. Med. 30:672-679 (1993).                
 onepulse 16x26_ftSpec_smooth_lcm
 26 lines in following concentration table = NCONC+1
    Conc.  %SD   /Cr    Metabolite                                         
    0.000 999%   0.000 Ala                                                 
    0.000 999%   0.000 Asp                                                 
    0.000 999%   0.000 Cr                                                  
    0.000 999%   0.000 GABA                                                
    0.000 999%   0.000 Glc                                                 
    0.000 999%   0.000 Gln                                                 
    0.000 999%   0.000 Glu                                                 
    0.000 999%   0.000 Glyc                                                
    0.000 999%   0.000 GPC                                                 
 2.27E-12 999%   0.000 GSH                                                 
 1.04E-10  52%   0.000 Ins                                                 
    0.000 999%   0.000 Lac                                                 
 1.00E-11 390%   0.000 NAAG                                                
    0.000 999%   0.000 NAA                                                 
 5.00E-13 999%   0.000 PCh                                                 
    0.000 999%   0.000 PCr                                                 
    0.000 999%   0.000 PE                                                  
    0.000 999%   0.000 Scyllo                                              
    0.000 999%   0.000 Ser                                                 
    0.000 999%   0.000 Tau                                                 
 5.00E-13 999%   0.000 GPC+PCh                                             
 1.00E-11 390%   0.000 NAA+NAAG                                            
 1.04E-10  52%   0.000 Ins+Glyc                                            
    0.000 999%   0.000 Cr+PCr                                              
    0.000 999%   0.000 Glu+Gln                                             
   6 lines in following misc. output table
  FWHM = 0.056 ppm    S/N =   0                                            
  Data shift = 0.157 ppm                                                   
  Ph:-179 deg       0.9 deg/ppm                                            
  alphaB,S = 1.1E+00,   4.0E-01                                            
    8 spline knots.   Ns = 5(1)                                            
   1 inflections.     2 extrema                                            
  363 points on ppm-axis = NY
      4.250000     4.238821     4.227641     4.216462     4.205282     4.194103     4.182923     4.171744     4.160564     4.149385
      4.138206     4.127026     4.115847     4.104667     4.093488     4.082308     4.071129     4.059949     4.048770     4.037591
      4.026411     4.015232     4.004052     3.992873     3.981693     3.970514     3.959334     3.948155     3.936975     3.925796
      3.914617     3.903437     3.892258     3.881078     3.869899     3.858719     3.847540     3.836360     3.825181     3.814002
      3.802822     3.791643     3.780463     3.769284     3.758104     3.746925     3.735745     3.724566     3.713387     3.702207
      3.691028     3.679848     3.668669     3.657489     3.646310     3.635130     3.623951     3.612772     3.601592     3.590413
      3.579233     3.568054     3.556874     3.545695     3.534515     3.523336     3.512156     3.500977     3.489798     3.478618
      3.467439     3.456259     3.445080     3.433900     3.422721     3.411541     3.400362     3.389183     3.378003     3.366824
      3.355644     3.344465     3.333285     3.322106     3.310926     3.299747     3.288568     3.277388     3.266209     3.255029
      3.243850     3.232670     3.221491     3.210311     3.199132     3.187953     3.176773     3.165594     3.154414     3.143235
      3.132055     3.120876     3.109696     3.098517     3.087337     3.076158     3.064979     3.053799     3.042620     3.031440
      3.020261     3.009081     2.997902     2.986722     2.975543     2.964364     2.953184     2.942005     2.930825     2.919646
      2.908466     2.897287     2.886107     2.874928     2.863749     2.852569     2.841390     2.830210     2.819031     2.807851
      2.796672     2.785492     2.774313     2.763134     2.751954     2.740775     2.729595     2.718416     2.707236     2.696057
      2.684877     2.673698     2.662519     2.651339     2.640160     2.628980     2.617801     2.606621     2.595442     2.584262
      2.573083     2.561903     2.550724     2.539545     2.528365     2.517186     2.506006     2.494827     2.483647     2.472468
      2.461288     2.450109     2.438930     2.427750     2.416571     2.405391     2.394212     2.383032     2.371853     2.360673
      2.349494     2.338315     2.327135     2.315956     2.304776     2.293597     2.282417     2.271238     2.260058     2.248879
      2.237700     2.226520     2.215341     2.204161     2.192982     2.181802     2.170623     2.159443     2.148264     2.137084
      2.125905     2.114726     2.103546     2.092367     2.081187     2.070008     2.058828     2.047649     2.036469     2.025290
      2.014111     2.002931     1.991752     1.980572     1.969393     1.958213     1.947034     1.935854     1.924675     1.913496
      1.902316     1.891137     1.879957     1.868778     1.857598     1.846419     1.835239     1.824060     1.812881     1.801701
      1.790522     1.779342     1.768163     1.756983     1.745804     1.734624     1.723445     1.712265     1.701086     1.689907
      1.678727     1.667548     1.656368     1.645189     1.634009     1.622830     1.611650     1.600471     1.589292     1.578112
      1.566933     1.555753     1.544574     1.533394     1.522215     1.511035     1.499856     1.488677     1.477497     1.466318
      1.455138     1.443959     1.432779     1.421600     1.410420     1.399241     1.388062     1.376882     1.365703     1.354523
      1.343344     1.332164     1.320985     1.309805     1.298626     1.287446     1.276267     1.265088     1.253908     1.242729
      1.231549     1.220370     1.209190     1.198011     1.186831     1.175652     1.164473     1.153293     1.142114     1.130934
      1.119755     1.108575     1.097396     1.086216     1.075037     1.063858     1.052678     1.041499     1.030319     1.019140
      1.007960     0.996781     0.985601     0.974422     0.963243     0.952063     0.940884     0.929704     0.918525     0.907345
      0.896166     0.884986     0.873807     0.862628     0.851448     0.840269     0.829089     0.817910     0.806730     0.795551
      0.784371     0.773192     0.762012     0.750833     0.739654     0.728474     0.717295     0.706115     0.694936     0.683756
      0.672577     0.661397     0.650218     0.639039     0.627859     0.616680     0.605500     0.594321     0.583141     0.571962
      0.560782     0.549603     0.538424     0.527244     0.516065     0.504885     0.493706     0.482526     0.471347     0.460167
      0.448988     0.437809     0.426629     0.415450     0.404270     0.393091     0.381911     0.370732     0.359552     0.348373
      0.337193     0.326014     0.314835     0.303655     0.292476     0.281296     0.270117     0.258937     0.247758     0.236578
      0.225399     0.214220     0.203040
 NY phased data points follow
  -8.47274E-09 -1.07247E-08 -9.16359E-09 -1.18075E-08 -1.03935E-08 -1.23209E-08 -1.05576E-08 -1.16239E-08 -9.47926E-09 -1.09072E-08
  -9.85027E-09 -1.10240E-08 -1.00826E-08 -1.23708E-08 -1.21528E-08 -1.52286E-08 -1.66401E-08 -1.99307E-08 -1.84928E-08 -1.84848E-08
  -1.52061E-08 -1.49407E-08 -1.25904E-08 -1.25529E-08 -1.16205E-08 -1.23547E-08 -1.15478E-08 -1.28148E-08 -1.17636E-08 -1.29597E-08
  -1.25597E-08 -1.38734E-08 -1.31239E-08 -1.32099E-08 -1.19145E-08 -1.27272E-08 -1.17293E-08 -1.20138E-08 -1.06672E-08 -1.10662E-08
  -1.04959E-08 -1.15697E-08 -1.17412E-08 -1.24350E-08 -1.02863E-08 -1.09626E-08 -9.59309E-09 -1.05497E-08 -1.12728E-08 -1.28703E-08
  -1.27271E-08 -1.28654E-08 -1.06766E-08 -9.66029E-09 -8.20541E-09 -8.20930E-09 -6.88173E-09 -7.70609E-09 -7.37498E-09 -7.41451E-09
  -6.68831E-09 -6.56659E-09 -6.07203E-09 -6.48997E-09 -5.29573E-09 -5.97960E-09 -4.70145E-09 -5.83176E-09 -6.01018E-09 -6.42246E-09
  -5.66763E-09 -5.69067E-09 -4.90565E-09 -5.00022E-09 -5.43395E-09 -6.07154E-09 -5.84300E-09 -6.91291E-09 -6.21048E-09 -8.61638E-09
  -1.05172E-08 -1.18313E-08 -1.07895E-08 -9.91645E-09 -8.44335E-09 -7.29807E-09 -5.92093E-09 -5.85888E-09 -5.60649E-09 -4.98949E-09
  -5.04543E-09 -5.35394E-09 -5.05546E-09 -5.43918E-09 -5.53161E-09 -7.45268E-09 -1.13067E-08 -1.46790E-08 -1.54394E-08 -1.40599E-08
  -1.13485E-08 -1.01941E-08 -8.97499E-09 -8.09089E-09 -7.55998E-09 -7.00223E-09 -6.40009E-09 -6.60254E-09 -5.52628E-09 -5.08380E-09
  -4.44076E-09 -4.19955E-09 -3.67309E-09 -2.94994E-09 -3.11641E-09 -2.48544E-09 -2.45318E-09 -2.11096E-09 -2.14897E-09 -2.37506E-09
  -2.75765E-09 -1.86929E-09 -2.17004E-09 -1.56911E-09 -1.70097E-09 -9.11351E-10  1.90217E-10 -2.80659E-10  7.67133E-10 -1.95073E-10
  -6.73178E-10 -1.44623E-09 -1.51737E-09 -9.68580E-10 -1.45059E-09 -2.12539E-09 -1.72806E-09 -2.01691E-09 -2.31341E-09 -1.14403E-09
  -1.13172E-09 -7.36436E-10  1.38849E-11 -1.22768E-10 -5.09964E-10 -7.01286E-10 -1.12667E-09 -9.05903E-10 -1.16264E-09 -1.42667E-09
  -2.12507E-09 -1.64641E-09 -1.90148E-09 -1.79579E-09 -1.84204E-09 -2.26725E-09 -3.24599E-09 -3.85379E-09 -5.14472E-09 -5.40068E-09
  -4.69107E-09 -4.68179E-09 -4.73754E-09 -5.08764E-09 -5.56208E-09 -5.43996E-09 -4.61073E-09 -4.40133E-09 -3.72792E-09 -3.70740E-09
  -3.23801E-09 -3.17987E-09 -3.35119E-09 -2.74667E-09 -3.08723E-09 -2.77304E-09 -2.47683E-09 -2.88580E-09 -3.03373E-09 -3.13204E-09
  -2.41598E-09 -2.60514E-09 -2.68277E-09 -2.67360E-09 -3.49553E-09 -4.08369E-09 -5.32629E-09 -7.88804E-09 -1.24313E-08 -1.38872E-08
  -1.17492E-08 -7.55379E-09 -5.41233E-09 -3.63662E-09 -1.07961E-09  3.80481E-10  1.55846E-09  2.85350E-09  3.87704E-09  5.09979E-09
   6.76761E-09  8.63500E-09  9.68731E-09  1.19494E-08  1.33539E-08  1.52610E-08  1.71800E-08  1.88551E-08  2.08146E-08  2.31323E-08
   2.42309E-08  2.64126E-08  2.73116E-08  2.75475E-08  2.79395E-08  2.79482E-08  2.72901E-08  2.59399E-08  2.43577E-08  2.19529E-08
   1.98411E-08  1.73097E-08  1.37585E-08  1.09496E-08  7.91072E-09  5.02706E-09  2.99103E-09  1.27313E-09 -4.08961E-10 -5.22690E-10
  -1.02465E-09 -6.73008E-10 -3.54216E-10  3.64939E-11  1.40415E-09  8.38319E-10  1.99039E-09  1.93072E-09  1.56533E-09  1.83122E-09
   1.34433E-09  9.74148E-10  9.76907E-10  1.06818E-09  1.39288E-09  1.02393E-09  1.60840E-09  1.74038E-09  1.65055E-09  1.86970E-09
   1.74838E-09  1.53683E-09  1.44221E-09  1.07165E-09  6.63810E-10  4.78374E-10  1.21649E-09  1.16746E-09  1.21370E-09  1.50865E-09
   1.46397E-09  1.61746E-09  1.69857E-09  1.01885E-09  1.01275E-09  5.43385E-10  5.59491E-10  4.19109E-10  3.01627E-12 -3.12633E-11
  -1.64505E-10  3.69321E-10  5.23005E-10  9.20908E-11  9.87380E-10  1.29271E-09  1.21132E-09  1.64515E-09  1.41613E-09  1.83628E-09
   1.11535E-09  1.33024E-09  1.29522E-09  4.61880E-10  1.75405E-10 -2.32874E-11 -2.65134E-11 -4.98249E-10 -1.08006E-09 -1.17690E-09
  -9.59482E-10 -7.97114E-10 -1.20316E-09 -1.06190E-09 -7.12421E-10 -1.50200E-10 -6.99303E-10  2.95044E-10 -1.99084E-10  6.48295E-10
   1.61909E-10  6.04250E-10  9.73384E-10  2.37686E-10  9.76283E-10  9.39327E-10  5.98241E-10  8.34922E-10  1.12901E-09  6.99325E-10
   6.19299E-10  1.36274E-09  5.92857E-10  6.64639E-10  6.79043E-10  1.03524E-09  5.50649E-10  7.75343E-10  8.80860E-10  2.84361E-10
   8.75234E-10  5.90663E-10  3.45815E-10  6.27085E-10  2.87086E-10  3.59636E-10  5.54591E-10  2.85374E-10  2.13544E-10  1.75639E-10
   2.88346E-10  4.01441E-11 -7.21991E-11 -4.50574E-10 -3.46346E-10 -2.28162E-10 -2.96616E-10 -3.14314E-10 -7.33329E-10 -3.49238E-10
  -2.21305E-10 -6.41495E-10 -5.80031E-10 -5.20458E-10 -1.00514E-09 -7.41358E-10 -1.05530E-09 -4.79133E-10 -7.13303E-10 -3.24655E-10
  -1.79933E-09 -6.25715E-10 -1.52946E-09 -7.18077E-10 -1.02207E-09 -1.00792E-09 -1.68867E-09 -8.60632E-10 -1.10723E-09 -1.47492E-09
  -1.23819E-09 -1.04637E-09 -1.30878E-09
 NY points of the fit to the data follow
  -1.34788E-08 -1.31491E-08 -1.30000E-08 -1.29237E-08 -1.25606E-08 -1.20846E-08 -1.19261E-08 -1.16921E-08 -1.08484E-08 -1.00146E-08
  -9.85312E-09 -1.02677E-08 -1.12029E-08 -1.25855E-08 -1.37721E-08 -1.47081E-08 -1.58882E-08 -1.67511E-08 -1.60397E-08 -1.43758E-08
  -1.34135E-08 -1.29239E-08 -1.23827E-08 -1.19127E-08 -1.15686E-08 -1.13810E-08 -1.13213E-08 -1.13762E-08 -1.15403E-08 -1.17956E-08
  -1.20317E-08 -1.20124E-08 -1.18054E-08 -1.18003E-08 -1.17512E-08 -1.14894E-08 -1.12106E-08 -1.10428E-08 -1.09312E-08 -1.08387E-08
  -1.07455E-08 -1.06654E-08 -1.05878E-08 -1.05129E-08 -1.04353E-08 -1.03547E-08 -1.02713E-08 -1.01755E-08 -1.00760E-08 -9.97561E-09
  -9.86329E-09 -9.75268E-09 -9.66901E-09 -9.59119E-09 -9.52167E-09 -9.46163E-09 -9.38892E-09 -9.30444E-09 -9.22781E-09 -9.13955E-09
  -9.04328E-09 -8.94738E-09 -8.87750E-09 -8.81173E-09 -8.71276E-09 -8.58175E-09 -8.45682E-09 -8.33549E-09 -8.23374E-09 -8.14262E-09
  -8.03989E-09 -7.90857E-09 -7.81397E-09 -7.76021E-09 -7.70551E-09 -7.54011E-09 -7.28056E-09 -7.14016E-09 -7.11749E-09 -7.13357E-09
  -7.17740E-09 -7.23840E-09 -7.34960E-09 -7.54056E-09 -7.67837E-09 -7.59175E-09 -7.23659E-09 -6.88958E-09 -6.74950E-09 -6.64105E-09
  -6.54523E-09 -6.45971E-09 -6.37166E-09 -6.28604E-09 -6.19672E-09 -6.10910E-09 -6.02496E-09 -5.94056E-09 -5.85202E-09 -5.75820E-09
  -5.67181E-09 -5.58859E-09 -5.50130E-09 -5.41223E-09 -5.32409E-09 -5.23661E-09 -5.14938E-09 -5.06227E-09 -4.97501E-09 -4.88760E-09
  -4.80016E-09 -4.71255E-09 -4.62480E-09 -4.53688E-09 -4.44878E-09 -4.36051E-09 -4.27204E-09 -4.18337E-09 -4.09446E-09 -4.00537E-09
  -3.91599E-09 -3.82642E-09 -3.73657E-09 -3.64648E-09 -3.55614E-09 -3.46552E-09 -3.37459E-09 -3.28343E-09 -3.19197E-09 -3.10020E-09
  -3.00814E-09 -2.91575E-09 -2.82307E-09 -2.73007E-09 -2.63674E-09 -2.54304E-09 -2.44906E-09 -2.35469E-09 -2.25999E-09 -2.16489E-09
  -2.06944E-09 -1.97362E-09 -1.87742E-09 -1.78079E-09 -1.68378E-09 -1.58635E-09 -1.48851E-09 -1.39029E-09 -1.29171E-09 -1.19282E-09
  -1.09362E-09 -9.94150E-10 -8.94413E-10 -7.94429E-10 -6.94178E-10 -5.93644E-10 -4.92774E-10 -3.91459E-10 -2.89538E-10 -1.86698E-10
  -8.23804E-11  2.43870E-11  1.35612E-10  2.55618E-10  3.95483E-10  5.91507E-10  1.02457E-09  2.14364E-09  2.95423E-09  3.21767E-09
   3.09434E-09  2.65583E-09  1.96564E-09  1.04303E-09 -8.49764E-11 -1.09871E-09 -1.38965E-09 -5.08024E-10  1.00986E-09  1.45532E-09
   1.65505E-09  1.79050E-09  1.90156E-09  2.00089E-09  2.09360E-09  2.18204E-09  2.26739E-09  2.35027E-09  2.43110E-09  2.51007E-09
   2.58728E-09  2.66284E-09  2.73677E-09  2.80909E-09  2.87977E-09  2.94882E-09  3.01625E-09  3.08197E-09  3.14599E-09  3.20830E-09
   3.26884E-09  3.32759E-09  3.38450E-09  3.43954E-09  3.49270E-09  3.54390E-09  3.59313E-09  3.64035E-09  3.68553E-09  3.72859E-09
   3.76956E-09  3.80834E-09  3.84492E-09  3.87926E-09  3.91135E-09  3.94108E-09  3.96847E-09  3.99348E-09  4.01604E-09  4.03620E-09
   4.05398E-09  4.06943E-09  4.08259E-09  4.09349E-09  4.10217E-09  4.10868E-09  4.11305E-09  4.11532E-09  4.11553E-09  4.11371E-09
   4.10992E-09  4.10418E-09  4.09653E-09  4.08701E-09  4.07567E-09  4.06254E-09  4.04766E-09  4.03106E-09  4.01279E-09  3.99289E-09
   3.97138E-09  3.94833E-09  3.92376E-09  3.89771E-09  3.87021E-09  3.84131E-09  3.81105E-09  3.77947E-09  3.74660E-09  3.71248E-09
   3.67716E-09  3.64066E-09  3.60304E-09  3.56431E-09  3.52453E-09  3.48375E-09  3.44199E-09  3.39928E-09  3.35568E-09  3.31122E-09
   3.26594E-09  3.21988E-09  3.17307E-09  3.12555E-09  3.07737E-09  3.02856E-09  2.97916E-09  2.92921E-09  2.87875E-09  2.82782E-09
   2.77644E-09  2.72468E-09  2.67255E-09  2.62011E-09  2.56739E-09  2.51442E-09  2.46125E-09  2.40792E-09  2.35445E-09  2.30090E-09
   2.24731E-09  2.19370E-09  2.14013E-09  2.08661E-09  2.03321E-09  1.97994E-09  1.92687E-09  1.87400E-09  1.82140E-09  1.76910E-09
   1.71713E-09  1.66552E-09  1.61426E-09  1.56334E-09  1.51275E-09  1.46251E-09  1.41257E-09  1.36296E-09  1.31365E-09  1.26464E-09
   1.21594E-09  1.16752E-09  1.11938E-09  1.07152E-09  1.02392E-09  9.76579E-10  9.29501E-10  8.82673E-10  8.36080E-10  7.89719E-10
   7.43589E-10  6.97674E-10  6.51982E-10  6.06487E-10  5.61198E-10  5.16098E-10  4.71190E-10  4.26453E-10  3.81893E-10  3.37501E-10
   2.93271E-10  2.49178E-10  2.05243E-10  1.61448E-10  1.17779E-10  7.42245E-11  3.08075E-11 -1.25072E-11 -5.57084E-11 -9.88249E-11
  -1.41839E-10 -1.84772E-10 -2.27635E-10 -2.70427E-10 -3.13146E-10 -3.55812E-10 -3.98423E-10 -4.40999E-10 -4.83524E-10 -5.26045E-10
  -5.68518E-10 -6.10992E-10 -6.53442E-10 -6.95890E-10 -7.38368E-10 -7.80826E-10 -8.23317E-10 -8.65820E-10 -9.08368E-10 -9.50944E-10
  -9.93563E-10 -1.03624E-09 -1.07897E-09 -1.12178E-09 -1.16464E-09 -1.20760E-09 -1.25062E-09 -1.29375E-09 -1.33697E-09 -1.38030E-09
  -1.42375E-09 -1.46731E-09 -1.51098E-09
 NY background values follow
    -1.405E-08   -1.397E-08   -1.389E-08   -1.381E-08   -1.373E-08   -1.365E-08   -1.357E-08   -1.349E-08   -1.341E-08   -1.332E-08
    -1.324E-08   -1.316E-08   -1.308E-08   -1.300E-08   -1.292E-08   -1.283E-08   -1.275E-08   -1.267E-08   -1.259E-08   -1.250E-08
    -1.242E-08   -1.234E-08   -1.226E-08   -1.217E-08   -1.209E-08   -1.201E-08   -1.192E-08   -1.184E-08   -1.176E-08   -1.167E-08
    -1.159E-08   -1.151E-08   -1.142E-08   -1.134E-08   -1.125E-08   -1.117E-08   -1.109E-08   -1.100E-08   -1.092E-08   -1.083E-08
    -1.075E-08   -1.067E-08   -1.058E-08   -1.050E-08   -1.041E-08   -1.033E-08   -1.024E-08   -1.016E-08   -1.007E-08   -9.990E-09
    -9.905E-09   -9.821E-09   -9.736E-09   -9.651E-09   -9.567E-09   -9.482E-09   -9.397E-09   -9.313E-09   -9.228E-09   -9.143E-09
    -9.059E-09   -8.974E-09   -8.889E-09   -8.804E-09   -8.720E-09   -8.635E-09   -8.550E-09   -8.466E-09   -8.381E-09   -8.297E-09
    -8.212E-09   -8.128E-09   -8.043E-09   -7.959E-09   -7.874E-09   -7.790E-09   -7.706E-09   -7.621E-09   -7.537E-09   -7.453E-09
    -7.368E-09   -7.284E-09   -7.200E-09   -7.115E-09   -7.031E-09   -6.947E-09   -6.862E-09   -6.778E-09   -6.693E-09   -6.609E-09
    -6.524E-09   -6.439E-09   -6.354E-09   -6.270E-09   -6.185E-09   -6.100E-09   -6.014E-09   -5.929E-09   -5.844E-09   -5.758E-09
    -5.673E-09   -5.587E-09   -5.501E-09   -5.415E-09   -5.329E-09   -5.243E-09   -5.156E-09   -5.070E-09   -4.983E-09   -4.896E-09
    -4.809E-09   -4.722E-09   -4.634E-09   -4.547E-09   -4.459E-09   -4.371E-09   -4.282E-09   -4.194E-09   -4.105E-09   -4.016E-09
    -3.927E-09   -3.837E-09   -3.747E-09   -3.657E-09   -3.567E-09   -3.476E-09   -3.386E-09   -3.295E-09   -3.203E-09   -3.111E-09
    -3.019E-09   -2.927E-09   -2.834E-09   -2.742E-09   -2.648E-09   -2.555E-09   -2.461E-09   -2.366E-09   -2.272E-09   -2.177E-09
    -2.082E-09   -1.986E-09   -1.890E-09   -1.793E-09   -1.696E-09   -1.599E-09   -1.502E-09   -1.404E-09   -1.305E-09   -1.207E-09
    -1.108E-09   -1.009E-09   -9.099E-10   -8.106E-10   -7.113E-10   -6.120E-10   -5.126E-10   -4.133E-10   -3.141E-10   -2.150E-10
    -1.160E-10   -1.732E-11    8.118E-11    1.794E-10    2.773E-10    3.748E-10    4.720E-10    5.687E-10    6.649E-10    7.607E-10
     8.558E-10    9.504E-10    1.044E-09    1.138E-09    1.230E-09    1.322E-09    1.413E-09    1.503E-09    1.593E-09    1.681E-09
     1.768E-09    1.855E-09    1.940E-09    2.025E-09    2.108E-09    2.190E-09    2.271E-09    2.351E-09    2.429E-09    2.507E-09
     2.582E-09    2.657E-09    2.730E-09    2.802E-09    2.872E-09    2.940E-09    3.007E-09    3.073E-09    3.137E-09    3.199E-09
     3.259E-09    3.318E-09    3.374E-09    3.429E-09    3.482E-09    3.533E-09    3.582E-09    3.630E-09    3.675E-09    3.718E-09
     3.759E-09    3.797E-09    3.834E-09    3.868E-09    3.900E-09    3.930E-09    3.957E-09    3.982E-09    4.005E-09    4.025E-09
     4.043E-09    4.058E-09    4.071E-09    4.082E-09    4.091E-09    4.097E-09    4.102E-09    4.104E-09    4.104E-09    4.102E-09
     4.098E-09    4.093E-09    4.085E-09    4.075E-09    4.064E-09    4.051E-09    4.036E-09    4.019E-09    4.001E-09    3.981E-09
     3.960E-09    3.937E-09    3.912E-09    3.886E-09    3.859E-09    3.830E-09    3.799E-09    3.768E-09    3.735E-09    3.701E-09
     3.666E-09    3.629E-09    3.591E-09    3.553E-09    3.513E-09    3.472E-09    3.430E-09    3.388E-09    3.344E-09    3.300E-09
     3.254E-09    3.208E-09    3.161E-09    3.114E-09    3.066E-09    3.017E-09    2.968E-09    2.918E-09    2.867E-09    2.816E-09
     2.765E-09    2.713E-09    2.661E-09    2.608E-09    2.556E-09    2.503E-09    2.450E-09    2.396E-09    2.343E-09    2.289E-09
     2.236E-09    2.182E-09    2.128E-09    2.075E-09    2.022E-09    1.968E-09    1.915E-09    1.862E-09    1.810E-09    1.757E-09
     1.705E-09    1.654E-09    1.603E-09    1.552E-09    1.501E-09    1.451E-09    1.401E-09    1.351E-09    1.302E-09    1.253E-09
     1.204E-09    1.156E-09    1.108E-09    1.060E-09    1.012E-09    9.650E-10    9.179E-10    8.711E-10    8.245E-10    7.781E-10
     7.320E-10    6.861E-10    6.404E-10    5.949E-10    5.496E-10    5.046E-10    4.596E-10    4.149E-10    3.704E-10    3.260E-10
     2.817E-10    2.377E-10    1.937E-10    1.499E-10    1.063E-10    6.272E-11    1.931E-11   -2.400E-11   -6.719E-11   -1.103E-10
    -1.533E-10   -1.962E-10   -2.391E-10   -2.819E-10   -3.246E-10   -3.673E-10   -4.099E-10   -4.524E-10   -4.950E-10   -5.375E-10
    -5.799E-10   -6.224E-10   -6.648E-10   -7.073E-10   -7.498E-10   -7.922E-10   -8.347E-10   -8.772E-10   -9.197E-10   -9.623E-10
    -1.005E-09   -1.048E-09   -1.090E-09   -1.133E-09   -1.176E-09   -1.219E-09   -1.262E-09   -1.305E-09   -1.348E-09   -1.392E-09
    -1.435E-09   -1.479E-09   -1.522E-09
 GSH      Conc. = 2.27E-12
  -1.39416E-08 -1.38685E-08 -1.38103E-08 -1.37647E-08 -1.37278E-08 -1.36973E-08 -1.36639E-08 -1.36085E-08 -1.35118E-08 -1.33741E-08
  -1.32642E-08 -1.31749E-08 -1.30851E-08 -1.30000E-08 -1.29166E-08 -1.28337E-08 -1.27510E-08 -1.26683E-08 -1.25857E-08 -1.25029E-08
  -1.24201E-08 -1.23372E-08 -1.22542E-08 -1.21710E-08 -1.20877E-08 -1.20043E-08 -1.19207E-08 -1.18369E-08 -1.17526E-08 -1.16680E-08
  -1.15830E-08 -1.14973E-08 -1.14102E-08 -1.13182E-08 -1.12182E-08 -1.11259E-08 -1.10333E-08 -1.09450E-08 -1.08670E-08 -1.07974E-08
  -1.07351E-08 -1.06773E-08 -1.06169E-08 -1.05461E-08 -1.04596E-08 -1.03653E-08 -1.02749E-08 -1.01707E-08 -1.00741E-08 -9.98343E-09
  -9.89100E-09 -9.80006E-09 -9.71325E-09 -9.62263E-09 -9.53417E-09 -9.45483E-09 -9.37848E-09 -9.30457E-09 -9.23259E-09 -9.15893E-09
  -9.08036E-09 -8.99785E-09 -8.91617E-09 -8.82951E-09 -8.73254E-09 -8.64274E-09 -8.55691E-09 -8.46507E-09 -8.37673E-09 -8.28672E-09
  -8.19612E-09 -8.11072E-09 -8.02152E-09 -7.93286E-09 -7.85015E-09 -7.76823E-09 -7.68843E-09 -7.61189E-09 -7.53735E-09 -7.46178E-09
  -7.38114E-09 -7.30312E-09 -7.22293E-09 -7.13107E-09 -7.04476E-09 -6.95968E-09 -6.86983E-09 -6.78232E-09 -6.69622E-09 -6.61068E-09
  -6.52543E-09 -6.44032E-09 -6.35522E-09 -6.27016E-09 -6.18505E-09 -6.09988E-09 -6.01465E-09 -5.92932E-09 -5.84391E-09 -5.75839E-09
  -5.67278E-09 -5.58703E-09 -5.50116E-09 -5.41517E-09 -5.32901E-09 -5.24272E-09 -5.15626E-09 -5.06967E-09 -4.98291E-09 -4.89593E-09
  -4.80883E-09 -4.72152E-09 -4.63400E-09 -4.54629E-09 -4.45837E-09 -4.37024E-09 -4.28191E-09 -4.19336E-09 -4.10455E-09 -4.01557E-09
  -3.92627E-09 -3.83678E-09 -3.74701E-09 -3.65699E-09 -3.56672E-09 -3.47616E-09 -3.38529E-09 -3.29420E-09 -3.20279E-09 -3.11108E-09
  -3.01909E-09 -2.92676E-09 -2.83414E-09 -2.74120E-09 -2.64794E-09 -2.55431E-09 -2.46040E-09 -2.36612E-09 -2.27150E-09 -2.17649E-09
  -2.08115E-09 -1.98544E-09 -1.88937E-09 -1.79288E-09 -1.69603E-09 -1.59879E-09 -1.50116E-09 -1.40318E-09 -1.30489E-09 -1.20634E-09
  -1.10754E-09 -1.00856E-09 -9.09420E-10 -8.10167E-10 -7.10831E-10 -6.11456E-10 -5.12081E-10 -4.12736E-10 -3.13467E-10 -2.14303E-10
  -1.15252E-10 -1.63663E-11  8.23802E-11  1.81018E-10  2.79732E-10  3.79200E-10  4.82954E-10  5.99440E-10  7.09404E-10  8.08288E-10
   8.99177E-10  9.83406E-10  1.06215E-09  1.13575E-09  1.20470E-09  1.27522E-09  1.35905E-09  1.46471E-09  1.58153E-09  1.67676E-09
   1.76638E-09  1.85380E-09  1.93977E-09  2.02446E-09  2.10794E-09  2.19023E-09  2.27129E-09  2.35109E-09  2.42963E-09  2.50687E-09
   2.58274E-09  2.65725E-09  2.73034E-09  2.80198E-09  2.87210E-09  2.94069E-09  3.00774E-09  3.07314E-09  3.13688E-09  3.19895E-09
   3.25929E-09  3.31787E-09  3.37462E-09  3.42953E-09  3.48257E-09  3.53366E-09  3.58280E-09  3.62994E-09  3.67505E-09  3.71804E-09
   3.75895E-09  3.79768E-09  3.83421E-09  3.86851E-09  3.90055E-09  3.93026E-09  3.95761E-09  3.98259E-09  4.00512E-09  4.02525E-09
   4.04300E-09  4.05844E-09  4.07157E-09  4.08246E-09  4.09112E-09  4.09762E-09  4.10197E-09  4.10423E-09  4.10442E-09  4.10259E-09
   4.09879E-09  4.09303E-09  4.08537E-09  4.07585E-09  4.06450E-09  4.05136E-09  4.03647E-09  4.01986E-09  4.00159E-09  3.98168E-09
   3.96017E-09  3.93711E-09  3.91253E-09  3.88648E-09  3.85898E-09  3.83007E-09  3.79981E-09  3.76822E-09  3.73535E-09  3.70122E-09
   3.66590E-09  3.62940E-09  3.59178E-09  3.55305E-09  3.51327E-09  3.47249E-09  3.43072E-09  3.38801E-09  3.34441E-09  3.29995E-09
   3.25466E-09  3.20860E-09  3.16179E-09  3.11428E-09  3.06609E-09  3.01728E-09  2.96789E-09  2.91794E-09  2.86747E-09  2.81654E-09
   2.76517E-09  2.71340E-09  2.66128E-09  2.60883E-09  2.55611E-09  2.50314E-09  2.44997E-09  2.39665E-09  2.34318E-09  2.28963E-09
   2.23604E-09  2.18243E-09  2.12886E-09  2.07535E-09  2.02194E-09  1.96868E-09  1.91561E-09  1.86274E-09  1.81015E-09  1.75785E-09
   1.70588E-09  1.65427E-09  1.60301E-09  1.55209E-09  1.50151E-09  1.45127E-09  1.40133E-09  1.35172E-09  1.30242E-09  1.25342E-09
   1.20471E-09  1.15629E-09  1.10816E-09  1.06030E-09  1.01271E-09  9.65370E-10  9.18296E-10  8.71471E-10  8.24882E-10  7.78524E-10
   7.32398E-10  6.86487E-10  6.40799E-10  5.95308E-10  5.50023E-10  5.04927E-10  4.60023E-10  4.15290E-10  3.70735E-10  3.26347E-10
   2.82122E-10  2.38033E-10  1.94103E-10  1.50312E-10  1.06648E-10  6.30983E-11  1.96863E-11 -2.36233E-11 -6.68195E-11 -1.09931E-10
  -1.52940E-10 -1.95868E-10 -2.38725E-10 -2.81512E-10 -3.24226E-10 -3.66887E-10 -4.09492E-10 -4.52062E-10 -4.94581E-10 -5.37096E-10
  -5.79563E-10 -6.22031E-10 -6.64475E-10 -7.06917E-10 -7.49389E-10 -7.91841E-10 -8.34325E-10 -8.76822E-10 -9.19363E-10 -9.61933E-10
  -1.00455E-09 -1.04722E-09 -1.08994E-09 -1.13274E-09 -1.17560E-09 -1.21855E-09 -1.26156E-09 -1.30468E-09 -1.34790E-09 -1.39122E-09
  -1.43466E-09 -1.47821E-09 -1.52188E-09
 Ins      Conc. = 1.04E-10
  -1.35886E-08 -1.32541E-08 -1.30860E-08 -1.29775E-08 -1.25727E-08 -1.20474E-08 -1.18424E-08 -1.15822E-08 -1.07516E-08 -9.97021E-09
  -9.83273E-09 -1.02513E-08 -1.11930E-08 -1.25790E-08 -1.37670E-08 -1.47050E-08 -1.58881E-08 -1.67550E-08 -1.60458E-08 -1.43836E-08
  -1.34235E-08 -1.29373E-08 -1.24038E-08 -1.19614E-08 -1.16495E-08 -1.14758E-08 -1.14126E-08 -1.14517E-08 -1.15906E-08 -1.18131E-08
  -1.20096E-08 -1.19508E-08 -1.17226E-08 -1.17385E-08 -1.17537E-08 -1.15337E-08 -1.12722E-08 -1.11136E-08 -1.10010E-08 -1.09013E-08
  -1.08004E-08 -1.07023E-08 -1.06084E-08 -1.05171E-08 -1.04276E-08 -1.03392E-08 -1.02516E-08 -1.01646E-08 -1.00781E-08 -9.99189E-09
  -9.90593E-09 -9.82020E-09 -9.73459E-09 -9.64913E-09 -9.56381E-09 -9.47851E-09 -9.39330E-09 -9.30822E-09 -9.22305E-09 -9.13801E-09
  -9.05303E-09 -8.96803E-09 -8.88311E-09 -8.79819E-09 -8.71337E-09 -8.62854E-09 -8.54376E-09 -8.45898E-09 -8.37425E-09 -8.28959E-09
  -8.20493E-09 -8.12030E-09 -8.03577E-09 -7.95123E-09 -7.86676E-09 -7.78232E-09 -7.69790E-09 -7.61352E-09 -7.52915E-09 -7.44479E-09
  -7.36042E-09 -7.27606E-09 -7.19169E-09 -7.10728E-09 -7.02288E-09 -6.93844E-09 -6.85395E-09 -6.76944E-09 -6.68488E-09 -6.60026E-09
  -6.51557E-09 -6.43084E-09 -6.34601E-09 -6.26114E-09 -6.17617E-09 -6.09108E-09 -6.00593E-09 -5.92066E-09 -5.83529E-09 -5.74980E-09
  -5.66419E-09 -5.57846E-09 -5.49259E-09 -5.40661E-09 -5.32045E-09 -5.23415E-09 -5.14769E-09 -5.06109E-09 -4.97432E-09 -4.88733E-09
  -4.80022E-09 -4.71289E-09 -4.62536E-09 -4.53763E-09 -4.44970E-09 -4.36156E-09 -4.27321E-09 -4.18464E-09 -4.09581E-09 -4.00680E-09
  -3.91749E-09 -3.82798E-09 -3.73818E-09 -3.64815E-09 -3.55785E-09 -3.46726E-09 -3.37637E-09 -3.28524E-09 -3.19381E-09 -3.10207E-09
  -3.01004E-09 -2.91767E-09 -2.82502E-09 -2.73204E-09 -2.63873E-09 -2.54504E-09 -2.45108E-09 -2.35674E-09 -2.26205E-09 -2.16697E-09
  -2.07155E-09 -1.97574E-09 -1.87956E-09 -1.78295E-09 -1.68597E-09 -1.58857E-09 -1.49076E-09 -1.39256E-09 -1.29402E-09 -1.19517E-09
  -1.09602E-09 -9.96608E-10 -8.96940E-10 -7.97040E-10 -6.96893E-10 -5.96490E-10 -4.95787E-10 -3.94693E-10 -2.93068E-10 -1.90638E-10
  -8.69074E-11  1.89808E-11  1.28812E-10  2.46424E-10  3.81663E-10  5.66760E-10  9.62117E-10  1.96972E-09  2.70322E-09  2.94901E-09
   2.84996E-09  2.46992E-09  1.86554E-09  1.05403E-09  5.91510E-11 -8.34819E-10 -1.08578E-09 -2.91936E-10  1.07140E-09  1.47880E-09
   1.66645E-09  1.79660E-09  1.90488E-09  2.00259E-09  2.09427E-09  2.18203E-09  2.26690E-09  2.34943E-09  2.43000E-09  2.50878E-09
   2.58584E-09  2.66128E-09  2.73512E-09  2.80736E-09  2.87797E-09  2.94697E-09  3.01436E-09  3.08005E-09  3.14403E-09  3.20631E-09
   3.26683E-09  3.32556E-09  3.38245E-09  3.43748E-09  3.49062E-09  3.54181E-09  3.59102E-09  3.63823E-09  3.68341E-09  3.72646E-09
   3.76742E-09  3.80620E-09  3.84277E-09  3.87711E-09  3.90919E-09  3.93892E-09  3.96630E-09  3.99131E-09  4.01386E-09  4.03402E-09
   4.05180E-09  4.06725E-09  4.08040E-09  4.09130E-09  4.09998E-09  4.10649E-09  4.11086E-09  4.11312E-09  4.11333E-09  4.11151E-09
