 LCModel (Version 6.3-1R) Copyright: S.W. Provencher.          Ref.: Magn. Reson. Med. 30:672-679 (1993).                
 onepulse 16x30_ftSpec_smooth_lcm
 26 lines in following concentration table = NCONC+1
    Conc.  %SD /Cr+PCr  Metabolite                                         
 1.78E-10 169%   0.436 Ala                                                 
 1.66E-09  57%   4.061 Asp                                                 
    0.000 999%   0.000 Cr                                                  
 5.03E-10 135%   1.235 GABA                                                
 3.24E-10 263%   0.794 Glc                                                 
 1.94E-10 368%   0.476 Gln                                                 
    0.000 999%   0.000 Glu                                                 
    0.000 999%   0.000 Glyc                                                
    0.000 999%   0.000 GPC                                                 
 5.41E-10  81%   1.326 GSH                                                 
 1.44E-09  38%   3.529 Ins                                                 
    0.000 999%   0.000 Lac                                                 
    0.000 999%   0.000 NAAG                                                
 3.28E-10  78%   0.805 NAA                                                 
    0.000 999%   0.000 PCh                                                 
 4.08E-10  79%   1.000 PCr                                                 
 1.34E-09  41%   3.278 PE                                                  
 1.82E-10 122%   0.446 Scyllo                                              
 1.06E-09 169%   2.609 Ser                                                 
    0.000 999%   0.000 Tau                                                 
    0.000 999%   0.000 GPC+PCh                                             
 3.28E-10  78%   0.805 NAA+NAAG                                            
 1.44E-09  38%   3.529 Ins+Glyc                                            
 4.08E-10  79%   1.000 Cr+PCr                                              
 1.94E-10 368%   0.476 Glu+Gln                                             
   6 lines in following misc. output table
  FWHM = 0.112 ppm    S/N =   3                                            
  Data shift = 0.447 ppm                                                   
  Ph: 159 deg      30.1 deg/ppm                                            
  alphaB,S = 1.3E+01,   3.7E+01                                            
    9 spline knots.   Ns = 5(1)                                            
  (10) 4 infls.   ( 9) 3 extrs.                                            
  363 points on ppm-axis = NY
      4.250000     4.238821     4.227641     4.216462     4.205282     4.194103     4.182923     4.171744     4.160564     4.149385
      4.138206     4.127026     4.115847     4.104667     4.093488     4.082308     4.071129     4.059949     4.048770     4.037591
      4.026411     4.015232     4.004052     3.992873     3.981693     3.970514     3.959334     3.948155     3.936975     3.925796
      3.914617     3.903437     3.892258     3.881078     3.869899     3.858719     3.847540     3.836360     3.825181     3.814002
      3.802822     3.791643     3.780463     3.769284     3.758104     3.746925     3.735745     3.724566     3.713387     3.702207
      3.691028     3.679848     3.668669     3.657489     3.646310     3.635130     3.623951     3.612772     3.601592     3.590413
      3.579233     3.568054     3.556874     3.545695     3.534515     3.523336     3.512156     3.500977     3.489798     3.478618
      3.467439     3.456259     3.445080     3.433900     3.422721     3.411541     3.400362     3.389183     3.378003     3.366824
      3.355644     3.344465     3.333285     3.322106     3.310926     3.299747     3.288568     3.277388     3.266209     3.255029
      3.243850     3.232670     3.221491     3.210311     3.199132     3.187953     3.176773     3.165594     3.154414     3.143235
      3.132055     3.120876     3.109696     3.098517     3.087337     3.076158     3.064979     3.053799     3.042620     3.031440
      3.020261     3.009081     2.997902     2.986722     2.975543     2.964364     2.953184     2.942005     2.930825     2.919646
      2.908466     2.897287     2.886107     2.874928     2.863749     2.852569     2.841390     2.830210     2.819031     2.807851
      2.796672     2.785492     2.774313     2.763134     2.751954     2.740775     2.729595     2.718416     2.707236     2.696057
      2.684877     2.673698     2.662519     2.651339     2.640160     2.628980     2.617801     2.606621     2.595442     2.584262
      2.573083     2.561903     2.550724     2.539545     2.528365     2.517186     2.506006     2.494827     2.483647     2.472468
      2.461288     2.450109     2.438930     2.427750     2.416571     2.405391     2.394212     2.383032     2.371853     2.360673
      2.349494     2.338315     2.327135     2.315956     2.304776     2.293597     2.282417     2.271238     2.260058     2.248879
      2.237700     2.226520     2.215341     2.204161     2.192982     2.181802     2.170623     2.159443     2.148264     2.137084
      2.125905     2.114726     2.103546     2.092367     2.081187     2.070008     2.058828     2.047649     2.036469     2.025290
      2.014111     2.002931     1.991752     1.980572     1.969393     1.958213     1.947034     1.935854     1.924675     1.913496
      1.902316     1.891137     1.879957     1.868778     1.857598     1.846419     1.835239     1.824060     1.812881     1.801701
      1.790522     1.779342     1.768163     1.756983     1.745804     1.734624     1.723445     1.712265     1.701086     1.689907
      1.678727     1.667548     1.656368     1.645189     1.634009     1.622830     1.611650     1.600471     1.589292     1.578112
      1.566933     1.555753     1.544574     1.533394     1.522215     1.511035     1.499856     1.488677     1.477497     1.466318
      1.455138     1.443959     1.432779     1.421600     1.410420     1.399241     1.388062     1.376882     1.365703     1.354523
      1.343344     1.332164     1.320985     1.309805     1.298626     1.287446     1.276267     1.265088     1.253908     1.242729
      1.231549     1.220370     1.209190     1.198011     1.186831     1.175652     1.164473     1.153293     1.142114     1.130934
      1.119755     1.108575     1.097396     1.086216     1.075037     1.063858     1.052678     1.041499     1.030319     1.019140
      1.007960     0.996781     0.985601     0.974422     0.963243     0.952063     0.940884     0.929704     0.918525     0.907345
      0.896166     0.884986     0.873807     0.862628     0.851448     0.840269     0.829089     0.817910     0.806730     0.795551
      0.784371     0.773192     0.762012     0.750833     0.739654     0.728474     0.717295     0.706115     0.694936     0.683756
      0.672577     0.661397     0.650218     0.639039     0.627859     0.616680     0.605500     0.594321     0.583141     0.571962
      0.560782     0.549603     0.538424     0.527244     0.516065     0.504885     0.493706     0.482526     0.471347     0.460167
      0.448988     0.437809     0.426629     0.415450     0.404270     0.393091     0.381911     0.370732     0.359552     0.348373
      0.337193     0.326014     0.314835     0.303655     0.292476     0.281296     0.270117     0.258937     0.247758     0.236578
      0.225399     0.214220     0.203040
 NY phased data points follow
   5.28827E-09  5.56832E-09  5.26139E-09  5.67402E-09  5.91103E-09  5.78657E-09  5.98528E-09  6.63135E-09  6.61725E-09  6.37252E-09
   6.31101E-09  6.36943E-09  6.10961E-09  6.14869E-09  5.73001E-09  5.76945E-09  5.98066E-09  6.30660E-09  6.21714E-09  6.14809E-09
   5.44689E-09  5.34604E-09  5.42764E-09  6.05429E-09  6.86785E-09  7.06242E-09  7.28150E-09  7.57301E-09  7.00685E-09  6.58921E-09
   6.52540E-09  6.42045E-09  6.20748E-09  6.35898E-09  6.21423E-09  6.30323E-09  6.13056E-09  6.43398E-09  5.95514E-09  5.64803E-09
   5.62343E-09  5.39271E-09  5.29521E-09  5.24722E-09  5.80015E-09  5.29757E-09  4.89635E-09  5.17550E-09  4.58106E-09  4.59848E-09
   4.58200E-09  4.69815E-09  4.06074E-09  4.09995E-09  4.84713E-09  5.31614E-09  6.28521E-09  6.29885E-09  6.18944E-09  6.28721E-09
   6.17602E-09  5.58500E-09  5.34141E-09  5.36376E-09  4.83094E-09  4.37422E-09  4.19016E-09  3.60855E-09  3.30494E-09  2.58743E-09
   3.45756E-09  4.77856E-09  6.59440E-09  7.57414E-09  8.06507E-09  7.55077E-09  7.45510E-09  7.33385E-09  7.87012E-09  7.56648E-09
   7.14725E-09  7.51539E-09  7.72192E-09  7.29761E-09  7.27714E-09  7.36598E-09  7.20197E-09  7.07121E-09  7.05357E-09  6.73901E-09
   6.66540E-09  6.39318E-09  6.36023E-09  6.30122E-09  6.35696E-09  6.23745E-09  6.24656E-09  6.24656E-09  6.09568E-09  6.25046E-09
   5.74401E-09  5.69149E-09  5.31799E-09  4.73354E-09  4.86619E-09  4.86606E-09  5.13894E-09  4.84871E-09  4.78153E-09  4.59679E-09
   4.52424E-09  5.05755E-09  4.85038E-09  4.92530E-09  4.67452E-09  4.40244E-09  4.27828E-09  3.61178E-09  3.27025E-09  3.74440E-09
   3.22096E-09  3.58899E-09  2.94436E-09  3.09310E-09  2.96929E-09  2.91754E-09  2.97466E-09  3.03585E-09  2.64110E-09  2.07506E-09
   2.63277E-09  2.47819E-09  3.05464E-09  3.46387E-09  3.72693E-09  3.73333E-09  3.78380E-09  3.98742E-09  4.36204E-09  5.01695E-09
   5.58654E-09  5.43673E-09  5.38141E-09  5.70329E-09  5.62518E-09  5.66204E-09  5.75645E-09  5.92892E-09  6.05663E-09  6.34778E-09
   6.03722E-09  6.03142E-09  6.26992E-09  6.51628E-09  6.71020E-09  6.45204E-09  6.87349E-09  6.53713E-09  6.96176E-09  6.39488E-09
   6.20902E-09  6.23685E-09  7.79761E-09  1.02769E-08  1.19456E-08  1.36340E-08  1.36725E-08  1.36994E-08  1.40878E-08  1.43537E-08
   1.46764E-08  1.51339E-08  1.50923E-08  1.49884E-08  1.55326E-08  1.53282E-08  1.56634E-08  1.57957E-08  1.53336E-08  1.45920E-08
   1.42799E-08  1.33475E-08  1.26215E-08  1.10249E-08  9.60668E-09  7.82936E-09  5.71676E-09  3.46428E-09  1.44324E-09 -4.19391E-10
  -2.71793E-09 -4.36782E-09 -6.19695E-09 -6.98019E-09 -8.47191E-09 -9.36542E-09 -9.34426E-09 -9.04686E-09 -8.43919E-09 -8.01697E-09
  -6.62389E-09 -6.13469E-09 -4.19132E-09 -3.43829E-09 -2.35416E-09 -1.57153E-09 -5.37437E-10 -8.83623E-11  1.58124E-11 -4.33014E-10
  -6.76278E-10 -1.03643E-09 -7.79652E-10 -1.20107E-09 -1.04224E-09 -5.45533E-10  2.49794E-10  5.81680E-10  8.07749E-10  4.50688E-10
   4.71597E-10 -2.63363E-10 -3.71789E-10 -9.23417E-10 -9.03565E-10 -8.20676E-10 -1.96404E-10 -2.08749E-10  6.84045E-10  6.33014E-10
   3.48530E-10 -8.62045E-10 -1.56633E-09 -1.74573E-09 -1.33441E-09 -1.58507E-09 -1.32315E-09 -1.40387E-09 -1.04761E-09 -9.41867E-10
  -6.27828E-10 -6.15464E-10 -5.26642E-10 -8.34858E-10 -6.27435E-10 -1.17540E-09 -1.23558E-09 -1.52185E-09 -8.54145E-10 -1.30819E-09
  -1.44639E-09 -1.38470E-09 -1.33960E-09 -1.08630E-09 -1.09719E-09 -1.48383E-09 -1.18187E-09 -1.73879E-09 -1.23590E-09 -1.53194E-09
  -1.35831E-09 -1.27368E-09 -1.14202E-09 -7.66343E-10 -6.59584E-10 -9.59493E-10 -4.83439E-10 -4.82136E-10 -3.17451E-10 -4.94987E-10
  -2.87095E-10 -3.59843E-10 -8.99644E-12 -3.53604E-10 -6.66477E-10 -5.48575E-10 -3.66104E-10 -1.02736E-09 -4.33842E-10 -1.17117E-09
  -7.66266E-10 -1.09979E-09 -1.01437E-09 -1.07621E-09 -9.30898E-10 -1.20670E-09 -1.14978E-09 -1.39134E-09 -1.17500E-09 -1.40483E-09
  -1.25281E-09 -1.53119E-09 -1.23814E-09 -1.38217E-09 -1.35276E-09 -1.22807E-09 -1.44042E-09 -1.53184E-09 -1.46027E-09 -1.28923E-09
  -1.37911E-09 -1.44106E-09 -1.46365E-09 -1.64588E-09 -1.40335E-09 -1.56080E-09 -1.49935E-09 -1.53923E-09 -1.39964E-09 -1.55946E-09
  -1.31140E-09 -1.80265E-09 -1.54640E-09 -1.55194E-09 -1.58770E-09 -1.59744E-09 -1.37600E-09 -1.65225E-09 -1.77559E-09 -1.59463E-09
  -1.36330E-09 -1.39454E-09 -1.15246E-09 -1.91027E-09 -1.63220E-09 -1.59497E-09 -1.30820E-09 -1.43391E-09 -1.78932E-09 -1.68936E-09
  -1.69435E-09 -1.69754E-09 -1.63040E-09 -1.64523E-09 -1.63641E-09 -1.72036E-09 -1.89529E-09 -1.92183E-09 -1.77313E-09 -1.74850E-09
  -1.72549E-09 -1.99059E-09 -1.75827E-09 -1.75228E-09 -1.67704E-09 -2.02954E-09 -1.76727E-09 -1.84412E-09 -1.66619E-09 -1.75355E-09
  -1.81002E-09 -1.91417E-09 -1.77320E-09 -1.49214E-09 -1.64169E-09 -1.60580E-09 -1.45802E-09 -1.69959E-09 -1.89550E-09 -1.66836E-09
  -1.76395E-09 -1.81672E-09 -1.70442E-09
 NY points of the fit to the data follow
   6.46640E-09  5.29608E-09  4.99886E-09  5.30454E-09  5.75624E-09  5.87191E-09  5.82165E-09  6.14055E-09  6.39117E-09  6.35051E-09
   6.44166E-09  6.44162E-09  6.52418E-09  6.51294E-09  6.22272E-09  5.92956E-09  5.93465E-09  5.77622E-09  5.12683E-09  4.86848E-09
   5.37463E-09  6.17651E-09  6.58736E-09  6.87794E-09  7.11525E-09  7.28535E-09  7.09414E-09  6.59511E-09  6.19842E-09  6.34498E-09
   6.43336E-09  6.60845E-09  6.60667E-09  6.52299E-09  6.18581E-09  5.95833E-09  5.93913E-09  6.09552E-09  6.05725E-09  5.77501E-09
   5.30440E-09  4.74225E-09  4.35403E-09  4.56354E-09  5.00798E-09  5.05322E-09  4.84013E-09  4.80533E-09  5.23038E-09  5.68903E-09
   6.05456E-09  6.17992E-09  5.96516E-09  5.63321E-09  5.44111E-09  5.31865E-09  5.62958E-09  5.79734E-09  5.65504E-09  5.42378E-09
   5.36450E-09  5.35222E-09  5.41262E-09  5.45958E-09  5.48951E-09  5.51591E-09  5.49982E-09  5.46675E-09  5.53142E-09  5.70969E-09
   5.84915E-09  5.88871E-09  5.99671E-09  6.14565E-09  6.24608E-09  6.34208E-09  6.68698E-09  7.27761E-09  7.48920E-09  7.40524E-09
   7.18590E-09  6.98423E-09  6.84781E-09  6.74324E-09  6.65777E-09  6.45436E-09  6.06154E-09  5.46930E-09  4.97845E-09  5.02070E-09
   5.09233E-09  5.16594E-09  5.20566E-09  5.16945E-09  5.16847E-09  5.21142E-09  5.18647E-09  5.18132E-09  5.24877E-09  5.34524E-09
   5.46214E-09  5.51192E-09  5.56006E-09  5.65191E-09  5.70908E-09  5.72114E-09  5.70554E-09  5.66881E-09  5.60080E-09  5.49166E-09
   5.36007E-09  5.27189E-09  5.23054E-09  5.10692E-09  4.99452E-09  4.97324E-09  4.96727E-09  4.96366E-09  4.95942E-09  4.95376E-09
   4.94629E-09  4.93711E-09  4.92620E-09  4.91365E-09  4.89951E-09  4.88387E-09  4.86677E-09  4.84830E-09  4.82852E-09  4.80747E-09
   4.78521E-09  4.76181E-09  4.73728E-09  4.71170E-09  4.68509E-09  4.65752E-09  4.62900E-09  4.59959E-09  4.56934E-09  4.53829E-09
   4.50650E-09  4.47400E-09  4.44084E-09  4.40712E-09  4.37284E-09  4.33809E-09  4.30298E-09  4.26760E-09  4.23202E-09  4.19641E-09
   4.16093E-09  4.12575E-09  4.09114E-09  4.05744E-09  4.02503E-09  3.99450E-09  3.96665E-09  3.94257E-09  3.92388E-09  3.91309E-09
   3.91411E-09  3.93370E-09  3.98417E-09  4.09086E-09  4.31451E-09  4.84354E-09  6.56158E-09  1.12108E-08  1.48271E-08  1.63244E-08
   1.64546E-08  1.61946E-08  1.61774E-08  1.66455E-08  1.73490E-08  1.74151E-08  1.55446E-08  1.09772E-08  5.68153E-09  4.14106E-09
   3.53998E-09  3.21107E-09  2.99407E-09  2.83316E-09  2.70405E-09  2.59457E-09  2.49795E-09  2.41015E-09  2.32864E-09  2.25175E-09
   2.17832E-09  2.10755E-09  2.03887E-09  1.97186E-09  1.90618E-09  1.84160E-09  1.77794E-09  1.71505E-09  1.65282E-09  1.59117E-09
   1.53002E-09  1.46931E-09  1.40901E-09  1.34908E-09  1.28950E-09  1.23023E-09  1.17128E-09  1.11263E-09  1.05426E-09  9.96161E-10
   9.38346E-10  8.80813E-10  8.23555E-10  7.66579E-10  7.09872E-10  6.53451E-10  5.97327E-10  5.41494E-10  4.85952E-10  4.30722E-10
   3.75810E-10  3.21218E-10  2.66954E-10  2.13019E-10  1.59421E-10  1.06193E-10  5.33124E-11  7.98139E-13 -5.13281E-11 -1.03069E-10
  -1.54416E-10 -2.05355E-10 -2.55879E-10 -3.05984E-10 -3.55653E-10 -4.04877E-10 -4.53654E-10 -5.01971E-10 -5.49818E-10 -5.97180E-10
  -6.44060E-10 -6.90440E-10 -7.36312E-10 -7.81667E-10 -8.26496E-10 -8.70792E-10 -9.14544E-10 -9.57742E-10 -1.00038E-09 -1.04245E-09
  -1.08393E-09 -1.12483E-09 -1.16513E-09 -1.20483E-09 -1.24391E-09 -1.28237E-09 -1.32020E-09 -1.35739E-09 -1.39393E-09 -1.42981E-09
  -1.46503E-09 -1.49958E-09 -1.53344E-09 -1.56662E-09 -1.59909E-09 -1.63087E-09 -1.66193E-09 -1.69227E-09 -1.72188E-09 -1.75076E-09
  -1.77889E-09 -1.80628E-09 -1.83290E-09 -1.85876E-09 -1.88385E-09 -1.90815E-09 -1.93167E-09 -1.95440E-09 -1.97633E-09 -1.99745E-09
  -2.01775E-09 -2.03724E-09 -2.05590E-09 -2.07373E-09 -2.09071E-09 -2.10685E-09 -2.12214E-09 -2.13657E-09 -2.15014E-09 -2.16284E-09
  -2.17466E-09 -2.18560E-09 -2.19566E-09 -2.20482E-09 -2.21308E-09 -2.22045E-09 -2.22691E-09 -2.23245E-09 -2.23707E-09 -2.24077E-09
  -2.24355E-09 -2.24539E-09 -2.24630E-09 -2.24626E-09 -2.24528E-09 -2.24336E-09 -2.24047E-09 -2.23663E-09 -2.23182E-09 -2.22605E-09
  -2.21931E-09 -2.21160E-09 -2.20291E-09 -2.19324E-09 -2.18259E-09 -2.17095E-09 -2.15831E-09 -2.14469E-09 -2.13007E-09 -2.11445E-09
  -2.09783E-09 -2.08020E-09 -2.06157E-09 -2.04193E-09 -2.02128E-09 -1.99962E-09 -1.97694E-09 -1.95324E-09 -1.92853E-09 -1.90279E-09
  -1.87603E-09 -1.84825E-09 -1.81944E-09 -1.78961E-09 -1.75875E-09 -1.72687E-09 -1.69395E-09 -1.66000E-09 -1.62503E-09 -1.58902E-09
  -1.55198E-09 -1.51392E-09 -1.47481E-09 -1.43468E-09 -1.39352E-09 -1.35132E-09 -1.30810E-09 -1.26384E-09 -1.21855E-09 -1.17224E-09
  -1.12489E-09 -1.07652E-09 -1.02712E-09 -9.76699E-10 -9.25250E-10 -8.72778E-10 -8.19285E-10 -7.64772E-10 -7.09241E-10 -6.52695E-10
  -5.95133E-10 -5.36559E-10 -4.76974E-10
 NY background values follow
     3.252E-09    3.331E-09    3.409E-09    3.486E-09    3.562E-09    3.637E-09    3.711E-09    3.783E-09    3.855E-09    3.925E-09
     3.994E-09    4.062E-09    4.129E-09    4.194E-09    4.259E-09    4.322E-09    4.384E-09    4.445E-09    4.505E-09    4.564E-09
     4.621E-09    4.678E-09    4.733E-09    4.787E-09    4.840E-09    4.891E-09    4.942E-09    4.991E-09    5.040E-09    5.087E-09
     5.133E-09    5.177E-09    5.221E-09    5.263E-09    5.305E-09    5.345E-09    5.384E-09    5.422E-09    5.458E-09    5.494E-09
     5.528E-09    5.562E-09    5.594E-09    5.625E-09    5.654E-09    5.683E-09    5.711E-09    5.737E-09    5.762E-09    5.787E-09
     5.810E-09    5.832E-09    5.852E-09    5.872E-09    5.891E-09    5.908E-09    5.924E-09    5.940E-09    5.954E-09    5.967E-09
     5.979E-09    5.990E-09    6.000E-09    6.009E-09    6.016E-09    6.023E-09    6.028E-09    6.033E-09    6.036E-09    6.039E-09
     6.040E-09    6.041E-09    6.040E-09    6.038E-09    6.035E-09    6.032E-09    6.027E-09    6.021E-09    6.014E-09    6.007E-09
     5.998E-09    5.988E-09    5.978E-09    5.966E-09    5.953E-09    5.940E-09    5.925E-09    5.910E-09    5.893E-09    5.876E-09
     5.858E-09    5.839E-09    5.819E-09    5.798E-09    5.776E-09    5.753E-09    5.729E-09    5.705E-09    5.680E-09    5.653E-09
     5.626E-09    5.598E-09    5.570E-09    5.540E-09    5.510E-09    5.479E-09    5.447E-09    5.414E-09    5.380E-09    5.346E-09
     5.311E-09    5.275E-09    5.239E-09    5.201E-09    5.163E-09    5.124E-09    5.085E-09    5.045E-09    5.004E-09    4.962E-09
     4.920E-09    4.877E-09    4.834E-09    4.790E-09    4.745E-09    4.699E-09    4.653E-09    4.606E-09    4.559E-09    4.511E-09
     4.463E-09    4.414E-09    4.364E-09    4.314E-09    4.263E-09    4.212E-09    4.160E-09    4.108E-09    4.055E-09    4.002E-09
     3.948E-09    3.894E-09    3.839E-09    3.784E-09    3.729E-09    3.673E-09    3.617E-09    3.560E-09    3.503E-09    3.445E-09
     3.387E-09    3.329E-09    3.270E-09    3.211E-09    3.152E-09    3.092E-09    3.032E-09    2.972E-09    2.911E-09    2.851E-09
     2.789E-09    2.728E-09    2.667E-09    2.605E-09    2.543E-09    2.480E-09    2.418E-09    2.355E-09    2.293E-09    2.230E-09
     2.166E-09    2.103E-09    2.040E-09    1.976E-09    1.913E-09    1.849E-09    1.785E-09    1.721E-09    1.657E-09    1.593E-09
     1.529E-09    1.465E-09    1.401E-09    1.337E-09    1.273E-09    1.208E-09    1.144E-09    1.080E-09    1.016E-09    9.523E-10
     8.884E-10    8.246E-10    7.609E-10    6.972E-10    6.337E-10    5.703E-10    5.071E-10    4.440E-10    3.810E-10    3.182E-10
     2.556E-10    1.932E-10    1.310E-10    6.901E-11    7.223E-12   -5.433E-11   -1.156E-10   -1.767E-10   -2.375E-10   -2.980E-10
    -3.582E-10   -4.182E-10   -4.778E-10   -5.371E-10   -5.961E-10   -6.547E-10   -7.130E-10   -7.709E-10   -8.285E-10   -8.856E-10
    -9.424E-10   -9.988E-10   -1.055E-09   -1.110E-09   -1.165E-09   -1.220E-09   -1.274E-09   -1.328E-09   -1.381E-09   -1.434E-09
    -1.487E-09   -1.538E-09   -1.590E-09   -1.640E-09   -1.691E-09   -1.740E-09   -1.790E-09   -1.838E-09   -1.886E-09   -1.934E-09
    -1.981E-09   -2.027E-09   -2.073E-09   -2.118E-09   -2.162E-09   -2.206E-09   -2.249E-09   -2.292E-09   -2.334E-09   -2.375E-09
    -2.415E-09   -2.455E-09   -2.494E-09   -2.533E-09   -2.570E-09   -2.608E-09   -2.644E-09   -2.679E-09   -2.714E-09   -2.748E-09
    -2.782E-09   -2.814E-09   -2.846E-09   -2.877E-09   -2.907E-09   -2.937E-09   -2.966E-09   -2.993E-09   -3.020E-09   -3.047E-09
    -3.072E-09   -3.097E-09   -3.120E-09   -3.143E-09   -3.165E-09   -3.186E-09   -3.207E-09   -3.226E-09   -3.245E-09   -3.262E-09
    -3.279E-09   -3.295E-09   -3.310E-09   -3.324E-09   -3.337E-09   -3.349E-09   -3.361E-09   -3.371E-09   -3.380E-09   -3.389E-09
    -3.396E-09   -3.403E-09   -3.409E-09   -3.413E-09   -3.417E-09   -3.420E-09   -3.422E-09   -3.422E-09   -3.422E-09   -3.421E-09
    -3.419E-09   -3.416E-09   -3.411E-09   -3.406E-09   -3.400E-09   -3.393E-09   -3.385E-09   -3.375E-09   -3.365E-09   -3.354E-09
    -3.341E-09   -3.328E-09   -3.314E-09   -3.298E-09   -3.282E-09   -3.264E-09   -3.246E-09   -3.226E-09   -3.206E-09   -3.184E-09
    -3.161E-09   -3.137E-09   -3.112E-09   -3.087E-09   -3.060E-09   -3.032E-09   -3.002E-09   -2.972E-09   -2.941E-09   -2.909E-09
    -2.875E-09   -2.841E-09   -2.805E-09   -2.769E-09   -2.731E-09   -2.693E-09   -2.653E-09   -2.612E-09   -2.570E-09   -2.527E-09
    -2.483E-09   -2.438E-09   -2.392E-09   -2.344E-09   -2.296E-09   -2.247E-09   -2.196E-09   -2.145E-09   -2.092E-09   -2.039E-09
    -1.984E-09   -1.928E-09   -1.871E-09   -1.813E-09   -1.754E-09   -1.694E-09   -1.633E-09   -1.571E-09   -1.508E-09   -1.444E-09
    -1.379E-09   -1.313E-09   -1.245E-09
 Ala      Conc. = 1.78E-10
   3.37985E-09  3.44221E-09  3.50683E-09  3.57044E-09  3.63162E-09  3.68997E-09  3.73883E-09  3.79380E-09  3.86648E-09  3.91981E-09
   3.96773E-09  4.04237E-09  4.11100E-09  4.17081E-09  4.23779E-09  4.30562E-09  4.37223E-09  4.43729E-09  4.50078E-09  4.56273E-09
   4.62319E-09  4.68222E-09  4.73985E-09  4.79613E-09  4.85108E-09  4.90472E-09  4.95706E-09  5.00814E-09  5.05797E-09  5.10654E-09
   5.15389E-09  5.20001E-09  5.24491E-09  5.28862E-09  5.33111E-09  5.37241E-09  5.41252E-09  5.45146E-09  5.48921E-09  5.52580E-09
   5.56121E-09  5.59546E-09  5.62855E-09  5.66050E-09  5.69128E-09  5.72094E-09  5.74945E-09  5.77681E-09  5.80306E-09  5.82819E-09
   5.85218E-09  5.87505E-09  5.89683E-09  5.91749E-09  5.93705E-09  5.95550E-09  5.97286E-09  5.98916E-09  6.00436E-09  6.01852E-09
   6.03160E-09  6.04361E-09  6.05457E-09  6.06449E-09  6.07336E-09  6.08122E-09  6.08804E-09  6.09386E-09  6.09868E-09  6.10249E-09
   6.10533E-09  6.10720E-09  6.10812E-09  6.10807E-09  6.10711E-09  6.10523E-09  6.10244E-09  6.09879E-09  6.09426E-09  6.08892E-09
   6.08276E-09  6.07582E-09  6.06813E-09  6.05976E-09  6.05075E-09  6.04112E-09  6.03100E-09  6.02044E-09  6.00956E-09  5.99852E-09
   5.98747E-09  5.97671E-09  5.96656E-09  5.95751E-09  5.95032E-09  5.94618E-09  5.94716E-09  5.95719E-09  5.98524E-09  6.05616E-09
   6.14826E-09  6.15910E-09  6.16337E-09  6.20993E-09  6.22188E-09  6.18951E-09  6.13046E-09  6.05134E-09  5.94206E-09  5.79275E-09
   5.62218E-09  5.49621E-09  5.41815E-09  5.25883E-09  5.11169E-09  5.05655E-09  5.01761E-09  4.98189E-09  4.94636E-09  4.91018E-09
   4.87293E-09  4.83465E-09  4.79533E-09  4.75500E-09  4.71369E-09  4.67146E-09  4.62834E-09  4.58438E-09  4.53961E-09  4.49407E-09
   4.44777E-09  4.40077E-09  4.35306E-09  4.30468E-09  4.25566E-09  4.20601E-09  4.15574E-09  4.10488E-09  4.05346E-09  4.00147E-09
   3.94895E-09  3.89590E-09  3.84234E-09  3.78832E-09  3.73378E-09  3.67878E-09  3.62334E-09  3.56747E-09  3.51116E-09  3.45447E-09
   3.39740E-09  3.33992E-09  3.28210E-09  3.22397E-09  3.16550E-09  3.10673E-09  3.04773E-09  2.98848E-09  2.92905E-09  2.86952E-09
   2.80994E-09  2.75052E-09  2.69151E-09  2.63348E-09  2.57776E-09  2.52849E-09  2.50546E-09  2.54671E-09  2.56416E-09  2.53491E-09
   2.47585E-09  2.40839E-09  2.34631E-09  2.29480E-09  2.24833E-09  2.18762E-09  2.08402E-09  1.92098E-09  1.74251E-09  1.64736E-09
   1.57186E-09  1.50208E-09  1.43469E-09  1.36849E-09  1.30298E-09  1.23790E-09  1.17313E-09  1.10858E-09  1.04420E-09  9.79991E-10
   9.15911E-10  8.51971E-10  7.88157E-10  7.24486E-10  6.60951E-10  5.97550E-10  5.34307E-10  4.71223E-10  4.08301E-10  3.45559E-10
   2.83004E-10  2.20634E-10  1.58469E-10  9.65227E-11  3.47953E-11 -2.66988E-11 -8.79529E-11 -1.48938E-10 -2.09669E-10 -2.70128E-10
  -3.30301E-10 -3.90173E-10 -4.49740E-10 -5.08985E-10 -5.67915E-10 -6.26505E-10 -6.84740E-10 -7.42620E-10 -8.00140E-10 -8.57275E-10
  -9.14017E-10 -9.70359E-10 -1.02629E-09 -1.08181E-09 -1.13691E-09 -1.19155E-09 -1.24575E-09 -1.29950E-09 -1.35277E-09 -1.40556E-09
  -1.45786E-09 -1.50967E-09 -1.56096E-09 -1.61174E-09 -1.66199E-09 -1.71170E-09 -1.76087E-09 -1.80948E-09 -1.85753E-09 -1.90500E-09
  -1.95189E-09 -1.99818E-09 -2.04387E-09 -2.08895E-09 -2.13341E-09 -2.17724E-09 -2.22044E-09 -2.26299E-09 -2.30488E-09 -2.34611E-09
  -2.38667E-09 -2.42654E-09 -2.46573E-09 -2.50422E-09 -2.54201E-09 -2.57909E-09 -2.61544E-09 -2.65106E-09 -2.68595E-09 -2.72009E-09
  -2.75348E-09 -2.78611E-09 -2.81797E-09 -2.84906E-09 -2.87936E-09 -2.90888E-09 -2.93759E-09 -2.96551E-09 -2.99261E-09 -3.01889E-09
  -3.04435E-09 -3.06897E-09 -3.09276E-09 -3.11570E-09 -3.13778E-09 -3.15901E-09 -3.17938E-09 -3.19887E-09 -3.21748E-09 -3.23521E-09
  -3.25205E-09 -3.26800E-09 -3.28304E-09 -3.29718E-09 -3.31040E-09 -3.32270E-09 -3.33408E-09 -3.34453E-09 -3.35405E-09 -3.36262E-09
  -3.37025E-09 -3.37693E-09 -3.38265E-09 -3.38741E-09 -3.39121E-09 -3.39404E-09 -3.39590E-09 -3.39677E-09 -3.39667E-09 -3.39557E-09
  -3.39349E-09 -3.39041E-09 -3.38633E-09 -3.38125E-09 -3.37517E-09 -3.36807E-09 -3.35996E-09 -3.35083E-09 -3.34068E-09 -3.32951E-09
  -3.31731E-09 -3.30408E-09 -3.28982E-09 -3.27452E-09 -3.25818E-09 -3.24080E-09 -3.22238E-09 -3.20291E-09 -3.18240E-09 -3.16083E-09
  -3.13822E-09 -3.11454E-09 -3.08982E-09 -3.06403E-09 -3.03719E-09 -3.00928E-09 -2.98031E-09 -2.95028E-09 -2.91919E-09 -2.88703E-09
  -2.85380E-09 -2.81951E-09 -2.78415E-09 -2.74772E-09 -2.71023E-09 -2.67166E-09 -2.63202E-09 -2.59132E-09 -2.54955E-09 -2.50670E-09
  -2.46279E-09 -2.41781E-09 -2.37176E-09 -2.32465E-09 -2.27647E-09 -2.22722E-09 -2.17691E-09 -2.12554E-09 -2.07310E-09 -2.01960E-09
  -1.96504E-09 -1.90943E-09 -1.85276E-09 -1.79503E-09 -1.73625E-09 -1.67642E-09 -1.61554E-09 -1.55362E-09 -1.49065E-09 -1.42664E-09
  -1.36160E-09 -1.29551E-09 -1.22840E-09
 Asp      Conc. = 1.66E-09
   3.29133E-09  3.16658E-09  3.14851E-09  3.10881E-09  3.07156E-09  3.09823E-09  3.12727E-09  3.31003E-09  3.48854E-09  3.64903E-09
   3.79506E-09  3.93037E-09  4.05718E-09  4.17573E-09  4.28662E-09  4.39275E-09  4.49506E-09  4.59422E-09  4.69077E-09  4.78517E-09
   4.87784E-09  4.96918E-09  5.05955E-09  5.14934E-09  5.23895E-09  5.32882E-09  5.41941E-09  5.51134E-09  5.60530E-09  5.70217E-09
   5.80314E-09  5.90977E-09  6.02438E-09  6.15046E-09  6.29365E-09  6.46233E-09  6.62685E-09  6.75022E-09  6.80979E-09  6.83300E-09
   6.89638E-09  7.05835E-09  7.37155E-09  7.63315E-09  7.94486E-09  7.91581E-09  7.62382E-09  7.42797E-09  7.48802E-09  7.55294E-09
   7.51821E-09  7.33312E-09  6.89965E-09  6.32421E-09  5.93157E-09  5.68777E-09  5.83894E-09  5.87294E-09  5.69531E-09  5.52451E-09
   5.53527E-09  5.53659E-09  5.56285E-09  5.65354E-09  5.65662E-09  5.57027E-09  5.54303E-09  5.55740E-09  5.58152E-09  5.60747E-09
   5.63266E-09  5.65613E-09  5.67752E-09  5.69669E-09  5.71368E-09  5.72852E-09  5.74127E-09  5.75204E-09  5.76088E-09  5.76789E-09
   5.77313E-09  5.77667E-09  5.77856E-09  5.77888E-09  5.77768E-09  5.77498E-09  5.77087E-09  5.76535E-09  5.75847E-09  5.75028E-09
   5.74079E-09  5.73006E-09  5.71810E-09  5.70493E-09  5.69059E-09  5.67509E-09  5.65847E-09  5.64073E-09  5.62191E-09  5.60204E-09
   5.58111E-09  5.55915E-09  5.53618E-09  5.51221E-09  5.48727E-09  5.46137E-09  5.43450E-09  5.40672E-09  5.37804E-09  5.34844E-09
   5.31797E-09  5.28659E-09  5.25438E-09  5.22129E-09  5.18740E-09  5.15267E-09  5.11715E-09  5.08083E-09  5.04372E-09  5.00590E-09
   4.96725E-09  4.92787E-09  4.88777E-09  4.84695E-09  4.80542E-09  4.76320E-09  4.72030E-09  4.67672E-09  4.63250E-09  4.58762E-09
   4.54212E-09  4.49601E-09  4.44928E-09  4.40196E-09  4.35406E-09  4.30560E-09  4.25658E-09  4.20703E-09  4.15696E-09  4.10637E-09
   4.05530E-09  4.00375E-09  3.95174E-09  3.89931E-09  3.84644E-09  3.79316E-09  3.73952E-09  3.68553E-09  3.63121E-09  3.57662E-09
   3.52180E-09  3.46675E-09  3.41158E-09  3.35638E-09  3.30119E-09  3.24616E-09  3.19150E-09  3.13742E-09  3.08429E-09  3.03267E-09
   2.98342E-09  2.93808E-09  2.89945E-09  2.87345E-09  2.87468E-09  2.95088E-09  3.34085E-09  4.20161E-09  4.80565E-09  5.00580E-09
   4.96511E-09  4.86812E-09  4.82881E-09  4.88180E-09  4.95980E-09  4.87440E-09  4.37259E-09  3.36642E-09  2.36215E-09  2.04543E-09
   1.88195E-09  1.76652E-09  1.67176E-09  1.58766E-09  1.50972E-09  1.43565E-09  1.36416E-09  1.29448E-09  1.22612E-09  1.15875E-09
   1.09215E-09  1.02618E-09  9.60711E-10  8.95693E-10  8.31053E-10  7.66745E-10  7.02756E-10  6.39058E-10  5.75631E-10  5.12476E-10
   4.49583E-10  3.86940E-10  3.24555E-10  2.62433E-10  2.00568E-10  1.38968E-10  7.76336E-11  1.65902E-11 -4.41804E-11 -1.04664E-10
  -1.64851E-10 -2.24726E-10 -2.84288E-10 -3.43524E-10 -4.02441E-10 -4.61015E-10 -5.19233E-10 -5.77095E-10 -6.34599E-10 -6.91719E-10
  -7.48449E-10 -8.04783E-10 -8.60713E-10 -9.16233E-10 -9.71337E-10 -1.02599E-09 -1.08021E-09 -1.13398E-09 -1.18728E-09 -1.24010E-09
