 LCModel (Version 6.3-1R) Copyright: S.W. Provencher.          Ref.: Magn. Reson. Med. 30:672-679 (1993).                
 onepulse 16x5_ftSpec_smooth_lcm
 26 lines in following concentration table = NCONC+1
    Conc.  %SD /Cr+PCr  Metabolite                                         
 2.06E-10 134%   2.141 Ala                                                 
 3.07E-09  17%  31.983 Asp                                                 
    0.000 999%   0.000 Cr                                                  
 1.68E-09  31%  17.444 GABA                                                
 9.04E-10  64%   9.408 Glc                                                 
    0.000 999%   0.000 Gln                                                 
    0.000 999%   0.000 Glu                                                 
    0.000 999%   0.000 Glyc                                                
 9.48E-11  83%   0.986 GPC                                                 
    0.000 999%   0.000 GSH                                                 
 6.99E-10  52%   7.272 Ins                                                 
    0.000 999%   0.000 Lac                                                 
    0.000 999%   0.000 NAAG                                                
    0.000 999%   0.000 NAA                                                 
    0.000 999%   0.000 PCh                                                 
 9.61E-11 269%   1.000 PCr                                                 
    0.000 999%   0.000 PE                                                  
 1.72E-10  85%   1.791 Scyllo                                              
    0.000 999%   0.000 Ser                                                 
    0.000 999%   0.000 Tau                                                 
 9.48E-11  83%   0.986 GPC+PCh                                             
    0.000 999%   0.000 NAA+NAAG                                            
 6.99E-10  52%   7.272 Ins+Glyc                                            
 9.61E-11 269%   1.000 Cr+PCr                                              
    0.000 999%   0.000 Glu+Gln                                             
   6 lines in following misc. output table
  FWHM = 0.067 ppm    S/N =   3                                            
  Data shift = 0.347 ppm                                                   
  Ph:-180 deg      27.0 deg/ppm                                            
  alphaB,S = 1.3E+00,   2.6E+01                                            
    9 spline knots.   Ns = 5(1)                                            
  (10) 6 infls.   (11) 3 extrs.                                            
  363 points on ppm-axis = NY
      4.250000     4.238821     4.227641     4.216462     4.205282     4.194103     4.182923     4.171744     4.160564     4.149385
      4.138206     4.127026     4.115847     4.104667     4.093488     4.082308     4.071129     4.059949     4.048770     4.037591
      4.026411     4.015232     4.004052     3.992873     3.981693     3.970514     3.959334     3.948155     3.936975     3.925796
      3.914617     3.903437     3.892258     3.881078     3.869899     3.858719     3.847540     3.836360     3.825181     3.814002
      3.802822     3.791643     3.780463     3.769284     3.758104     3.746925     3.735745     3.724566     3.713387     3.702207
      3.691028     3.679848     3.668669     3.657489     3.646310     3.635130     3.623951     3.612772     3.601592     3.590413
      3.579233     3.568054     3.556874     3.545695     3.534515     3.523336     3.512156     3.500977     3.489798     3.478618
      3.467439     3.456259     3.445080     3.433900     3.422721     3.411541     3.400362     3.389183     3.378003     3.366824
      3.355644     3.344465     3.333285     3.322106     3.310926     3.299747     3.288568     3.277388     3.266209     3.255029
      3.243850     3.232670     3.221491     3.210311     3.199132     3.187953     3.176773     3.165594     3.154414     3.143235
      3.132055     3.120876     3.109696     3.098517     3.087337     3.076158     3.064979     3.053799     3.042620     3.031440
      3.020261     3.009081     2.997902     2.986722     2.975543     2.964364     2.953184     2.942005     2.930825     2.919646
      2.908466     2.897287     2.886107     2.874928     2.863749     2.852569     2.841390     2.830210     2.819031     2.807851
      2.796672     2.785492     2.774313     2.763134     2.751954     2.740775     2.729595     2.718416     2.707236     2.696057
      2.684877     2.673698     2.662519     2.651339     2.640160     2.628980     2.617801     2.606621     2.595442     2.584262
      2.573083     2.561903     2.550724     2.539545     2.528365     2.517186     2.506006     2.494827     2.483647     2.472468
      2.461288     2.450109     2.438930     2.427750     2.416571     2.405391     2.394212     2.383032     2.371853     2.360673
      2.349494     2.338315     2.327135     2.315956     2.304776     2.293597     2.282417     2.271238     2.260058     2.248879
      2.237700     2.226520     2.215341     2.204161     2.192982     2.181802     2.170623     2.159443     2.148264     2.137084
      2.125905     2.114726     2.103546     2.092367     2.081187     2.070008     2.058828     2.047649     2.036469     2.025290
      2.014111     2.002931     1.991752     1.980572     1.969393     1.958213     1.947034     1.935854     1.924675     1.913496
      1.902316     1.891137     1.879957     1.868778     1.857598     1.846419     1.835239     1.824060     1.812881     1.801701
      1.790522     1.779342     1.768163     1.756983     1.745804     1.734624     1.723445     1.712265     1.701086     1.689907
      1.678727     1.667548     1.656368     1.645189     1.634009     1.622830     1.611650     1.600471     1.589292     1.578112
      1.566933     1.555753     1.544574     1.533394     1.522215     1.511035     1.499856     1.488677     1.477497     1.466318
      1.455138     1.443959     1.432779     1.421600     1.410420     1.399241     1.388062     1.376882     1.365703     1.354523
      1.343344     1.332164     1.320985     1.309805     1.298626     1.287446     1.276267     1.265088     1.253908     1.242729
      1.231549     1.220370     1.209190     1.198011     1.186831     1.175652     1.164473     1.153293     1.142114     1.130934
      1.119755     1.108575     1.097396     1.086216     1.075037     1.063858     1.052678     1.041499     1.030319     1.019140
      1.007960     0.996781     0.985601     0.974422     0.963243     0.952063     0.940884     0.929704     0.918525     0.907345
      0.896166     0.884986     0.873807     0.862628     0.851448     0.840269     0.829089     0.817910     0.806730     0.795551
      0.784371     0.773192     0.762012     0.750833     0.739654     0.728474     0.717295     0.706115     0.694936     0.683756
      0.672577     0.661397     0.650218     0.639039     0.627859     0.616680     0.605500     0.594321     0.583141     0.571962
      0.560782     0.549603     0.538424     0.527244     0.516065     0.504885     0.493706     0.482526     0.471347     0.460167
      0.448988     0.437809     0.426629     0.415450     0.404270     0.393091     0.381911     0.370732     0.359552     0.348373
      0.337193     0.326014     0.314835     0.303655     0.292476     0.281296     0.270117     0.258937     0.247758     0.236578
      0.225399     0.214220     0.203040
 NY phased data points follow
   7.50370E-09  6.08732E-09  9.59018E-09  6.66320E-09  9.27059E-09  6.44135E-09  9.03454E-09  5.98538E-09  8.32505E-09  5.52980E-09
   8.70717E-09  5.40365E-09  8.25912E-09  5.44961E-09  8.26872E-09  5.94157E-09  8.76044E-09  6.55772E-09  8.76703E-09  6.34306E-09
   9.04999E-09  6.50554E-09  8.58851E-09  5.87259E-09  7.96384E-09  6.34968E-09  8.70014E-09  6.59848E-09  8.69869E-09  6.05455E-09
   7.62037E-09  5.49291E-09  8.49591E-09  7.22691E-09  1.03182E-08  7.70255E-09  1.00049E-08  7.64708E-09  9.40001E-09  7.18547E-09
   9.21667E-09  6.79548E-09  9.02586E-09  7.07449E-09  9.01724E-09  6.78658E-09  8.70253E-09  6.86654E-09  8.22036E-09  6.52945E-09
   8.03923E-09  5.72223E-09  8.03322E-09  6.43985E-09  8.06801E-09  6.10982E-09  7.21871E-09  5.30862E-09  6.94923E-09  5.02513E-09
   6.56760E-09  4.63105E-09  6.31514E-09  5.38119E-09  7.77412E-09  7.04764E-09  9.27129E-09  7.71703E-09  9.36256E-09  7.97879E-09
   9.19519E-09  7.26694E-09  8.67063E-09  6.67345E-09  8.19757E-09  5.82859E-09  7.00322E-09  4.29035E-09  5.29723E-09  4.32859E-09
   7.13184E-09  7.39672E-09  9.35179E-09  8.80585E-09  1.03258E-08  9.73336E-09  1.07034E-08  9.22341E-09  1.04479E-08  9.11670E-09
   1.06253E-08  9.32252E-09  1.04112E-08  9.01037E-09  1.04089E-08  8.58406E-09  1.00441E-08  8.38931E-09  9.57928E-09  7.69302E-09
   8.99878E-09  7.58731E-09  8.84825E-09  7.51837E-09  8.23896E-09  6.98428E-09  8.69432E-09  7.02114E-09  8.64528E-09  6.95703E-09
   7.94272E-09  6.35381E-09  7.68395E-09  5.97096E-09  7.51058E-09  5.88561E-09  7.10403E-09  5.79266E-09  7.35278E-09  5.87139E-09
   6.76689E-09  6.02350E-09  7.38800E-09  6.34716E-09  6.93996E-09  5.77861E-09  6.56394E-09  5.29068E-09  6.24782E-09  4.95981E-09
   6.44094E-09  5.22086E-09  6.30596E-09  5.22403E-09  7.01422E-09  6.17729E-09  7.27267E-09  6.06623E-09  6.81649E-09  5.90240E-09
   7.41036E-09  6.88511E-09  8.23118E-09  7.42700E-09  8.34711E-09  7.69338E-09  9.50243E-09  8.41119E-09  9.65591E-09  8.63906E-09
   1.04517E-08  9.52446E-09  1.07563E-08  9.71857E-09  1.02868E-08  9.40573E-09  1.02829E-08  9.87282E-09  1.11743E-08  1.00028E-08
   1.10909E-08  9.88598E-09  1.14849E-08  1.03806E-08  1.17258E-08  1.08326E-08  1.20372E-08  1.12639E-08  1.14006E-08  1.00455E-08
   1.02287E-08  1.10289E-08  1.45161E-08  1.57519E-08  1.70183E-08  1.65555E-08  1.73577E-08  1.67601E-08  1.71463E-08  1.56417E-08
   1.55212E-08  1.40807E-08  1.34761E-08  1.07813E-08  1.05371E-08  7.69103E-09  6.60242E-09  3.59145E-09  2.39412E-09 -4.83618E-11
  -1.62127E-09 -4.15308E-09 -4.92954E-09 -6.98000E-09 -6.56285E-09 -8.33670E-09 -8.02381E-09 -8.52502E-09 -7.39123E-09 -7.38362E-09
  -5.98364E-09 -5.41119E-09 -3.44468E-09 -3.63581E-09 -2.24581E-09 -2.51291E-09 -9.91008E-10 -1.71797E-09 -6.27310E-10 -1.79311E-09
  -1.02502E-09 -1.34718E-09 -8.47016E-10 -1.59927E-09 -8.83792E-10 -1.71945E-09 -5.63269E-10 -1.46899E-09 -1.91595E-10 -1.23943E-09
  -1.18096E-10 -1.06566E-09 -3.60824E-10 -6.96239E-10  1.06440E-10 -3.50107E-10  1.89578E-10 -5.05945E-10  1.98798E-10 -3.47776E-10
   3.01397E-10  2.89414E-10  5.27896E-10  5.98144E-11  6.81980E-10 -1.41648E-10  6.67587E-11 -6.20317E-10  1.38470E-10 -6.91534E-10
  -2.34440E-10 -1.07640E-09 -7.01572E-10 -1.19428E-09 -5.97800E-10 -1.08593E-09 -8.52017E-10 -1.55370E-09 -8.53532E-10 -1.38720E-09
  -1.33366E-09 -1.55019E-09 -1.33219E-09 -1.97884E-09 -1.78045E-09 -2.14699E-09 -1.77348E-09 -2.38116E-09 -2.02177E-09 -2.86959E-09
  -2.22256E-09 -2.88102E-09 -2.44726E-09 -3.49483E-09 -2.87908E-09 -3.27199E-09 -3.02534E-09 -3.40193E-09 -2.93440E-09 -3.42769E-09
  -2.99051E-09 -2.98392E-09 -2.45825E-09 -3.26812E-09 -2.40778E-09 -2.36565E-09 -2.13880E-09 -2.46497E-09 -1.69498E-09 -2.25141E-09
  -1.84515E-09 -2.28634E-09 -1.79233E-09 -1.81885E-09 -1.43953E-09 -2.14556E-09 -1.81151E-09 -1.84811E-09 -1.81332E-09 -1.84167E-09
  -2.00151E-09 -2.30303E-09 -1.72156E-09 -2.32391E-09 -2.12898E-09 -2.87993E-09 -2.31064E-09 -2.86114E-09 -2.38784E-09 -3.15652E-09
  -2.79330E-09 -3.08227E-09 -2.72115E-09 -3.05077E-09 -3.42525E-09 -3.06757E-09 -3.16665E-09 -3.27620E-09 -3.16266E-09 -3.79815E-09
  -3.71784E-09 -3.75907E-09 -3.26842E-09 -3.81458E-09 -3.75932E-09 -4.50084E-09 -3.63240E-09 -4.06642E-09 -3.85610E-09 -4.11314E-09
  -3.98944E-09 -4.24267E-09 -4.31743E-09 -4.10890E-09 -4.20498E-09 -4.34613E-09 -4.41849E-09 -4.22672E-09 -4.44947E-09 -4.67589E-09
  -4.45155E-09 -4.83882E-09 -4.52383E-09 -4.53759E-09 -4.54236E-09 -4.86860E-09 -5.14530E-09 -4.93793E-09 -4.77282E-09 -4.84019E-09
  -5.33182E-09 -5.03804E-09 -5.03001E-09 -5.38784E-09 -5.45132E-09 -5.42483E-09 -5.19799E-09 -5.29780E-09 -5.75825E-09 -5.31849E-09
  -5.47502E-09 -5.64346E-09 -6.04605E-09 -5.47343E-09 -5.74637E-09 -5.63902E-09 -5.74890E-09 -5.70089E-09 -6.16701E-09 -6.11388E-09
  -6.05333E-09 -5.89020E-09 -6.19608E-09
 NY points of the fit to the data follow
   8.14957E-09  7.40580E-09  7.05207E-09  7.13966E-09  7.08043E-09  6.72520E-09  6.43035E-09  6.34663E-09  6.71183E-09  7.03661E-09
   7.23935E-09  7.59466E-09  8.08241E-09  8.29906E-09  8.08977E-09  7.82948E-09  7.86145E-09  7.72604E-09  7.17532E-09  6.99151E-09
   7.20022E-09  7.43666E-09  7.50947E-09  7.48408E-09  7.20749E-09  6.98347E-09  6.91905E-09  6.74055E-09  6.71362E-09  7.37876E-09
   7.82571E-09  7.94401E-09  7.99739E-09  7.74614E-09  7.42720E-09  7.93200E-09  8.51080E-09  8.81830E-09  8.77088E-09  8.42588E-09
   8.02656E-09  7.82794E-09  7.50668E-09  7.31140E-09  7.62877E-09  8.12334E-09  7.71138E-09  7.26597E-09  7.50406E-09  8.31849E-09
   8.98826E-09  9.27049E-09  9.12523E-09  8.42142E-09  7.38568E-09  6.64941E-09  6.16149E-09  6.73889E-09  7.08645E-09  6.88895E-09
   6.75161E-09  7.22564E-09  7.67860E-09  7.89709E-09  8.35307E-09  8.89165E-09  8.82841E-09  8.67293E-09  8.78708E-09  8.90158E-09
   8.80092E-09  8.40645E-09  7.86226E-09  7.46607E-09  7.32269E-09  6.68902E-09  6.16072E-09  6.54985E-09  6.70308E-09  6.67004E-09
   6.97630E-09  7.22248E-09  7.45271E-09  7.90858E-09  8.22791E-09  8.35519E-09  8.64497E-09  8.94639E-09  9.11723E-09  9.21474E-09
   9.18314E-09  9.16631E-09  9.23671E-09  8.96683E-09  8.52561E-09  8.53552E-09  8.41601E-09  8.00001E-09  7.92256E-09  7.98612E-09
   7.94676E-09  7.89748E-09  7.93976E-09  8.06107E-09  8.14680E-09  8.18835E-09  8.21465E-09  8.23143E-09  8.19534E-09  8.06651E-09
   7.88304E-09  7.78011E-09  7.73505E-09  7.54234E-09  7.39327E-09  7.38939E-09  7.40320E-09  7.41688E-09  7.42735E-09  7.43415E-09
   7.43721E-09  7.43691E-09  7.43346E-09  7.42706E-09  7.41789E-09  7.40614E-09  7.39193E-09  7.37540E-09  7.35670E-09  7.33593E-09
   7.31317E-09  7.28855E-09  7.26213E-09  7.23404E-09  7.20433E-09  7.17310E-09  7.14041E-09  7.10636E-09  7.07103E-09  7.03452E-09
   6.99693E-09  6.95836E-09  6.91890E-09  6.87870E-09  6.83780E-09  6.79638E-09  6.75463E-09  6.71272E-09  6.67082E-09  6.62920E-09
   6.58814E-09  6.54788E-09  6.50890E-09  6.47170E-09  6.43682E-09  6.40503E-09  6.37740E-09  6.35520E-09  6.34023E-09  6.33510E-09
   6.34347E-09  6.37125E-09  6.42798E-09  6.53110E-09  6.71661E-09  7.07664E-09  7.94434E-09  1.01209E-08  1.23824E-08  1.30430E-08
   1.30006E-08  1.34931E-08  1.48182E-08  1.65065E-08  1.80260E-08  1.88630E-08  1.80186E-08  1.43151E-08  8.40545E-09  4.49653E-09
   3.65491E-09  3.37285E-09  3.23168E-09  3.13777E-09  3.06181E-09  2.99277E-09  2.92600E-09  2.85939E-09  2.79204E-09  2.72352E-09
   2.65369E-09  2.58257E-09  2.51020E-09  2.43668E-09  2.36209E-09  2.28653E-09  2.21013E-09  2.13296E-09  2.05511E-09  1.97668E-09
   1.89774E-09  1.81834E-09  1.73856E-09  1.65848E-09  1.57814E-09  1.49759E-09  1.41688E-09  1.33610E-09  1.25523E-09  1.17435E-09
   1.09349E-09  1.01270E-09  9.32017E-10  8.51473E-10  7.71075E-10  6.90882E-10  6.10935E-10  5.31245E-10  4.51829E-10  3.72745E-10
   2.94015E-10  2.15659E-10  1.37698E-10  6.01515E-11 -1.69625E-11 -9.35701E-11 -1.69710E-10 -2.45338E-10 -3.20408E-10 -3.94923E-10
  -4.68860E-10 -5.42194E-10 -6.14902E-10 -6.86980E-10 -7.58392E-10 -8.29120E-10 -8.99159E-10 -9.68486E-10 -1.03708E-09 -1.10491E-09
  -1.17199E-09 -1.23829E-09 -1.30378E-09 -1.36847E-09 -1.43237E-09 -1.49549E-09 -1.55783E-09 -1.61939E-09 -1.68019E-09 -1.74023E-09
  -1.79952E-09 -1.85807E-09 -1.91589E-09 -1.97297E-09 -2.02934E-09 -2.08500E-09 -2.13995E-09 -2.19421E-09 -2.24778E-09 -2.30067E-09
  -2.35289E-09 -2.40444E-09 -2.45534E-09 -2.50558E-09 -2.55519E-09 -2.60416E-09 -2.65250E-09 -2.70023E-09 -2.74734E-09 -2.79385E-09
  -2.83976E-09 -2.88508E-09 -2.92982E-09 -2.97398E-09 -3.01757E-09 -3.06060E-09 -3.10307E-09 -3.14498E-09 -3.18636E-09 -3.22719E-09
  -3.26749E-09 -3.30726E-09 -3.34651E-09 -3.38524E-09 -3.42346E-09 -3.46117E-09 -3.49837E-09 -3.53507E-09 -3.57129E-09 -3.60700E-09
  -3.64223E-09 -3.67697E-09 -3.71123E-09 -3.74501E-09 -3.77831E-09 -3.81114E-09 -3.84349E-09 -3.87537E-09 -3.90678E-09 -3.93771E-09
  -3.96819E-09 -3.99820E-09 -4.02772E-09 -4.05678E-09 -4.08534E-09 -4.11338E-09 -4.14088E-09 -4.16783E-09 -4.19419E-09 -4.21996E-09
  -4.24512E-09 -4.26963E-09 -4.29349E-09 -4.31668E-09 -4.33917E-09 -4.36094E-09 -4.38199E-09 -4.40228E-09 -4.42181E-09 -4.44055E-09
  -4.45849E-09 -4.47560E-09 -4.49188E-09 -4.50730E-09 -4.52185E-09 -4.53551E-09 -4.54826E-09 -4.56009E-09 -4.57098E-09 -4.58092E-09
  -4.58990E-09 -4.59789E-09 -4.60488E-09 -4.61086E-09 -4.61581E-09 -4.61972E-09 -4.62258E-09 -4.62437E-09 -4.62508E-09 -4.62469E-09
  -4.62320E-09 -4.62058E-09 -4.61684E-09 -4.61196E-09 -4.60592E-09 -4.59872E-09 -4.59034E-09 -4.58077E-09 -4.57001E-09 -4.55805E-09
  -4.54486E-09 -4.53046E-09 -4.51482E-09 -4.49794E-09 -4.47981E-09 -4.46043E-09 -4.43978E-09 -4.41786E-09 -4.39466E-09 -4.37018E-09
  -4.34440E-09 -4.31733E-09 -4.28896E-09
 NY background values follow
     2.892E-09    3.013E-09    3.132E-09    3.250E-09    3.367E-09    3.482E-09    3.596E-09    3.709E-09    3.821E-09    3.931E-09
     4.040E-09    4.148E-09    4.254E-09    4.359E-09    4.462E-09    4.565E-09    4.666E-09    4.765E-09    4.863E-09    4.960E-09
     5.056E-09    5.150E-09    5.243E-09    5.334E-09    5.424E-09    5.513E-09    5.600E-09    5.686E-09    5.771E-09    5.854E-09
     5.936E-09    6.017E-09    6.096E-09    6.174E-09    6.251E-09    6.326E-09    6.399E-09    6.472E-09    6.543E-09    6.612E-09
     6.681E-09    6.748E-09    6.813E-09    6.877E-09    6.940E-09    7.002E-09    7.062E-09    7.121E-09    7.178E-09    7.234E-09
     7.289E-09    7.343E-09    7.395E-09    7.445E-09    7.495E-09    7.543E-09    7.590E-09    7.635E-09    7.679E-09    7.722E-09
     7.763E-09    7.804E-09    7.842E-09    7.880E-09    7.916E-09    7.951E-09    7.985E-09    8.017E-09    8.048E-09    8.078E-09
     8.106E-09    8.133E-09    8.159E-09    8.183E-09    8.206E-09    8.228E-09    8.248E-09    8.267E-09    8.285E-09    8.301E-09
     8.316E-09    8.330E-09    8.342E-09    8.353E-09    8.363E-09    8.371E-09    8.378E-09    8.383E-09    8.388E-09    8.390E-09
     8.392E-09    8.392E-09    8.391E-09    8.388E-09    8.384E-09    8.379E-09    8.372E-09    8.364E-09    8.354E-09    8.343E-09
     8.331E-09    8.317E-09    8.302E-09    8.285E-09    8.267E-09    8.248E-09    8.227E-09    8.205E-09    8.181E-09    8.156E-09
     8.130E-09    8.102E-09    8.072E-09    8.042E-09    8.010E-09    7.976E-09    7.941E-09    7.904E-09    7.866E-09    7.827E-09
     7.786E-09    7.744E-09    7.700E-09    7.655E-09    7.609E-09    7.561E-09    7.511E-09    7.461E-09    7.409E-09    7.355E-09
     7.301E-09    7.245E-09    7.187E-09    7.129E-09    7.069E-09    7.008E-09    6.945E-09    6.882E-09    6.817E-09    6.751E-09
     6.684E-09    6.616E-09    6.547E-09    6.477E-09    6.405E-09    6.333E-09    6.259E-09    6.185E-09    6.109E-09    6.033E-09
     5.956E-09    5.877E-09    5.798E-09    5.718E-09    5.637E-09    5.556E-09    5.473E-09    5.390E-09    5.306E-09    5.221E-09
     5.136E-09    5.049E-09    4.962E-09    4.875E-09    4.787E-09    4.698E-09    4.609E-09    4.519E-09    4.429E-09    4.338E-09
     4.246E-09    4.155E-09    4.062E-09    3.970E-09    3.877E-09    3.783E-09    3.690E-09    3.596E-09    3.502E-09    3.407E-09
     3.312E-09    3.218E-09    3.122E-09    3.027E-09    2.932E-09    2.836E-09    2.741E-09    2.645E-09    2.550E-09    2.454E-09
     2.358E-09    2.263E-09    2.167E-09    2.071E-09    1.976E-09    1.880E-09    1.785E-09    1.690E-09    1.595E-09    1.500E-09
     1.406E-09    1.311E-09    1.217E-09    1.123E-09    1.030E-09    9.362E-10    8.432E-10    7.506E-10    6.583E-10    5.664E-10
     4.749E-10    3.838E-10    2.931E-10    2.029E-10    1.132E-10    2.390E-11   -6.483E-11   -1.530E-10   -2.407E-10   -3.278E-10
    -4.143E-10   -5.002E-10   -5.855E-10   -6.702E-10   -7.542E-10   -8.375E-10   -9.202E-10   -1.002E-09   -1.083E-09   -1.164E-09
    -1.244E-09   -1.323E-09   -1.401E-09   -1.478E-09   -1.555E-09   -1.630E-09   -1.705E-09   -1.779E-09   -1.853E-09   -1.925E-09
    -1.996E-09   -2.067E-09   -2.136E-09   -2.205E-09   -2.273E-09   -2.339E-09   -2.405E-09   -2.470E-09   -2.534E-09   -2.598E-09
    -2.660E-09   -2.722E-09   -2.782E-09   -2.842E-09   -2.901E-09   -2.959E-09   -3.017E-09   -3.073E-09   -3.129E-09   -3.184E-09
    -3.238E-09   -3.292E-09   -3.345E-09   -3.397E-09   -3.448E-09   -3.498E-09   -3.548E-09   -3.597E-09   -3.646E-09   -3.694E-09
    -3.741E-09   -3.787E-09   -3.833E-09   -3.878E-09   -3.922E-09   -3.966E-09   -4.009E-09   -4.051E-09   -4.093E-09   -4.135E-09
    -4.175E-09   -4.215E-09   -4.255E-09   -4.293E-09   -4.332E-09   -4.369E-09   -4.406E-09   -4.443E-09   -4.479E-09   -4.514E-09
    -4.549E-09   -4.583E-09   -4.617E-09   -4.650E-09   -4.683E-09   -4.715E-09   -4.746E-09   -4.777E-09   -4.808E-09   -4.838E-09
    -4.867E-09   -4.896E-09   -4.924E-09   -4.952E-09   -4.979E-09   -5.006E-09   -5.032E-09   -5.058E-09   -5.082E-09   -5.107E-09
    -5.130E-09   -5.153E-09   -5.175E-09   -5.196E-09   -5.217E-09   -5.237E-09   -5.256E-09   -5.274E-09   -5.291E-09   -5.308E-09
    -5.323E-09   -5.338E-09   -5.352E-09   -5.365E-09   -5.377E-09   -5.388E-09   -5.399E-09   -5.408E-09   -5.416E-09   -5.423E-09
    -5.430E-09   -5.435E-09   -5.439E-09   -5.442E-09   -5.444E-09   -5.445E-09   -5.445E-09   -5.444E-09   -5.441E-09   -5.438E-09
    -5.433E-09   -5.427E-09   -5.420E-09   -5.412E-09   -5.402E-09   -5.392E-09   -5.380E-09   -5.367E-09   -5.353E-09   -5.337E-09
    -5.320E-09   -5.302E-09   -5.283E-09   -5.262E-09   -5.240E-09   -5.217E-09   -5.193E-09   -5.167E-09   -5.140E-09   -5.111E-09
    -5.082E-09   -5.051E-09   -5.018E-09
 Ala      Conc. = 2.06E-10
   3.03805E-09  3.14000E-09  3.24529E-09  3.35101E-09  3.45487E-09  3.55200E-09  3.62905E-09  3.71829E-09  3.84058E-09  3.92297E-09
   3.99468E-09  4.11627E-09  4.22534E-09  4.31890E-09  4.42626E-09  4.53526E-09  4.64266E-09  4.74802E-09  4.85136E-09  4.95276E-09
   5.05232E-09  5.15011E-09  5.24620E-09  5.34065E-09  5.43351E-09  5.52481E-09  5.61454E-09  5.70278E-09  5.78953E-09  5.87478E-09
   5.95859E-09  6.04093E-09  6.12183E-09  6.20132E-09  6.27936E-09  6.35599E-09  6.43121E-09  6.50504E-09  6.57746E-09  6.64850E-09
   6.71813E-09  6.78639E-09  6.85327E-09  6.91879E-09  6.98292E-09  7.04570E-09  7.10712E-09  7.16717E-09  7.22589E-09  7.28326E-09
   7.33929E-09  7.39396E-09  7.44733E-09  7.49937E-09  7.55007E-09  7.59945E-09  7.64753E-09  7.69432E-09  7.73979E-09  7.78401E-09
   7.82693E-09  7.86856E-09  7.90892E-09  7.94802E-09  7.98584E-09  8.02240E-09  8.05770E-09  8.09176E-09  8.12455E-09  8.15609E-09
   8.18640E-09  8.21547E-09  8.24331E-09  8.26992E-09  8.29533E-09  8.31955E-09  8.34255E-09  8.36441E-09  8.38508E-09  8.40464E-09
   8.42308E-09  8.44042E-09  8.45670E-09  8.47198E-09  8.48631E-09  8.49969E-09  8.51228E-09  8.52410E-09  8.53529E-09  8.54600E-09
   8.55641E-09  8.56683E-09  8.57756E-09  8.58912E-09  8.60228E-09  8.61819E-09  8.63887E-09  8.66802E-09  8.71384E-09  8.79743E-09
   8.87278E-09  8.86473E-09  8.89498E-09  8.98426E-09  9.02959E-09  9.02748E-09  9.00910E-09  8.98093E-09  8.90012E-09  8.72716E-09
   8.50048E-09  8.35586E-09  8.27038E-09  8.03838E-09  7.85102E-09  7.80967E-09  7.78676E-09  7.76473E-09  7.74040E-09  7.71325E-09
   7.68314E-09  7.65036E-09  7.61506E-09  7.57743E-09  7.53760E-09  7.49573E-09  7.45189E-09  7.40619E-09  7.35873E-09  7.30956E-09
   7.25875E-09  7.20635E-09  7.15241E-09  7.09699E-09  7.04011E-09  6.98183E-09  6.92217E-09  6.86117E-09  6.79888E-09  6.73530E-09
   6.67050E-09  6.60447E-09  6.53727E-09  6.46896E-09  6.39949E-09  6.32891E-09  6.25729E-09  6.18466E-09  6.11099E-09  6.03638E-09
   5.96086E-09  5.88440E-09  5.80708E-09  5.72898E-09  5.65007E-09  5.57042E-09  5.49013E-09  5.40923E-09  5.32781E-09  5.24602E-09
   5.16397E-09  5.08196E-09  5.00036E-09  4.91997E-09  4.84242E-09  4.77249E-09  4.73049E-09  4.73242E-09  4.68319E-09  4.59174E-09
   4.50660E-09  4.44908E-09  4.41114E-09  4.37181E-09  4.32058E-09  4.23429E-09  4.07318E-09  3.81319E-09  3.54264E-09  3.41544E-09
   3.31324E-09  3.21655E-09  3.12150E-09  3.02697E-09  2.93256E-09  2.83812E-09  2.74360E-09  2.64897E-09  2.55427E-09  2.45949E-09
   2.36465E-09  2.26980E-09  2.17492E-09  2.08008E-09  1.98527E-09  1.89052E-09  1.79586E-09  1.70132E-09  1.60690E-09  1.51264E-09
   1.41857E-09  1.32467E-09  1.23101E-09  1.13759E-09  1.04442E-09  9.51538E-10  8.58952E-10  7.66716E-10  6.74807E-10  5.83257E-10
   4.92091E-10  4.01341E-10  3.11013E-10  2.21137E-10  1.31700E-10  4.27515E-11 -4.56826E-11 -1.33602E-10 -2.21001E-10 -3.07831E-10
  -3.94078E-10 -4.79732E-10 -5.64778E-10 -6.49205E-10 -7.33002E-10 -8.16101E-10 -8.98546E-10 -9.80299E-10 -1.06132E-09 -1.14161E-09
  -1.22117E-09 -1.29995E-09 -1.37796E-09 -1.45518E-09 -1.53159E-09 -1.60717E-09 -1.68191E-09 -1.75581E-09 -1.82883E-09 -1.90096E-09
  -1.97221E-09 -2.04255E-09 -2.11195E-09 -2.18044E-09 -2.24801E-09 -2.31468E-09 -2.38045E-09 -2.44533E-09 -2.50934E-09 -2.57247E-09
  -2.63475E-09 -2.69618E-09 -2.75677E-09 -2.81653E-09 -2.87547E-09 -2.93359E-09 -2.99091E-09 -3.04744E-09 -3.10318E-09 -3.15815E-09
  -3.21234E-09 -3.26579E-09 -3.31848E-09 -3.37043E-09 -3.42165E-09 -3.47215E-09 -3.52193E-09 -3.57101E-09 -3.61940E-09 -3.66708E-09
  -3.71410E-09 -3.76043E-09 -3.80611E-09 -3.85112E-09 -3.89549E-09 -3.93921E-09 -3.98230E-09 -4.02475E-09 -4.06659E-09 -4.10781E-09
  -4.14842E-09 -4.18843E-09 -4.22784E-09 -4.26666E-09 -4.30490E-09 -4.34256E-09 -4.37963E-09 -4.41614E-09 -4.45209E-09 -4.48748E-09
  -4.52231E-09 -4.55658E-09 -4.59030E-09 -4.62348E-09 -4.65611E-09 -4.68821E-09 -4.71977E-09 -4.75079E-09 -4.78127E-09 -4.81122E-09
  -4.84065E-09 -4.86955E-09 -4.89791E-09 -4.92573E-09 -4.95300E-09 -4.97969E-09 -5.00578E-09 -5.03126E-09 -5.05611E-09 -5.08029E-09
  -5.10381E-09 -5.12663E-09 -5.14874E-09 -5.17012E-09 -5.19075E-09 -5.21061E-09 -5.22969E-09 -5.24797E-09 -5.26542E-09 -5.28203E-09
  -5.29779E-09 -5.31268E-09 -5.32668E-09 -5.33977E-09 -5.35194E-09 -5.36317E-09 -5.37344E-09 -5.38275E-09 -5.39107E-09 -5.39839E-09
  -5.40470E-09 -5.40998E-09 -5.41421E-09 -5.41738E-09 -5.41949E-09 -5.42050E-09 -5.42042E-09 -5.41922E-09 -5.41690E-09 -5.41345E-09
  -5.40884E-09 -5.40308E-09 -5.39614E-09 -5.38802E-09 -5.37870E-09 -5.36819E-09 -5.35645E-09 -5.34349E-09 -5.32929E-09 -5.31385E-09
  -5.29716E-09 -5.27921E-09 -5.25998E-09 -5.23948E-09 -5.21770E-09 -5.19462E-09 -5.17024E-09 -5.14455E-09 -5.11755E-09 -5.08924E-09
  -5.05960E-09 -5.02863E-09 -4.99632E-09
 Asp      Conc. = 3.07E-09
   3.87410E-09  3.30445E-09  2.93305E-09  2.82905E-09  2.59966E-09  2.40347E-09  2.34346E-09  2.26759E-09  2.63521E-09  2.99965E-09
   3.31718E-09  3.59832E-09  3.85381E-09  4.09009E-09  4.30776E-09  4.50715E-09  4.69641E-09  4.87787E-09  5.05305E-09  5.22317E-09
   5.38923E-09  5.55213E-09  5.71266E-09  5.87158E-09  6.02960E-09  6.18744E-09  6.34585E-09  6.50570E-09  6.66793E-09  6.83365E-09
   7.00425E-09  7.18147E-09  7.36762E-09  7.56595E-09  7.78112E-09  8.02030E-09  8.29272E-09  8.55508E-09  8.74615E-09  8.88208E-09
   9.01574E-09  9.25104E-09  9.61352E-09  1.01059E-08  1.03844E-08  1.06680E-08  1.04200E-08  9.91882E-09  9.87730E-09  1.04165E-08
   1.08347E-08  1.08869E-08  1.05283E-08  9.62261E-09  8.39208E-09  7.46452E-09  6.78430E-09  7.16312E-09  7.29916E-09  6.86731E-09
   6.45814E-09  6.59766E-09  6.66288E-09  6.75669E-09  7.04595E-09  7.09880E-09  6.89128E-09  6.82611E-09  6.88355E-09  6.96677E-09
   7.05428E-09  7.13983E-09  7.22136E-09  7.29824E-09  7.37042E-09  7.43804E-09  7.50129E-09  7.56049E-09  7.61579E-09  7.66750E-09
   7.71576E-09  7.76078E-09  7.80272E-09  7.84175E-09  7.87799E-09  7.91152E-09  7.94251E-09  7.97101E-09  7.99711E-09  8.02090E-09
   8.04242E-09  8.06178E-09  8.07900E-09  8.09413E-09  8.10722E-09  8.11831E-09  8.12745E-09  8.13465E-09  8.13996E-09  8.14342E-09
   8.14502E-09  8.14482E-09  8.14282E-09  8.13904E-09  8.13351E-09  8.12625E-09  8.11724E-09  8.10655E-09  8.09418E-09  8.08012E-09
   8.06441E-09  8.04701E-09  8.02799E-09  8.00731E-09  7.98503E-09  7.96112E-09  7.93562E-09  7.90852E-09  7.87982E-09  7.84962E-09
   7.81773E-09  7.78431E-09  7.74934E-09  7.71285E-09  7.67486E-09  7.63539E-09  7.59445E-09  7.55208E-09  7.50832E-09  7.46317E-09
   7.41668E-09  7.36887E-09  7.31976E-09  7.26940E-09  7.21779E-09  7.16500E-09  7.11103E-09  7.05593E-09  6.99976E-09  6.94253E-09
   6.88430E-09  6.82510E-09  6.76498E-09  6.70405E-09  6.64228E-09  6.57977E-09  6.51660E-09  6.45287E-09  6.38862E-09  6.32401E-09
   6.25915E-09  6.19414E-09  6.12918E-09  6.06453E-09  6.00034E-09  5.93698E-09  5.87488E-09  5.81455E-09  5.75669E-09  5.70234E-09
   5.65286E-09  5.61047E-09  5.57860E-09  5.56325E-09  5.57592E-09  5.64272E-09  5.83975E-09  6.49052E-09  7.69903E-09  8.17436E-09
   8.08107E-09  8.10279E-09  8.52859E-09  9.22834E-09  9.90857E-09  1.04038E-08  1.03600E-08  9.19650E-09  6.63551E-09  4.07531E-09
   3.49677E-09  3.27930E-09  3.14827E-09  3.04567E-09  2.95395E-09  2.86665E-09  2.78105E-09  2.69591E-09  2.61068E-09  2.52509E-09
   2.43904E-09  2.35253E-09  2.26555E-09  2.17817E-09  2.09040E-09  2.00229E-09  1.91393E-09  1.82534E-09  1.73656E-09  1.64767E-09
   1.55869E-09  1.46965E-09  1.38061E-09  1.29161E-09  1.20267E-09  1.11382E-09  1.02511E-09  9.36587E-10  8.48243E-10  7.60118E-10
   6.72245E-10  5.84665E-10  4.97391E-10  4.10460E-10  3.23863E-10  2.37654E-10  1.51865E-10  6.65002E-11 -1.84292E-11 -1.02872E-10
  -1.86810E-10 -2.70231E-10 -3.53115E-10 -4.35451E-10 -5.17223E-10 -5.98361E-10 -6.78906E-10 -7.58820E-10 -8.38059E-10 -9.16628E-10
  -9.94510E-10 -1.07168E-09 -1.14812E-09 -1.22382E-09 -1.29876E-09 -1.37291E-09 -1.44628E-09 -1.51884E-09 -1.59057E-09 -1.66145E-09
