 LCModel (Version 6.3-1R) Copyright: S.W. Provencher.          Ref.: Magn. Reson. Med. 30:672-679 (1993).                
 onepulse 16x6_ftSpec_smooth_lcm
 26 lines in following concentration table = NCONC+1
    Conc.  %SD /Cr+PCr  Metabolite                                         
 1.99E-10 142%   0.397 Ala                                                 
 4.28E-09  12%   8.537 Asp                                                 
    0.000 999%   0.000 Cr                                                  
 2.42E-09  22%   4.828 GABA                                                
 1.78E-09  43%   3.555 Glc                                                 
    0.000 999%   0.000 Gln                                                 
    0.000 999%   0.000 Glu                                                 
    0.000 999%   0.000 Glyc                                                
 2.22E-10  47%   0.443 GPC                                                 
    0.000 999%   0.000 GSH                                                 
 9.15E-10  40%   1.825 Ins                                                 
    0.000 999%   0.000 Lac                                                 
    0.000 999%   0.000 NAAG                                                
 6.08E-10  35%   1.213 NAA                                                 
    0.000 999%   0.000 PCh                                                 
 5.02E-10  57%   1.000 PCr                                                 
    0.000 999%   0.000 PE                                                  
    0.000 999%   0.000 Scyllo                                              
    0.000 999%   0.000 Ser                                                 
 3.84E-10 141%   0.765 Tau                                                 
 2.22E-10  47%   0.443 GPC+PCh                                             
 6.08E-10  35%   1.213 NAA+NAAG                                            
 9.15E-10  40%   1.825 Ins+Glyc                                            
 5.02E-10  57%   1.000 Cr+PCr                                              
    0.000 999%   0.000 Glu+Gln                                             
   6 lines in following misc. output table
  FWHM = 0.123 ppm    S/N =   4                                            
  Data shift = 0.402 ppm                                                   
  Ph: 145 deg       7.8 deg/ppm                                            
  alphaB,S = 1.1E+00,   1.2E+01                                            
    9 spline knots.   Ns = 5(1)                                            
  ( 8) 5 infls.   ( 9) 3 extrs.                                            
  363 points on ppm-axis = NY
      4.250000     4.238821     4.227641     4.216462     4.205282     4.194103     4.182923     4.171744     4.160564     4.149385
      4.138206     4.127026     4.115847     4.104667     4.093488     4.082308     4.071129     4.059949     4.048770     4.037591
      4.026411     4.015232     4.004052     3.992873     3.981693     3.970514     3.959334     3.948155     3.936975     3.925796
      3.914617     3.903437     3.892258     3.881078     3.869899     3.858719     3.847540     3.836360     3.825181     3.814002
      3.802822     3.791643     3.780463     3.769284     3.758104     3.746925     3.735745     3.724566     3.713387     3.702207
      3.691028     3.679848     3.668669     3.657489     3.646310     3.635130     3.623951     3.612772     3.601592     3.590413
      3.579233     3.568054     3.556874     3.545695     3.534515     3.523336     3.512156     3.500977     3.489798     3.478618
      3.467439     3.456259     3.445080     3.433900     3.422721     3.411541     3.400362     3.389183     3.378003     3.366824
      3.355644     3.344465     3.333285     3.322106     3.310926     3.299747     3.288568     3.277388     3.266209     3.255029
      3.243850     3.232670     3.221491     3.210311     3.199132     3.187953     3.176773     3.165594     3.154414     3.143235
      3.132055     3.120876     3.109696     3.098517     3.087337     3.076158     3.064979     3.053799     3.042620     3.031440
      3.020261     3.009081     2.997902     2.986722     2.975543     2.964364     2.953184     2.942005     2.930825     2.919646
      2.908466     2.897287     2.886107     2.874928     2.863749     2.852569     2.841390     2.830210     2.819031     2.807851
      2.796672     2.785492     2.774313     2.763134     2.751954     2.740775     2.729595     2.718416     2.707236     2.696057
      2.684877     2.673698     2.662519     2.651339     2.640160     2.628980     2.617801     2.606621     2.595442     2.584262
      2.573083     2.561903     2.550724     2.539545     2.528365     2.517186     2.506006     2.494827     2.483647     2.472468
      2.461288     2.450109     2.438930     2.427750     2.416571     2.405391     2.394212     2.383032     2.371853     2.360673
      2.349494     2.338315     2.327135     2.315956     2.304776     2.293597     2.282417     2.271238     2.260058     2.248879
      2.237700     2.226520     2.215341     2.204161     2.192982     2.181802     2.170623     2.159443     2.148264     2.137084
      2.125905     2.114726     2.103546     2.092367     2.081187     2.070008     2.058828     2.047649     2.036469     2.025290
      2.014111     2.002931     1.991752     1.980572     1.969393     1.958213     1.947034     1.935854     1.924675     1.913496
      1.902316     1.891137     1.879957     1.868778     1.857598     1.846419     1.835239     1.824060     1.812881     1.801701
      1.790522     1.779342     1.768163     1.756983     1.745804     1.734624     1.723445     1.712265     1.701086     1.689907
      1.678727     1.667548     1.656368     1.645189     1.634009     1.622830     1.611650     1.600471     1.589292     1.578112
      1.566933     1.555753     1.544574     1.533394     1.522215     1.511035     1.499856     1.488677     1.477497     1.466318
      1.455138     1.443959     1.432779     1.421600     1.410420     1.399241     1.388062     1.376882     1.365703     1.354523
      1.343344     1.332164     1.320985     1.309805     1.298626     1.287446     1.276267     1.265088     1.253908     1.242729
      1.231549     1.220370     1.209190     1.198011     1.186831     1.175652     1.164473     1.153293     1.142114     1.130934
      1.119755     1.108575     1.097396     1.086216     1.075037     1.063858     1.052678     1.041499     1.030319     1.019140
      1.007960     0.996781     0.985601     0.974422     0.963243     0.952063     0.940884     0.929704     0.918525     0.907345
      0.896166     0.884986     0.873807     0.862628     0.851448     0.840269     0.829089     0.817910     0.806730     0.795551
      0.784371     0.773192     0.762012     0.750833     0.739654     0.728474     0.717295     0.706115     0.694936     0.683756
      0.672577     0.661397     0.650218     0.639039     0.627859     0.616680     0.605500     0.594321     0.583141     0.571962
      0.560782     0.549603     0.538424     0.527244     0.516065     0.504885     0.493706     0.482526     0.471347     0.460167
      0.448988     0.437809     0.426629     0.415450     0.404270     0.393091     0.381911     0.370732     0.359552     0.348373
      0.337193     0.326014     0.314835     0.303655     0.292476     0.281296     0.270117     0.258937     0.247758     0.236578
      0.225399     0.214220     0.203040
 NY phased data points follow
   1.15283E-08  1.27099E-08  1.04394E-08  1.17926E-08  1.01371E-08  1.22205E-08  9.74055E-09  1.20295E-08  9.99974E-09  1.23342E-08
   1.08993E-08  1.32110E-08  1.11845E-08  1.26586E-08  1.10501E-08  1.30416E-08  1.08494E-08  1.21829E-08  9.83613E-09  1.16875E-08
   1.08287E-08  1.26241E-08  1.11335E-08  1.24424E-08  9.93950E-09  1.10185E-08  9.80661E-09  1.28170E-08  1.22457E-08  1.48393E-08
   1.22971E-08  1.41205E-08  1.15070E-08  1.29448E-08  1.09121E-08  1.27047E-08  1.02602E-08  1.24070E-08  1.05622E-08  1.21103E-08
   1.01750E-08  1.17257E-08  9.89679E-09  1.09435E-08  9.34295E-09  1.05368E-08  8.40263E-09  1.06897E-08  9.13598E-09  1.04434E-08
   8.33951E-09  9.24887E-09  7.44951E-09  8.88799E-09  7.09999E-09  8.59360E-09  6.67322E-09  8.39084E-09  7.89463E-09  1.07586E-08
   1.03662E-08  1.27000E-08  1.09300E-08  1.22779E-08  1.07846E-08  1.15961E-08  9.85530E-09  1.09372E-08  8.66790E-09  1.00041E-08
   7.50882E-09  8.56510E-09  5.36017E-09  6.34285E-09  5.40420E-09  9.20275E-09  1.04066E-08  1.25083E-08  1.19411E-08  1.34312E-08
   1.28980E-08  1.36899E-08  1.21432E-08  1.31288E-08  1.18307E-08  1.33196E-08  1.20248E-08  1.28692E-08  1.17633E-08  1.28092E-08
   1.11098E-08  1.23715E-08  1.07223E-08  1.17093E-08  9.93293E-09  1.08695E-08  9.37143E-09  1.06240E-08  9.54379E-09  1.00264E-08
   8.76707E-09  1.05745E-08  8.94548E-09  1.05240E-08  8.73293E-09  9.38735E-09  7.82825E-09  8.97274E-09  7.21579E-09  8.74837E-09
   7.17625E-09  8.19710E-09  7.07262E-09  8.57910E-09  7.26010E-09  7.88345E-09  7.28659E-09  8.58320E-09  7.77818E-09  8.09189E-09
   7.03276E-09  7.44486E-09  6.10014E-09  6.81919E-09  5.71315E-09  6.91527E-09  5.58306E-09  6.51475E-09  5.55573E-09  7.38665E-09
   6.58537E-09  7.60418E-09  6.36678E-09  6.73186E-09  6.03492E-09  6.99539E-09  7.02127E-09  8.43007E-09  7.92223E-09  8.54500E-09
   7.75108E-09  9.74529E-09  8.78159E-09  9.99862E-09  9.12932E-09  1.07714E-08  1.02122E-08  1.13818E-08  1.05478E-08  1.09151E-08
   1.01930E-08  1.08557E-08  1.04235E-08  1.19172E-08  1.07937E-08  1.18473E-08  1.06424E-08  1.20082E-08  1.11267E-08  1.21993E-08
   1.17468E-08  1.25846E-08  1.23196E-08  1.21363E-08  1.05158E-08  9.36535E-09  1.01692E-08  1.44345E-08  1.74674E-08  1.98933E-08
   2.02861E-08  2.15470E-08  2.20528E-08  2.29661E-08  2.24076E-08  2.27551E-08  2.22201E-08  2.21985E-08  2.00499E-08  2.00989E-08
   1.81319E-08  1.70029E-08  1.43508E-08  1.26590E-08  1.02756E-08  8.08623E-09  5.05747E-09  3.06931E-09  8.65397E-11 -6.64378E-10
  -3.15840E-09 -4.23558E-09 -5.64469E-09 -6.01122E-09 -6.39286E-09 -5.82341E-09 -5.58532E-09 -3.89042E-09 -4.15267E-09 -2.84789E-09
  -2.76230E-09 -1.04177E-09 -1.27386E-09 -1.76689E-10 -9.15481E-10 -3.91683E-10 -2.82086E-10  1.40665E-10 -7.03460E-10 -1.69337E-10
  -1.02158E-09 -3.07080E-11 -5.88800E-10  2.60514E-10 -4.46720E-10  1.38816E-10 -8.14804E-12 -7.70664E-11 -4.74593E-11  2.60672E-10
   3.01593E-10  4.95831E-10  2.14483E-10  3.64407E-10  1.36995E-10  2.03904E-10  7.88596E-10  8.41430E-10  8.03601E-10  1.18642E-09
   7.33611E-10  9.22003E-10  4.26259E-10  9.96090E-10  8.38477E-10  8.04181E-10  4.30272E-10  3.66955E-10  1.74946E-10  3.50892E-10
   5.34716E-10  3.56672E-10 -1.89664E-11  3.36581E-10  4.83207E-10  3.61424E-10  4.31832E-10  7.13186E-10  5.53983E-10  5.08888E-10
   2.43541E-10  4.71239E-10  2.55671E-10  3.51104E-10 -7.67832E-11  7.34929E-11 -7.69236E-11  3.44855E-11 -5.16014E-10 -8.45471E-10
  -6.97660E-10 -1.14405E-09 -1.24006E-09 -1.43102E-09 -1.34466E-09 -1.67929E-09 -1.40542E-09 -1.15510E-09 -1.69353E-09 -1.76723E-09
  -6.67073E-10 -9.08744E-10 -9.54340E-10 -4.62749E-10 -1.39043E-10 -4.12912E-10 -1.63292E-10 -4.57167E-10  2.89969E-10  2.86313E-10
   5.09185E-10  1.06272E-11  7.36490E-10  4.23384E-10  9.16072E-10  6.26128E-10  4.91582E-10  7.81552E-10  8.17253E-10  7.65489E-10
   5.28338E-10  3.91501E-10  6.60692E-10  4.28245E-10  6.82109E-10  1.25958E-10  6.45477E-10  9.76367E-11  8.90706E-10 -2.66639E-10
   4.75890E-10  1.90449E-10  4.13729E-10  2.65005E-10  2.53624E-10 -3.46890E-10  4.17895E-11 -9.24758E-11  1.40187E-10 -1.07445E-10
  -5.08269E-10 -6.21172E-10  1.89710E-10 -6.85012E-10  8.54439E-11 -7.48599E-10 -2.02152E-11 -8.89623E-10 -1.12968E-10 -8.41442E-10
  -1.74615E-10 -8.92626E-10 -1.71656E-10 -6.23046E-10 -5.16339E-10 -8.89917E-10 -3.33866E-10 -1.28695E-09 -3.19257E-10 -1.07890E-09
  -2.10333E-10 -1.42366E-09 -6.90145E-10 -1.13382E-09 -2.72643E-10 -1.45649E-09 -6.83640E-10 -9.55034E-10 -7.44165E-10 -1.66206E-09
  -1.03289E-09 -1.67357E-09 -4.63637E-10 -1.79037E-09 -1.17805E-09 -1.63873E-09 -8.17421E-10 -1.94566E-09 -1.21608E-09 -1.73376E-09
  -1.20765E-09 -1.86513E-09 -1.21544E-09 -1.81844E-09 -1.62010E-09 -2.18387E-09 -1.53371E-09 -2.47558E-09 -1.63114E-09 -1.78216E-09
  -1.84975E-09 -2.67565E-09 -1.74857E-09
 NY points of the fit to the data follow
   1.35672E-08  1.18330E-08  1.02357E-08  1.06011E-08  1.10644E-08  1.07995E-08  1.06350E-08  1.06179E-08  1.08752E-08  1.09327E-08
   1.11970E-08  1.15485E-08  1.19743E-08  1.27682E-08  1.28167E-08  1.19995E-08  1.18152E-08  1.17697E-08  1.09269E-08  1.03986E-08
   1.06597E-08  1.11710E-08  1.15259E-08  1.22057E-08  1.15047E-08  1.05969E-08  1.07160E-08  1.13273E-08  1.20762E-08  1.28849E-08
   1.28497E-08  1.35113E-08  1.37466E-08  1.26480E-08  1.04091E-08  1.10049E-08  1.15199E-08  1.16476E-08  1.13340E-08  1.07171E-08
   9.89719E-09  1.00893E-08  8.75114E-09  7.99660E-09  9.17406E-09  1.07829E-08  9.96579E-09  9.72264E-09  1.00013E-08  1.05515E-08
   1.08530E-08  1.11694E-08  1.11543E-08  1.07009E-08  9.56949E-09  9.27177E-09  7.65830E-09  8.46527E-09  9.36368E-09  9.27992E-09
   9.00812E-09  9.72628E-09  1.02318E-08  1.01311E-08  1.11572E-08  1.20738E-08  1.14923E-08  1.11938E-08  1.11597E-08  1.10891E-08
   1.10219E-08  1.06700E-08  9.86686E-09  9.36402E-09  9.90404E-09  9.38246E-09  8.98653E-09  1.05971E-08  1.09100E-08  1.08371E-08
   1.10763E-08  1.12621E-08  1.15918E-08  1.21039E-08  1.20023E-08  1.21292E-08  1.23709E-08  1.17683E-08  9.98394E-09  1.01625E-08
   1.01139E-08  9.98979E-09  1.04430E-08  1.02231E-08  9.30187E-09  9.60032E-09  9.65959E-09  8.93348E-09  8.92314E-09  9.08411E-09
   9.01649E-09  8.96771E-09  9.04727E-09  9.17071E-09  9.23322E-09  9.25424E-09  9.25571E-09  9.26198E-09  9.27334E-09  9.22831E-09
   9.05256E-09  8.88476E-09  8.96829E-09  8.87439E-09  8.68088E-09  8.66244E-09  8.66958E-09  8.67919E-09  8.68660E-09  8.69067E-09
   8.69087E-09  8.68750E-09  8.68058E-09  8.67025E-09  8.65662E-09  8.63989E-09  8.62017E-09  8.59753E-09  8.57219E-09  8.54423E-09
   8.51372E-09  8.48080E-09  8.44556E-09  8.40813E-09  8.36858E-09  8.32701E-09  8.28351E-09  8.23817E-09  8.19111E-09  8.14241E-09
   8.09221E-09  8.04059E-09  7.98771E-09  7.93370E-09  7.87861E-09  7.82265E-09  7.76599E-09  7.70887E-09  7.65144E-09  7.59403E-09
   7.53694E-09  7.48045E-09  7.42511E-09  7.37150E-09  7.32026E-09  7.27237E-09  7.22914E-09  7.19223E-09  7.16406E-09  7.14827E-09
   7.15023E-09  7.17895E-09  7.24990E-09  7.39315E-09  7.67555E-09  8.28367E-09  9.97084E-09  1.52613E-08  1.91691E-08  2.08071E-08
   2.14084E-08  2.22109E-08  2.30035E-08  2.34083E-08  2.30002E-08  2.30140E-08  2.37380E-08  2.31715E-08  1.43743E-08  7.67712E-09
   5.95383E-09  5.25527E-09  4.86927E-09  4.61189E-09  4.41769E-09  4.25839E-09  4.11998E-09  3.99488E-09  3.87868E-09  3.76870E-09
   3.66319E-09  3.56104E-09  3.46147E-09  3.36397E-09  3.26815E-09  3.17374E-09  3.08058E-09  2.98852E-09  2.89747E-09  2.80737E-09
   2.71817E-09  2.62983E-09  2.54235E-09  2.45573E-09  2.36996E-09  2.28503E-09  2.20096E-09  2.11780E-09  2.03552E-09  1.95414E-09
   1.87368E-09  1.79419E-09  1.71566E-09  1.63814E-09  1.56161E-09  1.48612E-09  1.41169E-09  1.33835E-09  1.26608E-09  1.19495E-09
   1.12497E-09  1.05616E-09  9.88525E-10  9.22090E-10  8.56865E-10  7.92922E-10  7.30215E-10  6.68786E-10  6.08678E-10  5.49883E-10
   4.92420E-10  4.36311E-10  3.81574E-10  3.28209E-10  2.76247E-10  2.25702E-10  1.76574E-10  1.28879E-10  8.26350E-11  3.78637E-11
  -5.44720E-12 -4.72721E-11 -8.76050E-11 -1.26464E-10 -1.63882E-10 -1.99892E-10 -2.34526E-10 -2.67813E-10 -2.99788E-10 -3.30483E-10
  -3.59931E-10 -3.88165E-10 -4.15213E-10 -4.41110E-10 -4.65887E-10 -4.89572E-10 -5.12203E-10 -5.33807E-10 -5.54415E-10 -5.74057E-10
  -5.92764E-10 -6.10570E-10 -6.27500E-10 -6.43584E-10 -6.58854E-10 -6.73336E-10 -6.87057E-10 -7.00050E-10 -7.12342E-10 -7.23955E-10
  -7.34924E-10 -7.45268E-10 -7.55019E-10 -7.64197E-10 -7.72832E-10 -7.80946E-10 -7.88565E-10 -7.95710E-10 -8.02405E-10 -8.08673E-10
  -8.14534E-10 -8.20019E-10 -8.25136E-10 -8.29909E-10 -8.34359E-10 -8.38509E-10 -8.42366E-10 -8.45956E-10 -8.49300E-10 -8.52408E-10
  -8.55294E-10 -8.57970E-10 -8.60462E-10 -8.62775E-10 -8.64923E-10 -8.66924E-10 -8.68780E-10 -8.70502E-10 -8.72102E-10 -8.73589E-10
  -8.74978E-10 -8.76271E-10 -8.77464E-10 -8.78566E-10 -8.79553E-10 -8.80403E-10 -8.81095E-10 -8.81611E-10 -8.81927E-10 -8.82028E-10
  -8.81890E-10 -8.81496E-10 -8.80825E-10 -8.79860E-10 -8.78581E-10 -8.76970E-10 -8.75009E-10 -8.72682E-10 -8.69969E-10 -8.66856E-10
  -8.63323E-10 -8.59356E-10 -8.54939E-10 -8.50056E-10 -8.44692E-10 -8.38830E-10 -8.32457E-10 -8.25558E-10 -8.18123E-10 -8.10132E-10
  -8.01578E-10 -7.92448E-10 -7.82723E-10 -7.72396E-10 -7.61459E-10 -7.49894E-10 -7.37693E-10 -7.24847E-10 -7.11345E-10 -6.97176E-10
  -6.82334E-10 -6.66807E-10 -6.50589E-10 -6.33672E-10 -6.16049E-10 -5.97711E-10 -5.78652E-10 -5.58868E-10 -5.38352E-10 -5.17099E-10
  -4.95103E-10 -4.72362E-10 -4.48870E-10 -4.24626E-10 -3.99624E-10 -3.73864E-10 -3.47343E-10 -3.20059E-10 -2.92012E-10 -2.63202E-10
  -2.33625E-10 -2.03286E-10 -1.72182E-10
 NY background values follow
     4.258E-09    4.395E-09    4.530E-09    4.664E-09    4.796E-09    4.926E-09    5.055E-09    5.181E-09    5.307E-09    5.430E-09
     5.552E-09    5.673E-09    5.791E-09    5.908E-09    6.023E-09    6.137E-09    6.249E-09    6.359E-09    6.467E-09    6.574E-09
     6.679E-09    6.782E-09    6.884E-09    6.984E-09    7.082E-09    7.178E-09    7.273E-09    7.366E-09    7.458E-09    7.547E-09
     7.635E-09    7.722E-09    7.806E-09    7.889E-09    7.970E-09    8.050E-09    8.127E-09    8.203E-09    8.278E-09    8.351E-09
     8.422E-09    8.491E-09    8.559E-09    8.625E-09    8.689E-09    8.752E-09    8.813E-09    8.873E-09    8.930E-09    8.987E-09
     9.041E-09    9.094E-09    9.145E-09    9.195E-09    9.243E-09    9.290E-09    9.335E-09    9.378E-09    9.420E-09    9.460E-09
     9.499E-09    9.536E-09    9.572E-09    9.606E-09    9.639E-09    9.670E-09    9.699E-09    9.727E-09    9.754E-09    9.778E-09
     9.802E-09    9.824E-09    9.844E-09    9.862E-09    9.879E-09    9.895E-09    9.909E-09    9.921E-09    9.932E-09    9.941E-09
     9.949E-09    9.955E-09    9.960E-09    9.963E-09    9.964E-09    9.964E-09    9.962E-09    9.958E-09    9.953E-09    9.947E-09
     9.938E-09    9.928E-09    9.917E-09    9.904E-09    9.889E-09    9.872E-09    9.854E-09    9.835E-09    9.813E-09    9.790E-09
     9.766E-09    9.739E-09    9.711E-09    9.682E-09    9.650E-09    9.617E-09    9.583E-09    9.546E-09    9.508E-09    9.468E-09
     9.427E-09    9.384E-09    9.339E-09    9.292E-09    9.244E-09    9.194E-09    9.142E-09    9.089E-09    9.033E-09    8.977E-09
     8.918E-09    8.857E-09    8.795E-09    8.731E-09    8.666E-09    8.599E-09    8.530E-09    8.460E-09    8.388E-09    8.314E-09
     8.239E-09    8.162E-09    8.084E-09    8.005E-09    7.924E-09    7.842E-09    7.758E-09    7.673E-09    7.587E-09    7.500E-09
     7.411E-09    7.321E-09    7.230E-09    7.138E-09    7.045E-09    6.950E-09    6.855E-09    6.759E-09    6.661E-09    6.563E-09
     6.464E-09    6.364E-09    6.263E-09    6.162E-09    6.059E-09    5.956E-09    5.853E-09    5.748E-09    5.643E-09    5.538E-09
     5.432E-09    5.325E-09    5.218E-09    5.111E-09    5.003E-09    4.895E-09    4.786E-09    4.678E-09    4.569E-09    4.460E-09
     4.350E-09    4.241E-09    4.131E-09    4.021E-09    3.912E-09    3.802E-09    3.693E-09    3.583E-09    3.474E-09    3.365E-09
     3.256E-09    3.147E-09    3.038E-09    2.930E-09    2.822E-09    2.715E-09    2.608E-09    2.501E-09    2.395E-09    2.290E-09
     2.185E-09    2.080E-09    1.976E-09    1.873E-09    1.770E-09    1.668E-09    1.567E-09    1.467E-09    1.367E-09    1.268E-09
     1.170E-09    1.073E-09    9.764E-10    8.810E-10    7.866E-10    6.931E-10    6.007E-10    5.093E-10    4.189E-10    3.297E-10
     2.415E-10    1.545E-10    6.860E-11   -1.608E-11   -9.957E-11   -1.818E-10   -2.628E-10   -3.425E-10   -4.210E-10   -4.981E-10
    -5.739E-10   -6.483E-10   -7.213E-10   -7.930E-10   -8.632E-10   -9.320E-10   -9.993E-10   -1.065E-09   -1.130E-09   -1.192E-09
    -1.254E-09   -1.314E-09   -1.372E-09   -1.429E-09   -1.484E-09   -1.537E-09   -1.589E-09   -1.640E-09   -1.688E-09   -1.735E-09
    -1.781E-09   -1.825E-09   -1.867E-09   -1.907E-09   -1.946E-09   -1.984E-09   -2.019E-09   -2.054E-09   -2.087E-09   -2.118E-09
    -2.148E-09   -2.177E-09   -2.204E-09   -2.230E-09   -2.255E-09   -2.278E-09   -2.300E-09   -2.321E-09   -2.341E-09   -2.360E-09
    -2.378E-09   -2.395E-09   -2.410E-09   -2.425E-09   -2.439E-09   -2.452E-09   -2.464E-09   -2.475E-09   -2.485E-09   -2.495E-09
    -2.503E-09   -2.511E-09   -2.519E-09   -2.525E-09   -2.531E-09   -2.536E-09   -2.541E-09   -2.545E-09   -2.548E-09   -2.551E-09
    -2.553E-09   -2.555E-09   -2.556E-09   -2.557E-09   -2.558E-09   -2.558E-09   -2.558E-09   -2.557E-09   -2.556E-09   -2.554E-09
    -2.552E-09   -2.550E-09   -2.548E-09   -2.545E-09   -2.542E-09   -2.539E-09   -2.536E-09   -2.532E-09   -2.528E-09   -2.524E-09
    -2.520E-09   -2.515E-09   -2.511E-09   -2.506E-09   -2.501E-09   -2.495E-09   -2.490E-09   -2.484E-09   -2.478E-09   -2.471E-09
    -2.465E-09   -2.457E-09   -2.450E-09   -2.442E-09   -2.434E-09   -2.425E-09   -2.416E-09   -2.407E-09   -2.397E-09   -2.386E-09
    -2.375E-09   -2.364E-09   -2.351E-09   -2.339E-09   -2.326E-09   -2.312E-09   -2.298E-09   -2.283E-09   -2.267E-09   -2.251E-09
    -2.234E-09   -2.217E-09   -2.199E-09   -2.180E-09   -2.161E-09   -2.141E-09   -2.120E-09   -2.098E-09   -2.076E-09   -2.053E-09
    -2.029E-09   -2.005E-09   -1.980E-09   -1.954E-09   -1.927E-09   -1.900E-09   -1.871E-09   -1.842E-09   -1.812E-09   -1.782E-09
    -1.750E-09   -1.718E-09   -1.685E-09   -1.651E-09   -1.617E-09   -1.581E-09   -1.545E-09   -1.508E-09   -1.470E-09   -1.431E-09
    -1.392E-09   -1.352E-09   -1.311E-09
 Ala      Conc. = 1.99E-10
   4.39442E-09  4.51489E-09  4.63877E-09  4.75381E-09  4.86860E-09  4.99722E-09  5.09603E-09  5.17087E-09  5.32425E-09  5.44929E-09
   5.50904E-09  5.64145E-09  5.77708E-09  5.87859E-09  5.99514E-09  6.11404E-09  6.23137E-09  6.34651E-09  6.45942E-09  6.57015E-09
   6.67875E-09  6.78530E-09  6.88984E-09  6.99242E-09  7.09309E-09  7.19188E-09  7.28878E-09  7.38385E-09  7.47712E-09  7.56855E-09
   7.65821E-09  7.74607E-09  7.83217E-09  7.91653E-09  7.99911E-09  8.07996E-09  8.15908E-09  8.23649E-09  8.31217E-09  8.38616E-09
   8.45842E-09  8.52900E-09  8.59790E-09  8.66514E-09  8.73068E-09  8.79458E-09  8.85682E-09  8.91739E-09  8.97636E-09  9.03370E-09
   9.08941E-09  9.14348E-09  9.19598E-09  9.24688E-09  9.29618E-09  9.34389E-09  9.39004E-09  9.43467E-09  9.47771E-09  9.51928E-09
   9.55929E-09  9.59778E-09  9.63478E-09  9.67027E-09  9.70426E-09  9.73675E-09  9.76774E-09  9.79726E-09  9.82527E-09  9.85180E-09
   9.87686E-09  9.90044E-09  9.92255E-09  9.94319E-09  9.96239E-09  9.98015E-09  9.99644E-09  1.00114E-08  1.00248E-08  1.00369E-08
   1.00477E-08  1.00570E-08  1.00651E-08  1.00719E-08  1.00775E-08  1.00818E-08  1.00851E-08  1.00874E-08  1.00888E-08  1.00894E-08
   1.00894E-08  1.00892E-08  1.00891E-08  1.00897E-08  1.00917E-08  1.00966E-08  1.01066E-08  1.01263E-08  1.01662E-08  1.02556E-08
   1.03315E-08  1.03051E-08  1.03493E-08  1.04144E-08  1.04086E-08  1.03577E-08  1.02863E-08  1.02200E-08  1.01598E-08  1.00444E-08
   9.79961E-09  9.56517E-09  9.58406E-09  9.42744E-09  9.17313E-09  9.09535E-09  9.04454E-09  8.99790E-09  8.95060E-09  8.90144E-09
   8.84983E-09  8.79589E-09  8.73960E-09  8.68107E-09  8.62035E-09  8.55756E-09  8.49274E-09  8.42598E-09  8.35737E-09  8.28694E-09
   8.21476E-09  8.14090E-09  8.06537E-09  7.98825E-09  7.90958E-09  7.82941E-09  7.74775E-09  7.66468E-09  7.58025E-09  7.49445E-09
   7.40738E-09  7.31903E-09  7.22945E-09  7.13874E-09  7.04685E-09  6.95384E-09  6.85978E-09  6.76471E-09  6.66863E-09  6.57163E-09
   6.47375E-09  6.37497E-09  6.27539E-09  6.17509E-09  6.07403E-09  5.97230E-09  5.87000E-09  5.76717E-09  5.66387E-09  5.56028E-09
   5.45645E-09  5.35270E-09  5.24937E-09  5.14724E-09  5.04805E-09  4.95730E-09  4.90169E-09  4.90844E-09  4.84097E-09  4.75477E-09
   4.65385E-09  4.56569E-09  4.46911E-09  4.36466E-09  4.24594E-09  4.14851E-09  4.05478E-09  3.89774E-09  3.57714E-09  3.41925E-09
   3.29502E-09  3.17963E-09  3.06774E-09  2.95767E-09  2.84872E-09  2.74059E-09  2.63316E-09  2.52634E-09  2.42011E-09  2.31448E-09
   2.20942E-09  2.10498E-09  2.00116E-09  1.89800E-09  1.79551E-09  1.69370E-09  1.59264E-09  1.49233E-09  1.39279E-09  1.29407E-09
   1.19620E-09  1.09917E-09  1.00304E-09  9.07841E-10  8.13579E-10  7.20290E-10  6.27996E-10  5.36756E-10  4.46552E-10  3.57421E-10
   2.69393E-10  1.82507E-10  9.67739E-11  1.22283E-11 -7.11400E-11 -1.53277E-10 -2.34151E-10 -3.13760E-10 -3.92095E-10 -4.69103E-10
  -5.44768E-10 -6.19078E-10 -6.92015E-10 -7.63568E-10 -8.33723E-10 -9.02411E-10 -9.69677E-10 -1.03548E-09 -1.09978E-09 -1.16259E-09
  -1.22388E-09 -1.28365E-09 -1.34186E-09 -1.39853E-09 -1.45362E-09 -1.50712E-09 -1.55904E-09 -1.60935E-09 -1.65804E-09 -1.70509E-09
  -1.75052E-09 -1.79430E-09 -1.83642E-09 -1.87691E-09 -1.91580E-09 -1.95312E-09 -1.98890E-09 -2.02319E-09 -2.05601E-09 -2.08740E-09
  -2.11738E-09 -2.14601E-09 -2.17329E-09 -2.19928E-09 -2.22401E-09 -2.24749E-09 -2.26978E-09 -2.29090E-09 -2.31088E-09 -2.32975E-09
  -2.34755E-09 -2.36431E-09 -2.38006E-09 -2.39482E-09 -2.40864E-09 -2.42153E-09 -2.43353E-09 -2.44468E-09 -2.45499E-09 -2.46449E-09
  -2.47322E-09 -2.48120E-09 -2.48846E-09 -2.49503E-09 -2.50092E-09 -2.50617E-09 -2.51081E-09 -2.51485E-09 -2.51833E-09 -2.52125E-09
  -2.52365E-09 -2.52556E-09 -2.52699E-09 -2.52796E-09 -2.52849E-09 -2.52861E-09 -2.52833E-09 -2.52767E-09 -2.52665E-09 -2.52529E-09
  -2.52360E-09 -2.52159E-09 -2.51930E-09 -2.51672E-09 -2.51387E-09 -2.51077E-09 -2.50743E-09 -2.50385E-09 -2.50005E-09 -2.49604E-09
  -2.49184E-09 -2.48744E-09 -2.48285E-09 -2.47807E-09 -2.47308E-09 -2.46786E-09 -2.46239E-09 -2.45666E-09 -2.45063E-09 -2.44430E-09
  -2.43765E-09 -2.43065E-09 -2.42329E-09 -2.41555E-09 -2.40741E-09 -2.39886E-09 -2.38987E-09 -2.38044E-09 -2.37053E-09 -2.36015E-09
  -2.34928E-09 -2.33789E-09 -2.32597E-09 -2.31351E-09 -2.30050E-09 -2.28691E-09 -2.27274E-09 -2.25797E-09 -2.24259E-09 -2.22659E-09
  -2.20996E-09 -2.19268E-09 -2.17474E-09 -2.15613E-09 -2.13684E-09 -2.11687E-09 -2.09619E-09 -2.07480E-09 -2.05270E-09 -2.02987E-09
  -2.00630E-09 -1.98199E-09 -1.95693E-09 -1.93112E-09 -1.90454E-09 -1.87720E-09 -1.84907E-09 -1.82017E-09 -1.79049E-09 -1.76001E-09
  -1.72874E-09 -1.69668E-09 -1.66381E-09 -1.63015E-09 -1.59568E-09 -1.56041E-09 -1.52433E-09 -1.48744E-09 -1.44974E-09 -1.41124E-09
  -1.37194E-09 -1.33183E-09 -1.29091E-09
 Asp      Conc. = 4.28E-09
   5.53332E-09  4.69407E-09  4.12260E-09  3.93719E-09  3.96059E-09  3.63022E-09  3.84750E-09  3.50436E-09  3.92163E-09  4.35346E-09
   4.73345E-09  5.06887E-09  5.37224E-09  5.65565E-09  5.91965E-09  6.15985E-09  6.38765E-09  6.60598E-09  6.81678E-09  7.02156E-09
   7.22164E-09  7.41816E-09  7.61220E-09  7.80477E-09  7.99688E-09  8.18957E-09  8.38393E-09  8.58128E-09  8.78308E-09  8.99109E-09
   9.20760E-09  9.43549E-09  9.67878E-09  9.94322E-09  1.02375E-08  1.05753E-08  1.09739E-08  1.12979E-08  1.15664E-08  1.16654E-08
   1.17842E-08  1.20354E-08  1.24997E-08  1.32527E-08  1.36654E-08  1.44819E-08  1.40595E-08  1.35014E-08  1.32563E-08  1.33625E-08
   1.32100E-08  1.31779E-08  1.28470E-08  1.22021E-08  1.07827E-08  1.01992E-08  8.18276E-09  8.62238E-09  9.19277E-09  8.85477E-09
   8.13100E-09  8.32486E-09  8.31765E-09  8.12851E-09  8.50125E-09  8.85059E-09  8.49390E-09  8.37000E-09  8.41065E-09  8.49010E-09
   8.57873E-09  8.66733E-09  8.75260E-09  8.83328E-09  8.90901E-09  8.97978E-09  9.04567E-09  9.10695E-09  9.16377E-09  9.21643E-09
   9.26507E-09  9.30991E-09  9.35111E-09  9.38887E-09  9.42332E-09  9.45455E-09  9.48274E-09  9.50795E-09  9.53028E-09  9.54984E-09
   9.56668E-09  9.58092E-09  9.59258E-09  9.60171E-09  9.60838E-09  9.61264E-09  9.61453E-09  9.61409E-09  9.61134E-09  9.60636E-09
   9.59912E-09  9.58968E-09  9.57807E-09  9.56429E-09  9.54838E-09  9.53036E-09  9.51022E-09  9.48802E-09  9.46377E-09  9.43744E-09
   9.40912E-09  9.37871E-09  9.34633E-09  9.31191E-09  9.27553E-09  9.23714E-09  9.19680E-09  9.15449E-09  9.11021E-09  9.06407E-09
   9.01586E-09  8.96575E-09  8.91373E-09  8.85983E-09  8.80407E-09  8.74651E-09  8.68715E-09  8.62605E-09  8.56325E-09  8.49877E-09
   8.43266E-09  8.36496E-09  8.29569E-09  8.22492E-09  8.15266E-09  8.07898E-09  8.00389E-09  7.92746E-09  7.84975E-09  7.77076E-09
   7.69060E-09  7.60927E-09  7.52686E-09  7.44345E-09  7.35904E-09  7.27372E-09  7.18758E-09  7.10074E-09  7.01321E-09  6.92518E-09
   6.83675E-09  6.74802E-09  6.65920E-09  6.57055E-09  6.48223E-09  6.39462E-09  6.30819E-09  6.22350E-09  6.14133E-09  6.06294E-09
   5.98997E-09  5.92533E-09  5.87371E-09  5.84395E-09  5.85443E-09  5.95138E-09  6.28955E-09  7.64484E-09  9.59994E-09  1.02791E-08
   1.05675E-08  1.06988E-08  1.09951E-08  1.11317E-08  1.10434E-08  1.08252E-08  1.09902E-08  1.10829E-08  9.12902E-09  5.30542E-09
   4.33029E-09  3.92188E-09  3.67470E-09  3.49128E-09  3.33853E-09  3.20259E-09  3.07678E-09  2.95750E-09  2.84271E-09  2.73118E-09
   2.62210E-09  2.51498E-09  2.40946E-09  2.30535E-09  2.20246E-09  2.10067E-09  1.99995E-09  1.90022E-09  1.80146E-09  1.70366E-09
   1.60681E-09  1.51089E-09  1.41593E-09  1.32194E-09  1.22891E-09  1.13688E-09  1.04584E-09  9.55859E-10  8.66905E-10  7.79012E-10
   6.92204E-10  6.06518E-10  5.21960E-10  4.38566E-10  3.56320E-10  2.75276E-10  1.95464E-10  1.16884E-10  3.95450E-11 -3.65009E-11
  -1.11239E-10 -1.84656E-10 -2.56736E-10 -3.27469E-10 -3.96840E-10 -4.64779E-10 -5.31332E-10 -5.96460E-10 -6.60121E-10 -7.22324E-10
  -7.83054E-10 -8.42287E-10 -9.00007E-10 -9.56216E-10 -1.01088E-09 -1.06400E-09 -1.11556E-09 -1.16555E-09 -1.21396E-09 -1.26077E-09
