 LCModel (Version 6.3-1R) Copyright: S.W. Provencher.          Ref.: Magn. Reson. Med. 30:672-679 (1993).                
 onepulse 16x7_ftSpec_smooth_lcm
 26 lines in following concentration table = NCONC+1
    Conc.  %SD /Cr+PCr  Metabolite                                         
 8.08E-10  40%   4.861 Ala                                                 
 4.94E-09  19%  29.733 Asp                                                 
    0.000 999%   0.000 Cr                                                  
 3.32E-09  22%  19.974 GABA                                                
 6.56E-10 210%   3.945 Glc                                                 
    0.000 999%   0.000 Gln                                                 
    0.000 999%   0.000 Glu                                                 
    0.000 999%   0.000 Glyc                                                
 5.18E-11 535%   0.311 GPC                                                 
    0.000 999%   0.000 GSH                                                 
 6.02E-10  75%   3.619 Ins                                                 
    0.000 999%   0.000 Lac                                                 
    0.000 999%   0.000 NAAG                                                
 7.03E-10  35%   4.225 NAA                                                 
    0.000 999%   0.000 PCh                                                 
 1.66E-10 190%   1.000 PCr                                                 
 2.31E-11 999%   0.139 PE                                                  
    0.000 999%   0.000 Scyllo                                              
 4.60E-11 999%   0.277 Ser                                                 
 7.59E-10 197%   4.562 Tau                                                 
 5.18E-11 535%   0.311 GPC+PCh                                             
 7.03E-10  35%   4.225 NAA+NAAG                                            
 6.02E-10  75%   3.619 Ins+Glyc                                            
 1.66E-10 190%   1.000 Cr+PCr                                              
    0.000 999%   0.000 Glu+Gln                                             
   6 lines in following misc. output table
  FWHM = 0.123 ppm    S/N =   4                                            
  Data shift = 0.402 ppm                                                   
  Ph:-166 deg      34.7 deg/ppm                                            
  alphaB,S = 2.2E-01,   3.1E+00                                            
   12 spline knots.   Ns = 5(1)                                            
  (12) 5 infls.   (11) 1 extrs.                                            
  363 points on ppm-axis = NY
      4.250000     4.238821     4.227641     4.216462     4.205282     4.194103     4.182923     4.171744     4.160564     4.149385
      4.138206     4.127026     4.115847     4.104667     4.093488     4.082308     4.071129     4.059949     4.048770     4.037591
      4.026411     4.015232     4.004052     3.992873     3.981693     3.970514     3.959334     3.948155     3.936975     3.925796
      3.914617     3.903437     3.892258     3.881078     3.869899     3.858719     3.847540     3.836360     3.825181     3.814002
      3.802822     3.791643     3.780463     3.769284     3.758104     3.746925     3.735745     3.724566     3.713387     3.702207
      3.691028     3.679848     3.668669     3.657489     3.646310     3.635130     3.623951     3.612772     3.601592     3.590413
      3.579233     3.568054     3.556874     3.545695     3.534515     3.523336     3.512156     3.500977     3.489798     3.478618
      3.467439     3.456259     3.445080     3.433900     3.422721     3.411541     3.400362     3.389183     3.378003     3.366824
      3.355644     3.344465     3.333285     3.322106     3.310926     3.299747     3.288568     3.277388     3.266209     3.255029
      3.243850     3.232670     3.221491     3.210311     3.199132     3.187953     3.176773     3.165594     3.154414     3.143235
      3.132055     3.120876     3.109696     3.098517     3.087337     3.076158     3.064979     3.053799     3.042620     3.031440
      3.020261     3.009081     2.997902     2.986722     2.975543     2.964364     2.953184     2.942005     2.930825     2.919646
      2.908466     2.897287     2.886107     2.874928     2.863749     2.852569     2.841390     2.830210     2.819031     2.807851
      2.796672     2.785492     2.774313     2.763134     2.751954     2.740775     2.729595     2.718416     2.707236     2.696057
      2.684877     2.673698     2.662519     2.651339     2.640160     2.628980     2.617801     2.606621     2.595442     2.584262
      2.573083     2.561903     2.550724     2.539545     2.528365     2.517186     2.506006     2.494827     2.483647     2.472468
      2.461288     2.450109     2.438930     2.427750     2.416571     2.405391     2.394212     2.383032     2.371853     2.360673
      2.349494     2.338315     2.327135     2.315956     2.304776     2.293597     2.282417     2.271238     2.260058     2.248879
      2.237700     2.226520     2.215341     2.204161     2.192982     2.181802     2.170623     2.159443     2.148264     2.137084
      2.125905     2.114726     2.103546     2.092367     2.081187     2.070008     2.058828     2.047649     2.036469     2.025290
      2.014111     2.002931     1.991752     1.980572     1.969393     1.958213     1.947034     1.935854     1.924675     1.913496
      1.902316     1.891137     1.879957     1.868778     1.857598     1.846419     1.835239     1.824060     1.812881     1.801701
      1.790522     1.779342     1.768163     1.756983     1.745804     1.734624     1.723445     1.712265     1.701086     1.689907
      1.678727     1.667548     1.656368     1.645189     1.634009     1.622830     1.611650     1.600471     1.589292     1.578112
      1.566933     1.555753     1.544574     1.533394     1.522215     1.511035     1.499856     1.488677     1.477497     1.466318
      1.455138     1.443959     1.432779     1.421600     1.410420     1.399241     1.388062     1.376882     1.365703     1.354523
      1.343344     1.332164     1.320985     1.309805     1.298626     1.287446     1.276267     1.265088     1.253908     1.242729
      1.231549     1.220370     1.209190     1.198011     1.186831     1.175652     1.164473     1.153293     1.142114     1.130934
      1.119755     1.108575     1.097396     1.086216     1.075037     1.063858     1.052678     1.041499     1.030319     1.019140
      1.007960     0.996781     0.985601     0.974422     0.963243     0.952063     0.940884     0.929704     0.918525     0.907345
      0.896166     0.884986     0.873807     0.862628     0.851448     0.840269     0.829089     0.817910     0.806730     0.795551
      0.784371     0.773192     0.762012     0.750833     0.739654     0.728474     0.717295     0.706115     0.694936     0.683756
      0.672577     0.661397     0.650218     0.639039     0.627859     0.616680     0.605500     0.594321     0.583141     0.571962
      0.560782     0.549603     0.538424     0.527244     0.516065     0.504885     0.493706     0.482526     0.471347     0.460167
      0.448988     0.437809     0.426629     0.415450     0.404270     0.393091     0.381911     0.370732     0.359552     0.348373
      0.337193     0.326014     0.314835     0.303655     0.292476     0.281296     0.270117     0.258937     0.247758     0.236578
      0.225399     0.214220     0.203040
 NY phased data points follow
   4.45075E-09  5.76785E-09  3.86744E-09  4.78811E-09  2.90493E-09  4.75268E-09  2.70387E-09  4.27631E-09  2.77995E-09  4.26408E-09
   3.45692E-09  5.69401E-09  4.75715E-09  5.74982E-09  4.76423E-09  6.42185E-09  5.32072E-09  6.23715E-09  4.47859E-09  4.91580E-09
   4.43174E-09  6.23894E-09  5.73904E-09  7.13542E-09  5.19403E-09  5.22084E-09  3.43902E-09  5.75882E-09  5.81962E-09  9.07057E-09
   8.01635E-09  9.87587E-09  8.23154E-09  9.08995E-09  7.67667E-09  9.17736E-09  7.44630E-09  8.59935E-09  7.96823E-09  8.76930E-09
   7.79214E-09  8.75323E-09  7.69608E-09  8.20766E-09  7.04729E-09  7.84430E-09  5.99962E-09  7.36791E-09  6.80869E-09  7.70122E-09
   6.21381E-09  6.46836E-09  4.90208E-09  5.53544E-09  4.12706E-09  4.95661E-09  3.23657E-09  3.73160E-09  3.14861E-09  5.81336E-09
   6.54215E-09  9.16889E-09  8.70121E-09  9.58621E-09  8.92075E-09  9.31324E-09  8.32137E-09  9.14543E-09  7.29033E-09  8.05900E-09
   6.03933E-09  6.64375E-09  3.48781E-09  2.78133E-09  1.11416E-09  3.89354E-09  6.99274E-09  9.40401E-09  9.76675E-09  1.10532E-08
   1.14022E-08  1.22827E-08  1.14722E-08  1.19340E-08  1.12913E-08  1.23607E-08  1.19508E-08  1.21426E-08  1.20550E-08  1.25355E-08
   1.16998E-08  1.24693E-08  1.13324E-08  1.17153E-08  1.08676E-08  1.09617E-08  9.84883E-09  1.04052E-08  1.02402E-08  1.03137E-08
   9.31292E-09  1.06551E-08  9.77289E-09  1.07900E-08  9.68533E-09  9.54065E-09  8.52798E-09  8.94446E-09  7.61550E-09  8.60162E-09
   7.78486E-09  8.05109E-09  7.57517E-09  8.57621E-09  7.91636E-09  7.99349E-09  7.83898E-09  8.80550E-09  8.62082E-09  8.45788E-09
   7.76205E-09  7.68808E-09  6.53099E-09  6.73752E-09  6.25355E-09  6.86990E-09  5.71881E-09  6.31560E-09  5.88264E-09  7.31091E-09
   6.80236E-09  7.47995E-09  6.68597E-09  6.48882E-09  6.15043E-09  6.52676E-09  7.37424E-09  8.60233E-09  8.55947E-09  8.74131E-09
   8.11667E-09  9.93783E-09  9.44161E-09  1.03583E-08  9.93177E-09  1.10934E-08  1.08197E-08  1.18335E-08  1.10707E-08  1.11776E-08
   1.06635E-08  1.12278E-08  1.09751E-08  1.20974E-08  1.11219E-08  1.19656E-08  1.09035E-08  1.18733E-08  1.11649E-08  1.20258E-08
   1.15753E-08  1.20989E-08  1.16511E-08  1.14117E-08  9.29354E-09  7.76652E-09  1.00665E-08  1.56171E-08  1.94484E-08  2.17258E-08
   2.16665E-08  2.24453E-08  2.29428E-08  2.30000E-08  2.22559E-08  2.18897E-08  2.12384E-08  2.02830E-08  1.80650E-08  1.74763E-08
   1.51787E-08  1.33422E-08  1.03428E-08  8.22048E-09  5.31289E-09  2.54989E-09 -5.99085E-10 -3.17812E-09 -5.91224E-09 -6.81896E-09
  -9.37232E-09 -1.00883E-08 -1.14255E-08 -1.15389E-08 -1.12771E-08 -1.03502E-08 -9.54541E-09 -7.93551E-09 -8.09069E-09 -6.28806E-09
  -5.72095E-09 -3.84027E-09 -4.09416E-09 -2.89979E-09 -3.61595E-09 -2.58094E-09 -2.73576E-09 -2.38464E-09 -3.52416E-09 -2.66757E-09
  -3.58045E-09 -2.23509E-09 -2.99952E-09 -2.10712E-09 -3.19342E-09 -2.08536E-09 -2.57289E-09 -2.23615E-09 -2.49805E-09 -2.01432E-09
  -2.30428E-09 -1.89453E-09 -2.53359E-09 -2.26491E-09 -2.82309E-09 -2.02986E-09 -1.95653E-09 -1.76302E-09 -2.01384E-09 -1.81231E-09
  -2.56531E-09 -1.86607E-09 -2.63773E-09 -1.63011E-09 -2.31513E-09 -2.31506E-09 -3.03170E-09 -2.55741E-09 -3.13471E-09 -2.32859E-09
  -2.85864E-09 -2.72133E-09 -3.03055E-09 -2.07282E-09 -2.48085E-09 -1.95930E-09 -2.38218E-09 -1.76462E-09 -2.55828E-09 -2.15097E-09
  -2.89185E-09 -2.20346E-09 -3.03961E-09 -2.54799E-09 -3.36672E-09 -2.62814E-09 -3.51599E-09 -3.00566E-09 -4.31349E-09 -3.62253E-09
  -4.30104E-09 -3.89746E-09 -4.54302E-09 -3.85843E-09 -4.17565E-09 -3.64085E-09 -3.77957E-09 -3.20731E-09 -4.16942E-09 -2.45607E-09
  -2.27262E-09 -2.47558E-09 -2.68700E-09 -1.54605E-09 -2.38086E-09 -1.91477E-09 -2.50459E-09 -1.77507E-09 -1.93149E-09 -1.69599E-09
  -2.28482E-09 -2.09172E-09 -2.00473E-09 -2.04683E-09 -2.38621E-09 -2.54982E-09 -2.88993E-09 -2.41246E-09 -3.21003E-09 -2.81154E-09
  -3.69426E-09 -2.85958E-09 -3.58440E-09 -3.16066E-09 -3.83046E-09 -3.44836E-09 -4.18015E-09 -3.57661E-09 -4.20493E-09 -4.14802E-09
  -4.20323E-09 -4.15259E-09 -4.63766E-09 -4.36201E-09 -5.19134E-09 -4.61581E-09 -4.99152E-09 -4.73240E-09 -5.22766E-09 -4.88770E-09
  -5.85190E-09 -4.33255E-09 -5.42354E-09 -5.01886E-09 -5.55614E-09 -5.29387E-09 -5.67937E-09 -5.23451E-09 -5.73834E-09 -5.44597E-09
  -5.76444E-09 -5.41773E-09 -5.66865E-09 -5.63138E-09 -6.33455E-09 -5.40055E-09 -6.30392E-09 -5.91824E-09 -6.09619E-09 -5.82865E-09
  -6.26208E-09 -6.21224E-09 -5.99827E-09 -5.84207E-09 -6.41089E-09 -6.33462E-09 -6.04403E-09 -6.35519E-09 -7.01525E-09 -6.45182E-09
  -6.63547E-09 -6.13935E-09 -6.48063E-09 -6.97164E-09 -6.56987E-09 -6.19534E-09 -6.51170E-09 -6.67814E-09 -6.42292E-09 -6.56240E-09
  -6.57918E-09 -6.67309E-09 -6.57854E-09 -6.67838E-09 -6.90798E-09 -6.53415E-09 -6.93613E-09 -6.62635E-09 -6.17704E-09 -6.62705E-09
  -6.93067E-09 -6.35679E-09 -6.26551E-09
 NY points of the fit to the data follow
   6.50631E-09  5.90801E-09  3.93022E-09  3.93543E-09  4.13152E-09  3.28925E-09  3.94960E-09  3.15917E-09  3.37828E-09  4.02793E-09
   4.14705E-09  4.48944E-09  5.04438E-09  5.64256E-09  5.95623E-09  5.57249E-09  5.46273E-09  5.63318E-09  5.33249E-09  4.97703E-09
   4.97160E-09  5.45703E-09  5.56865E-09  5.89606E-09  5.66451E-09  5.45250E-09  5.68750E-09  6.08442E-09  6.87858E-09  7.96411E-09
   7.66720E-09  8.70197E-09  9.18091E-09  8.84739E-09  8.50590E-09  8.65524E-09  8.61514E-09  9.21127E-09  8.34439E-09  8.25576E-09
   6.45845E-09  7.01269E-09  7.38814E-09  5.34718E-09  5.81420E-09  8.59660E-09  7.02244E-09  7.04147E-09  6.64782E-09  7.56976E-09
   7.37196E-09  8.13634E-09  7.79703E-09  8.24420E-09  6.57423E-09  7.15211E-09  4.82635E-09  4.83093E-09  5.78492E-09  6.85943E-09
   6.09849E-09  6.74946E-09  7.68054E-09  7.36563E-09  8.62731E-09  9.67170E-09  9.47654E-09  9.14386E-09  8.82459E-09  8.79898E-09
   8.67416E-09  8.20562E-09  7.50958E-09  6.30821E-09  7.38423E-09  6.79657E-09  5.86153E-09  8.08722E-09  8.38836E-09  8.73055E-09
   8.80854E-09  9.10895E-09  9.82618E-09  1.04405E-08  1.01642E-08  1.10512E-08  1.08573E-08  1.15996E-08  9.11352E-09  9.08674E-09
   9.21352E-09  8.89401E-09  9.42424E-09  9.70821E-09  8.22030E-09  8.64042E-09  9.18804E-09  8.20452E-09  8.42387E-09  9.13726E-09
   9.16895E-09  9.22304E-09  9.74400E-09  1.00056E-08  1.02536E-08  1.02733E-08  1.01271E-08  1.01858E-08  1.01121E-08  1.00007E-08
   9.37459E-09  8.49852E-09  9.10533E-09  8.64963E-09  7.94776E-09  7.90321E-09  7.96734E-09  8.05374E-09  8.14265E-09  8.22841E-09
   8.30889E-09  8.38388E-09  8.45318E-09  8.51684E-09  8.57489E-09  8.62750E-09  8.67484E-09  8.71682E-09  8.75367E-09  8.78544E-09
   8.81210E-09  8.83375E-09  8.85043E-09  8.86214E-09  8.86891E-09  8.87072E-09  8.86763E-09  8.85958E-09  8.84660E-09  8.82872E-09
   8.80595E-09  8.77829E-09  8.74583E-09  8.70853E-09  8.66644E-09  8.61967E-09  8.56827E-09  8.51239E-09  8.45223E-09  8.38792E-09
   8.31973E-09  8.24802E-09  8.17322E-09  8.09592E-09  8.01691E-09  7.93723E-09  7.85832E-09  7.78217E-09  7.71169E-09  7.65117E-09
   7.60737E-09  7.59119E-09  7.62222E-09  7.73903E-09  8.02951E-09  8.75016E-09  1.10149E-08  1.68178E-08  2.02883E-08  2.23714E-08
   2.28469E-08  2.30030E-08  2.34155E-08  2.33475E-08  2.17961E-08  2.18613E-08  2.07536E-08  2.22134E-08  1.41356E-08  5.75798E-09
   3.62391E-09  2.77446E-09  2.27395E-09  1.90699E-09  1.60277E-09  1.33240E-09  1.08245E-09  8.46034E-10  6.19457E-10  4.00690E-10
   1.88592E-10 -1.74343E-11 -2.17629E-10 -4.12104E-10 -6.00742E-10 -7.83364E-10 -9.59822E-10 -1.12977E-09 -1.29296E-09 -1.44912E-09
  -1.59784E-09 -1.73886E-09 -1.87184E-09 -1.99695E-09 -2.11437E-09 -2.22433E-09 -2.32704E-09 -2.42274E-09 -2.51164E-09 -2.59396E-09
  -2.66992E-09 -2.73972E-09 -2.80361E-09 -2.86178E-09 -2.91447E-09 -2.96190E-09 -3.00427E-09 -3.04182E-09 -3.07478E-09 -3.10333E-09
  -3.12774E-09 -3.14820E-09 -3.16494E-09 -3.17819E-09 -3.18814E-09 -3.19506E-09 -3.19912E-09 -3.20058E-09 -3.19964E-09 -3.19651E-09
  -3.19143E-09 -3.18461E-09 -3.17627E-09 -3.16660E-09 -3.15586E-09 -3.14421E-09 -3.13192E-09 -3.11915E-09 -3.10614E-09 -3.09310E-09
  -3.08022E-09 -3.06772E-09 -3.05579E-09 -3.04453E-09 -3.03398E-09 -3.02418E-09 -3.01514E-09 -3.00691E-09 -2.99953E-09 -2.99301E-09
  -2.98740E-09 -2.98273E-09 -2.97901E-09 -2.97629E-09 -2.97460E-09 -2.97397E-09 -2.97441E-09 -2.97597E-09 -2.97867E-09 -2.98252E-09
  -2.98758E-09 -2.99384E-09 -3.00134E-09 -3.01012E-09 -3.02018E-09 -3.03154E-09 -3.04424E-09 -3.05830E-09 -3.07373E-09 -3.09055E-09
  -3.10879E-09 -3.12845E-09 -3.14956E-09 -3.17215E-09 -3.19621E-09 -3.22176E-09 -3.24883E-09 -3.27741E-09 -3.30753E-09 -3.33920E-09
  -3.37243E-09 -3.40721E-09 -3.44358E-09 -3.48150E-09 -3.52090E-09 -3.56171E-09 -3.60388E-09 -3.64733E-09 -3.69200E-09 -3.73782E-09
  -3.78472E-09 -3.83265E-09 -3.88154E-09 -3.93131E-09 -3.98192E-09 -4.03328E-09 -4.08535E-09 -4.13806E-09 -4.19134E-09 -4.24512E-09
  -4.29937E-09 -4.35399E-09 -4.40895E-09 -4.46417E-09 -4.51961E-09 -4.57518E-09 -4.63085E-09 -4.68655E-09 -4.74222E-09 -4.79780E-09
  -4.85325E-09 -4.90849E-09 -4.96349E-09 -5.01817E-09 -5.07249E-09 -5.12640E-09 -5.17984E-09 -5.23275E-09 -5.28509E-09 -5.33682E-09
  -5.38786E-09 -5.43818E-09 -5.48773E-09 -5.53646E-09 -5.58435E-09 -5.63137E-09 -5.67749E-09 -5.72267E-09 -5.76690E-09 -5.81015E-09
  -5.85238E-09 -5.89358E-09 -5.93371E-09 -5.97276E-09 -6.01069E-09 -6.04748E-09 -6.08311E-09 -6.11755E-09 -6.15077E-09 -6.18276E-09
  -6.21350E-09 -6.24295E-09 -6.27111E-09 -6.29793E-09 -6.32341E-09 -6.34752E-09 -6.37025E-09 -6.39158E-09 -6.41147E-09 -6.42992E-09
  -6.44691E-09 -6.46241E-09 -6.47642E-09 -6.48891E-09 -6.49987E-09 -6.50928E-09 -6.51712E-09 -6.52338E-09 -6.52805E-09 -6.53111E-09
  -6.53255E-09 -6.53235E-09 -6.53050E-09
 NY background values follow
    -2.378E-09   -2.332E-09   -2.284E-09   -2.234E-09   -2.182E-09   -2.129E-09   -2.074E-09   -2.017E-09   -1.958E-09   -1.898E-09
    -1.836E-09   -1.772E-09   -1.706E-09   -1.639E-09   -1.570E-09   -1.499E-09   -1.426E-09   -1.352E-09   -1.276E-09   -1.198E-09
    -1.119E-09   -1.037E-09   -9.545E-10   -8.699E-10   -7.836E-10   -6.955E-10   -6.058E-10   -5.144E-10   -4.212E-10   -3.264E-10
    -2.298E-10   -1.316E-10   -3.166E-11    6.997E-11    1.733E-10    2.783E-10    3.851E-10    4.935E-10    6.036E-10    7.154E-10
     8.289E-10    9.441E-10    1.061E-09    1.179E-09    1.299E-09    1.421E-09    1.543E-09    1.667E-09    1.793E-09    1.919E-09
     2.046E-09    2.175E-09    2.304E-09    2.434E-09    2.565E-09    2.697E-09    2.829E-09    2.962E-09    3.095E-09    3.228E-09
     3.362E-09    3.495E-09    3.629E-09    3.762E-09    3.896E-09    4.029E-09    4.162E-09    4.294E-09    4.426E-09    4.557E-09
     4.687E-09    4.817E-09    4.945E-09    5.072E-09    5.198E-09    5.323E-09    5.446E-09    5.568E-09    5.688E-09    5.807E-09
     5.923E-09    6.038E-09    6.150E-09    6.261E-09    6.369E-09    6.475E-09    6.579E-09    6.680E-09    6.780E-09    6.877E-09
     6.972E-09    7.064E-09    7.154E-09    7.242E-09    7.327E-09    7.409E-09    7.490E-09    7.567E-09    7.642E-09    7.715E-09
     7.785E-09    7.852E-09    7.917E-09    7.979E-09    8.038E-09    8.095E-09    8.149E-09    8.200E-09    8.249E-09    8.295E-09
     8.337E-09    8.378E-09    8.415E-09    8.449E-09    8.481E-09    8.510E-09    8.535E-09    8.558E-09    8.578E-09    8.596E-09
     8.610E-09    8.621E-09    8.629E-09    8.635E-09    8.637E-09    8.636E-09    8.631E-09    8.623E-09    8.612E-09    8.597E-09
     8.578E-09    8.555E-09    8.529E-09    8.498E-09    8.464E-09    8.425E-09    8.382E-09    8.334E-09    8.282E-09    8.226E-09
     8.165E-09    8.099E-09    8.028E-09    7.953E-09    7.872E-09    7.786E-09    7.695E-09    7.599E-09    7.497E-09    7.390E-09
     7.278E-09    7.159E-09    7.036E-09    6.906E-09    6.770E-09    6.628E-09    6.481E-09    6.327E-09    6.167E-09    6.000E-09
     5.827E-09    5.648E-09    5.462E-09    5.271E-09    5.073E-09    4.870E-09    4.662E-09    4.449E-09    4.232E-09    4.010E-09
     3.785E-09    3.557E-09    3.326E-09    3.093E-09    2.857E-09    2.620E-09    2.381E-09    2.141E-09    1.900E-09    1.659E-09
     1.419E-09    1.178E-09    9.388E-10    7.006E-10    4.640E-10    2.294E-10   -2.889E-12   -2.324E-10   -4.588E-10   -6.818E-10
    -9.008E-10   -1.116E-09   -1.326E-09   -1.531E-09   -1.731E-09   -1.925E-09   -2.113E-09   -2.295E-09   -2.469E-09   -2.637E-09
    -2.797E-09   -2.949E-09   -3.093E-09   -3.229E-09   -3.356E-09   -3.477E-09   -3.589E-09   -3.695E-09   -3.793E-09   -3.885E-09
    -3.970E-09   -4.048E-09   -4.121E-09   -4.187E-09   -4.248E-09   -4.304E-09   -4.354E-09   -4.399E-09   -4.439E-09   -4.475E-09
    -4.506E-09   -4.533E-09   -4.557E-09   -4.576E-09   -4.593E-09   -4.606E-09   -4.616E-09   -4.623E-09   -4.627E-09   -4.630E-09
    -4.630E-09   -4.628E-09   -4.625E-09   -4.620E-09   -4.613E-09   -4.606E-09   -4.598E-09   -4.590E-09   -4.581E-09   -4.572E-09
    -4.562E-09   -4.554E-09   -4.545E-09   -4.537E-09   -4.530E-09   -4.523E-09   -4.517E-09   -4.512E-09   -4.507E-09   -4.503E-09
    -4.500E-09   -4.498E-09   -4.496E-09   -4.496E-09   -4.496E-09   -4.497E-09   -4.500E-09   -4.503E-09   -4.507E-09   -4.512E-09
    -4.519E-09   -4.526E-09   -4.535E-09   -4.545E-09   -4.556E-09   -4.568E-09   -4.581E-09   -4.596E-09   -4.612E-09   -4.629E-09
    -4.648E-09   -4.668E-09   -4.689E-09   -4.712E-09   -4.736E-09   -4.761E-09   -4.788E-09   -4.816E-09   -4.846E-09   -4.877E-09
    -4.910E-09   -4.944E-09   -4.980E-09   -5.017E-09   -5.055E-09   -5.095E-09   -5.136E-09   -5.178E-09   -5.222E-09   -5.266E-09
    -5.312E-09   -5.358E-09   -5.406E-09   -5.454E-09   -5.503E-09   -5.552E-09   -5.602E-09   -5.653E-09   -5.704E-09   -5.756E-09
    -5.808E-09   -5.860E-09   -5.913E-09   -5.966E-09   -6.019E-09   -6.072E-09   -6.125E-09   -6.178E-09   -6.231E-09   -6.284E-09
    -6.336E-09   -6.388E-09   -6.440E-09   -6.492E-09   -6.543E-09   -6.594E-09   -6.644E-09   -6.693E-09   -6.742E-09   -6.791E-09
    -6.838E-09   -6.885E-09   -6.931E-09   -6.976E-09   -7.020E-09   -7.063E-09   -7.105E-09   -7.146E-09   -7.187E-09   -7.226E-09
    -7.264E-09   -7.301E-09   -7.337E-09   -7.371E-09   -7.405E-09   -7.437E-09   -7.469E-09   -7.498E-09   -7.527E-09   -7.554E-09
    -7.580E-09   -7.605E-09   -7.629E-09   -7.651E-09   -7.671E-09   -7.690E-09   -7.708E-09   -7.724E-09   -7.739E-09   -7.752E-09
    -7.764E-09   -7.774E-09   -7.783E-09   -7.790E-09   -7.796E-09   -7.800E-09   -7.802E-09   -7.803E-09   -7.802E-09   -7.800E-09
    -7.795E-09   -7.789E-09   -7.782E-09
 Ala      Conc. = 8.08E-10
  -1.76494E-09 -1.71187E-09 -1.74129E-09 -1.75088E-09 -1.75964E-09 -1.76076E-09 -1.69460E-09 -1.94371E-09 -1.85936E-09 -1.62207E-09
  -1.89214E-09 -1.84551E-09 -1.66334E-09 -1.67968E-09 -1.61931E-09 -1.53764E-09 -1.45082E-09 -1.36234E-09 -1.27302E-09 -1.18306E-09
  -1.09241E-09 -1.00097E-09 -9.08639E-10 -8.15317E-10 -7.20912E-10 -6.25333E-10 -5.28533E-10 -4.30445E-10 -3.31018E-10 -2.30224E-10
  -1.27994E-10 -2.43265E-11  8.08149E-11  1.87455E-10  2.95641E-10  4.05351E-10  5.16635E-10  6.29484E-10  7.43927E-10  8.59972E-10
   9.77643E-10  1.09691E-09  1.21779E-09  1.34020E-09  1.46408E-09  1.58938E-09  1.71603E-09  1.84396E-09  1.97312E-09  2.10342E-09
   2.23481E-09  2.36721E-09  2.50055E-09  2.63475E-09  2.76974E-09  2.90544E-09  3.04177E-09  3.17866E-09  3.31602E-09  3.45378E-09
   3.59185E-09  3.73015E-09  3.86860E-09  4.00710E-09  4.14560E-09  4.28399E-09  4.42219E-09  4.56013E-09  4.69772E-09  4.83488E-09
   4.97154E-09  5.10760E-09  5.24301E-09  5.37768E-09  5.51156E-09  5.64458E-09  5.77668E-09  5.90780E-09  6.03793E-09  6.16700E-09
   6.29503E-09  6.42199E-09  6.54796E-09  6.67307E-09  6.79749E-09  6.92142E-09  7.04515E-09  7.16901E-09  7.29347E-09  7.41916E-09
   7.54688E-09  7.67780E-09  7.81355E-09  7.95652E-09  8.11046E-09  8.28150E-09  8.48072E-09  8.73078E-09  9.08785E-09  9.71653E-09
   1.00123E-08  1.01562E-08  1.06876E-08  1.09257E-08  1.11325E-08  1.11030E-08  1.09037E-08  1.09072E-08  1.07776E-08  1.06103E-08
   9.92803E-09  8.99752E-09  9.55140E-09  9.04385E-09  8.29197E-09  8.19808E-09  8.21390E-09  8.25331E-09  8.29653E-09  8.33769E-09
   8.37487E-09  8.40748E-09  8.43538E-09  8.45855E-09  8.47705E-09  8.49094E-09  8.50026E-09  8.50508E-09  8.50540E-09  8.50125E-09
   8.49262E-09  8.47950E-09  8.46188E-09  8.43973E-09  8.41299E-09  8.38163E-09  8.34562E-09  8.30487E-09  8.25934E-09  8.20898E-09
   8.15371E-09  8.09348E-09  8.02824E-09  7.95788E-09  7.88237E-09  7.80163E-09  7.71561E-09  7.62422E-09  7.52743E-09  7.42517E-09
   7.31736E-09  7.20400E-09  7.08504E-09  6.96042E-09  6.83016E-09  6.69426E-09  6.55278E-09  6.40579E-09  6.25346E-09  6.09609E-09
   5.93427E-09  5.76883E-09  5.60171E-09  5.43711E-09  5.28519E-09  5.17928E-09  5.28980E-09  5.46203E-09  5.36095E-09  5.26675E-09
   5.02413E-09  4.85596E-09  4.65137E-09  4.36826E-09  4.07431E-09  3.85818E-09  3.62162E-09  3.31356E-09  2.22730E-09  1.81786E-09
   1.52585E-09  1.26459E-09  1.01521E-09  7.72007E-10  5.32926E-10  2.97220E-10  6.46877E-11 -1.64606E-10 -3.90487E-10 -6.12671E-10
  -8.30863E-10 -1.04474E-09 -1.25394E-09 -1.45816E-09 -1.65701E-09 -1.85010E-09 -2.03714E-09 -2.21770E-09 -2.39144E-09 -2.55806E-09
  -2.71710E-09 -2.86827E-09 -3.01123E-09 -3.14611E-09 -3.27311E-09 -3.39244E-09 -3.50431E-09 -3.60896E-09 -3.70660E-09 -3.79744E-09
  -3.88171E-09 -3.95963E-09 -4.03143E-09 -4.09731E-09 -4.15751E-09 -4.21227E-09 -4.26177E-09 -4.30627E-09 -4.34599E-09 -4.38114E-09
  -4.41195E-09 -4.43865E-09 -4.46146E-09 -4.48061E-09 -4.49631E-09 -4.50880E-09 -4.51829E-09 -4.52502E-09 -4.52919E-09 -4.53103E-09
  -4.53077E-09 -4.52862E-09 -4.52482E-09 -4.51954E-09 -4.51305E-09 -4.50553E-09 -4.49722E-09 -4.48830E-09 -4.47902E-09 -4.46958E-09
  -4.46017E-09 -4.45101E-09 -4.44231E-09 -4.43415E-09 -4.42659E-09 -4.41965E-09 -4.41336E-09 -4.40777E-09 -4.40290E-09 -4.39879E-09
  -4.39547E-09 -4.39299E-09 -4.39135E-09 -4.39060E-09 -4.39077E-09 -4.39191E-09 -4.39401E-09 -4.39712E-09 -4.40127E-09 -4.40648E-09
  -4.41279E-09 -4.42021E-09 -4.42877E-09 -4.43851E-09 -4.44944E-09 -4.46158E-09 -4.47495E-09 -4.48960E-09 -4.50553E-09 -4.52276E-09
  -4.54131E-09 -4.56120E-09 -4.58245E-09 -4.60509E-09 -4.62912E-09 -4.65455E-09 -4.68141E-09 -4.70970E-09 -4.73945E-09 -4.77066E-09
  -4.80335E-09 -4.83752E-09 -4.87319E-09 -4.91033E-09 -4.94887E-09 -4.98875E-09 -5.02990E-09 -5.07226E-09 -5.11576E-09 -5.16034E-09
  -5.20593E-09 -5.25246E-09 -5.29988E-09 -5.34811E-09 -5.39710E-09 -5.44679E-09 -5.49710E-09 -5.54798E-09 -5.59936E-09 -5.65118E-09
  -5.70339E-09 -5.75591E-09 -5.80869E-09 -5.86168E-09 -5.91480E-09 -5.96801E-09 -6.02124E-09 -6.07442E-09 -6.12753E-09 -6.18048E-09
  -6.23323E-09 -6.28571E-09 -6.33788E-09 -6.38968E-09 -6.44105E-09 -6.49196E-09 -6.54232E-09 -6.59210E-09 -6.64126E-09 -6.68974E-09
  -6.73748E-09 -6.78443E-09 -6.83056E-09 -6.87582E-09 -6.92017E-09 -6.96360E-09 -7.00606E-09 -7.04755E-09 -7.08802E-09 -7.12746E-09
  -7.16583E-09 -7.20310E-09 -7.23927E-09 -7.27429E-09 -7.30814E-09 -7.34081E-09 -7.37226E-09 -7.40247E-09 -7.43142E-09 -7.45908E-09
  -7.48544E-09 -7.51046E-09 -7.53414E-09 -7.55645E-09 -7.57736E-09 -7.59686E-09 -7.61492E-09 -7.63154E-09 -7.64667E-09 -7.66033E-09
  -7.67247E-09 -7.68309E-09 -7.69216E-09 -7.69968E-09 -7.70562E-09 -7.70997E-09 -7.71271E-09 -7.71383E-09 -7.71332E-09 -7.71115E-09
  -7.70732E-09 -7.70181E-09 -7.69462E-09
 Asp      Conc. = 4.94E-09
   3.37058E-10 -1.61329E-10 -1.71378E-09 -1.94797E-09 -2.04129E-09 -2.96016E-09 -2.34378E-09 -3.30722E-09 -3.19733E-09 -2.88310E-09
  -2.57923E-09 -2.30797E-09 -2.05800E-09 -1.83229E-09 -1.60353E-09 -1.40155E-09 -1.20972E-09 -1.02400E-09 -8.42344E-10 -6.63183E-10
  -4.85194E-10 -3.07164E-10 -1.28016E-10  5.33179E-11  2.37911E-10  4.26900E-10  6.21495E-10  8.23106E-10  1.03339E-09  1.25435E-09
   1.48860E-09  1.73952E-09  2.01185E-09  2.31251E-09  2.65237E-09  3.04979E-09  3.53547E-09  4.03068E-09  4.32577E-09  4.61953E-09
   4.69484E-09  5.03664E-09  5.50260E-09  6.46104E-09  6.98733E-09  8.43258E-09  8.03977E-09  8.03620E-09  7.26602E-09  7.86997E-09
   7.23974E-09  7.77168E-09  7.06073E-09  7.45592E-09  5.46756E-09  5.85959E-09  3.11341E-09  2.76227E-09  3.22233E-09  4.08901E-09
   2.62781E-09  2.59132E-09  3.00222E-09  2.56427E-09  2.74698E-09  3.45083E-09  3.42497E-09  3.20378E-09  3.27554E-09  3.42361E-09
   3.59590E-09  3.77597E-09  3.95743E-09  4.13743E-09  4.31467E-09  4.48851E-09  4.65862E-09  4.82486E-09  4.98722E-09  5.14566E-09
   5.30020E-09  5.45083E-09  5.59764E-09  5.74070E-09  5.88009E-09  6.01589E-09  6.14816E-09  6.27696E-09  6.40234E-09  6.52436E-09
   6.64304E-09  6.75843E-09  6.87055E-09  6.97944E-09  7.08511E-09  7.18760E-09  7.28690E-09  7.38305E-09  7.47604E-09  7.56589E-09
   7.65261E-09  7.73620E-09  7.81668E-09  7.89404E-09  7.96829E-09  8.03944E-09  8.10748E-09  8.17241E-09  8.23423E-09  8.29296E-09
   8.34859E-09  8.40111E-09  8.45052E-09  8.49684E-09  8.54004E-09  8.58014E-09  8.61713E-09  8.65103E-09  8.68182E-09  8.70950E-09
   8.73408E-09  8.75556E-09  8.77391E-09  8.78905E-09  8.80090E-09  8.80938E-09  8.81439E-09  8.81587E-09  8.81372E-09  8.80787E-09
   8.79822E-09  8.78471E-09  8.76724E-09  8.74575E-09  8.72014E-09  8.69034E-09  8.65629E-09  8.61789E-09  8.57507E-09  8.52778E-09
   8.47594E-09  8.41949E-09  8.35838E-09  8.29252E-09  8.22189E-09  8.14646E-09  8.06617E-09  7.98099E-09  7.89097E-09  7.79606E-09
   7.69630E-09  7.59176E-09  7.48256E-09  7.36878E-09  7.25068E-09  7.12854E-09  7.00279E-09  6.87403E-09  6.74314E-09  6.61143E-09
   6.48100E-09  6.35499E-09  6.23906E-09  6.14366E-09  6.09005E-09  6.12936E-09  6.42402E-09  7.75432E-09  1.04075E-08  1.07683E-08
   1.16202E-08  1.11695E-08  1.13574E-08  1.12829E-08  1.09627E-08  1.00231E-08  1.03307E-08  9.39866E-09  1.02183E-08  4.03723E-09
   2.49249E-09  1.86873E-09  1.47137E-09  1.15539E-09  8.76492E-10  6.17592E-10  3.71105E-10  1.33341E-10 -9.75768E-11 -3.22572E-10
  -5.42088E-10 -7.56279E-10 -9.65088E-10 -1.16842E-09 -1.36604E-09 -1.55766E-09 -1.74306E-09 -1.92186E-09 -2.09378E-09 -2.25852E-09
  -2.41566E-09 -2.56493E-09 -2.70599E-09 -2.83899E-09 -2.96412E-09 -3.08160E-09 -3.19167E-09 -3.29454E-09 -3.39044E-09 -3.47958E-09
  -3.56218E-09 -3.63847E-09 -3.70868E-09 -3.77302E-09 -3.83170E-09 -3.88498E-09 -3.93305E-09 -3.97615E-09 -4.01451E-09 -4.04833E-09
  -4.07786E-09 -4.10331E-09 -4.12490E-09 -4.14287E-09 -4.15742E-09 -4.16881E-09 -4.17721E-09 -4.18290E-09 -4.18606E-09 -4.18692E-09
  -4.18571E-09 -4.18265E-09 -4.17796E-09 -4.17183E-09 -4.16451E-09 -4.15619E-09 -4.14712E-09 -4.13747E-09 -4.12748E-09 -4.11735E-09
