 LCModel (Version 6.3-1R) Copyright: S.W. Provencher.          Ref.: Magn. Reson. Med. 30:672-679 (1993).                
 onepulse 16x8_ftSpec_smooth_lcm
 26 lines in following concentration table = NCONC+1
    Conc.  %SD /Cr+PCr  Metabolite                                         
    0.000 999%   0.000 Ala                                                 
 1.38E-09  50%   5.455 Asp                                                 
    0.000 999%   0.000 Cr                                                  
 5.79E-10 128%   2.287 GABA                                                
    0.000 999%   0.000 Glc                                                 
 2.59E-09  28%  10.228 Gln                                                 
    0.000 999%   0.000 Glu                                                 
    0.000 999%   0.000 Glyc                                                
    0.000 999%   0.000 GPC                                                 
 9.22E-10  62%   3.639 GSH                                                 
 2.30E-09  16%   9.073 Ins                                                 
    0.000 999%   0.000 Lac                                                 
 4.57E-10  78%   1.806 NAAG                                                
 3.81E-11 999%   0.151 NAA                                                 
    0.000 999%   0.000 PCh                                                 
 2.53E-10 151%   1.000 PCr                                                 
 2.47E-09  26%   9.767 PE                                                  
 5.00E-10  33%   1.973 Scyllo                                              
    0.000 999%   0.000 Ser                                                 
    0.000 999%   0.000 Tau                                                 
    0.000 999%   0.000 GPC+PCh                                             
 4.95E-10  68%   1.957 NAA+NAAG                                            
 2.30E-09  16%   9.073 Ins+Glyc                                            
 2.53E-10 151%   1.000 Cr+PCr                                              
 2.59E-09  28%  10.228 Glu+Gln                                             
   6 lines in following misc. output table
  FWHM = 0.123 ppm    S/N =   3                                            
  Data shift = 0.414 ppm                                                   
  Ph: -17 deg     -52.6 deg/ppm                                            
  alphaB,S = 4.1E-01,   2.2E+01                                            
   11 spline knots.   Ns = 5(1)                                            
  (10) 6 infls.   ( 7) 3 extrs.                                            
  363 points on ppm-axis = NY
      4.250000     4.238821     4.227641     4.216462     4.205282     4.194103     4.182923     4.171744     4.160564     4.149385
      4.138206     4.127026     4.115847     4.104667     4.093488     4.082308     4.071129     4.059949     4.048770     4.037591
      4.026411     4.015232     4.004052     3.992873     3.981693     3.970514     3.959334     3.948155     3.936975     3.925796
      3.914617     3.903437     3.892258     3.881078     3.869899     3.858719     3.847540     3.836360     3.825181     3.814002
      3.802822     3.791643     3.780463     3.769284     3.758104     3.746925     3.735745     3.724566     3.713387     3.702207
      3.691028     3.679848     3.668669     3.657489     3.646310     3.635130     3.623951     3.612772     3.601592     3.590413
      3.579233     3.568054     3.556874     3.545695     3.534515     3.523336     3.512156     3.500977     3.489798     3.478618
      3.467439     3.456259     3.445080     3.433900     3.422721     3.411541     3.400362     3.389183     3.378003     3.366824
      3.355644     3.344465     3.333285     3.322106     3.310926     3.299747     3.288568     3.277388     3.266209     3.255029
      3.243850     3.232670     3.221491     3.210311     3.199132     3.187953     3.176773     3.165594     3.154414     3.143235
      3.132055     3.120876     3.109696     3.098517     3.087337     3.076158     3.064979     3.053799     3.042620     3.031440
      3.020261     3.009081     2.997902     2.986722     2.975543     2.964364     2.953184     2.942005     2.930825     2.919646
      2.908466     2.897287     2.886107     2.874928     2.863749     2.852569     2.841390     2.830210     2.819031     2.807851
      2.796672     2.785492     2.774313     2.763134     2.751954     2.740775     2.729595     2.718416     2.707236     2.696057
      2.684877     2.673698     2.662519     2.651339     2.640160     2.628980     2.617801     2.606621     2.595442     2.584262
      2.573083     2.561903     2.550724     2.539545     2.528365     2.517186     2.506006     2.494827     2.483647     2.472468
      2.461288     2.450109     2.438930     2.427750     2.416571     2.405391     2.394212     2.383032     2.371853     2.360673
      2.349494     2.338315     2.327135     2.315956     2.304776     2.293597     2.282417     2.271238     2.260058     2.248879
      2.237700     2.226520     2.215341     2.204161     2.192982     2.181802     2.170623     2.159443     2.148264     2.137084
      2.125905     2.114726     2.103546     2.092367     2.081187     2.070008     2.058828     2.047649     2.036469     2.025290
      2.014111     2.002931     1.991752     1.980572     1.969393     1.958213     1.947034     1.935854     1.924675     1.913496
      1.902316     1.891137     1.879957     1.868778     1.857598     1.846419     1.835239     1.824060     1.812881     1.801701
      1.790522     1.779342     1.768163     1.756983     1.745804     1.734624     1.723445     1.712265     1.701086     1.689907
      1.678727     1.667548     1.656368     1.645189     1.634009     1.622830     1.611650     1.600471     1.589292     1.578112
      1.566933     1.555753     1.544574     1.533394     1.522215     1.511035     1.499856     1.488677     1.477497     1.466318
      1.455138     1.443959     1.432779     1.421600     1.410420     1.399241     1.388062     1.376882     1.365703     1.354523
      1.343344     1.332164     1.320985     1.309805     1.298626     1.287446     1.276267     1.265088     1.253908     1.242729
      1.231549     1.220370     1.209190     1.198011     1.186831     1.175652     1.164473     1.153293     1.142114     1.130934
      1.119755     1.108575     1.097396     1.086216     1.075037     1.063858     1.052678     1.041499     1.030319     1.019140
      1.007960     0.996781     0.985601     0.974422     0.963243     0.952063     0.940884     0.929704     0.918525     0.907345
      0.896166     0.884986     0.873807     0.862628     0.851448     0.840269     0.829089     0.817910     0.806730     0.795551
      0.784371     0.773192     0.762012     0.750833     0.739654     0.728474     0.717295     0.706115     0.694936     0.683756
      0.672577     0.661397     0.650218     0.639039     0.627859     0.616680     0.605500     0.594321     0.583141     0.571962
      0.560782     0.549603     0.538424     0.527244     0.516065     0.504885     0.493706     0.482526     0.471347     0.460167
      0.448988     0.437809     0.426629     0.415450     0.404270     0.393091     0.381911     0.370732     0.359552     0.348373
      0.337193     0.326014     0.314835     0.303655     0.292476     0.281296     0.270117     0.258937     0.247758     0.236578
      0.225399     0.214220     0.203040
 NY phased data points follow
   1.10466E-08  1.10364E-08  1.09008E-08  1.16338E-08  1.16479E-08  1.20498E-08  1.25727E-08  1.26547E-08  1.34312E-08  1.35974E-08
   1.35206E-08  1.26149E-08  1.27701E-08  1.25884E-08  1.24195E-08  1.19547E-08  1.17971E-08  1.15797E-08  1.22967E-08  1.34707E-08
   1.34654E-08  1.29775E-08  1.19493E-08  1.15084E-08  1.16651E-08  1.37400E-08  1.49270E-08  1.56485E-08  1.49925E-08  1.38949E-08
   1.30363E-08  1.17079E-08  1.15998E-08  1.14979E-08  1.15033E-08  1.06142E-08  1.14986E-08  1.08209E-08  1.05624E-08  1.03419E-08
   1.02271E-08  9.55570E-09  9.46151E-09  9.34777E-09  9.05900E-09  9.10390E-09  9.93701E-09  9.61066E-09  9.14644E-09  8.44044E-09
   8.33953E-09  8.22116E-09  8.76219E-09  9.00087E-09  9.49379E-09  9.48218E-09  1.09356E-08  1.27033E-08  1.51940E-08  1.54353E-08
   1.54580E-08  1.36188E-08  1.31866E-08  1.19516E-08  1.14911E-08  1.10814E-08  1.04871E-08  9.56802E-09  9.45506E-09  8.55144E-09
   8.80230E-09  6.82686E-09  8.64602E-09  1.01366E-08  1.59399E-08  1.77734E-08  1.80147E-08  1.67673E-08  1.70732E-08  1.61634E-08
   1.59752E-08  1.45444E-08  1.45932E-08  1.39925E-08  1.45816E-08  1.35063E-08  1.34666E-08  1.34234E-08  1.27922E-08  1.24547E-08
   1.21500E-08  1.09086E-08  1.12089E-08  1.06097E-08  1.01330E-08  9.64098E-09  1.01639E-08  1.03659E-08  9.76433E-09  9.52855E-09
   1.01165E-08  9.68307E-09  9.83300E-09  8.73128E-09  8.24316E-09  7.94657E-09  7.75445E-09  7.29349E-09  8.23986E-09  7.82424E-09
   7.90605E-09  8.11042E-09  8.64559E-09  8.10451E-09  8.21863E-09  8.48171E-09  9.17954E-09  8.73349E-09  8.08491E-09  7.58321E-09
   7.12524E-09  6.25800E-09  6.66271E-09  6.87231E-09  6.82338E-09  6.19895E-09  6.92868E-09  7.05926E-09  7.89538E-09  7.41127E-09
   7.89735E-09  7.31801E-09  6.92623E-09  6.71529E-09  7.45824E-09  8.93804E-09  9.60425E-09  9.67029E-09  9.21887E-09  9.04750E-09
   1.04512E-08  1.03969E-08  1.07914E-08  1.07042E-08  1.11902E-08  1.10381E-08  1.17251E-08  1.08794E-08  1.06846E-08  1.03634E-08
   1.09245E-08  1.08438E-08  1.12082E-08  1.06156E-08  1.11128E-08  1.03002E-08  1.06895E-08  1.04497E-08  1.09402E-08  1.04358E-08
   1.06286E-08  1.01048E-08  1.00572E-08  7.64244E-09  5.55559E-09  8.94663E-09  1.52788E-08  1.97624E-08  2.17959E-08  2.17770E-08
   2.22169E-08  2.33067E-08  2.30631E-08  2.29321E-08  2.24065E-08  2.26084E-08  2.17896E-08  2.06534E-08  2.01707E-08  1.88688E-08
   1.73771E-08  1.53443E-08  1.35188E-08  1.12355E-08  8.59869E-09  5.92959E-09  2.99851E-09  3.47861E-10 -1.07778E-09 -3.68507E-09
  -5.23087E-09 -7.11481E-09 -8.31786E-09 -8.70251E-09 -8.73410E-09 -8.58080E-09 -7.59069E-09 -8.08813E-09 -6.76891E-09 -6.00522E-09
  -4.37905E-09 -4.10646E-09 -2.99459E-09 -2.85210E-09 -1.97892E-09 -1.78144E-09 -1.12425E-09 -2.23954E-09 -1.51552E-09 -2.20886E-09
  -1.41996E-09 -1.58550E-09 -1.31491E-09 -1.75193E-09 -1.51337E-09 -1.19100E-09 -1.18672E-09 -9.77292E-10 -1.01022E-09 -8.65567E-10
  -6.18372E-10 -7.34403E-10 -1.14677E-09 -1.56709E-09 -1.21563E-09 -8.30456E-10 -6.21760E-10 -5.90539E-10 -3.90369E-10 -1.16201E-09
  -5.37680E-10 -8.73851E-10 -5.14525E-10 -4.35418E-11 -4.72972E-10 -1.09853E-09 -9.43410E-10 -1.37485E-09 -1.01380E-09 -1.19005E-09
  -1.50205E-09 -1.61727E-09 -1.03118E-09 -9.50169E-10 -5.57114E-10 -6.33488E-10 -2.00378E-10 -3.60702E-10 -1.65823E-10 -4.01193E-10
  -7.93652E-11 -2.54738E-10 -1.54253E-10 -4.28917E-10 -1.08214E-10 -2.46389E-10 -2.27330E-10 -6.92784E-10 -1.04555E-09 -1.12815E-09
  -1.37936E-09 -1.61761E-09 -2.07113E-09 -1.94822E-09 -2.10737E-09 -2.03728E-09 -1.99986E-09 -2.47744E-09 -2.66412E-09 -9.80659E-10
  -1.31652E-09 -1.43422E-09 -9.86408E-10 -5.25578E-10 -6.93832E-10 -3.95400E-10 -7.55916E-10  2.05745E-10 -1.05253E-10  6.20127E-10
  -1.56322E-10  6.17550E-10  7.35026E-10  9.25228E-10  7.25722E-10  7.48236E-10  8.76317E-10  9.01573E-10  7.23630E-10  7.26671E-10
   5.91724E-10  1.16641E-09  8.40496E-10  1.10248E-09  1.09618E-09  9.02146E-10  6.92144E-10  1.19102E-09  8.29343E-10  1.09609E-09
   9.76524E-10  1.01751E-09  9.48773E-10  9.12500E-10  4.94621E-10  8.87800E-10  6.29652E-10  6.48969E-10  7.16522E-10  4.47897E-10
   8.12501E-11  1.23233E-09  3.89231E-10  9.84675E-10  4.18557E-10  6.69186E-10  2.25748E-10  9.06734E-10  1.90400E-10  6.57094E-10
   1.20092E-10  7.53557E-10  5.78496E-10  7.31603E-10 -7.86378E-11  1.21003E-09  5.48555E-11  6.86265E-10  1.18310E-10  8.74951E-10
  -5.58662E-11  5.62502E-10  3.18811E-10  9.15529E-10  9.71720E-11  7.87048E-10  7.59049E-10  7.79851E-10 -3.91343E-11  6.32319E-10
  -6.52030E-11  8.52850E-10  3.51174E-10  3.18197E-11 -1.72022E-10  6.57742E-10  1.00830E-10  3.28536E-10  2.40970E-10  3.68297E-10
   3.76916E-10  3.07028E-10  4.72973E-10  4.27765E-10  1.55525E-10  5.95286E-10 -1.38079E-10  7.32343E-11  4.69977E-10  1.00185E-10
  -1.65691E-10 -3.14000E-11  3.35341E-10
 NY points of the fit to the data follow
   1.25128E-08  1.20939E-08  1.16424E-08  1.12199E-08  1.10474E-08  1.18868E-08  1.23919E-08  1.24838E-08  1.34224E-08  1.39953E-08
   1.34810E-08  1.31746E-08  1.27098E-08  1.27266E-08  1.27829E-08  1.21962E-08  1.14085E-08  1.24246E-08  1.38231E-08  1.27006E-08
   1.11900E-08  1.12965E-08  1.22074E-08  1.27885E-08  1.33265E-08  1.43801E-08  1.55240E-08  1.57653E-08  1.44903E-08  1.27846E-08
   1.26167E-08  1.26099E-08  1.22333E-08  1.17637E-08  1.15337E-08  1.10401E-08  1.05835E-08  1.02670E-08  1.02304E-08  1.01410E-08
   1.00355E-08  9.95475E-09  9.56290E-09  9.10513E-09  9.01413E-09  8.92833E-09  8.78144E-09  8.22108E-09  8.17998E-09  8.40662E-09
   8.84790E-09  9.37993E-09  9.78737E-09  1.02081E-08  1.09394E-08  1.14429E-08  1.16342E-08  1.26396E-08  1.35456E-08  1.35307E-08
   1.34883E-08  1.35407E-08  1.36113E-08  1.35160E-08  1.29710E-08  1.23075E-08  1.19793E-08  1.15985E-08  1.06806E-08  1.04176E-08
   1.07903E-08  1.12002E-08  1.16482E-08  1.21093E-08  1.30126E-08  1.40908E-08  1.51612E-08  1.60777E-08  1.65406E-08  1.66816E-08
   1.65884E-08  1.61323E-08  1.54524E-08  1.51020E-08  1.48130E-08  1.38048E-08  1.25149E-08  1.13074E-08  1.05457E-08  1.01486E-08
   9.86885E-09  9.69891E-09  9.64197E-09  9.49858E-09  9.29083E-09  9.26083E-09  9.18389E-09  9.02608E-09  8.96841E-09  8.90880E-09
   8.84983E-09  8.82655E-09  8.80985E-09  8.79755E-09  8.79503E-09  8.79900E-09  8.80683E-09  8.81728E-09  8.82883E-09  8.84115E-09
   8.85371E-09  8.86591E-09  8.87746E-09  8.88804E-09  8.89742E-09  8.90544E-09  8.91189E-09  8.91654E-09  8.91922E-09  8.91980E-09
   8.91815E-09  8.91416E-09  8.90772E-09  8.89871E-09  8.88703E-09  8.87259E-09  8.85530E-09  8.83506E-09  8.81181E-09  8.78546E-09
   8.75592E-09  8.72314E-09  8.68704E-09  8.64756E-09  8.60462E-09  8.55819E-09  8.50818E-09  8.45459E-09  8.39752E-09  8.33708E-09
   8.27338E-09  8.20656E-09  8.13672E-09  8.06399E-09  7.98853E-09  7.91049E-09  7.83005E-09  7.74737E-09  7.66270E-09  7.57625E-09
   7.48832E-09  7.39922E-09  7.30938E-09  7.21928E-09  7.12956E-09  7.04107E-09  6.95489E-09  6.87257E-09  6.79634E-09  6.72950E-09
   6.67736E-09  6.64870E-09  6.65959E-09  6.74254E-09  6.97428E-09  7.58505E-09  9.60272E-09  1.67960E-08  2.19030E-08  2.34511E-08
   2.36276E-08  2.35830E-08  2.31903E-08  2.27320E-08  2.28661E-08  2.36361E-08  2.34272E-08  1.89687E-08  9.62981E-09  6.15677E-09
   5.01628E-09  4.43379E-09  4.05381E-09  3.76777E-09  3.53238E-09  3.32725E-09  3.14163E-09  2.96934E-09  2.80667E-09  2.65119E-09
   2.50136E-09  2.35608E-09  2.21466E-09  2.07653E-09  1.94134E-09  1.80883E-09  1.67882E-09  1.55118E-09  1.42584E-09  1.30273E-09
   1.18183E-09  1.06315E-09  9.46668E-10  8.32429E-10  7.20453E-10  6.10763E-10  5.03415E-10  3.98456E-10  2.95936E-10  1.95918E-10
   9.84587E-11  3.61988E-12 -8.85511E-11 -1.77990E-10 -2.64590E-10 -3.48318E-10 -4.29096E-10 -5.06865E-10 -5.81540E-10 -6.53037E-10
  -7.21329E-10 -7.86293E-10 -8.47873E-10 -9.06022E-10 -9.60653E-10 -1.01164E-09 -1.05899E-09 -1.10261E-09 -1.14251E-09 -1.17881E-09
  -1.21159E-09 -1.24095E-09 -1.26697E-09 -1.28976E-09 -1.30939E-09 -1.32596E-09 -1.33957E-09 -1.35030E-09 -1.35824E-09 -1.36348E-09
  -1.36612E-09 -1.36625E-09 -1.36395E-09 -1.35931E-09 -1.35244E-09 -1.34340E-09 -1.33231E-09 -1.31925E-09 -1.30429E-09 -1.28755E-09
  -1.26911E-09 -1.24905E-09 -1.22747E-09 -1.20446E-09 -1.18011E-09 -1.15451E-09 -1.12775E-09 -1.09991E-09 -1.07109E-09 -1.04138E-09
  -1.01087E-09 -9.79650E-10 -9.47804E-10 -9.15434E-10 -8.82614E-10 -8.49445E-10 -8.16013E-10 -7.82415E-10 -7.48725E-10 -7.15050E-10
  -6.81470E-10 -6.48078E-10 -6.14963E-10 -5.82170E-10 -5.49712E-10 -5.17594E-10 -4.85830E-10 -4.54423E-10 -4.23378E-10 -3.92706E-10
  -3.62421E-10 -3.32515E-10 -3.03014E-10 -2.73915E-10 -2.45229E-10 -2.16957E-10 -1.89119E-10 -1.61713E-10 -1.34750E-10 -1.08241E-10
  -8.21884E-11 -5.66005E-11 -3.14877E-11 -6.86184E-12  1.72791E-11  4.09237E-11  6.40609E-11  8.66821E-11  1.08786E-10  1.30360E-10
   1.51399E-10  1.71894E-10  1.91839E-10  2.11224E-10  2.30041E-10  2.48280E-10  2.65946E-10  2.83011E-10  2.99488E-10  3.15347E-10
   3.30598E-10  3.45233E-10  3.59240E-10  3.72594E-10  3.85316E-10  3.97389E-10  4.08791E-10  4.19546E-10  4.29619E-10  4.39043E-10
   4.47831E-10  4.56005E-10  4.63582E-10  4.70581E-10  4.77016E-10  4.82909E-10  4.88276E-10  4.93137E-10  4.97507E-10  5.01405E-10
   5.04850E-10  5.07860E-10  5.10450E-10  5.12642E-10  5.14450E-10  5.15897E-10  5.16995E-10  5.17767E-10  5.18228E-10  5.18395E-10
   5.18291E-10  5.17929E-10  5.17328E-10  5.16509E-10  5.15487E-10  5.14276E-10  5.12901E-10  5.11378E-10  5.09721E-10  5.07955E-10
   5.06094E-10  5.04153E-10  5.02155E-10  5.00113E-10  4.98051E-10  4.95984E-10  4.93931E-10  4.91902E-10  4.89929E-10  4.88018E-10
   4.86195E-10  4.84472E-10  4.82876E-10
 NY background values follow
    -1.883E-09   -1.777E-09   -1.671E-09   -1.566E-09   -1.460E-09   -1.354E-09   -1.249E-09   -1.143E-09   -1.037E-09   -9.319E-10
    -8.264E-10   -7.210E-10   -6.157E-10   -5.104E-10   -4.053E-10   -3.002E-10   -1.953E-10   -9.045E-11    1.425E-11    1.188E-10
     2.232E-10    3.275E-10    4.316E-10    5.355E-10    6.393E-10    7.428E-10    8.462E-10    9.493E-10    1.052E-09    1.155E-09
     1.257E-09    1.360E-09    1.462E-09    1.563E-09    1.665E-09    1.766E-09    1.867E-09    1.968E-09    2.068E-09    2.168E-09
     2.267E-09    2.367E-09    2.466E-09    2.564E-09    2.663E-09    2.761E-09    2.858E-09    2.955E-09    3.052E-09    3.148E-09
     3.244E-09    3.340E-09    3.435E-09    3.529E-09    3.623E-09    3.717E-09    3.809E-09    3.902E-09    3.994E-09    4.085E-09
     4.176E-09    4.266E-09    4.355E-09    4.444E-09    4.532E-09    4.619E-09    4.706E-09    4.792E-09    4.877E-09    4.962E-09
     5.046E-09    5.129E-09    5.211E-09    5.292E-09    5.373E-09    5.453E-09    5.531E-09    5.610E-09    5.687E-09    5.763E-09
     5.838E-09    5.913E-09    5.986E-09    6.059E-09    6.130E-09    6.201E-09    6.270E-09    6.339E-09    6.406E-09    6.472E-09
     6.538E-09    6.602E-09    6.665E-09    6.727E-09    6.787E-09    6.847E-09    6.905E-09    6.961E-09    7.016E-09    7.069E-09
     7.121E-09    7.171E-09    7.220E-09    7.266E-09    7.311E-09    7.353E-09    7.394E-09    7.432E-09    7.469E-09    7.503E-09
     7.535E-09    7.565E-09    7.592E-09    7.617E-09    7.639E-09    7.659E-09    7.676E-09    7.690E-09    7.702E-09    7.711E-09
     7.717E-09    7.720E-09    7.720E-09    7.716E-09    7.710E-09    7.701E-09    7.688E-09    7.672E-09    7.653E-09    7.630E-09
     7.603E-09    7.573E-09    7.540E-09    7.502E-09    7.461E-09    7.416E-09    7.368E-09    7.315E-09    7.258E-09    7.198E-09
     7.134E-09    7.067E-09    6.996E-09    6.922E-09    6.844E-09    6.763E-09    6.680E-09    6.593E-09    6.503E-09    6.411E-09
     6.316E-09    6.218E-09    6.117E-09    6.015E-09    5.909E-09    5.802E-09    5.693E-09    5.581E-09    5.467E-09    5.352E-09
     5.235E-09    5.116E-09    4.995E-09    4.873E-09    4.749E-09    4.625E-09    4.499E-09    4.371E-09    4.243E-09    4.114E-09
     3.984E-09    3.853E-09    3.721E-09    3.589E-09    3.456E-09    3.323E-09    3.190E-09    3.056E-09    2.923E-09    2.789E-09
     2.655E-09    2.521E-09    2.388E-09    2.255E-09    2.122E-09    1.990E-09    1.859E-09    1.727E-09    1.597E-09    1.468E-09
     1.339E-09    1.211E-09    1.084E-09    9.588E-10    8.343E-10    7.111E-10    5.891E-10    4.686E-10    3.495E-10    2.320E-10
     1.161E-10    1.967E-12   -1.104E-10   -2.210E-10   -3.295E-10   -4.361E-10   -5.406E-10   -6.429E-10   -7.430E-10   -8.407E-10
    -9.361E-10   -1.029E-09   -1.119E-09   -1.207E-09   -1.292E-09   -1.374E-09   -1.453E-09   -1.530E-09   -1.603E-09   -1.673E-09
    -1.740E-09   -1.804E-09   -1.865E-09   -1.922E-09   -1.975E-09   -2.025E-09   -2.072E-09   -2.115E-09   -2.154E-09   -2.189E-09
    -2.221E-09   -2.250E-09   -2.275E-09   -2.297E-09   -2.316E-09   -2.332E-09   -2.345E-09   -2.355E-09   -2.362E-09   -2.366E-09
    -2.369E-09   -2.368E-09   -2.365E-09   -2.360E-09   -2.352E-09   -2.343E-09   -2.331E-09   -2.318E-09   -2.302E-09   -2.285E-09
    -2.266E-09   -2.245E-09   -2.223E-09   -2.200E-09   -2.175E-09   -2.149E-09   -2.122E-09   -2.093E-09   -2.064E-09   -2.034E-09
    -2.003E-09   -1.971E-09   -1.939E-09   -1.906E-09   -1.873E-09   -1.839E-09   -1.805E-09   -1.771E-09   -1.737E-09   -1.703E-09
    -1.669E-09   -1.635E-09   -1.602E-09   -1.568E-09   -1.536E-09   -1.503E-09   -1.471E-09   -1.439E-09   -1.408E-09   -1.377E-09
    -1.346E-09   -1.316E-09   -1.286E-09   -1.256E-09   -1.227E-09   -1.198E-09   -1.170E-09   -1.142E-09   -1.115E-09   -1.088E-09
    -1.062E-09   -1.036E-09   -1.010E-09   -9.852E-10   -9.606E-10   -9.366E-10   -9.131E-10   -8.901E-10   -8.676E-10   -8.456E-10
    -8.242E-10   -8.033E-10   -7.830E-10   -7.632E-10   -7.440E-10   -7.254E-10   -7.073E-10   -6.899E-10   -6.730E-10   -6.567E-10
    -6.411E-10   -6.261E-10   -6.117E-10   -5.979E-10   -5.848E-10   -5.723E-10   -5.605E-10   -5.494E-10   -5.389E-10   -5.291E-10
    -5.199E-10   -5.113E-10   -5.034E-10   -4.960E-10   -4.891E-10   -4.828E-10   -4.771E-10   -4.718E-10   -4.670E-10   -4.627E-10
    -4.588E-10   -4.554E-10   -4.524E-10   -4.498E-10   -4.476E-10   -4.457E-10   -4.442E-10   -4.430E-10   -4.421E-10   -4.415E-10
    -4.412E-10   -4.411E-10   -4.413E-10   -4.417E-10   -4.423E-10   -4.431E-10   -4.440E-10   -4.451E-10   -4.463E-10   -4.476E-10
    -4.490E-10   -4.505E-10   -4.521E-10   -4.536E-10   -4.552E-10   -4.568E-10   -4.584E-10   -4.600E-10   -4.615E-10   -4.630E-10
    -4.643E-10   -4.655E-10   -4.667E-10
 Asp      Conc. = 1.38E-09
  -3.71140E-10 -5.00422E-10 -5.42720E-10 -6.27658E-10 -6.17190E-10 -6.87812E-10 -7.68673E-10 -8.38239E-10 -8.10221E-10 -7.47103E-10
  -6.68182E-10 -5.80594E-10 -4.86687E-10 -3.87186E-10 -2.86351E-10 -1.84726E-10 -8.21558E-11  2.12457E-11  1.25344E-10  2.30050E-10
   3.35293E-10  4.41044E-10  5.47319E-10  6.54123E-10  7.61518E-10  8.69608E-10  9.78525E-10  1.08847E-09  1.19971E-09  1.31268E-09
   1.42797E-09  1.54653E-09  1.66991E-09  1.80086E-09  1.94499E-09  2.11624E-09  2.34854E-09  2.54065E-09  2.74933E-09  2.87956E-09
   2.96884E-09  3.08041E-09  3.30211E-09  3.66256E-09  4.11943E-09  4.63825E-09  4.81738E-09  4.76951E-09  4.97517E-09  5.15244E-09
   5.35620E-09  5.59741E-09  5.77829E-09  5.72097E-09  5.45076E-09  5.14894E-09  4.91504E-09  5.06677E-09  5.13060E-09  4.92858E-09
   4.88451E-09  4.88262E-09  4.84005E-09  4.90415E-09  5.03883E-09  5.11373E-09  5.08095E-09  5.09882E-09  5.14075E-09  5.19475E-09
   5.25564E-09  5.32076E-09  5.38860E-09  5.45819E-09  5.52889E-09  5.60027E-09  5.67197E-09  5.74377E-09  5.81548E-09  5.88694E-09
   5.95802E-09  6.02864E-09  6.09870E-09  6.16814E-09  6.23689E-09  6.30490E-09  6.37212E-09  6.43851E-09  6.50403E-09  6.56864E-09
   6.63231E-09  6.69502E-09  6.75670E-09  6.81729E-09  6.87671E-09  6.93489E-09  6.99176E-09  7.04726E-09  7.10131E-09  7.15385E-09
   7.20480E-09  7.25410E-09  7.30170E-09  7.34751E-09  7.39147E-09  7.43353E-09  7.47361E-09  7.51164E-09  7.54757E-09  7.58133E-09
   7.61286E-09  7.64208E-09  7.66895E-09  7.69338E-09  7.71532E-09  7.73471E-09  7.75149E-09  7.76558E-09  7.77693E-09  7.78547E-09
   7.79113E-09  7.79387E-09  7.79360E-09  7.79027E-09  7.78383E-09  7.77419E-09  7.76131E-09  7.74512E-09  7.72555E-09  7.70254E-09
   7.67603E-09  7.64597E-09  7.61228E-09  7.57491E-09  7.53379E-09  7.48887E-09  7.44007E-09  7.38739E-09  7.33092E-09  7.27075E-09
   7.20696E-09  7.13966E-09  7.06896E-09  6.99492E-09  6.91767E-09  6.83729E-09  6.75390E-09  6.66759E-09  6.57847E-09  6.48664E-09
   6.39224E-09  6.29535E-09  6.19613E-09  6.09470E-09  5.99122E-09  5.88587E-09  5.77887E-09  5.67047E-09  5.56104E-09  5.45102E-09
   5.34121E-09  5.23275E-09  5.12782E-09  5.03080E-09  4.95237E-09  4.92623E-09  5.11548E-09  5.92694E-09  6.37172E-09  6.39887E-09
   6.29657E-09  6.17580E-09  6.01052E-09  5.84589E-09  5.76205E-09  5.74490E-09  5.56491E-09  4.81782E-09  3.55695E-09  3.12047E-09
   2.88362E-09  2.70066E-09  2.53897E-09  2.38779E-09  2.24266E-09  2.10144E-09  1.96301E-09  1.82670E-09  1.69219E-09  1.55924E-09
   1.42776E-09  1.29765E-09  1.16893E-09  1.04157E-09  9.15611E-10  7.91074E-10  6.68021E-10  5.46489E-10  4.26545E-10  3.08236E-10
   1.91641E-10  7.68220E-11 -3.61591E-11 -1.47219E-10 -2.56296E-10 -3.63329E-10 -4.68233E-10 -5.70935E-10 -6.71365E-10 -7.69440E-10
  -8.65088E-10 -9.58234E-10 -1.04882E-09 -1.13676E-09 -1.22196E-09 -1.30435E-09 -1.38388E-09 -1.46045E-09 -1.53399E-09 -1.60441E-09
  -1.67167E-09 -1.73565E-09 -1.79629E-09 -1.85353E-09 -1.90729E-09 -1.95744E-09 -2.00399E-09 -2.04682E-09 -2.08598E-09 -2.12155E-09
  -2.15362E-09 -2.18230E-09 -2.20766E-09 -2.22980E-09 -2.24880E-09 -2.26476E-09 -2.27777E-09 -2.28792E-09 -2.29529E-09 -2.29998E-09
  -2.30207E-09 -2.30166E-09 -2.29884E-09 -2.29369E-09 -2.28632E-09 -2.27679E-09 -2.26521E-09 -2.25167E-09 -2.23624E-09 -2.21904E-09
  -2.20014E-09 -2.17963E-09 -2.15761E-09 -2.13416E-09 -2.10938E-09 -2.08334E-09 -2.05616E-09 -2.02790E-09 -1.99867E-09 -1.96855E-09
  -1.93763E-09 -1.90601E-09 -1.87376E-09 -1.84100E-09 -1.80779E-09 -1.77423E-09 -1.74041E-09 -1.70643E-09 -1.67236E-09 -1.63830E-09
  -1.60435E-09 -1.57058E-09 -1.53709E-09 -1.50393E-09 -1.47110E-09 -1.43862E-09 -1.40649E-09 -1.37472E-09 -1.34331E-09 -1.31227E-09
  -1.28163E-09 -1.25137E-09 -1.22151E-09 -1.19205E-09 -1.16301E-09 -1.13438E-09 -1.10619E-09 -1.07843E-09 -1.05111E-09 -1.02425E-09
  -9.97847E-10 -9.71907E-10 -9.46442E-10 -9.21464E-10 -8.96971E-10 -8.72974E-10 -8.49486E-10 -8.26513E-10 -8.04057E-10 -7.82131E-10
  -7.60741E-10 -7.39894E-10 -7.19596E-10 -6.99859E-10 -6.80689E-10 -6.62097E-10 -6.44078E-10 -6.26659E-10 -6.09826E-10 -5.93612E-10
  -5.78005E-10 -5.63014E-10 -5.48649E-10 -5.34937E-10 -5.21857E-10 -5.09424E-10 -4.97660E-10 -4.86543E-10 -4.76107E-10 -4.66320E-10
  -4.57168E-10 -4.48628E-10 -4.40684E-10 -4.33317E-10 -4.26513E-10 -4.20249E-10 -4.14510E-10 -4.09277E-10 -4.04533E-10 -4.00259E-10
  -3.96436E-10 -3.93048E-10 -3.90077E-10 -3.87504E-10 -3.85312E-10 -3.83481E-10 -3.81996E-10 -3.80837E-10 -3.79986E-10 -3.79428E-10
  -3.79139E-10 -3.79106E-10 -3.79310E-10 -3.79730E-10 -3.80352E-10 -3.81160E-10 -3.82130E-10 -3.83245E-10 -3.84493E-10 -3.85848E-10
  -3.87295E-10 -3.88820E-10 -3.90401E-10 -3.92022E-10 -3.93662E-10 -3.95304E-10 -3.96930E-10 -3.98530E-10 -4.00070E-10 -4.01548E-10
  -4.02933E-10 -4.04217E-10 -4.05370E-10
 GABA     Conc. = 5.79E-10
  -1.82157E-09 -1.71512E-09 -1.60861E-09 -1.50203E-09 -1.39537E-09 -1.28866E-09 -1.18187E-09 -1.07502E-09 -9.68092E-10 -8.61062E-10
  -7.53945E-10 -6.46720E-10 -5.39342E-10 -4.31831E-10 -3.24075E-10 -2.16073E-10 -1.07873E-10  7.78939E-13  1.09977E-10  2.19729E-10
   3.30354E-10  4.42182E-10  5.55617E-10  6.71340E-10  7.90448E-10  9.14675E-10  1.04767E-09  1.19703E-09  1.38308E-09  1.66203E-09
   1.84772E-09  1.99498E-09  2.35606E-09  2.64755E-09  2.77066E-09  2.97058E-09  3.18618E-09  3.33267E-09  3.39924E-09  3.39001E-09
   3.34838E-09  3.45499E-09  3.42626E-09  3.18932E-09  3.20515E-09  3.27631E-09  3.19627E-09  3.19623E-09  3.24738E-09  3.31893E-09
   3.40095E-09  3.48890E-09  3.58081E-09  3.67603E-09  3.77420E-09  3.87525E-09  3.97988E-09  4.08942E-09  4.20648E-09  4.33671E-09
   4.49284E-09  4.71356E-09  4.97775E-09  5.12606E-09  5.33499E-09  5.65143E-09  5.81264E-09  5.89676E-09  6.03165E-09  6.15730E-09
   6.22526E-09  6.21968E-09  6.14279E-09  6.09904E-09  6.14759E-09  6.00066E-09  5.85352E-09  5.93460E-09  5.96579E-09  5.98449E-09
   6.09422E-09  6.15604E-09  6.25090E-09  6.47394E-09  6.61260E-09  6.70286E-09  6.88615E-09  7.04792E-09  7.16341E-09  7.27225E-09
   7.32975E-09  7.38629E-09  7.50047E-09  7.48540E-09  7.39947E-09  7.47338E-09  7.47712E-09  7.38480E-09  7.38926E-09  7.40310E-09
   7.39285E-09  7.40067E-09  7.41946E-09  7.44409E-09  7.47182E-09  7.50090E-09  7.53039E-09  7.55967E-09  7.58830E-09  7.61596E-09
   7.64232E-09  7.66700E-09  7.68987E-09  7.71076E-09  7.72955E-09  7.74620E-09  7.76056E-09  7.77248E-09  7.78186E-09  7.78861E-09
   7.79264E-09  7.79389E-09  7.79228E-09  7.78770E-09  7.78012E-09  7.76942E-09  7.75556E-09  7.73846E-09  7.71804E-09  7.69424E-09
   7.66699E-09  7.63621E-09  7.60186E-09  7.56386E-09  7.52214E-09  7.47665E-09  7.42731E-09  7.37410E-09  7.31711E-09  7.25643E-09
   7.19214E-09  7.12436E-09  7.05317E-09  6.97864E-09  6.90089E-09  6.82000E-09  6.73607E-09  6.64919E-09  6.55948E-09  6.46701E-09
   6.37190E-09  6.27423E-09  6.17413E-09  6.07169E-09  5.96704E-09  5.86032E-09  5.75165E-09  5.64121E-09  5.52919E-09  5.41582E-09
   5.30152E-09  5.18678E-09  5.07255E-09  4.96068E-09  4.85557E-09  4.77079E-09  4.77131E-09  5.04104E-09  5.15809E-09  5.09591E-09
   4.97718E-09  4.85042E-09  4.70436E-09  4.55756E-09  4.44440E-09  4.36080E-09  4.21213E-09  3.82600E-09  3.21108E-09  2.94661E-09
   2.76912E-09  2.61475E-09  2.46951E-09  2.32886E-09  2.19098E-09  2.05499E-09  1.92049E-09  1.78723E-09  1.65514E-09  1.52414E-09
   1.39425E-09  1.26547E-09  1.13787E-09  1.01147E-09  8.86322E-10  7.62492E-10  6.40056E-10  5.19065E-10  3.99598E-10  2.81713E-10
   1.65495E-10  5.10140E-11 -6.16633E-11 -1.72449E-10 -2.81277E-10 -3.88085E-10 -4.92782E-10 -5.95297E-10 -6.95554E-10 -7.93471E-10
  -8.88972E-10 -9.81983E-10 -1.07244E-09 -1.16027E-09 -1.24536E-09 -1.32766E-09 -1.40708E-09 -1.48357E-09 -1.55703E-09 -1.62737E-09
  -1.69456E-09 -1.75847E-09 -1.81905E-09 -1.87623E-09 -1.92994E-09 -1.98003E-09 -2.02652E-09 -2.06931E-09 -2.10842E-09 -2.14395E-09
  -2.17598E-09 -2.20462E-09 -2.22994E-09 -2.25204E-09 -2.27101E-09 -2.28694E-09 -2.29992E-09 -2.31004E-09 -2.31738E-09 -2.32204E-09
