 LCModel (Version 6.3-1R) Copyright: S.W. Provencher.          Ref.: Magn. Reson. Med. 30:672-679 (1993).                
 onepulse 16x9_ftSpec_smooth_lcm
 26 lines in following concentration table = NCONC+1
    Conc.  %SD /Cr+PCr  Metabolite                                         
    0.000 999%   0.000 Ala                                                 
 9.78E-10  90%   1.829 Asp                                                 
    0.000 999%   0.000 Cr                                                  
 1.72E-10 395%   0.321 GABA                                                
 9.16E-11 999%   0.171 Glc                                                 
 3.21E-09  23%   5.995 Gln                                                 
    0.000 999%   0.000 Glu                                                 
    0.000 999%   0.000 Glyc                                                
    0.000 999%   0.000 GPC                                                 
 3.84E-10 175%   0.717 GSH                                                 
 1.75E-09  35%   3.265 Ins                                                 
    0.000 999%   0.000 Lac                                                 
 4.33E-10  54%   0.810 NAAG                                                
    0.000 999%   0.000 NAA                                                 
    0.000 999%   0.000 PCh                                                 
 5.35E-10  74%   1.000 PCr                                                 
 1.89E-09  90%   3.527 PE                                                  
 1.93E-10 169%   0.361 Scyllo                                              
 3.26E-10 646%   0.610 Ser                                                 
 7.15E-10 287%   1.337 Tau                                                 
    0.000 999%   0.000 GPC+PCh                                             
 4.33E-10  54%   0.810 NAA+NAAG                                            
 1.75E-09  35%   3.265 Ins+Glyc                                            
 5.35E-10  74%   1.000 Cr+PCr                                              
 3.21E-09  23%   5.995 Glu+Gln                                             
   6 lines in following misc. output table
  FWHM = 0.112 ppm    S/N =   3                                            
  Data shift = 0.402 ppm                                                   
  Ph: -16 deg     -45.0 deg/ppm                                            
  alphaB,S = 3.7E-01,   4.2E+01                                            
   11 spline knots.   Ns = 5(1)                                            
  ( 8) 4 infls.   ( 7) 3 extrs.                                            
  363 points on ppm-axis = NY
      4.250000     4.238821     4.227641     4.216462     4.205282     4.194103     4.182923     4.171744     4.160564     4.149385
      4.138206     4.127026     4.115847     4.104667     4.093488     4.082308     4.071129     4.059949     4.048770     4.037591
      4.026411     4.015232     4.004052     3.992873     3.981693     3.970514     3.959334     3.948155     3.936975     3.925796
      3.914617     3.903437     3.892258     3.881078     3.869899     3.858719     3.847540     3.836360     3.825181     3.814002
      3.802822     3.791643     3.780463     3.769284     3.758104     3.746925     3.735745     3.724566     3.713387     3.702207
      3.691028     3.679848     3.668669     3.657489     3.646310     3.635130     3.623951     3.612772     3.601592     3.590413
      3.579233     3.568054     3.556874     3.545695     3.534515     3.523336     3.512156     3.500977     3.489798     3.478618
      3.467439     3.456259     3.445080     3.433900     3.422721     3.411541     3.400362     3.389183     3.378003     3.366824
      3.355644     3.344465     3.333285     3.322106     3.310926     3.299747     3.288568     3.277388     3.266209     3.255029
      3.243850     3.232670     3.221491     3.210311     3.199132     3.187953     3.176773     3.165594     3.154414     3.143235
      3.132055     3.120876     3.109696     3.098517     3.087337     3.076158     3.064979     3.053799     3.042620     3.031440
      3.020261     3.009081     2.997902     2.986722     2.975543     2.964364     2.953184     2.942005     2.930825     2.919646
      2.908466     2.897287     2.886107     2.874928     2.863749     2.852569     2.841390     2.830210     2.819031     2.807851
      2.796672     2.785492     2.774313     2.763134     2.751954     2.740775     2.729595     2.718416     2.707236     2.696057
      2.684877     2.673698     2.662519     2.651339     2.640160     2.628980     2.617801     2.606621     2.595442     2.584262
      2.573083     2.561903     2.550724     2.539545     2.528365     2.517186     2.506006     2.494827     2.483647     2.472468
      2.461288     2.450109     2.438930     2.427750     2.416571     2.405391     2.394212     2.383032     2.371853     2.360673
      2.349494     2.338315     2.327135     2.315956     2.304776     2.293597     2.282417     2.271238     2.260058     2.248879
      2.237700     2.226520     2.215341     2.204161     2.192982     2.181802     2.170623     2.159443     2.148264     2.137084
      2.125905     2.114726     2.103546     2.092367     2.081187     2.070008     2.058828     2.047649     2.036469     2.025290
      2.014111     2.002931     1.991752     1.980572     1.969393     1.958213     1.947034     1.935854     1.924675     1.913496
      1.902316     1.891137     1.879957     1.868778     1.857598     1.846419     1.835239     1.824060     1.812881     1.801701
      1.790522     1.779342     1.768163     1.756983     1.745804     1.734624     1.723445     1.712265     1.701086     1.689907
      1.678727     1.667548     1.656368     1.645189     1.634009     1.622830     1.611650     1.600471     1.589292     1.578112
      1.566933     1.555753     1.544574     1.533394     1.522215     1.511035     1.499856     1.488677     1.477497     1.466318
      1.455138     1.443959     1.432779     1.421600     1.410420     1.399241     1.388062     1.376882     1.365703     1.354523
      1.343344     1.332164     1.320985     1.309805     1.298626     1.287446     1.276267     1.265088     1.253908     1.242729
      1.231549     1.220370     1.209190     1.198011     1.186831     1.175652     1.164473     1.153293     1.142114     1.130934
      1.119755     1.108575     1.097396     1.086216     1.075037     1.063858     1.052678     1.041499     1.030319     1.019140
      1.007960     0.996781     0.985601     0.974422     0.963243     0.952063     0.940884     0.929704     0.918525     0.907345
      0.896166     0.884986     0.873807     0.862628     0.851448     0.840269     0.829089     0.817910     0.806730     0.795551
      0.784371     0.773192     0.762012     0.750833     0.739654     0.728474     0.717295     0.706115     0.694936     0.683756
      0.672577     0.661397     0.650218     0.639039     0.627859     0.616680     0.605500     0.594321     0.583141     0.571962
      0.560782     0.549603     0.538424     0.527244     0.516065     0.504885     0.493706     0.482526     0.471347     0.460167
      0.448988     0.437809     0.426629     0.415450     0.404270     0.393091     0.381911     0.370732     0.359552     0.348373
      0.337193     0.326014     0.314835     0.303655     0.292476     0.281296     0.270117     0.258937     0.247758     0.236578
      0.225399     0.214220     0.203040
 NY phased data points follow
   1.25559E-08  1.13065E-08  1.14794E-08  1.11451E-08  1.19317E-08  1.18833E-08  1.26422E-08  1.28819E-08  1.29478E-08  1.36537E-08
   1.39282E-08  1.35543E-08  1.29490E-08  1.28615E-08  1.26766E-08  1.22208E-08  1.22270E-08  1.19304E-08  1.19884E-08  1.21465E-08
   1.37136E-08  1.35994E-08  1.28816E-08  1.18211E-08  1.15455E-08  1.15032E-08  1.38785E-08  1.49318E-08  1.55841E-08  1.49057E-08
   1.39792E-08  1.26392E-08  1.14516E-08  1.08985E-08  1.12044E-08  1.09423E-08  1.02072E-08  1.09116E-08  1.03831E-08  9.73243E-09
   9.85677E-09  9.47996E-09  8.91100E-09  8.71488E-09  8.81500E-09  8.32718E-09  8.64912E-09  9.14953E-09  9.19851E-09  8.44911E-09
   8.04567E-09  7.57708E-09  7.54682E-09  8.15612E-09  8.73343E-09  9.02716E-09  9.31975E-09  1.07690E-08  1.31157E-08  1.57308E-08
   1.60522E-08  1.52584E-08  1.33500E-08  1.26294E-08  1.13659E-08  1.08489E-08  1.05388E-08  9.82633E-09  9.00994E-09  8.68657E-09
   8.16165E-09  8.42311E-09  6.58729E-09  8.51912E-09  1.04893E-08  1.67271E-08  1.84693E-08  1.82833E-08  1.66370E-08  1.67564E-08
   1.56021E-08  1.54876E-08  1.38863E-08  1.39168E-08  1.33335E-08  1.38612E-08  1.27423E-08  1.26234E-08  1.25221E-08  1.17895E-08
   1.14882E-08  1.10078E-08  9.70742E-09  1.02765E-08  9.63561E-09  9.12206E-09  8.68828E-09  9.28375E-09  9.56843E-09  8.87647E-09
   8.46511E-09  8.93881E-09  8.77734E-09  8.62045E-09  7.75758E-09  7.14033E-09  6.92434E-09  6.45535E-09  6.39059E-09  7.35555E-09
   7.15822E-09  7.07405E-09  7.50113E-09  7.77760E-09  7.39453E-09  7.59869E-09  7.99273E-09  8.61088E-09  7.94154E-09  7.30125E-09
   6.80619E-09  6.24795E-09  5.23527E-09  6.19885E-09  6.39546E-09  6.09462E-09  5.78152E-09  6.61654E-09  6.67369E-09  7.16002E-09
   6.74531E-09  7.28531E-09  6.79598E-09  6.29509E-09  5.82106E-09  7.38999E-09  8.71654E-09  9.29133E-09  9.18182E-09  8.61537E-09
   8.52738E-09  9.86424E-09  1.01312E-08  1.02468E-08  1.02733E-08  1.04114E-08  1.02011E-08  1.07868E-08  9.78084E-09  9.60136E-09
   9.29753E-09  1.00390E-08  9.88880E-09  9.75579E-09  9.51859E-09  9.77206E-09  9.11222E-09  9.15579E-09  9.34430E-09  9.55489E-09
   8.81068E-09  8.91903E-09  8.31617E-09  8.67366E-09  6.00895E-09  4.52844E-09  9.65801E-09  1.68225E-08  2.06605E-08  2.16301E-08
   2.10090E-08  2.10255E-08  2.18275E-08  2.08544E-08  2.04447E-08  1.94930E-08  1.96170E-08  1.82896E-08  1.74902E-08  1.65217E-08
   1.50376E-08  1.34359E-08  1.14269E-08  9.40917E-09  7.03671E-09  4.38134E-09  1.85165E-09 -1.23670E-09 -3.38899E-09 -4.96449E-09
  -7.16664E-09 -8.83481E-09 -1.04898E-08 -1.13821E-08 -1.16609E-08 -1.17284E-08 -1.13514E-08 -1.04418E-08 -1.06330E-08 -9.00901E-09
  -7.84195E-09 -6.45466E-09 -5.82550E-09 -4.72036E-09 -3.95402E-09 -3.26762E-09 -2.99085E-09 -2.25486E-09 -3.42901E-09 -2.53319E-09
  -3.18564E-09 -2.48694E-09 -2.70614E-09 -2.61898E-09 -2.68708E-09 -2.68475E-09 -2.32971E-09 -2.09993E-09 -1.82093E-09 -2.00761E-09
  -1.72287E-09 -1.55383E-09 -1.64657E-09 -2.44488E-09 -2.63316E-09 -2.18496E-09 -1.79170E-09 -1.64184E-09 -1.51129E-09 -1.48118E-09
  -2.30194E-09 -1.45831E-09 -1.73438E-09 -1.54203E-09 -8.94473E-10 -1.74156E-09 -2.33262E-09 -2.06369E-09 -2.40581E-09 -2.06978E-09
  -2.41870E-09 -2.65334E-09 -2.37950E-09 -1.72413E-09 -1.71972E-09 -1.45014E-09 -1.51970E-09 -1.19230E-09 -1.28677E-09 -1.07447E-09
  -1.31951E-09 -9.91188E-10 -1.26694E-09 -1.13051E-09 -1.49403E-09 -1.03073E-09 -1.49745E-09 -1.56839E-09 -2.07975E-09 -2.24537E-09
  -2.57662E-09 -2.54466E-09 -3.00859E-09 -3.13280E-09 -3.27111E-09 -3.03657E-09 -3.14528E-09 -3.01498E-09 -3.31287E-09 -2.96975E-09
  -1.55508E-09 -1.91791E-09 -1.86168E-09 -1.50528E-09 -1.34430E-09 -1.13001E-09 -1.15306E-09 -1.17743E-09 -4.78292E-10 -7.86081E-10
  -2.28098E-10 -9.80986E-10 -1.34127E-10 -1.66571E-10 -3.02610E-10 -5.45022E-10 -2.00332E-10 -4.60902E-10 -5.00377E-10 -8.21294E-10
  -5.96236E-10 -6.91163E-10 -2.15151E-10 -5.82166E-10 -4.99632E-10 -5.31811E-10 -1.06324E-09 -9.13916E-10 -8.16032E-10 -8.60547E-10
  -8.54205E-10 -9.97246E-10 -1.16492E-09 -1.12064E-09 -1.47374E-09 -1.56824E-09 -1.44561E-09 -1.56605E-09 -1.76011E-09 -1.48140E-09
  -1.92554E-09 -1.91840E-09 -1.31172E-09 -1.94348E-09 -1.63193E-09 -1.92715E-09 -2.00091E-09 -2.20800E-09 -1.77834E-09 -2.40574E-09
  -2.13908E-09 -2.42893E-09 -2.03726E-09 -2.10755E-09 -2.18864E-09 -2.78790E-09 -1.58535E-09 -2.72789E-09 -2.21030E-09 -2.66931E-09
  -2.21915E-09 -2.96695E-09 -2.18653E-09 -2.68505E-09 -2.32762E-09 -2.87902E-09 -2.11989E-09 -2.62895E-09 -2.68774E-09 -3.23772E-09
  -2.53219E-09 -3.32750E-09 -2.50657E-09 -3.16822E-09 -3.39762E-09 -3.39061E-09 -2.59717E-09 -3.50294E-09 -3.00686E-09 -3.25416E-09
  -3.05252E-09 -3.10552E-09 -3.09384E-09 -3.06466E-09 -3.22229E-09 -3.44468E-09 -2.98433E-09 -3.69148E-09 -3.31049E-09 -3.29556E-09
  -3.82861E-09 -3.70050E-09 -3.64208E-09
 NY points of the fit to the data follow
   1.30657E-08  1.25141E-08  1.18965E-08  1.16292E-08  1.17336E-08  1.21271E-08  1.22639E-08  1.21959E-08  1.26033E-08  1.32235E-08
   1.33305E-08  1.33053E-08  1.32370E-08  1.32270E-08  1.32724E-08  1.30348E-08  1.28989E-08  1.29445E-08  1.24775E-08  1.14602E-08
   1.10789E-08  1.15930E-08  1.23475E-08  1.30289E-08  1.35754E-08  1.41707E-08  1.46563E-08  1.46095E-08  1.41674E-08  1.36538E-08
   1.32477E-08  1.27687E-08  1.24024E-08  1.20914E-08  1.16141E-08  1.08945E-08  1.02720E-08  1.00391E-08  1.00431E-08  1.00220E-08
   9.82033E-09  9.27338E-09  8.40143E-09  7.79126E-09  7.71115E-09  7.77180E-09  7.81223E-09  7.70711E-09  7.79862E-09  8.04111E-09
   8.38874E-09  8.75062E-09  9.04561E-09  9.32896E-09  9.89816E-09  1.07111E-08  1.13556E-08  1.22233E-08  1.31822E-08  1.37346E-08
   1.39834E-08  1.41286E-08  1.41667E-08  1.39404E-08  1.32901E-08  1.24284E-08  1.17431E-08  1.11306E-08  1.02140E-08  9.73835E-09
   9.81239E-09  1.01775E-08  1.07421E-08  1.13726E-08  1.22005E-08  1.33925E-08  1.47259E-08  1.58429E-08  1.65135E-08  1.67408E-08
   1.66310E-08  1.61943E-08  1.54750E-08  1.49030E-08  1.42270E-08  1.29354E-08  1.15386E-08  1.05043E-08  9.83182E-09  9.40293E-09
   9.12834E-09  8.94951E-09  8.82261E-09  8.70735E-09  8.60353E-09  8.54073E-09  8.47754E-09  8.41522E-09  8.37445E-09  8.33445E-09
   8.31064E-09  8.30079E-09  8.29080E-09  8.28277E-09  8.28045E-09  8.28185E-09  8.28524E-09  8.28973E-09  8.29442E-09  8.29906E-09
   8.30326E-09  8.30669E-09  8.30909E-09  8.31020E-09  8.30982E-09  8.30778E-09  8.30389E-09  8.29799E-09  8.28992E-09  8.27955E-09
   8.26677E-09  8.25144E-09  8.23347E-09  8.21272E-09  8.18911E-09  8.16252E-09  8.13286E-09  8.10005E-09  8.06399E-09  8.02457E-09
   7.98173E-09  7.93538E-09  7.88545E-09  7.83184E-09  7.77449E-09  7.71332E-09  7.64826E-09  7.57930E-09  7.50655E-09  7.43016E-09
   7.35023E-09  7.26692E-09  7.18038E-09  7.09073E-09  6.99816E-09  6.90282E-09  6.80491E-09  6.70462E-09  6.60218E-09  6.49782E-09
   6.39185E-09  6.28456E-09  6.17638E-09  6.06777E-09  5.95932E-09  5.85182E-09  5.74626E-09  5.64406E-09  5.54718E-09  5.45855E-09
   5.38280E-09  5.32746E-09  5.30613E-09  5.34579E-09  5.50865E-09  5.97613E-09  7.53424E-09  1.29678E-08  1.85496E-08  2.17800E-08
   2.27329E-08  2.25997E-08  2.22898E-08  2.21089E-08  2.20122E-08  2.13417E-08  1.87368E-08  1.31389E-08  6.42021E-09  4.13038E-09
   3.27354E-09  2.79171E-09  2.45603E-09  2.19181E-09  1.96780E-09  1.76873E-09  1.58632E-09  1.41568E-09  1.25384E-09  1.09881E-09
   9.49319E-10  8.04440E-10  6.63591E-10  5.26286E-10  3.92224E-10  2.61171E-10  1.32979E-10  7.52265E-12 -1.15267E-10 -2.35451E-10
  -3.53043E-10 -4.68058E-10 -5.80499E-10 -6.90341E-10 -7.97570E-10 -9.02169E-10 -1.00409E-09 -1.10331E-09 -1.19977E-09 -1.29342E-09
  -1.38423E-09 -1.47214E-09 -1.55711E-09 -1.63909E-09 -1.71799E-09 -1.79379E-09 -1.86641E-09 -1.93582E-09 -2.00193E-09 -2.06468E-09
  -2.12406E-09 -2.17995E-09 -2.23230E-09 -2.28109E-09 -2.32624E-09 -2.36764E-09 -2.40530E-09 -2.43914E-09 -2.46920E-09 -2.49562E-09
  -2.51850E-09 -2.53796E-09 -2.55412E-09 -2.56709E-09 -2.57697E-09 -2.58390E-09 -2.58798E-09 -2.58933E-09 -2.58805E-09 -2.58427E-09
  -2.57809E-09 -2.56964E-09 -2.55902E-09 -2.54636E-09 -2.53175E-09 -2.51532E-09 -2.49717E-09 -2.47743E-09 -2.45621E-09 -2.43361E-09
  -2.40976E-09 -2.38476E-09 -2.35874E-09 -2.33179E-09 -2.30404E-09 -2.27560E-09 -2.24659E-09 -2.21711E-09 -2.18728E-09 -2.15721E-09
  -2.12702E-09 -2.09681E-09 -2.06671E-09 -2.03683E-09 -2.00727E-09 -1.97815E-09 -1.94959E-09 -1.92170E-09 -1.89458E-09 -1.86836E-09
  -1.84315E-09 -1.81906E-09 -1.79620E-09 -1.77461E-09 -1.75430E-09 -1.73525E-09 -1.71745E-09 -1.70089E-09 -1.68554E-09 -1.67141E-09
  -1.65848E-09 -1.64673E-09 -1.63616E-09 -1.62676E-09 -1.61850E-09 -1.61138E-09 -1.60539E-09 -1.60052E-09 -1.59674E-09 -1.59406E-09
  -1.59246E-09 -1.59191E-09 -1.59243E-09 -1.59399E-09 -1.59658E-09 -1.60018E-09 -1.60479E-09 -1.61040E-09 -1.61698E-09 -1.62454E-09
  -1.63305E-09 -1.64250E-09 -1.65289E-09 -1.66420E-09 -1.67641E-09 -1.68953E-09 -1.70352E-09 -1.71840E-09 -1.73412E-09 -1.75071E-09
  -1.76812E-09 -1.78635E-09 -1.80539E-09 -1.82525E-09 -1.84589E-09 -1.86729E-09 -1.88947E-09 -1.91237E-09 -1.93603E-09 -1.96040E-09
  -1.98547E-09 -2.01122E-09 -2.03761E-09 -2.06464E-09 -2.09229E-09 -2.12052E-09 -2.14933E-09 -2.17869E-09 -2.20858E-09 -2.23898E-09
  -2.26987E-09 -2.30123E-09 -2.33304E-09 -2.36527E-09 -2.39792E-09 -2.43094E-09 -2.46434E-09 -2.49808E-09 -2.53214E-09 -2.56652E-09
  -2.60117E-09 -2.63609E-09 -2.67125E-09 -2.70662E-09 -2.74221E-09 -2.77798E-09 -2.81390E-09 -2.84996E-09 -2.88615E-09 -2.92243E-09
  -2.95879E-09 -2.99521E-09 -3.03167E-09 -3.06814E-09 -3.10461E-09 -3.14105E-09 -3.17745E-09 -3.21379E-09 -3.25003E-09 -3.28617E-09
  -3.32218E-09 -3.35804E-09 -3.39373E-09
 NY background values follow
     2.238E-10    3.010E-10    3.781E-10    4.552E-10    5.324E-10    6.095E-10    6.866E-10    7.636E-10    8.406E-10    9.176E-10
     9.946E-10    1.071E-09    1.148E-09    1.225E-09    1.302E-09    1.378E-09    1.455E-09    1.531E-09    1.608E-09    1.684E-09
     1.760E-09    1.836E-09    1.912E-09    1.988E-09    2.064E-09    2.139E-09    2.215E-09    2.290E-09    2.365E-09    2.440E-09
     2.515E-09    2.589E-09    2.664E-09    2.738E-09    2.812E-09    2.886E-09    2.960E-09    3.034E-09    3.107E-09    3.180E-09
     3.253E-09    3.326E-09    3.398E-09    3.470E-09    3.542E-09    3.614E-09    3.686E-09    3.757E-09    3.828E-09    3.899E-09
     3.969E-09    4.039E-09    4.109E-09    4.178E-09    4.247E-09    4.316E-09    4.385E-09    4.453E-09    4.520E-09    4.587E-09
     4.654E-09    4.721E-09    4.787E-09    4.852E-09    4.917E-09    4.982E-09    5.046E-09    5.109E-09    5.173E-09    5.235E-09
     5.297E-09    5.359E-09    5.420E-09    5.480E-09    5.540E-09    5.599E-09    5.658E-09    5.716E-09    5.773E-09    5.830E-09
     5.886E-09    5.941E-09    5.996E-09    6.050E-09    6.103E-09    6.156E-09    6.208E-09    6.259E-09    6.310E-09    6.359E-09
     6.408E-09    6.457E-09    6.504E-09    6.550E-09    6.596E-09    6.640E-09    6.684E-09    6.726E-09    6.766E-09    6.806E-09
     6.844E-09    6.880E-09    6.915E-09    6.949E-09    6.980E-09    7.010E-09    7.038E-09    7.064E-09    7.088E-09    7.109E-09
     7.129E-09    7.146E-09    7.161E-09    7.174E-09    7.184E-09    7.191E-09    7.196E-09    7.198E-09    7.197E-09    7.194E-09
     7.187E-09    7.178E-09    7.165E-09    7.149E-09    7.130E-09    7.107E-09    7.082E-09    7.052E-09    7.019E-09    6.983E-09
     6.943E-09    6.899E-09    6.851E-09    6.799E-09    6.743E-09    6.683E-09    6.619E-09    6.551E-09    6.478E-09    6.402E-09
     6.322E-09    6.238E-09    6.151E-09    6.059E-09    5.965E-09    5.867E-09    5.766E-09    5.662E-09    5.555E-09    5.445E-09
     5.333E-09    5.218E-09    5.100E-09    4.980E-09    4.858E-09    4.733E-09    4.607E-09    4.479E-09    4.348E-09    4.216E-09
     4.083E-09    3.948E-09    3.811E-09    3.674E-09    3.535E-09    3.395E-09    3.254E-09    3.113E-09    2.970E-09    2.828E-09
     2.684E-09    2.541E-09    2.397E-09    2.253E-09    2.109E-09    1.965E-09    1.821E-09    1.678E-09    1.535E-09    1.392E-09
     1.251E-09    1.110E-09    9.696E-10    8.305E-10    6.925E-10    5.555E-10    4.196E-10    2.850E-10    1.517E-10    1.966E-11
    -1.109E-10   -2.400E-10   -3.676E-10   -4.936E-10   -6.179E-10   -7.405E-10   -8.612E-10   -9.801E-10   -1.097E-09   -1.212E-09
    -1.325E-09   -1.436E-09   -1.545E-09   -1.651E-09   -1.755E-09   -1.857E-09   -1.956E-09   -2.053E-09   -2.147E-09   -2.238E-09
    -2.327E-09   -2.413E-09   -2.496E-09   -2.577E-09   -2.654E-09   -2.728E-09   -2.800E-09   -2.868E-09   -2.932E-09   -2.994E-09
    -3.052E-09   -3.107E-09   -3.158E-09   -3.206E-09   -3.250E-09   -3.291E-09   -3.328E-09   -3.361E-09   -3.390E-09   -3.415E-09
    -3.438E-09   -3.456E-09   -3.472E-09   -3.484E-09   -3.493E-09   -3.499E-09   -3.503E-09   -3.504E-09   -3.502E-09   -3.497E-09
    -3.490E-09   -3.481E-09   -3.470E-09   -3.457E-09   -3.442E-09   -3.425E-09   -3.406E-09   -3.386E-09   -3.364E-09   -3.341E-09
    -3.317E-09   -3.291E-09   -3.265E-09   -3.237E-09   -3.209E-09   -3.180E-09   -3.151E-09   -3.121E-09   -3.091E-09   -3.060E-09
    -3.029E-09   -2.999E-09   -2.968E-09   -2.938E-09   -2.908E-09   -2.879E-09   -2.850E-09   -2.821E-09   -2.794E-09   -2.767E-09
    -2.741E-09   -2.717E-09   -2.694E-09   -2.672E-09   -2.651E-09   -2.632E-09   -2.613E-09   -2.597E-09   -2.581E-09   -2.566E-09
    -2.553E-09   -2.541E-09   -2.530E-09   -2.520E-09   -2.512E-09   -2.504E-09   -2.498E-09   -2.492E-09   -2.488E-09   -2.485E-09
    -2.483E-09   -2.482E-09   -2.483E-09   -2.484E-09   -2.486E-09   -2.489E-09   -2.493E-09   -2.499E-09   -2.505E-09   -2.512E-09
    -2.520E-09   -2.529E-09   -2.539E-09   -2.550E-09   -2.562E-09   -2.575E-09   -2.589E-09   -2.603E-09   -2.618E-09   -2.635E-09
    -2.652E-09   -2.670E-09   -2.688E-09   -2.708E-09   -2.728E-09   -2.749E-09   -2.771E-09   -2.793E-09   -2.817E-09   -2.841E-09
    -2.865E-09   -2.891E-09   -2.917E-09   -2.943E-09   -2.971E-09   -2.999E-09   -3.027E-09   -3.056E-09   -3.085E-09   -3.115E-09
    -3.146E-09   -3.177E-09   -3.208E-09   -3.240E-09   -3.273E-09   -3.305E-09   -3.338E-09   -3.372E-09   -3.405E-09   -3.439E-09
    -3.473E-09   -3.508E-09   -3.543E-09   -3.578E-09   -3.613E-09   -3.648E-09   -3.684E-09   -3.719E-09   -3.755E-09   -3.791E-09
    -3.827E-09   -3.863E-09   -3.899E-09   -3.935E-09   -3.971E-09   -4.007E-09   -4.043E-09   -4.079E-09   -4.115E-09   -4.151E-09
    -4.186E-09   -4.222E-09   -4.257E-09
 Asp      Conc. = 9.78E-10
   1.29047E-09  1.21237E-09  1.17008E-09  1.11775E-09  1.09452E-09  1.03614E-09  9.86674E-10  9.62415E-10  9.92418E-10  1.04281E-09
   1.10293E-09  1.16877E-09  1.23868E-09  1.31152E-09  1.38523E-09  1.45955E-09  1.53452E-09  1.61004E-09  1.68604E-09  1.76245E-09
   1.83922E-09  1.91635E-09  1.99383E-09  2.07169E-09  2.14995E-09  2.22869E-09  2.30801E-09  2.38804E-09  2.46896E-09  2.55107E-09
   2.63476E-09  2.72065E-09  2.80974E-09  2.90378E-09  3.00619E-09  3.12518E-09  3.28104E-09  3.43312E-09  3.59027E-09  3.70736E-09
   3.78690E-09  3.86167E-09  3.99004E-09  4.21255E-09  4.51204E-09  4.86506E-09  5.07205E-09  5.12176E-09  5.23511E-09  5.39213E-09
   5.58202E-09  5.73518E-09  5.79280E-09  5.69299E-09  5.47209E-09  5.27247E-09  5.18563E-09  5.26451E-09  5.26334E-09  5.16173E-09
   5.13975E-09  5.14190E-09  5.14685E-09  5.20433E-09  5.27683E-09  5.30732E-09  5.29839E-09  5.31910E-09  5.35411E-09  5.39652E-09
   5.44326E-09  5.49270E-09  5.54389E-09  5.59620E-09  5.64922E-09  5.70267E-09  5.75632E-09  5.81001E-09  5.86361E-09  5.91703E-09
   5.97016E-09  6.02296E-09  6.07535E-09  6.12729E-09  6.17875E-09  6.22967E-09  6.28002E-09  6.32978E-09  6.37892E-09  6.42741E-09
   6.47523E-09  6.52236E-09  6.56874E-09  6.61429E-09  6.65893E-09  6.70258E-09  6.74515E-09  6.78657E-09  6.82675E-09  6.86562E-09
   6.90309E-09  6.93909E-09  6.97354E-09  7.00636E-09  7.03747E-09  7.06680E-09  7.09426E-09  7.11978E-09  7.14328E-09  7.16469E-09
   7.18393E-09  7.20091E-09  7.21557E-09  7.22782E-09  7.23759E-09  7.24481E-09  7.24940E-09  7.25128E-09  7.25036E-09  7.24658E-09
   7.23987E-09  7.23013E-09  7.21731E-09  7.20131E-09  7.18208E-09  7.15952E-09  7.13357E-09  7.10414E-09  7.07117E-09  7.03457E-09
   6.99427E-09  6.95019E-09  6.90227E-09  6.85042E-09  6.79456E-09  6.73464E-09  6.67055E-09  6.60230E-09  6.52998E-09  6.45373E-09
   6.37362E-09  6.28980E-09  6.20238E-09  6.11146E-09  6.01718E-09  5.91965E-09  5.81898E-09  5.71530E-09  5.60873E-09  5.49939E-09
   5.38742E-09  5.27294E-09  5.15609E-09  5.03702E-09  4.91587E-09  4.79283E-09  4.66809E-09  4.54188E-09  4.41447E-09  4.28623E-09
   4.15772E-09  4.02971E-09  3.90362E-09  3.78216E-09  3.67163E-09  3.59090E-09  3.62622E-09  4.02243E-09  4.39915E-09  4.54715E-09
   4.49107E-09  4.34477E-09  4.18774E-09  4.04394E-09  3.90570E-09  3.70627E-09  3.31626E-09  2.64896E-09  1.91095E-09  1.60254E-09
   1.40086E-09  1.23001E-09  1.07229E-09  9.21661E-10  7.75530E-10  6.32635E-10  4.92323E-10  3.54190E-10  2.18053E-10  8.37671E-11
  -4.87011E-11 -1.79413E-10 -3.08321E-10 -4.35449E-10 -5.60753E-10 -6.84201E-10 -8.05739E-10 -9.25331E-10 -1.04292E-09 -1.15846E-09
  -1.27188E-09 -1.38314E-09 -1.49217E-09 -1.59891E-09 -1.70330E-09 -1.80530E-09 -1.90482E-09 -2.00181E-09 -2.09622E-09 -2.18796E-09
  -2.27698E-09 -2.36322E-09 -2.44662E-09 -2.52712E-09 -2.60463E-09 -2.67911E-09 -2.75048E-09 -2.81871E-09 -2.88370E-09 -2.94538E-09
  -3.00373E-09 -3.05864E-09 -3.11006E-09 -3.15796E-09 -3.20224E-09 -3.24281E-09 -3.27967E-09 -3.31273E-09 -3.34205E-09 -3.36775E-09
  -3.38993E-09 -3.40872E-09 -3.42422E-09 -3.43654E-09 -3.44581E-09 -3.45213E-09 -3.45562E-09 -3.45639E-09 -3.45456E-09 -3.45022E-09
  -3.44351E-09 -3.43454E-09 -3.42340E-09 -3.41023E-09 -3.39513E-09 -3.37821E-09 -3.35959E-09 -3.33938E-09 -3.31769E-09 -3.29464E-09
  -3.27034E-09 -3.24490E-09 -3.21844E-09 -3.19106E-09 -3.16289E-09 -3.13403E-09 -3.10461E-09 -3.07472E-09 -3.04448E-09 -3.01401E-09
  -2.98343E-09 -2.95283E-09 -2.92234E-09 -2.89207E-09 -2.86213E-09 -2.83263E-09 -2.80369E-09 -2.77543E-09 -2.74794E-09 -2.72136E-09
  -2.69578E-09 -2.67132E-09 -2.64810E-09 -2.62616E-09 -2.60549E-09 -2.58609E-09 -2.56794E-09 -2.55102E-09 -2.53532E-09 -2.52084E-09
  -2.50757E-09 -2.49547E-09 -2.48456E-09 -2.47481E-09 -2.46621E-09 -2.45875E-09 -2.45242E-09 -2.44720E-09 -2.44309E-09 -2.44007E-09
  -2.43813E-09 -2.43725E-09 -2.43742E-09 -2.43865E-09 -2.44090E-09 -2.44416E-09 -2.44844E-09 -2.45371E-09 -2.45995E-09 -2.46717E-09
  -2.47535E-09 -2.48447E-09 -2.49452E-09 -2.50549E-09 -2.51737E-09 -2.53015E-09 -2.54380E-09 -2.55834E-09 -2.57373E-09 -2.58997E-09
  -2.60705E-09 -2.62494E-09 -2.64364E-09 -2.66316E-09 -2.68345E-09 -2.70451E-09 -2.72635E-09 -2.74891E-09 -2.77222E-09 -2.79625E-09
  -2.82097E-09 -2.84637E-09 -2.87242E-09 -2.89910E-09 -2.92639E-09 -2.95428E-09 -2.98273E-09 -3.01174E-09 -3.04128E-09 -3.07132E-09
  -3.10185E-09 -3.13285E-09 -3.16430E-09 -3.19617E-09 -3.22845E-09 -3.26112E-09 -3.29415E-09 -3.32752E-09 -3.36122E-09 -3.39522E-09
  -3.42950E-09 -3.46404E-09 -3.49883E-09 -3.53383E-09 -3.56904E-09 -3.60442E-09 -3.63997E-09 -3.67564E-09 -3.71145E-09 -3.74734E-09
  -3.78331E-09 -3.81934E-09 -3.85540E-09 -3.89148E-09 -3.92755E-09 -3.96359E-09 -3.99958E-09 -4.03552E-09 -4.07135E-09 -4.10709E-09
  -4.14268E-09 -4.17813E-09 -4.21340E-09
 GABA     Conc. = 1.72E-10
   2.41829E-10  3.19210E-10  3.96604E-10  4.74006E-10  5.51424E-10  6.28838E-10  7.06262E-10  7.83678E-10  8.61095E-10  9.38514E-10
   1.01593E-09  1.09335E-09  1.17077E-09  1.24820E-09  1.32565E-09  1.40313E-09  1.48063E-09  1.55820E-09  1.63587E-09  1.71366E-09
   1.79163E-09  1.86988E-09  1.94854E-09  2.02777E-09  2.10790E-09  2.18940E-09  2.27325E-09  2.36143E-09  2.45918E-09  2.58028E-09
   2.69050E-09  2.78812E-09  2.92249E-09  3.05813E-09  3.16274E-09  3.26517E-09  3.36523E-09  3.45065E-09  3.51165E-09  3.55133E-09
   3.58764E-09  3.63917E-09  3.65568E-09  3.65264E-09  3.70032E-09  3.74828E-09  3.77513E-09  3.82353E-09  3.88327E-09  3.94769E-09
   4.01454E-09  4.08276E-09  4.15187E-09  4.22166E-09  4.29206E-09  4.36308E-09  4.43490E-09  4.50789E-09  4.58279E-09  4.66106E-09
   4.74602E-09  4.84752E-09  4.96285E-09  5.06026E-09  5.16287E-09  5.28498E-09  5.38623E-09  5.46437E-09  5.53679E-09  5.60240E-09
   5.65237E-09  5.68098E-09  5.69579E-09  5.71785E-09  5.74334E-09  5.73872E-09  5.75346E-09  5.80529E-09  5.84500E-09  5.88874E-09
   5.95391E-09  6.01392E-09  6.07710E-09  6.16425E-09  6.24460E-09  6.31390E-09  6.39377E-09  6.47326E-09  6.54334E-09  6.60315E-09
   6.65184E-09  6.70125E-09  6.74936E-09  6.76929E-09  6.78495E-09  6.82227E-09  6.84032E-09  6.84819E-09  6.87388E-09  6.89881E-09
   6.92049E-09  6.94582E-09  6.97278E-09  7.00006E-09  7.02691E-09  7.05285E-09  7.07755E-09  7.10082E-09  7.12245E-09  7.14232E-09
   7.16024E-09  7.17608E-09  7.18975E-09  7.20113E-09  7.21015E-09  7.21671E-09  7.22072E-09  7.22209E-09  7.22071E-09  7.21652E-09
   7.20943E-09  7.19936E-09  7.18623E-09  7.16995E-09  7.15046E-09  7.12766E-09  7.10148E-09  7.07185E-09  7.03868E-09  7.00189E-09
   6.96141E-09  6.91716E-09  6.86906E-09  6.81705E-09  6.76102E-09  6.70093E-09  6.63668E-09  6.56826E-09  6.49576E-09  6.41932E-09
   6.33901E-09  6.25499E-09  6.16735E-09  6.07618E-09  5.98164E-09  5.88381E-09  5.78282E-09  5.67877E-09  5.57179E-09  5.46199E-09
   5.34949E-09  5.23438E-09  5.11681E-09  4.99687E-09  4.87470E-09  4.75042E-09  4.62416E-09  4.49604E-09  4.36621E-09  4.23482E-09
   4.10209E-09  3.96821E-09  3.83353E-09  3.69864E-09  3.56476E-09  3.43537E-09  3.32650E-09  3.27979E-09  3.22798E-09  3.13534E-09
   3.00687E-09  2.86265E-09  2.71654E-09  2.57271E-09  2.42971E-09  2.27566E-09  2.08790E-09  1.85190E-09  1.60555E-09  1.43496E-09
   1.28289E-09  1.13673E-09  9.93554E-10  8.52407E-10  7.12885E-10  5.74823E-10  4.38174E-10  3.02896E-10  1.69038E-10  3.66038E-11
  -9.43351E-11 -2.23767E-10 -3.51590E-10 -4.77791E-10 -6.02293E-10 -7.25044E-10 -8.45971E-10 -9.65022E-10 -1.08213E-09 -1.19724E-09
  -1.31028E-09 -1.42119E-09 -1.52991E-09 -1.63636E-09 -1.74049E-09 -1.84225E-09 -1.94155E-09 -2.03835E-09 -2.13256E-09 -2.22413E-09
  -2.31299E-09 -2.39907E-09 -2.48233E-09 -2.56271E-09 -2.64009E-09 -2.71445E-09 -2.78572E-09 -2.85384E-09 -2.91873E-09 -2.98033E-09
  -3.03859E-09 -3.09342E-09 -3.14476E-09 -3.19258E-09 -3.23679E-09 -3.27729E-09 -3.31408E-09 -3.34709E-09 -3.37635E-09 -3.40198E-09
  -3.42411E-09 -3.44284E-09 -3.45829E-09 -3.47057E-09 -3.47979E-09 -3.48607E-09 -3.48951E-09 -3.49024E-09 -3.48836E-09 -3.48399E-09
