 LCModel (Version 6.3-1R) Copyright: S.W. Provencher.          Ref.: Magn. Reson. Med. 30:672-679 (1993).                
 onepulse 17x15_ftSpec_smooth_lcm
 26 lines in following concentration table = NCONC+1
    Conc.  %SD   /Cr    Metabolite                                         
    0.000 999%   0.000 Ala                                                 
    0.000 999%   0.000 Asp                                                 
    0.000 999%   0.000 Cr                                                  
 2.21E-09  18%   0.000 GABA                                                
 8.99E-10  32%   0.000 Glc                                                 
    0.000 999%   0.000 Gln                                                 
 5.23E-10  82%   0.000 Glu                                                 
 2.83E-10 336%   0.000 Glyc                                                
    0.000 999%   0.000 GPC                                                 
    0.000 999%   0.000 GSH                                                 
    0.000 999%   0.000 Ins                                                 
    0.000 999%   0.000 Lac                                                 
    0.000 999%   0.000 NAAG                                                
 9.09E-10  17%   0.000 NAA                                                 
    0.000 999%   0.000 PCh                                                 
    0.000 999%   0.000 PCr                                                 
 8.95E-10  41%   0.000 PE                                                  
    0.000 999%   0.000 Scyllo                                              
 5.75E-10  98%   0.000 Ser                                                 
    0.000 999%   0.000 Tau                                                 
    0.000 999%   0.000 GPC+PCh                                             
 9.09E-10  17%   0.000 NAA+NAAG                                            
 2.83E-10  73%   0.000 Ins+Glyc                                            
    0.000 999%   0.000 Cr+PCr                                              
 5.23E-10  82%   0.000 Glu+Gln                                             
   6 lines in following misc. output table
  FWHM = 0.067 ppm    S/N =   5                                            
  Data shift = 0.347 ppm                                                   
  Ph:  57 deg      19.2 deg/ppm                                            
  alphaB,S = 1.6E-01,   7.5E+01                                            
   16 spline knots.   Ns = 5(1)                                            
  ( 6) 2 infls.   ( 3) 1 extrs.                                            
  363 points on ppm-axis = NY
      4.250000     4.238821     4.227641     4.216462     4.205282     4.194103     4.182923     4.171744     4.160564     4.149385
      4.138206     4.127026     4.115847     4.104667     4.093488     4.082308     4.071129     4.059949     4.048770     4.037591
      4.026411     4.015232     4.004052     3.992873     3.981693     3.970514     3.959334     3.948155     3.936975     3.925796
      3.914617     3.903437     3.892258     3.881078     3.869899     3.858719     3.847540     3.836360     3.825181     3.814002
      3.802822     3.791643     3.780463     3.769284     3.758104     3.746925     3.735745     3.724566     3.713387     3.702207
      3.691028     3.679848     3.668669     3.657489     3.646310     3.635130     3.623951     3.612772     3.601592     3.590413
      3.579233     3.568054     3.556874     3.545695     3.534515     3.523336     3.512156     3.500977     3.489798     3.478618
      3.467439     3.456259     3.445080     3.433900     3.422721     3.411541     3.400362     3.389183     3.378003     3.366824
      3.355644     3.344465     3.333285     3.322106     3.310926     3.299747     3.288568     3.277388     3.266209     3.255029
      3.243850     3.232670     3.221491     3.210311     3.199132     3.187953     3.176773     3.165594     3.154414     3.143235
      3.132055     3.120876     3.109696     3.098517     3.087337     3.076158     3.064979     3.053799     3.042620     3.031440
      3.020261     3.009081     2.997902     2.986722     2.975543     2.964364     2.953184     2.942005     2.930825     2.919646
      2.908466     2.897287     2.886107     2.874928     2.863749     2.852569     2.841390     2.830210     2.819031     2.807851
      2.796672     2.785492     2.774313     2.763134     2.751954     2.740775     2.729595     2.718416     2.707236     2.696057
      2.684877     2.673698     2.662519     2.651339     2.640160     2.628980     2.617801     2.606621     2.595442     2.584262
      2.573083     2.561903     2.550724     2.539545     2.528365     2.517186     2.506006     2.494827     2.483647     2.472468
      2.461288     2.450109     2.438930     2.427750     2.416571     2.405391     2.394212     2.383032     2.371853     2.360673
      2.349494     2.338315     2.327135     2.315956     2.304776     2.293597     2.282417     2.271238     2.260058     2.248879
      2.237700     2.226520     2.215341     2.204161     2.192982     2.181802     2.170623     2.159443     2.148264     2.137084
      2.125905     2.114726     2.103546     2.092367     2.081187     2.070008     2.058828     2.047649     2.036469     2.025290
      2.014111     2.002931     1.991752     1.980572     1.969393     1.958213     1.947034     1.935854     1.924675     1.913496
      1.902316     1.891137     1.879957     1.868778     1.857598     1.846419     1.835239     1.824060     1.812881     1.801701
      1.790522     1.779342     1.768163     1.756983     1.745804     1.734624     1.723445     1.712265     1.701086     1.689907
      1.678727     1.667548     1.656368     1.645189     1.634009     1.622830     1.611650     1.600471     1.589292     1.578112
      1.566933     1.555753     1.544574     1.533394     1.522215     1.511035     1.499856     1.488677     1.477497     1.466318
      1.455138     1.443959     1.432779     1.421600     1.410420     1.399241     1.388062     1.376882     1.365703     1.354523
      1.343344     1.332164     1.320985     1.309805     1.298626     1.287446     1.276267     1.265088     1.253908     1.242729
      1.231549     1.220370     1.209190     1.198011     1.186831     1.175652     1.164473     1.153293     1.142114     1.130934
      1.119755     1.108575     1.097396     1.086216     1.075037     1.063858     1.052678     1.041499     1.030319     1.019140
      1.007960     0.996781     0.985601     0.974422     0.963243     0.952063     0.940884     0.929704     0.918525     0.907345
      0.896166     0.884986     0.873807     0.862628     0.851448     0.840269     0.829089     0.817910     0.806730     0.795551
      0.784371     0.773192     0.762012     0.750833     0.739654     0.728474     0.717295     0.706115     0.694936     0.683756
      0.672577     0.661397     0.650218     0.639039     0.627859     0.616680     0.605500     0.594321     0.583141     0.571962
      0.560782     0.549603     0.538424     0.527244     0.516065     0.504885     0.493706     0.482526     0.471347     0.460167
      0.448988     0.437809     0.426629     0.415450     0.404270     0.393091     0.381911     0.370732     0.359552     0.348373
      0.337193     0.326014     0.314835     0.303655     0.292476     0.281296     0.270117     0.258937     0.247758     0.236578
      0.225399     0.214220     0.203040
 NY phased data points follow
   1.15692E-08  1.37505E-08  1.35827E-08  1.31990E-08  1.08824E-08  1.08428E-08  1.00851E-08  1.00011E-08  8.41291E-09  9.54595E-09
   9.19458E-09  9.43629E-09  9.44775E-09  1.04116E-08  1.00916E-08  1.05991E-08  1.05979E-08  1.06938E-08  9.61121E-09  1.00447E-08
   9.45590E-09  9.38280E-09  8.36134E-09  9.55927E-09  9.73104E-09  1.13911E-08  1.06284E-08  1.03477E-08  9.38959E-09  1.00728E-08
   9.35107E-09  1.12445E-08  1.22552E-08  1.36769E-08  1.26268E-08  1.25409E-08  1.07668E-08  9.34316E-09  8.88709E-09  9.14220E-09
   8.37426E-09  8.17694E-09  7.43897E-09  7.52233E-09  7.26231E-09  7.68500E-09  6.53068E-09  6.26143E-09  5.18326E-09  5.87636E-09
   6.32354E-09  6.55323E-09  6.08803E-09  6.24722E-09  5.23590E-09  5.51373E-09  5.01937E-09  5.09941E-09  4.51363E-09  5.09631E-09
   4.71954E-09  6.00752E-09  7.78033E-09  1.23500E-08  1.44308E-08  1.43831E-08  1.18758E-08  1.09052E-08  9.33546E-09  8.91315E-09
   8.02821E-09  7.40726E-09  6.50108E-09  6.34849E-09  5.48020E-09  4.85620E-09  3.81798E-09  4.96131E-09  6.35259E-09  8.72274E-09
   1.23458E-08  1.44604E-08  1.34538E-08  1.26486E-08  1.10655E-08  1.00096E-08  9.59242E-09  8.82064E-09  8.72675E-09  8.66967E-09
   8.38058E-09  7.69477E-09  7.06025E-09  7.20284E-09  6.12684E-09  5.85009E-09  5.75788E-09  5.47217E-09  4.58332E-09  4.85114E-09
   4.64131E-09  4.64513E-09  4.38967E-09  4.75950E-09  4.70140E-09  4.50305E-09  4.67662E-09  4.32469E-09  4.06208E-09  3.66335E-09
   2.45669E-09  3.07733E-09  2.62527E-09  3.44805E-09  3.79918E-09  3.77728E-09  3.58746E-09  3.99584E-09  4.10340E-09  4.63138E-09
   4.41272E-09  4.81024E-09  4.36611E-09  3.52721E-09  2.49771E-09  2.41962E-09  2.56296E-09  2.27039E-09  2.37410E-09  2.79632E-09
   2.83161E-09  2.80265E-09  2.77261E-09  3.38970E-09  2.63602E-09  2.97386E-09  2.26303E-09  2.07379E-09  1.81027E-09  3.10238E-09
   3.30933E-09  4.57334E-09  4.38607E-09  3.87771E-09  3.35015E-09  4.25801E-09  4.40782E-09  4.44241E-09  4.62024E-09  4.22384E-09
   3.85203E-09  4.02711E-09  3.38817E-09  3.59858E-09  3.46766E-09  3.57528E-09  3.64811E-09  3.14147E-09  3.38811E-09  3.96210E-09
   3.81601E-09  4.32592E-09  3.59883E-09  3.66747E-09  3.12182E-09  3.19459E-09  3.17677E-09  3.59160E-09  4.64034E-09  6.12072E-09
   9.33447E-09  1.43171E-08  1.65333E-08  1.49332E-08  1.19022E-08  9.99320E-09  8.23313E-09  7.46408E-09  6.20546E-09  4.90079E-09
   4.31924E-09  3.66629E-09  2.76113E-09  2.46482E-09  2.01509E-09  2.02311E-10 -2.03069E-10 -4.11706E-10 -2.15677E-09 -2.93289E-09
  -4.26548E-09 -4.99410E-09 -5.26126E-09 -5.87154E-09 -7.32831E-09 -8.13953E-09 -8.13485E-09 -8.29909E-09 -8.91471E-09 -9.29901E-09
  -8.81640E-09 -8.40697E-09 -7.80964E-09 -7.29518E-09 -6.82370E-09 -5.54060E-09 -5.17479E-09 -4.43486E-09 -3.71970E-09 -2.94291E-09
  -2.24546E-09 -1.61876E-09 -1.34611E-09 -1.35759E-09 -1.15733E-09 -6.64195E-10 -1.73760E-09 -1.03745E-09 -9.04440E-10 -1.42450E-09
  -1.85356E-09 -1.00339E-09 -6.62418E-10 -9.44355E-10 -1.03550E-09  4.06093E-10 -1.47812E-09 -8.35230E-10 -1.13202E-09 -5.70744E-10
  -1.13078E-09 -9.08248E-10 -1.31244E-09 -7.82963E-10 -6.81033E-10 -2.99402E-10 -7.48107E-10 -1.80096E-10 -5.58106E-10 -1.02899E-09
  -1.07171E-09 -1.20993E-09 -1.49753E-10 -5.55071E-10 -1.25076E-09 -7.56073E-10 -3.48821E-11 -7.56657E-10 -2.31364E-10 -3.81729E-10
  -9.99845E-10  5.76458E-10 -2.10034E-10  2.07287E-10  4.72995E-10 -1.95199E-11 -1.75237E-10 -6.34834E-10 -1.02138E-09 -3.42827E-10
  -1.10342E-09 -1.52738E-09 -1.47082E-09 -1.04795E-09 -1.62913E-09 -6.06363E-10 -9.17928E-10 -2.13607E-10 -8.62543E-12 -1.18016E-10
   5.09789E-10  1.02735E-09  5.79194E-10  8.47337E-10  5.26808E-10  6.63178E-10  6.91582E-10  5.77904E-10  2.24694E-10  1.20447E-10
   2.43810E-11  6.23497E-10 -6.98877E-10 -6.16623E-10 -4.59906E-10 -1.26811E-10 -1.42304E-10 -5.62507E-10 -1.65534E-09 -5.64997E-10
  -3.03160E-10 -7.34681E-10 -1.10282E-09 -5.44179E-10 -4.49312E-10 -6.52413E-10 -9.24680E-10 -5.03948E-10 -7.05917E-10 -8.63168E-10
  -3.46663E-10 -8.91881E-10 -1.29923E-09 -4.57145E-10 -5.12378E-10 -7.75667E-10 -1.26478E-09 -5.39880E-10 -1.78770E-10 -2.36200E-10
  -6.82822E-10 -5.96519E-10 -6.84940E-10 -2.68639E-10 -4.30105E-10 -4.51082E-10 -5.04169E-10 -1.19751E-10 -4.37288E-10  3.14901E-11
  -4.01098E-10 -4.45414E-11 -4.23378E-10  2.41587E-10 -4.12200E-10  1.23694E-10  1.84304E-10  7.58767E-11 -1.46980E-10  1.19277E-10
   9.77904E-11  2.07071E-10 -6.12247E-10  8.09405E-10 -4.79756E-11  3.95777E-10 -1.56749E-11  5.88781E-10 -3.51173E-11  3.04446E-10
   6.98540E-10  3.28757E-10  5.56381E-10  7.06221E-10  4.67463E-10  8.06262E-10  6.48155E-10  3.42949E-10  4.73699E-10  1.16850E-09
   1.11871E-09  1.78149E-10  9.64164E-10  7.53114E-10  9.47020E-10  8.30387E-10  1.34279E-09  1.27199E-09  7.18616E-10  6.51140E-10
   1.25991E-09  1.06452E-09  1.69665E-09
 NY points of the fit to the data follow
   1.30324E-08  1.26258E-08  1.22381E-08  1.18796E-08  1.13717E-08  1.07797E-08  1.01612E-08  9.65908E-09  9.32785E-09  9.19489E-09
   9.28107E-09  9.49817E-09  9.73862E-09  9.92920E-09  1.00776E-08  1.02031E-08  1.03505E-08  1.04878E-08  1.04902E-08  1.03203E-08
   1.01061E-08  9.82550E-09  9.56013E-09  9.41054E-09  9.40616E-09  9.55989E-09  9.89757E-09  1.02928E-08  1.06529E-08  1.09439E-08
   1.11014E-08  1.11928E-08  1.12816E-08  1.13117E-08  1.13139E-08  1.12928E-08  1.11563E-08  1.07579E-08  1.01885E-08  9.50389E-09
   8.82052E-09  8.10443E-09  7.24395E-09  6.64104E-09  6.37942E-09  6.10158E-09  5.88898E-09  5.82583E-09  5.78845E-09  5.75329E-09
   5.74932E-09  5.79790E-09  5.90423E-09  6.03532E-09  6.16096E-09  6.25355E-09  6.31996E-09  6.36452E-09  6.44503E-09  6.62440E-09
   6.94854E-09  7.45162E-09  8.12066E-09  8.86957E-09  9.75017E-09  1.05503E-08  1.10889E-08  1.13442E-08  1.12642E-08  1.07836E-08
   1.00028E-08  9.03723E-09  8.06393E-09  7.34271E-09  6.68777E-09  6.17232E-09  6.28728E-09  6.89730E-09  7.86911E-09  9.32303E-09
   1.09378E-08  1.22094E-08  1.27792E-08  1.25609E-08  1.17825E-08  1.08055E-08  9.75103E-09  8.59311E-09  7.56903E-09  7.28896E-09
   7.14698E-09  7.02028E-09  6.73333E-09  6.29895E-09  5.99752E-09  5.69029E-09  5.26419E-09  4.96482E-09  4.76348E-09  4.56201E-09
   4.41150E-09  4.30808E-09  4.23269E-09  4.17535E-09  4.13023E-09  4.09366E-09  4.06334E-09  4.03757E-09  4.01520E-09  3.99540E-09
   3.97740E-09  3.96080E-09  3.94526E-09  3.93049E-09  3.91622E-09  3.90219E-09  3.88810E-09  3.87377E-09  3.85905E-09  3.84380E-09
   3.82791E-09  3.81126E-09  3.79371E-09  3.77516E-09  3.75551E-09  3.73465E-09  3.71250E-09  3.68898E-09  3.66402E-09  3.63751E-09
   3.60939E-09  3.57957E-09  3.54799E-09  3.51454E-09  3.47919E-09  3.44184E-09  3.40244E-09  3.36090E-09  3.31717E-09  3.27117E-09
   3.22281E-09  3.17209E-09  3.11895E-09  3.06337E-09  3.00531E-09  2.94474E-09  2.88165E-09  2.81601E-09  2.74780E-09  2.67701E-09
   2.60365E-09  2.52772E-09  2.44927E-09  2.36835E-09  2.28505E-09  2.19952E-09  2.11199E-09  2.02279E-09  1.93247E-09  1.84186E-09
   1.75235E-09  1.66628E-09  1.58793E-09  1.52569E-09  1.49881E-09  1.56311E-09  1.96211E-09  3.17477E-09  5.34595E-09  8.34821E-09
   1.16638E-08  1.43482E-08  1.55339E-08  1.50076E-08  1.32003E-08  1.06823E-08  7.74780E-09  4.58927E-09  1.97150E-09  7.80193E-10
   2.27148E-10 -1.33772E-10 -4.09992E-10 -6.39730E-10 -8.40173E-10 -1.02022E-09 -1.18486E-09 -1.33705E-09 -1.47860E-09 -1.61062E-09
  -1.73380E-09 -1.84854E-09 -1.95501E-09 -2.05326E-09 -2.14326E-09 -2.22490E-09 -2.29813E-09 -2.36327E-09 -2.42069E-09 -2.47072E-09
  -2.51369E-09 -2.54991E-09 -2.57967E-09 -2.60326E-09 -2.62095E-09 -2.63301E-09 -2.63971E-09 -2.64131E-09 -2.63805E-09 -2.63019E-09
  -2.61799E-09 -2.60168E-09 -2.58151E-09 -2.55772E-09 -2.53055E-09 -2.50025E-09 -2.46704E-09 -2.43116E-09 -2.39285E-09 -2.35234E-09
  -2.30986E-09 -2.26565E-09 -2.21993E-09 -2.17293E-09 -2.12486E-09 -2.07582E-09 -2.02592E-09 -1.97527E-09 -1.92397E-09 -1.87213E-09
  -1.81986E-09 -1.76726E-09 -1.71444E-09 -1.66150E-09 -1.60854E-09 -1.55567E-09 -1.50300E-09 -1.45062E-09 -1.39862E-09 -1.34714E-09
  -1.29626E-09 -1.24608E-09 -1.19671E-09 -1.14826E-09 -1.10080E-09 -1.05445E-09 -1.00932E-09 -9.65489E-10 -9.23074E-10 -8.82174E-10
  -8.42869E-10 -8.05287E-10 -7.69447E-10 -7.35317E-10 -7.02864E-10 -6.72050E-10 -6.42828E-10 -6.15166E-10 -5.89019E-10 -5.64351E-10
  -5.41124E-10 -5.19293E-10 -4.98826E-10 -4.79677E-10 -4.61814E-10 -4.45194E-10 -4.29769E-10 -4.15520E-10 -4.02397E-10 -3.90357E-10
  -3.79363E-10 -3.69384E-10 -3.60370E-10 -3.52287E-10 -3.45105E-10 -3.38767E-10 -3.33254E-10 -3.28515E-10 -3.24519E-10 -3.21219E-10
  -3.18570E-10 -3.16512E-10 -3.14982E-10 -3.13917E-10 -3.13263E-10 -3.12954E-10 -3.12934E-10 -3.13138E-10 -3.13509E-10 -3.13989E-10
  -3.14515E-10 -3.15030E-10 -3.15472E-10 -3.15784E-10 -3.15908E-10 -3.15782E-10 -3.15351E-10 -3.14553E-10 -3.13336E-10 -3.11633E-10
  -3.09396E-10 -3.06560E-10 -3.03069E-10 -2.98872E-10 -2.93904E-10 -2.88112E-10 -2.81441E-10 -2.73833E-10 -2.65287E-10 -2.55824E-10
  -2.45463E-10 -2.34228E-10 -2.22141E-10 -2.09220E-10 -1.95489E-10 -1.80969E-10 -1.65681E-10 -1.49646E-10 -1.32887E-10 -1.15422E-10
  -9.72757E-11 -7.84657E-11 -5.90143E-11 -3.89455E-11 -1.82751E-11  2.97085E-12  2.47752E-11  4.71172E-11  6.99741E-11  9.33240E-11
   1.17151E-10  1.41432E-10  1.66146E-10  1.91272E-10  2.16790E-10  2.42683E-10  2.68928E-10  2.95506E-10  3.22399E-10  3.49588E-10
   3.77054E-10  4.04778E-10  4.32742E-10  4.60926E-10  4.89310E-10  5.17880E-10  5.46611E-10  5.75490E-10  6.04495E-10  6.33611E-10
   6.62818E-10  6.92097E-10  7.21431E-10  7.50801E-10  7.80190E-10  8.09579E-10  8.38951E-10  8.68289E-10  8.97575E-10  9.26788E-10
   9.55913E-10  9.84932E-10  1.01383E-09
 NY background values follow
     6.056E-09    6.014E-09    5.972E-09    5.930E-09    5.887E-09    5.845E-09    5.803E-09    5.760E-09    5.718E-09    5.675E-09
     5.633E-09    5.591E-09    5.548E-09    5.506E-09    5.464E-09    5.422E-09    5.380E-09    5.337E-09    5.295E-09    5.253E-09
     5.211E-09    5.169E-09    5.128E-09    5.086E-09    5.044E-09    5.002E-09    4.961E-09    4.919E-09    4.878E-09    4.837E-09
     4.796E-09    4.755E-09    4.714E-09    4.674E-09    4.633E-09    4.594E-09    4.554E-09    4.515E-09    4.476E-09    4.438E-09
     4.400E-09    4.363E-09    4.326E-09    4.290E-09    4.254E-09    4.219E-09    4.185E-09    4.151E-09    4.118E-09    4.086E-09
     4.055E-09    4.025E-09    3.995E-09    3.967E-09    3.939E-09    3.912E-09    3.887E-09    3.862E-09    3.839E-09    3.816E-09
     3.795E-09    3.774E-09    3.754E-09    3.735E-09    3.718E-09    3.700E-09    3.684E-09    3.669E-09    3.654E-09    3.640E-09
     3.627E-09    3.614E-09    3.602E-09    3.591E-09    3.580E-09    3.570E-09    3.560E-09    3.551E-09    3.543E-09    3.535E-09
     3.527E-09    3.520E-09    3.513E-09    3.507E-09    3.501E-09    3.495E-09    3.490E-09    3.485E-09    3.480E-09    3.475E-09
     3.471E-09    3.466E-09    3.462E-09    3.458E-09    3.454E-09    3.450E-09    3.446E-09    3.441E-09    3.437E-09    3.433E-09
     3.428E-09    3.424E-09    3.419E-09    3.414E-09    3.408E-09    3.403E-09    3.397E-09    3.390E-09    3.384E-09    3.377E-09
     3.369E-09    3.361E-09    3.353E-09    3.344E-09    3.334E-09    3.323E-09    3.312E-09    3.300E-09    3.287E-09    3.274E-09
     3.259E-09    3.243E-09    3.226E-09    3.208E-09    3.188E-09    3.167E-09    3.145E-09    3.121E-09    3.096E-09    3.069E-09
     3.040E-09    3.010E-09    2.978E-09    2.944E-09    2.908E-09    2.870E-09    2.830E-09    2.788E-09    2.744E-09    2.697E-09
     2.648E-09    2.597E-09    2.544E-09    2.487E-09    2.429E-09    2.368E-09    2.304E-09    2.238E-09    2.170E-09    2.098E-09
     2.024E-09    1.947E-09    1.868E-09    1.786E-09    1.701E-09    1.613E-09    1.522E-09    1.428E-09    1.332E-09    1.232E-09
     1.129E-09    1.024E-09    9.149E-10    8.031E-10    6.880E-10    5.699E-10    4.485E-10    3.238E-10    1.960E-10    6.518E-11
    -6.813E-11   -2.036E-10   -3.408E-10   -4.794E-10   -6.190E-10   -7.592E-10   -8.996E-10   -1.040E-09   -1.180E-09   -1.318E-09
    -1.456E-09   -1.591E-09   -1.725E-09   -1.856E-09   -1.984E-09   -2.109E-09   -2.231E-09   -2.348E-09   -2.461E-09   -2.570E-09
    -2.673E-09   -2.770E-09   -2.862E-09   -2.947E-09   -3.026E-09   -3.098E-09   -3.162E-09   -3.219E-09   -3.270E-09   -3.313E-09
    -3.351E-09   -3.382E-09   -3.407E-09   -3.426E-09   -3.440E-09   -3.448E-09   -3.451E-09   -3.450E-09   -3.443E-09   -3.433E-09
    -3.418E-09   -3.399E-09   -3.377E-09   -3.351E-09   -3.322E-09   -3.290E-09   -3.255E-09   -3.218E-09   -3.178E-09   -3.136E-09
    -3.092E-09   -3.046E-09   -2.999E-09   -2.951E-09   -2.902E-09   -2.852E-09   -2.801E-09   -2.749E-09   -2.697E-09   -2.644E-09
    -2.591E-09   -2.537E-09   -2.484E-09   -2.430E-09   -2.376E-09   -2.322E-09   -2.269E-09   -2.216E-09   -2.163E-09   -2.111E-09
    -2.059E-09   -2.009E-09   -1.959E-09   -1.909E-09   -1.861E-09   -1.814E-09   -1.769E-09   -1.724E-09   -1.681E-09   -1.640E-09
    -1.600E-09   -1.562E-09   -1.525E-09   -1.490E-09   -1.457E-09   -1.426E-09   -1.396E-09   -1.368E-09   -1.341E-09   -1.316E-09
    -1.292E-09   -1.270E-09   -1.249E-09   -1.229E-09   -1.211E-09   -1.193E-09   -1.177E-09   -1.163E-09   -1.149E-09   -1.136E-09
    -1.125E-09   -1.114E-09   -1.105E-09   -1.096E-09   -1.088E-09   -1.081E-09   -1.075E-09   -1.070E-09   -1.065E-09   -1.061E-09
    -1.058E-09   -1.055E-09   -1.053E-09   -1.051E-09   -1.050E-09   -1.049E-09   -1.049E-09   -1.048E-09   -1.048E-09   -1.048E-09
    -1.048E-09   -1.048E-09   -1.047E-09   -1.047E-09   -1.046E-09   -1.046E-09   -1.045E-09   -1.043E-09   -1.041E-09   -1.039E-09
    -1.036E-09   -1.032E-09   -1.028E-09   -1.023E-09   -1.018E-09   -1.011E-09   -1.004E-09   -9.953E-10   -9.860E-10   -9.758E-10
    -9.647E-10   -9.528E-10   -9.399E-10   -9.262E-10   -9.117E-10   -8.964E-10   -8.804E-10   -8.636E-10   -8.460E-10   -8.278E-10
    -8.088E-10   -7.892E-10   -7.689E-10   -7.481E-10   -7.266E-10   -7.045E-10   -6.819E-10   -6.587E-10   -6.350E-10   -6.108E-10
    -5.861E-10   -5.609E-10   -5.354E-10   -5.094E-10   -4.830E-10   -4.562E-10   -4.290E-10   -4.016E-10   -3.738E-10   -3.457E-10
    -3.173E-10   -2.887E-10   -2.598E-10   -2.306E-10   -2.013E-10   -1.718E-10   -1.421E-10   -1.123E-10   -8.232E-11   -5.224E-11
    -2.206E-11    8.203E-12    3.852E-11    6.889E-11    9.927E-11    1.297E-10    1.601E-10    1.904E-10    2.207E-10    2.510E-10
     2.811E-10    3.112E-10    3.411E-10
 GABA     Conc. = 2.21E-09
   6.61513E-09  6.58030E-09  6.54589E-09  6.51194E-09  6.47849E-09  6.44563E-09  6.41338E-09  6.38186E-09  6.35115E-09  6.32133E-09
   6.29257E-09  6.26503E-09  6.23888E-09  6.21433E-09  6.19167E-09  6.17115E-09  6.15310E-09  6.13800E-09  6.12639E-09  6.11902E-09
   6.11700E-09  6.12169E-09  6.13506E-09  6.15995E-09  6.20041E-09  6.26305E-09  6.35892E-09  6.50923E-09  6.76246E-09  7.15090E-09
   7.62860E-09  8.21476E-09  8.88958E-09  9.50896E-09  1.00172E-08  1.03868E-08  1.05013E-08  1.02852E-08  9.77715E-09  9.09679E-09
   8.38968E-09  7.62938E-09  6.69990E-09  6.00110E-09  5.61691E-09  5.20543E-09  4.87461E-09  4.73351E-09  4.66103E-09  4.62100E-09
   4.59987E-09  4.59159E-09  4.59378E-09  4.60585E-09  4.62832E-09  4.66287E-09  4.71289E-09  4.78373E-09  4.88437E-09  5.03093E-09
   5.25724E-09  5.63490E-09  6.13729E-09  6.72675E-09  7.43481E-09  8.11572E-09  8.63265E-09  8.97039E-09  9.05474E-09  8.80078E-09
   8.22869E-09  7.46781E-09  6.70618E-09  6.08872E-09  5.37005E-09  4.68581E-09  4.45054E-09  4.28922E-09  4.09668E-09  4.08558E-09
   4.18287E-09  4.33725E-09  4.59432E-09  4.92850E-09  5.27462E-09  5.66119E-09  6.06691E-09  6.40924E-09  6.64973E-09  6.75089E-09
   6.74462E-09  6.68129E-09  6.42996E-09  6.01846E-09  5.72902E-09  5.42912E-09  5.00823E-09  4.71087E-09  4.50967E-09  4.30721E-09
   4.15494E-09  4.04921E-09  3.97113E-09  3.91087E-09  3.86272E-09  3.82305E-09  3.78959E-09  3.76070E-09  3.73522E-09  3.71234E-09
   3.69131E-09  3.67175E-09  3.65331E-09  3.63570E-09  3.61865E-09  3.60193E-09  3.58522E-09  3.56834E-09  3.55115E-09  3.53350E-09
   3.51529E-09  3.49639E-09  3.47666E-09  3.45601E-09  3.43432E-09  3.41151E-09  3.38747E-09  3.36212E-09  3.33540E-09  3.30721E-09
   3.27746E-09  3.24609E-09  3.21301E-09  3.17815E-09  3.14143E-09  3.10278E-09  3.06214E-09  3.01944E-09  2.97459E-09  2.92753E-09
   2.87817E-09  2.82650E-09  2.77247E-09  2.71605E-09  2.65719E-09  2.59587E-09  2.53205E-09  2.46572E-09  2.39682E-09  2.32534E-09
   2.25127E-09  2.17458E-09  2.09528E-09  2.01337E-09  1.92887E-09  1.84182E-09  1.75231E-09  1.66046E-09  1.56651E-09  1.47079E-09
   1.37392E-09  1.27697E-09  1.18194E-09  1.09290E-09  1.01975E-09  9.93745E-10  1.16601E-09  1.66191E-09  2.48240E-09  3.53280E-09
   4.55047E-09  5.18017E-09  5.20847E-09  4.68789E-09  3.82586E-09  2.78534E-09  1.62075E-09  4.46608E-10 -3.13259E-10 -6.60479E-10
  -9.00670E-10 -1.09803E-09 -1.27282E-09 -1.43337E-09 -1.58367E-09 -1.72577E-09 -1.86078E-09 -1.98924E-09 -2.11141E-09 -2.22735E-09
  -2.33699E-09 -2.44019E-09 -2.53675E-09 -2.62639E-09 -2.70888E-09 -2.78389E-09 -2.85126E-09 -2.91118E-09 -2.96392E-09 -3.00975E-09
  -3.04893E-09 -3.08171E-09 -3.10834E-09 -3.12908E-09 -3.14416E-09 -3.15382E-09 -3.15831E-09 -3.15787E-09 -3.15273E-09 -3.14313E-09
  -3.12930E-09 -3.11148E-09 -3.08990E-09 -3.06479E-09 -3.03639E-09 -3.00492E-09 -2.97062E-09 -2.93372E-09 -2.89443E-09 -2.85301E-09
  -2.80966E-09 -2.76462E-09 -2.71811E-09 -2.67037E-09 -2.62159E-09 -2.57187E-09 -2.52132E-09 -2.47005E-09 -2.41815E-09 -2.36574E-09
  -2.31292E-09 -2.25979E-09 -2.20645E-09 -2.15301E-09 -2.09957E-09 -2.04623E-09 -1.99310E-09 -1.94027E-09 -1.88785E-09 -1.83594E-09
  -1.78465E-09 -1.73407E-09 -1.68430E-09 -1.63545E-09 -1.58761E-09 -1.54089E-09 -1.49538E-09 -1.45119E-09 -1.40841E-09 -1.36715E-09
  -1.32749E-09 -1.28956E-09 -1.25337E-09 -1.21889E-09 -1.18609E-09 -1.15494E-09 -1.12538E-09 -1.09737E-09 -1.07089E-09 -1.04588E-09
  -1.02231E-09 -1.00014E-09 -9.79339E-10 -9.59851E-10 -9.41649E-10 -9.24689E-10 -9.08923E-10 -8.94332E-10 -8.80867E-10 -8.68483E-10
  -8.57143E-10 -8.46817E-10 -8.37454E-10 -8.29022E-10 -8.21487E-10 -8.14795E-10 -8.08925E-10 -8.03828E-10 -7.99471E-10 -7.95808E-10
  -7.92793E-10 -7.90367E-10 -7.88466E-10 -7.87027E-10 -7.85997E-10 -7.85309E-10 -7.84906E-10 -7.84725E-10 -7.84708E-10 -7.84797E-10
  -7.84928E-10 -7.85045E-10 -7.85087E-10 -7.84995E-10 -7.84711E-10 -7.84175E-10 -7.83330E-10 -7.82116E-10 -7.80478E-10 -7.78351E-10
  -7.75686E-10 -7.72419E-10 -7.68493E-10 -7.63857E-10 -7.58448E-10 -7.52210E-10 -7.45090E-10 -7.37029E-10 -7.28027E-10 -7.18103E-10
  -7.07279E-10 -6.95576E-10 -6.83018E-10 -6.69621E-10 -6.55411E-10 -6.40408E-10 -6.24633E-10 -6.08108E-10 -5.90854E-10 -5.72890E-10
  -5.54242E-10 -5.34926E-10 -5.14964E-10 -4.94382E-10 -4.73193E-10 -4.51425E-10 -4.29095E-10 -4.06223E-10 -3.82832E-10 -3.58945E-10
  -3.34576E-10 -3.09750E-10 -2.84486E-10 -2.58806E-10 -2.32730E-10 -2.06276E-10 -1.79465E-10 -1.52317E-10 -1.24850E-10 -9.70832E-11
  -6.90359E-11 -4.07258E-11 -1.21726E-11  1.66055E-11  4.55873E-11  7.47596E-11  1.04097E-10  1.33586E-10  1.63207E-10  1.92941E-10
   2.22771E-10  2.52676E-10  2.82641E-10  3.12646E-10  3.42674E-10  3.72706E-10  4.02725E-10  4.32714E-10  4.62654E-10  4.92526E-10
   5.22315E-10  5.52002E-10  5.81573E-10
 Glc      Conc. = 8.99E-10
   8.89731E-09  9.07753E-09  9.16025E-09  9.11382E-09  8.90033E-09  8.57151E-09  8.18714E-09  7.84570E-09  7.54826E-09  7.33140E-09
   7.24810E-09  7.23589E-09  7.28520E-09  7.42107E-09  7.64436E-09  7.94251E-09  8.29757E-09  8.64239E-09  8.83820E-09  8.79524E-09
   8.51380E-09  8.04381E-09  7.48879E-09  6.94434E-09  6.43628E-09  6.02398E-09  5.78747E-09  5.66665E-09  5.58178E-09  5.48918E-09
   5.36632E-09  5.23458E-09  5.11223E-09  4.97608E-09  4.83286E-09  4.71967E-09  4.62809E-09  4.53940E-09  4.46467E-09  4.41083E-09
   4.36640E-09  4.32637E-09  4.28925E-09  4.25408E-09  4.22040E-09  4.18791E-09  4.15645E-09  4.12594E-09  4.09625E-09  4.06741E-09
   4.03941E-09  4.01222E-09  3.98588E-09  3.96040E-09  3.93587E-09  3.91219E-09  3.88945E-09  3.86771E-09  3.84689E-09  3.82699E-09
   3.80798E-09  3.78985E-09  3.77255E-09  3.75608E-09  3.74040E-09  3.72550E-09  3.71135E-09  3.69793E-09  3.68522E-09  3.67319E-09
   3.66181E-09  3.65107E-09  3.64094E-09  3.63140E-09  3.62241E-09  3.61398E-09  3.60606E-09  3.59862E-09  3.59165E-09  3.58514E-09
   3.57902E-09  3.57332E-09  3.56796E-09  3.56297E-09  3.55827E-09  3.55388E-09  3.54975E-09  3.54585E-09  3.54216E-09  3.53864E-09
   3.53527E-09  3.53200E-09  3.52883E-09  3.52570E-09  3.52260E-09  3.51949E-09  3.51635E-09  3.51314E-09  3.50984E-09  3.50641E-09
   3.50282E-09  3.49905E-09  3.49506E-09  3.49082E-09  3.48631E-09  3.48147E-09  3.47632E-09  3.47078E-09  3.46484E-09  3.45847E-09
   3.45165E-09  3.44434E-09  3.43648E-09  3.42806E-09  3.41901E-09  3.40924E-09  3.39872E-09  3.38735E-09  3.37509E-09  3.36186E-09
   3.34760E-09  3.33224E-09  3.31573E-09  3.29798E-09  3.27895E-09  3.25856E-09  3.23675E-09  3.21345E-09  3.18861E-09  3.16215E-09
   3.13400E-09  3.10411E-09  3.07241E-09  3.03882E-09  3.00331E-09  2.96578E-09  2.92618E-09  2.88445E-09  2.84052E-09  2.79433E-09
   2.74580E-09  2.69491E-09  2.64161E-09  2.58588E-09  2.52769E-09  2.46698E-09  2.40375E-09  2.33794E-09  2.26954E-09  2.19850E-09
   2.12481E-09  2.04843E-09  1.96935E-09  1.88753E-09  1.80297E-09  1.71565E-09  1.62558E-09  1.53277E-09  1.43727E-09  1.33914E-09
   1.23852E-09  1.13564E-09  1.03098E-09  9.25335E-10  8.20488E-10  7.20745E-10  6.40171E-10  6.47262E-10  7.85744E-10  1.05398E-09
   1.40857E-09  1.73507E-09  1.88868E-09  1.79241E-09  1.47809E-09  1.03308E-09  5.19429E-10 -4.35245E-11 -6.01727E-10 -9.67596E-10
  -1.18322E-09 -1.35803E-09 -1.51523E-09 -1.66213E-09 -1.80165E-09 -1.93509E-09 -2.06300E-09 -2.18556E-09 -2.30274E-09 -2.41442E-09
  -2.52039E-09 -2.62040E-09 -2.71414E-09 -2.80130E-09 -2.88157E-09 -2.95460E-09 -3.02018E-09 -3.07847E-09 -3.12974E-09 -3.17422E-09
  -3.21216E-09 -3.24380E-09 -3.26938E-09 -3.28914E-09 -3.30331E-09 -3.31213E-09 -3.31583E-09 -3.31465E-09 -3.30881E-09 -3.29856E-09
  -3.28411E-09 -3.26570E-09 -3.24357E-09 -3.21793E-09 -3.18903E-09 -3.15708E-09 -3.12233E-09 -3.08498E-09 -3.04529E-09 -3.00346E-09
  -2.95973E-09 -2.91432E-09 -2.86746E-09 -2.81938E-09 -2.77026E-09 -2.72022E-09 -2.66936E-09 -2.61779E-09 -2.56560E-09 -2.51291E-09
