 LCModel (Version 6.3-1R) Copyright: S.W. Provencher.          Ref.: Magn. Reson. Med. 30:672-679 (1993).                
 onepulse 17x18_ftSpec_smooth_lcm
 26 lines in following concentration table = NCONC+1
    Conc.  %SD   /Cr    Metabolite                                         
 1.12E-10 140%   0.000 Ala                                                 
 7.20E-10  47%   0.000 Asp                                                 
    0.000 999%   0.000 Cr                                                  
 2.78E-09  10%   0.000 GABA                                                
 1.15E-09  31%   0.000 Glc                                                 
    0.000 999%   0.000 Gln                                                 
 1.43E-10 213%   0.000 Glu                                                 
 3.24E-11 999%   0.000 Glyc                                                
    0.000 999%   0.000 GPC                                                 
    0.000 999%   0.000 GSH                                                 
 1.37E-10 633%   0.000 Ins                                                 
    0.000 999%   0.000 Lac                                                 
    0.000 999%   0.000 NAAG                                                
 9.97E-10  14%   0.000 NAA                                                 
 1.13E-10  46%   0.000 PCh                                                 
    0.000 999%   0.000 PCr                                                 
    0.000 999%   0.000 PE                                                  
 1.74E-11 482%   0.000 Scyllo                                              
    0.000 999%   0.000 Ser                                                 
    0.000 999%   0.000 Tau                                                 
 1.13E-10  46%   0.000 GPC+PCh                                             
 9.97E-10  14%   0.000 NAA+NAAG                                            
 1.70E-10 112%   0.000 Ins+Glyc                                            
    0.000 999%   0.000 Cr+PCr                                              
 1.43E-10 213%   0.000 Glu+Gln                                             
   6 lines in following misc. output table
  FWHM = 0.078 ppm    S/N =   5                                            
  Data shift = 0.347 ppm                                                   
  Ph:  68 deg      28.4 deg/ppm                                            
  alphaB,S = 1.6E-01,   1.2E+02                                            
   16 spline knots.   Ns = 5(1)                                            
  ( 9) 2 infls.   ( 3) 1 extrs.                                            
  363 points on ppm-axis = NY
      4.250000     4.238821     4.227641     4.216462     4.205282     4.194103     4.182923     4.171744     4.160564     4.149385
      4.138206     4.127026     4.115847     4.104667     4.093488     4.082308     4.071129     4.059949     4.048770     4.037591
      4.026411     4.015232     4.004052     3.992873     3.981693     3.970514     3.959334     3.948155     3.936975     3.925796
      3.914617     3.903437     3.892258     3.881078     3.869899     3.858719     3.847540     3.836360     3.825181     3.814002
      3.802822     3.791643     3.780463     3.769284     3.758104     3.746925     3.735745     3.724566     3.713387     3.702207
      3.691028     3.679848     3.668669     3.657489     3.646310     3.635130     3.623951     3.612772     3.601592     3.590413
      3.579233     3.568054     3.556874     3.545695     3.534515     3.523336     3.512156     3.500977     3.489798     3.478618
      3.467439     3.456259     3.445080     3.433900     3.422721     3.411541     3.400362     3.389183     3.378003     3.366824
      3.355644     3.344465     3.333285     3.322106     3.310926     3.299747     3.288568     3.277388     3.266209     3.255029
      3.243850     3.232670     3.221491     3.210311     3.199132     3.187953     3.176773     3.165594     3.154414     3.143235
      3.132055     3.120876     3.109696     3.098517     3.087337     3.076158     3.064979     3.053799     3.042620     3.031440
      3.020261     3.009081     2.997902     2.986722     2.975543     2.964364     2.953184     2.942005     2.930825     2.919646
      2.908466     2.897287     2.886107     2.874928     2.863749     2.852569     2.841390     2.830210     2.819031     2.807851
      2.796672     2.785492     2.774313     2.763134     2.751954     2.740775     2.729595     2.718416     2.707236     2.696057
      2.684877     2.673698     2.662519     2.651339     2.640160     2.628980     2.617801     2.606621     2.595442     2.584262
      2.573083     2.561903     2.550724     2.539545     2.528365     2.517186     2.506006     2.494827     2.483647     2.472468
      2.461288     2.450109     2.438930     2.427750     2.416571     2.405391     2.394212     2.383032     2.371853     2.360673
      2.349494     2.338315     2.327135     2.315956     2.304776     2.293597     2.282417     2.271238     2.260058     2.248879
      2.237700     2.226520     2.215341     2.204161     2.192982     2.181802     2.170623     2.159443     2.148264     2.137084
      2.125905     2.114726     2.103546     2.092367     2.081187     2.070008     2.058828     2.047649     2.036469     2.025290
      2.014111     2.002931     1.991752     1.980572     1.969393     1.958213     1.947034     1.935854     1.924675     1.913496
      1.902316     1.891137     1.879957     1.868778     1.857598     1.846419     1.835239     1.824060     1.812881     1.801701
      1.790522     1.779342     1.768163     1.756983     1.745804     1.734624     1.723445     1.712265     1.701086     1.689907
      1.678727     1.667548     1.656368     1.645189     1.634009     1.622830     1.611650     1.600471     1.589292     1.578112
      1.566933     1.555753     1.544574     1.533394     1.522215     1.511035     1.499856     1.488677     1.477497     1.466318
      1.455138     1.443959     1.432779     1.421600     1.410420     1.399241     1.388062     1.376882     1.365703     1.354523
      1.343344     1.332164     1.320985     1.309805     1.298626     1.287446     1.276267     1.265088     1.253908     1.242729
      1.231549     1.220370     1.209190     1.198011     1.186831     1.175652     1.164473     1.153293     1.142114     1.130934
      1.119755     1.108575     1.097396     1.086216     1.075037     1.063858     1.052678     1.041499     1.030319     1.019140
      1.007960     0.996781     0.985601     0.974422     0.963243     0.952063     0.940884     0.929704     0.918525     0.907345
      0.896166     0.884986     0.873807     0.862628     0.851448     0.840269     0.829089     0.817910     0.806730     0.795551
      0.784371     0.773192     0.762012     0.750833     0.739654     0.728474     0.717295     0.706115     0.694936     0.683756
      0.672577     0.661397     0.650218     0.639039     0.627859     0.616680     0.605500     0.594321     0.583141     0.571962
      0.560782     0.549603     0.538424     0.527244     0.516065     0.504885     0.493706     0.482526     0.471347     0.460167
      0.448988     0.437809     0.426629     0.415450     0.404270     0.393091     0.381911     0.370732     0.359552     0.348373
      0.337193     0.326014     0.314835     0.303655     0.292476     0.281296     0.270117     0.258937     0.247758     0.236578
      0.225399     0.214220     0.203040
 NY phased data points follow
   2.08131E-09  3.93559E-09  5.07108E-09  6.46757E-09  5.68558E-09  4.73514E-09  4.76119E-09  3.69196E-09  3.12374E-09  3.68525E-09
   3.64812E-09  3.55878E-09  3.74107E-09  3.85543E-09  4.28508E-09  5.24307E-09  5.12213E-09  5.29632E-09  5.26356E-09  5.40244E-09
   5.67562E-09  5.45757E-09  4.15348E-09  4.57607E-09  5.27740E-09  6.52347E-09  6.23064E-09  5.88026E-09  5.78595E-09  6.05593E-09
   5.28333E-09  6.28611E-09  7.24841E-09  9.70456E-09  9.12874E-09  9.95186E-09  9.24050E-09  7.79121E-09  7.44145E-09  6.64153E-09
   6.65851E-09  6.06130E-09  6.27806E-09  5.69784E-09  5.48805E-09  6.12378E-09  5.12542E-09  5.20067E-09  3.55632E-09  4.22015E-09
   4.33847E-09  3.94480E-09  4.58628E-09  4.52498E-09  4.40644E-09  3.88751E-09  3.69948E-09  3.62531E-09  2.71976E-09  2.46660E-09
   2.79977E-09  3.23372E-09  4.33207E-09  7.50602E-09  1.05059E-08  1.17047E-08  1.08531E-08  9.74020E-09  8.18903E-09  7.28718E-09
   7.67933E-09  6.49111E-09  5.39218E-09  5.02323E-09  5.24965E-09  3.14420E-09  2.78118E-09  3.73709E-09  4.37665E-09  6.08867E-09
   9.38889E-09  1.23134E-08  1.20698E-08  1.19894E-08  1.01645E-08  9.55643E-09  9.71847E-09  8.39488E-09  7.83549E-09  8.02708E-09
   7.68671E-09  7.34590E-09  7.75346E-09  6.65009E-09  6.61375E-09  6.08277E-09  5.67002E-09  5.87371E-09  4.35056E-09  5.32572E-09
   4.46290E-09  5.70579E-09  4.11037E-09  4.69166E-09  4.79140E-09  4.70916E-09  4.63119E-09  4.48592E-09  4.36573E-09  3.43746E-09
   3.10690E-09  2.86378E-09  2.76662E-09  3.72591E-09  3.42317E-09  3.63304E-09  3.55847E-09  4.12546E-09  4.51623E-09  4.76207E-09
   4.38985E-09  3.80592E-09  4.67564E-09  3.49697E-09  2.62809E-09  2.42138E-09  2.43673E-09  2.37785E-09  2.40481E-09  2.77234E-09
   2.96479E-09  2.55936E-09  2.54803E-09  3.94813E-09  2.78318E-09  2.52581E-09  2.20715E-09  1.68262E-09  1.99220E-09  2.91694E-09
   3.05316E-09  4.16300E-09  4.36573E-09  3.05481E-09  2.87854E-09  3.60623E-09  3.74161E-09  4.84737E-09  3.74809E-09  3.94872E-09
   3.20577E-09  3.74433E-09  3.68524E-09  3.71647E-09  4.01466E-09  3.64749E-09  3.74814E-09  3.64309E-09  3.98305E-09  4.78973E-09
   4.48332E-09  4.51907E-09  3.97251E-09  3.80703E-09  4.08933E-09  4.27087E-09  4.25598E-09  4.77085E-09  6.42059E-09  8.94793E-09
   1.11036E-08  1.49796E-08  1.61414E-08  1.46264E-08  1.16975E-08  9.02222E-09  6.64747E-09  6.92640E-09  5.86711E-09  4.57426E-09
   3.74063E-09  3.61242E-09  3.05054E-09  2.25140E-09  2.90019E-09  7.83253E-10  6.84814E-10 -1.32862E-10 -1.23556E-09 -1.28902E-09
  -2.08907E-09 -3.35866E-09 -4.21734E-09 -4.38531E-09 -5.86251E-09 -6.36060E-09 -6.97844E-09 -7.67428E-09 -8.66374E-09 -8.84239E-09
  -8.92263E-09 -8.83899E-09 -8.29013E-09 -8.79410E-09 -8.58232E-09 -7.73618E-09 -6.47348E-09 -6.23991E-09 -5.34227E-09 -5.46664E-09
  -3.57278E-09 -2.68021E-09 -2.03756E-09 -1.84379E-09 -1.40103E-09 -1.16389E-09 -1.48329E-09 -1.00192E-09 -8.35793E-10 -1.71511E-09
  -1.97145E-09 -1.11561E-09 -6.65146E-10 -1.91602E-09 -1.13056E-09 -6.75342E-10 -1.14026E-09 -5.21328E-10 -1.47447E-09 -6.91291E-10
  -1.39015E-09 -1.39455E-09 -1.31176E-09 -1.82659E-09 -6.44319E-10 -8.22194E-10 -1.02029E-09 -6.85593E-11 -1.50022E-09 -8.08040E-10
  -8.70030E-10 -9.14636E-10 -8.76267E-10 -1.36352E-09 -1.25215E-09 -8.08016E-10 -4.96993E-10 -1.39034E-09 -6.44072E-10 -3.40348E-10
  -6.42850E-10  1.13692E-10 -4.42971E-10  4.07432E-10 -8.32200E-10 -7.84376E-10 -5.44191E-10 -1.16509E-09 -8.11826E-10 -9.37674E-10
  -1.15940E-09 -1.72466E-09 -1.39549E-09 -1.46111E-09 -1.11094E-09 -8.84751E-10 -7.13464E-10  3.24528E-10 -1.26695E-10  3.12631E-10
   3.15140E-10  9.05027E-11  3.51326E-10  7.55638E-10  2.03287E-10  1.54105E-10  1.72560E-10 -4.50988E-10 -5.11454E-10 -4.86228E-10
  -1.13525E-09 -1.20665E-09 -3.72889E-10 -1.06308E-09 -8.22137E-10 -5.13996E-10 -9.28659E-10 -8.12783E-10 -1.07646E-09 -6.37442E-10
  -9.31524E-10 -1.28634E-09 -7.83092E-10 -3.68504E-10 -1.04342E-09 -3.06127E-10 -8.17445E-10 -5.98835E-10 -8.60150E-10 -2.50820E-10
  -1.07786E-10 -7.56818E-10 -6.84332E-10 -5.26603E-10 -7.63236E-10 -3.51320E-10 -6.28149E-10 -2.94020E-10  4.75252E-12 -4.36664E-10
  -8.46652E-10  9.61095E-11 -2.54154E-10  1.60350E-10  1.08228E-10 -4.23418E-11 -7.88231E-11 -9.02565E-11 -1.34160E-10  5.51914E-10
  -1.25942E-10  4.60200E-10 -1.78157E-10  3.05647E-11  5.16443E-10 -3.13098E-11  7.24231E-10  6.20117E-10  6.96501E-10  9.14396E-11
   2.93726E-10 -3.34525E-11  6.07362E-10  5.11606E-10  5.39917E-10  7.67070E-10  6.45185E-11  7.54481E-10  5.88720E-10  4.06057E-10
   2.30668E-10  6.90154E-10  8.64300E-10  3.40492E-10  1.24797E-10  6.49715E-10  1.44603E-10  1.01322E-09  2.89893E-10  9.22019E-10
   6.93335E-10  5.68450E-10  6.31185E-10  8.61243E-10  6.63626E-10  6.63313E-10  3.22323E-10  5.76233E-10  4.63968E-10  1.12998E-09
   4.88165E-10  4.90313E-10  1.05791E-09
 NY points of the fit to the data follow
   3.97943E-09  4.37197E-09  4.67430E-09  4.84171E-09  4.82550E-09  4.64890E-09  4.36894E-09  4.05625E-09  3.82278E-09  3.66298E-09
   3.62547E-09  3.67107E-09  3.76648E-09  3.91384E-09  4.15577E-09  4.50666E-09  4.94677E-09  5.40997E-09  5.77255E-09  5.93572E-09
   5.90857E-09  5.67516E-09  5.29241E-09  4.97925E-09  4.85812E-09  4.92670E-09  5.18772E-09  5.59231E-09  6.02503E-09  6.47426E-09
   6.77863E-09  7.03311E-09  7.46145E-09  7.86744E-09  8.15796E-09  8.52723E-09  8.82904E-09  8.84558E-09  8.54330E-09  7.98886E-09
   7.31045E-09  6.56549E-09  5.63357E-09  4.88276E-09  4.51897E-09  4.26027E-09  4.09666E-09  4.10906E-09  4.17469E-09  4.22985E-09
   4.26483E-09  4.27422E-09  4.28414E-09  4.26415E-09  4.19654E-09  4.11304E-09  4.03927E-09  4.01924E-09  4.02404E-09  4.08889E-09
   4.30666E-09  4.79118E-09  5.46444E-09  6.20187E-09  7.17429E-09  8.15549E-09  8.87346E-09  9.33120E-09  9.49113E-09  9.26952E-09
   8.70168E-09  7.85210E-09  6.89385E-09  6.05396E-09  5.23654E-09  4.53037E-09  4.38353E-09  4.95028E-09  6.01249E-09  7.52987E-09
   9.15409E-09  1.04609E-08  1.12798E-08  1.15108E-08  1.11172E-08  1.03739E-08  9.49637E-09  8.53396E-09  7.70620E-09  7.44414E-09
   7.31898E-09  7.18660E-09  6.90383E-09  6.45792E-09  6.08725E-09  5.72246E-09  5.25837E-09  4.90055E-09  4.65385E-09  4.43677E-09
   4.30663E-09  4.24571E-09  4.22463E-09  4.24178E-09  4.27272E-09  4.29571E-09  4.29926E-09  4.27701E-09  4.22547E-09  4.14566E-09
   4.04688E-09  3.95243E-09  3.88239E-09  3.80828E-09  3.74377E-09  3.71346E-09  3.69535E-09  3.68264E-09  3.67276E-09  3.66445E-09
   3.65696E-09  3.64980E-09  3.64261E-09  3.63512E-09  3.62710E-09  3.61840E-09  3.60884E-09  3.59833E-09  3.58673E-09  3.57396E-09
   3.55990E-09  3.54448E-09  3.52760E-09  3.50919E-09  3.48920E-09  3.46753E-09  3.44413E-09  3.41894E-09  3.39190E-09  3.36295E-09
   3.33201E-09  3.29902E-09  3.26387E-09  3.22646E-09  3.18669E-09  3.14448E-09  3.09974E-09  3.05239E-09  3.00235E-09  2.94955E-09
   2.89398E-09  2.83558E-09  2.77437E-09  2.71037E-09  2.64366E-09  2.57441E-09  2.50287E-09  2.42947E-09  2.35489E-09  2.28023E-09
   2.20731E-09  2.13931E-09  2.08210E-09  2.04754E-09  2.06380E-09  2.21730E-09  2.90610E-09  4.68467E-09  7.31164E-09  1.02695E-08
   1.29776E-08  1.48200E-08  1.53377E-08  1.44468E-08  1.24265E-08  9.72466E-09  6.73625E-09  3.84538E-09  1.72007E-09  7.56703E-10
   2.74821E-10 -5.78673E-11 -3.23761E-10 -5.52551E-10 -7.57675E-10 -9.46081E-10 -1.12162E-09 -1.28654E-09 -1.44213E-09 -1.58915E-09
  -1.72801E-09 -1.85886E-09 -1.98172E-09 -2.09645E-09 -2.20289E-09 -2.30078E-09 -2.38997E-09 -2.47073E-09 -2.54339E-09 -2.60827E-09
  -2.66566E-09 -2.71585E-09 -2.75912E-09 -2.79572E-09 -2.82593E-09 -2.85000E-09 -2.86817E-09 -2.88070E-09 -2.88782E-09 -2.88979E-09
  -2.88683E-09 -2.87919E-09 -2.86709E-09 -2.85078E-09 -2.83049E-09 -2.80645E-09 -2.77888E-09 -2.74802E-09 -2.71410E-09 -2.67734E-09
  -2.63798E-09 -2.59624E-09 -2.55234E-09 -2.50652E-09 -2.45897E-09 -2.40985E-09 -2.35929E-09 -2.30742E-09 -2.25441E-09 -2.20038E-09
  -2.14547E-09 -2.08982E-09 -2.03359E-09 -1.97689E-09 -1.91987E-09 -1.86268E-09 -1.80545E-09 -1.74833E-09 -1.69143E-09 -1.63492E-09
  -1.57893E-09 -1.52359E-09 -1.46905E-09 -1.41545E-09 -1.36291E-09 -1.31158E-09 -1.26161E-09 -1.21312E-09 -1.16626E-09 -1.12118E-09
  -1.07798E-09 -1.03684E-09 -9.97784E-10 -9.60757E-10 -9.25693E-10 -8.92524E-10 -8.61173E-10 -8.31577E-10 -8.03661E-10 -7.77357E-10
  -7.52599E-10 -7.29308E-10 -7.07424E-10 -6.86869E-10 -6.67580E-10 -6.49485E-10 -6.32501E-10 -6.16583E-10 -6.01648E-10 -5.87622E-10
  -5.74435E-10 -5.62027E-10 -5.50316E-10 -5.39237E-10 -5.28727E-10 -5.18699E-10 -5.09102E-10 -4.99854E-10 -4.90892E-10 -4.82137E-10
  -4.73549E-10 -4.65097E-10 -4.56752E-10 -4.48483E-10 -4.40269E-10 -4.32073E-10 -4.23873E-10 -4.15636E-10 -4.07334E-10 -3.98943E-10
  -3.90429E-10 -3.81767E-10 -3.72926E-10 -3.63879E-10 -3.54598E-10 -3.45052E-10 -3.35216E-10 -3.25058E-10 -3.14555E-10 -3.03669E-10
  -2.92381E-10 -2.80657E-10 -2.68469E-10 -2.55793E-10 -2.42595E-10 -2.28847E-10 -2.14525E-10 -1.99597E-10 -1.84077E-10 -1.67997E-10
  -1.51388E-10 -1.34281E-10 -1.16709E-10 -9.87002E-11 -8.02900E-11 -6.15085E-11 -4.23876E-11 -2.29584E-11 -3.25401E-12  1.66969E-11
   3.68583E-11  5.72034E-11  7.76984E-11  9.83092E-11  1.19009E-10  1.39761E-10  1.60537E-10  1.81306E-10  2.02034E-10  2.22688E-10
   2.43242E-10  2.63660E-10  2.83913E-10  3.03965E-10  3.23788E-10  3.43355E-10  3.62666E-10  3.81732E-10  4.00566E-10  4.19179E-10
   4.37585E-10  4.55794E-10  4.73820E-10  4.91673E-10  5.09365E-10  5.26911E-10  5.44319E-10  5.61603E-10  5.78774E-10  5.95845E-10
   6.12829E-10  6.29735E-10  6.46578E-10  6.63368E-10  6.80118E-10  6.96838E-10  7.13543E-10  7.30244E-10  7.46953E-10  7.63680E-10
   7.80439E-10  7.97241E-10  8.14101E-10
 NY background values follow
    -2.880E-10   -2.624E-10   -2.368E-10   -2.111E-10   -1.855E-10   -1.598E-10   -1.342E-10   -1.086E-10   -8.296E-11   -5.739E-11
    -3.187E-11   -6.402E-12    1.900E-11    4.433E-11    6.958E-11    9.474E-11    1.198E-10    1.447E-10    1.696E-10    1.942E-10
     2.188E-10    2.432E-10    2.675E-10    2.915E-10    3.154E-10    3.391E-10    3.627E-10    3.860E-10    4.091E-10    4.320E-10
     4.546E-10    4.772E-10    4.995E-10    5.218E-10    5.439E-10    5.660E-10    5.880E-10    6.099E-10    6.319E-10    6.539E-10
     6.759E-10    6.980E-10    7.201E-10    7.424E-10    7.648E-10    7.874E-10    8.102E-10    8.331E-10    8.563E-10    8.797E-10
     9.034E-10    9.274E-10    9.518E-10    9.764E-10    1.001E-09    1.027E-09    1.053E-09    1.079E-09    1.106E-09    1.133E-09
     1.160E-09    1.188E-09    1.216E-09    1.245E-09    1.274E-09    1.303E-09    1.333E-09    1.362E-09    1.393E-09    1.423E-09
     1.454E-09    1.484E-09    1.516E-09    1.547E-09    1.578E-09    1.610E-09    1.642E-09    1.674E-09    1.706E-09    1.739E-09
     1.771E-09    1.803E-09    1.836E-09    1.869E-09    1.902E-09    1.934E-09    1.967E-09    2.000E-09    2.033E-09    2.065E-09
     2.098E-09    2.130E-09    2.162E-09    2.194E-09    2.225E-09    2.257E-09    2.287E-09    2.318E-09    2.348E-09    2.377E-09
     2.406E-09    2.434E-09    2.462E-09    2.489E-09    2.516E-09    2.542E-09    2.567E-09    2.591E-09    2.614E-09    2.637E-09
     2.658E-09    2.679E-09    2.699E-09    2.717E-09    2.735E-09    2.751E-09    2.767E-09    2.781E-09    2.794E-09    2.806E-09
     2.816E-09    2.825E-09    2.832E-09    2.839E-09    2.843E-09    2.846E-09    2.848E-09    2.847E-09    2.845E-09    2.842E-09
     2.836E-09    2.829E-09    2.820E-09    2.809E-09    2.796E-09    2.781E-09    2.764E-09    2.745E-09    2.724E-09    2.701E-09
     2.675E-09    2.647E-09    2.617E-09    2.584E-09    2.549E-09    2.511E-09    2.470E-09    2.426E-09    2.380E-09    2.330E-09
     2.277E-09    2.221E-09    2.161E-09    2.098E-09    2.031E-09    1.960E-09    1.886E-09    1.808E-09    1.726E-09    1.640E-09
     1.549E-09    1.454E-09    1.355E-09    1.252E-09    1.144E-09    1.031E-09    9.132E-10    7.907E-10    6.633E-10    5.314E-10
     3.953E-10    2.556E-10    1.128E-10   -3.277E-11   -1.806E-10   -3.302E-10   -4.811E-10   -6.329E-10   -7.851E-10   -9.372E-10
    -1.089E-09   -1.239E-09   -1.389E-09   -1.536E-09   -1.681E-09   -1.823E-09   -1.962E-09   -2.097E-09   -2.228E-09   -2.354E-09
    -2.475E-09   -2.590E-09   -2.699E-09   -2.802E-09   -2.898E-09   -2.986E-09   -3.067E-09   -3.140E-09   -3.205E-09   -3.264E-09
    -3.315E-09   -3.360E-09   -3.398E-09   -3.429E-09   -3.455E-09   -3.475E-09   -3.489E-09   -3.498E-09   -3.501E-09   -3.500E-09
    -3.494E-09   -3.483E-09   -3.468E-09   -3.449E-09   -3.426E-09   -3.399E-09   -3.369E-09   -3.336E-09   -3.300E-09   -3.261E-09
    -3.220E-09   -3.176E-09   -3.130E-09   -3.082E-09   -3.033E-09   -2.982E-09   -2.930E-09   -2.876E-09   -2.821E-09   -2.766E-09
    -2.709E-09   -2.652E-09   -2.594E-09   -2.536E-09   -2.478E-09   -2.419E-09   -2.361E-09   -2.302E-09   -2.244E-09   -2.186E-09
    -2.129E-09   -2.073E-09   -2.017E-09   -1.962E-09   -1.909E-09   -1.856E-09   -1.805E-09   -1.756E-09   -1.708E-09   -1.662E-09
    -1.617E-09   -1.575E-09   -1.535E-09   -1.497E-09   -1.461E-09   -1.427E-09   -1.395E-09   -1.364E-09   -1.336E-09   -1.308E-09
    -1.283E-09   -1.259E-09   -1.236E-09   -1.215E-09   -1.194E-09   -1.176E-09   -1.158E-09   -1.141E-09   -1.125E-09   -1.111E-09
    -1.097E-09   -1.084E-09   -1.071E-09   -1.059E-09   -1.048E-09   -1.037E-09   -1.027E-09   -1.017E-09   -1.008E-09   -9.981E-10
    -9.888E-10   -9.797E-10   -9.707E-10   -9.618E-10   -9.530E-10   -9.441E-10   -9.353E-10   -9.265E-10   -9.176E-10   -9.086E-10
    -8.994E-10   -8.902E-10   -8.808E-10   -8.711E-10   -8.613E-10   -8.511E-10   -8.407E-10   -8.300E-10   -8.190E-10   -8.075E-10
    -7.957E-10   -7.834E-10   -7.707E-10   -7.575E-10   -7.437E-10   -7.295E-10   -7.146E-10   -6.992E-10   -6.831E-10   -6.665E-10
    -6.494E-10   -6.318E-10   -6.137E-10   -5.952E-10   -5.763E-10   -5.570E-10   -5.374E-10   -5.175E-10   -4.973E-10   -4.769E-10
    -4.562E-10   -4.354E-10   -4.144E-10   -3.934E-10   -3.722E-10   -3.510E-10   -3.297E-10   -3.085E-10   -2.873E-10   -2.662E-10
    -2.452E-10   -2.243E-10   -2.036E-10   -1.831E-10   -1.628E-10   -1.428E-10   -1.231E-10   -1.036E-10   -8.428E-11   -6.523E-11
    -4.638E-11   -2.774E-11   -9.277E-12    9.010E-12    2.713E-11    4.511E-11    6.295E-11    8.066E-11    9.826E-11    1.158E-10
     1.332E-10    1.505E-10    1.678E-10    1.850E-10    2.021E-10    2.193E-10    2.364E-10    2.535E-10    2.707E-10    2.878E-10
     3.050E-10    3.222E-10    3.395E-10
 Ala      Conc. = 1.12E-10
  -2.11634E-10 -1.76271E-10 -1.43804E-10 -1.13880E-10 -8.67648E-11 -6.24767E-11 -4.17546E-11 -2.54823E-11 -8.92804E-12  8.62015E-12
   2.22207E-11  3.71925E-11  5.61815E-11  7.49477E-11  9.45807E-11  1.16058E-10  1.38512E-10  1.61511E-10  1.84823E-10  2.08310E-10
   2.31878E-10  2.55464E-10  2.79017E-10  3.02504E-10  3.25896E-10  3.49162E-10  3.72287E-10  3.95252E-10  4.18038E-10  4.40639E-10
   4.63071E-10  4.85354E-10  5.07507E-10  5.29552E-10  5.51511E-10  5.73405E-10  5.95255E-10  6.17085E-10  6.38916E-10  6.60771E-10
   6.82673E-10  7.04646E-10  7.26710E-10  7.48890E-10  7.71207E-10  7.93688E-10  8.16353E-10  8.39225E-10  8.62330E-10  8.85689E-10
   9.09325E-10  9.33264E-10  9.57526E-10  9.82137E-10  1.00712E-09  1.03250E-09  1.05829E-09  1.08452E-09  1.11116E-09  1.13821E-09
   1.16564E-09  1.19346E-09  1.22163E-09  1.25016E-09  1.27902E-09  1.30821E-09  1.33770E-09  1.36750E-09  1.39758E-09  1.42792E-09
   1.45853E-09  1.48938E-09  1.52046E-09  1.55176E-09  1.58327E-09  1.61497E-09  1.64685E-09  1.67890E-09  1.71110E-09  1.74346E-09
   1.77594E-09  1.80856E-09  1.84128E-09  1.87412E-09  1.90704E-09  1.94006E-09  1.97312E-09  2.00622E-09  2.03933E-09  2.07243E-09
   2.10554E-09  2.13865E-09  2.17180E-09  2.20507E-09  2.23860E-09  2.27263E-09  2.30768E-09  2.34479E-09  2.38655E-09  2.44153E-09
   2.52755E-09  2.62664E-09  2.72936E-09  2.84559E-09  2.95792E-09  3.04917E-09  3.11084E-09  3.13875E-09  3.13100E-09  3.08982E-09
   3.02551E-09  2.96198E-09  2.91977E-09  2.87085E-09  2.82919E-09  2.81973E-09  2.82081E-09  2.82583E-09  2.83238E-09  2.83933E-09
   2.84605E-09  2.85215E-09  2.85739E-09  2.86157E-09  2.86455E-09  2.86623E-09  2.86650E-09  2.86529E-09  2.86252E-09  2.85813E-09
   2.85205E-09  2.84423E-09  2.83461E-09  2.82314E-09  2.80977E-09  2.79444E-09  2.77711E-09  2.75773E-09  2.73625E-09  2.71262E-09
   2.68678E-09  2.65867E-09  2.62817E-09  2.59519E-09  2.55963E-09  2.52138E-09  2.48035E-09  2.43643E-09  2.38952E-09  2.33953E-09
   2.28637E-09  2.22991E-09  2.17009E-09  2.10678E-09  2.03990E-09  1.96935E-09  1.89504E-09  1.81687E-09  1.73476E-09  1.64863E-09
   1.55840E-09  1.46403E-09  1.36552E-09  1.26295E-09  1.15665E-09  1.04779E-09  9.41922E-10  8.54721E-10  7.79170E-10  7.05862E-10
   6.24635E-10  5.24014E-10  3.94982E-10  2.36157E-10  5.33956E-11 -1.43904E-10 -3.47871E-10 -5.51914E-10 -7.43699E-10 -9.08505E-10
  -1.06576E-09 -1.21963E-09 -1.37094E-09 -1.51973E-09 -1.66576E-09 -1.80872E-09 -1.94820E-09 -2.08381E-09 -2.21510E-09 -2.34164E-09
  -2.46297E-09 -2.57867E-09 -2.68826E-09 -2.79129E-09 -2.88730E-09 -2.97584E-09 -3.05659E-09 -3.12968E-09 -3.19534E-09 -3.25379E-09
  -3.30526E-09 -3.34996E-09 -3.38813E-09 -3.41999E-09 -3.44575E-09 -3.46564E-09 -3.47989E-09 -3.48871E-09 -3.49233E-09 -3.49098E-09
  -3.48487E-09 -3.47422E-09 -3.45926E-09 -3.44022E-09 -3.41731E-09 -3.39076E-09 -3.36079E-09 -3.32762E-09 -3.29147E-09 -3.25257E-09
  -3.21114E-09 -3.16740E-09 -3.12157E-09 -3.07388E-09 -3.02453E-09 -2.97365E-09 -2.92139E-09 -2.86788E-09 -2.81326E-09 -2.75767E-09
  -2.70124E-09 -2.64412E-09 -2.58644E-09 -2.52834E-09 -2.46996E-09 -2.41143E-09 -2.35289E-09 -2.29449E-09 -2.23634E-09 -2.17861E-09
  -2.12143E-09 -2.06492E-09 -2.00924E-09 -1.95451E-09 -1.90087E-09 -1.84847E-09 -1.79744E-09 -1.74791E-09 -1.70003E-09 -1.65394E-09
  -1.60976E-09 -1.56766E-09 -1.52765E-09 -1.48969E-09 -1.45371E-09 -1.41963E-09 -1.38739E-09 -1.35692E-09 -1.32814E-09 -1.30099E-09
  -1.27539E-09 -1.25127E-09 -1.22858E-09 -1.20722E-09 -1.18714E-09 -1.16826E-09 -1.15051E-09 -1.13383E-09 -1.11815E-09 -1.10338E-09
  -1.08946E-09 -1.07633E-09 -1.06391E-09 -1.05213E-09 -1.04092E-09 -1.03020E-09 -1.01993E-09 -1.01001E-09 -1.00038E-09 -9.90967E-10
  -9.81728E-10 -9.72632E-10 -9.63650E-10 -9.54752E-10 -9.45913E-10 -9.37100E-10 -9.28288E-10 -9.19445E-10 -9.10544E-10 -9.01558E-10
  -8.92456E-10 -8.83211E-10 -8.73792E-10 -8.64172E-10 -8.54324E-10 -8.44216E-10 -8.33821E-10 -8.23110E-10 -8.12058E-10 -8.00628E-10
  -7.88800E-10 -7.76540E-10 -7.63820E-10 -7.50617E-10 -7.36895E-10 -7.22628E-10 -7.07789E-10 -6.92349E-10 -6.76321E-10 -6.59735E-10
  -6.42624E-10 -6.25018E-10 -6.06951E-10 -5.88451E-10 -5.69552E-10 -5.50284E-10 -5.30680E-10 -5.10771E-10 -4.90589E-10 -4.70163E-10
  -4.49530E-10 -4.28716E-10 -4.07754E-10 -3.86679E-10 -3.65518E-10 -3.44306E-10 -3.23073E-10 -3.01849E-10 -2.80668E-10 -2.59563E-10
  -2.38560E-10 -2.17696E-10 -1.96999E-10 -1.76503E-10 -1.56240E-10 -1.36233E-10 -1.16485E-10 -9.69838E-11 -7.77156E-11 -5.86692E-11
  -3.98329E-11 -2.11937E-11 -2.74029E-12  1.55398E-11  3.36568E-11  5.16267E-11  6.94568E-11  8.71621E-11  1.04754E-10  1.22244E-10
   1.39647E-10  1.56970E-10  1.74229E-10  1.91434E-10  2.08599E-10  2.25733E-10  2.42851E-10  2.59964E-10  2.77084E-10  2.94222E-10
   3.11391E-10  3.28603E-10  3.45872E-10
 Asp      Conc. = 7.20E-10
   5.75980E-10  5.03117E-10  4.16372E-10  3.25705E-10  2.39243E-10  1.56859E-10  9.85136E-11  5.64447E-11  4.61113E-11  4.96954E-11
   6.05672E-11  7.57909E-11  9.38227E-11  1.13710E-10  1.34622E-10  1.56165E-10  1.78280E-10  2.00856E-10  2.23801E-10  2.47042E-10
   2.70526E-10  2.94216E-10  3.18087E-10  3.42134E-10  3.66361E-10  3.90784E-10  4.15445E-10  4.40406E-10  4.65756E-10  4.91642E-10
   5.18296E-10  5.46063E-10  5.75463E-10  6.07351E-10  6.43276E-10  6.86536E-10  7.45655E-10  8.19041E-10  9.08769E-10  9.98865E-10
   1.07353E-09  1.12384E-09  1.15555E-09  1.20108E-09  1.27808E-09  1.43397E-09  1.63454E-09  1.83591E-09  2.02650E-09  2.17465E-09
   2.25663E-09  2.26019E-09  2.19999E-09  2.08633E-09  1.93776E-09  1.80336E-09  1.69517E-09  1.65616E-09  1.61899E-09  1.57832E-09
   1.56650E-09  1.57126E-09  1.57162E-09  1.57329E-09  1.57580E-09  1.56682E-09  1.54959E-09  1.54853E-09  1.55712E-09  1.57137E-09
   1.58935E-09  1.60997E-09  1.63258E-09  1.65673E-09  1.68211E-09  1.70851E-09  1.73575E-09  1.76369E-09  1.79224E-09  1.82131E-09
   1.85083E-09  1.88073E-09  1.91096E-09  1.94149E-09  1.97226E-09  2.00324E-09  2.03437E-09  2.06559E-09  2.09685E-09  2.12810E-09
   2.15930E-09  2.19040E-09  2.22135E-09  2.25210E-09  2.28263E-09  2.31287E-09  2.34279E-09  2.37235E-09  2.40150E-09  2.43022E-09
   2.45844E-09  2.48613E-09  2.51326E-09  2.53978E-09  2.56566E-09  2.59084E-09  2.61531E-09  2.63901E-09  2.66190E-09  2.68396E-09
   2.70513E-09  2.72538E-09  2.74467E-09  2.76295E-09  2.78020E-09  2.79634E-09  2.81136E-09  2.82519E-09  2.83779E-09  2.84912E-09
   2.85913E-09  2.86778E-09  2.87503E-09  2.88082E-09  2.88511E-09  2.88787E-09  2.88903E-09  2.88857E-09  2.88643E-09  2.88258E-09
   2.87695E-09  2.86952E-09  2.86024E-09  2.84906E-09  2.83594E-09  2.82083E-09  2.80369E-09  2.78448E-09  2.76315E-09  2.73966E-09
   2.71394E-09  2.68595E-09  2.65556E-09  2.62269E-09  2.58724E-09  2.54910E-09  2.50819E-09  2.46441E-09  2.41765E-09  2.36784E-09
   2.31487E-09  2.25866E-09  2.19912E-09  2.13617E-09  2.06972E-09  1.99972E-09  1.92610E-09  1.84881E-09  1.76785E-09  1.68324E-09
   1.59508E-09  1.50359E-09  1.40927E-09  1.31309E-09  1.21737E-09  1.12839E-09  1.07052E-09  1.15097E-09  1.34201E-09  1.58244E-09
   1.80576E-09  1.93612E-09  1.90800E-09  1.70157E-09  1.34561E-09  8.97037E-10  4.06710E-10 -8.72174E-11 -5.17721E-10 -7.72579E-10
  -9.64480E-10 -1.13672E-09 -1.29943E-09 -1.45597E-09 -1.60759E-09 -1.75476E-09 -1.89753E-09 -2.03576E-09 -2.16918E-09 -2.29749E-09
  -2.42032E-09 -2.53728E-09 -2.64797E-09 -2.75195E-09 -2.84880E-09 -2.93808E-09 -3.01949E-09 -3.09317E-09 -3.15936E-09 -3.21829E-09
  -3.27020E-09 -3.31531E-09 -3.35385E-09 -3.38604E-09 -3.41212E-09 -3.43230E-09 -3.44682E-09 -3.45590E-09 -3.45976E-09 -3.45862E-09
  -3.45272E-09 -3.44227E-09 -3.42750E-09 -3.40864E-09 -3.38589E-09 -3.35950E-09 -3.32968E-09 -3.29665E-09 -3.26065E-09 -3.22188E-09
  -3.18057E-09 -3.13695E-09 -3.09124E-09 -3.04367E-09 -2.99442E-09 -2.94365E-09 -2.89148E-09 -2.83807E-09 -2.78354E-09 -2.72804E-09
