 LCModel (Version 6.3-1R) Copyright: S.W. Provencher.          Ref.: Magn. Reson. Med. 30:672-679 (1993).                
 onepulse 17x12_ftSpec_smooth_lcm
 26 lines in following concentration table = NCONC+1
    Conc.  %SD   /Cr    Metabolite                                         
    0.000 999%   0.000 Ala                                                 
    0.000 999%   0.000 Asp                                                 
    0.000 999%   0.000 Cr                                                  
 1.84E-10 270%   0.000 GABA                                                
    0.000 999%   0.000 Glc                                                 
 2.97E-09  18%   0.000 Gln                                                 
    0.000 999%   0.000 Glu                                                 
    0.000 999%   0.000 Glyc                                                
    0.000 999%   0.000 GPC                                                 
 1.31E-09  35%   0.000 GSH                                                 
 1.83E-09  19%   0.000 Ins                                                 
    0.000 999%   0.000 Lac                                                 
 3.29E-10  55%   0.000 NAAG                                                
    0.000 999%   0.000 NAA                                                 
 3.96E-11 414%   0.000 PCh                                                 
    0.000 999%   0.000 PCr                                                 
 1.90E-09  59%   0.000 PE                                                  
 2.80E-10  77%   0.000 Scyllo                                              
    0.000 999%   0.000 Ser                                                 
 7.57E-10 106%   0.000 Tau                                                 
 3.96E-11 414%   0.000 GPC+PCh                                             
 3.29E-10  55%   0.000 NAA+NAAG                                            
 1.83E-09  19%   0.000 Ins+Glyc                                            
    0.000 999%   0.000 Cr+PCr                                              
 2.97E-09  18%   0.000 Glu+Gln                                             
   6 lines in following misc. output table
  FWHM = 0.123 ppm    S/N =   4                                            
  Data shift = 0.436 ppm                                                   
  Ph:   1 deg     -37.3 deg/ppm                                            
  alphaB,S = 5.3E-01,   1.3E+01                                            
   10 spline knots.   Ns = 5(1)                                            
  (12) 6 infls.   (11) 3 extrs.                                            
  363 points on ppm-axis = NY
      4.250000     4.238821     4.227641     4.216462     4.205282     4.194103     4.182923     4.171744     4.160564     4.149385
      4.138206     4.127026     4.115847     4.104667     4.093488     4.082308     4.071129     4.059949     4.048770     4.037591
      4.026411     4.015232     4.004052     3.992873     3.981693     3.970514     3.959334     3.948155     3.936975     3.925796
      3.914617     3.903437     3.892258     3.881078     3.869899     3.858719     3.847540     3.836360     3.825181     3.814002
      3.802822     3.791643     3.780463     3.769284     3.758104     3.746925     3.735745     3.724566     3.713387     3.702207
      3.691028     3.679848     3.668669     3.657489     3.646310     3.635130     3.623951     3.612772     3.601592     3.590413
      3.579233     3.568054     3.556874     3.545695     3.534515     3.523336     3.512156     3.500977     3.489798     3.478618
      3.467439     3.456259     3.445080     3.433900     3.422721     3.411541     3.400362     3.389183     3.378003     3.366824
      3.355644     3.344465     3.333285     3.322106     3.310926     3.299747     3.288568     3.277388     3.266209     3.255029
      3.243850     3.232670     3.221491     3.210311     3.199132     3.187953     3.176773     3.165594     3.154414     3.143235
      3.132055     3.120876     3.109696     3.098517     3.087337     3.076158     3.064979     3.053799     3.042620     3.031440
      3.020261     3.009081     2.997902     2.986722     2.975543     2.964364     2.953184     2.942005     2.930825     2.919646
      2.908466     2.897287     2.886107     2.874928     2.863749     2.852569     2.841390     2.830210     2.819031     2.807851
      2.796672     2.785492     2.774313     2.763134     2.751954     2.740775     2.729595     2.718416     2.707236     2.696057
      2.684877     2.673698     2.662519     2.651339     2.640160     2.628980     2.617801     2.606621     2.595442     2.584262
      2.573083     2.561903     2.550724     2.539545     2.528365     2.517186     2.506006     2.494827     2.483647     2.472468
      2.461288     2.450109     2.438930     2.427750     2.416571     2.405391     2.394212     2.383032     2.371853     2.360673
      2.349494     2.338315     2.327135     2.315956     2.304776     2.293597     2.282417     2.271238     2.260058     2.248879
      2.237700     2.226520     2.215341     2.204161     2.192982     2.181802     2.170623     2.159443     2.148264     2.137084
      2.125905     2.114726     2.103546     2.092367     2.081187     2.070008     2.058828     2.047649     2.036469     2.025290
      2.014111     2.002931     1.991752     1.980572     1.969393     1.958213     1.947034     1.935854     1.924675     1.913496
      1.902316     1.891137     1.879957     1.868778     1.857598     1.846419     1.835239     1.824060     1.812881     1.801701
      1.790522     1.779342     1.768163     1.756983     1.745804     1.734624     1.723445     1.712265     1.701086     1.689907
      1.678727     1.667548     1.656368     1.645189     1.634009     1.622830     1.611650     1.600471     1.589292     1.578112
      1.566933     1.555753     1.544574     1.533394     1.522215     1.511035     1.499856     1.488677     1.477497     1.466318
      1.455138     1.443959     1.432779     1.421600     1.410420     1.399241     1.388062     1.376882     1.365703     1.354523
      1.343344     1.332164     1.320985     1.309805     1.298626     1.287446     1.276267     1.265088     1.253908     1.242729
      1.231549     1.220370     1.209190     1.198011     1.186831     1.175652     1.164473     1.153293     1.142114     1.130934
      1.119755     1.108575     1.097396     1.086216     1.075037     1.063858     1.052678     1.041499     1.030319     1.019140
      1.007960     0.996781     0.985601     0.974422     0.963243     0.952063     0.940884     0.929704     0.918525     0.907345
      0.896166     0.884986     0.873807     0.862628     0.851448     0.840269     0.829089     0.817910     0.806730     0.795551
      0.784371     0.773192     0.762012     0.750833     0.739654     0.728474     0.717295     0.706115     0.694936     0.683756
      0.672577     0.661397     0.650218     0.639039     0.627859     0.616680     0.605500     0.594321     0.583141     0.571962
      0.560782     0.549603     0.538424     0.527244     0.516065     0.504885     0.493706     0.482526     0.471347     0.460167
      0.448988     0.437809     0.426629     0.415450     0.404270     0.393091     0.381911     0.370732     0.359552     0.348373
      0.337193     0.326014     0.314835     0.303655     0.292476     0.281296     0.270117     0.258937     0.247758     0.236578
      0.225399     0.214220     0.203040
 NY phased data points follow
   1.12608E-08  1.27092E-08  1.19772E-08  1.29417E-08  1.30490E-08  1.32679E-08  1.26719E-08  1.40093E-08  1.33509E-08  1.34719E-08
   1.22173E-08  1.29373E-08  1.18255E-08  1.22290E-08  1.17966E-08  1.28573E-08  1.23427E-08  1.32455E-08  1.33064E-08  1.31890E-08
   1.21201E-08  1.18111E-08  1.18158E-08  1.37775E-08  1.52544E-08  1.57279E-08  1.53748E-08  1.47763E-08  1.30094E-08  1.17654E-08
   1.08597E-08  1.11374E-08  1.05772E-08  1.00673E-08  1.00486E-08  9.98916E-09  9.46508E-09  9.44776E-09  8.65441E-09  7.82155E-09
   7.48587E-09  7.99369E-09  8.20463E-09  7.99589E-09  8.19920E-09  8.00425E-09  7.59132E-09  6.79227E-09  6.40008E-09  5.61492E-09
   6.11393E-09  6.51948E-09  6.69931E-09  6.99064E-09  8.86435E-09  1.28339E-08  1.55687E-08  1.64164E-08  1.48536E-08  1.29033E-08
   1.24414E-08  1.04957E-08  1.05180E-08  9.47403E-09  9.24448E-09  8.10206E-09  7.30184E-09  6.83937E-09  6.63001E-09  5.60491E-09
   6.85300E-09  8.32005E-09  1.34510E-08  1.61395E-08  1.68060E-08  1.53726E-08  1.55113E-08  1.40783E-08  1.43203E-08  1.33521E-08
   1.29852E-08  1.26086E-08  1.27645E-08  1.19068E-08  1.18761E-08  1.12306E-08  1.07442E-08  9.73901E-09  1.04820E-08  8.92625E-09
   9.13714E-09  8.58290E-09  8.73377E-09  7.67609E-09  8.74751E-09  8.54395E-09  8.63761E-09  7.51383E-09  8.04396E-09  7.72097E-09
   7.80547E-09  7.50452E-09  6.67864E-09  5.96879E-09  5.08588E-09  5.32118E-09  6.71890E-09  5.98041E-09  5.70433E-09  6.03389E-09
   6.84422E-09  6.12595E-09  6.77778E-09  7.17066E-09  8.14985E-09  6.75173E-09  6.61657E-09  5.85102E-09  5.78470E-09  4.46150E-09
   5.45666E-09  5.42412E-09  5.25220E-09  4.72895E-09  5.59481E-09  4.98480E-09  5.57455E-09  4.98606E-09  5.40528E-09  4.77493E-09
   4.55439E-09  3.65885E-09  5.20496E-09  5.93323E-09  6.95604E-09  6.65614E-09  6.43059E-09  5.68110E-09  6.95293E-09  6.98165E-09
   7.82121E-09  7.61337E-09  8.01207E-09  7.23021E-09  7.69740E-09  6.70843E-09  7.28775E-09  6.45439E-09  7.13432E-09  6.61830E-09
   7.10403E-09  6.30009E-09  6.49767E-09  6.32678E-09  6.67392E-09  6.21592E-09  6.56440E-09  5.16141E-09  5.28682E-09  3.66632E-09
   4.68781E-09  3.28451E-09  2.09037E-09  6.09027E-09  1.31541E-08  1.67374E-08  1.79631E-08  1.74187E-08  1.78567E-08  1.81808E-08
   1.76102E-08  1.66079E-08  1.65901E-08  1.64344E-08  1.62106E-08  1.58035E-08  1.62146E-08  1.44537E-08  1.44066E-08  1.35205E-08
   1.30074E-08  1.16643E-08  1.03021E-08  8.30327E-09  6.80858E-09  5.25804E-09  4.04116E-09  1.98586E-09  2.21530E-11 -1.44737E-09
  -2.39864E-09 -4.87596E-09 -5.45871E-09 -6.45009E-09 -6.56440E-09 -7.47642E-09 -7.11321E-09 -6.60516E-09 -6.18046E-09 -6.02480E-09
  -5.67887E-09 -4.70091E-09 -3.83620E-09 -3.16588E-09 -1.72400E-09 -2.39884E-09 -1.59476E-09 -1.72543E-09 -1.24841E-09 -1.61185E-09
  -1.33248E-09 -1.38092E-09 -1.71358E-09 -1.76411E-09 -1.27969E-09 -1.28033E-09 -1.24371E-09 -7.34127E-10 -1.98837E-11 -9.07542E-10
  -5.94760E-10 -1.31785E-09 -1.07768E-09 -9.56500E-10 -1.07821E-09 -1.03325E-09 -5.87794E-10 -1.41291E-09 -4.59861E-10 -7.38873E-10
  -5.95772E-10 -1.49374E-10 -3.15117E-10 -1.42333E-09 -9.68714E-10 -8.01333E-10 -9.28771E-10 -1.67671E-09 -1.35359E-09 -1.54430E-09
  -7.89390E-10 -9.46549E-10 -1.38566E-09 -9.64988E-10 -7.07412E-10 -7.52304E-10 -2.24872E-10 -3.91568E-10 -5.19668E-11 -1.74205E-10
   6.83573E-11 -1.58991E-10  5.35004E-10 -2.91339E-10 -9.28138E-10 -8.51597E-10 -1.18622E-09 -1.61561E-09 -1.85189E-09 -1.96464E-09
  -2.41634E-09 -2.36078E-09 -2.47918E-09 -2.22704E-09 -2.21675E-09 -1.58270E-09 -1.62386E-09 -1.22257E-09 -7.54973E-10 -7.76064E-10
  -5.79239E-10 -5.51510E-10 -2.73872E-10 -5.73410E-10  2.98027E-10  3.21016E-10  1.89007E-11 -4.40171E-10  3.17966E-10  3.20884E-10
   3.94661E-10 -7.95019E-10 -2.57110E-10  3.26464E-10 -2.22984E-10 -7.48834E-10 -9.35147E-11  2.19463E-10 -5.60712E-10 -2.79847E-10
  -1.09351E-10 -3.49154E-10 -3.59378E-10 -4.36616E-10 -4.18260E-10 -9.08859E-10 -9.18971E-10 -5.93501E-10 -1.11125E-09 -1.15304E-09
  -9.38057E-10 -1.39687E-09 -1.08427E-09 -8.95647E-10 -1.03133E-09 -1.79151E-09 -1.29513E-09 -9.99955E-10 -1.64349E-09 -1.64453E-09
  -1.67389E-09 -1.29940E-09 -1.55734E-09 -1.58156E-09 -1.77345E-09 -1.68508E-09 -1.79954E-09 -2.32227E-09 -1.92947E-09 -1.93616E-09
  -1.79897E-09 -1.85066E-09 -2.54370E-09 -1.67662E-09 -1.81327E-09 -2.48128E-09 -1.92632E-09 -2.11345E-09 -2.18590E-09 -2.11312E-09
  -2.04448E-09 -2.54156E-09 -2.43294E-09 -2.20759E-09 -2.26977E-09 -2.42408E-09 -2.88589E-09 -2.47039E-09 -2.65578E-09 -2.33269E-09
  -2.84947E-09 -3.31018E-09 -2.89588E-09 -2.29980E-09 -3.22403E-09 -2.90891E-09 -2.81178E-09 -2.46264E-09 -2.90658E-09 -2.69146E-09
  -3.08299E-09 -2.83183E-09 -3.22635E-09 -2.91506E-09 -3.01802E-09 -2.59774E-09 -2.96141E-09 -3.17880E-09 -3.23926E-09 -3.14435E-09
  -2.85974E-09 -3.17870E-09 -2.82814E-09
 NY points of the fit to the data follow
   1.28492E-08  1.30064E-08  1.27869E-08  1.20762E-08  1.20755E-08  1.30973E-08  1.32678E-08  1.34031E-08  1.47808E-08  1.37433E-08
   1.32654E-08  1.28399E-08  1.17697E-08  1.18182E-08  1.24577E-08  1.22909E-08  1.16454E-08  1.27643E-08  1.40500E-08  1.31121E-08
   1.19524E-08  1.23399E-08  1.34491E-08  1.43057E-08  1.42615E-08  1.47146E-08  1.49422E-08  1.44409E-08  1.32870E-08  1.22776E-08
   1.20040E-08  1.16187E-08  1.08223E-08  1.02098E-08  1.00203E-08  9.45460E-09  8.93633E-09  8.72220E-09  8.41062E-09  8.18786E-09
   7.99604E-09  7.92973E-09  8.03293E-09  7.93077E-09  7.46691E-09  6.93411E-09  6.90018E-09  6.36477E-09  6.25914E-09  6.51686E-09
   7.13026E-09  7.67008E-09  8.15994E-09  9.70818E-09  1.09562E-08  1.08616E-08  1.21227E-08  1.31927E-08  1.30970E-08  1.29209E-08
   1.28962E-08  1.24603E-08  1.23218E-08  1.19325E-08  1.05460E-08  9.95921E-09  1.02420E-08  9.15227E-09  8.35395E-09  8.86123E-09
   9.86388E-09  1.02374E-08  1.08434E-08  1.20395E-08  1.29119E-08  1.37328E-08  1.48664E-08  1.50768E-08  1.49618E-08  1.48943E-08
   1.43417E-08  1.34620E-08  1.30035E-08  1.24032E-08  1.14030E-08  1.07785E-08  9.90516E-09  8.59435E-09  8.02405E-09  7.71163E-09
   7.45316E-09  7.28838E-09  7.20227E-09  7.09611E-09  6.96457E-09  6.91410E-09  6.85565E-09  6.77415E-09  6.73535E-09  6.68483E-09
   6.64227E-09  6.62143E-09  6.60052E-09  6.57932E-09  6.56334E-09  6.55099E-09  6.54077E-09  6.53214E-09  6.52402E-09  6.51630E-09
   6.50872E-09  6.50099E-09  6.49294E-09  6.48438E-09  6.47519E-09  6.46527E-09  6.45451E-09  6.44279E-09  6.43005E-09  6.41621E-09
   6.40119E-09  6.38497E-09  6.36747E-09  6.34866E-09  6.32848E-09  6.30691E-09  6.28389E-09  6.25941E-09  6.23342E-09  6.20591E-09
   6.17683E-09  6.14618E-09  6.11394E-09  6.08008E-09  6.04458E-09  6.00744E-09  5.96864E-09  5.92818E-09  5.88604E-09  5.84225E-09
   5.79678E-09  5.74966E-09  5.70089E-09  5.65052E-09  5.59855E-09  5.54504E-09  5.49004E-09  5.43364E-09  5.37594E-09  5.31706E-09
   5.25717E-09  5.19652E-09  5.13541E-09  5.07424E-09  5.01359E-09  4.95425E-09  4.89738E-09  4.84471E-09  4.79894E-09  4.76423E-09
   4.74755E-09  4.76138E-09  4.83048E-09  5.01112E-09  5.46151E-09  6.81006E-09  1.21032E-08  1.86803E-08  2.02637E-08  1.93249E-08
   1.81770E-08  1.72462E-08  1.66840E-08  1.61887E-08  1.59715E-08  1.66421E-08  1.66636E-08  1.23311E-08  6.49149E-09  4.17940E-09
   3.38323E-09  2.96102E-09  2.67753E-09  2.45988E-09  2.27849E-09  2.11928E-09  1.97467E-09  1.84027E-09  1.71346E-09  1.59249E-09
   1.47624E-09  1.36396E-09  1.25510E-09  1.14935E-09  1.04642E-09  9.46170E-10  8.48477E-10  7.53301E-10  6.60576E-10  5.70330E-10
   4.82562E-10  3.97299E-10  3.14586E-10  2.34463E-10  1.56995E-10  8.22330E-11  1.02742E-11 -5.88597E-11 -1.25079E-10 -1.88472E-10
  -2.49100E-10 -3.07038E-10 -3.62349E-10 -4.15108E-10 -4.65371E-10 -5.13214E-10 -5.58691E-10 -6.01863E-10 -6.42804E-10 -6.81573E-10
  -7.18216E-10 -7.52811E-10 -7.85413E-10 -8.16079E-10 -8.44871E-10 -8.71849E-10 -8.97059E-10 -9.20582E-10 -9.42475E-10 -9.62773E-10
  -9.81547E-10 -9.98863E-10 -1.01476E-09 -1.02932E-09 -1.04259E-09 -1.05462E-09 -1.06548E-09 -1.07522E-09 -1.08390E-09 -1.09157E-09
  -1.09830E-09 -1.10413E-09 -1.10914E-09 -1.11337E-09 -1.11688E-09 -1.11972E-09 -1.12197E-09 -1.12368E-09 -1.12488E-09 -1.12565E-09
  -1.12604E-09 -1.12612E-09 -1.12593E-09 -1.12553E-09 -1.12499E-09 -1.12435E-09 -1.12368E-09 -1.12302E-09 -1.12244E-09 -1.12201E-09
  -1.12173E-09 -1.12163E-09 -1.12173E-09 -1.12202E-09 -1.12253E-09 -1.12325E-09 -1.12420E-09 -1.12539E-09 -1.12683E-09 -1.12853E-09
  -1.13050E-09 -1.13275E-09 -1.13529E-09 -1.13812E-09 -1.14126E-09 -1.14472E-09 -1.14851E-09 -1.15264E-09 -1.15711E-09 -1.16194E-09
  -1.16713E-09 -1.17270E-09 -1.17866E-09 -1.18501E-09 -1.19177E-09 -1.19895E-09 -1.20654E-09 -1.21458E-09 -1.22306E-09 -1.23200E-09
  -1.24139E-09 -1.25127E-09 -1.26162E-09 -1.27247E-09 -1.28382E-09 -1.29569E-09 -1.30808E-09 -1.32100E-09 -1.33447E-09 -1.34848E-09
  -1.36306E-09 -1.37821E-09 -1.39394E-09 -1.41026E-09 -1.42718E-09 -1.44471E-09 -1.46286E-09 -1.48164E-09 -1.50106E-09 -1.52113E-09
  -1.54186E-09 -1.56326E-09 -1.58531E-09 -1.60801E-09 -1.63133E-09 -1.65525E-09 -1.67976E-09 -1.70484E-09 -1.73047E-09 -1.75663E-09
  -1.78332E-09 -1.81049E-09 -1.83815E-09 -1.86628E-09 -1.89484E-09 -1.92384E-09 -1.95324E-09 -1.98304E-09 -2.01321E-09 -2.04373E-09
  -2.07459E-09 -2.10578E-09 -2.13726E-09 -2.16903E-09 -2.20107E-09 -2.23335E-09 -2.26587E-09 -2.29860E-09 -2.33152E-09 -2.36463E-09
  -2.39789E-09 -2.43130E-09 -2.46483E-09 -2.49846E-09 -2.53218E-09 -2.56598E-09 -2.59983E-09 -2.63371E-09 -2.66762E-09 -2.70152E-09
  -2.73540E-09 -2.76924E-09 -2.80304E-09 -2.83676E-09 -2.87039E-09 -2.90391E-09 -2.93732E-09 -2.97057E-09 -3.00367E-09 -3.03658E-09
  -3.06930E-09 -3.10181E-09 -3.13409E-09
 NY background values follow
    -4.715E-10   -4.012E-10   -3.309E-10   -2.606E-10   -1.902E-10   -1.199E-10   -4.953E-11    2.079E-11    9.110E-11    1.614E-10
     2.316E-10    3.018E-10    3.719E-10    4.420E-10    5.120E-10    5.820E-10    6.518E-10    7.216E-10    7.912E-10    8.608E-10
     9.302E-10    9.995E-10    1.069E-09    1.138E-09    1.207E-09    1.275E-09    1.344E-09    1.412E-09    1.481E-09    1.549E-09
     1.617E-09    1.684E-09    1.752E-09    1.819E-09    1.886E-09    1.953E-09    2.020E-09    2.086E-09    2.152E-09    2.218E-09
     2.283E-09    2.349E-09    2.414E-09    2.479E-09    2.543E-09    2.607E-09    2.671E-09    2.734E-09    2.798E-09    2.860E-09
     2.923E-09    2.985E-09    3.047E-09    3.108E-09    3.169E-09    3.230E-09    3.290E-09    3.350E-09    3.409E-09    3.468E-09
     3.526E-09    3.584E-09    3.641E-09    3.698E-09    3.754E-09    3.809E-09    3.864E-09    3.918E-09    3.972E-09    4.025E-09
     4.077E-09    4.128E-09    4.179E-09    4.229E-09    4.278E-09    4.326E-09    4.373E-09    4.420E-09    4.465E-09    4.510E-09
     4.554E-09    4.597E-09    4.639E-09    4.680E-09    4.720E-09    4.759E-09    4.797E-09    4.834E-09    4.870E-09    4.904E-09
     4.938E-09    4.970E-09    5.002E-09    5.032E-09    5.061E-09    5.088E-09    5.115E-09    5.140E-09    5.164E-09    5.186E-09
     5.208E-09    5.228E-09    5.246E-09    5.264E-09    5.279E-09    5.294E-09    5.307E-09    5.318E-09    5.328E-09    5.337E-09
     5.344E-09    5.349E-09    5.353E-09    5.356E-09    5.357E-09    5.356E-09    5.354E-09    5.350E-09    5.344E-09    5.337E-09
     5.328E-09    5.318E-09    5.306E-09    5.292E-09    5.276E-09    5.259E-09    5.240E-09    5.219E-09    5.196E-09    5.171E-09
     5.145E-09    5.117E-09    5.087E-09    5.055E-09    5.021E-09    4.985E-09    4.948E-09    4.908E-09    4.867E-09    4.823E-09
     4.778E-09    4.730E-09    4.681E-09    4.629E-09    4.576E-09    4.520E-09    4.463E-09    4.403E-09    4.341E-09    4.277E-09
     4.211E-09    4.142E-09    4.072E-09    3.999E-09    3.924E-09    3.847E-09    3.768E-09    3.686E-09    3.602E-09    3.517E-09
     3.429E-09    3.340E-09    3.249E-09    3.157E-09    3.063E-09    2.967E-09    2.871E-09    2.773E-09    2.674E-09    2.574E-09
     2.473E-09    2.371E-09    2.269E-09    2.166E-09    2.062E-09    1.958E-09    1.854E-09    1.750E-09    1.645E-09    1.540E-09
     1.436E-09    1.331E-09    1.227E-09    1.123E-09    1.019E-09    9.166E-10    8.143E-10    7.127E-10    6.120E-10    5.122E-10
     4.134E-10    3.158E-10    2.193E-10    1.242E-10    3.051E-11   -6.170E-11   -1.523E-10   -2.412E-10   -3.284E-10   -4.136E-10
    -4.968E-10   -5.780E-10   -6.570E-10   -7.337E-10   -8.080E-10   -8.799E-10   -9.492E-10   -1.016E-09   -1.080E-09   -1.141E-09
    -1.200E-09   -1.256E-09   -1.309E-09   -1.360E-09   -1.409E-09   -1.455E-09   -1.499E-09   -1.541E-09   -1.581E-09   -1.618E-09
    -1.654E-09   -1.687E-09   -1.719E-09   -1.748E-09   -1.776E-09   -1.802E-09   -1.826E-09   -1.849E-09   -1.870E-09   -1.890E-09
    -1.907E-09   -1.924E-09   -1.939E-09   -1.953E-09   -1.965E-09   -1.977E-09   -1.987E-09   -1.996E-09   -2.004E-09   -2.011E-09
    -2.017E-09   -2.022E-09   -2.027E-09   -2.030E-09   -2.033E-09   -2.036E-09   -2.037E-09   -2.039E-09   -2.039E-09   -2.039E-09
    -2.039E-09   -2.039E-09   -2.038E-09   -2.037E-09   -2.036E-09   -2.035E-09   -2.034E-09   -2.033E-09   -2.032E-09   -2.031E-09
    -2.030E-09   -2.030E-09   -2.029E-09   -2.029E-09   -2.029E-09   -2.030E-09   -2.030E-09   -2.031E-09   -2.032E-09   -2.033E-09
    -2.035E-09   -2.037E-09   -2.039E-09   -2.041E-09   -2.044E-09   -2.047E-09   -2.050E-09   -2.054E-09   -2.058E-09   -2.062E-09
    -2.067E-09   -2.072E-09   -2.078E-09   -2.084E-09   -2.090E-09   -2.097E-09   -2.104E-09   -2.112E-09   -2.120E-09   -2.129E-09
    -2.138E-09   -2.147E-09   -2.157E-09   -2.168E-09   -2.179E-09   -2.190E-09   -2.202E-09   -2.215E-09   -2.228E-09   -2.241E-09
    -2.256E-09   -2.270E-09   -2.286E-09   -2.302E-09   -2.318E-09   -2.335E-09   -2.353E-09   -2.372E-09   -2.391E-09   -2.410E-09
    -2.431E-09   -2.452E-09   -2.473E-09   -2.496E-09   -2.519E-09   -2.542E-09   -2.566E-09   -2.591E-09   -2.616E-09   -2.642E-09
    -2.668E-09   -2.695E-09   -2.723E-09   -2.750E-09   -2.778E-09   -2.807E-09   -2.836E-09   -2.866E-09   -2.895E-09   -2.925E-09
    -2.956E-09   -2.987E-09   -3.018E-09   -3.049E-09   -3.081E-09   -3.113E-09   -3.145E-09   -3.177E-09   -3.210E-09   -3.242E-09
    -3.275E-09   -3.308E-09   -3.341E-09   -3.375E-09   -3.408E-09   -3.441E-09   -3.475E-09   -3.508E-09   -3.542E-09   -3.575E-09
    -3.609E-09   -3.642E-09   -3.675E-09   -3.709E-09   -3.742E-09   -3.775E-09   -3.808E-09   -3.841E-09   -3.873E-09   -3.906E-09
    -3.938E-09   -3.970E-09   -4.002E-09
 GABA     Conc. = 1.84E-10
  -4.52162E-10 -3.81601E-10 -3.11000E-10 -2.40364E-10 -1.69693E-10 -9.90008E-11 -2.82849E-11  4.24483E-11  1.13197E-10  1.83973E-10
   2.54746E-10  3.25546E-10  3.96379E-10  4.67204E-10  5.38104E-10  6.09034E-10  6.79961E-10  7.51048E-10  8.22258E-10  8.93591E-10
   9.65215E-10  1.03721E-09  1.10974E-09  1.18310E-09  1.25769E-09  1.33427E-09  1.41443E-09  1.50172E-09  1.60619E-09  1.75376E-09
   1.82191E-09  1.89569E-09  2.09462E-09  2.19440E-09  2.23047E-09  2.34440E-09  2.42906E-09  2.49567E-09  2.55747E-09  2.57861E-09
   2.57872E-09  2.66667E-09  2.71183E-09  2.65510E-09  2.69767E-09  2.76889E-09  2.77560E-09  2.80942E-09  2.85884E-09  2.91433E-09
   2.97292E-09  3.03304E-09  3.09420E-09  3.15628E-09  3.21911E-09  3.28275E-09  3.34751E-09  3.41391E-09  3.48310E-09  3.55764E-09
   3.64364E-09  3.76059E-09  3.87901E-09  3.92631E-09  4.03952E-09  4.18010E-09  4.21502E-09  4.25543E-09  4.32354E-09  4.37353E-09
   4.42225E-09  4.45234E-09  4.44251E-09  4.45203E-09  4.51379E-09  4.49411E-09  4.46552E-09  4.51843E-09  4.55203E-09  4.58881E-09
   4.65133E-09  4.67416E-09  4.73282E-09  4.84604E-09  4.88290E-09  4.92432E-09  5.01593E-09  5.06368E-09  5.10682E-09  5.16136E-09
   5.17926E-09  5.19882E-09  5.25669E-09  5.26240E-09  5.23416E-09  5.27422E-09  5.29027E-09  5.26542E-09  5.27541E-09  5.28815E-09
   5.29064E-09  5.29789E-09  5.30762E-09  5.31827E-09  5.32901E-09  5.33931E-09  5.34891E-09  5.35761E-09  5.36529E-09  5.37185E-09
   5.37720E-09  5.38123E-09  5.38390E-09  5.38517E-09  5.38499E-09  5.38336E-09  5.38024E-09  5.37558E-09  5.36937E-09  5.36157E-09
   5.35215E-09  5.34111E-09  5.32842E-09  5.31406E-09  5.29800E-09  5.28024E-09  5.26075E-09  5.23950E-09  5.21649E-09  5.19170E-09
   5.16509E-09  5.13667E-09  5.10642E-09  5.07430E-09  5.04031E-09  5.00443E-09  4.96665E-09  4.92694E-09  4.88529E-09  4.84169E-09
   4.79612E-09  4.74855E-09  4.69898E-09  4.64740E-09  4.59377E-09  4.53809E-09  4.48034E-09  4.42051E-09  4.35858E-09  4.29455E-09
   4.22838E-09  4.16008E-09  4.08964E-09  4.01704E-09  3.94227E-09  3.86533E-09  3.78625E-09  3.70511E-09  3.62205E-09  3.53723E-09
   3.45086E-09  3.36321E-09  3.27477E-09  3.18642E-09  3.10030E-09  3.02345E-09  2.99207E-09  3.08186E-09  3.02235E-09  2.90012E-09
   2.77924E-09  2.65837E-09  2.54696E-09  2.43791E-09  2.32646E-09  2.23460E-09  2.15347E-09  1.99932E-09  1.73513E-09  1.58971E-09
   1.47152E-09  1.36062E-09  1.25271E-09  1.14648E-09  1.04139E-09  9.37313E-10  8.34144E-10  7.31880E-10  6.30605E-10  5.30354E-10
   4.31191E-10  3.33220E-10  2.36489E-10  1.41137E-10  4.72028E-11 -4.51993E-11 -1.35984E-10 -2.25039E-10 -3.12306E-10 -3.97657E-10
  -4.81011E-10 -5.62274E-10 -6.41346E-10 -7.18138E-10 -7.92552E-10 -8.64496E-10 -9.33848E-10 -1.00056E-09 -1.06453E-09 -1.12583E-09
  -1.18449E-09 -1.24058E-09 -1.29416E-09 -1.34528E-09 -1.39400E-09 -1.44037E-09 -1.48446E-09 -1.52631E-09 -1.56600E-09 -1.60356E-09
  -1.63906E-09 -1.67255E-09 -1.70410E-09 -1.73376E-09 -1.76157E-09 -1.78762E-09 -1.81192E-09 -1.83457E-09 -1.85562E-09 -1.87510E-09
  -1.89309E-09 -1.90964E-09 -1.92479E-09 -1.93863E-09 -1.95119E-09 -1.96254E-09 -1.97274E-09 -1.98182E-09 -1.98986E-09 -1.99692E-09
  -2.00304E-09 -2.00828E-09 -2.01270E-09 -2.01636E-09 -2.01931E-09 -2.02161E-09 -2.02332E-09 -2.02449E-09 -2.02518E-09 -2.02543E-09
  -2.02532E-09 -2.02491E-09 -2.02423E-09 -2.02334E-09 -2.02234E-09 -2.02122E-09 -2.02009E-09 -2.01897E-09 -2.01794E-09 -2.01706E-09
  -2.01634E-09 -2.01581E-09 -2.01547E-09 -2.01534E-09 -2.01542E-09 -2.01572E-09 -2.01626E-09 -2.01704E-09 -2.01807E-09 -2.01936E-09
  -2.02093E-09 -2.02278E-09 -2.02492E-09 -2.02735E-09 -2.03010E-09 -2.03317E-09 -2.03657E-09 -2.04031E-09 -2.04440E-09 -2.04885E-09
  -2.05366E-09 -2.05886E-09 -2.06443E-09 -2.07041E-09 -2.07680E-09 -2.08360E-09 -2.09083E-09 -2.09849E-09 -2.10660E-09 -2.11517E-09
  -2.12420E-09 -2.13371E-09 -2.14370E-09 -2.15418E-09 -2.16517E-09 -2.17667E-09 -2.18870E-09 -2.20126E-09 -2.21435E-09 -2.22801E-09
  -2.24223E-09 -2.25701E-09 -2.27238E-09 -2.28833E-09 -2.30489E-09 -2.32206E-09 -2.33985E-09 -2.35827E-09 -2.37733E-09 -2.39703E-09
  -2.41739E-09 -2.43843E-09 -2.46012E-09 -2.48245E-09 -2.50540E-09 -2.52896E-09 -2.55310E-09 -2.57781E-09 -2.60308E-09 -2.62887E-09
  -2.65519E-09 -2.68199E-09 -2.70928E-09 -2.73703E-09 -2.76523E-09 -2.79385E-09 -2.82288E-09 -2.85230E-09 -2.88209E-09 -2.91223E-09
  -2.94272E-09 -2.97352E-09 -3.00462E-09 -3.03601E-09 -3.06766E-09 -3.09956E-09 -3.13169E-09 -3.16403E-09 -3.19656E-09 -3.22927E-09
  -3.26214E-09 -3.29516E-09 -3.32829E-09 -3.36153E-09 -3.39485E-09 -3.42824E-09 -3.46169E-09 -3.49517E-09 -3.52866E-09 -3.56215E-09
  -3.59562E-09 -3.62905E-09 -3.66243E-09 -3.69574E-09 -3.72894E-09 -3.76205E-09 -3.79503E-09 -3.82785E-09 -3.86052E-09 -3.89301E-09
  -3.92529E-09 -3.95737E-09 -3.98920E-09
 Gln      Conc. = 2.97E-09
   2.79961E-09  3.32774E-09  3.50946E-09  3.49982E-09  3.53990E-09  3.50735E-09  3.29856E-09  3.03416E-09  3.05388E-09  2.33678E-09
   2.02343E-09  1.90629E-09  1.43487E-09  1.26591E-09  1.21532E-09  1.21275E-09  1.23451E-09  1.27107E-09  1.31694E-09  1.36911E-09
   1.42571E-09  1.48526E-09  1.54707E-09  1.61155E-09  1.67826E-09  1.74563E-09  1.81470E-09  1.88504E-09  1.95613E-09  2.02803E-09
   2.10077E-09  2.17435E-09  2.24887E-09  2.32438E-09  2.40096E-09  2.47873E-09  2.55782E-09  2.63834E-09  2.72112E-09  2.80604E-09
   2.89401E-09  2.98565E-09  3.08111E-09  3.18116E-09  3.28825E-09  3.40266E-09  3.52701E-09  3.67134E-09  3.83719E-09  4.03041E-09
   4.28208E-09  4.63211E-09  5.18289E-09  6.26420E-09  7.21938E-09  7.31583E-09  8.43219E-09  9.49386E-09  9.51272E-09  9.43942E-09
   9.58720E-09  9.51984E-09  9.43755E-09  9.08179E-09  8.17868E-09  7.67785E-09  7.77666E-09  6.86195E-09  6.07535E-09  6.07987E-09
   6.72357E-09  7.04293E-09  7.10672E-09  8.09039E-09  8.87894E-09  9.02597E-09  9.48417E-09  9.70927E-09  9.69641E-09  9.80863E-09
   9.74814E-09  9.10467E-09  8.81876E-09  8.74987E-09  7.86261E-09  7.27263E-09  7.08372E-09  6.59097E-09  6.25582E-09  6.06557E-09
   5.94604E-09  5.87070E-09  5.82143E-09  5.78462E-09  5.75943E-09  5.74361E-09  5.73297E-09  5.72684E-09  5.72467E-09  5.72486E-09
   5.72623E-09  5.72845E-09  5.73120E-09  5.73459E-09  5.73819E-09  5.74158E-09  5.74460E-09  5.74710E-09  5.74896E-09  5.75007E-09
   5.75033E-09  5.74964E-09  5.74794E-09  5.74515E-09  5.74122E-09  5.73608E-09  5.72968E-09  5.72198E-09  5.71293E-09  5.70250E-09
   5.69064E-09  5.67733E-09  5.66253E-09  5.64621E-09  5.62834E-09  5.60890E-09  5.58785E-09  5.56518E-09  5.54086E-09  5.51487E-09
   5.48719E-09  5.45779E-09  5.42667E-09  5.39379E-09  5.35914E-09  5.32271E-09  5.28449E-09  5.24445E-09  5.20259E-09  5.15890E-09
   5.11336E-09  5.06598E-09  5.01674E-09  4.96565E-09  4.91270E-09  4.85791E-09  4.80129E-09  4.74285E-09  4.68263E-09  4.62068E-09
   4.55703E-09  4.49178E-09  4.42504E-09  4.35696E-09  4.28776E-09  4.21773E-09  4.14737E-09  4.07738E-09  4.00894E-09  3.94384E-09
   3.88512E-09  3.83829E-09  3.81470E-09  3.84156E-09  4.00189E-09  4.66734E-09  7.53177E-09  8.44524E-09  8.08060E-09  7.63815E-09
   7.20316E-09  6.92145E-09  6.71427E-09  6.45500E-09  6.46647E-09  6.77110E-09  6.18057E-09  3.56156E-09  2.52292E-09  2.15153E-09
   1.93249E-09  1.76687E-09  1.62545E-09  1.49699E-09  1.37628E-09  1.26075E-09  1.14891E-09  1.03989E-09  9.33244E-10  8.28642E-10
   7.25898E-10  6.24941E-10  5.25688E-10  4.28185E-10  3.32396E-10  2.38384E-10  1.46190E-10  5.58910E-11 -3.24803E-11 -1.18817E-10
  -2.03056E-10 -2.85119E-10 -3.64915E-10 -4.42369E-10 -5.17386E-10 -5.89887E-10 -6.59753E-10 -7.26945E-10 -7.91358E-10 -8.53063E-10
  -9.12110E-10 -9.68566E-10 -1.02248E-09 -1.07392E-09 -1.12295E-09 -1.16961E-09 -1.21397E-09 -1.25608E-09 -1.29601E-09 -1.33382E-09
  -1.36954E-09 -1.40325E-09 -1.43501E-09 -1.46487E-09 -1.49288E-09 -1.51911E-09 -1.54360E-09 -1.56642E-09 -1.58764E-09 -1.60729E-09
