 LCModel (Version 6.3-1R) Copyright: S.W. Provencher.          Ref.: Magn. Reson. Med. 30:672-679 (1993).                
 onepulse 17x19_ftSpec_smooth_lcm
 26 lines in following concentration table = NCONC+1
    Conc.  %SD   /Cr    Metabolite                                         
 1.21E-10 133%   0.000 Ala                                                 
 7.24E-10  47%   0.000 Asp                                                 
    0.000 999%   0.000 Cr                                                  
 2.80E-09  10%   0.000 GABA                                                
 1.26E-09  21%   0.000 Glc                                                 
    0.000 999%   0.000 Gln                                                 
 9.50E-11 316%   0.000 Glu                                                 
 3.72E-11 999%   0.000 Glyc                                                
    0.000 999%   0.000 GPC                                                 
    0.000 999%   0.000 GSH                                                 
 1.02E-10 861%   0.000 Ins                                                 
    0.000 999%   0.000 Lac                                                 
    0.000 999%   0.000 NAAG                                                
 1.04E-09  14%   0.000 NAA                                                 
 1.16E-10  44%   0.000 PCh                                                 
    0.000 999%   0.000 PCr                                                 
    0.000 999%   0.000 PE                                                  
    0.000 999%   0.000 Scyllo                                              
    0.000 999%   0.000 Ser                                                 
    0.000 999%   0.000 Tau                                                 
 1.16E-10  44%   0.000 GPC+PCh                                             
 1.04E-09  14%   0.000 NAA+NAAG                                            
 1.39E-10 135%   0.000 Ins+Glyc                                            
    0.000 999%   0.000 Cr+PCr                                              
 9.50E-11 316%   0.000 Glu+Gln                                             
   6 lines in following misc. output table
  FWHM = 0.078 ppm    S/N =   5                                            
  Data shift = 0.347 ppm                                                   
  Ph:  67 deg      28.1 deg/ppm                                            
  alphaB,S = 1.6E-01,   7.5E+01                                            
   16 spline knots.   Ns = 5(1)                                            
  ( 7) 4 infls.   ( 3) 1 extrs.                                            
  363 points on ppm-axis = NY
      4.250000     4.238821     4.227641     4.216462     4.205282     4.194103     4.182923     4.171744     4.160564     4.149385
      4.138206     4.127026     4.115847     4.104667     4.093488     4.082308     4.071129     4.059949     4.048770     4.037591
      4.026411     4.015232     4.004052     3.992873     3.981693     3.970514     3.959334     3.948155     3.936975     3.925796
      3.914617     3.903437     3.892258     3.881078     3.869899     3.858719     3.847540     3.836360     3.825181     3.814002
      3.802822     3.791643     3.780463     3.769284     3.758104     3.746925     3.735745     3.724566     3.713387     3.702207
      3.691028     3.679848     3.668669     3.657489     3.646310     3.635130     3.623951     3.612772     3.601592     3.590413
      3.579233     3.568054     3.556874     3.545695     3.534515     3.523336     3.512156     3.500977     3.489798     3.478618
      3.467439     3.456259     3.445080     3.433900     3.422721     3.411541     3.400362     3.389183     3.378003     3.366824
      3.355644     3.344465     3.333285     3.322106     3.310926     3.299747     3.288568     3.277388     3.266209     3.255029
      3.243850     3.232670     3.221491     3.210311     3.199132     3.187953     3.176773     3.165594     3.154414     3.143235
      3.132055     3.120876     3.109696     3.098517     3.087337     3.076158     3.064979     3.053799     3.042620     3.031440
      3.020261     3.009081     2.997902     2.986722     2.975543     2.964364     2.953184     2.942005     2.930825     2.919646
      2.908466     2.897287     2.886107     2.874928     2.863749     2.852569     2.841390     2.830210     2.819031     2.807851
      2.796672     2.785492     2.774313     2.763134     2.751954     2.740775     2.729595     2.718416     2.707236     2.696057
      2.684877     2.673698     2.662519     2.651339     2.640160     2.628980     2.617801     2.606621     2.595442     2.584262
      2.573083     2.561903     2.550724     2.539545     2.528365     2.517186     2.506006     2.494827     2.483647     2.472468
      2.461288     2.450109     2.438930     2.427750     2.416571     2.405391     2.394212     2.383032     2.371853     2.360673
      2.349494     2.338315     2.327135     2.315956     2.304776     2.293597     2.282417     2.271238     2.260058     2.248879
      2.237700     2.226520     2.215341     2.204161     2.192982     2.181802     2.170623     2.159443     2.148264     2.137084
      2.125905     2.114726     2.103546     2.092367     2.081187     2.070008     2.058828     2.047649     2.036469     2.025290
      2.014111     2.002931     1.991752     1.980572     1.969393     1.958213     1.947034     1.935854     1.924675     1.913496
      1.902316     1.891137     1.879957     1.868778     1.857598     1.846419     1.835239     1.824060     1.812881     1.801701
      1.790522     1.779342     1.768163     1.756983     1.745804     1.734624     1.723445     1.712265     1.701086     1.689907
      1.678727     1.667548     1.656368     1.645189     1.634009     1.622830     1.611650     1.600471     1.589292     1.578112
      1.566933     1.555753     1.544574     1.533394     1.522215     1.511035     1.499856     1.488677     1.477497     1.466318
      1.455138     1.443959     1.432779     1.421600     1.410420     1.399241     1.388062     1.376882     1.365703     1.354523
      1.343344     1.332164     1.320985     1.309805     1.298626     1.287446     1.276267     1.265088     1.253908     1.242729
      1.231549     1.220370     1.209190     1.198011     1.186831     1.175652     1.164473     1.153293     1.142114     1.130934
      1.119755     1.108575     1.097396     1.086216     1.075037     1.063858     1.052678     1.041499     1.030319     1.019140
      1.007960     0.996781     0.985601     0.974422     0.963243     0.952063     0.940884     0.929704     0.918525     0.907345
      0.896166     0.884986     0.873807     0.862628     0.851448     0.840269     0.829089     0.817910     0.806730     0.795551
      0.784371     0.773192     0.762012     0.750833     0.739654     0.728474     0.717295     0.706115     0.694936     0.683756
      0.672577     0.661397     0.650218     0.639039     0.627859     0.616680     0.605500     0.594321     0.583141     0.571962
      0.560782     0.549603     0.538424     0.527244     0.516065     0.504885     0.493706     0.482526     0.471347     0.460167
      0.448988     0.437809     0.426629     0.415450     0.404270     0.393091     0.381911     0.370732     0.359552     0.348373
      0.337193     0.326014     0.314835     0.303655     0.292476     0.281296     0.270117     0.258937     0.247758     0.236578
      0.225399     0.214220     0.203040
 NY phased data points follow
   3.79577E-09  5.12915E-09  7.06651E-09  7.59028E-09  7.16643E-09  5.77701E-09  5.91055E-09  4.35472E-09  4.33702E-09  4.37224E-09
   4.69498E-09  4.53784E-09  4.87591E-09  4.57600E-09  5.21212E-09  6.07616E-09  6.22300E-09  5.92559E-09  6.35837E-09  5.94042E-09
   6.61654E-09  6.03322E-09  5.09503E-09  5.14273E-09  6.31617E-09  6.67192E-09  7.09156E-09  6.31230E-09  7.03539E-09  6.41660E-09
   5.86727E-09  6.63588E-09  7.85950E-09  1.00834E-08  9.67281E-09  1.05155E-08  9.47023E-09  8.14711E-09  7.78837E-09  6.68117E-09
   6.90678E-09  6.26990E-09  6.68377E-09  5.57311E-09  5.82570E-09  6.43073E-09  5.29167E-09  5.06543E-09  3.64425E-09  4.06222E-09
   4.68880E-09  3.80891E-09  4.88121E-09  4.43455E-09  5.05548E-09  3.88284E-09  3.99173E-09  3.81216E-09  2.97881E-09  2.65630E-09
   3.62541E-09  3.58791E-09  4.89190E-09  7.54246E-09  1.05555E-08  1.14414E-08  1.09888E-08  9.53078E-09  8.41781E-09  7.03956E-09
   7.71292E-09  6.22062E-09  5.45060E-09  4.75301E-09  5.06799E-09  3.14812E-09  3.24528E-09  3.92815E-09  4.49622E-09  5.99739E-09
   9.73359E-09  1.23742E-08  1.25238E-08  1.20088E-08  1.02236E-08  9.70177E-09  9.71330E-09  8.41598E-09  7.79528E-09  7.84036E-09
   7.52762E-09  7.26045E-09  7.67736E-09  6.27633E-09  6.65472E-09  5.61736E-09  5.80629E-09  5.32077E-09  4.40368E-09  5.16279E-09
   4.46372E-09  5.59714E-09  4.06787E-09  4.55658E-09  4.61518E-09  4.33560E-09  4.33861E-09  4.27861E-09  4.34781E-09  3.13453E-09
   3.30939E-09  2.58993E-09  2.48534E-09  3.43409E-09  3.36675E-09  3.40880E-09  3.37257E-09  3.98916E-09  4.49938E-09  4.31195E-09
   4.20003E-09  3.50020E-09  4.57440E-09  3.32000E-09  2.66098E-09  2.24932E-09  2.17839E-09  2.10998E-09  2.29163E-09  2.62141E-09
   2.87594E-09  2.22240E-09  2.69971E-09  3.66551E-09  2.79197E-09  1.98459E-09  2.39544E-09  1.71602E-09  2.07145E-09  2.80167E-09
   3.16117E-09  3.90634E-09  4.29663E-09  2.94532E-09  2.97904E-09  3.43066E-09  3.59920E-09  4.76080E-09  3.76329E-09  4.08000E-09
   3.35817E-09  3.54319E-09  3.96613E-09  3.57648E-09  4.01124E-09  3.68310E-09  3.79588E-09  3.75835E-09  4.11340E-09  4.53339E-09
   4.20573E-09  4.31686E-09  4.17350E-09  3.79704E-09  4.12087E-09  4.57548E-09  4.51563E-09  5.09968E-09  6.80980E-09  8.99240E-09
   1.10059E-08  1.48122E-08  1.62991E-08  1.47569E-08  1.19539E-08  9.06046E-09  6.82024E-09  6.72197E-09  5.97270E-09  4.67835E-09
   4.01953E-09  3.75198E-09  3.30513E-09  2.36340E-09  3.08709E-09  9.35962E-10  8.91979E-10 -1.23880E-10 -1.06729E-09 -1.12977E-09
  -1.71992E-09 -3.17003E-09 -4.10305E-09 -4.40750E-09 -5.52637E-09 -6.18020E-09 -6.98471E-09 -7.82920E-09 -8.77884E-09 -8.91243E-09
  -9.25433E-09 -9.21748E-09 -8.65126E-09 -9.51848E-09 -9.07791E-09 -8.51673E-09 -7.08403E-09 -7.09378E-09 -5.89994E-09 -6.16944E-09
  -4.46221E-09 -3.33271E-09 -2.75978E-09 -2.07944E-09 -1.57722E-09 -1.24810E-09 -1.41558E-09 -1.22349E-09 -7.91333E-10 -1.67663E-09
  -1.89044E-09 -1.35565E-09 -9.26195E-10 -2.04239E-09 -1.08342E-09 -1.07990E-09 -9.60839E-10 -6.25962E-10 -1.46644E-09 -6.98250E-10
  -1.46032E-09 -1.64107E-09 -1.24064E-09 -1.94061E-09 -1.00102E-09 -9.35539E-10 -8.87845E-10 -4.02123E-10 -1.50828E-09 -7.66767E-10
  -7.54245E-10 -1.02116E-09 -1.06967E-09 -1.48624E-09 -1.35308E-09 -9.56822E-10 -8.49581E-10 -1.22783E-09 -8.04878E-10 -4.44627E-10
  -5.82054E-10 -1.25676E-10 -5.25296E-10  3.73502E-10 -1.01028E-09 -9.10351E-10 -6.48948E-10 -1.22601E-09 -7.00674E-10 -8.55178E-10
  -1.29709E-09 -1.69787E-09 -1.51022E-09 -1.61249E-09 -1.09165E-09 -1.09032E-09 -7.13667E-10  7.09955E-11 -3.23977E-10  1.38334E-10
   1.25159E-10 -7.48046E-11  2.86795E-10  5.59268E-10  2.16471E-10  1.18627E-10  1.21962E-10 -4.12080E-10 -5.91434E-10 -4.32172E-10
  -1.21240E-09 -1.45697E-09 -3.34408E-10 -1.15187E-09 -1.06676E-09 -4.25122E-10 -8.85911E-10 -9.70359E-10 -8.78594E-10 -7.34727E-10
  -1.15283E-09 -1.48567E-09 -6.54511E-10 -4.54945E-10 -1.11164E-09 -4.72462E-10 -8.70505E-10 -9.04857E-10 -1.01335E-09 -1.85017E-10
  -4.27753E-10 -6.60070E-10 -5.28435E-10 -8.48533E-10 -7.51962E-10 -2.93545E-10 -6.30458E-10 -2.76873E-10 -2.78037E-10 -3.11082E-10
  -8.91437E-10 -4.82869E-12 -4.09470E-10  1.38514E-10  7.19144E-11 -3.58338E-10 -2.26325E-10 -1.70779E-10 -2.25421E-10  1.75006E-10
  -1.55468E-10  2.47982E-10 -1.38922E-10 -2.95766E-10  5.73817E-10 -2.77441E-10  5.54978E-10  4.82947E-10  6.92264E-10  7.31522E-11
   3.14731E-10 -1.01118E-10  4.18398E-10  3.33378E-10  3.15922E-10  9.46018E-10 -1.94227E-10  7.01251E-10  8.26332E-10  1.60970E-10
   4.83253E-11  5.59118E-10  7.78940E-10  1.92721E-10  2.35206E-10  4.57994E-10  2.27700E-11  5.66100E-10  2.12530E-10  6.32443E-10
   7.03154E-10  4.13034E-10  4.24565E-10  6.91708E-10  6.01065E-10  4.95310E-10  3.23179E-10  3.31058E-10  5.20020E-10  8.63020E-10
   4.34739E-10  1.59227E-10  1.00898E-09
 NY points of the fit to the data follow
   5.40590E-09  5.77079E-09  6.01539E-09  6.11395E-09  6.02332E-09  5.76805E-09  5.41429E-09  5.04726E-09  4.78568E-09  4.58179E-09
   4.51401E-09  4.54254E-09  4.62895E-09  4.78657E-09  5.06799E-09  5.46424E-09  5.94457E-09  6.44114E-09  6.80415E-09  6.90899E-09
   6.77884E-09  6.41696E-09  5.93659E-09  5.60969E-09  5.50775E-09  5.57501E-09  5.83955E-09  6.27882E-09  6.72416E-09  7.14498E-09
   7.36823E-09  7.57607E-09  8.04391E-09  8.43667E-09  8.61933E-09  8.93550E-09  9.22433E-09  9.20766E-09  8.83310E-09  8.19394E-09
   7.48680E-09  6.80782E-09  5.84515E-09  5.00379E-09  4.68683E-09  4.47909E-09  4.29322E-09  4.30832E-09  4.38255E-09  4.42960E-09
   4.44828E-09  4.45228E-09  4.47993E-09  4.48140E-09  4.42206E-09  4.33479E-09  4.24641E-09  4.22991E-09  4.24586E-09  4.32022E-09
   4.55603E-09  5.04558E-09  5.68892E-09  6.37065E-09  7.32939E-09  8.29377E-09  8.95038E-09  9.35556E-09  9.49672E-09  9.26030E-09
   8.67727E-09  7.79837E-09  6.82708E-09  6.05199E-09  5.29961E-09  4.55054E-09  4.42781E-09  5.12595E-09  6.22607E-09  7.74218E-09
   9.41306E-09  1.07619E-08  1.15310E-08  1.15984E-08  1.10047E-08  1.01984E-08  9.40879E-09  8.48405E-09  7.54064E-09  7.23704E-09
   7.09687E-09  6.98688E-09  6.73590E-09  6.25330E-09  5.86246E-09  5.54342E-09  5.07471E-09  4.69257E-09  4.46181E-09  4.25719E-09
   4.13342E-09  4.07936E-09  4.06845E-09  4.10113E-09  4.14195E-09  4.16603E-09  4.16790E-09  4.14642E-09  4.09741E-09  4.01513E-09
   3.90540E-09  3.80196E-09  3.73793E-09  3.66609E-09  3.59706E-09  3.56802E-09  3.55240E-09  3.54244E-09  3.53533E-09  3.52973E-09
   3.52486E-09  3.52026E-09  3.51554E-09  3.51045E-09  3.50478E-09  3.49835E-09  3.49101E-09  3.48266E-09  3.47320E-09  3.46250E-09
   3.45049E-09  3.43708E-09  3.42219E-09  3.40573E-09  3.38766E-09  3.36790E-09  3.34639E-09  3.32307E-09  3.29788E-09  3.27076E-09
   3.24164E-09  3.21048E-09  3.17715E-09  3.14157E-09  3.10366E-09  3.06332E-09  3.02049E-09  2.97510E-09  2.92708E-09  2.87639E-09
   2.82299E-09  2.76686E-09  2.70803E-09  2.64656E-09  2.58254E-09  2.51615E-09  2.44771E-09  2.37765E-09  2.30674E-09  2.23612E-09
   2.16772E-09  2.10479E-09  2.05333E-09  2.02525E-09  2.04834E-09  2.20543E-09  2.87007E-09  4.64303E-09  7.21442E-09  1.01543E-08
   1.29900E-08  1.50128E-08  1.55734E-08  1.45525E-08  1.24138E-08  9.80953E-09  7.05198E-09  4.19479E-09  1.81686E-09  7.37771E-10
   2.31525E-10 -1.06828E-10 -3.73186E-10 -6.00691E-10 -8.03951E-10 -9.90387E-10 -1.16407E-09 -1.32734E-09 -1.48156E-09 -1.62753E-09
  -1.76567E-09 -1.89617E-09 -2.01905E-09 -2.13419E-09 -2.24143E-09 -2.34054E-09 -2.43138E-09 -2.51418E-09 -2.58926E-09 -2.65689E-09
  -2.71736E-09 -2.77091E-09 -2.81780E-09 -2.85826E-09 -2.89253E-09 -2.92084E-09 -2.94341E-09 -2.96047E-09 -2.97222E-09 -2.97889E-09
  -2.98069E-09 -2.97782E-09 -2.97050E-09 -2.95894E-09 -2.94333E-09 -2.92390E-09 -2.90084E-09 -2.87436E-09 -2.84465E-09 -2.81193E-09
  -2.77639E-09 -2.73823E-09 -2.69767E-09 -2.65489E-09 -2.61008E-09 -2.56341E-09 -2.51501E-09 -2.46503E-09 -2.41364E-09 -2.36097E-09
  -2.30717E-09 -2.25240E-09 -2.19681E-09 -2.14054E-09 -2.08373E-09 -2.02654E-09 -1.96913E-09 -1.91163E-09 -1.85419E-09 -1.79697E-09
  -1.74011E-09 -1.68375E-09 -1.62805E-09 -1.57317E-09 -1.51922E-09 -1.46638E-09 -1.41479E-09 -1.36459E-09 -1.31593E-09 -1.26898E-09
  -1.22384E-09 -1.18071E-09 -1.13961E-09 -1.10050E-09 -1.06331E-09 -1.02798E-09 -9.94438E-10 -9.62625E-10 -9.32469E-10 -9.03911E-10
  -8.76886E-10 -8.51321E-10 -8.27162E-10 -8.04334E-10 -7.82779E-10 -7.62430E-10 -7.43209E-10 -7.25076E-10 -7.07952E-10 -6.91767E-10
  -6.76457E-10 -6.61968E-10 -6.48220E-10 -6.35155E-10 -6.22715E-10 -6.10815E-10 -5.99413E-10 -5.88428E-10 -5.77803E-10 -5.67465E-10
  -5.57375E-10 -5.47503E-10 -5.37819E-10 -5.28293E-10 -5.18903E-10 -5.09614E-10 -5.00402E-10 -4.91235E-10 -4.82086E-10 -4.72928E-10
  -4.63731E-10 -4.54468E-10 -4.45109E-10 -4.35625E-10 -4.25991E-10 -4.16174E-10 -4.06150E-10 -3.95887E-10 -3.85362E-10 -3.74536E-10
  -3.63393E-10 -3.51896E-10 -3.40019E-10 -3.27738E-10 -3.15018E-10 -3.01833E-10 -2.88157E-10 -2.73959E-10 -2.59251E-10 -2.44060E-10
  -2.28412E-10 -2.12335E-10 -1.95858E-10 -1.79006E-10 -1.61808E-10 -1.44291E-10 -1.26482E-10 -1.08410E-10 -9.01016E-11 -7.15828E-11
  -5.28850E-11 -3.40309E-11 -1.50499E-11  4.02750E-12  2.31794E-11  4.23725E-11  6.15833E-11  8.07846E-11  9.99467E-11  1.19041E-10
   1.38045E-10  1.56927E-10  1.75662E-10  1.94220E-10  2.12575E-10  2.30705E-10  2.48609E-10  2.66296E-10  2.83779E-10  3.01068E-10
   3.18173E-10  3.35104E-10  3.51873E-10  3.68489E-10  3.84962E-10  4.01306E-10  4.17525E-10  4.33635E-10  4.49645E-10  4.65565E-10
   4.81406E-10  4.97177E-10  5.12891E-10  5.28556E-10  5.44184E-10  5.59784E-10  5.75368E-10  5.90946E-10  6.06529E-10  6.22125E-10
   6.37746E-10  6.53403E-10  6.69108E-10
 NY background values follow
     4.144E-10    4.264E-10    4.383E-10    4.503E-10    4.624E-10    4.744E-10    4.865E-10    4.986E-10    5.107E-10    5.229E-10
     5.350E-10    5.472E-10    5.594E-10    5.717E-10    5.839E-10    5.962E-10    6.085E-10    6.207E-10    6.331E-10    6.454E-10
     6.577E-10    6.700E-10    6.824E-10    6.948E-10    7.071E-10    7.195E-10    7.319E-10    7.443E-10    7.567E-10    7.691E-10
     7.815E-10    7.940E-10    8.065E-10    8.191E-10    8.319E-10    8.448E-10    8.578E-10    8.710E-10    8.845E-10    8.981E-10
     9.120E-10    9.261E-10    9.406E-10    9.553E-10    9.703E-10    9.858E-10    1.002E-09    1.018E-09    1.034E-09    1.051E-09
     1.069E-09    1.087E-09    1.105E-09    1.124E-09    1.144E-09    1.164E-09    1.184E-09    1.206E-09    1.227E-09    1.250E-09
     1.273E-09    1.296E-09    1.320E-09    1.344E-09    1.369E-09    1.394E-09    1.420E-09    1.446E-09    1.473E-09    1.499E-09
     1.527E-09    1.554E-09    1.582E-09    1.610E-09    1.638E-09    1.667E-09    1.695E-09    1.724E-09    1.753E-09    1.783E-09
     1.812E-09    1.842E-09    1.871E-09    1.901E-09    1.931E-09    1.961E-09    1.990E-09    2.020E-09    2.050E-09    2.079E-09
     2.109E-09    2.138E-09    2.167E-09    2.196E-09    2.225E-09    2.253E-09    2.281E-09    2.308E-09    2.335E-09    2.362E-09
     2.388E-09    2.414E-09    2.439E-09    2.464E-09    2.488E-09    2.511E-09    2.533E-09    2.555E-09    2.576E-09    2.597E-09
     2.616E-09    2.635E-09    2.653E-09    2.670E-09    2.686E-09    2.700E-09    2.714E-09    2.727E-09    2.739E-09    2.749E-09
     2.758E-09    2.766E-09    2.772E-09    2.777E-09    2.781E-09    2.783E-09    2.783E-09    2.782E-09    2.779E-09    2.775E-09
     2.769E-09    2.761E-09    2.751E-09    2.740E-09    2.726E-09    2.711E-09    2.693E-09    2.674E-09    2.652E-09    2.629E-09
     2.603E-09    2.574E-09    2.544E-09    2.511E-09    2.475E-09    2.437E-09    2.396E-09    2.352E-09    2.305E-09    2.255E-09
     2.202E-09    2.145E-09    2.086E-09    2.023E-09    1.956E-09    1.886E-09    1.812E-09    1.734E-09    1.652E-09    1.566E-09
     1.477E-09    1.383E-09    1.284E-09    1.182E-09    1.074E-09    9.625E-10    8.460E-10    7.247E-10    5.987E-10    4.681E-10
     3.335E-10    1.954E-10    5.410E-11   -8.989E-11   -2.361E-10   -3.841E-10   -5.335E-10   -6.838E-10   -8.346E-10   -9.854E-10
    -1.136E-09   -1.285E-09   -1.434E-09   -1.580E-09   -1.724E-09   -1.866E-09   -2.004E-09   -2.139E-09   -2.270E-09   -2.397E-09
    -2.519E-09   -2.635E-09   -2.746E-09   -2.850E-09   -2.948E-09   -3.039E-09   -3.122E-09   -3.198E-09   -3.267E-09   -3.329E-09
    -3.384E-09   -3.433E-09   -3.476E-09   -3.512E-09   -3.543E-09   -3.568E-09   -3.587E-09   -3.601E-09   -3.610E-09   -3.614E-09
    -3.613E-09   -3.608E-09   -3.599E-09   -3.585E-09   -3.567E-09   -3.546E-09   -3.521E-09   -3.493E-09   -3.461E-09   -3.427E-09
    -3.390E-09   -3.350E-09   -3.308E-09   -3.264E-09   -3.218E-09   -3.170E-09   -3.120E-09   -3.069E-09   -3.016E-09   -2.963E-09
    -2.908E-09   -2.852E-09   -2.795E-09   -2.738E-09   -2.680E-09   -2.622E-09   -2.564E-09   -2.505E-09   -2.447E-09   -2.389E-09
    -2.331E-09   -2.274E-09   -2.217E-09   -2.162E-09   -2.107E-09   -2.053E-09   -2.001E-09   -1.950E-09   -1.901E-09   -1.853E-09
    -1.807E-09   -1.764E-09   -1.722E-09   -1.682E-09   -1.644E-09   -1.608E-09   -1.574E-09   -1.542E-09   -1.511E-09   -1.482E-09
    -1.454E-09   -1.428E-09   -1.403E-09   -1.380E-09   -1.358E-09   -1.337E-09   -1.317E-09   -1.298E-09   -1.281E-09   -1.264E-09
    -1.248E-09   -1.233E-09   -1.219E-09   -1.205E-09   -1.192E-09   -1.180E-09   -1.168E-09   -1.157E-09   -1.146E-09   -1.135E-09
    -1.124E-09   -1.114E-09   -1.104E-09   -1.094E-09   -1.084E-09   -1.074E-09   -1.065E-09   -1.055E-09   -1.045E-09   -1.036E-09
    -1.026E-09   -1.016E-09   -1.007E-09   -9.967E-10   -9.866E-10   -9.764E-10   -9.660E-10   -9.553E-10   -9.443E-10   -9.331E-10
    -9.215E-10   -9.096E-10   -8.973E-10   -8.847E-10   -8.715E-10   -8.579E-10   -8.439E-10   -8.293E-10   -8.142E-10   -7.986E-10
    -7.825E-10   -7.660E-10   -7.492E-10   -7.319E-10   -7.143E-10   -6.964E-10   -6.782E-10   -6.598E-10   -6.411E-10   -6.222E-10
    -6.031E-10   -5.838E-10   -5.645E-10   -5.450E-10   -5.255E-10   -5.059E-10   -4.863E-10   -4.667E-10   -4.471E-10   -4.277E-10
    -4.083E-10   -3.890E-10   -3.699E-10   -3.509E-10   -3.322E-10   -3.137E-10   -2.954E-10   -2.773E-10   -2.595E-10   -2.418E-10
    -2.243E-10   -2.070E-10   -1.898E-10   -1.728E-10   -1.560E-10   -1.392E-10   -1.226E-10   -1.061E-10   -8.974E-11   -7.344E-11
    -5.721E-11   -4.105E-11   -2.494E-11   -8.886E-12    7.133E-12    2.313E-11    3.910E-11    5.507E-11    7.105E-11    8.704E-11
     1.031E-10    1.191E-10    1.352E-10
 Ala      Conc. = 1.21E-10
   5.04818E-10  5.26178E-10  5.43922E-10  5.58976E-10  5.71217E-10  5.80906E-10  5.86499E-10  5.86475E-10  5.88232E-10  5.92337E-10
   5.90882E-10  5.91335E-10  5.97276E-10  6.02721E-10  6.09135E-10  6.17741E-10  6.27517E-10  6.37988E-10  6.48913E-10  6.60151E-10
   6.71616E-10  6.83252E-10  6.95018E-10  7.06887E-10  7.18838E-10  7.30855E-10  7.42927E-10  7.55043E-10  7.67197E-10  7.79387E-10
   7.91628E-10  8.03939E-10  8.16337E-10  8.28842E-10  8.41474E-10  8.54251E-10  8.67196E-10  8.80326E-10  8.93663E-10  9.07227E-10
   9.21040E-10  9.35120E-10  9.49491E-10  9.64172E-10  9.79186E-10  9.94550E-10  1.01029E-09  1.02642E-09  1.04297E-09  1.05996E-09
   1.07741E-09  1.09533E-09  1.11376E-09  1.13271E-09  1.15220E-09  1.17226E-09  1.19290E-09  1.21414E-09  1.23595E-09  1.25832E-09
   1.28123E-09  1.30465E-09  1.32857E-09  1.35296E-09  1.37781E-09  1.40311E-09  1.42882E-09  1.45493E-09  1.48142E-09  1.50827E-09
   1.53547E-09  1.56299E-09  1.59081E-09  1.61892E-09  1.64729E-09  1.67592E-09  1.70478E-09  1.73385E-09  1.76311E-09  1.79256E-09
   1.82216E-09  1.85192E-09  1.88181E-09  1.91182E-09  1.94194E-09  1.97215E-09  2.00244E-09  2.03279E-09  2.06318E-09  2.09362E-09
   2.12412E-09  2.15471E-09  2.18544E-09  2.21642E-09  2.24783E-09  2.27998E-09  2.31349E-09  2.34959E-09  2.39130E-09  2.44839E-09
   2.53883E-09  2.63898E-09  2.74458E-09  2.86859E-09  2.98303E-09  3.06788E-09  3.12072E-09  3.14262E-09  3.13102E-09  3.08126E-09
   3.00018E-09  2.92212E-09  2.88067E-09  2.82904E-09  2.77815E-09  2.76543E-09  2.76467E-09  2.76829E-09  2.77364E-09  2.77948E-09
   2.78518E-09  2.79031E-09  2.79463E-09  2.79794E-09  2.80009E-09  2.80099E-09  2.80052E-09  2.79860E-09  2.79518E-09  2.79016E-09
   2.78350E-09  2.77512E-09  2.76498E-09  2.75302E-09  2.73919E-09  2.72342E-09  2.70568E-09  2.68591E-09  2.66406E-09  2.64009E-09
   2.61392E-09  2.58549E-09  2.55470E-09  2.52146E-09  2.48565E-09  2.44719E-09  2.40599E-09  2.36193E-09  2.31494E-09  2.26490E-09
   2.21173E-09  2.15533E-09  2.09560E-09  2.03246E-09  1.96581E-09  1.89555E-09  1.82160E-09  1.74387E-09  1.66229E-09  1.57676E-09
   1.48725E-09  1.39369E-09  1.29614E-09  1.19467E-09  1.08971E-09  9.82607E-10  8.79721E-10  7.97945E-10  7.26550E-10  6.57865E-10
   5.83592E-10  4.89185E-10  3.61060E-10  1.97669E-10  9.88881E-12 -1.87455E-10 -3.88166E-10 -5.92817E-10 -7.90202E-10 -9.55286E-10
  -1.11177E-09 -1.26471E-09 -1.41513E-09 -1.56312E-09 -1.70851E-09 -1.85099E-09 -1.99020E-09 -2.12576E-09 -2.25723E-09 -2.38420E-09
  -2.50626E-09 -2.62297E-09 -2.73388E-09 -2.83855E-09 -2.93656E-09 -3.02747E-09 -3.11095E-09 -3.18713E-09 -3.25622E-09 -3.31840E-09
  -3.37387E-09 -3.42284E-09 -3.46550E-09 -3.50206E-09 -3.53270E-09 -3.55763E-09 -3.57704E-09 -3.59114E-09 -3.60011E-09 -3.60416E-09
  -3.60349E-09 -3.59829E-09 -3.58876E-09 -3.57510E-09 -3.55750E-09 -3.53616E-09 -3.51129E-09 -3.48307E-09 -3.45170E-09 -3.41738E-09
  -3.38032E-09 -3.34069E-09 -3.29871E-09 -3.25458E-09 -3.20846E-09 -3.16052E-09 -3.11090E-09 -3.05974E-09 -3.00720E-09 -2.95342E-09
  -2.89855E-09 -2.84273E-09 -2.78612E-09 -2.72886E-09 -2.67109E-09 -2.61298E-09 -2.55465E-09 -2.49626E-09 -2.43795E-09 -2.37989E-09
  -2.32220E-09 -2.26504E-09 -2.20855E-09 -2.15289E-09 -2.09819E-09 -2.04461E-09 -1.99229E-09 -1.94138E-09 -1.89203E-09 -1.84438E-09
  -1.79858E-09 -1.75478E-09 -1.71304E-09 -1.67328E-09 -1.63547E-09 -1.59952E-09 -1.56537E-09 -1.53295E-09 -1.50221E-09 -1.47307E-09
  -1.44547E-09 -1.41934E-09 -1.39462E-09 -1.37124E-09 -1.34914E-09 -1.32826E-09 -1.30851E-09 -1.28985E-09 -1.27221E-09 -1.25551E-09
  -1.23970E-09 -1.22471E-09 -1.21046E-09 -1.19691E-09 -1.18398E-09 -1.17160E-09 -1.15972E-09 -1.14827E-09 -1.13717E-09 -1.12637E-09
  -1.11582E-09 -1.10549E-09 -1.09536E-09 -1.08538E-09 -1.07555E-09 -1.06582E-09 -1.05617E-09 -1.04656E-09 -1.03698E-09 -1.02739E-09
  -1.01777E-09 -1.00808E-09 -9.98300E-10 -9.88397E-10 -9.78346E-10 -9.68115E-10 -9.57678E-10 -9.47004E-10 -9.36070E-10 -9.24838E-10
  -9.13290E-10 -9.01391E-10 -8.89112E-10 -8.76431E-10 -8.63313E-10 -8.49732E-10 -8.35661E-10 -8.21069E-10 -8.05968E-10 -7.90385E-10
  -7.74347E-10 -7.57882E-10 -7.41017E-10 -7.23778E-10 -7.06194E-10 -6.88292E-10 -6.70099E-10 -6.51643E-10 -6.32952E-10 -6.14051E-10
  -5.94972E-10 -5.75737E-10 -5.56376E-10 -5.36919E-10 -5.17388E-10 -4.97816E-10 -4.78227E-10 -4.58647E-10 -4.39107E-10 -4.19635E-10
  -4.00254E-10 -3.80994E-10 -3.61882E-10 -3.42946E-10 -3.24214E-10 -3.05707E-10 -2.87426E-10 -2.69361E-10 -2.51500E-10 -2.33834E-10
  -2.16352E-10 -1.99042E-10 -1.81895E-10 -1.64900E-10 -1.48049E-10 -1.31326E-10 -1.14726E-10 -9.82363E-11 -8.18463E-11 -6.55452E-11
  -4.93217E-11 -3.31682E-11 -1.70717E-11 -1.02293E-12  1.49895E-11  3.09746E-11  4.69442E-11  6.29096E-11  7.88798E-11  9.48642E-11
   1.10875E-10  1.26922E-10  1.43018E-10
 Asp      Conc. = 7.24E-10
   1.27293E-09  1.17469E-09  1.06411E-09  9.53957E-10  8.56129E-10  7.63442E-10  6.97130E-10  6.42893E-10  6.22837E-10  6.16731E-10
   6.17530E-10  6.22260E-10  6.29508E-10  6.38492E-10  6.48398E-10  6.58852E-10  6.69861E-10  6.81356E-10  6.93276E-10  7.05575E-10
   7.18226E-10  7.31217E-10  7.44546E-10  7.58227E-10  7.72288E-10  7.86770E-10  8.01736E-10  8.17270E-10  8.33494E-10  8.50581E-10
   8.68791E-10  8.88497E-10  9.10265E-10  9.35006E-10  9.64345E-10  1.00168E-09  1.05542E-09  1.12210E-09  1.20462E-09  1.28594E-09
   1.35164E-09  1.39384E-09  1.41831E-09  1.45785E-09  1.52911E-09  1.68339E-09  1.87743E-09  2.06856E-09  2.24912E-09  2.37400E-09
   2.42251E-09  2.39645E-09  2.32280E-09  2.20785E-09  2.05627E-09  1.91175E-09  1.78225E-09  1.74148E-09  1.70678E-09  1.66268E-09
   1.64946E-09  1.65182E-09  1.64307E-09  1.63695E-09  1.63912E-09  1.63121E-09  1.60992E-09  1.60609E-09  1.61243E-09  1.62454E-09
   1.64039E-09  1.65886E-09  1.67929E-09  1.70124E-09  1.72439E-09  1.74853E-09  1.77349E-09  1.79913E-09  1.82535E-09  1.85207E-09
   1.87921E-09  1.90671E-09  1.93451E-09  1.96256E-09  1.99083E-09  2.01927E-09  2.04782E-09  2.07645E-09  2.10509E-09  2.13371E-09
   2.16227E-09  2.19073E-09  2.21903E-09  2.24715E-09  2.27505E-09  2.30268E-09  2.33000E-09  2.35699E-09  2.38360E-09  2.40980E-09
   2.43555E-09  2.46081E-09  2.48554E-09  2.50972E-09  2.53330E-09  2.55626E-09  2.57855E-09  2.60014E-09  2.62099E-09  2.64108E-09
   2.66036E-09  2.67880E-09  2.69636E-09  2.71300E-09  2.72868E-09  2.74335E-09  2.75696E-09  2.76946E-09  2.78080E-09  2.79095E-09
   2.79984E-09  2.80743E-09  2.81369E-09  2.81855E-09  2.82197E-09  2.82391E-09  2.82431E-09  2.82314E-09  2.82034E-09  2.81586E-09
   2.80967E-09  2.80170E-09  2.79193E-09  2.78029E-09  2.76675E-09  2.75125E-09  2.73375E-09  2.71421E-09  2.69257E-09  2.66880E-09
   2.64283E-09  2.61460E-09  2.58400E-09  2.55095E-09  2.51536E-09  2.47711E-09  2.43614E-09  2.39233E-09  2.34561E-09  2.29587E-09
   2.24305E-09  2.18704E-09  2.12777E-09  2.06517E-09  1.99915E-09  1.92966E-09  1.85664E-09  1.78007E-09  1.69995E-09  1.61630E-09
   1.52926E-09  1.43908E-09  1.34629E-09  1.25192E-09  1.15841E-09  1.07228E-09  1.01845E-09  1.10671E-09  1.29147E-09  1.52197E-09
   1.75079E-09  1.89460E-09  1.86435E-09  1.63403E-09  1.25510E-09  8.15761E-10  3.62218E-10 -1.11014E-10 -5.62492E-10 -8.24791E-10
  -1.01650E-09 -1.18741E-09 -1.34868E-09 -1.50391E-09 -1.65443E-09 -1.80072E-09 -1.94286E-09 -2.08072E-09 -2.21405E-09 -2.34255E-09
  -2.46587E-09 -2.58365E-09 -2.69548E-09 -2.80094E-09 -2.89963E-09 -2.99113E-09 -3.07514E-09 -3.15179E-09 -3.22129E-09 -3.28385E-09
  -3.33966E-09 -3.38894E-09 -3.43188E-09 -3.46869E-09 -3.49957E-09 -3.52471E-09 -3.54433E-09 -3.55861E-09 -3.56775E-09 -3.57196E-09
  -3.57144E-09 -3.56638E-09 -3.55698E-09 -3.54344E-09 -3.52596E-09 -3.50473E-09 -3.47996E-09 -3.45183E-09 -3.42056E-09 -3.38633E-09
  -3.34935E-09 -3.30981E-09 -3.26791E-09 -3.22384E-09 -3.17779E-09 -3.12992E-09 -3.08036E-09 -3.02927E-09 -2.97678E-09 -2.92306E-09
