 LCModel (Version 6.3-1R) Copyright: S.W. Provencher.          Ref.: Magn. Reson. Med. 30:672-679 (1993).                
 onepulse 17x11_ftSpec_smooth_lcm
 26 lines in following concentration table = NCONC+1
    Conc.  %SD /Cr+PCr  Metabolite                                         
    0.000 999%   0.000 Ala                                                 
    0.000 999%   0.000 Asp                                                 
 3.33E-10  70%   1.000 Cr                                                  
    0.000 999%   0.000 GABA                                                
    0.000 999%   0.000 Glc                                                 
 3.21E-09  17%   9.648 Gln                                                 
    0.000 999%   0.000 Glu                                                 
 6.62E-10 206%   1.989 Glyc                                                
    0.000 999%   0.000 GPC                                                 
    0.000 999%   0.000 GSH                                                 
 3.92E-10 314%   1.177 Ins                                                 
    0.000 999%   0.000 Lac                                                 
 2.29E-10 127%   0.688 NAAG                                                
 1.69E-10 216%   0.508 NAA                                                 
    0.000 999%   0.000 PCh                                                 
    0.000 999%   0.000 PCr                                                 
 1.30E-09  58%   3.891 PE                                                  
 8.17E-11 276%   0.245 Scyllo                                              
 1.03E-09  61%   3.093 Ser                                                 
 6.97E-10 110%   2.094 Tau                                                 
    0.000 999%   0.000 GPC+PCh                                             
 3.98E-10  61%   1.197 NAA+NAAG                                            
 1.05E-09  36%   3.166 Ins+Glyc                                            
 3.33E-10  70%   1.000 Cr+PCr                                              
 3.21E-09  17%   9.648 Glu+Gln                                             
   6 lines in following misc. output table
  FWHM = 0.089 ppm    S/N =   3                                            
  Data shift = 0.358 ppm                                                   
  Ph: -42 deg     -38.6 deg/ppm                                            
  alphaB,S = 3.4E-01,   2.6E+01                                            
   11 spline knots.   Ns = 5(1)                                            
  ( 9) 4 infls.   ( 9) 1 extrs.                                            
  363 points on ppm-axis = NY
      4.250000     4.238821     4.227641     4.216462     4.205282     4.194103     4.182923     4.171744     4.160564     4.149385
      4.138206     4.127026     4.115847     4.104667     4.093488     4.082308     4.071129     4.059949     4.048770     4.037591
      4.026411     4.015232     4.004052     3.992873     3.981693     3.970514     3.959334     3.948155     3.936975     3.925796
      3.914617     3.903437     3.892258     3.881078     3.869899     3.858719     3.847540     3.836360     3.825181     3.814002
      3.802822     3.791643     3.780463     3.769284     3.758104     3.746925     3.735745     3.724566     3.713387     3.702207
      3.691028     3.679848     3.668669     3.657489     3.646310     3.635130     3.623951     3.612772     3.601592     3.590413
      3.579233     3.568054     3.556874     3.545695     3.534515     3.523336     3.512156     3.500977     3.489798     3.478618
      3.467439     3.456259     3.445080     3.433900     3.422721     3.411541     3.400362     3.389183     3.378003     3.366824
      3.355644     3.344465     3.333285     3.322106     3.310926     3.299747     3.288568     3.277388     3.266209     3.255029
      3.243850     3.232670     3.221491     3.210311     3.199132     3.187953     3.176773     3.165594     3.154414     3.143235
      3.132055     3.120876     3.109696     3.098517     3.087337     3.076158     3.064979     3.053799     3.042620     3.031440
      3.020261     3.009081     2.997902     2.986722     2.975543     2.964364     2.953184     2.942005     2.930825     2.919646
      2.908466     2.897287     2.886107     2.874928     2.863749     2.852569     2.841390     2.830210     2.819031     2.807851
      2.796672     2.785492     2.774313     2.763134     2.751954     2.740775     2.729595     2.718416     2.707236     2.696057
      2.684877     2.673698     2.662519     2.651339     2.640160     2.628980     2.617801     2.606621     2.595442     2.584262
      2.573083     2.561903     2.550724     2.539545     2.528365     2.517186     2.506006     2.494827     2.483647     2.472468
      2.461288     2.450109     2.438930     2.427750     2.416571     2.405391     2.394212     2.383032     2.371853     2.360673
      2.349494     2.338315     2.327135     2.315956     2.304776     2.293597     2.282417     2.271238     2.260058     2.248879
      2.237700     2.226520     2.215341     2.204161     2.192982     2.181802     2.170623     2.159443     2.148264     2.137084
      2.125905     2.114726     2.103546     2.092367     2.081187     2.070008     2.058828     2.047649     2.036469     2.025290
      2.014111     2.002931     1.991752     1.980572     1.969393     1.958213     1.947034     1.935854     1.924675     1.913496
      1.902316     1.891137     1.879957     1.868778     1.857598     1.846419     1.835239     1.824060     1.812881     1.801701
      1.790522     1.779342     1.768163     1.756983     1.745804     1.734624     1.723445     1.712265     1.701086     1.689907
      1.678727     1.667548     1.656368     1.645189     1.634009     1.622830     1.611650     1.600471     1.589292     1.578112
      1.566933     1.555753     1.544574     1.533394     1.522215     1.511035     1.499856     1.488677     1.477497     1.466318
      1.455138     1.443959     1.432779     1.421600     1.410420     1.399241     1.388062     1.376882     1.365703     1.354523
      1.343344     1.332164     1.320985     1.309805     1.298626     1.287446     1.276267     1.265088     1.253908     1.242729
      1.231549     1.220370     1.209190     1.198011     1.186831     1.175652     1.164473     1.153293     1.142114     1.130934
      1.119755     1.108575     1.097396     1.086216     1.075037     1.063858     1.052678     1.041499     1.030319     1.019140
      1.007960     0.996781     0.985601     0.974422     0.963243     0.952063     0.940884     0.929704     0.918525     0.907345
      0.896166     0.884986     0.873807     0.862628     0.851448     0.840269     0.829089     0.817910     0.806730     0.795551
      0.784371     0.773192     0.762012     0.750833     0.739654     0.728474     0.717295     0.706115     0.694936     0.683756
      0.672577     0.661397     0.650218     0.639039     0.627859     0.616680     0.605500     0.594321     0.583141     0.571962
      0.560782     0.549603     0.538424     0.527244     0.516065     0.504885     0.493706     0.482526     0.471347     0.460167
      0.448988     0.437809     0.426629     0.415450     0.404270     0.393091     0.381911     0.370732     0.359552     0.348373
      0.337193     0.326014     0.314835     0.303655     0.292476     0.281296     0.270117     0.258937     0.247758     0.236578
      0.225399     0.214220     0.203040
 NY phased data points follow
   1.40599E-08  1.14394E-08  9.64100E-09  8.47149E-09  8.39914E-09  6.86213E-09  8.12379E-09  7.34547E-09  9.07837E-09  8.21352E-09
   9.89135E-09  9.07341E-09  9.32785E-09  9.08590E-09  1.01452E-08  8.77021E-09  8.88155E-09  7.91763E-09  8.66751E-09  7.30833E-09
   8.71366E-09  8.04054E-09  9.04178E-09  8.15513E-09  9.71278E-09  8.79129E-09  8.64994E-09  7.39345E-09  8.05699E-09  8.28784E-09
   1.09526E-08  1.07183E-08  1.05456E-08  9.09345E-09  8.13852E-09  5.99625E-09  5.65067E-09  4.81586E-09  5.87289E-09  4.89730E-09
   5.14335E-09  5.12648E-09  5.19207E-09  4.25781E-09  4.81865E-09  3.78577E-09  3.97690E-09  3.85453E-09  4.83506E-09  4.20949E-09
   4.99391E-09  4.90534E-09  5.12069E-09  4.16336E-09  4.46650E-09  3.76236E-09  4.66420E-09  5.47293E-09  6.68764E-09  6.84921E-09
   8.33968E-09  1.05409E-08  1.36013E-08  1.40245E-08  1.32877E-08  9.92337E-09  8.64411E-09  7.26670E-09  6.44190E-09  6.18230E-09
   5.99727E-09  5.21696E-09  4.94313E-09  4.50430E-09  5.40457E-09  5.39948E-09  5.83319E-09  7.98969E-09  1.13140E-08  1.55054E-08
   1.57425E-08  1.37493E-08  1.20964E-08  1.13823E-08  9.94223E-09  9.75796E-09  8.37815E-09  8.07230E-09  7.81738E-09  7.55919E-09
   6.85350E-09  6.50545E-09  6.00361E-09  5.29408E-09  5.03512E-09  4.91958E-09  3.93809E-09  4.61704E-09  4.16551E-09  3.97599E-09
   3.81181E-09  4.75032E-09  4.47101E-09  3.96992E-09  3.34837E-09  4.15976E-09  3.63565E-09  3.54608E-09  3.13331E-09  2.46114E-09
   2.01510E-09  1.85144E-09  3.05094E-09  3.77883E-09  3.22677E-09  3.24844E-09  4.12372E-09  4.13591E-09  3.87605E-09  4.55203E-09
   4.90374E-09  4.88471E-09  3.62011E-09  3.39701E-09  2.98902E-09  2.55135E-09  2.17309E-09  3.67144E-09  3.40834E-09  3.00407E-09
   3.41160E-09  3.95847E-09  3.63530E-09  4.12686E-09  3.71341E-09  4.17985E-09  3.59968E-09  3.60200E-09  3.59542E-09  5.88367E-09
   6.06831E-09  6.74060E-09  6.01045E-09  5.51520E-09  5.51339E-09  6.79651E-09  6.78968E-09  6.97825E-09  6.73197E-09  6.49858E-09
   5.85978E-09  6.09802E-09  5.22620E-09  5.52909E-09  4.96630E-09  5.88338E-09  5.31327E-09  5.33072E-09  4.75120E-09  5.25117E-09
   4.73889E-09  5.07502E-09  5.11167E-09  5.06064E-09  3.91849E-09  4.49025E-09  3.79715E-09  5.45364E-09  3.73732E-09  5.80105E-09
   1.21593E-08  1.77129E-08  1.79224E-08  1.69056E-08  1.49381E-08  1.45908E-08  1.36064E-08  1.17948E-08  1.04268E-08  9.78580E-09
   9.05429E-09  7.86495E-09  7.01979E-09  5.86966E-09  3.77847E-09  3.17477E-09  1.16105E-09 -4.46744E-11 -2.29106E-09 -3.94399E-09
  -6.12948E-09 -7.60040E-09 -9.03496E-09 -9.99810E-09 -1.16294E-08 -1.26988E-08 -1.32400E-08 -1.36834E-08 -1.44257E-08 -1.34921E-08
  -1.32255E-08 -1.21351E-08 -1.20723E-08 -9.93190E-09 -9.07141E-09 -7.80126E-09 -7.21674E-09 -5.95820E-09 -4.87271E-09 -4.05278E-09
  -3.24718E-09 -2.55574E-09 -3.57557E-09 -2.44720E-09 -3.23393E-09 -2.52034E-09 -3.20780E-09 -2.59275E-09 -2.90753E-09 -2.93295E-09
  -2.84100E-09 -2.13953E-09 -2.24061E-09 -2.03448E-09 -1.60296E-09 -1.46897E-09 -2.33796E-09 -2.27627E-09 -2.82640E-09 -1.99719E-09
  -2.06643E-09 -1.98824E-09 -1.76860E-09 -1.80808E-09 -2.54840E-09 -1.14291E-09 -1.98052E-09 -1.43680E-09 -1.29250E-09 -2.02947E-09
  -2.55546E-09 -1.76401E-09 -2.24485E-09 -2.16424E-09 -2.78263E-09 -2.20232E-09 -2.10366E-09 -1.21601E-09 -2.06698E-09 -1.61684E-09
  -1.33394E-09 -1.11649E-09 -1.07597E-09 -8.81843E-10 -1.22217E-09 -8.65306E-10 -1.22684E-09 -8.85821E-10 -1.49772E-09 -8.60999E-10
  -2.46549E-09 -2.10946E-09 -2.53251E-09 -2.57108E-09 -3.14397E-09 -2.85795E-09 -3.26947E-09 -3.10457E-09 -3.06523E-09 -2.54835E-09
  -2.66312E-09 -2.11176E-09 -1.85574E-09 -1.45770E-09 -7.77742E-10 -8.85776E-10 -8.86757E-10 -7.57613E-10 -8.05410E-10 -4.62637E-10
  -9.25580E-10 -1.07175E-10 -5.36262E-10 -7.22123E-10 -8.14502E-10 -5.64161E-10 -6.67949E-10 -7.01574E-10 -1.63667E-09 -8.35058E-10
  -8.88392E-10 -1.62794E-09 -1.69074E-09 -1.13120E-09 -1.25526E-09 -1.71324E-09 -1.19056E-09 -1.61039E-09 -1.92441E-09 -1.86940E-09
  -2.23041E-09 -2.02692E-09 -2.60816E-09 -2.24383E-09 -2.41554E-09 -2.65751E-09 -2.70226E-09 -2.56869E-09 -3.07422E-09 -2.67391E-09
  -2.82723E-09 -2.86764E-09 -3.43084E-09 -2.56953E-09 -3.19480E-09 -3.17077E-09 -3.35995E-09 -3.17347E-09 -3.20715E-09 -3.18872E-09
  -3.53160E-09 -3.58594E-09 -3.45916E-09 -3.71832E-09 -3.87659E-09 -3.40236E-09 -3.70424E-09 -3.34845E-09 -3.90466E-09 -3.86043E-09
  -3.22920E-09 -3.93906E-09 -3.93824E-09 -3.72871E-09 -4.00492E-09 -3.92353E-09 -3.72808E-09 -4.10314E-09 -4.26733E-09 -3.90907E-09
  -3.91353E-09 -4.20391E-09 -4.39783E-09 -4.34404E-09 -4.22621E-09 -4.48707E-09 -4.12464E-09 -4.69916E-09 -4.84105E-09 -4.30732E-09
  -4.15919E-09 -4.91964E-09 -4.20382E-09 -4.40483E-09 -4.18338E-09 -4.52042E-09 -4.38111E-09 -4.75677E-09 -4.49399E-09 -4.79014E-09
  -4.22976E-09 -4.65325E-09 -4.33675E-09
 NY points of the fit to the data follow
   1.16982E-08  1.07205E-08  9.84335E-09  9.45299E-09  9.43972E-09  9.33870E-09  9.01759E-09  8.61788E-09  8.39727E-09  8.40969E-09
   8.38534E-09  8.55046E-09  9.13728E-09  9.16480E-09  9.07538E-09  8.99089E-09  9.12251E-09  9.18614E-09  8.61474E-09  7.55007E-09
   7.23686E-09  7.38829E-09  7.62085E-09  7.98453E-09  8.48248E-09  9.05113E-09  9.64927E-09  9.93909E-09  1.00902E-08  1.00976E-08
   9.85241E-09  9.16284E-09  8.28364E-09  7.52111E-09  7.08049E-09  6.72715E-09  6.34086E-09  5.97106E-09  5.73886E-09  5.59931E-09
   5.44840E-09  5.07103E-09  4.40947E-09  3.91068E-09  3.82959E-09  3.83962E-09  3.87762E-09  3.92339E-09  3.98299E-09  4.05710E-09
   4.15438E-09  4.28041E-09  4.45187E-09  4.66271E-09  4.98440E-09  5.46399E-09  6.09128E-09  6.97994E-09  8.04198E-09  8.96513E-09
   9.82697E-09  1.07122E-08  1.13501E-08  1.14914E-08  1.10845E-08  1.02318E-08  9.34290E-09  8.67706E-09  7.47038E-09  6.21814E-09
   5.84158E-09  5.79595E-09  5.68764E-09  5.98739E-09  6.65837E-09  7.55108E-09  8.45897E-09  9.50951E-09  1.07018E-08  1.18336E-08
   1.26873E-08  1.30013E-08  1.25596E-08  1.20095E-08  1.14707E-08  1.02828E-08  8.75844E-09  7.58218E-09  6.45412E-09  5.74500E-09
   5.36459E-09  5.13138E-09  4.97075E-09  4.85534E-09  4.76058E-09  4.68876E-09  4.63857E-09  4.60040E-09  4.56643E-09  4.53403E-09
   4.51648E-09  4.50731E-09  4.49733E-09  4.48840E-09  4.48352E-09  4.48167E-09  4.48145E-09  4.48228E-09  4.48350E-09  4.48490E-09
   4.48619E-09  4.48712E-09  4.48745E-09  4.48697E-09  4.48547E-09  4.48278E-09  4.47875E-09  4.47320E-09  4.46601E-09  4.45702E-09
   4.44611E-09  4.43316E-09  4.41803E-09  4.40061E-09  4.38079E-09  4.35845E-09  4.33349E-09  4.30580E-09  4.27527E-09  4.24179E-09
   4.20528E-09  4.16563E-09  4.12275E-09  4.07654E-09  4.02689E-09  3.97374E-09  3.91698E-09  3.85658E-09  3.79267E-09  3.72539E-09
   3.65486E-09  3.58122E-09  3.50461E-09  3.42518E-09  3.34308E-09  3.25847E-09  3.17151E-09  3.08236E-09  2.99123E-09  2.89829E-09
   2.80379E-09  2.70794E-09  2.61103E-09  2.51337E-09  2.41534E-09  2.31740E-09  2.22010E-09  2.12418E-09  2.03062E-09  1.94077E-09
   1.85662E-09  1.78118E-09  1.71936E-09  1.67991E-09  1.68029E-09  1.76303E-09  2.07639E-09  3.13486E-09  4.90988E-09  8.04048E-09
   1.23247E-08  1.60565E-08  1.77545E-08  1.77065E-08  1.71234E-08  1.65451E-08  1.48433E-08  1.04801E-08  4.27922E-09  1.38744E-09
   4.56779E-10 -1.42477E-11 -3.19735E-10 -5.47591E-10 -7.32763E-10 -8.91773E-10 -1.03338E-09 -1.16265E-09 -1.28268E-09 -1.39547E-09
  -1.50233E-09 -1.60420E-09 -1.70170E-09 -1.79531E-09 -1.88538E-09 -1.97215E-09 -2.05580E-09 -2.13648E-09 -2.21428E-09 -2.28930E-09
  -2.36159E-09 -2.43118E-09 -2.49811E-09 -2.56240E-09 -2.62405E-09 -2.68308E-09 -2.73949E-09 -2.79327E-09 -2.84441E-09 -2.89290E-09
  -2.93873E-09 -2.98188E-09 -3.02235E-09 -3.06011E-09 -3.09513E-09 -3.12740E-09 -3.15690E-09 -3.18361E-09 -3.20749E-09 -3.22853E-09
  -3.24672E-09 -3.26201E-09 -3.27437E-09 -3.28382E-09 -3.29029E-09 -3.29376E-09 -3.29423E-09 -3.29166E-09 -3.28613E-09 -3.27777E-09
  -3.26668E-09 -3.25300E-09 -3.23684E-09 -3.21832E-09 -3.19756E-09 -3.17469E-09 -3.14982E-09 -3.12307E-09 -3.09456E-09 -3.06442E-09
  -3.03276E-09 -2.99971E-09 -2.96537E-09 -2.92987E-09 -2.89333E-09 -2.85588E-09 -2.81762E-09 -2.77868E-09 -2.73918E-09 -2.69923E-09
  -2.65896E-09 -2.61849E-09 -2.57793E-09 -2.53741E-09 -2.49704E-09 -2.45694E-09 -2.41724E-09 -2.37804E-09 -2.33948E-09 -2.30166E-09
  -2.26472E-09 -2.22876E-09 -2.19391E-09 -2.16028E-09 -2.12800E-09 -2.09718E-09 -2.06795E-09 -2.04042E-09 -2.01471E-09 -1.99094E-09
  -1.96923E-09 -1.94970E-09 -1.93246E-09 -1.91755E-09 -1.90493E-09 -1.89455E-09 -1.88636E-09 -1.88032E-09 -1.87638E-09 -1.87448E-09
  -1.87460E-09 -1.87667E-09 -1.88066E-09 -1.88651E-09 -1.89418E-09 -1.90362E-09 -1.91478E-09 -1.92762E-09 -1.94209E-09 -1.95814E-09
  -1.97573E-09 -1.99481E-09 -2.01533E-09 -2.03725E-09 -2.06051E-09 -2.08507E-09 -2.11090E-09 -2.13793E-09 -2.16612E-09 -2.19542E-09
  -2.22579E-09 -2.25719E-09 -2.28955E-09 -2.32283E-09 -2.35700E-09 -2.39201E-09 -2.42779E-09 -2.46432E-09 -2.50152E-09 -2.53939E-09
  -2.57785E-09 -2.61685E-09 -2.65636E-09 -2.69634E-09 -2.73672E-09 -2.77745E-09 -2.81851E-09 -2.85981E-09 -2.90137E-09 -2.94315E-09
  -2.98515E-09 -3.02736E-09 -3.06976E-09 -3.11235E-09 -3.15512E-09 -3.19807E-09 -3.24119E-09 -3.28446E-09 -3.32788E-09 -3.37144E-09
  -3.41513E-09 -3.45895E-09 -3.50288E-09 -3.54692E-09 -3.59107E-09 -3.63530E-09 -3.67962E-09 -3.72401E-09 -3.76847E-09 -3.81298E-09
  -3.85755E-09 -3.90216E-09 -3.94680E-09 -3.99146E-09 -4.03615E-09 -4.08084E-09 -4.12554E-09 -4.17022E-09 -4.21490E-09 -4.25954E-09
  -4.30416E-09 -4.34873E-09 -4.39326E-09 -4.43773E-09 -4.48214E-09 -4.52646E-09 -4.57071E-09 -4.61488E-09 -4.65893E-09 -4.70289E-09
  -4.74673E-09 -4.79044E-09 -4.83402E-09
 NY background values follow
     1.228E-09    1.251E-09    1.274E-09    1.297E-09    1.321E-09    1.344E-09    1.367E-09    1.390E-09    1.413E-09    1.437E-09
     1.460E-09    1.483E-09    1.506E-09    1.530E-09    1.553E-09    1.576E-09    1.599E-09    1.622E-09    1.646E-09    1.669E-09
     1.692E-09    1.715E-09    1.738E-09    1.761E-09    1.784E-09    1.807E-09    1.830E-09    1.852E-09    1.875E-09    1.898E-09
     1.921E-09    1.943E-09    1.966E-09    1.988E-09    2.010E-09    2.033E-09    2.055E-09    2.077E-09    2.099E-09    2.121E-09
     2.143E-09    2.164E-09    2.186E-09    2.207E-09    2.229E-09    2.250E-09    2.271E-09    2.292E-09    2.313E-09    2.334E-09
     2.354E-09    2.375E-09    2.396E-09    2.416E-09    2.436E-09    2.457E-09    2.477E-09    2.498E-09    2.518E-09    2.538E-09
     2.558E-09    2.579E-09    2.599E-09    2.619E-09    2.640E-09    2.660E-09    2.681E-09    2.701E-09    2.722E-09    2.743E-09
     2.763E-09    2.784E-09    2.805E-09    2.826E-09    2.847E-09    2.869E-09    2.890E-09    2.912E-09    2.934E-09    2.956E-09
     2.978E-09    3.000E-09    3.023E-09    3.045E-09    3.068E-09    3.091E-09    3.115E-09    3.138E-09    3.162E-09    3.186E-09
     3.211E-09    3.235E-09    3.260E-09    3.285E-09    3.310E-09    3.335E-09    3.360E-09    3.385E-09    3.409E-09    3.433E-09
     3.457E-09    3.479E-09    3.502E-09    3.523E-09    3.543E-09    3.563E-09    3.581E-09    3.599E-09    3.615E-09    3.630E-09
     3.643E-09    3.655E-09    3.665E-09    3.674E-09    3.680E-09    3.685E-09    3.688E-09    3.689E-09    3.688E-09    3.684E-09
     3.678E-09    3.670E-09    3.659E-09    3.646E-09    3.630E-09    3.611E-09    3.589E-09    3.564E-09    3.536E-09    3.505E-09
     3.471E-09    3.433E-09    3.392E-09    3.348E-09    3.299E-09    3.247E-09    3.192E-09    3.132E-09    3.069E-09    3.002E-09
     2.932E-09    2.858E-09    2.781E-09    2.701E-09    2.618E-09    2.532E-09    2.444E-09    2.353E-09    2.259E-09    2.163E-09
     2.065E-09    1.964E-09    1.862E-09    1.758E-09    1.652E-09    1.545E-09    1.436E-09    1.325E-09    1.214E-09    1.101E-09
     9.873E-10    8.727E-10    7.574E-10    6.414E-10    5.250E-10    4.082E-10    2.912E-10    1.740E-10    5.683E-11   -6.021E-11
    -1.770E-10   -2.934E-10   -4.094E-10   -5.247E-10   -6.393E-10   -7.530E-10   -8.657E-10   -9.773E-10   -1.088E-09   -1.197E-09
    -1.304E-09   -1.410E-09   -1.514E-09   -1.617E-09   -1.717E-09   -1.816E-09   -1.913E-09   -2.008E-09   -2.101E-09   -2.193E-09
    -2.282E-09   -2.369E-09   -2.454E-09   -2.538E-09   -2.619E-09   -2.698E-09   -2.775E-09   -2.849E-09   -2.922E-09   -2.992E-09
    -3.060E-09   -3.126E-09   -3.190E-09   -3.251E-09   -3.310E-09   -3.366E-09   -3.420E-09   -3.472E-09   -3.521E-09   -3.568E-09
    -3.612E-09   -3.653E-09   -3.692E-09   -3.728E-09   -3.762E-09   -3.793E-09   -3.821E-09   -3.847E-09   -3.870E-09   -3.890E-09
    -3.907E-09   -3.921E-09   -3.933E-09   -3.941E-09   -3.947E-09   -3.950E-09   -3.949E-09   -3.946E-09   -3.940E-09   -3.931E-09
    -3.919E-09   -3.905E-09   -3.888E-09   -3.869E-09   -3.847E-09   -3.824E-09   -3.799E-09   -3.771E-09   -3.742E-09   -3.712E-09
    -3.679E-09   -3.646E-09   -3.611E-09   -3.575E-09   -3.538E-09   -3.500E-09   -3.462E-09   -3.422E-09   -3.382E-09   -3.342E-09
    -3.301E-09   -3.260E-09   -3.219E-09   -3.179E-09   -3.138E-09   -3.097E-09   -3.057E-09   -3.018E-09   -2.979E-09   -2.941E-09
    -2.903E-09   -2.867E-09   -2.832E-09   -2.798E-09   -2.765E-09   -2.734E-09   -2.705E-09   -2.677E-09   -2.651E-09   -2.627E-09
    -2.605E-09   -2.585E-09   -2.567E-09   -2.552E-09   -2.539E-09   -2.528E-09   -2.520E-09   -2.513E-09   -2.509E-09   -2.507E-09
    -2.507E-09   -2.509E-09   -2.512E-09   -2.518E-09   -2.525E-09   -2.534E-09   -2.545E-09   -2.558E-09   -2.572E-09   -2.588E-09
    -2.605E-09   -2.624E-09   -2.644E-09   -2.666E-09   -2.689E-09   -2.713E-09   -2.739E-09   -2.765E-09   -2.793E-09   -2.822E-09
    -2.852E-09   -2.884E-09   -2.916E-09   -2.949E-09   -2.983E-09   -3.017E-09   -3.053E-09   -3.089E-09   -3.126E-09   -3.164E-09
    -3.202E-09   -3.241E-09   -3.280E-09   -3.319E-09   -3.360E-09   -3.400E-09   -3.441E-09   -3.482E-09   -3.523E-09   -3.565E-09
    -3.606E-09   -3.648E-09   -3.690E-09   -3.733E-09   -3.775E-09   -3.818E-09   -3.861E-09   -3.904E-09   -3.947E-09   -3.990E-09
    -4.034E-09   -4.077E-09   -4.121E-09   -4.165E-09   -4.208E-09   -4.252E-09   -4.296E-09   -4.340E-09   -4.385E-09   -4.429E-09
    -4.473E-09   -4.517E-09   -4.562E-09   -4.606E-09   -4.651E-09   -4.695E-09   -4.739E-09   -4.784E-09   -4.828E-09   -4.872E-09
    -4.917E-09   -4.961E-09   -5.005E-09   -5.049E-09   -5.094E-09   -5.138E-09   -5.181E-09   -5.225E-09   -5.269E-09   -5.313E-09
    -5.356E-09   -5.400E-09   -5.443E-09
 Cr       Conc. = 3.33E-10
   2.64737E-09  2.50680E-09  2.11720E-09  1.61249E-09  1.48833E-09  1.46050E-09  1.45905E-09  1.46814E-09  1.48241E-09  1.49960E-09
   1.51860E-09  1.53879E-09  1.55981E-09  1.58143E-09  1.60352E-09  1.62599E-09  1.64878E-09  1.67185E-09  1.69519E-09  1.71880E-09
   1.74272E-09  1.76698E-09  1.79166E-09  1.81688E-09  1.84281E-09  1.86976E-09  1.89818E-09  1.92892E-09  1.96356E-09  2.00565E-09
   2.06549E-09  2.18963E-09  2.40694E-09  2.74883E-09  3.26136E-09  3.80083E-09  4.14783E-09  4.24566E-09  4.22016E-09  4.18828E-09
   4.09448E-09  3.74131E-09  3.07411E-09  2.54910E-09  2.42801E-09  2.39125E-09  2.38186E-09  2.38437E-09  2.39304E-09  2.40525E-09
   2.41965E-09  2.43548E-09  2.45230E-09  2.46981E-09  2.48782E-09  2.50621E-09  2.52489E-09  2.54381E-09  2.56291E-09  2.58216E-09
   2.60156E-09  2.62107E-09  2.64069E-09  2.66042E-09  2.68025E-09  2.70017E-09  2.72021E-09  2.74034E-09  2.76058E-09  2.78093E-09
   2.80140E-09  2.82199E-09  2.84271E-09  2.86356E-09  2.88455E-09  2.90569E-09  2.92698E-09  2.94844E-09  2.97006E-09  2.99187E-09
   3.01386E-09  3.03604E-09  3.05842E-09  3.08101E-09  3.10382E-09  3.12685E-09  3.15012E-09  3.17364E-09  3.19740E-09  3.22142E-09
   3.24571E-09  3.27028E-09  3.29508E-09  3.32002E-09  3.34501E-09  3.36996E-09  3.39478E-09  3.41937E-09  3.44365E-09  3.46752E-09
   3.49089E-09  3.51366E-09  3.53576E-09  3.55708E-09  3.57753E-09  3.59702E-09  3.61546E-09  3.63276E-09  3.64882E-09  3.66356E-09
   3.67688E-09  3.68869E-09  3.69890E-09  3.70742E-09  3.71415E-09  3.71900E-09  3.72189E-09  3.72272E-09  3.72140E-09  3.71783E-09
   3.71193E-09  3.70360E-09  3.69276E-09  3.67930E-09  3.66314E-09  3.64419E-09  3.62236E-09  3.59755E-09  3.56967E-09  3.53863E-09
   3.50434E-09  3.46671E-09  3.42564E-09  3.38105E-09  3.33284E-09  3.28093E-09  3.22522E-09  3.16568E-09  3.10243E-09  3.03559E-09
   2.96528E-09  2.89164E-09  2.81479E-09  2.73484E-09  2.65193E-09  2.56617E-09  2.47771E-09  2.38665E-09  2.29314E-09  2.19728E-09
   2.09923E-09  1.99908E-09  1.89700E-09  1.79309E-09  1.68750E-09  1.58037E-09  1.47183E-09  1.36203E-09  1.25115E-09  1.13934E-09
   1.02683E-09  9.13849E-10  8.00754E-10  6.88075E-10  5.76796E-10  4.69288E-10  3.74578E-10  3.15792E-10  2.87376E-10  3.23707E-10
   3.98163E-10  4.27189E-10  3.61836E-10  2.35371E-10  1.01020E-10 -3.35653E-11 -2.33523E-10 -5.55566E-10 -9.20555E-10 -1.09750E-09
  -1.22964E-09 -1.34778E-09 -1.45917E-09 -1.56626E-09 -1.67014E-09 -1.77132E-09 -1.87007E-09 -1.96655E-09 -2.06084E-09 -2.15299E-09
  -2.24301E-09 -2.33093E-09 -2.41673E-09 -2.50041E-09 -2.58195E-09 -2.66134E-09 -2.73855E-09 -2.81357E-09 -2.88637E-09 -2.95693E-09
  -3.02522E-09 -3.09122E-09 -3.15489E-09 -3.21622E-09 -3.27518E-09 -3.33174E-09 -3.38587E-09 -3.43755E-09 -3.48675E-09 -3.53344E-09
  -3.57759E-09 -3.61917E-09 -3.65817E-09 -3.69455E-09 -3.72827E-09 -3.75931E-09 -3.78766E-09 -3.81327E-09 -3.83611E-09 -3.85617E-09
  -3.87341E-09 -3.88780E-09 -3.89931E-09 -3.90793E-09 -3.91362E-09 -3.91633E-09 -3.91608E-09 -3.91281E-09 -3.90661E-09 -3.89759E-09
  -3.88588E-09 -3.87159E-09 -3.85484E-09 -3.83575E-09 -3.81444E-09 -3.79103E-09 -3.76564E-09 -3.73838E-09 -3.70938E-09 -3.67876E-09
  -3.64663E-09 -3.61311E-09 -3.57832E-09 -3.54239E-09 -3.50542E-09 -3.46755E-09 -3.42887E-09 -3.38953E-09 -3.34963E-09 -3.30930E-09
  -3.26865E-09 -3.22780E-09 -3.18687E-09 -3.14598E-09 -3.10525E-09 -3.06481E-09 -3.02475E-09 -2.98521E-09 -2.94631E-09 -2.90816E-09
  -2.87089E-09 -2.83460E-09 -2.79943E-09 -2.76548E-09 -2.73289E-09 -2.70176E-09 -2.67222E-09 -2.64438E-09 -2.61837E-09 -2.59429E-09
  -2.57229E-09 -2.55246E-09 -2.53493E-09 -2.51973E-09 -2.50682E-09 -2.49615E-09 -2.48768E-09 -2.48136E-09 -2.47714E-09 -2.47496E-09
  -2.47481E-09 -2.47660E-09 -2.48031E-09 -2.48589E-09 -2.49329E-09 -2.50245E-09 -2.51335E-09 -2.52592E-09 -2.54012E-09 -2.55591E-09
  -2.57323E-09 -2.59204E-09 -2.61230E-09 -2.63396E-09 -2.65696E-09 -2.68126E-09 -2.70682E-09 -2.73359E-09 -2.76152E-09 -2.79056E-09
  -2.82067E-09 -2.85180E-09 -2.88391E-09 -2.91693E-09 -2.95084E-09 -2.98559E-09 -3.02111E-09 -3.05738E-09 -3.09433E-09 -3.13194E-09
  -3.17014E-09 -3.20888E-09 -3.24813E-09 -3.28785E-09 -3.32797E-09 -3.36844E-09 -3.40924E-09 -3.45029E-09 -3.49158E-09 -3.53310E-09
  -3.57484E-09 -3.61678E-09 -3.65892E-09 -3.70125E-09 -3.74376E-09 -3.78645E-09 -3.82930E-09 -3.87230E-09 -3.91546E-09 -3.95875E-09
  -4.00218E-09 -4.04573E-09 -4.08940E-09 -4.13317E-09 -4.17704E-09 -4.22100E-09 -4.26505E-09 -4.30917E-09 -4.35335E-09 -4.39759E-09
  -4.44188E-09 -4.48622E-09 -4.53058E-09 -4.57497E-09 -4.61937E-09 -4.66379E-09 -4.70820E-09 -4.75260E-09 -4.79699E-09 -4.84135E-09
  -4.88568E-09 -4.92997E-09 -4.97421E-09 -5.01839E-09 -5.06250E-09 -5.10653E-09 -5.15049E-09 -5.19436E-09 -5.23811E-09 -5.28177E-09
  -5.32531E-09 -5.36872E-09 -5.41200E-09
 Gln      Conc. = 3.21E-09
   3.19272E-09  3.74878E-09  4.42634E-09  5.15922E-09  5.81249E-09  6.27140E-09  6.44179E-09  6.27776E-09  5.90373E-09  5.55282E-09
   4.81577E-09  3.95306E-09  3.53381E-09  2.90612E-09  2.57714E-09  2.42595E-09  2.34582E-09  2.30082E-09  2.27613E-09  2.26437E-09
   2.26126E-09  2.26421E-09  2.27166E-09  2.28280E-09  2.29737E-09  2.31488E-09  2.33388E-09  2.35461E-09  2.37715E-09  2.40065E-09
   2.42511E-09  2.45054E-09  2.47694E-09  2.50434E-09  2.53277E-09  2.56228E-09  2.59295E-09  2.62489E-09  2.65822E-09  2.69311E-09
   2.72979E-09  2.76853E-09  2.80986E-09  2.85429E-09  2.90245E-09  2.95523E-09  3.01349E-09  3.07830E-09  3.15196E-09  3.23712E-09
   3.33727E-09  3.46027E-09  3.61675E-09  3.82588E-09  4.13643E-09  4.61480E-09  5.24756E-09  6.14644E-09  7.21114E-09  8.15819E-09
   9.04080E-09  9.96516E-09  1.06205E-08  1.07535E-08  1.03157E-08  9.45206E-09  8.55641E-09  7.89352E-09  6.64967E-09  5.33315E-09
   4.87770E-09  4.76457E-09  4.58026E-09  4.79053E-09  5.36672E-09  6.17185E-09  6.97032E-09  7.79044E-09  8.58473E-09  9.20983E-09
   9.62174E-09  9.74326E-09  9.33514E-09  8.84791E-09  8.40369E-09  7.48251E-09  6.53885E-09  6.07287E-09  5.47156E-09  4.96226E-09
   4.67067E-09  4.48470E-09  4.36046E-09  4.27473E-09  4.21132E-09  4.16505E-09  4.13224E-09  4.10870E-09  4.09249E-09  4.08256E-09
   4.07699E-09  4.07421E-09  4.07371E-09  4.07504E-09  4.07794E-09  4.08207E-09  4.08670E-09  4.09154E-09  4.09635E-09  4.10088E-09
   4.10491E-09  4.10824E-09  4.11070E-09  4.11211E-09  4.11231E-09  4.11114E-09  4.10847E-09  4.10416E-09  4.09808E-09  4.09009E-09
   4.08009E-09  4.06794E-09  4.05355E-09  4.03678E-09  4.01753E-09  3.99570E-09  3.97118E-09  3.94387E-09  3.91365E-09  3.88043E-09
   3.84411E-09  3.80459E-09  3.76177E-09  3.71556E-09  3.66585E-09  3.61256E-09  3.55558E-09  3.49490E-09  3.43062E-09  3.36287E-09
   3.29177E-09  3.21745E-09  3.14004E-09  3.05967E-09  2.97648E-09  2.89060E-09  2.80216E-09  2.71130E-09  2.61819E-09  2.52295E-09
   2.42576E-09  2.32678E-09  2.22620E-09  2.12419E-09  2.02099E-09  1.91685E-09  1.81204E-09  1.70692E-09  1.60191E-09  1.49759E-09
   1.39476E-09  1.29451E-09  1.19864E-09  1.11009E-09  1.03444E-09  9.83937E-10  9.94224E-10  1.22566E-09  1.74908E-09  2.69313E-09
   4.17099E-09  5.68767E-09  6.55749E-09  6.64651E-09  6.37063E-09  6.08167E-09  5.56014E-09  4.17496E-09  1.81798E-09  6.79420E-11
  -4.75856E-10 -7.61580E-10 -9.60814E-10 -1.12090E-09 -1.25968E-09 -1.38530E-09 -1.50195E-09 -1.61201E-09 -1.71687E-09 -1.81745E-09
  -1.91433E-09 -2.00791E-09 -2.09844E-09 -2.18614E-09 -2.27113E-09 -2.35350E-09 -2.43332E-09 -2.51063E-09 -2.58546E-09 -2.65783E-09
  -2.72775E-09 -2.79522E-09 -2.86023E-09 -2.92277E-09 -2.98284E-09 -3.04043E-09 -3.09550E-09 -3.14806E-09 -3.19808E-09 -3.24552E-09
  -3.29038E-09 -3.33263E-09 -3.37225E-09 -3.40923E-09 -3.44351E-09 -3.47508E-09 -3.50393E-09 -3.53002E-09 -3.55332E-09 -3.57381E-09
  -3.59148E-09 -3.60626E-09 -3.61816E-09 -3.62714E-09 -3.63319E-09 -3.63624E-09 -3.63631E-09 -3.63337E-09 -3.62747E-09 -3.61875E-09
