 LCModel (Version 6.3-1R) Copyright: S.W. Provencher.          Ref.: Magn. Reson. Med. 30:672-679 (1993).                
 onepulse 17x10_ftSpec_smooth_lcm
 26 lines in following concentration table = NCONC+1
    Conc.  %SD /Cr+PCr  Metabolite                                         
 2.72E-10  98%  56.027 Ala                                                 
 1.93E-09  32% 398.857 Asp                                                 
    0.000 999%   0.000 Cr                                                  
 1.22E-09  42% 252.258 GABA                                                
 2.01E-09  45% 413.623 Glc                                                 
 1.39E-09  49% 286.469 Gln                                                 
    0.000 999%   0.000 Glu                                                 
    0.000 999%   0.000 Glyc                                                
    0.000 999%   0.000 GPC                                                 
 3.80E-10 145%  78.317 GSH                                                 
 1.10E-09  36% 225.805 Ins                                                 
    0.000 999%   0.000 Lac                                                 
 8.45E-10  24% 174.203 NAAG                                                
    0.000 999%   0.000 NAA                                                 
    0.000 999%   0.000 PCh                                                 
 4.85E-12 999%   1.000 PCr                                                 
 2.56E-09  31% 528.631 PE                                                  
    0.000 999%   0.000 Scyllo                                              
    0.000 999%   0.000 Ser                                                 
 2.13E-10 368%  43.924 Tau                                                 
    0.000 999%   0.000 GPC+PCh                                             
 8.45E-10  24% 174.203 NAA+NAAG                                            
 1.10E-09  36% 225.805 Ins+Glyc                                            
 4.85E-12 999%   1.000 Cr+PCr                                              
 1.39E-09  49% 286.469 Glu+Gln                                             
   6 lines in following misc. output table
  FWHM = 0.123 ppm    S/N =   4                                            
  Data shift = 0.470 ppm                                                   
  Ph:  36 deg     -37.8 deg/ppm                                            
  alphaB,S = 7.6E-01,   1.0E+01                                            
   10 spline knots.   Ns = 5(1)                                            
  (11) 6 infls.   (11) 5 extrs.                                            
  363 points on ppm-axis = NY
      4.250000     4.238821     4.227641     4.216462     4.205282     4.194103     4.182923     4.171744     4.160564     4.149385
      4.138206     4.127026     4.115847     4.104667     4.093488     4.082308     4.071129     4.059949     4.048770     4.037591
      4.026411     4.015232     4.004052     3.992873     3.981693     3.970514     3.959334     3.948155     3.936975     3.925796
      3.914617     3.903437     3.892258     3.881078     3.869899     3.858719     3.847540     3.836360     3.825181     3.814002
      3.802822     3.791643     3.780463     3.769284     3.758104     3.746925     3.735745     3.724566     3.713387     3.702207
      3.691028     3.679848     3.668669     3.657489     3.646310     3.635130     3.623951     3.612772     3.601592     3.590413
      3.579233     3.568054     3.556874     3.545695     3.534515     3.523336     3.512156     3.500977     3.489798     3.478618
      3.467439     3.456259     3.445080     3.433900     3.422721     3.411541     3.400362     3.389183     3.378003     3.366824
      3.355644     3.344465     3.333285     3.322106     3.310926     3.299747     3.288568     3.277388     3.266209     3.255029
      3.243850     3.232670     3.221491     3.210311     3.199132     3.187953     3.176773     3.165594     3.154414     3.143235
      3.132055     3.120876     3.109696     3.098517     3.087337     3.076158     3.064979     3.053799     3.042620     3.031440
      3.020261     3.009081     2.997902     2.986722     2.975543     2.964364     2.953184     2.942005     2.930825     2.919646
      2.908466     2.897287     2.886107     2.874928     2.863749     2.852569     2.841390     2.830210     2.819031     2.807851
      2.796672     2.785492     2.774313     2.763134     2.751954     2.740775     2.729595     2.718416     2.707236     2.696057
      2.684877     2.673698     2.662519     2.651339     2.640160     2.628980     2.617801     2.606621     2.595442     2.584262
      2.573083     2.561903     2.550724     2.539545     2.528365     2.517186     2.506006     2.494827     2.483647     2.472468
      2.461288     2.450109     2.438930     2.427750     2.416571     2.405391     2.394212     2.383032     2.371853     2.360673
      2.349494     2.338315     2.327135     2.315956     2.304776     2.293597     2.282417     2.271238     2.260058     2.248879
      2.237700     2.226520     2.215341     2.204161     2.192982     2.181802     2.170623     2.159443     2.148264     2.137084
      2.125905     2.114726     2.103546     2.092367     2.081187     2.070008     2.058828     2.047649     2.036469     2.025290
      2.014111     2.002931     1.991752     1.980572     1.969393     1.958213     1.947034     1.935854     1.924675     1.913496
      1.902316     1.891137     1.879957     1.868778     1.857598     1.846419     1.835239     1.824060     1.812881     1.801701
      1.790522     1.779342     1.768163     1.756983     1.745804     1.734624     1.723445     1.712265     1.701086     1.689907
      1.678727     1.667548     1.656368     1.645189     1.634009     1.622830     1.611650     1.600471     1.589292     1.578112
      1.566933     1.555753     1.544574     1.533394     1.522215     1.511035     1.499856     1.488677     1.477497     1.466318
      1.455138     1.443959     1.432779     1.421600     1.410420     1.399241     1.388062     1.376882     1.365703     1.354523
      1.343344     1.332164     1.320985     1.309805     1.298626     1.287446     1.276267     1.265088     1.253908     1.242729
      1.231549     1.220370     1.209190     1.198011     1.186831     1.175652     1.164473     1.153293     1.142114     1.130934
      1.119755     1.108575     1.097396     1.086216     1.075037     1.063858     1.052678     1.041499     1.030319     1.019140
      1.007960     0.996781     0.985601     0.974422     0.963243     0.952063     0.940884     0.929704     0.918525     0.907345
      0.896166     0.884986     0.873807     0.862628     0.851448     0.840269     0.829089     0.817910     0.806730     0.795551
      0.784371     0.773192     0.762012     0.750833     0.739654     0.728474     0.717295     0.706115     0.694936     0.683756
      0.672577     0.661397     0.650218     0.639039     0.627859     0.616680     0.605500     0.594321     0.583141     0.571962
      0.560782     0.549603     0.538424     0.527244     0.516065     0.504885     0.493706     0.482526     0.471347     0.460167
      0.448988     0.437809     0.426629     0.415450     0.404270     0.393091     0.381911     0.370732     0.359552     0.348373
      0.337193     0.326014     0.314835     0.303655     0.292476     0.281296     0.270117     0.258937     0.247758     0.236578
      0.225399     0.214220     0.203040
 NY phased data points follow
   1.24607E-08  1.33555E-08  1.29567E-08  1.32517E-08  1.38963E-08  1.42969E-08  1.38795E-08  1.35715E-08  1.36058E-08  1.29408E-08
   1.26909E-08  1.30326E-08  1.27456E-08  1.25286E-08  1.28881E-08  1.40827E-08  1.36759E-08  1.31841E-08  1.22831E-08  1.16050E-08
   1.25879E-08  1.47765E-08  1.55069E-08  1.64777E-08  1.62220E-08  1.57853E-08  1.43800E-08  1.34647E-08  1.29544E-08  1.34979E-08
   1.21886E-08  1.25834E-08  1.24435E-08  1.19547E-08  1.13821E-08  1.14841E-08  1.03929E-08  1.01058E-08  9.78147E-09  9.43296E-09
   8.75251E-09  9.50278E-09  9.31021E-09  9.01754E-09  8.17900E-09  7.59563E-09  6.15408E-09  6.46162E-09  6.15512E-09  6.56737E-09
   5.56946E-09  6.60954E-09  8.26254E-09  1.18196E-08  1.38350E-08  1.49528E-08  1.35112E-08  1.33840E-08  1.18716E-08  1.15046E-08
   1.08564E-08  1.06419E-08  9.05285E-09  8.56420E-09  6.92248E-09  7.52301E-09  4.81029E-09  4.72083E-09  4.44157E-09  9.02517E-09
   1.30402E-08  1.51173E-08  1.45615E-08  1.55848E-08  1.47781E-08  1.53283E-08  1.45499E-08  1.42981E-08  1.38849E-08  1.42585E-08
   1.39370E-08  1.38395E-08  1.35729E-08  1.34521E-08  1.27547E-08  1.29110E-08  1.14226E-08  1.15842E-08  1.14747E-08  1.10727E-08
   1.02604E-08  1.04759E-08  1.08192E-08  1.08224E-08  9.72944E-09  1.01099E-08  1.01476E-08  9.87956E-09  9.60977E-09  9.24112E-09
   8.26132E-09  7.48181E-09  6.79339E-09  7.67678E-09  7.47695E-09  7.14600E-09  7.12192E-09  7.86241E-09  7.13006E-09  7.51960E-09
   7.56085E-09  8.74989E-09  8.41870E-09  8.07951E-09  7.46378E-09  7.26291E-09  5.63590E-09  5.92446E-09  6.36030E-09  5.94128E-09
   5.24677E-09  6.00728E-09  5.53763E-09  6.04034E-09  5.41267E-09  5.93123E-09  5.48710E-09  5.20592E-09  3.73360E-09  4.50082E-09
   5.43355E-09  6.31417E-09  6.95560E-09  6.58867E-09  5.84756E-09  6.50028E-09  7.24269E-09  7.61240E-09  7.90520E-09  8.42763E-09
   7.93970E-09  8.49025E-09  8.10487E-09  7.91647E-09  7.24930E-09  7.75966E-09  8.09730E-09  7.92921E-09  7.31895E-09  7.67428E-09
   7.23695E-09  6.89144E-09  6.99816E-09  7.55384E-09  6.37873E-09  6.22132E-09  5.11373E-09  5.18052E-09  3.61621E-09 -3.35079E-10
   9.74099E-10  6.82248E-09  1.22164E-08  1.49531E-08  1.63681E-08  1.68936E-08  1.89694E-08  1.93562E-08  1.96405E-08  1.96298E-08
   2.04435E-08  2.07173E-08  2.08422E-08  2.14021E-08  2.08974E-08  2.10111E-08  2.04634E-08  1.99998E-08  1.91022E-08  1.77384E-08
   1.61638E-08  1.42410E-08  1.21982E-08  1.07479E-08  8.75098E-09  6.62059E-09  4.41927E-09  2.66200E-09  3.83174E-10 -9.60651E-10
  -2.36717E-09 -2.75070E-09 -4.34408E-09 -4.59579E-09 -4.35054E-09 -4.10370E-09 -3.93648E-09 -3.73517E-09 -3.09460E-09 -2.43393E-09
  -1.97067E-09 -5.83487E-10 -1.24005E-09 -7.16048E-10 -6.25182E-10 -7.36169E-10 -5.04147E-10 -8.59243E-10 -3.65070E-10 -9.43683E-10
  -9.32075E-10 -9.43861E-10 -3.49105E-10 -6.30873E-10 -2.76702E-10  3.17789E-10  2.96386E-10 -1.74712E-10 -7.98723E-10 -7.76998E-10
  -3.59155E-10 -4.69682E-10 -2.70043E-10  2.73935E-10 -9.27600E-10 -4.35421E-10 -8.00384E-11 -5.33852E-10  5.03660E-10  3.21701E-10
  -5.02426E-10 -2.62432E-10 -3.99777E-10 -3.15197E-10 -7.55964E-10 -1.34754E-09 -1.37088E-09 -7.63613E-10 -7.71192E-10 -1.17945E-09
  -6.74757E-10 -6.12178E-10 -3.00828E-10 -1.79216E-10 -1.28030E-10  1.47436E-10  4.67696E-11  4.94292E-10  2.44409E-10  8.03212E-10
   6.07229E-10  6.82677E-11  2.13983E-10 -3.52256E-10 -4.73538E-10 -9.03222E-10 -9.68459E-10 -1.77339E-09 -1.73320E-09 -1.97744E-09
  -1.92643E-09 -2.38039E-09 -2.03572E-09 -2.59489E-09 -1.19610E-09 -1.31892E-09 -1.15934E-09 -9.71766E-10 -9.03026E-10 -5.53565E-10
  -5.29518E-10 -5.64357E-10  2.35202E-10 -2.36029E-10  4.36252E-10 -1.18880E-10  4.06419E-10  7.03867E-10  7.48027E-10  2.12488E-10
   1.11083E-09  5.90703E-10  4.80103E-10  2.29813E-10  8.44499E-10  4.20890E-10  1.02745E-09  1.09182E-09  7.25297E-10  1.01103E-09
   5.94196E-10  7.30253E-10  7.37238E-10  5.42662E-10  7.99826E-10  6.51451E-10  4.80494E-10  5.29673E-10  4.12458E-10  1.88094E-10
   3.26459E-10  3.32400E-10  1.09466E-10  1.54514E-10  2.82947E-10 -2.11791E-10  4.05425E-10 -1.33941E-10  1.30440E-10 -8.18717E-11
   2.13104E-10 -5.50543E-10  4.33006E-11 -3.50807E-10 -3.91419E-10 -5.29159E-10 -2.63225E-10 -4.14322E-10 -1.59967E-10 -1.11609E-09
   1.40246E-10 -5.74644E-10 -4.12870E-10 -6.84978E-10 -3.14657E-10 -1.03642E-09 -3.39708E-10 -6.49156E-10 -5.79963E-10 -9.40414E-10
  -2.12300E-10 -7.16193E-10 -7.30240E-10 -1.12102E-09 -5.33324E-10 -1.30143E-09 -6.36163E-10 -8.56012E-10 -1.16151E-09 -1.63857E-09
  -7.05968E-10 -1.55190E-09 -1.11955E-09 -1.30337E-09 -1.16421E-09 -1.23409E-09 -1.08642E-09 -1.28305E-09 -1.26190E-09 -1.63674E-09
  -1.24833E-09 -1.42259E-09 -1.37093E-09 -1.32828E-09 -1.84459E-09 -1.73868E-09 -1.82820E-09 -1.54766E-09 -1.65987E-09 -1.56721E-09
  -1.76458E-09 -1.83766E-09 -1.48420E-09
 NY points of the fit to the data follow
   1.49251E-08  1.46912E-08  1.37716E-08  1.30348E-08  1.35189E-08  1.39514E-08  1.34766E-08  1.35444E-08  1.50334E-08  1.33817E-08
   1.18523E-08  1.17242E-08  1.15493E-08  1.22089E-08  1.35648E-08  1.37961E-08  1.35306E-08  1.38680E-08  1.36191E-08  1.26101E-08
   1.32257E-08  1.44487E-08  1.46611E-08  1.52588E-08  1.56708E-08  1.54535E-08  1.41337E-08  1.34633E-08  1.33438E-08  1.39206E-08
   1.41736E-08  1.32384E-08  1.28143E-08  1.23900E-08  1.11371E-08  1.04382E-08  9.75544E-09  9.60709E-09  9.25862E-09  9.10574E-09
   8.58035E-09  8.58018E-09  9.03716E-09  8.67315E-09  8.36559E-09  9.12103E-09  9.26261E-09  8.36704E-09  8.12194E-09  8.89164E-09
   8.99913E-09  8.98048E-09  9.41006E-09  9.98245E-09  1.04465E-08  1.04089E-08  1.03720E-08  1.04473E-08  1.05474E-08  1.05404E-08
   1.04942E-08  1.05859E-08  1.09551E-08  1.06416E-08  1.04891E-08  1.11428E-08  1.13360E-08  1.04691E-08  1.02862E-08  1.06744E-08
   1.15070E-08  1.19257E-08  1.16393E-08  1.15425E-08  1.26585E-08  1.42442E-08  1.51255E-08  1.46748E-08  1.43907E-08  1.44671E-08
   1.47445E-08  1.40852E-08  1.33009E-08  1.36416E-08  1.34653E-08  1.33803E-08  1.25438E-08  1.01806E-08  9.43301E-09  9.34548E-09
   9.04993E-09  8.68275E-09  8.84085E-09  8.86972E-09  8.20069E-09  8.16372E-09  8.26775E-09  7.84734E-09  7.73910E-09  7.81020E-09
   7.96046E-09  7.70257E-09  7.61771E-09  7.96967E-09  7.95233E-09  7.83929E-09  7.81411E-09  7.80640E-09  7.83137E-09  7.88797E-09
   7.73586E-09  7.30844E-09  7.41323E-09  7.43680E-09  7.05651E-09  6.92293E-09  6.86000E-09  6.82132E-09  6.79339E-09  6.77091E-09
   6.75130E-09  6.73327E-09  6.71599E-09  6.69893E-09  6.68171E-09  6.66411E-09  6.64594E-09  6.62702E-09  6.60727E-09  6.58659E-09
   6.56489E-09  6.54212E-09  6.51826E-09  6.49323E-09  6.46703E-09  6.43960E-09  6.41094E-09  6.38102E-09  6.34985E-09  6.31741E-09
   6.28371E-09  6.24875E-09  6.21258E-09  6.17520E-09  6.13665E-09  6.09699E-09  6.05628E-09  6.01462E-09  5.97215E-09  5.92900E-09
   5.88538E-09  5.84156E-09  5.79789E-09  5.75484E-09  5.71307E-09  5.67346E-09  5.63733E-09  5.60657E-09  5.58412E-09  5.57454E-09
   5.58542E-09  5.63026E-09  5.73567E-09  5.96153E-09  6.47304E-09  7.90435E-09  1.36783E-08  2.08037E-08  2.20423E-08  2.00560E-08
   1.98980E-08  2.07646E-08  2.12798E-08  2.11748E-08  2.08317E-08  2.16390E-08  2.33832E-08  2.00372E-08  1.18581E-08  6.58899E-09
   5.10890E-09  4.45383E-09  4.06796E-09  3.79971E-09  3.59246E-09  3.42067E-09  3.27118E-09  3.13659E-09  3.01252E-09  2.89614E-09
   2.78563E-09  2.67975E-09  2.57761E-09  2.47866E-09  2.38242E-09  2.28859E-09  2.19695E-09  2.10735E-09  2.01966E-09  1.93383E-09
   1.84981E-09  1.76755E-09  1.68707E-09  1.60835E-09  1.53143E-09  1.45631E-09  1.38305E-09  1.31165E-09  1.24217E-09  1.17454E-09
   1.10874E-09  1.04473E-09  9.82472E-10  9.21929E-10  8.63073E-10  8.05865E-10  7.50285E-10  6.96306E-10  6.43891E-10  5.93014E-10
   5.43665E-10  4.95801E-10  4.49402E-10  4.04449E-10  3.60911E-10  3.18767E-10  2.78007E-10  2.38582E-10  2.00475E-10  1.63686E-10
   1.28180E-10  9.39275E-11  6.09200E-11  2.91214E-11 -1.47804E-12 -3.09136E-11 -5.91990E-11 -8.63464E-11 -1.12388E-10 -1.37340E-10
  -1.61224E-10 -1.84059E-10 -2.05872E-10 -2.26681E-10 -2.46502E-10 -2.65360E-10 -2.83281E-10 -3.00290E-10 -3.16379E-10 -3.31581E-10
  -3.45933E-10 -3.59449E-10 -3.72140E-10 -3.84021E-10 -3.95145E-10 -4.05493E-10 -4.15109E-10 -4.23999E-10 -4.32199E-10 -4.39727E-10
  -4.46591E-10 -4.52825E-10 -4.58454E-10 -4.63503E-10 -4.67998E-10 -4.71963E-10 -4.75423E-10 -4.78405E-10 -4.80933E-10 -4.83031E-10
  -4.84727E-10 -4.86043E-10 -4.87007E-10 -4.87643E-10 -4.87974E-10 -4.88029E-10 -4.87830E-10 -4.87404E-10 -4.86775E-10 -4.85968E-10
  -4.85008E-10 -4.83922E-10 -4.82733E-10 -4.81467E-10 -4.80149E-10 -4.78804E-10 -4.77456E-10 -4.76131E-10 -4.74856E-10 -4.73653E-10
  -4.72548E-10 -4.71566E-10 -4.70733E-10 -4.70074E-10 -4.69612E-10 -4.69375E-10 -4.69385E-10 -4.69669E-10 -4.70251E-10 -4.71158E-10
  -4.72414E-10 -4.74041E-10 -4.76068E-10 -4.78519E-10 -4.81417E-10 -4.84791E-10 -4.88663E-10 -4.93058E-10 -4.98003E-10 -5.03521E-10
  -5.09638E-10 -5.16377E-10 -5.23736E-10 -5.31699E-10 -5.40253E-10 -5.49381E-10 -5.59068E-10 -5.69298E-10 -5.80057E-10 -5.91329E-10
  -6.03102E-10 -6.15354E-10 -6.28075E-10 -6.41250E-10 -6.54861E-10 -6.68895E-10 -6.83334E-10 -6.98165E-10 -7.13372E-10 -7.28939E-10
  -7.44854E-10 -7.61099E-10 -7.77656E-10 -7.94518E-10 -8.11662E-10 -8.29074E-10 -8.46744E-10 -8.64652E-10 -8.82783E-10 -9.01121E-10
  -9.19654E-10 -9.38365E-10 -9.57239E-10 -9.76260E-10 -9.95412E-10 -1.01468E-09 -1.03406E-09 -1.05351E-09 -1.07304E-09 -1.09263E-09
  -1.11226E-09 -1.13191E-09 -1.15157E-09 -1.17123E-09 -1.19086E-09 -1.21046E-09 -1.23002E-09 -1.24950E-09 -1.26890E-09 -1.28821E-09
  -1.30741E-09 -1.32648E-09 -1.34540E-09
 NY background values follow
    -2.584E-10   -1.915E-10   -1.247E-10   -5.781E-11    9.059E-12    7.592E-11    1.428E-10    2.096E-10    2.764E-10    3.432E-10
     4.100E-10    4.767E-10    5.434E-10    6.100E-10    6.766E-10    7.431E-10    8.095E-10    8.759E-10    9.421E-10    1.008E-09
     1.074E-09    1.140E-09    1.206E-09    1.272E-09    1.338E-09    1.403E-09    1.469E-09    1.534E-09    1.599E-09    1.664E-09
     1.729E-09    1.793E-09    1.858E-09    1.922E-09    1.986E-09    2.050E-09    2.113E-09    2.177E-09    2.240E-09    2.303E-09
     2.366E-09    2.429E-09    2.491E-09    2.553E-09    2.615E-09    2.676E-09    2.738E-09    2.799E-09    2.860E-09    2.920E-09
     2.980E-09    3.040E-09    3.100E-09    3.159E-09    3.218E-09    3.277E-09    3.335E-09    3.393E-09    3.451E-09    3.508E-09
     3.565E-09    3.621E-09    3.676E-09    3.732E-09    3.786E-09    3.841E-09    3.894E-09    3.947E-09    4.000E-09    4.052E-09
     4.103E-09    4.154E-09    4.204E-09    4.253E-09    4.302E-09    4.350E-09    4.397E-09    4.444E-09    4.490E-09    4.535E-09
     4.579E-09    4.622E-09    4.665E-09    4.707E-09    4.748E-09    4.788E-09    4.827E-09    4.865E-09    4.902E-09    4.938E-09
     4.974E-09    5.008E-09    5.041E-09    5.074E-09    5.105E-09    5.135E-09    5.164E-09    5.192E-09    5.219E-09    5.245E-09
     5.270E-09    5.293E-09    5.315E-09    5.336E-09    5.356E-09    5.375E-09    5.392E-09    5.408E-09    5.423E-09    5.437E-09
     5.449E-09    5.460E-09    5.469E-09    5.477E-09    5.484E-09    5.490E-09    5.494E-09    5.497E-09    5.498E-09    5.498E-09
     5.496E-09    5.493E-09    5.489E-09    5.483E-09    5.475E-09    5.466E-09    5.456E-09    5.444E-09    5.430E-09    5.415E-09
     5.399E-09    5.380E-09    5.360E-09    5.339E-09    5.316E-09    5.291E-09    5.265E-09    5.237E-09    5.207E-09    5.175E-09
     5.142E-09    5.107E-09    5.071E-09    5.032E-09    4.992E-09    4.950E-09    4.907E-09    4.861E-09    4.814E-09    4.765E-09
     4.714E-09    4.661E-09    4.606E-09    4.550E-09    4.491E-09    4.431E-09    4.369E-09    4.305E-09    4.239E-09    4.171E-09
     4.102E-09    4.031E-09    3.958E-09    3.884E-09    3.809E-09    3.733E-09    3.655E-09    3.576E-09    3.496E-09    3.415E-09
     3.333E-09    3.250E-09    3.166E-09    3.082E-09    2.996E-09    2.911E-09    2.824E-09    2.738E-09    2.650E-09    2.563E-09
     2.475E-09    2.387E-09    2.299E-09    2.211E-09    2.123E-09    2.035E-09    1.947E-09    1.860E-09    1.772E-09    1.685E-09
     1.599E-09    1.513E-09    1.428E-09    1.343E-09    1.259E-09    1.176E-09    1.093E-09    1.012E-09    9.314E-10    8.521E-10
     7.739E-10    6.969E-10    6.211E-10    5.468E-10    4.738E-10    4.023E-10    3.325E-10    2.642E-10    1.976E-10    1.326E-10
     6.936E-11    7.708E-12   -5.234E-11   -1.108E-10   -1.677E-10   -2.230E-10   -2.769E-10   -3.292E-10   -3.800E-10   -4.294E-10
    -4.773E-10   -5.237E-10   -5.688E-10   -6.125E-10   -6.548E-10   -6.958E-10   -7.354E-10   -7.737E-10   -8.108E-10   -8.466E-10
    -8.811E-10   -9.144E-10   -9.465E-10   -9.774E-10   -1.007E-09   -1.036E-09   -1.063E-09   -1.089E-09   -1.115E-09   -1.139E-09
    -1.162E-09   -1.184E-09   -1.205E-09   -1.225E-09   -1.244E-09   -1.263E-09   -1.280E-09   -1.296E-09   -1.312E-09   -1.326E-09
    -1.340E-09   -1.353E-09   -1.365E-09   -1.376E-09   -1.387E-09   -1.397E-09   -1.406E-09   -1.414E-09   -1.422E-09   -1.429E-09
    -1.435E-09   -1.441E-09   -1.446E-09   -1.450E-09   -1.454E-09   -1.458E-09   -1.461E-09   -1.463E-09   -1.465E-09   -1.467E-09
    -1.468E-09   -1.469E-09   -1.469E-09   -1.470E-09   -1.469E-09   -1.469E-09   -1.468E-09   -1.467E-09   -1.466E-09   -1.465E-09
    -1.464E-09   -1.462E-09   -1.460E-09   -1.459E-09   -1.457E-09   -1.455E-09   -1.453E-09   -1.452E-09   -1.450E-09   -1.448E-09
    -1.447E-09   -1.445E-09   -1.444E-09   -1.443E-09   -1.442E-09   -1.441E-09   -1.441E-09   -1.441E-09   -1.441E-09   -1.441E-09
    -1.442E-09   -1.443E-09   -1.445E-09   -1.447E-09   -1.450E-09   -1.452E-09   -1.456E-09   -1.460E-09   -1.464E-09   -1.470E-09
    -1.475E-09   -1.482E-09   -1.488E-09   -1.496E-09   -1.504E-09   -1.513E-09   -1.522E-09   -1.532E-09   -1.542E-09   -1.553E-09
    -1.564E-09   -1.576E-09   -1.588E-09   -1.601E-09   -1.614E-09   -1.628E-09   -1.642E-09   -1.656E-09   -1.671E-09   -1.686E-09
    -1.702E-09   -1.718E-09   -1.734E-09   -1.750E-09   -1.767E-09   -1.784E-09   -1.801E-09   -1.818E-09   -1.836E-09   -1.854E-09
    -1.872E-09   -1.890E-09   -1.909E-09   -1.927E-09   -1.946E-09   -1.965E-09   -1.984E-09   -2.003E-09   -2.022E-09   -2.041E-09
    -2.060E-09   -2.079E-09   -2.098E-09   -2.118E-09   -2.137E-09   -2.156E-09   -2.175E-09   -2.194E-09   -2.213E-09   -2.232E-09
    -2.250E-09   -2.269E-09   -2.287E-09
 Ala      Conc. = 2.72E-10
  -3.97444E-11  8.02089E-12  7.62016E-11  1.65310E-10  2.20157E-10  2.80414E-10  3.72798E-10  3.98011E-10  4.14037E-10  5.22651E-10
   5.65780E-10  5.70988E-10  6.40703E-10  6.98840E-10  7.43342E-10  7.97465E-10  8.56129E-10  9.17171E-10  9.79574E-10  1.04283E-09
   1.10663E-09  1.17079E-09  1.23518E-09  1.29971E-09  1.36431E-09  1.42894E-09  1.49356E-09  1.55814E-09  1.62266E-09  1.68709E-09
   1.75144E-09  1.81565E-09  1.87974E-09  1.94369E-09  2.00749E-09  2.07112E-09  2.13458E-09  2.19786E-09  2.26094E-09  2.32382E-09
   2.38650E-09  2.44898E-09  2.51122E-09  2.57322E-09  2.63500E-09  2.69652E-09  2.75781E-09  2.81883E-09  2.87958E-09  2.94005E-09
   3.00026E-09  3.06018E-09  3.11981E-09  3.17914E-09  3.23814E-09  3.29681E-09  3.35513E-09  3.41307E-09  3.47062E-09  3.52776E-09
   3.58448E-09  3.64076E-09  3.69658E-09  3.75191E-09  3.80676E-09  3.86109E-09  3.91490E-09  3.96816E-09  4.02086E-09  4.07298E-09
   4.12451E-09  4.17543E-09  4.22572E-09  4.27537E-09  4.32437E-09  4.37271E-09  4.42036E-09  4.46732E-09  4.51357E-09  4.55911E-09
   4.60394E-09  4.64803E-09  4.69140E-09  4.73404E-09  4.77595E-09  4.81717E-09  4.85770E-09  4.89758E-09  4.93688E-09  4.97566E-09
   5.01406E-09  5.05228E-09  5.09059E-09  5.12948E-09  5.16977E-09  5.21291E-09  5.26186E-09  5.32341E-09  5.41711E-09  5.62082E-09
   5.98584E-09  5.84876E-09  5.86660E-09  6.31514E-09  6.37209E-09  6.31744E-09  6.34029E-09  6.37183E-09  6.43124E-09  6.51770E-09
   6.39128E-09  5.98671E-09  6.11182E-09  6.15357E-09  5.78975E-09  5.67099E-09  5.62129E-09  5.59466E-09  5.57772E-09  5.56528E-09
   5.55492E-09  5.54535E-09  5.53583E-09  5.52590E-09  5.51525E-09  5.50368E-09  5.49103E-09  5.47720E-09  5.46210E-09  5.44566E-09
   5.42782E-09  5.40855E-09  5.38782E-09  5.36556E-09  5.34177E-09  5.31642E-09  5.28948E-09  5.26093E-09  5.23076E-09  5.19894E-09
   5.16545E-09  5.13028E-09  5.09341E-09  5.05483E-09  5.01451E-09  4.97245E-09  4.92864E-09  4.88305E-09  4.83567E-09  4.78651E-09
   4.73553E-09  4.68275E-09  4.62814E-09  4.57171E-09  4.51345E-09  4.45336E-09  4.39149E-09  4.32790E-09  4.26272E-09  4.19612E-09
   4.12833E-09  4.05968E-09  3.99081E-09  3.92298E-09  3.85946E-09  3.81156E-09  3.84050E-09  4.04125E-09  3.92556E-09  3.77414E-09
   3.70906E-09  3.65336E-09  3.58347E-09  3.49884E-09  3.40150E-09  3.33009E-09  3.31370E-09  3.19524E-09  2.80334E-09  2.64077E-09
   2.52866E-09  2.42947E-09  2.33511E-09  2.24305E-09  2.15225E-09  2.06233E-09  1.97305E-09  1.88431E-09  1.79612E-09  1.70847E-09
   1.62138E-09  1.53492E-09  1.44909E-09  1.36400E-09  1.27966E-09  1.19616E-09  1.11354E-09  1.03190E-09  9.51263E-10  8.71729E-10
   7.93353E-10  7.16199E-10  6.40342E-10  5.65842E-10  4.92773E-10  4.21194E-10  3.51206E-10  2.82823E-10  2.16144E-10  1.51131E-10
   8.77726E-11  2.60439E-11 -3.40699E-11 -9.25967E-11 -1.49550E-10 -2.04957E-10 -2.58830E-10 -3.11191E-10 -3.62067E-10 -4.11476E-10
  -4.59425E-10 -5.05949E-10 -5.51065E-10 -5.94789E-10 -6.37146E-10 -6.78153E-10 -7.17818E-10 -7.56187E-10 -7.93273E-10 -8.29076E-10
  -8.63628E-10 -8.96956E-10 -9.29067E-10 -9.59995E-10 -9.89747E-10 -1.01836E-09 -1.04584E-09 -1.07221E-09 -1.09748E-09 -1.12169E-09
  -1.14485E-09 -1.16697E-09 -1.18809E-09 -1.20822E-09 -1.22737E-09 -1.24557E-09 -1.26285E-09 -1.27923E-09 -1.29470E-09 -1.30929E-09
  -1.32304E-09 -1.33597E-09 -1.34808E-09 -1.35939E-09 -1.36995E-09 -1.37974E-09 -1.38881E-09 -1.39715E-09 -1.40482E-09 -1.41182E-09
  -1.41816E-09 -1.42388E-09 -1.42900E-09 -1.43354E-09 -1.43754E-09 -1.44101E-09 -1.44398E-09 -1.44647E-09 -1.44852E-09 -1.45014E-09
  -1.45136E-09 -1.45221E-09 -1.45270E-09 -1.45287E-09 -1.45275E-09 -1.45234E-09 -1.45169E-09 -1.45081E-09 -1.44973E-09 -1.44848E-09
  -1.44708E-09 -1.44555E-09 -1.44392E-09 -1.44222E-09 -1.44046E-09 -1.43868E-09 -1.43690E-09 -1.43515E-09 -1.43344E-09 -1.43181E-09
  -1.43028E-09 -1.42887E-09 -1.42762E-09 -1.42653E-09 -1.42565E-09 -1.42499E-09 -1.42458E-09 -1.42444E-09 -1.42461E-09 -1.42509E-09
  -1.42593E-09 -1.42714E-09 -1.42875E-09 -1.43078E-09 -1.43327E-09 -1.43622E-09 -1.43968E-09 -1.44366E-09 -1.44819E-09 -1.45329E-09
  -1.45899E-09 -1.46531E-09 -1.47225E-09 -1.47980E-09 -1.48793E-09 -1.49664E-09 -1.50591E-09 -1.51572E-09 -1.52606E-09 -1.53692E-09
  -1.54827E-09 -1.56010E-09 -1.57240E-09 -1.58515E-09 -1.59834E-09 -1.61194E-09 -1.62596E-09 -1.64036E-09 -1.65514E-09 -1.67028E-09
  -1.68577E-09 -1.70158E-09 -1.71771E-09 -1.73414E-09 -1.75084E-09 -1.76782E-09 -1.78505E-09 -1.80252E-09 -1.82021E-09 -1.83811E-09
  -1.85620E-09 -1.87447E-09 -1.89290E-09 -1.91147E-09 -1.93017E-09 -1.94899E-09 -1.96791E-09 -1.98691E-09 -2.00599E-09 -2.02511E-09
  -2.04428E-09 -2.06347E-09 -2.08266E-09 -2.10185E-09 -2.12102E-09 -2.14015E-09 -2.15923E-09 -2.17824E-09 -2.19716E-09 -2.21599E-09
  -2.23470E-09 -2.25328E-09 -2.27172E-09
 Asp      Conc. = 1.93E-09
   1.93806E-09  1.91806E-09  1.52766E-09  1.53225E-09  1.27327E-09  1.19591E-09  1.19254E-09  8.73617E-10  6.99741E-10  6.58986E-10
   6.67160E-10  6.97540E-10  7.38549E-10  7.87518E-10  8.47824E-10  9.08488E-10  9.70342E-10  1.03360E-09  1.09808E-09  1.16364E-09
   1.23014E-09  1.29753E-09  1.36577E-09  1.43488E-09  1.50492E-09  1.57599E-09  1.64827E-09  1.72199E-09  1.79750E-09  1.87530E-09
   1.95613E-09  2.04107E-09  2.13194E-09  2.23182E-09  2.34665E-09  2.48984E-09  2.69914E-09  3.00223E-09  3.08922E-09  3.23922E-09
   3.23528E-09  3.29841E-09  3.51261E-09  4.04468E-09  4.40509E-09  5.25217E-09  5.55488E-09  5.16434E-09  5.01208E-09  5.75518E-09
   5.70982E-09  5.69250E-09  6.08296E-09  6.19809E-09  5.98270E-09  6.07512E-09  5.36946E-09  4.82419E-09  5.03215E-09  5.23768E-09
   4.69871E-09  4.62831E-09  4.63044E-09  4.36832E-09  4.37647E-09  4.57004E-09  4.58373E-09  4.46823E-09  4.42698E-09  4.41907E-09
   4.42820E-09  4.44725E-09  4.47258E-09  4.50208E-09  4.53443E-09  4.56874E-09  4.60440E-09  4.64098E-09  4.67812E-09  4.71557E-09
   4.75313E-09  4.79063E-09  4.82795E-09  4.86496E-09  4.90159E-09  4.93773E-09  4.97333E-09  5.00832E-09  5.04266E-09  5.07627E-09
   5.10913E-09  5.14120E-09  5.17243E-09  5.20279E-09  5.23224E-09  5.26076E-09  5.28832E-09  5.31488E-09  5.34042E-09  5.36492E-09
   5.38834E-09  5.41067E-09  5.43188E-09  5.45195E-09  5.47086E-09  5.48858E-09  5.50510E-09  5.52040E-09  5.53447E-09  5.54729E-09
   5.55884E-09  5.56911E-09  5.57808E-09  5.58574E-09  5.59208E-09  5.59706E-09  5.60069E-09  5.60295E-09  5.60382E-09  5.60329E-09
   5.60134E-09  5.59796E-09  5.59314E-09  5.58686E-09  5.57911E-09  5.56987E-09  5.55914E-09  5.54689E-09  5.53311E-09  5.51780E-09
   5.50093E-09  5.48250E-09  5.46250E-09  5.44089E-09  5.41769E-09  5.39287E-09  5.36643E-09  5.33835E-09  5.30862E-09  5.27723E-09
   5.24417E-09  5.20943E-09  5.17301E-09  5.13490E-09  5.09508E-09  5.05356E-09  5.01033E-09  4.96540E-09  4.91876E-09  4.87043E-09
   4.82041E-09  4.76874E-09  4.71544E-09  4.66055E-09  4.60415E-09  4.54631E-09  4.48721E-09  4.42707E-09  4.36630E-09  4.30544E-09
   4.24534E-09  4.18734E-09  4.13390E-09  4.08976E-09  4.06576E-09  4.09179E-09  4.28061E-09  5.29376E-09  6.67593E-09  6.24140E-09
   5.81169E-09  5.87564E-09  5.96184E-09  5.95325E-09  5.84337E-09  5.69734E-09  5.80819E-09  6.12459E-09  5.32284E-09  3.45723E-09
   2.95461E-09  2.71867E-09  2.55883E-09  2.42941E-09  2.31487E-09  2.20870E-09  2.10771E-09  2.01018E-09  1.91519E-09  1.82214E-09
   1.73068E-09  1.64062E-09  1.55178E-09  1.46414E-09  1.37763E-09  1.29224E-09  1.20799E-09  1.12490E-09  1.04299E-09  9.62325E-10
   8.82933E-10  8.04866E-10  7.28185E-10  6.52935E-10  5.79182E-10  5.06979E-10  4.36416E-10  3.67502E-10  3.00334E-10  2.34867E-10
   1.71087E-10  1.08965E-10  4.84830E-11 -1.03881E-11 -6.76635E-11 -1.23375E-10 -1.77535E-10 -2.30165E-10 -2.81297E-10 -3.30948E-10
  -3.79128E-10 -4.25871E-10 -4.71196E-10 -5.15118E-10 -5.57665E-10 -5.98853E-10 -6.38692E-10 -6.77227E-10 -7.14474E-10 -7.50430E-10
