 LCModel (Version 6.3-1R) Copyright: S.W. Provencher.          Ref.: Magn. Reson. Med. 30:672-679 (1993).                
 onepulse 17x14_ftSpec_smooth_lcm
 26 lines in following concentration table = NCONC+1
    Conc.  %SD /Cr+PCr  Metabolite                                         
    0.000 999%   0.000 Ala                                                 
    0.000 999%   0.000 Asp                                                 
    0.000 999%   0.000 Cr                                                  
    0.000 999%   0.000 GABA                                                
 2.46E-10 175%   0.798 Glc                                                 
 1.82E-09  28%   5.880 Gln                                                 
 6.07E-10  70%   1.964 Glu                                                 
 9.17E-10  30%   2.969 Glyc                                                
    0.000 999%   0.000 GPC                                                 
    0.000 999%   0.000 GSH                                                 
    0.000 999%   0.000 Ins                                                 
    0.000 999%   0.000 Lac                                                 
    0.000 999%   0.000 NAAG                                                
 4.54E-10  37%   1.470 NAA                                                 
    0.000 999%   0.000 PCh                                                 
 3.09E-10  48%   1.000 PCr                                                 
 1.69E-09  18%   5.482 PE                                                  
 1.46E-10  74%   0.473 Scyllo                                              
 8.03E-10  49%   2.599 Ser                                                 
    0.000 999%   0.000 Tau                                                 
    0.000 999%   0.000 GPC+PCh                                             
 4.54E-10  37%   1.470 NAA+NAAG                                            
 9.17E-10  30%   2.969 Ins+Glyc                                            
 3.09E-10  48%   1.000 Cr+PCr                                              
 2.42E-09  14%   7.844 Glu+Gln                                             
   6 lines in following misc. output table
  FWHM = 0.089 ppm    S/N =   4                                            
  Data shift = 0.358 ppm                                                   
  Ph: -13 deg     -18.3 deg/ppm                                            
  alphaB,S = 3.6E-01,   4.5E+01                                            
   10 spline knots.   Ns = 5(1)                                            
  (10) 4 infls.   ( 9) 1 extrs.                                            
  363 points on ppm-axis = NY
      4.250000     4.238821     4.227641     4.216462     4.205282     4.194103     4.182923     4.171744     4.160564     4.149385
      4.138206     4.127026     4.115847     4.104667     4.093488     4.082308     4.071129     4.059949     4.048770     4.037591
      4.026411     4.015232     4.004052     3.992873     3.981693     3.970514     3.959334     3.948155     3.936975     3.925796
      3.914617     3.903437     3.892258     3.881078     3.869899     3.858719     3.847540     3.836360     3.825181     3.814002
      3.802822     3.791643     3.780463     3.769284     3.758104     3.746925     3.735745     3.724566     3.713387     3.702207
      3.691028     3.679848     3.668669     3.657489     3.646310     3.635130     3.623951     3.612772     3.601592     3.590413
      3.579233     3.568054     3.556874     3.545695     3.534515     3.523336     3.512156     3.500977     3.489798     3.478618
      3.467439     3.456259     3.445080     3.433900     3.422721     3.411541     3.400362     3.389183     3.378003     3.366824
      3.355644     3.344465     3.333285     3.322106     3.310926     3.299747     3.288568     3.277388     3.266209     3.255029
      3.243850     3.232670     3.221491     3.210311     3.199132     3.187953     3.176773     3.165594     3.154414     3.143235
      3.132055     3.120876     3.109696     3.098517     3.087337     3.076158     3.064979     3.053799     3.042620     3.031440
      3.020261     3.009081     2.997902     2.986722     2.975543     2.964364     2.953184     2.942005     2.930825     2.919646
      2.908466     2.897287     2.886107     2.874928     2.863749     2.852569     2.841390     2.830210     2.819031     2.807851
      2.796672     2.785492     2.774313     2.763134     2.751954     2.740775     2.729595     2.718416     2.707236     2.696057
      2.684877     2.673698     2.662519     2.651339     2.640160     2.628980     2.617801     2.606621     2.595442     2.584262
      2.573083     2.561903     2.550724     2.539545     2.528365     2.517186     2.506006     2.494827     2.483647     2.472468
      2.461288     2.450109     2.438930     2.427750     2.416571     2.405391     2.394212     2.383032     2.371853     2.360673
      2.349494     2.338315     2.327135     2.315956     2.304776     2.293597     2.282417     2.271238     2.260058     2.248879
      2.237700     2.226520     2.215341     2.204161     2.192982     2.181802     2.170623     2.159443     2.148264     2.137084
      2.125905     2.114726     2.103546     2.092367     2.081187     2.070008     2.058828     2.047649     2.036469     2.025290
      2.014111     2.002931     1.991752     1.980572     1.969393     1.958213     1.947034     1.935854     1.924675     1.913496
      1.902316     1.891137     1.879957     1.868778     1.857598     1.846419     1.835239     1.824060     1.812881     1.801701
      1.790522     1.779342     1.768163     1.756983     1.745804     1.734624     1.723445     1.712265     1.701086     1.689907
      1.678727     1.667548     1.656368     1.645189     1.634009     1.622830     1.611650     1.600471     1.589292     1.578112
      1.566933     1.555753     1.544574     1.533394     1.522215     1.511035     1.499856     1.488677     1.477497     1.466318
      1.455138     1.443959     1.432779     1.421600     1.410420     1.399241     1.388062     1.376882     1.365703     1.354523
      1.343344     1.332164     1.320985     1.309805     1.298626     1.287446     1.276267     1.265088     1.253908     1.242729
      1.231549     1.220370     1.209190     1.198011     1.186831     1.175652     1.164473     1.153293     1.142114     1.130934
      1.119755     1.108575     1.097396     1.086216     1.075037     1.063858     1.052678     1.041499     1.030319     1.019140
      1.007960     0.996781     0.985601     0.974422     0.963243     0.952063     0.940884     0.929704     0.918525     0.907345
      0.896166     0.884986     0.873807     0.862628     0.851448     0.840269     0.829089     0.817910     0.806730     0.795551
      0.784371     0.773192     0.762012     0.750833     0.739654     0.728474     0.717295     0.706115     0.694936     0.683756
      0.672577     0.661397     0.650218     0.639039     0.627859     0.616680     0.605500     0.594321     0.583141     0.571962
      0.560782     0.549603     0.538424     0.527244     0.516065     0.504885     0.493706     0.482526     0.471347     0.460167
      0.448988     0.437809     0.426629     0.415450     0.404270     0.393091     0.381911     0.370732     0.359552     0.348373
      0.337193     0.326014     0.314835     0.303655     0.292476     0.281296     0.270117     0.258937     0.247758     0.236578
      0.225399     0.214220     0.203040
 NY phased data points follow
   1.13253E-08  1.24211E-08  1.20721E-08  1.02919E-08  9.93071E-09  9.34346E-09  9.19971E-09  7.75131E-09  8.28393E-09  8.53542E-09
   8.23555E-09  8.57520E-09  9.36084E-09  9.16464E-09  9.71530E-09  1.00365E-08  1.02151E-08  9.22155E-09  9.40142E-09  9.20989E-09
   8.91593E-09  8.11481E-09  8.90807E-09  9.22761E-09  1.03053E-08  1.05806E-08  1.03126E-08  9.59373E-09  9.48364E-09  9.06417E-09
   1.04797E-08  1.21126E-08  1.35723E-08  1.35343E-08  1.34003E-08  1.21847E-08  1.05146E-08  9.83874E-09  1.01041E-08  9.56557E-09
   9.09153E-09  8.56805E-09  8.32857E-09  8.29162E-09  8.45951E-09  7.62306E-09  6.77155E-09  5.97139E-09  6.09813E-09  6.90069E-09
   6.89983E-09  6.78270E-09  6.56121E-09  6.07170E-09  5.63051E-09  5.30423E-09  4.84014E-09  4.38398E-09  4.72048E-09  4.34708E-09
   4.86464E-09  6.28448E-09  1.09535E-08  1.41028E-08  1.47810E-08  1.30432E-08  1.17264E-08  1.09212E-08  9.73553E-09  9.28646E-09
   8.29132E-09  7.81000E-09  7.21215E-09  6.17837E-09  5.71203E-09  4.55036E-09  4.48281E-09  5.80159E-09  7.54519E-09  1.18775E-08
   1.46233E-08  1.48061E-08  1.38171E-08  1.29625E-08  1.17079E-08  1.14141E-08  1.07794E-08  1.05229E-08  1.04106E-08  1.02742E-08
   9.56803E-09  9.00457E-09  8.95117E-09  7.93267E-09  7.40249E-09  7.70116E-09  6.85593E-09  6.40151E-09  6.20173E-09  6.29181E-09
   5.63428E-09  6.12021E-09  5.99481E-09  6.09462E-09  5.55537E-09  5.79521E-09  5.39376E-09  5.40292E-09  4.99069E-09  3.72725E-09
   3.99232E-09  3.27143E-09  3.99432E-09  4.83385E-09  4.35258E-09  4.20690E-09  4.71065E-09  4.98719E-09  5.08054E-09  5.15768E-09
   5.78295E-09  5.76782E-09  4.51200E-09  3.82730E-09  3.42545E-09  3.44599E-09  2.90335E-09  3.20571E-09  3.43121E-09  3.47521E-09
   3.35343E-09  3.59051E-09  3.67676E-09  3.47608E-09  3.35601E-09  3.22021E-09  2.91749E-09  2.39582E-09  3.23825E-09  3.95382E-09
   5.03803E-09  5.18715E-09  4.69582E-09  4.27292E-09  4.63627E-09  5.33091E-09  5.06563E-09  5.64259E-09  5.14101E-09  5.01309E-09
   4.75763E-09  4.43346E-09  4.12076E-09  4.30700E-09  4.14119E-09  4.40427E-09  3.73371E-09  4.17812E-09  4.02421E-09  4.14810E-09
   4.64744E-09  4.28899E-09  3.96217E-09  3.63707E-09  3.32772E-09  3.32919E-09  3.21513E-09  4.55221E-09  4.82652E-09  7.77054E-09
   1.34811E-08  1.72079E-08  1.61925E-08  1.37147E-08  1.16361E-08  1.05049E-08  9.14373E-09  7.91597E-09  6.40613E-09  6.03503E-09
   5.04928E-09  4.11659E-09  3.66108E-09  2.99756E-09  9.77878E-10  5.95119E-10 -7.02308E-11 -1.52605E-09 -3.00560E-09 -4.47125E-09
  -5.75230E-09 -6.02509E-09 -6.96533E-09 -8.11369E-09 -9.50923E-09 -9.61247E-09 -9.73280E-09 -1.01955E-08 -1.09450E-08 -1.01155E-08
  -9.72475E-09 -8.85174E-09 -8.38012E-09 -7.30294E-09 -6.18724E-09 -5.59092E-09 -5.02880E-09 -4.03244E-09 -2.95115E-09 -2.36117E-09
  -1.70028E-09 -1.50173E-09 -1.67107E-09 -1.35889E-09 -1.03120E-09 -1.72940E-09 -1.47270E-09 -1.19168E-09 -1.74166E-09 -1.89942E-09
  -1.26474E-09 -9.74408E-10 -1.14838E-09 -9.86314E-10  4.46942E-11 -1.35031E-09 -1.29606E-09 -1.15789E-09 -1.14127E-09 -1.13038E-09
  -1.19313E-09 -1.32303E-09 -8.50867E-10 -8.28238E-10 -6.25064E-10 -6.32280E-10 -6.76977E-10 -5.17725E-10 -1.10242E-09 -1.31267E-09
  -1.67242E-09 -3.20477E-10 -6.63596E-10 -1.29697E-09 -1.06117E-09 -2.48995E-10 -8.00642E-10 -8.49748E-11 -7.34461E-10 -8.99444E-10
   2.07013E-10 -1.69592E-10 -1.14487E-10  4.58535E-10 -1.74890E-10 -2.11126E-10 -7.63583E-10 -8.54369E-10 -5.90193E-10 -1.12774E-09
  -1.89966E-09 -1.65214E-09 -1.36858E-09 -1.58131E-09 -1.03463E-09 -9.47435E-10 -7.69620E-10 -2.12517E-10 -3.36714E-10  3.19592E-10
   8.73798E-10  8.12538E-10  7.36868E-10  4.32870E-10  8.09234E-10  6.81324E-10  5.69896E-10  3.29322E-10  2.24505E-10  4.93834E-11
   7.62165E-10 -4.34566E-10 -7.10828E-10 -7.56659E-10 -2.07612E-10 -2.66265E-11 -8.78890E-10 -1.73458E-09 -8.46368E-10 -1.76531E-10
  -9.46677E-10 -1.11421E-09 -8.21838E-10 -2.84052E-10 -1.26632E-09 -9.61257E-10 -8.81036E-10 -6.63244E-10 -1.11239E-09 -6.47404E-10
  -1.16940E-09 -1.32299E-09 -9.66774E-10 -5.11869E-10 -1.13106E-09 -1.25905E-09 -6.79397E-10 -3.83900E-10 -4.81339E-10 -4.91025E-10
  -9.76370E-10 -9.63281E-10 -6.06390E-10 -2.97959E-10 -9.20828E-10 -5.57173E-10 -2.71338E-10 -3.69488E-10 -4.11164E-10 -4.88505E-10
  -2.91416E-10 -5.31711E-10 -6.14004E-11 -5.88317E-10  1.33848E-11  1.69372E-10 -4.78271E-11 -2.01782E-10 -1.40164E-10  3.15904E-10
   2.12596E-10 -6.67033E-10  6.54789E-10  5.59287E-11  9.76520E-11  1.13936E-11  4.04364E-10 -1.92986E-11  7.99707E-11  7.84706E-10
   2.60500E-10  5.38828E-10  3.59389E-10  9.01994E-10  8.11522E-10  8.39972E-10  2.25070E-10  6.26358E-10  1.27703E-09  1.32882E-09
   1.28222E-10  1.15725E-09  8.91502E-10  1.19770E-09  7.49066E-10  1.52440E-09  1.22975E-09  1.08071E-09  8.34137E-10  1.47077E-09
   1.34529E-09  1.83593E-09  6.88333E-10
 NY points of the fit to the data follow
   1.08447E-08  1.07198E-08  1.02662E-08  1.01294E-08  1.01318E-08  1.01003E-08  9.87404E-09  9.46207E-09  8.92062E-09  8.51303E-09
   8.37478E-09  8.46915E-09  9.04230E-09  9.52201E-09  9.75303E-09  9.78761E-09  9.74443E-09  9.67689E-09  9.45813E-09  8.88146E-09
   8.22936E-09  8.11924E-09  8.24010E-09  8.45279E-09  8.80832E-09  9.35350E-09  1.01065E-08  1.08411E-08  1.13240E-08  1.15715E-08
   1.18087E-08  1.18324E-08  1.16196E-08  1.12888E-08  1.11226E-08  1.09434E-08  1.07426E-08  1.03113E-08  9.94050E-09  9.62695E-09
   9.32056E-09  8.89531E-09  8.27183E-09  7.69283E-09  7.35006E-09  7.11703E-09  6.94018E-09  6.78204E-09  6.62156E-09  6.45846E-09
   6.30764E-09  6.18569E-09  6.09870E-09  6.03314E-09  5.99666E-09  6.06428E-09  6.26200E-09  6.60186E-09  7.12088E-09  7.78247E-09
   8.51766E-09  9.29111E-09  1.00156E-08  1.05567E-08  1.08774E-08  1.09477E-08  1.07954E-08  1.05408E-08  9.98204E-09  9.13036E-09
   8.50703E-09  8.04936E-09  7.53061E-09  7.16698E-09  7.13187E-09  7.33124E-09  7.70751E-09  8.38572E-09  9.36788E-09  1.06018E-08
   1.19058E-08  1.29661E-08  1.34420E-08  1.34070E-08  1.31299E-08  1.25839E-08  1.17564E-08  1.07784E-08  9.52448E-09  8.66326E-09
   8.12031E-09  7.72624E-09  7.41998E-09  7.16612E-09  6.95492E-09  6.77293E-09  6.61027E-09  6.46591E-09  6.33610E-09  6.21805E-09
   6.10958E-09  6.00887E-09  5.91483E-09  5.82655E-09  5.74319E-09  5.66420E-09  5.58885E-09  5.51666E-09  5.44723E-09  5.38018E-09
   5.31520E-09  5.25203E-09  5.19039E-09  5.13009E-09  5.07091E-09  5.01266E-09  4.95520E-09  4.89835E-09  4.84198E-09  4.78596E-09
   4.73016E-09  4.67447E-09  4.61878E-09  4.56300E-09  4.50700E-09  4.45073E-09  4.39406E-09  4.33694E-09  4.27927E-09  4.22097E-09
   4.16199E-09  4.10224E-09  4.04166E-09  3.98017E-09  3.91772E-09  3.85425E-09  3.78970E-09  3.72402E-09  3.65716E-09  3.58907E-09
   3.51970E-09  3.44900E-09  3.37697E-09  3.30356E-09  3.22873E-09  3.15248E-09  3.07479E-09  2.99568E-09  2.91515E-09  2.83325E-09
   2.74999E-09  2.66549E-09  2.57986E-09  2.49323E-09  2.40585E-09  2.31800E-09  2.23021E-09  2.14316E-09  2.05797E-09  1.97615E-09
   1.89991E-09  1.83266E-09  1.78003E-09  1.75218E-09  1.76996E-09  1.88553E-09  2.28637E-09  3.63129E-09  6.14841E-09  9.64061E-09
   1.32664E-08  1.57703E-08  1.64137E-08  1.55503E-08  1.40256E-08  1.22226E-08  9.73349E-09  6.11021E-09  2.21601E-09  5.22552E-10
  -6.64973E-11 -3.94003E-10 -6.24744E-10 -8.08952E-10 -9.66910E-10 -1.10822E-09 -1.23804E-09 -1.35927E-09 -1.47365E-09 -1.58228E-09
  -1.68584E-09 -1.78476E-09 -1.87931E-09 -1.96964E-09 -2.05584E-09 -2.13795E-09 -2.21595E-09 -2.28979E-09 -2.35944E-09 -2.42481E-09
  -2.48583E-09 -2.54239E-09 -2.59441E-09 -2.64179E-09 -2.68441E-09 -2.72218E-09 -2.75497E-09 -2.78270E-09 -2.80529E-09 -2.82291E-09
  -2.83571E-09 -2.84385E-09 -2.84750E-09 -2.84682E-09 -2.84198E-09 -2.83312E-09 -2.82042E-09 -2.80402E-09 -2.78410E-09 -2.76081E-09
  -2.73430E-09 -2.70473E-09 -2.67227E-09 -2.63706E-09 -2.59926E-09 -2.55903E-09 -2.51651E-09 -2.47188E-09 -2.42527E-09 -2.37683E-09
  -2.32673E-09 -2.27510E-09 -2.22210E-09 -2.16787E-09 -2.11257E-09 -2.05634E-09 -1.99933E-09 -1.94167E-09 -1.88351E-09 -1.82500E-09
  -1.76626E-09 -1.70745E-09 -1.64870E-09 -1.59015E-09 -1.53193E-09 -1.47417E-09 -1.41701E-09 -1.36058E-09 -1.30500E-09 -1.25040E-09
  -1.19692E-09 -1.14467E-09 -1.09377E-09 -1.04434E-09 -9.96520E-10 -9.50395E-10 -9.06102E-10 -8.63745E-10 -8.23435E-10 -7.85288E-10
  -7.49311E-10 -7.15441E-10 -6.83603E-10 -6.53713E-10 -6.25696E-10 -5.99479E-10 -5.74982E-10 -5.52134E-10 -5.30855E-10 -5.11074E-10
  -4.92721E-10 -4.75716E-10 -4.59997E-10 -4.45480E-10 -4.32098E-10 -4.19791E-10 -4.08478E-10 -3.98097E-10 -3.88573E-10 -3.79852E-10
  -3.71854E-10 -3.64530E-10 -3.57794E-10 -3.51597E-10 -3.45882E-10 -3.40581E-10 -3.35625E-10 -3.30965E-10 -3.26545E-10 -3.22306E-10
  -3.18186E-10 -3.14129E-10 -3.10082E-10 -3.06005E-10 -3.01828E-10 -2.97516E-10 -2.93004E-10 -2.88253E-10 -2.83211E-10 -2.77842E-10
  -2.72097E-10 -2.65917E-10 -2.59287E-10 -2.52142E-10 -2.44454E-10 -2.36191E-10 -2.27308E-10 -2.17758E-10 -2.07535E-10 -1.96578E-10
  -1.84876E-10 -1.72404E-10 -1.59159E-10 -1.45195E-10 -1.30555E-10 -1.15279E-10 -9.94089E-11 -8.29847E-11 -6.60468E-11 -4.86346E-11
  -3.07869E-11 -1.25433E-11  6.05851E-12  2.49810E-11  4.41866E-11  6.36389E-11  8.33015E-11  1.03139E-10  1.23116E-10  1.43197E-10
   1.63350E-10  1.83541E-10  2.03736E-10  2.23904E-10  2.44012E-10  2.64030E-10  2.83928E-10  3.03674E-10  3.23241E-10  3.42599E-10
   3.61720E-10  3.80577E-10  3.99142E-10  4.17392E-10  4.35298E-10  4.52838E-10  4.69986E-10  4.86720E-10  5.03017E-10  5.18855E-10
   5.34213E-10  5.49070E-10  5.63406E-10  5.77202E-10  5.90440E-10  6.03102E-10  6.15171E-10  6.26630E-10  6.37464E-10  6.47659E-10
   6.57200E-10  6.66075E-10  6.74270E-10
 NY background values follow
     5.581E-09    5.593E-09    5.604E-09    5.613E-09    5.622E-09    5.630E-09    5.636E-09    5.642E-09    5.647E-09    5.651E-09
     5.654E-09    5.656E-09    5.657E-09    5.658E-09    5.657E-09    5.656E-09    5.654E-09    5.651E-09    5.647E-09    5.643E-09
     5.637E-09    5.631E-09    5.625E-09    5.617E-09    5.609E-09    5.600E-09    5.591E-09    5.581E-09    5.570E-09    5.559E-09
     5.547E-09    5.535E-09    5.522E-09    5.508E-09    5.494E-09    5.480E-09    5.465E-09    5.450E-09    5.434E-09    5.418E-09
     5.402E-09    5.385E-09    5.368E-09    5.351E-09    5.334E-09    5.316E-09    5.298E-09    5.280E-09    5.261E-09    5.243E-09
     5.224E-09    5.206E-09    5.187E-09    5.168E-09    5.150E-09    5.131E-09    5.112E-09    5.093E-09    5.075E-09    5.056E-09
     5.037E-09    5.018E-09    4.999E-09    4.980E-09    4.961E-09    4.942E-09    4.923E-09    4.904E-09    4.885E-09    4.866E-09
     4.847E-09    4.828E-09    4.809E-09    4.790E-09    4.770E-09    4.751E-09    4.732E-09    4.713E-09    4.693E-09    4.674E-09
     4.655E-09    4.635E-09    4.615E-09    4.596E-09    4.576E-09    4.557E-09    4.537E-09    4.517E-09    4.497E-09    4.477E-09
     4.457E-09    4.436E-09    4.416E-09    4.396E-09    4.375E-09    4.354E-09    4.334E-09    4.313E-09    4.292E-09    4.270E-09
     4.249E-09    4.227E-09    4.206E-09    4.184E-09    4.162E-09    4.139E-09    4.117E-09    4.094E-09    4.071E-09    4.047E-09
     4.023E-09    3.999E-09    3.974E-09    3.948E-09    3.922E-09    3.896E-09    3.868E-09    3.840E-09    3.811E-09    3.781E-09
     3.751E-09    3.719E-09    3.687E-09    3.653E-09    3.619E-09    3.583E-09    3.547E-09    3.509E-09    3.470E-09    3.429E-09
     3.387E-09    3.344E-09    3.300E-09    3.254E-09    3.206E-09    3.157E-09    3.106E-09    3.054E-09    3.000E-09    2.944E-09
     2.886E-09    2.827E-09    2.766E-09    2.702E-09    2.637E-09    2.570E-09    2.500E-09    2.429E-09    2.355E-09    2.280E-09
     2.202E-09    2.121E-09    2.039E-09    1.953E-09    1.866E-09    1.776E-09    1.684E-09    1.589E-09    1.492E-09    1.393E-09
     1.291E-09    1.189E-09    1.084E-09    9.781E-10    8.707E-10    7.622E-10    6.527E-10    5.423E-10    4.312E-10    3.195E-10
     2.075E-10    9.511E-11   -1.733E-11   -1.297E-10   -2.419E-10   -3.537E-10   -4.650E-10   -5.757E-10   -6.855E-10   -7.944E-10
    -9.021E-10   -1.009E-09   -1.114E-09   -1.217E-09   -1.319E-09   -1.419E-09   -1.516E-09   -1.612E-09   -1.705E-09   -1.796E-09
    -1.884E-09   -1.970E-09   -2.052E-09   -2.132E-09   -2.208E-09   -2.281E-09   -2.350E-09   -2.416E-09   -2.478E-09   -2.536E-09
    -2.590E-09   -2.640E-09   -2.686E-09   -2.727E-09   -2.764E-09   -2.796E-09   -2.823E-09   -2.846E-09   -2.863E-09   -2.876E-09
    -2.883E-09   -2.886E-09   -2.885E-09   -2.880E-09   -2.870E-09   -2.857E-09   -2.840E-09   -2.819E-09   -2.795E-09   -2.767E-09
    -2.736E-09   -2.703E-09   -2.666E-09   -2.627E-09   -2.585E-09   -2.541E-09   -2.494E-09   -2.446E-09   -2.395E-09   -2.343E-09
    -2.289E-09   -2.234E-09   -2.177E-09   -2.120E-09   -2.061E-09   -2.001E-09   -1.940E-09   -1.879E-09   -1.818E-09   -1.756E-09
    -1.694E-09   -1.632E-09   -1.570E-09   -1.508E-09   -1.446E-09   -1.386E-09   -1.325E-09   -1.266E-09   -1.207E-09   -1.149E-09
    -1.093E-09   -1.038E-09   -9.837E-10   -9.314E-10   -8.806E-10   -8.316E-10   -7.845E-10   -7.393E-10   -6.961E-10   -6.552E-10
    -6.165E-10   -5.799E-10   -5.453E-10   -5.127E-10   -4.821E-10   -4.532E-10   -4.261E-10   -4.006E-10   -3.768E-10   -3.545E-10
    -3.336E-10   -3.141E-10   -2.959E-10   -2.789E-10   -2.631E-10   -2.483E-10   -2.346E-10   -2.218E-10   -2.100E-10   -1.989E-10
    -1.886E-10   -1.789E-10   -1.699E-10   -1.614E-10   -1.535E-10   -1.459E-10   -1.388E-10   -1.319E-10   -1.253E-10   -1.189E-10
    -1.126E-10   -1.065E-10   -1.003E-10   -9.413E-11   -8.788E-11   -8.150E-11   -7.495E-11   -6.817E-11   -6.112E-11   -5.375E-11
    -4.603E-11   -3.788E-11   -2.930E-11   -2.022E-11   -1.061E-11   -4.481E-13    1.032E-11    2.175E-11    3.383E-11    4.663E-11
     6.016E-11    7.445E-11    8.950E-11    1.053E-10    1.217E-10    1.387E-10    1.563E-10    1.745E-10    1.931E-10    2.123E-10
     2.318E-10    2.517E-10    2.720E-10    2.926E-10    3.134E-10    3.345E-10    3.558E-10    3.772E-10    3.988E-10    4.204E-10
     4.421E-10    4.639E-10    4.856E-10    5.073E-10    5.289E-10    5.505E-10    5.719E-10    5.931E-10    6.141E-10    6.349E-10
     6.555E-10    6.758E-10    6.958E-10    7.154E-10    7.348E-10    7.537E-10    7.722E-10    7.903E-10    8.080E-10    8.251E-10
     8.418E-10    8.580E-10    8.737E-10    8.888E-10    9.033E-10    9.172E-10    9.306E-10    9.433E-10    9.554E-10    9.668E-10
     9.776E-10    9.877E-10    9.971E-10
 Glc      Conc. = 2.46E-10
   5.56099E-09  5.68161E-09  5.79895E-09  5.90822E-09  5.98764E-09  6.03323E-09  6.04026E-09  6.03379E-09  5.99723E-09  5.93905E-09
   5.89362E-09  5.85614E-09  5.82802E-09  5.82626E-09  5.85643E-09  5.92300E-09  6.03639E-09  6.19175E-09  6.34550E-09  6.46126E-09
   6.52999E-09  6.55706E-09  6.55317E-09  6.52466E-09  6.44950E-09  6.33779E-09  6.25078E-09  6.19264E-09  6.15407E-09  6.12410E-09
   6.08838E-09  6.05006E-09  6.01535E-09  5.97305E-09  5.92078E-09  5.87591E-09  5.83512E-09  5.79043E-09  5.74750E-09  5.70963E-09
   5.67516E-09  5.64287E-09  5.61229E-09  5.58297E-09  5.55462E-09  5.52710E-09  5.50022E-09  5.47393E-09  5.44813E-09  5.42278E-09
   5.39778E-09  5.37315E-09  5.34884E-09  5.32486E-09  5.30118E-09  5.27775E-09  5.25455E-09  5.23156E-09  5.20876E-09  5.18614E-09
   5.16368E-09  5.14138E-09  5.11920E-09  5.09716E-09  5.07524E-09  5.05341E-09  5.03169E-09  5.01005E-09  4.98850E-09  4.96703E-09
   4.94562E-09  4.92428E-09  4.90299E-09  4.88174E-09  4.86054E-09  4.83937E-09  4.81824E-09  4.79713E-09  4.77601E-09  4.75493E-09
   4.73384E-09  4.71277E-09  4.69166E-09  4.67055E-09  4.64944E-09  4.62828E-09  4.60709E-09  4.58586E-09  4.56458E-09  4.54326E-09
   4.52186E-09  4.50043E-09  4.47888E-09  4.45729E-09  4.43561E-09  4.41381E-09  4.39191E-09  4.36990E-09  4.34779E-09  4.32555E-09
   4.30321E-09  4.28068E-09  4.25802E-09  4.23522E-09  4.21222E-09  4.18905E-09  4.16565E-09  4.14198E-09  4.11799E-09  4.09365E-09
   4.06889E-09  4.04369E-09  4.01801E-09  3.99178E-09  3.96499E-09  3.93756E-09  3.90947E-09  3.88066E-09  3.85109E-09  3.82072E-09
   3.78949E-09  3.75737E-09  3.72431E-09  3.69026E-09  3.65516E-09  3.61900E-09  3.58169E-09  3.54322E-09  3.50351E-09  3.46254E-09
   3.42025E-09  3.37660E-09  3.33155E-09  3.28502E-09  3.23700E-09  3.18742E-09  3.13625E-09  3.08343E-09  3.02893E-09  2.97269E-09
   2.91467E-09  2.85481E-09  2.79309E-09  2.72946E-09  2.66384E-09  2.59622E-09  2.52656E-09  2.45479E-09  2.38089E-09  2.30482E-09
   2.22651E-09  2.14595E-09  2.06310E-09  1.97790E-09  1.89034E-09  1.80036E-09  1.70801E-09  1.61336E-09  1.51662E-09  1.41798E-09
   1.31767E-09  1.21596E-09  1.11322E-09  1.00999E-09  9.07286E-10  8.07564E-10  7.20092E-10  6.72082E-10  6.65691E-10  6.90572E-10
   7.10257E-10  6.78534E-10  5.76825E-10  4.27503E-10  2.61979E-10  8.73989E-11 -1.16918E-10 -3.62958E-10 -6.03168E-10 -7.46935E-10
  -8.67753E-10 -9.80949E-10 -1.09008E-09 -1.19629E-09 -1.30002E-09 -1.40136E-09 -1.50037E-09 -1.59700E-09 -1.69113E-09 -1.78267E-09
  -1.87150E-09 -1.95750E-09 -2.04054E-09 -2.12046E-09 -2.19716E-09 -2.27050E-09 -2.34033E-09 -2.40651E-09 -2.46894E-09 -2.52745E-09
  -2.58192E-09 -2.63222E-09 -2.67821E-09 -2.71978E-09 -2.75678E-09 -2.78910E-09 -2.81659E-09 -2.83916E-09 -2.85673E-09 -2.86943E-09
  -2.87743E-09 -2.88087E-09 -2.87991E-09 -2.87471E-09 -2.86543E-09 -2.85221E-09 -2.83522E-09 -2.81461E-09 -2.79053E-09 -2.76315E-09
  -2.73261E-09 -2.69907E-09 -2.66269E-09 -2.62362E-09 -2.58201E-09 -2.53802E-09 -2.49179E-09 -2.44348E-09 -2.39325E-09 -2.34124E-09
  -2.28759E-09 -2.23247E-09 -2.17601E-09 -2.11836E-09 -2.05968E-09 -2.00011E-09 -1.93979E-09 -1.87885E-09 -1.81746E-09 -1.75574E-09
  -1.69384E-09 -1.63189E-09 -1.57004E-09 -1.50841E-09 -1.44714E-09 -1.38637E-09 -1.32623E-09 -1.26684E-09 -1.20833E-09 -1.15084E-09
  -1.09448E-09 -1.03938E-09 -9.85672E-10 -9.33452E-10 -8.82863E-10 -8.33998E-10 -7.86990E-10 -7.41942E-10 -6.98966E-10 -6.58176E-10
  -6.19580E-10 -5.83113E-10 -5.48703E-10 -5.16262E-10 -4.85718E-10 -4.56995E-10 -4.30014E-10 -4.04704E-10 -3.80984E-10 -3.58783E-10
  -3.38031E-10 -3.18648E-10 -3.00570E-10 -2.83714E-10 -2.68014E-10 -2.53407E-10 -2.39813E-10 -2.27171E-10 -2.15404E-10 -2.04459E-10
  -1.94255E-10 -1.84743E-10 -1.75838E-10 -1.67489E-10 -1.59640E-10 -1.52222E-10 -1.45166E-10 -1.38423E-10 -1.31937E-10 -1.25649E-10
  -1.19496E-10 -1.13422E-10 -1.07375E-10 -1.01314E-10 -9.51680E-11 -8.89033E-11 -8.24544E-11 -7.57816E-11 -6.88337E-11 -6.15734E-11
  -5.39520E-11 -4.59104E-11 -3.74328E-11 -2.84564E-11 -1.89501E-11 -8.88370E-12  1.78924E-12  1.31137E-11  2.50983E-11  3.78025E-11
   5.12384E-11  6.54309E-11  8.03824E-11  9.60391E-11  1.12359E-10  1.29302E-10  1.46826E-10  1.64891E-10  1.83458E-10  2.02485E-10
   2.21936E-10  2.41770E-10  2.61949E-10  2.82437E-10  3.03196E-10  3.24189E-10  3.45380E-10  3.66734E-10  3.88216E-10  4.09791E-10
   4.31425E-10  4.53086E-10  4.74739E-10  4.96353E-10  5.17897E-10  5.39338E-10  5.60648E-10  5.81796E-10  6.02752E-10  6.23489E-10
   6.43978E-10  6.64192E-10  6.84104E-10  7.03689E-10  7.22920E-10  7.41774E-10  7.60227E-10  7.78254E-10  7.95833E-10  8.12943E-10
   8.29563E-10  8.45671E-10  8.61248E-10  8.76274E-10  8.90732E-10  9.04604E-10  9.17873E-10  9.30522E-10  9.42536E-10  9.53902E-10
   9.64603E-10  9.74629E-10  9.83965E-10
 Gln      Conc. = 1.82E-09
   4.57419E-09  4.83377E-09  5.21945E-09  5.72176E-09  6.27512E-09  6.79429E-09  7.21726E-09  7.49922E-09  7.62804E-09  7.65556E-09
   7.53990E-09  7.20655E-09  7.00426E-09  6.74973E-09  6.50716E-09  6.33696E-09  6.20930E-09  6.10770E-09  6.02335E-09  5.95101E-09
   5.88738E-09  5.83020E-09  5.77789E-09  5.72938E-09  5.68399E-09  5.64121E-09  5.60023E-09  5.56059E-09  5.52220E-09  5.48453E-09
   5.44729E-09  5.41035E-09  5.37350E-09  5.33662E-09  5.29958E-09  5.26227E-09  5.22457E-09  5.18636E-09  5.14757E-09  5.10807E-09
   5.06771E-09  5.02639E-09  4.98411E-09  4.94082E-09  4.89647E-09  4.85101E-09  4.80432E-09  4.75612E-09  4.70628E-09  4.65521E-09
   4.60310E-09  4.55095E-09  4.50138E-09  4.46128E-09  4.45584E-09  4.56331E-09  4.81617E-09  5.21109E-09  5.77006E-09  6.43131E-09
   7.12280E-09  7.82203E-09  8.42845E-09  8.80883E-09  8.88912E-09  8.67898E-09  8.29644E-09  7.93386E-09  7.38099E-09  6.65479E-09
   6.19346E-09  5.91432E-09  5.67413E-09  5.62534E-09  5.76222E-09  6.08124E-09  6.51097E-09  6.99758E-09  7.50575E-09  7.97000E-09
   8.33735E-09  8.56326E-09  8.54063E-09  8.37544E-09  8.18665E-09  7.81470E-09  7.33345E-09  7.01075E-09  6.66990E-09  6.34008E-09
   6.09789E-09  5.90953E-09  5.75661E-09  5.62855E-09  5.51734E-09  5.41896E-09  5.33104E-09  5.25127E-09  5.17808E-09  5.11052E-09
   5.04758E-09  4.98822E-09  4.93198E-09  4.87848E-09  4.82733E-09  4.77834E-09  4.73105E-09  4.68519E-09  4.64054E-09  4.59690E-09
   4.55409E-09  4.51194E-09  4.47032E-09  4.42908E-09  4.38811E-09  4.34727E-09  4.30648E-09  4.26562E-09  4.22460E-09  4.18334E-09
   4.14174E-09  4.09972E-09  4.05721E-09  4.01413E-09  3.97040E-09  3.92597E-09  3.88074E-09  3.83467E-09  3.78768E-09  3.73971E-09
   3.69070E-09  3.64059E-09  3.58933E-09  3.53684E-09  3.48308E-09  3.42798E-09  3.37151E-09  3.31359E-09  3.25419E-09  3.19325E-09
   3.13071E-09  3.06653E-09  3.00068E-09  2.93310E-09  2.86372E-09  2.79255E-09  2.71951E-09  2.64459E-09  2.56774E-09  2.48896E-09
   2.40818E-09  2.32543E-09  2.24069E-09  2.15394E-09  2.06524E-09  1.97458E-09  1.88213E-09  1.78807E-09  1.69280E-09  1.59678E-09
   1.50063E-09  1.40522E-09  1.31190E-09  1.22291E-09  1.14251E-09  1.08017E-09  1.06386E-09  1.22259E-09  1.67735E-09  2.40952E-09
   3.26848E-09  3.95216E-09  4.19951E-09  4.00390E-09  3.56610E-09  3.04662E-09  2.40538E-09  1.49757E-09  3.90717E-10 -3.47910E-10
  -6.23928E-10 -8.01774E-10 -9.45739E-10 -1.07362E-09 -1.19214E-09 -1.30428E-09 -1.41157E-09 -1.51481E-09 -1.61439E-09 -1.71055E-09
  -1.80339E-09 -1.89292E-09 -1.97914E-09 -2.06196E-09 -2.14133E-09 -2.21714E-09 -2.28930E-09 -2.35768E-09 -2.42219E-09 -2.48269E-09
  -2.53907E-09 -2.59120E-09 -2.63897E-09 -2.68225E-09 -2.72092E-09 -2.75485E-09 -2.78392E-09 -2.80804E-09 -2.82711E-09 -2.84129E-09
  -2.85073E-09 -2.85559E-09 -2.85602E-09 -2.85218E-09 -2.84424E-09 -2.83234E-09 -2.81665E-09 -2.79731E-09 -2.77450E-09 -2.74835E-09
  -2.71904E-09 -2.68671E-09 -2.65152E-09 -2.61362E-09 -2.57316E-09 -2.53031E-09 -2.48521E-09 -2.43802E-09 -2.38889E-09 -2.33796E-09
