 LCModel (Version 6.3-1R) Copyright: S.W. Provencher.          Ref.: Magn. Reson. Med. 30:672-679 (1993).                
 onepulse 17x16_ftSpec_smooth_lcm
 26 lines in following concentration table = NCONC+1
    Conc.  %SD   /Cr    Metabolite                                         
 5.56E-11 280%   0.000 Ala                                                 
 1.06E-10 392%   0.000 Asp                                                 
    0.000 999%   0.000 Cr                                                  
 2.54E-09  11%   0.000 GABA                                                
 1.03E-09  26%   0.000 Glc                                                 
    0.000 999%   0.000 Gln                                                 
 2.25E-10 139%   0.000 Glu                                                 
    0.000 999%   0.000 Glyc                                                
    0.000 999%   0.000 GPC                                                 
    0.000 999%   0.000 GSH                                                 
 2.34E-10  76%   0.000 Ins                                                 
    0.000 999%   0.000 Lac                                                 
    0.000 999%   0.000 NAAG                                                
 9.39E-10  14%   0.000 NAA                                                 
 1.04E-10  43%   0.000 PCh                                                 
    0.000 999%   0.000 PCr                                                 
    0.000 999%   0.000 PE                                                  
    0.000 999%   0.000 Scyllo                                              
 1.01E-09  61%   0.000 Ser                                                 
    0.000 999%   0.000 Tau                                                 
 1.04E-10  43%   0.000 GPC+PCh                                             
 9.39E-10  14%   0.000 NAA+NAAG                                            
 2.34E-10  76%   0.000 Ins+Glyc                                            
    0.000 999%   0.000 Cr+PCr                                              
 2.25E-10 139%   0.000 Glu+Gln                                             
   6 lines in following misc. output table
  FWHM = 0.078 ppm    S/N =   5                                            
  Data shift = 0.347 ppm                                                   
  Ph:  68 deg      25.5 deg/ppm                                            
  alphaB,S = 1.6E-01,   7.5E+01                                            
   16 spline knots.   Ns = 5(1)                                            
  ( 7) 2 infls.   ( 3) 1 extrs.                                            
  363 points on ppm-axis = NY
      4.250000     4.238821     4.227641     4.216462     4.205282     4.194103     4.182923     4.171744     4.160564     4.149385
      4.138206     4.127026     4.115847     4.104667     4.093488     4.082308     4.071129     4.059949     4.048770     4.037591
      4.026411     4.015232     4.004052     3.992873     3.981693     3.970514     3.959334     3.948155     3.936975     3.925796
      3.914617     3.903437     3.892258     3.881078     3.869899     3.858719     3.847540     3.836360     3.825181     3.814002
      3.802822     3.791643     3.780463     3.769284     3.758104     3.746925     3.735745     3.724566     3.713387     3.702207
      3.691028     3.679848     3.668669     3.657489     3.646310     3.635130     3.623951     3.612772     3.601592     3.590413
      3.579233     3.568054     3.556874     3.545695     3.534515     3.523336     3.512156     3.500977     3.489798     3.478618
      3.467439     3.456259     3.445080     3.433900     3.422721     3.411541     3.400362     3.389183     3.378003     3.366824
      3.355644     3.344465     3.333285     3.322106     3.310926     3.299747     3.288568     3.277388     3.266209     3.255029
      3.243850     3.232670     3.221491     3.210311     3.199132     3.187953     3.176773     3.165594     3.154414     3.143235
      3.132055     3.120876     3.109696     3.098517     3.087337     3.076158     3.064979     3.053799     3.042620     3.031440
      3.020261     3.009081     2.997902     2.986722     2.975543     2.964364     2.953184     2.942005     2.930825     2.919646
      2.908466     2.897287     2.886107     2.874928     2.863749     2.852569     2.841390     2.830210     2.819031     2.807851
      2.796672     2.785492     2.774313     2.763134     2.751954     2.740775     2.729595     2.718416     2.707236     2.696057
      2.684877     2.673698     2.662519     2.651339     2.640160     2.628980     2.617801     2.606621     2.595442     2.584262
      2.573083     2.561903     2.550724     2.539545     2.528365     2.517186     2.506006     2.494827     2.483647     2.472468
      2.461288     2.450109     2.438930     2.427750     2.416571     2.405391     2.394212     2.383032     2.371853     2.360673
      2.349494     2.338315     2.327135     2.315956     2.304776     2.293597     2.282417     2.271238     2.260058     2.248879
      2.237700     2.226520     2.215341     2.204161     2.192982     2.181802     2.170623     2.159443     2.148264     2.137084
      2.125905     2.114726     2.103546     2.092367     2.081187     2.070008     2.058828     2.047649     2.036469     2.025290
      2.014111     2.002931     1.991752     1.980572     1.969393     1.958213     1.947034     1.935854     1.924675     1.913496
      1.902316     1.891137     1.879957     1.868778     1.857598     1.846419     1.835239     1.824060     1.812881     1.801701
      1.790522     1.779342     1.768163     1.756983     1.745804     1.734624     1.723445     1.712265     1.701086     1.689907
      1.678727     1.667548     1.656368     1.645189     1.634009     1.622830     1.611650     1.600471     1.589292     1.578112
      1.566933     1.555753     1.544574     1.533394     1.522215     1.511035     1.499856     1.488677     1.477497     1.466318
      1.455138     1.443959     1.432779     1.421600     1.410420     1.399241     1.388062     1.376882     1.365703     1.354523
      1.343344     1.332164     1.320985     1.309805     1.298626     1.287446     1.276267     1.265088     1.253908     1.242729
      1.231549     1.220370     1.209190     1.198011     1.186831     1.175652     1.164473     1.153293     1.142114     1.130934
      1.119755     1.108575     1.097396     1.086216     1.075037     1.063858     1.052678     1.041499     1.030319     1.019140
      1.007960     0.996781     0.985601     0.974422     0.963243     0.952063     0.940884     0.929704     0.918525     0.907345
      0.896166     0.884986     0.873807     0.862628     0.851448     0.840269     0.829089     0.817910     0.806730     0.795551
      0.784371     0.773192     0.762012     0.750833     0.739654     0.728474     0.717295     0.706115     0.694936     0.683756
      0.672577     0.661397     0.650218     0.639039     0.627859     0.616680     0.605500     0.594321     0.583141     0.571962
      0.560782     0.549603     0.538424     0.527244     0.516065     0.504885     0.493706     0.482526     0.471347     0.460167
      0.448988     0.437809     0.426629     0.415450     0.404270     0.393091     0.381911     0.370732     0.359552     0.348373
      0.337193     0.326014     0.314835     0.303655     0.292476     0.281296     0.270117     0.258937     0.247758     0.236578
      0.225399     0.214220     0.203040
 NY phased data points follow
   1.20564E-08  1.34009E-08  1.32002E-08  1.29004E-08  1.07499E-08  1.04911E-08  9.94516E-09  9.42073E-09  8.42436E-09  9.35366E-09
   8.91080E-09  9.18351E-09  9.32575E-09  9.90604E-09  1.00531E-08  1.02294E-08  1.02743E-08  1.01823E-08  9.58096E-09  9.72772E-09
   9.30621E-09  9.00378E-09  8.13216E-09  9.16584E-09  9.58069E-09  1.11758E-08  9.98132E-09  9.66737E-09  8.96223E-09  9.79316E-09
   9.05927E-09  1.07955E-08  1.17022E-08  1.30382E-08  1.17045E-08  1.17406E-08  1.00585E-08  8.60369E-09  8.40238E-09  8.23240E-09
   7.74861E-09  7.37180E-09  7.04615E-09  6.93002E-09  6.68481E-09  7.06014E-09  6.14629E-09  5.96994E-09  4.80662E-09  5.71030E-09
   5.79365E-09  6.03475E-09  5.76819E-09  5.95532E-09  4.88129E-09  5.30662E-09  4.86780E-09  4.95082E-09  4.46237E-09  4.86107E-09
   4.76676E-09  6.16532E-09  8.03858E-09  1.20409E-08  1.39316E-08  1.37475E-08  1.13292E-08  1.02472E-08  8.39447E-09  8.25173E-09
   7.51064E-09  6.83252E-09  5.72300E-09  5.82415E-09  5.32328E-09  4.02324E-09  3.52980E-09  5.10042E-09  6.46563E-09  8.79287E-09
   1.20051E-08  1.38628E-08  1.24985E-08  1.19654E-08  1.00678E-08  9.16001E-09  8.90361E-09  7.82639E-09  7.86685E-09  7.78535E-09
   7.55631E-09  6.88432E-09  6.55881E-09  6.39204E-09  5.68626E-09  5.29636E-09  5.07678E-09  5.09687E-09  3.85800E-09  4.43053E-09
   4.04302E-09  4.60513E-09  3.62365E-09  4.42601E-09  4.29515E-09  4.26645E-09  4.39387E-09  4.04920E-09  3.64186E-09  3.18031E-09
   2.19722E-09  2.78226E-09  2.64361E-09  3.35636E-09  3.36404E-09  3.63363E-09  3.45821E-09  3.74123E-09  3.92489E-09  4.60862E-09
   4.16190E-09  4.19358E-09  3.94584E-09  3.18232E-09  2.07394E-09  2.09074E-09  2.40155E-09  2.14671E-09  2.24068E-09  2.63161E-09
   2.74439E-09  2.62116E-09  2.49625E-09  3.57702E-09  2.41409E-09  2.99804E-09  1.84335E-09  1.68742E-09  1.76839E-09  3.07005E-09
   3.03662E-09  4.38500E-09  4.16729E-09  3.39243E-09  2.95926E-09  4.04661E-09  3.99094E-09  4.36056E-09  4.10055E-09  3.85889E-09
   3.31839E-09  3.84029E-09  3.11337E-09  3.64048E-09  3.44995E-09  3.46998E-09  3.53181E-09  3.15772E-09  3.34045E-09  4.38180E-09
   4.08474E-09  4.37694E-09  3.54437E-09  3.75067E-09  3.32333E-09  3.42517E-09  3.50904E-09  3.98361E-09  5.12161E-09  7.42208E-09
   1.03575E-08  1.46538E-08  1.61910E-08  1.46623E-08  1.15730E-08  9.57053E-09  7.44863E-09  7.31850E-09  6.05985E-09  4.81255E-09
   4.03097E-09  3.66866E-09  2.94742E-09  2.49821E-09  2.53486E-09  6.93207E-10  3.47688E-10  1.98019E-10 -1.47042E-09 -1.81340E-09
  -2.94914E-09 -3.65899E-09 -4.11354E-09 -4.46031E-09 -6.22715E-09 -6.72909E-09 -6.85453E-09 -7.21860E-09 -8.03767E-09 -8.30011E-09
  -8.13342E-09 -7.96899E-09 -7.48825E-09 -7.15524E-09 -7.13194E-09 -5.86644E-09 -5.41527E-09 -4.67044E-09 -4.08358E-09 -3.68408E-09
  -2.57164E-09 -1.90060E-09 -1.40836E-09 -1.41445E-09 -1.14493E-09 -7.17748E-10 -1.69177E-09 -8.98372E-10 -7.21031E-10 -1.36535E-09
  -1.88461E-09 -9.75226E-10 -4.17129E-10 -1.08273E-09 -1.22224E-09  4.00958E-10 -1.44223E-09 -5.25854E-10 -1.15549E-09 -3.69224E-10
  -1.12879E-09 -8.50478E-10 -1.25652E-09 -1.08334E-09 -5.59846E-10 -2.73132E-10 -9.18539E-10  1.43410E-10 -6.86939E-10 -1.02056E-09
  -8.76380E-10 -9.07859E-10 -1.74173E-10 -7.26331E-10 -1.19569E-09 -6.75050E-10  2.86843E-11 -9.45549E-10 -4.73890E-10 -1.87200E-10
  -9.72693E-10  6.05479E-10 -2.57951E-10  4.33263E-10  3.21140E-10 -9.86933E-11 -1.01829E-10 -6.53285E-10 -9.93204E-10 -3.79309E-10
  -9.48499E-10 -1.37071E-09 -1.30968E-09 -1.06960E-09 -1.65491E-09 -6.20714E-10 -9.84842E-10  5.04631E-11  4.73881E-12 -3.47794E-12
   5.63600E-10  7.80795E-10  3.32564E-10  9.70972E-10  6.12766E-10  4.38117E-10  7.37287E-10  4.12322E-10  1.60572E-10  3.54489E-12
  -9.20170E-11  1.24277E-10 -6.02624E-10 -5.73359E-10 -2.73056E-10 -1.75668E-10 -3.97048E-10 -3.70732E-10 -1.43302E-09 -4.98975E-10
  -3.92343E-10 -7.28856E-10 -1.10380E-09 -3.61298E-10 -6.89387E-10 -3.05108E-10 -8.82765E-10 -3.28011E-10 -7.62365E-10 -7.81572E-10
  -7.71738E-11 -7.38912E-10 -1.23990E-09 -2.42173E-10 -6.75336E-10 -6.10706E-10 -1.15044E-09 -6.07757E-10 -1.71198E-10 -2.11794E-10
  -9.69055E-10 -4.14017E-10 -5.06357E-10 -1.75841E-10 -4.95718E-10 -1.53212E-10 -4.83453E-10 -1.94646E-10 -5.15914E-10  3.11531E-10
  -3.81034E-10  9.29140E-11 -2.91544E-10  1.60566E-10 -1.96351E-10  1.41605E-11  1.67042E-10  1.29607E-10  5.86507E-11  1.31880E-10
  -8.54507E-11  5.00228E-11 -4.38814E-10  7.24521E-10 -1.75107E-11  5.40943E-10 -1.45017E-11  6.11734E-10 -1.79926E-11  4.42481E-10
   4.54573E-10  3.27744E-10  5.55205E-10  8.43640E-10 -2.09480E-11  6.87323E-10  2.62646E-10  5.19052E-10  3.33191E-10  9.33499E-10
   9.05324E-10  3.19299E-10  7.70453E-10  6.86402E-10  7.66765E-10  8.41475E-10  9.39688E-10  1.07859E-09  4.10496E-10  5.92556E-10
   1.06921E-09  6.93022E-10  1.53021E-09
 NY points of the fit to the data follow
   1.32729E-08  1.27953E-08  1.22509E-08  1.17175E-08  1.11144E-08  1.04334E-08  9.78758E-09  9.36601E-09  9.14860E-09  9.07282E-09
   9.15546E-09  9.28598E-09  9.41777E-09  9.55836E-09  9.72512E-09  9.91705E-09  1.01558E-08  1.03499E-08  1.03452E-08  1.01119E-08
   9.74619E-09  9.30753E-09  8.91004E-09  8.74206E-09  8.80493E-09  9.05807E-09  9.47054E-09  9.88936E-09  1.01831E-08  1.03629E-08
   1.04173E-08  1.05065E-08  1.07185E-08  1.08356E-08  1.08236E-08  1.08952E-08  1.08073E-08  1.03896E-08  9.69682E-09  8.87342E-09
   8.08409E-09  7.33792E-09  6.45366E-09  5.84657E-09  5.67571E-09  5.48884E-09  5.33152E-09  5.33680E-09  5.36509E-09  5.38943E-09
   5.44852E-09  5.55575E-09  5.70684E-09  5.85187E-09  5.96209E-09  6.02734E-09  6.08652E-09  6.15167E-09  6.26903E-09  6.48287E-09
   6.83912E-09  7.37025E-09  8.03624E-09  8.73766E-09  9.56931E-09  1.02899E-08  1.06983E-08  1.08160E-08  1.06135E-08  1.00447E-08
   9.21358E-09  8.22991E-09  7.28793E-09  6.62847E-09  6.03151E-09  5.55748E-09  5.75829E-09  6.57293E-09  7.72562E-09  9.25257E-09
   1.07696E-08  1.17643E-08  1.19979E-08  1.15256E-08  1.06075E-08  9.64146E-09  8.73378E-09  7.76281E-09  6.90250E-09  6.72669E-09
   6.61361E-09  6.48517E-09  6.19521E-09  5.72384E-09  5.37951E-09  5.07862E-09  4.65100E-09  4.34269E-09  4.16609E-09  3.99946E-09
   3.89354E-09  3.84581E-09  3.83045E-09  3.83550E-09  3.84442E-09  3.84735E-09  3.84203E-09  3.82617E-09  3.79648E-09  3.75206E-09
   3.69872E-09  3.65232E-09  3.62407E-09  3.59197E-09  3.56313E-09  3.55249E-09  3.54664E-09  3.54221E-09  3.53809E-09  3.53372E-09
   3.52884E-09  3.52323E-09  3.51674E-09  3.50925E-09  3.50065E-09  3.49085E-09  3.47978E-09  3.46737E-09  3.45356E-09  3.43828E-09
   3.42146E-09  3.40304E-09  3.38297E-09  3.36116E-09  3.33759E-09  3.31218E-09  3.28489E-09  3.25566E-09  3.22444E-09  3.19116E-09
   3.15575E-09  3.11820E-09  3.07841E-09  3.03634E-09  2.99192E-09  2.94510E-09  2.89582E-09  2.84404E-09  2.78971E-09  2.73279E-09
   2.67329E-09  2.61117E-09  2.54646E-09  2.47920E-09  2.40949E-09  2.33745E-09  2.26333E-09  2.18749E-09  2.11053E-09  2.03337E-09
   1.95755E-09  1.88569E-09  1.82258E-09  1.77764E-09  1.77246E-09  1.86918E-09  2.33682E-09  3.71697E-09  6.07405E-09  9.12231E-09
   1.22736E-08  1.46416E-08  1.54747E-08  1.46618E-08  1.26967E-08  1.02166E-08  7.52689E-09  4.68177E-09  2.20317E-09  9.81072E-10
   4.32342E-10  7.82702E-11 -1.92816E-10 -4.19126E-10 -6.17497E-10 -7.96529E-10 -9.60995E-10 -1.11370E-09 -1.25633E-09 -1.38991E-09
  -1.51506E-09 -1.63212E-09 -1.74121E-09 -1.84235E-09 -1.93546E-09 -2.02041E-09 -2.09712E-09 -2.16589E-09 -2.22706E-09 -2.28096E-09
  -2.32790E-09 -2.36817E-09 -2.40204E-09 -2.42979E-09 -2.45169E-09 -2.46798E-09 -2.47892E-09 -2.48476E-09 -2.48573E-09 -2.48209E-09
  -2.47406E-09 -2.46189E-09 -2.44579E-09 -2.42601E-09 -2.40277E-09 -2.37630E-09 -2.34682E-09 -2.31456E-09 -2.27974E-09 -2.24259E-09
  -2.20332E-09 -2.16215E-09 -2.11930E-09 -2.07500E-09 -2.02942E-09 -1.98270E-09 -1.93495E-09 -1.88628E-09 -1.83683E-09 -1.78671E-09
  -1.73604E-09 -1.68492E-09 -1.63348E-09 -1.58184E-09 -1.53009E-09 -1.47837E-09 -1.42679E-09 -1.37546E-09 -1.32448E-09 -1.27398E-09
  -1.22406E-09 -1.17484E-09 -1.12643E-09 -1.07893E-09 -1.03245E-09 -9.87112E-10 -9.43010E-10 -9.00256E-10 -8.58960E-10 -8.19231E-10
  -7.81156E-10 -7.44866E-10 -7.10382E-10 -6.77666E-10 -6.46675E-10 -6.17366E-10 -5.89684E-10 -5.63589E-10 -5.39029E-10 -5.15961E-10
  -4.94340E-10 -4.74114E-10 -4.55243E-10 -4.37676E-10 -4.21374E-10 -4.06285E-10 -3.92357E-10 -3.79563E-10 -3.67847E-10 -3.57161E-10
  -3.47460E-10 -3.38707E-10 -3.30847E-10 -3.23840E-10 -3.17649E-10 -3.12212E-10 -3.07505E-10 -3.03472E-10 -3.00075E-10 -2.97263E-10
  -2.94992E-10 -2.93207E-10 -2.91850E-10 -2.90867E-10 -2.90208E-10 -2.89814E-10 -2.89635E-10 -2.89615E-10 -2.89700E-10 -2.89843E-10
  -2.89985E-10 -2.90078E-10 -2.90070E-10 -2.89908E-10 -2.89544E-10 -2.88925E-10 -2.88003E-10 -2.86726E-10 -2.85049E-10 -2.82916E-10
  -2.80287E-10 -2.77108E-10 -2.73332E-10 -2.68917E-10 -2.63811E-10 -2.57970E-10 -2.51348E-10 -2.43900E-10 -2.35631E-10 -2.26563E-10
  -2.16719E-10 -2.06125E-10 -1.94807E-10 -1.82784E-10 -1.70084E-10 -1.56729E-10 -1.42744E-10 -1.28152E-10 -1.12977E-10 -9.72404E-11
  -8.09697E-11 -6.41831E-11 -4.69058E-11 -2.91634E-11 -1.09737E-11  7.63567E-12  2.66456E-11  4.60342E-11  6.57766E-11  8.58498E-11
   1.06237E-10  1.26912E-10  1.47856E-10  1.69044E-10  1.90456E-10  2.12074E-10  2.33878E-10  2.55852E-10  2.77982E-10  3.00251E-10
   3.22644E-10  3.45146E-10  3.67742E-10  3.90416E-10  4.13152E-10  4.35939E-10  4.58757E-10  4.81595E-10  5.04436E-10  5.27269E-10
   5.50078E-10  5.72847E-10  5.95565E-10  6.18215E-10  6.40787E-10  6.63264E-10  6.85635E-10  7.07886E-10  7.30004E-10  7.51974E-10
   7.73785E-10  7.95423E-10  8.16879E-10
 NY background values follow
     5.348E-09    5.320E-09    5.290E-09    5.261E-09    5.232E-09    5.202E-09    5.172E-09    5.143E-09    5.112E-09    5.082E-09
     5.052E-09    5.021E-09    4.990E-09    4.959E-09    4.928E-09    4.897E-09    4.865E-09    4.834E-09    4.802E-09    4.770E-09
     4.738E-09    4.706E-09    4.673E-09    4.641E-09    4.608E-09    4.575E-09    4.543E-09    4.509E-09    4.476E-09    4.443E-09
     4.409E-09    4.376E-09    4.342E-09    4.309E-09    4.275E-09    4.242E-09    4.209E-09    4.176E-09    4.143E-09    4.110E-09
     4.078E-09    4.046E-09    4.014E-09    3.983E-09    3.952E-09    3.922E-09    3.892E-09    3.863E-09    3.834E-09    3.806E-09
     3.779E-09    3.752E-09    3.726E-09    3.701E-09    3.677E-09    3.654E-09    3.632E-09    3.610E-09    3.590E-09    3.570E-09
     3.551E-09    3.533E-09    3.516E-09    3.500E-09    3.485E-09    3.470E-09    3.456E-09    3.443E-09    3.430E-09    3.418E-09
     3.407E-09    3.397E-09    3.387E-09    3.377E-09    3.368E-09    3.360E-09    3.352E-09    3.345E-09    3.338E-09    3.331E-09
     3.325E-09    3.319E-09    3.314E-09    3.308E-09    3.303E-09    3.299E-09    3.294E-09    3.290E-09    3.286E-09    3.282E-09
     3.279E-09    3.275E-09    3.271E-09    3.268E-09    3.265E-09    3.261E-09    3.258E-09    3.255E-09    3.251E-09    3.248E-09
     3.244E-09    3.240E-09    3.236E-09    3.232E-09    3.228E-09    3.224E-09    3.219E-09    3.214E-09    3.209E-09    3.203E-09
     3.197E-09    3.191E-09    3.184E-09    3.177E-09    3.169E-09    3.161E-09    3.153E-09    3.143E-09    3.133E-09    3.122E-09
     3.110E-09    3.098E-09    3.084E-09    3.069E-09    3.054E-09    3.037E-09    3.019E-09    3.000E-09    2.979E-09    2.957E-09
     2.934E-09    2.909E-09    2.883E-09    2.855E-09    2.825E-09    2.794E-09    2.761E-09    2.726E-09    2.690E-09    2.651E-09
     2.610E-09    2.568E-09    2.523E-09    2.476E-09    2.427E-09    2.375E-09    2.321E-09    2.265E-09    2.206E-09    2.144E-09
     2.080E-09    2.013E-09    1.943E-09    1.870E-09    1.794E-09    1.716E-09    1.634E-09    1.549E-09    1.460E-09    1.369E-09
     1.274E-09    1.175E-09    1.074E-09    9.681E-10    8.590E-10    7.462E-10    6.296E-10    5.092E-10    3.850E-10    2.572E-10
     1.263E-10   -7.304E-12   -1.432E-10   -2.810E-10   -4.203E-10   -5.607E-10   -7.017E-10   -8.430E-10   -9.842E-10   -1.125E-09
    -1.264E-09   -1.403E-09   -1.539E-09   -1.674E-09   -1.805E-09   -1.934E-09   -2.060E-09   -2.181E-09   -2.299E-09   -2.412E-09
    -2.520E-09   -2.622E-09   -2.719E-09   -2.810E-09   -2.894E-09   -2.971E-09   -3.040E-09   -3.103E-09   -3.159E-09   -3.208E-09
    -3.251E-09   -3.288E-09   -3.318E-09   -3.343E-09   -3.363E-09   -3.376E-09   -3.385E-09   -3.389E-09   -3.389E-09   -3.383E-09
    -3.374E-09   -3.361E-09   -3.343E-09   -3.323E-09   -3.298E-09   -3.271E-09   -3.241E-09   -3.208E-09   -3.173E-09   -3.135E-09
    -3.095E-09   -3.053E-09   -3.010E-09   -2.965E-09   -2.919E-09   -2.872E-09   -2.824E-09   -2.775E-09   -2.725E-09   -2.675E-09
    -2.624E-09   -2.573E-09   -2.521E-09   -2.469E-09   -2.417E-09   -2.365E-09   -2.313E-09   -2.261E-09   -2.210E-09   -2.159E-09
    -2.109E-09   -2.060E-09   -2.011E-09   -1.963E-09   -1.917E-09   -1.871E-09   -1.827E-09   -1.783E-09   -1.742E-09   -1.702E-09
    -1.663E-09   -1.627E-09   -1.592E-09   -1.559E-09   -1.527E-09   -1.498E-09   -1.470E-09   -1.443E-09   -1.418E-09   -1.395E-09
    -1.373E-09   -1.352E-09   -1.332E-09   -1.314E-09   -1.298E-09   -1.282E-09   -1.267E-09   -1.254E-09   -1.242E-09   -1.231E-09
    -1.220E-09   -1.211E-09   -1.202E-09   -1.195E-09   -1.188E-09   -1.182E-09   -1.176E-09   -1.172E-09   -1.168E-09   -1.164E-09
    -1.161E-09   -1.158E-09   -1.156E-09   -1.155E-09   -1.153E-09   -1.152E-09   -1.151E-09   -1.150E-09   -1.149E-09   -1.149E-09
    -1.148E-09   -1.147E-09   -1.146E-09   -1.145E-09   -1.144E-09   -1.142E-09   -1.140E-09   -1.138E-09   -1.135E-09   -1.132E-09
    -1.128E-09   -1.124E-09   -1.119E-09   -1.114E-09   -1.107E-09   -1.100E-09   -1.093E-09   -1.084E-09   -1.075E-09   -1.064E-09
    -1.053E-09   -1.042E-09   -1.029E-09   -1.016E-09   -1.002E-09   -9.873E-10   -9.720E-10   -9.561E-10   -9.396E-10   -9.226E-10
    -9.050E-10   -8.868E-10   -8.682E-10   -8.491E-10   -8.295E-10   -8.095E-10   -7.891E-10   -7.682E-10   -7.470E-10   -7.255E-10
    -7.037E-10   -6.815E-10   -6.591E-10   -6.364E-10   -6.134E-10   -5.903E-10   -5.669E-10   -5.434E-10   -5.196E-10   -4.958E-10
    -4.718E-10   -4.477E-10   -4.234E-10   -3.991E-10   -3.747E-10   -3.503E-10   -3.258E-10   -3.012E-10   -2.767E-10   -2.521E-10
    -2.276E-10   -2.031E-10   -1.786E-10   -1.542E-10   -1.298E-10   -1.055E-10   -8.137E-11   -5.730E-11   -3.335E-11   -9.535E-12
     1.413E-11    3.764E-11    6.097E-11
 Ala      Conc. = 5.56E-11
   5.40005E-09  5.37223E-09  5.34270E-09  5.31174E-09  5.27927E-09  5.24546E-09  5.20965E-09  5.17270E-09  5.13785E-09  5.10266E-09
   5.06563E-09  5.03142E-09  4.99883E-09  4.96554E-09  4.93310E-09  4.90134E-09  4.86976E-09  4.83818E-09  4.80652E-09  4.77474E-09
   4.74283E-09  4.71077E-09  4.67858E-09  4.64623E-09  4.61373E-09  4.58109E-09  4.54830E-09  4.51536E-09  4.48228E-09  4.44907E-09
   4.41576E-09  4.38239E-09  4.34899E-09  4.31561E-09  4.28228E-09  4.24903E-09  4.21592E-09  4.18298E-09  4.15024E-09  4.11773E-09
   4.08552E-09  4.05362E-09  4.02209E-09  3.99095E-09  3.96027E-09  3.93004E-09  3.90035E-09  3.87122E-09  3.84268E-09  3.81478E-09
   3.78758E-09  3.76108E-09  3.73536E-09  3.71043E-09  3.68640E-09  3.66319E-09  3.64091E-09  3.61959E-09  3.59920E-09  3.57972E-09
   3.56111E-09  3.54337E-09  3.52647E-09  3.51038E-09  3.49508E-09  3.48056E-09  3.46677E-09  3.45371E-09  3.44135E-09  3.42966E-09
   3.41862E-09  3.40821E-09  3.39840E-09  3.38918E-09  3.38050E-09  3.37237E-09  3.36474E-09  3.35759E-09  3.35090E-09  3.34466E-09
   3.33882E-09  3.33339E-09  3.32830E-09  3.32360E-09  3.31919E-09  3.31513E-09  3.31136E-09  3.30789E-09  3.30471E-09  3.30182E-09
   3.29924E-09  3.29696E-09  3.29505E-09  3.29355E-09  3.29257E-09  3.29229E-09  3.29303E-09  3.29542E-09  3.30080E-09  3.31306E-09
   3.33796E-09  3.36956E-09  3.40452E-09  3.44205E-09  3.47184E-09  3.48784E-09  3.49009E-09  3.47787E-09  3.44897E-09  3.40317E-09
   3.34693E-09  3.29646E-09  3.26319E-09  3.22536E-09  3.19023E-09  3.17284E-09  3.16003E-09  3.14849E-09  3.13714E-09  3.12550E-09
   3.11331E-09  3.10041E-09  3.08666E-09  3.07198E-09  3.05628E-09  3.03949E-09  3.02153E-09  3.00236E-09  2.98189E-09  2.96008E-09
   2.93685E-09  2.91216E-09  2.88594E-09  2.85813E-09  2.82868E-09  2.79751E-09  2.76460E-09  2.72987E-09  2.69326E-09  2.65472E-09
   2.61417E-09  2.57158E-09  2.52686E-09  2.47995E-09  2.43076E-09  2.37924E-09  2.32531E-09  2.26890E-09  2.20994E-09  2.14837E-09
   2.08411E-09  2.01709E-09  1.94725E-09  1.87452E-09  1.79883E-09  1.72011E-09  1.63831E-09  1.55334E-09  1.46516E-09  1.37370E-09
   1.27891E-09  1.18074E-09  1.07918E-09  9.74224E-10  8.66015E-10  7.55012E-10  6.43436E-10  5.37883E-10  4.37572E-10  3.40093E-10
   2.40180E-10  1.29310E-10  6.56475E-13 -1.45503E-10 -3.03197E-10 -4.65616E-10 -6.30109E-10 -7.96731E-10 -9.60210E-10 -1.10791E-09
  -1.25064E-09 -1.39066E-09 -1.52830E-09 -1.66345E-09 -1.79580E-09 -1.92504E-09 -2.05082E-09 -2.17274E-09 -2.29043E-09 -2.40350E-09
  -2.51156E-09 -2.61423E-09 -2.71111E-09 -2.80178E-09 -2.88589E-09 -2.96302E-09 -3.03293E-09 -3.09573E-09 -3.15167E-09 -3.20096E-09
  -3.24382E-09 -3.28046E-09 -3.31112E-09 -3.33600E-09 -3.35533E-09 -3.36932E-09 -3.37821E-09 -3.38220E-09 -3.38151E-09 -3.37637E-09
  -3.36699E-09 -3.35359E-09 -3.33639E-09 -3.31561E-09 -3.29146E-09 -3.26417E-09 -3.23394E-09 -3.20099E-09 -3.16554E-09 -3.12781E-09
  -3.08801E-09 -3.04635E-09 -3.00306E-09 -2.95833E-09 -2.91236E-09 -2.86527E-09 -2.81718E-09 -2.76819E-09 -2.71843E-09 -2.66801E-09
  -2.61705E-09 -2.56565E-09 -2.51395E-09 -2.46204E-09 -2.41004E-09 -2.35806E-09 -2.30623E-09 -2.25464E-09 -2.20340E-09 -2.15264E-09
  -2.10247E-09 -2.05298E-09 -2.00429E-09 -1.95652E-09 -1.90976E-09 -1.86413E-09 -1.81973E-09 -1.77666E-09 -1.73505E-09 -1.69500E-09
  -1.65659E-09 -1.61995E-09 -1.58511E-09 -1.55203E-09 -1.52066E-09 -1.49096E-09 -1.46288E-09 -1.43637E-09 -1.41138E-09 -1.38787E-09
  -1.36580E-09 -1.34511E-09 -1.32576E-09 -1.30770E-09 -1.29089E-09 -1.27528E-09 -1.26082E-09 -1.24748E-09 -1.23520E-09 -1.22393E-09
  -1.21364E-09 -1.20428E-09 -1.19580E-09 -1.18816E-09 -1.18132E-09 -1.17522E-09 -1.16984E-09 -1.16511E-09 -1.16100E-09 -1.15747E-09
  -1.15446E-09 -1.15192E-09 -1.14980E-09 -1.14803E-09 -1.14657E-09 -1.14537E-09 -1.14436E-09 -1.14350E-09 -1.14272E-09 -1.14199E-09
  -1.14125E-09 -1.14044E-09 -1.13951E-09 -1.13842E-09 -1.13711E-09 -1.13553E-09 -1.13363E-09 -1.13136E-09 -1.12867E-09 -1.12552E-09
  -1.12185E-09 -1.11762E-09 -1.11278E-09 -1.10729E-09 -1.10109E-09 -1.09414E-09 -1.08639E-09 -1.07780E-09 -1.06838E-09 -1.05815E-09
  -1.04712E-09 -1.03533E-09 -1.02280E-09 -1.00955E-09 -9.95613E-10 -9.81005E-10 -9.65752E-10 -9.49878E-10 -9.33408E-10 -9.16362E-10
  -8.98767E-10 -8.80643E-10 -8.62015E-10 -8.42907E-10 -8.23338E-10 -8.03336E-10 -7.82920E-10 -7.62111E-10 -7.40935E-10 -7.19414E-10
  -6.97566E-10 -6.75417E-10 -6.52986E-10 -6.30297E-10 -6.07371E-10 -5.84225E-10 -5.60880E-10 -5.37352E-10 -5.13655E-10 -4.89806E-10
  -4.65820E-10 -4.41712E-10 -4.17497E-10 -3.93191E-10 -3.68811E-10 -3.44367E-10 -3.19880E-10 -2.95360E-10 -2.70823E-10 -2.46283E-10
  -2.21754E-10 -1.97252E-10 -1.72790E-10 -1.48382E-10 -1.24041E-10 -9.97818E-11 -7.56174E-11 -5.15599E-11 -2.76241E-11 -3.82412E-12
   1.98287E-11  4.33206E-11  6.66426E-11
 Asp      Conc. = 1.06E-10
   5.43922E-09  5.38750E-09  5.33926E-09  5.29173E-09  5.24950E-09  5.20943E-09  5.17244E-09  5.14025E-09  5.11079E-09  5.08183E-09
   5.05287E-09  5.02374E-09  4.99442E-09  4.96485E-09  4.93500E-09  4.90491E-09  4.87462E-09  4.84415E-09  4.81351E-09  4.78270E-09
   4.75175E-09  4.72066E-09  4.68946E-09  4.65815E-09  4.62674E-09  4.59528E-09  4.56376E-09  4.53221E-09  4.50067E-09  4.46919E-09
   4.43787E-09  4.40679E-09  4.37612E-09  4.34604E-09  4.31689E-09  4.28921E-09  4.26399E-09  4.24041E-09  4.21813E-09  4.19467E-09
   4.16807E-09  4.13788E-09  4.10693E-09  4.07933E-09  4.06057E-09  4.05192E-09  4.04682E-09  4.03835E-09  4.02395E-09  3.99688E-09
   3.96048E-09  3.91785E-09  3.87189E-09  3.82207E-09  3.77070E-09  3.72175E-09  3.68284E-09  3.65430E-09  3.62536E-09  3.59671E-09
   3.57586E-09  3.55532E-09  3.53406E-09  3.51553E-09  3.49748E-09  3.47828E-09  3.45953E-09  3.44409E-09  3.43042E-09  3.41793E-09
   3.40638E-09  3.39563E-09  3.38558E-09  3.37619E-09  3.36737E-09  3.35912E-09  3.35138E-09  3.34411E-09  3.33729E-09  3.33091E-09
   3.32489E-09  3.31926E-09  3.31393E-09  3.30894E-09  3.30420E-09  3.29973E-09  3.29549E-09  3.29145E-09  3.28760E-09  3.28390E-09
   3.28036E-09  3.27691E-09  3.27356E-09  3.27027E-09  3.26703E-09  3.26380E-09  3.26057E-09  3.25731E-09  3.25400E-09  3.25062E-09
   3.24712E-09  3.24351E-09  3.23974E-09  3.23581E-09  3.23167E-09  3.22731E-09  3.22272E-09  3.21784E-09  3.21267E-09  3.20718E-09
   3.20135E-09  3.19515E-09  3.18854E-09  3.18151E-09  3.17398E-09  3.16590E-09  3.15721E-09  3.14786E-09  3.13778E-09  3.12691E-09
   3.11521E-09  3.10261E-09  3.08906E-09  3.07450E-09  3.05887E-09  3.04211E-09  3.02417E-09  3.00498E-09  2.98450E-09  2.96266E-09
   2.93941E-09  2.91468E-09  2.88842E-09  2.86057E-09  2.83109E-09  2.79989E-09  2.76694E-09  2.73217E-09  2.69553E-09  2.65696E-09
   2.61638E-09  2.57376E-09  2.52901E-09  2.48207E-09  2.43286E-09  2.38131E-09  2.32736E-09  2.27094E-09  2.21196E-09  2.15037E-09
   2.08610E-09  2.01907E-09  1.94923E-09  1.87650E-09  1.80081E-09  1.72211E-09  1.64033E-09  1.55539E-09  1.46727E-09  1.37589E-09
   1.28122E-09  1.18322E-09  1.08194E-09  9.77424E-10  8.69978E-10  7.60480E-10  6.52789E-10  5.59977E-10  4.80860E-10  4.10733E-10
   3.39444E-10  2.50345E-10  1.29526E-10 -2.34151E-11 -1.97634E-10 -3.80219E-10 -5.66096E-10 -7.55915E-10 -9.40873E-10 -1.09576E-09
  -1.24143E-09 -1.38307E-09 -1.52174E-09 -1.65759E-09 -1.79046E-09 -1.92010E-09 -2.04618E-09 -2.16836E-09 -2.28626E-09 -2.39950E-09
  -2.50770E-09 -2.61049E-09 -2.70748E-09 -2.79824E-09 -2.88243E-09 -2.95964E-09 -3.02961E-09 -3.09247E-09 -3.14846E-09 -3.19780E-09
  -3.24070E-09 -3.27738E-09 -3.30807E-09 -3.33298E-09 -3.35234E-09 -3.36636E-09 -3.37527E-09 -3.37928E-09 -3.37862E-09 -3.37350E-09
  -3.36414E-09 -3.35076E-09 -3.33357E-09 -3.31280E-09 -3.28867E-09 -3.26138E-09 -3.23117E-09 -3.19823E-09 -3.16280E-09 -3.12508E-09
  -3.08529E-09 -3.04364E-09 -3.00035E-09 -2.95563E-09 -2.90967E-09 -2.86259E-09 -2.81450E-09 -2.76552E-09 -2.71576E-09 -2.66535E-09
