 LCModel (Version 6.3-1R) Copyright: S.W. Provencher.          Ref.: Magn. Reson. Med. 30:672-679 (1993).                
 onepulse 17x17_ftSpec_smooth_lcm
 26 lines in following concentration table = NCONC+1
    Conc.  %SD   /Cr    Metabolite                                         
 1.32E-10 117%   0.000 Ala                                                 
 7.67E-10  40%   0.000 Asp                                                 
    0.000 999%   0.000 Cr                                                  
 2.87E-09   9%   0.000 GABA                                                
 1.19E-09  20%   0.000 Glc                                                 
    0.000 999%   0.000 Gln                                                 
 1.00E-10 284%   0.000 Glu                                                 
    0.000 999%   0.000 Glyc                                                
 1.02E-10  41%   0.000 GPC                                                 
    0.000 999%   0.000 GSH                                                 
 7.93E-11 214%   0.000 Ins                                                 
    0.000 999%   0.000 Lac                                                 
    0.000 999%   0.000 NAAG                                                
 9.74E-10  14%   0.000 NAA                                                 
    0.000 999%   0.000 PCh                                                 
    0.000 999%   0.000 PCr                                                 
    0.000 999%   0.000 PE                                                  
    0.000 999%   0.000 Scyllo                                              
    0.000 999%   0.000 Ser                                                 
    0.000 999%   0.000 Tau                                                 
 1.02E-10  41%   0.000 GPC+PCh                                             
 9.74E-10  14%   0.000 NAA+NAAG                                            
 7.93E-11 214%   0.000 Ins+Glyc                                            
    0.000 999%   0.000 Cr+PCr                                              
 1.00E-10 284%   0.000 Glu+Gln                                             
   6 lines in following misc. output table
  FWHM = 0.078 ppm    S/N =   5                                            
  Data shift = 0.347 ppm                                                   
  Ph:  81 deg      32.8 deg/ppm                                            
  alphaB,S = 1.6E-01,   7.5E+01                                            
   16 spline knots.   Ns = 5(1)                                            
  ( 9) 4 infls.   ( 3) 1 extrs.                                            
  363 points on ppm-axis = NY
      4.250000     4.238821     4.227641     4.216462     4.205282     4.194103     4.182923     4.171744     4.160564     4.149385
      4.138206     4.127026     4.115847     4.104667     4.093488     4.082308     4.071129     4.059949     4.048770     4.037591
      4.026411     4.015232     4.004052     3.992873     3.981693     3.970514     3.959334     3.948155     3.936975     3.925796
      3.914617     3.903437     3.892258     3.881078     3.869899     3.858719     3.847540     3.836360     3.825181     3.814002
      3.802822     3.791643     3.780463     3.769284     3.758104     3.746925     3.735745     3.724566     3.713387     3.702207
      3.691028     3.679848     3.668669     3.657489     3.646310     3.635130     3.623951     3.612772     3.601592     3.590413
      3.579233     3.568054     3.556874     3.545695     3.534515     3.523336     3.512156     3.500977     3.489798     3.478618
      3.467439     3.456259     3.445080     3.433900     3.422721     3.411541     3.400362     3.389183     3.378003     3.366824
      3.355644     3.344465     3.333285     3.322106     3.310926     3.299747     3.288568     3.277388     3.266209     3.255029
      3.243850     3.232670     3.221491     3.210311     3.199132     3.187953     3.176773     3.165594     3.154414     3.143235
      3.132055     3.120876     3.109696     3.098517     3.087337     3.076158     3.064979     3.053799     3.042620     3.031440
      3.020261     3.009081     2.997902     2.986722     2.975543     2.964364     2.953184     2.942005     2.930825     2.919646
      2.908466     2.897287     2.886107     2.874928     2.863749     2.852569     2.841390     2.830210     2.819031     2.807851
      2.796672     2.785492     2.774313     2.763134     2.751954     2.740775     2.729595     2.718416     2.707236     2.696057
      2.684877     2.673698     2.662519     2.651339     2.640160     2.628980     2.617801     2.606621     2.595442     2.584262
      2.573083     2.561903     2.550724     2.539545     2.528365     2.517186     2.506006     2.494827     2.483647     2.472468
      2.461288     2.450109     2.438930     2.427750     2.416571     2.405391     2.394212     2.383032     2.371853     2.360673
      2.349494     2.338315     2.327135     2.315956     2.304776     2.293597     2.282417     2.271238     2.260058     2.248879
      2.237700     2.226520     2.215341     2.204161     2.192982     2.181802     2.170623     2.159443     2.148264     2.137084
      2.125905     2.114726     2.103546     2.092367     2.081187     2.070008     2.058828     2.047649     2.036469     2.025290
      2.014111     2.002931     1.991752     1.980572     1.969393     1.958213     1.947034     1.935854     1.924675     1.913496
      1.902316     1.891137     1.879957     1.868778     1.857598     1.846419     1.835239     1.824060     1.812881     1.801701
      1.790522     1.779342     1.768163     1.756983     1.745804     1.734624     1.723445     1.712265     1.701086     1.689907
      1.678727     1.667548     1.656368     1.645189     1.634009     1.622830     1.611650     1.600471     1.589292     1.578112
      1.566933     1.555753     1.544574     1.533394     1.522215     1.511035     1.499856     1.488677     1.477497     1.466318
      1.455138     1.443959     1.432779     1.421600     1.410420     1.399241     1.388062     1.376882     1.365703     1.354523
      1.343344     1.332164     1.320985     1.309805     1.298626     1.287446     1.276267     1.265088     1.253908     1.242729
      1.231549     1.220370     1.209190     1.198011     1.186831     1.175652     1.164473     1.153293     1.142114     1.130934
      1.119755     1.108575     1.097396     1.086216     1.075037     1.063858     1.052678     1.041499     1.030319     1.019140
      1.007960     0.996781     0.985601     0.974422     0.963243     0.952063     0.940884     0.929704     0.918525     0.907345
      0.896166     0.884986     0.873807     0.862628     0.851448     0.840269     0.829089     0.817910     0.806730     0.795551
      0.784371     0.773192     0.762012     0.750833     0.739654     0.728474     0.717295     0.706115     0.694936     0.683756
      0.672577     0.661397     0.650218     0.639039     0.627859     0.616680     0.605500     0.594321     0.583141     0.571962
      0.560782     0.549603     0.538424     0.527244     0.516065     0.504885     0.493706     0.482526     0.471347     0.460167
      0.448988     0.437809     0.426629     0.415450     0.404270     0.393091     0.381911     0.370732     0.359552     0.348373
      0.337193     0.326014     0.314835     0.303655     0.292476     0.281296     0.270117     0.258937     0.247758     0.236578
      0.225399     0.214220     0.203040
 NY phased data points follow
   8.24639E-09  9.64692E-09  1.00551E-08  1.06117E-08  8.90540E-09  8.24698E-09  7.98802E-09  7.10800E-09  6.48468E-09  7.18573E-09
   6.86351E-09  6.88918E-09  7.16907E-09  7.42210E-09  7.96116E-09  8.34195E-09  8.26466E-09  8.35475E-09  8.08029E-09  8.20159E-09
   8.07055E-09  7.68184E-09  6.62157E-09  7.41406E-09  7.95108E-09  9.49585E-09  8.52258E-09  8.23846E-09  7.76906E-09  8.41672E-09
   7.71670E-09  9.06653E-09  1.01011E-08  1.19116E-08  1.08262E-08  1.12031E-08  9.97966E-09  8.41574E-09  8.14826E-09  7.63153E-09
   7.43835E-09  6.86678E-09  6.92193E-09  6.52783E-09  6.29073E-09  6.67661E-09  5.88088E-09  5.80379E-09  4.38413E-09  5.32715E-09
   5.15417E-09  5.26434E-09  5.43634E-09  5.52848E-09  4.76391E-09  4.79601E-09  4.52313E-09  4.41674E-09  3.82864E-09  3.91489E-09
   4.04674E-09  5.05348E-09  6.65805E-09  1.02872E-08  1.26972E-08  1.31172E-08  1.13121E-08  1.01143E-08  8.24451E-09  7.88152E-09
   7.69982E-09  6.68735E-09  5.54340E-09  5.53409E-09  5.48366E-09  3.52122E-09  3.29862E-09  4.66819E-09  5.81832E-09  7.87537E-09
   1.10687E-08  1.33070E-08  1.22828E-08  1.19850E-08  1.00460E-08  9.25794E-09  9.24676E-09  7.90605E-09  7.75268E-09  7.78258E-09
   7.53475E-09  7.01837E-09  7.09612E-09  6.37180E-09  6.08641E-09  5.59157E-09  5.23511E-09  5.43589E-09  3.95188E-09  4.75736E-09
   4.12820E-09  5.13836E-09  3.65802E-09  4.52445E-09  4.48401E-09  4.47079E-09  4.48644E-09  4.19422E-09  3.85904E-09  3.17810E-09
   2.52537E-09  2.76877E-09  2.79602E-09  3.55188E-09  3.29559E-09  3.62503E-09  3.53436E-09  3.89293E-09  4.17099E-09  4.72360E-09
   4.17955E-09  3.89002E-09  4.19747E-09  3.16734E-09  2.20647E-09  2.13750E-09  2.42862E-09  2.22168E-09  2.31953E-09  2.65175E-09
   2.82876E-09  2.56912E-09  2.45449E-09  3.81843E-09  2.49635E-09  2.85524E-09  1.84983E-09  1.57279E-09  1.89155E-09  3.01766E-09
   2.99747E-09  4.31310E-09  4.21629E-09  3.09458E-09  2.84018E-09  3.81781E-09  3.84277E-09  4.55656E-09  3.79214E-09  3.75960E-09
   3.10667E-09  3.78122E-09  3.24793E-09  3.71403E-09  3.71887E-09  3.49278E-09  3.58939E-09  3.35783E-09  3.64280E-09  4.70706E-09
   4.39515E-09  4.45486E-09  3.67807E-09  3.77915E-09  3.74532E-09  3.81864E-09  3.93273E-09  4.41892E-09  5.91490E-09  8.54775E-09
   1.10390E-08  1.48998E-08  1.59160E-08  1.43044E-08  1.12030E-08  8.84332E-09  6.53701E-09  6.83477E-09  5.56103E-09  4.30479E-09
   3.41748E-09  3.24953E-09  2.64550E-09  2.00502E-09  2.42204E-09  4.13332E-10  2.36322E-10 -2.37070E-10 -1.61044E-09 -1.73307E-09
  -2.69555E-09 -3.66071E-09 -4.31570E-09 -4.50531E-09 -6.28654E-09 -6.62613E-09 -6.96634E-09 -7.48886E-09 -8.42064E-09 -8.57594E-09
  -8.51461E-09 -8.43147E-09 -7.87316E-09 -7.89051E-09 -7.87610E-09 -6.72576E-09 -5.90354E-09 -5.31497E-09 -4.67878E-09 -4.54686E-09
  -2.93122E-09 -2.18615E-09 -1.57627E-09 -1.60712E-09 -1.22453E-09 -9.89626E-10 -1.60956E-09 -8.84833E-10 -7.69235E-10 -1.58006E-09
  -1.95249E-09 -9.85118E-10 -4.28043E-10 -1.56195E-09 -1.22552E-09 -8.11852E-11 -1.37922E-09 -4.35283E-10 -1.34150E-09 -5.07842E-10
  -1.28893E-09 -1.05731E-09 -1.31061E-09 -1.49711E-09 -5.19595E-10 -5.36249E-10 -1.07964E-09  1.97872E-10 -1.17736E-09 -9.58262E-10
  -8.81930E-10 -7.94755E-10 -4.95912E-10 -1.09872E-09 -1.20488E-09 -6.64844E-10 -1.79135E-10 -1.28264E-09 -5.80965E-10 -2.39672E-10
  -7.80845E-10  4.23156E-10 -3.79087E-10  5.20136E-10 -2.53211E-10 -4.76759E-10 -3.25470E-10 -9.78068E-10 -9.21148E-10 -7.08070E-10
  -1.02536E-09 -1.52788E-09 -1.29952E-09 -1.29571E-09 -1.40637E-09 -6.89387E-10 -8.67996E-10  3.43504E-10 -2.90347E-11  2.67365E-10
   5.33617E-10  4.01196E-10  2.85664E-10  1.00597E-09  3.87519E-10  2.68521E-10  4.96289E-10 -6.00273E-11 -1.88584E-10 -2.72671E-10
  -5.93732E-10 -6.88685E-10 -5.25596E-10 -7.53995E-10 -4.96857E-10 -4.28664E-10 -7.64135E-10 -6.00530E-10 -1.29059E-09 -5.13217E-10
  -6.23699E-10 -1.01694E-09 -1.01987E-09 -2.93062E-10 -9.15200E-10 -2.52339E-10 -8.48123E-10 -3.60792E-10 -8.56102E-10 -5.28658E-10
   5.00104E-11 -8.02421E-10 -9.44577E-10 -2.54539E-10 -8.15903E-10 -4.84094E-10 -8.55954E-10 -4.44634E-10 -1.66573E-11 -3.36822E-10
  -9.90773E-10 -1.01794E-10 -2.71117E-10 -2.28490E-11 -1.62854E-10  7.05627E-11 -2.37722E-10 -1.06038E-10 -2.63424E-10  6.03632E-10
  -2.20773E-10  4.02755E-10 -1.31007E-10  1.12070E-10  2.07798E-10  6.63731E-11  4.48946E-10  4.54497E-10  5.03523E-10  1.61125E-10
   1.32848E-10  3.35170E-11  2.29040E-10  7.57940E-10  3.49994E-10  7.71596E-10  1.59556E-10  7.53238E-10  2.98598E-10  6.82756E-10
   3.41665E-10  5.99824E-10  8.45209E-10  7.31187E-10 -6.80857E-11  8.30416E-10  1.34550E-10  1.02478E-09  4.00911E-10  1.05746E-09
   8.05087E-10  6.38349E-10  7.86629E-10  8.99308E-10  8.35538E-10  9.16561E-10  6.46784E-10  8.55278E-10  3.54963E-10  1.05236E-09
   9.24473E-10  6.55461E-10  1.39352E-09
 NY points of the fit to the data follow
   9.22907E-09  9.25295E-09  9.15242E-09  8.94514E-09  8.62090E-09  8.23587E-09  7.84132E-09  7.51333E-09  7.27548E-09  7.08776E-09
   7.01525E-09  7.01286E-09  7.07195E-09  7.23357E-09  7.51749E-09  7.90402E-09  8.34381E-09  8.73857E-09  8.91137E-09  8.79455E-09
   8.45600E-09  7.97609E-09  7.52068E-09  7.32245E-09  7.34463E-09  7.53825E-09  7.89892E-09  8.30439E-09  8.62720E-09  8.90422E-09
   9.06432E-09  9.28158E-09  9.70037E-09  9.99927E-09  1.01145E-08  1.03404E-08  1.03773E-08  1.00527E-08  9.40501E-09  8.56397E-09
   7.72619E-09  6.96136E-09  5.98338E-09  5.24883E-09  5.09044E-09  5.00654E-09  4.94841E-09  5.08054E-09  5.22256E-09  5.29993E-09
   5.34308E-09  5.37479E-09  5.42305E-09  5.43836E-09  5.39547E-09  5.32894E-09  5.28054E-09  5.33098E-09  5.43467E-09  5.61916E-09
   5.97486E-09  6.54597E-09  7.25112E-09  7.98178E-09  8.89808E-09  9.72617E-09  1.02020E-08  1.03864E-08  1.02601E-08  9.75267E-09
   8.94572E-09  7.93119E-09  6.92398E-09  6.20424E-09  5.55867E-09  4.98798E-09  5.11949E-09  5.99399E-09  7.19461E-09  8.73879E-09
   1.02851E-08  1.13281E-08  1.16499E-08  1.12980E-08  1.04571E-08  9.55459E-09  8.74932E-09  7.87195E-09  7.05532E-09  6.89844E-09
   6.79200E-09  6.66822E-09  6.38845E-09  5.87861E-09  5.47899E-09  5.16922E-09  4.71472E-09  4.36417E-09  4.18210E-09  4.02679E-09
   3.94954E-09  3.94369E-09  3.97753E-09  4.04001E-09  4.09781E-09  4.13045E-09  4.13521E-09  4.11042E-09  4.05230E-09  3.95974E-09
   3.84485E-09  3.74558E-09  3.68798E-09  3.62140E-09  3.56299E-09  3.54555E-09  3.53919E-09  3.53652E-09  3.53512E-09  3.53390E-09
   3.53231E-09  3.53002E-09  3.52678E-09  3.52243E-09  3.51682E-09  3.50988E-09  3.50151E-09  3.49164E-09  3.48023E-09  3.46721E-09
   3.45252E-09  3.43611E-09  3.41794E-09  3.39795E-09  3.37611E-09  3.35239E-09  3.32673E-09  3.29912E-09  3.26950E-09  3.23783E-09
   3.20407E-09  3.16820E-09  3.13015E-09  3.08985E-09  3.04726E-09  3.00233E-09  2.95501E-09  2.90528E-09  2.85310E-09  2.79847E-09
   2.74139E-09  2.68188E-09  2.62002E-09  2.55589E-09  2.48966E-09  2.42155E-09  2.35193E-09  2.28131E-09  2.21052E-09  2.14077E-09
   2.07405E-09  2.01367E-09  1.96553E-09  1.94103E-09  1.96579E-09  2.11216E-09  2.68561E-09  4.30804E-09  6.82961E-09  9.85479E-09
   1.28073E-08  1.48759E-08  1.53830E-08  1.42822E-08  1.20983E-08  9.51088E-09  6.82552E-09  4.03343E-09  1.62548E-09  5.70806E-10
   8.59094E-11 -2.34162E-10 -4.83895E-10 -6.95812E-10 -8.84159E-10 -1.05613E-09 -1.21562E-09 -1.36490E-09 -1.50524E-09 -1.63739E-09
  -1.76175E-09 -1.87848E-09 -1.98759E-09 -2.08896E-09 -2.18245E-09 -2.26782E-09 -2.34493E-09 -2.41405E-09 -2.47549E-09 -2.52957E-09
  -2.57658E-09 -2.61679E-09 -2.65048E-09 -2.67790E-09 -2.69933E-09 -2.71500E-09 -2.72518E-09 -2.73010E-09 -2.73002E-09 -2.72516E-09
  -2.71578E-09 -2.70210E-09 -2.68437E-09 -2.66282E-09 -2.63768E-09 -2.60919E-09 -2.57757E-09 -2.54306E-09 -2.50589E-09 -2.46629E-09
  -2.42447E-09 -2.38068E-09 -2.33515E-09 -2.28808E-09 -2.23970E-09 -2.19011E-09 -2.13945E-09 -2.08784E-09 -2.03540E-09 -1.98225E-09
  -1.92852E-09 -1.87433E-09 -1.81980E-09 -1.76505E-09 -1.71019E-09 -1.65536E-09 -1.60067E-09 -1.54624E-09 -1.49218E-09 -1.43864E-09
  -1.38571E-09 -1.33350E-09 -1.28216E-09 -1.23180E-09 -1.18251E-09 -1.13443E-09 -1.08767E-09 -1.04235E-09 -9.98591E-10 -9.56504E-10
  -9.16187E-10 -8.77785E-10 -8.41315E-10 -8.06730E-10 -7.73975E-10 -7.42992E-10 -7.13714E-10 -6.86091E-10 -6.60055E-10 -6.35553E-10
  -6.12527E-10 -5.90911E-10 -5.70655E-10 -5.51693E-10 -5.33973E-10 -5.17433E-10 -5.02006E-10 -4.87654E-10 -4.74308E-10 -4.61906E-10
  -4.50391E-10 -4.39714E-10 -4.29807E-10 -4.20616E-10 -4.12092E-10 -4.04161E-10 -3.96785E-10 -3.89895E-10 -3.83441E-10 -3.77359E-10
  -3.71606E-10 -3.66140E-10 -3.60917E-10 -3.55893E-10 -3.51033E-10 -3.46289E-10 -3.41624E-10 -3.36994E-10 -3.32358E-10 -3.27679E-10
  -3.22911E-10 -3.18017E-10 -3.12954E-10 -3.07683E-10 -3.02166E-10 -2.96359E-10 -2.90226E-10 -2.83725E-10 -2.76820E-10 -2.69465E-10
  -2.61630E-10 -2.53269E-10 -2.44346E-10 -2.34827E-10 -2.24667E-10 -2.13831E-10 -2.02283E-10 -1.89984E-10 -1.76945E-10 -1.63193E-10
  -1.48758E-10 -1.33670E-10 -1.17959E-10 -1.01651E-10 -8.47790E-11 -6.73704E-11 -4.94544E-11 -3.10597E-11 -1.22164E-11  7.04953E-12
   2.67053E-11  4.67272E-11  6.70849E-11  8.77470E-11  1.08691E-10  1.29883E-10  1.51299E-10  1.72912E-10  1.94692E-10  2.16609E-10
   2.38642E-10  2.60760E-10  2.82937E-10  3.05144E-10  3.27355E-10  3.49548E-10  3.71713E-10  3.93846E-10  4.15948E-10  4.38016E-10
   4.60047E-10  4.82041E-10  5.03995E-10  5.25906E-10  5.47771E-10  5.69594E-10  5.91365E-10  6.13086E-10  6.34755E-10  6.56370E-10
   6.77930E-10  6.99430E-10  7.20871E-10  7.42250E-10  7.63564E-10  7.84812E-10  8.05993E-10  8.27105E-10  8.48145E-10  8.69110E-10
   8.90000E-10  9.10811E-10  9.31547E-10
 NY background values follow
     2.549E-09    2.542E-09    2.535E-09    2.527E-09    2.520E-09    2.513E-09    2.506E-09    2.498E-09    2.491E-09    2.484E-09
     2.477E-09    2.470E-09    2.463E-09    2.456E-09    2.449E-09    2.443E-09    2.436E-09    2.429E-09    2.423E-09    2.416E-09
     2.410E-09    2.404E-09    2.398E-09    2.392E-09    2.386E-09    2.380E-09    2.374E-09    2.369E-09    2.363E-09    2.358E-09
     2.353E-09    2.348E-09    2.343E-09    2.338E-09    2.334E-09    2.330E-09    2.326E-09    2.323E-09    2.320E-09    2.318E-09
     2.316E-09    2.314E-09    2.313E-09    2.312E-09    2.312E-09    2.313E-09    2.314E-09    2.315E-09    2.318E-09    2.321E-09
     2.324E-09    2.329E-09    2.334E-09    2.340E-09    2.347E-09    2.355E-09    2.363E-09    2.373E-09    2.383E-09    2.394E-09
     2.406E-09    2.419E-09    2.432E-09    2.446E-09    2.461E-09    2.476E-09    2.492E-09    2.508E-09    2.525E-09    2.542E-09
     2.559E-09    2.577E-09    2.595E-09    2.613E-09    2.632E-09    2.650E-09    2.669E-09    2.688E-09    2.706E-09    2.725E-09
     2.744E-09    2.762E-09    2.781E-09    2.799E-09    2.817E-09    2.835E-09    2.852E-09    2.869E-09    2.886E-09    2.903E-09
     2.919E-09    2.934E-09    2.949E-09    2.964E-09    2.979E-09    2.992E-09    3.006E-09    3.018E-09    3.031E-09    3.042E-09
     3.053E-09    3.064E-09    3.073E-09    3.082E-09    3.091E-09    3.099E-09    3.105E-09    3.112E-09    3.117E-09    3.122E-09
     3.125E-09    3.128E-09    3.130E-09    3.131E-09    3.132E-09    3.131E-09    3.129E-09    3.126E-09    3.122E-09    3.117E-09
     3.110E-09    3.103E-09    3.094E-09    3.083E-09    3.072E-09    3.059E-09    3.044E-09    3.028E-09    3.010E-09    2.991E-09
     2.970E-09    2.948E-09    2.923E-09    2.897E-09    2.869E-09    2.840E-09    2.808E-09    2.775E-09    2.739E-09    2.702E-09
     2.662E-09    2.620E-09    2.576E-09    2.530E-09    2.481E-09    2.430E-09    2.377E-09    2.320E-09    2.262E-09    2.200E-09
     2.135E-09    2.068E-09    1.998E-09    1.925E-09    1.848E-09    1.768E-09    1.686E-09    1.599E-09    1.510E-09    1.416E-09
     1.320E-09    1.219E-09    1.115E-09    1.007E-09    8.955E-10    7.798E-10    6.601E-10    5.363E-10    4.084E-10    2.767E-10
     1.417E-10    3.754E-12   -1.367E-10   -2.792E-10   -4.234E-10   -5.687E-10   -7.149E-10   -8.614E-10   -1.008E-09   -1.154E-09
    -1.299E-09   -1.443E-09   -1.585E-09   -1.725E-09   -1.862E-09   -1.996E-09   -2.127E-09   -2.254E-09   -2.376E-09   -2.494E-09
    -2.607E-09   -2.714E-09   -2.815E-09   -2.910E-09   -2.998E-09   -3.078E-09   -3.152E-09   -3.217E-09   -3.276E-09   -3.328E-09
    -3.373E-09   -3.411E-09   -3.443E-09   -3.470E-09   -3.490E-09   -3.505E-09   -3.514E-09   -3.519E-09   -3.518E-09   -3.513E-09
    -3.504E-09   -3.490E-09   -3.472E-09   -3.450E-09   -3.425E-09   -3.397E-09   -3.365E-09   -3.331E-09   -3.294E-09   -3.255E-09
    -3.213E-09   -3.170E-09   -3.124E-09   -3.078E-09   -3.030E-09   -2.980E-09   -2.930E-09   -2.879E-09   -2.827E-09   -2.774E-09
    -2.720E-09   -2.666E-09   -2.612E-09   -2.558E-09   -2.503E-09   -2.449E-09   -2.394E-09   -2.340E-09   -2.286E-09   -2.233E-09
    -2.180E-09   -2.129E-09   -2.077E-09   -2.027E-09   -1.978E-09   -1.930E-09   -1.884E-09   -1.839E-09   -1.795E-09   -1.753E-09
    -1.713E-09   -1.675E-09   -1.639E-09   -1.604E-09   -1.571E-09   -1.541E-09   -1.511E-09   -1.484E-09   -1.458E-09   -1.433E-09
    -1.410E-09   -1.389E-09   -1.369E-09   -1.350E-09   -1.332E-09   -1.315E-09   -1.300E-09   -1.285E-09   -1.272E-09   -1.260E-09
    -1.248E-09   -1.237E-09   -1.227E-09   -1.218E-09   -1.209E-09   -1.201E-09   -1.193E-09   -1.186E-09   -1.180E-09   -1.173E-09
    -1.167E-09   -1.162E-09   -1.156E-09   -1.151E-09   -1.146E-09   -1.141E-09   -1.136E-09   -1.131E-09   -1.126E-09   -1.121E-09
    -1.116E-09   -1.110E-09   -1.105E-09   -1.099E-09   -1.093E-09   -1.087E-09   -1.081E-09   -1.074E-09   -1.066E-09   -1.058E-09
    -1.050E-09   -1.041E-09   -1.032E-09   -1.022E-09   -1.011E-09   -9.997E-10   -9.876E-10   -9.747E-10   -9.611E-10   -9.467E-10
    -9.317E-10   -9.160E-10   -8.996E-10   -8.826E-10   -8.651E-10   -8.470E-10   -8.284E-10   -8.093E-10   -7.898E-10   -7.698E-10
    -7.494E-10   -7.286E-10   -7.075E-10   -6.861E-10   -6.643E-10   -6.423E-10   -6.201E-10   -5.977E-10   -5.751E-10   -5.523E-10
    -5.294E-10   -5.064E-10   -4.834E-10   -4.603E-10   -4.372E-10   -4.141E-10   -3.910E-10   -3.679E-10   -3.449E-10   -3.219E-10
    -2.989E-10   -2.759E-10   -2.529E-10   -2.300E-10   -2.071E-10   -1.843E-10   -1.615E-10   -1.387E-10   -1.160E-10   -9.333E-11
    -7.069E-11   -4.810E-11   -2.556E-11   -3.073E-12    1.936E-11    4.174E-11    6.406E-11    8.633E-11    1.085E-10    1.307E-10
     1.527E-10    1.747E-10    1.967E-10
 Ala      Conc. = 1.32E-10
   2.67051E-09  2.66645E-09  2.65872E-09  2.64801E-09  2.63422E-09  2.61786E-09  2.59699E-09  2.57331E-09  2.55506E-09  2.53667E-09
   2.51394E-09  2.49807E-09  2.48651E-09  2.47382E-09  2.46348E-09  2.45523E-09  2.44790E-09  2.44107E-09  2.43454E-09  2.42823E-09
   2.42207E-09  2.41606E-09  2.41017E-09  2.40440E-09  2.39874E-09  2.39320E-09  2.38777E-09  2.38245E-09  2.37725E-09  2.37219E-09
   2.36728E-09  2.36255E-09  2.35803E-09  2.35374E-09  2.34972E-09  2.34598E-09  2.34256E-09  2.33949E-09  2.33679E-09  2.33449E-09
   2.33262E-09  2.33120E-09  2.33028E-09  2.32986E-09  2.32999E-09  2.33068E-09  2.33197E-09  2.33390E-09  2.33648E-09  2.33974E-09
   2.34372E-09  2.34843E-09  2.35392E-09  2.36021E-09  2.36735E-09  2.37532E-09  2.38418E-09  2.39394E-09  2.40456E-09  2.41599E-09
   2.42820E-09  2.44116E-09  2.45481E-09  2.46912E-09  2.48405E-09  2.49957E-09  2.51562E-09  2.53218E-09  2.54920E-09  2.56664E-09
   2.58445E-09  2.60262E-09  2.62108E-09  2.63981E-09  2.65876E-09  2.67790E-09  2.69719E-09  2.71658E-09  2.73604E-09  2.75555E-09
   2.77506E-09  2.79454E-09  2.81394E-09  2.83327E-09  2.85246E-09  2.87154E-09  2.89048E-09  2.90932E-09  2.92806E-09  2.94674E-09
   2.96543E-09  2.98419E-09  3.00315E-09  3.02250E-09  3.04254E-09  3.06374E-09  3.08695E-09  3.11377E-09  3.14781E-09  3.19948E-09
   3.28203E-09  3.37577E-09  3.47495E-09  3.58162E-09  3.66972E-09  3.72324E-09  3.74218E-09  3.72671E-09  3.67431E-09  3.58469E-09
   3.47074E-09  3.37082E-09  3.31127E-09  3.24173E-09  3.17953E-09  3.15760E-09  3.14633E-09  3.13842E-09  3.13151E-09  3.12458E-09
   3.11712E-09  3.10882E-09  3.09950E-09  3.08902E-09  3.07728E-09  3.06419E-09  3.04970E-09  3.03373E-09  3.01625E-09  2.99718E-09
   2.97648E-09  2.95410E-09  2.93001E-09  2.90414E-09  2.87647E-09  2.84694E-09  2.81551E-09  2.78214E-09  2.74678E-09  2.70940E-09
   2.66992E-09  2.62832E-09  2.58451E-09  2.53840E-09  2.48993E-09  2.43901E-09  2.38558E-09  2.32956E-09  2.27087E-09  2.20943E-09
   2.14519E-09  2.07805E-09  2.00796E-09  1.93483E-09  1.85860E-09  1.77919E-09  1.69655E-09  1.61060E-09  1.52130E-09  1.42859E-09
   1.33244E-09  1.23285E-09  1.12988E-09  1.02367E-09  9.14711E-10  8.04470E-10  6.99467E-10  6.15951E-10  5.47417E-10  4.85607E-10
   4.18210E-10  3.27087E-10  1.97624E-10  3.08056E-11 -1.60056E-10 -3.58936E-10 -5.59825E-10 -7.64157E-10 -9.60302E-10 -1.12117E-09
  -1.27251E-09 -1.41971E-09 -1.56388E-09 -1.70519E-09 -1.84347E-09 -1.97845E-09 -2.10980E-09 -2.23716E-09 -2.36010E-09 -2.47826E-09
  -2.59122E-09 -2.69859E-09 -2.79993E-09 -2.89483E-09 -2.98290E-09 -3.06370E-09 -3.13696E-09 -3.20283E-09 -3.26153E-09 -3.31328E-09
  -3.35833E-09 -3.39689E-09 -3.42919E-09 -3.45546E-09 -3.47593E-09 -3.49082E-09 -3.50036E-09 -3.50478E-09 -3.50430E-09 -3.49916E-09
  -3.48958E-09 -3.47578E-09 -3.45799E-09 -3.43644E-09 -3.41135E-09 -3.38295E-09 -3.35147E-09 -3.31713E-09 -3.28016E-09 -3.24078E-09
  -3.19921E-09 -3.15569E-09 -3.11043E-09 -3.06366E-09 -3.01557E-09 -2.96630E-09 -2.91595E-09 -2.86466E-09 -2.81254E-09 -2.75972E-09
  -2.70632E-09 -2.65245E-09 -2.59824E-09 -2.54380E-09 -2.48926E-09 -2.43473E-09 -2.38034E-09 -2.32621E-09 -2.27244E-09 -2.21917E-09
  -2.16651E-09 -2.11457E-09 -2.06348E-09 -2.01336E-09 -1.96431E-09 -1.91645E-09 -1.86991E-09 -1.82479E-09 -1.78122E-09 -1.73931E-09
  -1.69916E-09 -1.66091E-09 -1.62459E-09 -1.59013E-09 -1.55750E-09 -1.52662E-09 -1.49744E-09 -1.46990E-09 -1.44393E-09 -1.41948E-09
  -1.39650E-09 -1.37491E-09 -1.35467E-09 -1.33571E-09 -1.31799E-09 -1.30142E-09 -1.28596E-09 -1.27156E-09 -1.25815E-09 -1.24567E-09
  -1.23407E-09 -1.22329E-09 -1.21327E-09 -1.20395E-09 -1.19528E-09 -1.18720E-09 -1.17965E-09 -1.17258E-09 -1.16593E-09 -1.15964E-09
  -1.15366E-09 -1.14796E-09 -1.14249E-09 -1.13721E-09 -1.13207E-09 -1.12704E-09 -1.12208E-09 -1.11713E-09 -1.11217E-09 -1.10715E-09
  -1.10203E-09 -1.09677E-09 -1.09133E-09 -1.08567E-09 -1.07975E-09 -1.07353E-09 -1.06697E-09 -1.06002E-09 -1.05266E-09 -1.04484E-09
  -1.03653E-09 -1.02768E-09 -1.01825E-09 -1.00821E-09 -9.97525E-10 -9.86147E-10 -9.74045E-10 -9.61180E-10 -9.47562E-10 -9.33220E-10
  -9.18182E-10 -9.02479E-10 -8.86141E-10 -8.69194E-10 -8.51671E-10 -8.33599E-10 -8.15009E-10 -7.95927E-10 -7.76385E-10 -7.56409E-10
  -7.36031E-10 -7.15275E-10 -6.94172E-10 -6.72753E-10 -6.51041E-10 -6.29068E-10 -6.06860E-10 -5.84444E-10 -5.61850E-10 -5.39106E-10
  -5.16235E-10 -4.93269E-10 -4.70232E-10 -4.47153E-10 -4.24059E-10 -4.00972E-10 -3.77902E-10 -3.54852E-10 -3.31823E-10 -3.08816E-10
  -2.85836E-10 -2.62882E-10 -2.39957E-10 -2.17063E-10 -1.94205E-10 -1.71379E-10 -1.48594E-10 -1.25847E-10 -1.03142E-10 -8.04805E-11
  -5.78630E-11 -3.52948E-11 -1.27753E-11  9.69227E-12  3.21069E-11  5.44651E-11  7.67662E-11  9.90093E-11  1.21191E-10  1.43308E-10
   1.65360E-10  1.87344E-10  2.09262E-10
 Asp      Conc. = 7.67E-10
   3.29990E-09  3.13645E-09  2.98096E-09  2.84090E-09  2.72859E-09  2.63016E-09  2.56571E-09  2.51835E-09  2.50550E-09  2.50193E-09
   2.50143E-09  2.50201E-09  2.50298E-09  2.50404E-09  2.50474E-09  2.50507E-09  2.50531E-09  2.50554E-09  2.50584E-09  2.50625E-09
   2.50685E-09  2.50770E-09  2.50889E-09  2.51049E-09  2.51258E-09  2.51531E-09  2.51879E-09  2.52317E-09  2.52868E-09  2.53557E-09
   2.54423E-09  2.55514E-09  2.56903E-09  2.58698E-09  2.61079E-09  2.64376E-09  2.69271E-09  2.75371E-09  2.82660E-09  2.89353E-09
   2.93977E-09  2.95938E-09  2.96388E-09  2.98931E-09  3.05848E-09  3.21028E-09  3.39581E-09  3.56168E-09  3.68630E-09  3.72892E-09
   3.68804E-09  3.57986E-09  3.43694E-09  3.26540E-09  3.07177E-09  2.89982E-09  2.75770E-09  2.71805E-09  2.68240E-09  2.63743E-09
   2.62388E-09  2.62226E-09  2.60618E-09  2.59328E-09  2.58921E-09  2.57419E-09  2.54733E-09  2.54176E-09  2.54670E-09  2.55686E-09
   2.57008E-09  2.58526E-09  2.60180E-09  2.61929E-09  2.63747E-09  2.65617E-09  2.67522E-09  2.69452E-09  2.71397E-09  2.73350E-09
   2.75302E-09  2.77248E-09  2.79182E-09  2.81099E-09  2.82992E-09  2.84859E-09  2.86696E-09  2.88501E-09  2.90271E-09  2.92004E-09
   2.93699E-09  2.95350E-09  2.96958E-09  2.98520E-09  3.00033E-09  3.01495E-09  3.02904E-09  3.04258E-09  3.05554E-09  3.06791E-09
   3.07965E-09  3.09076E-09  3.10120E-09  3.11095E-09  3.12001E-09  3.12832E-09  3.13590E-09  3.14269E-09  3.14870E-09  3.15389E-09
   3.15824E-09  3.16173E-09  3.16433E-09  3.16602E-09  3.16675E-09  3.16647E-09  3.16516E-09  3.16275E-09  3.15922E-09  3.15451E-09
   3.14858E-09  3.14140E-09  3.13292E-09  3.12309E-09  3.11187E-09  3.09923E-09  3.08512E-09  3.06949E-09  3.05230E-09  3.03352E-09
   3.01310E-09  2.99099E-09  2.96715E-09  2.94155E-09  2.91413E-09  2.88486E-09  2.85371E-09  2.82061E-09  2.78555E-09  2.74846E-09
   2.70930E-09  2.66803E-09  2.62455E-09  2.57881E-09  2.53073E-09  2.48023E-09  2.42724E-09  2.37171E-09  2.31354E-09  2.25268E-09
   2.18908E-09  2.12265E-09  2.05335E-09  1.98113E-09  1.90594E-09  1.82774E-09  1.74652E-09  1.66228E-09  1.57505E-09  1.48491E-09
   1.39203E-09  1.29671E-09  1.19956E-09  1.10167E-09  1.00547E-09  9.17072E-10  8.57777E-10  9.25478E-10  1.11073E-09  1.36721E-09
   1.63075E-09  1.80154E-09  1.78061E-09  1.54608E-09  1.15626E-09  7.04833E-10  2.43367E-10 -2.34852E-10 -6.99601E-10 -9.78743E-10
  -1.16951E-09 -1.33575E-09 -1.49096E-09 -1.63938E-09 -1.78254E-09 -1.92104E-09 -2.05501E-09 -2.18436E-09 -2.30887E-09 -2.42827E-09
  -2.54223E-09 -2.65041E-09 -2.75242E-09 -2.84788E-09 -2.93640E-09 -3.01759E-09 -3.09118E-09 -3.15732E-09 -3.21625E-09 -3.26821E-09
  -3.31343E-09 -3.35213E-09 -3.38455E-09 -3.41093E-09 -3.43149E-09 -3.44645E-09 -3.45606E-09 -3.46053E-09 -3.46010E-09 -3.45500E-09
  -3.44544E-09 -3.43167E-09 -3.41390E-09 -3.39236E-09 -3.36728E-09 -3.33890E-09 -3.30742E-09 -3.27308E-09 -3.23611E-09 -3.19672E-09
  -3.15515E-09 -3.11162E-09 -3.06635E-09 -3.01957E-09 -2.97148E-09 -2.92219E-09 -2.87184E-09 -2.82053E-09 -2.76840E-09 -2.71557E-09
