 LCModel (Version 6.3-1R) Copyright: S.W. Provencher.          Ref.: Magn. Reson. Med. 30:672-679 (1993).                
 onepulse 17x13_ftSpec_smooth_lcm
 26 lines in following concentration table = NCONC+1
    Conc.  %SD /Cr+PCr  Metabolite                                         
    0.000 999%   0.000 Ala                                                 
    0.000 999%   0.000 Asp                                                 
    0.000 999%   0.000 Cr                                                  
    0.000 999%   0.000 GABA                                                
    0.000 999%   0.000 Glc                                                 
 3.15E-09  14%  14.860 Gln                                                 
    0.000 999%   0.000 Glu                                                 
 7.03E-10 159%   3.320 Glyc                                                
    0.000 999%   0.000 GPC                                                 
    0.000 999%   0.000 GSH                                                 
 1.91E-10 529%   0.902 Ins                                                 
    0.000 999%   0.000 Lac                                                 
 1.87E-10 124%   0.884 NAAG                                                
 1.15E-10 251%   0.543 NAA                                                 
    0.000 999%   0.000 PCh                                                 
 2.12E-10  90%   1.000 PCr                                                 
 1.23E-09  50%   5.792 PE                                                  
 6.16E-11 302%   0.291 Scyllo                                              
 1.04E-09  50%   4.908 Ser                                                 
 7.31E-10  85%   3.454 Tau                                                 
    0.000 999%   0.000 GPC+PCh                                             
 3.02E-10  65%   1.427 NAA+NAAG                                            
 8.94E-10  35%   4.222 Ins+Glyc                                            
 2.12E-10  90%   1.000 Cr+PCr                                              
 3.15E-09  14%  14.860 Glu+Gln                                             
   6 lines in following misc. output table
  FWHM = 0.089 ppm    S/N =   4                                            
  Data shift = 0.358 ppm                                                   
  Ph: -45 deg     -35.4 deg/ppm                                            
  alphaB,S = 2.5E-01,   1.3E+01                                            
   13 spline knots.   Ns = 5(1)                                            
  (10) 5 infls.   ( 9) 3 extrs.                                            
  363 points on ppm-axis = NY
      4.250000     4.238821     4.227641     4.216462     4.205282     4.194103     4.182923     4.171744     4.160564     4.149385
      4.138206     4.127026     4.115847     4.104667     4.093488     4.082308     4.071129     4.059949     4.048770     4.037591
      4.026411     4.015232     4.004052     3.992873     3.981693     3.970514     3.959334     3.948155     3.936975     3.925796
      3.914617     3.903437     3.892258     3.881078     3.869899     3.858719     3.847540     3.836360     3.825181     3.814002
      3.802822     3.791643     3.780463     3.769284     3.758104     3.746925     3.735745     3.724566     3.713387     3.702207
      3.691028     3.679848     3.668669     3.657489     3.646310     3.635130     3.623951     3.612772     3.601592     3.590413
      3.579233     3.568054     3.556874     3.545695     3.534515     3.523336     3.512156     3.500977     3.489798     3.478618
      3.467439     3.456259     3.445080     3.433900     3.422721     3.411541     3.400362     3.389183     3.378003     3.366824
      3.355644     3.344465     3.333285     3.322106     3.310926     3.299747     3.288568     3.277388     3.266209     3.255029
      3.243850     3.232670     3.221491     3.210311     3.199132     3.187953     3.176773     3.165594     3.154414     3.143235
      3.132055     3.120876     3.109696     3.098517     3.087337     3.076158     3.064979     3.053799     3.042620     3.031440
      3.020261     3.009081     2.997902     2.986722     2.975543     2.964364     2.953184     2.942005     2.930825     2.919646
      2.908466     2.897287     2.886107     2.874928     2.863749     2.852569     2.841390     2.830210     2.819031     2.807851
      2.796672     2.785492     2.774313     2.763134     2.751954     2.740775     2.729595     2.718416     2.707236     2.696057
      2.684877     2.673698     2.662519     2.651339     2.640160     2.628980     2.617801     2.606621     2.595442     2.584262
      2.573083     2.561903     2.550724     2.539545     2.528365     2.517186     2.506006     2.494827     2.483647     2.472468
      2.461288     2.450109     2.438930     2.427750     2.416571     2.405391     2.394212     2.383032     2.371853     2.360673
      2.349494     2.338315     2.327135     2.315956     2.304776     2.293597     2.282417     2.271238     2.260058     2.248879
      2.237700     2.226520     2.215341     2.204161     2.192982     2.181802     2.170623     2.159443     2.148264     2.137084
      2.125905     2.114726     2.103546     2.092367     2.081187     2.070008     2.058828     2.047649     2.036469     2.025290
      2.014111     2.002931     1.991752     1.980572     1.969393     1.958213     1.947034     1.935854     1.924675     1.913496
      1.902316     1.891137     1.879957     1.868778     1.857598     1.846419     1.835239     1.824060     1.812881     1.801701
      1.790522     1.779342     1.768163     1.756983     1.745804     1.734624     1.723445     1.712265     1.701086     1.689907
      1.678727     1.667548     1.656368     1.645189     1.634009     1.622830     1.611650     1.600471     1.589292     1.578112
      1.566933     1.555753     1.544574     1.533394     1.522215     1.511035     1.499856     1.488677     1.477497     1.466318
      1.455138     1.443959     1.432779     1.421600     1.410420     1.399241     1.388062     1.376882     1.365703     1.354523
      1.343344     1.332164     1.320985     1.309805     1.298626     1.287446     1.276267     1.265088     1.253908     1.242729
      1.231549     1.220370     1.209190     1.198011     1.186831     1.175652     1.164473     1.153293     1.142114     1.130934
      1.119755     1.108575     1.097396     1.086216     1.075037     1.063858     1.052678     1.041499     1.030319     1.019140
      1.007960     0.996781     0.985601     0.974422     0.963243     0.952063     0.940884     0.929704     0.918525     0.907345
      0.896166     0.884986     0.873807     0.862628     0.851448     0.840269     0.829089     0.817910     0.806730     0.795551
      0.784371     0.773192     0.762012     0.750833     0.739654     0.728474     0.717295     0.706115     0.694936     0.683756
      0.672577     0.661397     0.650218     0.639039     0.627859     0.616680     0.605500     0.594321     0.583141     0.571962
      0.560782     0.549603     0.538424     0.527244     0.516065     0.504885     0.493706     0.482526     0.471347     0.460167
      0.448988     0.437809     0.426629     0.415450     0.404270     0.393091     0.381911     0.370732     0.359552     0.348373
      0.337193     0.326014     0.314835     0.303655     0.292476     0.281296     0.270117     0.258937     0.247758     0.236578
      0.225399     0.214220     0.203040
 NY phased data points follow
   1.49879E-08  1.10360E-08  1.00707E-08  7.73414E-09  8.96510E-09  7.10550E-09  8.41203E-09  7.03316E-09  9.58903E-09  7.89796E-09
   9.60574E-09  8.87717E-09  9.72118E-09  8.53185E-09  1.00520E-08  8.38356E-09  8.86030E-09  7.18378E-09  8.74001E-09  7.18813E-09
   8.29569E-09  7.57022E-09  9.52068E-09  8.30374E-09  9.85632E-09  8.32650E-09  8.74037E-09  7.19004E-09  8.35386E-09  8.29961E-09
   1.08840E-08  1.02696E-08  1.04099E-08  8.11074E-09  7.59386E-09  4.87999E-09  4.98069E-09  4.32050E-09  5.48994E-09  3.96434E-09
   4.74039E-09  3.90364E-09  4.75638E-09  3.90100E-09  4.54517E-09  2.91994E-09  3.50384E-09  3.10095E-09  4.91837E-09  4.47032E-09
   5.05068E-09  4.34761E-09  4.79480E-09  3.86812E-09  4.23722E-09  3.81194E-09  4.41957E-09  4.90070E-09  6.22162E-09  6.33182E-09
   8.36215E-09  1.06475E-08  1.46783E-08  1.37531E-08  1.24205E-08  8.54291E-09  7.93973E-09  6.31892E-09  5.79683E-09  5.26089E-09
   5.01340E-09  4.59459E-09  4.41447E-09  3.70495E-09  4.66923E-09  4.02818E-09  5.87182E-09  7.54862E-09  1.08260E-08  1.40926E-08
   1.45131E-08  1.22679E-08  1.06213E-08  9.23271E-09  8.23695E-09  7.76992E-09  7.25889E-09  6.60333E-09  6.76048E-09  6.02612E-09
   5.59512E-09  4.99648E-09  4.90629E-09  3.65312E-09  4.04032E-09  3.94052E-09  3.16638E-09  3.09066E-09  3.30728E-09  3.12509E-09
   2.95721E-09  3.75900E-09  3.51715E-09  3.30546E-09  2.84721E-09  3.18631E-09  2.89184E-09  2.97730E-09  2.42319E-09  1.54793E-09
   1.87222E-09  1.27703E-09  2.90471E-09  3.34213E-09  2.74151E-09  2.73329E-09  3.72564E-09  3.72137E-09  3.68442E-09  3.88375E-09
   4.66921E-09  4.16047E-09  2.84009E-09  2.50975E-09  2.33519E-09  2.15345E-09  1.89689E-09  2.67927E-09  2.78412E-09  2.62161E-09
   2.74521E-09  3.14765E-09  2.99743E-09  3.12251E-09  2.92248E-09  3.05316E-09  2.79057E-09  2.47321E-09  3.21298E-09  4.42784E-09
   5.29791E-09  5.31209E-09  4.82133E-09  4.39080E-09  4.66584E-09  5.52798E-09  5.32972E-09  5.83425E-09  5.34324E-09  5.24478E-09
   4.77915E-09  4.68224E-09  4.19090E-09  4.61113E-09  4.20295E-09  4.63380E-09  4.04645E-09  4.61658E-09  3.95850E-09  4.34860E-09
   4.63719E-09  4.61030E-09  4.15084E-09  4.07476E-09  3.43703E-09  3.65071E-09  3.14972E-09  4.91517E-09  4.32670E-09  6.80642E-09
   1.28091E-08  1.75336E-08  1.71045E-08  1.53034E-08  1.31592E-08  1.26608E-08  1.12448E-08  9.94888E-09  8.46965E-09  8.26397E-09
   7.30956E-09  6.51863E-09  5.93540E-09  5.36457E-09  3.21484E-09  3.03346E-09  1.89632E-09  9.51869E-10 -9.06600E-10 -2.37638E-09
  -4.21766E-09 -4.81218E-09 -5.98120E-09 -6.96291E-09 -8.81029E-09 -9.48754E-09 -9.82066E-09 -1.02955E-08 -1.16257E-08 -1.08736E-08
  -1.08672E-08 -1.00090E-08 -9.87722E-09 -8.54786E-09 -7.62537E-09 -6.80720E-09 -6.43526E-09 -5.43391E-09 -4.14787E-09 -3.37429E-09
  -2.55828E-09 -1.97040E-09 -2.45248E-09 -1.82187E-09 -1.80448E-09 -1.71489E-09 -2.10942E-09 -1.53664E-09 -2.08064E-09 -2.14624E-09
  -1.88412E-09 -1.36520E-09 -1.58728E-09 -1.33818E-09 -5.36090E-10 -7.88318E-10 -1.65626E-09 -1.10470E-09 -1.75651E-09 -1.20821E-09
  -1.46806E-09 -1.42358E-09 -1.29363E-09 -9.74734E-10 -1.33121E-09 -5.19923E-10 -1.16166E-09 -5.00448E-10 -8.93111E-10 -1.11557E-09
  -2.17758E-09 -1.01552E-09 -9.91904E-10 -1.32093E-09 -1.88263E-09 -9.38425E-10 -1.38019E-09 -4.58128E-10 -1.04561E-09 -1.25169E-09
  -7.41355E-10 -4.05298E-10 -7.44635E-10  9.27991E-11 -3.11159E-10 -1.67196E-11 -4.97199E-10 -4.21343E-10 -5.54709E-10 -2.82181E-10
  -1.60103E-09 -1.73398E-09 -1.82589E-09 -1.92083E-09 -2.27239E-09 -1.91773E-09 -2.28236E-09 -1.96094E-09 -1.94657E-09 -1.68764E-09
  -1.17704E-09 -7.16216E-10 -3.36181E-10 -5.37106E-10 -2.42502E-10  1.44015E-10 -3.77535E-11  1.16282E-10  5.90564E-11 -4.61871E-11
   2.01408E-10  7.83073E-10 -1.38372E-10 -3.63319E-10 -7.16637E-10  4.54947E-10 -1.93462E-10 -6.56717E-10 -1.74741E-09 -1.56990E-10
  -6.91880E-10 -8.51818E-10 -1.49971E-09 -1.58811E-10 -1.04225E-09 -1.24470E-09 -1.30062E-09 -8.92486E-10 -1.35086E-09 -1.14313E-09
  -1.36222E-09 -1.49500E-09 -2.08276E-09 -1.47530E-09 -1.61234E-09 -2.08859E-09 -2.06521E-09 -1.72389E-09 -2.02938E-09 -1.37723E-09
  -1.72233E-09 -2.04733E-09 -2.59132E-09 -1.65172E-09 -2.03938E-09 -2.45062E-09 -2.26941E-09 -2.01041E-09 -2.01978E-09 -2.29761E-09
  -2.26487E-09 -2.33460E-09 -2.36159E-09 -2.44872E-09 -2.92433E-09 -2.13512E-09 -2.42167E-09 -2.13342E-09 -2.75404E-09 -2.64561E-09
  -1.93326E-09 -2.51343E-09 -2.99797E-09 -1.95693E-09 -2.73736E-09 -2.40480E-09 -2.81281E-09 -2.24089E-09 -3.34775E-09 -2.50983E-09
  -2.86468E-09 -2.49094E-09 -3.24317E-09 -2.95095E-09 -2.83224E-09 -2.46818E-09 -2.84456E-09 -3.19740E-09 -3.46275E-09 -2.17873E-09
  -2.77734E-09 -3.12832E-09 -2.91189E-09 -2.57568E-09 -2.80004E-09 -2.99660E-09 -2.77568E-09 -2.82273E-09 -2.92176E-09 -3.06108E-09
  -2.89986E-09 -2.64651E-09 -2.31233E-09
 NY points of the fit to the data follow
   1.18166E-08  1.07365E-08  9.67896E-09  9.68614E-09  9.78161E-09  9.62072E-09  9.23163E-09  8.70741E-09  8.37598E-09  8.23414E-09
   8.36877E-09  8.54696E-09  9.34099E-09  9.04995E-09  8.56103E-09  8.22847E-09  8.44065E-09  8.82504E-09  8.71203E-09  7.60048E-09
   7.29191E-09  7.36927E-09  7.53701E-09  7.90407E-09  8.51004E-09  9.07101E-09  9.66877E-09  9.78238E-09  9.79738E-09  9.67248E-09
   9.39363E-09  8.72708E-09  7.86782E-09  7.04121E-09  6.64581E-09  6.27379E-09  5.73887E-09  5.13481E-09  4.76845E-09  4.60630E-09
   4.55254E-09  4.40912E-09  3.97894E-09  3.66079E-09  3.61100E-09  3.61821E-09  3.64298E-09  3.66500E-09  3.70817E-09  3.76772E-09
   3.85818E-09  3.97220E-09  4.13776E-09  4.32850E-09  4.63577E-09  5.08998E-09  5.59708E-09  6.56682E-09  7.84410E-09  8.60295E-09
   9.21158E-09  1.01455E-08  1.07664E-08  1.07439E-08  1.02813E-08  9.45469E-09  8.41634E-09  7.97015E-09  7.09117E-09  5.62508E-09
   5.13116E-09  5.29198E-09  5.12966E-09  5.25702E-09  5.94072E-09  6.95106E-09  7.66765E-09  8.53033E-09  9.67354E-09  1.07164E-08
   1.13558E-08  1.15884E-08  1.09362E-08  1.01055E-08  9.71888E-09  8.89344E-09  7.45669E-09  6.57560E-09  5.63574E-09  4.91843E-09
   4.52643E-09  4.28683E-09  4.11766E-09  3.99443E-09  3.89038E-09  3.80838E-09  3.74876E-09  3.70164E-09  3.66030E-09  3.61671E-09
   3.58756E-09  3.56954E-09  3.55177E-09  3.53478E-09  3.52209E-09  3.51330E-09  3.50703E-09  3.50293E-09  3.50039E-09  3.49930E-09
   3.49945E-09  3.50058E-09  3.50245E-09  3.50484E-09  3.50754E-09  3.51037E-09  3.51314E-09  3.51571E-09  3.51790E-09  3.51957E-09
   3.52056E-09  3.52075E-09  3.51999E-09  3.51815E-09  3.51509E-09  3.51070E-09  3.50485E-09  3.49741E-09  3.48827E-09  3.47731E-09
   3.46440E-09  3.44945E-09  3.43232E-09  3.41291E-09  3.39111E-09  3.36681E-09  3.33992E-09  3.31030E-09  3.27787E-09  3.24253E-09
   3.20417E-09  3.16271E-09  3.11804E-09  3.07008E-09  3.01876E-09  2.96398E-09  2.90576E-09  2.84426E-09  2.77968E-09  2.71225E-09
   2.64221E-09  2.56980E-09  2.49533E-09  2.41911E-09  2.34154E-09  2.26308E-09  2.18431E-09  2.10596E-09  2.02901E-09  1.95481E-09
   1.88536E-09  1.82368E-09  1.77480E-09  1.74780E-09  1.76150E-09  1.86459E-09  2.24623E-09  3.48578E-09  4.70334E-09  7.66145E-09
   1.27501E-08  1.70454E-08  1.77743E-08  1.59786E-08  1.40807E-08  1.35031E-08  1.32272E-08  1.10102E-08  5.10640E-09  1.72817E-09
   7.24939E-10  2.45817E-10 -5.59108E-11 -2.77501E-10 -4.56035E-10 -6.08557E-10 -7.43936E-10 -8.67193E-10 -9.81378E-10 -1.08842E-09
  -1.18958E-09 -1.28573E-09 -1.37745E-09 -1.46517E-09 -1.54919E-09 -1.62970E-09 -1.70686E-09 -1.78076E-09 -1.85148E-09 -1.91904E-09
  -1.98349E-09 -2.04481E-09 -2.10300E-09 -2.15805E-09 -2.20993E-09 -2.25861E-09 -2.30405E-09 -2.34623E-09 -2.38509E-09 -2.42059E-09
  -2.45269E-09 -2.48132E-09 -2.50644E-09 -2.52800E-09 -2.54594E-09 -2.56021E-09 -2.57075E-09 -2.57751E-09 -2.58044E-09 -2.57963E-09
  -2.57526E-09 -2.56747E-09 -2.55642E-09 -2.54226E-09 -2.52515E-09 -2.50524E-09 -2.48269E-09 -2.45765E-09 -2.43028E-09 -2.40072E-09
  -2.36914E-09 -2.33568E-09 -2.30051E-09 -2.26377E-09 -2.22562E-09 -2.18620E-09 -2.14568E-09 -2.10420E-09 -2.06192E-09 -2.01900E-09
  -1.97557E-09 -1.93180E-09 -1.88785E-09 -1.84386E-09 -1.79998E-09 -1.75636E-09 -1.71317E-09 -1.67055E-09 -1.62865E-09 -1.58763E-09
  -1.54764E-09 -1.50883E-09 -1.47136E-09 -1.43537E-09 -1.40102E-09 -1.36835E-09 -1.33735E-09 -1.30801E-09 -1.28031E-09 -1.25422E-09
  -1.22974E-09 -1.20684E-09 -1.18551E-09 -1.16574E-09 -1.14749E-09 -1.13075E-09 -1.11552E-09 -1.10177E-09 -1.08947E-09 -1.07862E-09
  -1.06920E-09 -1.06118E-09 -1.05456E-09 -1.04931E-09 -1.04542E-09 -1.04287E-09 -1.04165E-09 -1.04172E-09 -1.04309E-09 -1.04571E-09
  -1.04960E-09 -1.05471E-09 -1.06105E-09 -1.06857E-09 -1.07729E-09 -1.08716E-09 -1.09819E-09 -1.11034E-09 -1.12360E-09 -1.13796E-09
  -1.15338E-09 -1.16986E-09 -1.18736E-09 -1.20583E-09 -1.22525E-09 -1.24558E-09 -1.26678E-09 -1.28882E-09 -1.31166E-09 -1.33527E-09
  -1.35962E-09 -1.38466E-09 -1.41035E-09 -1.43668E-09 -1.46359E-09 -1.49106E-09 -1.51905E-09 -1.54752E-09 -1.57644E-09 -1.60577E-09
  -1.63548E-09 -1.66554E-09 -1.69589E-09 -1.72652E-09 -1.75738E-09 -1.78845E-09 -1.81968E-09 -1.85104E-09 -1.88249E-09 -1.91400E-09
  -1.94554E-09 -1.97706E-09 -2.00853E-09 -2.03992E-09 -2.07119E-09 -2.10230E-09 -2.13323E-09 -2.16394E-09 -2.19444E-09 -2.22473E-09
  -2.25483E-09 -2.28472E-09 -2.31443E-09 -2.34395E-09 -2.37330E-09 -2.40247E-09 -2.43147E-09 -2.46031E-09 -2.48899E-09 -2.51752E-09
  -2.54591E-09 -2.57415E-09 -2.60226E-09 -2.63024E-09 -2.65809E-09 -2.68583E-09 -2.71345E-09 -2.74096E-09 -2.76838E-09 -2.79569E-09
  -2.82292E-09 -2.85005E-09 -2.87711E-09 -2.90409E-09 -2.93100E-09 -2.95784E-09 -2.98463E-09 -3.01137E-09 -3.03805E-09 -3.06470E-09
  -3.09130E-09 -3.11788E-09 -3.14443E-09
 NY background values follow
     2.063E-09    2.066E-09    2.069E-09    2.072E-09    2.075E-09    2.078E-09    2.081E-09    2.084E-09    2.087E-09    2.090E-09
     2.093E-09    2.096E-09    2.099E-09    2.102E-09    2.105E-09    2.108E-09    2.111E-09    2.115E-09    2.118E-09    2.121E-09
     2.124E-09    2.127E-09    2.130E-09    2.133E-09    2.136E-09    2.139E-09    2.143E-09    2.146E-09    2.149E-09    2.152E-09
     2.155E-09    2.159E-09    2.162E-09    2.165E-09    2.169E-09    2.172E-09    2.176E-09    2.179E-09    2.183E-09    2.186E-09
     2.190E-09    2.193E-09    2.197E-09    2.201E-09    2.204E-09    2.208E-09    2.212E-09    2.216E-09    2.220E-09    2.224E-09
     2.228E-09    2.233E-09    2.237E-09    2.241E-09    2.246E-09    2.251E-09    2.255E-09    2.260E-09    2.265E-09    2.270E-09
     2.276E-09    2.281E-09    2.286E-09    2.292E-09    2.298E-09    2.304E-09    2.310E-09    2.316E-09    2.322E-09    2.329E-09
     2.335E-09    2.342E-09    2.349E-09    2.356E-09    2.364E-09    2.371E-09    2.379E-09    2.387E-09    2.395E-09    2.403E-09
     2.411E-09    2.420E-09    2.428E-09    2.437E-09    2.446E-09    2.455E-09    2.464E-09    2.474E-09    2.483E-09    2.493E-09
     2.502E-09    2.512E-09    2.522E-09    2.532E-09    2.542E-09    2.553E-09    2.563E-09    2.574E-09    2.584E-09    2.595E-09
     2.606E-09    2.617E-09    2.628E-09    2.639E-09    2.650E-09    2.661E-09    2.672E-09    2.684E-09    2.695E-09    2.706E-09
     2.718E-09    2.729E-09    2.741E-09    2.752E-09    2.762E-09    2.772E-09    2.782E-09    2.790E-09    2.798E-09    2.805E-09
     2.811E-09    2.815E-09    2.819E-09    2.821E-09    2.821E-09    2.820E-09    2.817E-09    2.813E-09    2.806E-09    2.797E-09
     2.787E-09    2.774E-09    2.758E-09    2.741E-09    2.720E-09    2.697E-09    2.671E-09    2.643E-09    2.611E-09    2.576E-09
     2.538E-09    2.497E-09    2.452E-09    2.404E-09    2.352E-09    2.296E-09    2.236E-09    2.173E-09    2.106E-09    2.036E-09
     1.963E-09    1.887E-09    1.807E-09    1.725E-09    1.640E-09    1.553E-09    1.464E-09    1.372E-09    1.278E-09    1.183E-09
     1.085E-09    9.862E-10    8.858E-10    7.840E-10    6.811E-10    5.773E-10    4.725E-10    3.671E-10    2.611E-10    1.546E-10
     4.796E-11   -5.884E-11   -1.656E-10   -2.722E-10   -3.784E-10   -4.842E-10   -5.894E-10   -6.937E-10   -7.972E-10   -8.996E-10
    -1.001E-09   -1.101E-09   -1.199E-09   -1.296E-09   -1.391E-09   -1.484E-09   -1.576E-09   -1.665E-09   -1.753E-09   -1.839E-09
    -1.923E-09   -2.005E-09   -2.085E-09   -2.162E-09   -2.237E-09   -2.310E-09   -2.381E-09   -2.449E-09   -2.514E-09   -2.577E-09
    -2.638E-09   -2.695E-09   -2.750E-09   -2.802E-09   -2.851E-09   -2.897E-09   -2.940E-09   -2.980E-09   -3.017E-09   -3.050E-09
    -3.081E-09   -3.108E-09   -3.131E-09   -3.151E-09   -3.168E-09   -3.181E-09   -3.190E-09   -3.196E-09   -3.198E-09   -3.196E-09
    -3.190E-09   -3.182E-09   -3.170E-09   -3.155E-09   -3.137E-09   -3.116E-09   -3.093E-09   -3.067E-09   -3.039E-09   -3.009E-09
    -2.976E-09   -2.942E-09   -2.906E-09   -2.869E-09   -2.830E-09   -2.790E-09   -2.749E-09   -2.707E-09   -2.664E-09   -2.621E-09
    -2.577E-09   -2.533E-09   -2.488E-09   -2.444E-09   -2.400E-09   -2.356E-09   -2.312E-09   -2.269E-09   -2.227E-09   -2.185E-09
    -2.145E-09   -2.105E-09   -2.068E-09   -2.031E-09   -1.997E-09   -1.963E-09   -1.932E-09   -1.902E-09   -1.874E-09   -1.848E-09
    -1.823E-09   -1.800E-09   -1.778E-09   -1.758E-09   -1.740E-09   -1.722E-09   -1.707E-09   -1.693E-09   -1.680E-09   -1.669E-09
    -1.659E-09   -1.651E-09   -1.644E-09   -1.639E-09   -1.634E-09   -1.632E-09   -1.630E-09   -1.630E-09   -1.631E-09   -1.633E-09
    -1.637E-09   -1.642E-09   -1.648E-09   -1.655E-09   -1.663E-09   -1.673E-09   -1.684E-09   -1.696E-09   -1.709E-09   -1.723E-09
    -1.738E-09   -1.754E-09   -1.771E-09   -1.789E-09   -1.809E-09   -1.829E-09   -1.850E-09   -1.871E-09   -1.894E-09   -1.917E-09
    -1.941E-09   -1.966E-09   -1.992E-09   -2.018E-09   -2.044E-09   -2.072E-09   -2.099E-09   -2.127E-09   -2.156E-09   -2.185E-09
    -2.215E-09   -2.244E-09   -2.275E-09   -2.305E-09   -2.335E-09   -2.366E-09   -2.397E-09   -2.428E-09   -2.460E-09   -2.491E-09
    -2.522E-09   -2.553E-09   -2.585E-09   -2.616E-09   -2.647E-09   -2.678E-09   -2.708E-09   -2.739E-09   -2.769E-09   -2.799E-09
    -2.829E-09   -2.858E-09   -2.888E-09   -2.917E-09   -2.946E-09   -2.975E-09   -3.004E-09   -3.032E-09   -3.061E-09   -3.089E-09
    -3.117E-09   -3.145E-09   -3.173E-09   -3.201E-09   -3.228E-09   -3.256E-09   -3.283E-09   -3.310E-09   -3.337E-09   -3.364E-09
    -3.391E-09   -3.418E-09   -3.445E-09   -3.472E-09   -3.498E-09   -3.525E-09   -3.551E-09   -3.578E-09   -3.604E-09   -3.630E-09
    -3.657E-09   -3.683E-09   -3.709E-09
 Gln      Conc. = 3.15E-09
   4.12612E-09  4.54151E-09  5.20128E-09  5.95861E-09  6.57922E-09  6.91063E-09  7.01155E-09  6.76420E-09  6.25881E-09  5.97051E-09
   5.44148E-09  4.40700E-09  4.15230E-09  3.51811E-09  3.12857E-09  2.94648E-09  2.84314E-09  2.77682E-09  2.73167E-09  2.70007E-09
   2.67735E-09  2.66076E-09  2.64876E-09  2.64034E-09  2.63507E-09  2.63313E-09  2.63260E-09  2.63348E-09  2.63655E-09  2.64065E-09
   2.64576E-09  2.65190E-09  2.65909E-09  2.66736E-09  2.67674E-09  2.68730E-09  2.69911E-09  2.71228E-09  2.72695E-09  2.74329E-09
   2.76157E-09  2.78195E-09  2.80513E-09  2.83151E-09  2.86180E-09  2.89701E-09  2.93786E-09  2.98503E-09  3.04173E-09  3.10997E-09
   3.19212E-09  3.29929E-09  3.44221E-09  3.63839E-09  3.94203E-09  4.41273E-09  4.93364E-09  5.91628E-09  7.17475E-09  7.94053E-09
   8.54986E-09  9.52756E-09  1.01795E-08  1.01594E-08  9.65613E-09  8.80937E-09  7.75448E-09  7.31600E-09  6.40473E-09  4.88781E-09
   4.32657E-09  4.43317E-09  4.21416E-09  4.26197E-09  4.84933E-09  5.77232E-09  6.43427E-09  7.16086E-09  7.96628E-09  8.50797E-09
   8.75207E-09  8.93489E-09  8.52649E-09  7.89080E-09  7.57997E-09  6.83283E-09  5.72713E-09  5.35251E-09  4.82773E-09  4.26999E-09
   3.95157E-09  3.74547E-09  3.60341E-09  3.50325E-09  3.42614E-09  3.36573E-09  3.31914E-09  3.28198E-09  3.25204E-09  3.22902E-09
   3.21137E-09  3.19719E-09  3.18596E-09  3.17726E-09  3.17091E-09  3.16694E-09  3.16459E-09  3.16364E-09  3.16394E-09  3.16533E-09
   3.16765E-09  3.17068E-09  3.17423E-09  3.17811E-09  3.18214E-09  3.18617E-09  3.19002E-09  3.19354E-09  3.19660E-09  3.19904E-09
   3.20074E-09  3.20155E-09  3.20134E-09  3.19999E-09  3.19737E-09  3.19335E-09  3.18782E-09  3.18065E-09  3.17172E-09  3.16092E-09
   3.14812E-09  3.13322E-09  3.11610E-09  3.09663E-09  3.07473E-09  3.05025E-09  3.02311E-09  2.99319E-09  2.96038E-09  2.92456E-09
   2.88565E-09  2.84353E-09  2.79809E-09  2.74923E-09  2.69687E-09  2.64089E-09  2.58128E-09  2.51817E-09  2.45174E-09  2.38216E-09
   2.30961E-09  2.23427E-09  2.15635E-09  2.07606E-09  1.99365E-09  1.90937E-09  1.82353E-09  1.73650E-09  1.64872E-09  1.56077E-09
   1.47345E-09  1.38792E-09  1.30597E-09  1.23065E-09  1.16779E-09  1.13070E-09  1.16035E-09  1.45861E-09  1.92878E-09  2.65729E-09
   4.40427E-09  6.39834E-09  7.25321E-09  6.71400E-09  5.78216E-09  5.25864E-09  5.14612E-09  4.61790E-09  2.68726E-09  4.92341E-10
  -1.29625E-10 -4.31517E-10 -6.33354E-10 -7.91875E-10 -9.27513E-10 -1.04928E-09 -1.16172E-09 -1.26734E-09 -1.36763E-09 -1.46348E-09
  -1.55550E-09 -1.64405E-09 -1.72939E-09 -1.81169E-09 -1.89105E-09 -1.96753E-09 -2.04117E-09 -2.11199E-09 -2.17997E-09 -2.24511E-09
  -2.30738E-09 -2.36675E-09 -2.42317E-09 -2.47662E-09 -2.52705E-09 -2.57440E-09 -2.61862E-09 -2.65968E-09 -2.69750E-09 -2.73204E-09
  -2.76325E-09 -2.79105E-09 -2.81539E-09 -2.83623E-09 -2.85349E-09 -2.86713E-09 -2.87707E-09 -2.88326E-09 -2.88565E-09 -2.88435E-09
  -2.87949E-09 -2.87125E-09 -2.85976E-09 -2.84518E-09 -2.82768E-09 -2.80739E-09 -2.78448E-09 -2.75909E-09 -2.73138E-09 -2.70151E-09
  -2.66962E-09 -2.63587E-09 -2.60040E-09 -2.56339E-09 -2.52496E-09 -2.48529E-09 -2.44451E-09 -2.40279E-09 -2.36028E-09 -2.31712E-09
  -2.27347E-09 -2.22949E-09 -2.18532E-09 -2.14112E-09 -2.09704E-09 -2.05322E-09 -2.00984E-09 -1.96703E-09 -1.92495E-09 -1.88375E-09
  -1.84358E-09 -1.80459E-09 -1.76695E-09 -1.73079E-09 -1.69627E-09 -1.66344E-09 -1.63228E-09 -1.60279E-09 -1.57493E-09 -1.54869E-09
  -1.52406E-09 -1.50101E-09 -1.47953E-09 -1.45961E-09 -1.44122E-09 -1.42434E-09 -1.40896E-09 -1.39507E-09 -1.38263E-09 -1.37165E-09
  -1.36209E-09 -1.35394E-09 -1.34719E-09 -1.34181E-09 -1.33778E-09 -1.33511E-09 -1.33376E-09 -1.33370E-09 -1.33494E-09 -1.33743E-09
  -1.34120E-09 -1.34619E-09 -1.35240E-09 -1.35980E-09 -1.36840E-09 -1.37814E-09 -1.38904E-09 -1.40108E-09 -1.41421E-09 -1.42845E-09
  -1.44375E-09 -1.46011E-09 -1.47749E-09 -1.49584E-09 -1.51514E-09 -1.53535E-09 -1.55643E-09 -1.57835E-09 -1.60108E-09 -1.62457E-09
  -1.64879E-09 -1.67371E-09 -1.69929E-09 -1.72550E-09 -1.75229E-09 -1.77964E-09 -1.80751E-09 -1.83586E-09 -1.86467E-09 -1.89388E-09
  -1.92347E-09 -1.95341E-09 -1.98365E-09 -2.01416E-09 -2.04490E-09 -2.07585E-09 -2.10696E-09 -2.13820E-09 -2.16953E-09 -2.20092E-09
  -2.23233E-09 -2.26373E-09 -2.29508E-09 -2.32635E-09 -2.35750E-09 -2.38849E-09 -2.41930E-09 -2.44989E-09 -2.48026E-09 -2.51043E-09
  -2.54040E-09 -2.57018E-09 -2.59976E-09 -2.62916E-09 -2.65837E-09 -2.68742E-09 -2.71630E-09 -2.74501E-09 -2.77356E-09 -2.80197E-09
  -2.83022E-09 -2.85834E-09 -2.88632E-09 -2.91417E-09 -2.94189E-09 -2.96949E-09 -2.99698E-09 -3.02437E-09 -3.05164E-09 -3.07883E-09
  -3.10592E-09 -3.13292E-09 -3.15984E-09 -3.18668E-09 -3.21346E-09 -3.24016E-09 -3.26682E-09 -3.29341E-09 -3.31996E-09 -3.34646E-09
  -3.37293E-09 -3.39936E-09 -3.42576E-09
 Glyc     Conc. = 7.03E-10
   2.13318E-09  2.14264E-09  2.15401E-09  2.16826E-09  2.18710E-09  2.21402E-09  2.25772E-09  2.34928E-09  2.63241E-09  2.84951E-09
   3.45267E-09  4.46798E-09  5.28362E-09  5.36693E-09  5.00603E-09  4.66295E-09  4.60283E-09  4.58458E-09  4.18469E-09  2.97746E-09
   2.46463E-09  2.32338E-09  2.26507E-09  2.23557E-09  2.21902E-09  2.20927E-09  2.20351E-09  2.20023E-09  2.19861E-09  2.19814E-09
   2.19849E-09  2.19946E-09  2.20090E-09  2.20269E-09  2.20478E-09  2.20711E-09  2.20963E-09  2.21232E-09  2.21515E-09  2.21810E-09
   2.22118E-09  2.22436E-09  2.22764E-09  2.23102E-09  2.23450E-09  2.23807E-09  2.24174E-09  2.24550E-09  2.24935E-09  2.25330E-09
   2.25734E-09  2.26149E-09  2.26574E-09  2.27010E-09  2.27455E-09  2.27913E-09  2.28381E-09  2.28861E-09  2.29353E-09  2.29858E-09
   2.30375E-09  2.30905E-09  2.31449E-09  2.32006E-09  2.32577E-09  2.33163E-09  2.33764E-09  2.34380E-09  2.35011E-09  2.35659E-09
   2.36323E-09  2.37004E-09  2.37702E-09  2.38417E-09  2.39150E-09  2.39900E-09  2.40667E-09  2.41450E-09  2.42250E-09  2.43066E-09
   2.43897E-09  2.44744E-09  2.45606E-09  2.46482E-09  2.47373E-09  2.48278E-09  2.49196E-09  2.50128E-09  2.51073E-09  2.52031E-09
   2.53002E-09  2.53985E-09  2.54979E-09  2.55985E-09  2.57003E-09  2.58032E-09  2.59071E-09  2.60121E-09  2.61180E-09  2.62250E-09
   2.63329E-09  2.64417E-09  2.65514E-09  2.66620E-09  2.67733E-09  2.68855E-09  2.69984E-09  2.71121E-09  2.72266E-09  2.73416E-09
   2.74568E-09  2.75712E-09  2.76836E-09  2.77930E-09  2.78984E-09  2.79985E-09  2.80924E-09  2.81790E-09  2.82572E-09  2.83259E-09
   2.83840E-09  2.84304E-09  2.84642E-09  2.84841E-09  2.84891E-09  2.84782E-09  2.84502E-09  2.84042E-09  2.83389E-09  2.82534E-09
   2.81465E-09  2.80172E-09  2.78645E-09  2.76870E-09  2.74840E-09  2.72543E-09  2.69968E-09  2.67103E-09  2.63940E-09  2.60466E-09
   2.56672E-09  2.52546E-09  2.48078E-09  2.43257E-09  2.38074E-09  2.32516E-09  2.26582E-09  2.20284E-09  2.13638E-09  2.06658E-09
   1.99361E-09  1.91763E-09  1.83879E-09  1.75726E-09  1.67321E-09  1.58682E-09  1.49828E-09  1.40780E-09  1.31560E-09  1.22195E-09
   1.12720E-09  1.03178E-09  9.36400E-10  8.42198E-10  7.51579E-10  6.71120E-10  6.29912E-10  6.71466E-10  6.96018E-10  9.64556E-10
   1.38075E-09  1.60109E-09  1.44626E-09  1.14074E-09  8.98837E-10  7.93440E-10  6.48760E-10  2.39127E-10 -4.70519E-10 -7.26798E-10
  -8.82354E-10 -1.00877E-09 -1.12257E-09 -1.22930E-09 -1.33132E-09 -1.42975E-09 -1.52518E-09 -1.61793E-09 -1.70819E-09 -1.79605E-09
  -1.88155E-09 -1.96472E-09 -2.04553E-09 -2.12398E-09 -2.20003E-09 -2.27363E-09 -2.34475E-09 -2.41334E-09 -2.47934E-09 -2.54270E-09
  -2.60337E-09 -2.66129E-09 -2.71640E-09 -2.76864E-09 -2.81796E-09 -2.86428E-09 -2.90756E-09 -2.94774E-09 -2.98474E-09 -3.01851E-09
  -3.04899E-09 -3.07611E-09 -3.09982E-09 -3.12005E-09 -3.13674E-09 -3.14983E-09 -3.15925E-09 -3.16494E-09 -3.16686E-09 -3.16510E-09
  -3.15981E-09 -3.15115E-09 -3.13926E-09 -3.12430E-09 -3.10643E-09 -3.08578E-09 -3.06252E-09 -3.03680E-09 -3.00877E-09 -2.97858E-09
