 LCModel (Version 6.3-1R) Copyright: S.W. Provencher.          Ref.: Magn. Reson. Med. 30:672-679 (1993).                
 onepulse 17x29_ftSpec_smooth_lcm
 26 lines in following concentration table = NCONC+1
    Conc.  %SD /Cr+PCr  Metabolite                                         
    0.000 999%   0.000 Ala                                                 
    0.000 999%   0.000 Asp                                                 
    0.000 999%   0.000 Cr                                                  
    0.000 999%   0.000 GABA                                                
 1.94E-10 489%   0.832 Glc                                                 
 1.04E-10 993%   0.445 Gln                                                 
 5.07E-10 168%   2.180 Glu                                                 
    0.000 999%   0.000 Glyc                                                
 1.36E-10  84%   0.584 GPC                                                 
    0.000 999%   0.000 GSH                                                 
 1.47E-09  40%   6.305 Ins                                                 
    0.000 999%   0.000 Lac                                                 
    0.000 999%   0.000 NAAG                                                
 7.51E-10  50%   3.232 NAA                                                 
    0.000 999%   0.000 PCh                                                 
 2.32E-10 137%   1.000 PCr                                                 
    0.000 999%   0.000 PE                                                  
 1.74E-10 128%   0.749 Scyllo                                              
 5.10E-09  25%  21.943 Ser                                                 
    0.000 999%   0.000 Tau                                                 
 1.36E-10  84%   0.584 GPC+PCh                                             
 7.51E-10  50%   3.232 NAA+NAAG                                            
 1.47E-09  40%   6.305 Ins+Glyc                                            
 2.32E-10 137%   1.000 Cr+PCr                                              
 6.10E-10 131%   2.626 Glu+Gln                                             
   6 lines in following misc. output table
  FWHM = 0.089 ppm    S/N =   2                                            
  Data shift = 0.347 ppm                                                   
  Ph: -47 deg     -38.9 deg/ppm                                            
  alphaB,S = 7.5E-01,   4.5E+01                                            
    8 spline knots.   Ns = 5(1)                                            
  ( 5) 4 infls.   ( 5) 1 extrs.                                            
  363 points on ppm-axis = NY
      4.250000     4.238821     4.227641     4.216462     4.205282     4.194103     4.182923     4.171744     4.160564     4.149385
      4.138206     4.127026     4.115847     4.104667     4.093488     4.082308     4.071129     4.059949     4.048770     4.037591
      4.026411     4.015232     4.004052     3.992873     3.981693     3.970514     3.959334     3.948155     3.936975     3.925796
      3.914617     3.903437     3.892258     3.881078     3.869899     3.858719     3.847540     3.836360     3.825181     3.814002
      3.802822     3.791643     3.780463     3.769284     3.758104     3.746925     3.735745     3.724566     3.713387     3.702207
      3.691028     3.679848     3.668669     3.657489     3.646310     3.635130     3.623951     3.612772     3.601592     3.590413
      3.579233     3.568054     3.556874     3.545695     3.534515     3.523336     3.512156     3.500977     3.489798     3.478618
      3.467439     3.456259     3.445080     3.433900     3.422721     3.411541     3.400362     3.389183     3.378003     3.366824
      3.355644     3.344465     3.333285     3.322106     3.310926     3.299747     3.288568     3.277388     3.266209     3.255029
      3.243850     3.232670     3.221491     3.210311     3.199132     3.187953     3.176773     3.165594     3.154414     3.143235
      3.132055     3.120876     3.109696     3.098517     3.087337     3.076158     3.064979     3.053799     3.042620     3.031440
      3.020261     3.009081     2.997902     2.986722     2.975543     2.964364     2.953184     2.942005     2.930825     2.919646
      2.908466     2.897287     2.886107     2.874928     2.863749     2.852569     2.841390     2.830210     2.819031     2.807851
      2.796672     2.785492     2.774313     2.763134     2.751954     2.740775     2.729595     2.718416     2.707236     2.696057
      2.684877     2.673698     2.662519     2.651339     2.640160     2.628980     2.617801     2.606621     2.595442     2.584262
      2.573083     2.561903     2.550724     2.539545     2.528365     2.517186     2.506006     2.494827     2.483647     2.472468
      2.461288     2.450109     2.438930     2.427750     2.416571     2.405391     2.394212     2.383032     2.371853     2.360673
      2.349494     2.338315     2.327135     2.315956     2.304776     2.293597     2.282417     2.271238     2.260058     2.248879
      2.237700     2.226520     2.215341     2.204161     2.192982     2.181802     2.170623     2.159443     2.148264     2.137084
      2.125905     2.114726     2.103546     2.092367     2.081187     2.070008     2.058828     2.047649     2.036469     2.025290
      2.014111     2.002931     1.991752     1.980572     1.969393     1.958213     1.947034     1.935854     1.924675     1.913496
      1.902316     1.891137     1.879957     1.868778     1.857598     1.846419     1.835239     1.824060     1.812881     1.801701
      1.790522     1.779342     1.768163     1.756983     1.745804     1.734624     1.723445     1.712265     1.701086     1.689907
      1.678727     1.667548     1.656368     1.645189     1.634009     1.622830     1.611650     1.600471     1.589292     1.578112
      1.566933     1.555753     1.544574     1.533394     1.522215     1.511035     1.499856     1.488677     1.477497     1.466318
      1.455138     1.443959     1.432779     1.421600     1.410420     1.399241     1.388062     1.376882     1.365703     1.354523
      1.343344     1.332164     1.320985     1.309805     1.298626     1.287446     1.276267     1.265088     1.253908     1.242729
      1.231549     1.220370     1.209190     1.198011     1.186831     1.175652     1.164473     1.153293     1.142114     1.130934
      1.119755     1.108575     1.097396     1.086216     1.075037     1.063858     1.052678     1.041499     1.030319     1.019140
      1.007960     0.996781     0.985601     0.974422     0.963243     0.952063     0.940884     0.929704     0.918525     0.907345
      0.896166     0.884986     0.873807     0.862628     0.851448     0.840269     0.829089     0.817910     0.806730     0.795551
      0.784371     0.773192     0.762012     0.750833     0.739654     0.728474     0.717295     0.706115     0.694936     0.683756
      0.672577     0.661397     0.650218     0.639039     0.627859     0.616680     0.605500     0.594321     0.583141     0.571962
      0.560782     0.549603     0.538424     0.527244     0.516065     0.504885     0.493706     0.482526     0.471347     0.460167
      0.448988     0.437809     0.426629     0.415450     0.404270     0.393091     0.381911     0.370732     0.359552     0.348373
      0.337193     0.326014     0.314835     0.303655     0.292476     0.281296     0.270117     0.258937     0.247758     0.236578
      0.225399     0.214220     0.203040
 NY phased data points follow
   1.26195E-08  1.41130E-08  1.43673E-08  1.43472E-08  1.28336E-08  1.24533E-08  1.20159E-08  1.13294E-08  1.09451E-08  1.08594E-08
   1.10818E-08  1.10211E-08  1.14078E-08  1.19079E-08  1.18331E-08  1.24158E-08  1.30968E-08  1.25684E-08  1.25031E-08  1.24532E-08
   1.24113E-08  1.19315E-08  1.16457E-08  1.12634E-08  1.11935E-08  1.18232E-08  1.22244E-08  1.21079E-08  1.16755E-08  1.08091E-08
   1.06819E-08  1.13007E-08  1.23265E-08  1.37697E-08  1.38924E-08  1.39359E-08  1.36354E-08  1.23718E-08  1.18689E-08  1.16945E-08
   1.12556E-08  1.11098E-08  1.12247E-08  1.08858E-08  1.09699E-08  1.06506E-08  1.07262E-08  9.82181E-09  9.55846E-09  9.17773E-09
   9.06001E-09  9.10272E-09  9.33180E-09  9.61641E-09  8.74049E-09  8.51085E-09  8.33604E-09  7.98476E-09  8.02879E-09  8.18649E-09
   8.13756E-09  7.34273E-09  8.17961E-09  9.48370E-09  1.09171E-08  1.20605E-08  1.14398E-08  1.11463E-08  1.08398E-08  1.01400E-08
   9.38563E-09  8.96680E-09  8.69164E-09  7.86271E-09  7.63813E-09  7.27826E-09  6.75843E-09  6.29814E-09  6.21004E-09  8.58787E-09
   1.17012E-08  1.45692E-08  1.54171E-08  1.49805E-08  1.36411E-08  1.34393E-08  1.31259E-08  1.31985E-08  1.22737E-08  1.19756E-08
   1.25158E-08  1.22266E-08  1.14191E-08  1.11592E-08  1.09210E-08  1.07986E-08  1.01941E-08  1.00888E-08  9.47064E-09  9.19938E-09
   8.99823E-09  8.97001E-09  8.82255E-09  8.89757E-09  8.52962E-09  8.67232E-09  8.35365E-09  8.38055E-09  8.19585E-09  7.07735E-09
   7.00081E-09  6.23280E-09  5.83725E-09  6.14828E-09  6.30598E-09  6.53644E-09  6.01427E-09  6.09207E-09  5.98491E-09  6.00638E-09
   6.45565E-09  6.41473E-09  6.50094E-09  5.79712E-09  5.49535E-09  4.90090E-09  4.16969E-09  4.32131E-09  4.52816E-09  4.30820E-09
   4.63995E-09  3.99080E-09  4.38133E-09  4.24154E-09  4.61959E-09  4.41099E-09  4.68285E-09  4.04890E-09  4.00305E-09  5.10154E-09
   5.51040E-09  6.49807E-09  6.92444E-09  7.15640E-09  7.08031E-09  7.33848E-09  7.90940E-09  8.47859E-09  9.20843E-09  9.27337E-09
   8.91140E-09  8.85879E-09  9.12589E-09  8.53977E-09  8.53215E-09  8.77723E-09  8.97872E-09  8.81275E-09  9.15002E-09  8.52988E-09
   8.66716E-09  8.75355E-09  9.31457E-09  8.94692E-09  9.01082E-09  9.10692E-09  8.91467E-09  9.10651E-09  8.53551E-09  9.05870E-09
   1.04894E-08  1.45226E-08  1.80091E-08  1.93485E-08  1.93257E-08  1.74051E-08  1.67142E-08  1.60000E-08  1.51757E-08  1.43233E-08
   1.38419E-08  1.27266E-08  1.19463E-08  1.10566E-08  9.99389E-09  9.10669E-09  7.81372E-09  5.51213E-09  3.93336E-09  1.96888E-09
  -1.81575E-10 -2.24371E-09 -5.31854E-09 -7.83082E-09 -1.04842E-08 -1.32081E-08 -1.58028E-08 -1.76347E-08 -1.94333E-08 -2.08951E-08
  -2.14762E-08 -2.21191E-08 -2.13790E-08 -2.14953E-08 -1.98340E-08 -1.81242E-08 -1.56880E-08 -1.37163E-08 -1.11405E-08 -8.89726E-09
  -7.05873E-09 -4.52690E-09 -3.76236E-09 -2.64221E-09 -1.97878E-09 -1.48645E-09 -1.76084E-09 -2.51889E-09 -2.99873E-09 -3.49525E-09
  -3.39328E-09 -3.13905E-09 -3.34195E-09 -2.94587E-09 -2.08688E-09 -1.72287E-09 -1.75403E-09 -2.03654E-09 -2.35022E-09 -2.68450E-09
  -3.07856E-09 -2.93117E-09 -3.22387E-09 -3.06920E-09 -2.51215E-09 -2.30603E-09 -2.01631E-09 -1.24248E-09 -1.88076E-09 -2.17200E-09
  -3.26994E-09 -3.25629E-09 -2.99803E-09 -2.62318E-09 -2.63297E-09 -2.49939E-09 -2.28862E-09 -2.04156E-09 -1.78366E-09 -1.59756E-09
  -1.48055E-09 -1.78133E-09 -1.68849E-09 -1.63420E-09 -1.89484E-09 -1.93805E-09 -1.85729E-09 -1.37061E-09 -2.13504E-09 -2.12597E-09
  -2.25483E-09 -2.05205E-09 -2.08723E-09 -2.49987E-09 -2.33084E-09 -2.47459E-09 -2.61091E-09 -2.11041E-09 -2.22612E-09 -1.53211E-09
  -1.39279E-09 -9.95585E-10 -6.99574E-10 -9.22898E-10 -8.54799E-10 -3.80183E-10 -3.91263E-10 -6.81478E-10 -6.00867E-10 -6.53659E-10
  -3.98251E-10 -8.29448E-10 -1.17842E-09 -1.35405E-09 -8.62250E-10 -1.54770E-09 -1.66791E-09 -1.47699E-09 -2.12505E-09 -1.54299E-09
  -2.12576E-09 -1.87962E-09 -1.87543E-09 -1.70321E-09 -1.92905E-09 -1.91998E-09 -2.17387E-09 -1.91430E-09 -2.28946E-09 -2.24085E-09
  -2.06761E-09 -1.80972E-09 -2.22918E-09 -1.93327E-09 -2.16178E-09 -1.96249E-09 -2.28394E-09 -1.72557E-09 -2.06178E-09 -2.13559E-09
  -1.99560E-09 -2.14424E-09 -2.08861E-09 -2.01286E-09 -1.84056E-09 -2.04000E-09 -1.76384E-09 -1.63937E-09 -1.82953E-09 -1.76654E-09
  -2.12275E-09 -1.27545E-09 -1.66216E-09 -1.57159E-09 -1.34712E-09 -1.27550E-09 -1.87261E-09 -1.64275E-09 -1.22843E-09 -9.67406E-10
  -1.25651E-09 -1.28779E-09 -1.91475E-09 -9.71387E-10 -1.14976E-09 -8.89369E-10 -1.45869E-09 -1.53359E-09 -1.19896E-09 -1.36006E-09
  -1.12829E-09 -1.21065E-09 -1.12791E-09 -1.08921E-09 -1.24317E-09 -1.18424E-09 -9.79426E-10 -1.02980E-09 -7.36385E-10 -1.03987E-09
  -1.13672E-09 -7.60011E-10 -7.79373E-10 -8.11941E-10 -9.96809E-10 -6.07672E-10 -7.85445E-10 -4.10458E-10 -8.62022E-10 -6.79513E-10
  -7.96868E-10 -1.63125E-10 -3.01277E-10
 NY points of the fit to the data follow
   1.21551E-08  1.37516E-08  1.40415E-08  1.36154E-08  1.38461E-08  1.40882E-08  1.35914E-08  1.23127E-08  1.09378E-08  1.01271E-08
   9.81912E-09  9.94014E-09  1.03975E-08  1.11746E-08  1.20638E-08  1.27188E-08  1.30624E-08  1.33434E-08  1.33047E-08  1.26135E-08
   1.17843E-08  1.12301E-08  1.09092E-08  1.06773E-08  1.06857E-08  1.09783E-08  1.14347E-08  1.18703E-08  1.21021E-08  1.21514E-08
   1.24400E-08  1.27276E-08  1.29019E-08  1.28406E-08  1.24912E-08  1.19770E-08  1.16818E-08  1.15632E-08  1.15523E-08  1.15764E-08
   1.15455E-08  1.13608E-08  1.09595E-08  1.04598E-08  1.01513E-08  9.95332E-09  9.81141E-09  9.69607E-09  9.59645E-09  9.52318E-09
   9.46409E-09  9.41545E-09  9.37565E-09  9.32574E-09  9.26500E-09  9.22622E-09  9.22225E-09  9.26316E-09  9.31422E-09  9.34944E-09
   9.34459E-09  9.31950E-09  9.35521E-09  9.47726E-09  9.68138E-09  9.91392E-09  1.00909E-08  1.01627E-08  1.01643E-08  1.00853E-08
   9.98599E-09  9.84819E-09  9.58067E-09  9.20698E-09  8.90748E-09  8.63040E-09  8.37355E-09  8.51190E-09  9.07495E-09  9.88741E-09
   1.08394E-08  1.18692E-08  1.29095E-08  1.38647E-08  1.46051E-08  1.49870E-08  1.48087E-08  1.39318E-08  1.25338E-08  1.15477E-08
   1.09893E-08  1.06050E-08  1.03164E-08  1.00817E-08  9.88732E-09  9.72038E-09  9.57072E-09  9.43654E-09  9.31445E-09  9.20158E-09
   9.09598E-09  8.99623E-09  8.90122E-09  8.81007E-09  8.72195E-09  8.63629E-09  8.55258E-09  8.47043E-09  8.38947E-09  8.30936E-09
   8.22996E-09  8.15092E-09  8.07210E-09  7.99332E-09  7.91443E-09  7.83528E-09  7.75577E-09  7.67576E-09  7.59513E-09  7.51387E-09
   7.43176E-09  7.34885E-09  7.26497E-09  7.18011E-09  7.09418E-09  7.00711E-09  6.91883E-09  6.82935E-09  6.73857E-09  6.64645E-09
   6.55295E-09  6.45800E-09  6.36161E-09  6.26372E-09  6.16428E-09  6.06321E-09  5.96062E-09  5.85633E-09  5.75040E-09  5.64273E-09
   5.53338E-09  5.42228E-09  5.30942E-09  5.19476E-09  5.07833E-09  4.96010E-09  4.84010E-09  4.71841E-09  4.59512E-09  4.47035E-09
   4.34423E-09  4.21690E-09  4.08852E-09  3.95931E-09  3.82950E-09  3.69942E-09  3.56950E-09  3.44029E-09  3.31262E-09  3.18765E-09
   3.06720E-09  2.95427E-09  2.85408E-09  2.77678E-09  2.74480E-09  2.82017E-09  3.25582E-09  5.08391E-09  7.96505E-09  1.10833E-08
   1.41094E-08  1.68878E-08  1.91654E-08  2.05854E-08  2.07471E-08  1.92328E-08  1.57360E-08  1.05153E-08  5.18515E-09  2.58124E-09
   1.64293E-09  1.12255E-09  7.61854E-10  4.79664E-10  2.42231E-10  3.30103E-11 -1.57041E-10 -3.33249E-10 -4.99058E-10 -6.56627E-10
  -8.07412E-10 -9.52516E-10 -1.09263E-09 -1.22831E-09 -1.35989E-09 -1.48768E-09 -1.61192E-09 -1.73268E-09 -1.85009E-09 -1.96426E-09
  -2.07520E-09 -2.18296E-09 -2.28751E-09 -2.38889E-09 -2.48710E-09 -2.58207E-09 -2.67382E-09 -2.76231E-09 -2.84753E-09 -2.92938E-09
  -3.00792E-09 -3.08303E-09 -3.15471E-09 -3.22291E-09 -3.28763E-09 -3.34876E-09 -3.40631E-09 -3.46025E-09 -3.51050E-09 -3.55716E-09
  -3.60026E-09 -3.63992E-09 -3.67617E-09 -3.70912E-09 -3.73882E-09 -3.76536E-09 -3.78881E-09 -3.80925E-09 -3.82674E-09 -3.84136E-09
  -3.85320E-09 -3.86233E-09 -3.86880E-09 -3.87272E-09 -3.87415E-09 -3.87315E-09 -3.86982E-09 -3.86421E-09 -3.85642E-09 -3.84650E-09
  -3.83454E-09 -3.82061E-09 -3.80478E-09 -3.78712E-09 -3.76771E-09 -3.74662E-09 -3.72392E-09 -3.69968E-09 -3.67398E-09 -3.64688E-09
  -3.61847E-09 -3.58878E-09 -3.55793E-09 -3.52594E-09 -3.49291E-09 -3.45890E-09 -3.42398E-09 -3.38820E-09 -3.35163E-09 -3.31434E-09
  -3.27640E-09 -3.23787E-09 -3.19880E-09 -3.15926E-09 -3.11931E-09 -3.07900E-09 -3.03841E-09 -2.99757E-09 -2.95655E-09 -2.91540E-09
  -2.87418E-09 -2.83294E-09 -2.79173E-09 -2.75059E-09 -2.70960E-09 -2.66877E-09 -2.62817E-09 -2.58785E-09 -2.54783E-09 -2.50817E-09
  -2.46891E-09 -2.43009E-09 -2.39175E-09 -2.35392E-09 -2.31663E-09 -2.27993E-09 -2.24386E-09 -2.20841E-09 -2.17365E-09 -2.13960E-09
  -2.10626E-09 -2.07367E-09 -2.04180E-09 -2.01063E-09 -1.98014E-09 -1.95032E-09 -1.92114E-09 -1.89259E-09 -1.86464E-09 -1.83729E-09
  -1.81051E-09 -1.78429E-09 -1.75861E-09 -1.73345E-09 -1.70880E-09 -1.68463E-09 -1.66095E-09 -1.63773E-09 -1.61494E-09 -1.59259E-09
  -1.57065E-09 -1.54911E-09 -1.52796E-09 -1.50718E-09 -1.48676E-09 -1.46668E-09 -1.44694E-09 -1.42752E-09 -1.40840E-09 -1.38959E-09
  -1.37107E-09 -1.35281E-09 -1.33483E-09 -1.31710E-09 -1.29961E-09 -1.28236E-09 -1.26534E-09 -1.24854E-09 -1.23195E-09 -1.21556E-09
  -1.19937E-09 -1.18337E-09 -1.16756E-09 -1.15192E-09 -1.13646E-09 -1.12116E-09 -1.10603E-09 -1.09105E-09 -1.07624E-09 -1.06157E-09
  -1.04705E-09 -1.03268E-09 -1.01846E-09 -1.00439E-09 -9.90452E-10 -9.76667E-10 -9.63022E-10 -9.49526E-10 -9.36172E-10 -9.22967E-10
  -9.09913E-10 -8.97010E-10 -8.84263E-10 -8.71675E-10 -8.59252E-10 -8.46994E-10 -8.34913E-10 -8.23009E-10 -8.11289E-10 -7.99762E-10
  -7.88431E-10 -7.77307E-10 -7.66398E-10
 NY background values follow
     2.146E-09    2.269E-09    2.391E-09    2.511E-09    2.630E-09    2.747E-09    2.863E-09    2.977E-09    3.089E-09    3.200E-09
     3.309E-09    3.417E-09    3.523E-09    3.627E-09    3.730E-09    3.831E-09    3.931E-09    4.029E-09    4.125E-09    4.219E-09
     4.312E-09    4.404E-09    4.494E-09    4.582E-09    4.668E-09    4.753E-09    4.836E-09    4.918E-09    4.998E-09    5.076E-09
     5.153E-09    5.228E-09    5.301E-09    5.373E-09    5.443E-09    5.512E-09    5.579E-09    5.644E-09    5.708E-09    5.771E-09
     5.831E-09    5.890E-09    5.948E-09    6.004E-09    6.058E-09    6.111E-09    6.163E-09    6.213E-09    6.261E-09    6.308E-09
     6.353E-09    6.397E-09    6.440E-09    6.481E-09    6.520E-09    6.558E-09    6.595E-09    6.630E-09    6.664E-09    6.697E-09
     6.728E-09    6.758E-09    6.786E-09    6.814E-09    6.840E-09    6.864E-09    6.888E-09    6.910E-09    6.931E-09    6.950E-09
     6.969E-09    6.986E-09    7.002E-09    7.017E-09    7.031E-09    7.044E-09    7.055E-09    7.065E-09    7.075E-09    7.083E-09
     7.089E-09    7.095E-09    7.099E-09    7.103E-09    7.105E-09    7.106E-09    7.105E-09    7.103E-09    7.101E-09    7.096E-09
     7.091E-09    7.084E-09    7.076E-09    7.067E-09    7.056E-09    7.044E-09    7.031E-09    7.016E-09    7.000E-09    6.982E-09
     6.963E-09    6.943E-09    6.921E-09    6.898E-09    6.873E-09    6.846E-09    6.819E-09    6.789E-09    6.759E-09    6.726E-09
     6.692E-09    6.656E-09    6.619E-09    6.580E-09    6.540E-09    6.498E-09    6.454E-09    6.408E-09    6.361E-09    6.312E-09
     6.261E-09    6.208E-09    6.154E-09    6.098E-09    6.039E-09    5.980E-09    5.918E-09    5.854E-09    5.788E-09    5.721E-09
     5.651E-09    5.580E-09    5.507E-09    5.431E-09    5.354E-09    5.274E-09    5.193E-09    5.109E-09    5.024E-09    4.936E-09
     4.846E-09    4.754E-09    4.660E-09    4.564E-09    4.466E-09    4.365E-09    4.262E-09    4.157E-09    4.051E-09    3.942E-09
     3.831E-09    3.719E-09    3.604E-09    3.489E-09    3.371E-09    3.252E-09    3.132E-09    3.010E-09    2.888E-09    2.764E-09
     2.639E-09    2.513E-09    2.386E-09    2.258E-09    2.130E-09    2.001E-09    1.872E-09    1.742E-09    1.611E-09    1.481E-09
     1.350E-09    1.219E-09    1.089E-09    9.579E-10    8.274E-10    6.972E-10    5.673E-10    4.379E-10    3.090E-10    1.807E-10
     5.317E-11   -7.355E-11   -1.994E-10   -3.243E-10   -4.481E-10   -5.707E-10   -6.921E-10   -8.121E-10   -9.308E-10   -1.048E-09
    -1.163E-09   -1.277E-09   -1.389E-09   -1.500E-09   -1.608E-09   -1.715E-09   -1.819E-09   -1.921E-09   -2.021E-09   -2.119E-09
    -2.214E-09   -2.307E-09   -2.397E-09   -2.485E-09   -2.570E-09   -2.652E-09   -2.732E-09   -2.809E-09   -2.882E-09   -2.953E-09
    -3.021E-09   -3.085E-09   -3.147E-09   -3.205E-09   -3.260E-09   -3.311E-09   -3.360E-09   -3.404E-09   -3.446E-09   -3.483E-09
    -3.518E-09   -3.549E-09   -3.577E-09   -3.602E-09   -3.623E-09   -3.642E-09   -3.658E-09   -3.670E-09   -3.680E-09   -3.687E-09
    -3.692E-09   -3.694E-09   -3.693E-09   -3.690E-09   -3.684E-09   -3.677E-09   -3.666E-09   -3.654E-09   -3.640E-09   -3.623E-09
    -3.605E-09   -3.585E-09   -3.563E-09   -3.539E-09   -3.513E-09   -3.486E-09   -3.457E-09   -3.427E-09   -3.396E-09   -3.363E-09
    -3.329E-09   -3.293E-09   -3.257E-09   -3.219E-09   -3.181E-09   -3.142E-09   -3.101E-09   -3.060E-09   -3.018E-09   -2.976E-09
    -2.933E-09   -2.889E-09   -2.845E-09   -2.801E-09   -2.756E-09   -2.711E-09   -2.666E-09   -2.620E-09   -2.574E-09   -2.529E-09
    -2.483E-09   -2.437E-09   -2.391E-09   -2.346E-09   -2.300E-09   -2.255E-09   -2.210E-09   -2.166E-09   -2.121E-09   -2.078E-09
    -2.034E-09   -1.991E-09   -1.949E-09   -1.907E-09   -1.866E-09   -1.825E-09   -1.785E-09   -1.746E-09   -1.708E-09   -1.670E-09
    -1.633E-09   -1.597E-09   -1.561E-09   -1.526E-09   -1.492E-09   -1.459E-09   -1.426E-09   -1.394E-09   -1.363E-09   -1.332E-09
    -1.302E-09   -1.273E-09   -1.244E-09   -1.216E-09   -1.188E-09   -1.161E-09   -1.134E-09   -1.107E-09   -1.082E-09   -1.056E-09
    -1.031E-09   -1.007E-09   -9.830E-10   -9.593E-10   -9.361E-10   -9.133E-10   -8.908E-10   -8.687E-10   -8.469E-10   -8.254E-10
    -8.043E-10   -7.834E-10   -7.629E-10   -7.427E-10   -7.227E-10   -7.030E-10   -6.836E-10   -6.644E-10   -6.455E-10   -6.267E-10
    -6.083E-10   -5.900E-10   -5.720E-10   -5.541E-10   -5.365E-10   -5.191E-10   -5.018E-10   -4.848E-10   -4.679E-10   -4.512E-10
    -4.347E-10   -4.184E-10   -4.023E-10   -3.863E-10   -3.705E-10   -3.549E-10   -3.394E-10   -3.241E-10   -3.090E-10   -2.941E-10
    -2.793E-10   -2.648E-10   -2.504E-10   -2.362E-10   -2.222E-10   -2.083E-10   -1.947E-10   -1.813E-10   -1.681E-10   -1.552E-10
    -1.424E-10   -1.299E-10   -1.176E-10
 Glc      Conc. = 1.94E-10
   1.84625E-09  2.02694E-09  2.21689E-09  2.42189E-09  2.62581E-09  2.81852E-09  2.98218E-09  3.12002E-09  3.22330E-09  3.29278E-09
   3.36075E-09  3.43092E-09  3.50251E-09  3.58556E-09  3.69194E-09  3.82195E-09  3.97567E-09  4.15567E-09  4.34977E-09  4.54970E-09
   4.75473E-09  4.94848E-09  5.11219E-09  5.23688E-09  5.30696E-09  5.33025E-09  5.35342E-09  5.39598E-09  5.45569E-09  5.52446E-09
   5.58979E-09  5.65102E-09  5.71388E-09  5.77120E-09  5.81885E-09  5.86685E-09  5.91551E-09  5.95925E-09  6.00082E-09  6.04431E-09
   6.08913E-09  6.13441E-09  6.17978E-09  6.22486E-09  6.26949E-09  6.31346E-09  6.35670E-09  6.39905E-09  6.44047E-09  6.48091E-09
   6.52028E-09  6.55860E-09  6.59578E-09  6.63183E-09  6.66676E-09  6.70048E-09  6.73304E-09  6.76445E-09  6.79459E-09  6.82358E-09
   6.85140E-09  6.87798E-09  6.90341E-09  6.92764E-09  6.95073E-09  6.97263E-09  6.99337E-09  7.01294E-09  7.03138E-09  7.04871E-09
   7.06490E-09  7.07997E-09  7.09400E-09  7.10690E-09  7.11875E-09  7.12951E-09  7.13917E-09  7.14773E-09  7.15518E-09  7.16152E-09
   7.16671E-09  7.17078E-09  7.17368E-09  7.17542E-09  7.17600E-09  7.17539E-09  7.17358E-09  7.17057E-09  7.16634E-09  7.16087E-09
   7.15415E-09  7.14619E-09  7.13693E-09  7.12642E-09  7.11458E-09  7.10141E-09  7.08693E-09  7.07110E-09  7.05390E-09  7.03533E-09
   7.01536E-09  6.99398E-09  6.97117E-09  6.94693E-09  6.92121E-09  6.89402E-09  6.86532E-09  6.83514E-09  6.80342E-09  6.77011E-09
   6.73529E-09  6.69885E-09  6.66081E-09  6.62114E-09  6.57983E-09  6.53686E-09  6.49223E-09  6.44590E-09  6.39784E-09  6.34809E-09
   6.29653E-09  6.24324E-09  6.18814E-09  6.13124E-09  6.07253E-09  6.01195E-09  5.94949E-09  5.88519E-09  5.81898E-09  5.75084E-09
   5.68078E-09  5.60873E-09  5.53475E-09  5.45878E-09  5.38080E-09  5.30076E-09  5.21876E-09  5.13466E-09  5.04850E-09  4.96023E-09
   4.86988E-09  4.77742E-09  4.68284E-09  4.58607E-09  4.48717E-09  4.38610E-09  4.28286E-09  4.17754E-09  4.07019E-09  3.96090E-09
   3.84975E-09  3.73682E-09  3.62217E-09  3.50592E-09  3.38811E-09  3.26887E-09  3.14826E-09  3.02638E-09  2.90334E-09  2.77925E-09
   2.65420E-09  2.52840E-09  2.40203E-09  2.27546E-09  2.14940E-09  2.02584E-09  1.91379E-09  1.84130E-09  1.78433E-09  1.72821E-09
   1.66863E-09  1.60221E-09  1.52217E-09  1.41985E-09  1.28592E-09  1.11080E-09  8.89187E-10  6.33526E-10  3.93369E-10  2.32359E-10
   9.15474E-11 -4.24418E-11 -1.72949E-10 -3.01071E-10 -4.27309E-10 -5.51875E-10 -6.74835E-10 -7.96172E-10 -9.15948E-10 -1.03408E-09
  -1.15049E-09 -1.26518E-09 -1.37804E-09 -1.48902E-09 -1.59802E-09 -1.70499E-09 -1.80989E-09 -1.91258E-09 -2.01301E-09 -2.11114E-09
  -2.20687E-09 -2.30013E-09 -2.39085E-09 -2.47896E-09 -2.56442E-09 -2.64710E-09 -2.72699E-09 -2.80400E-09 -2.87810E-09 -2.94915E-09
  -3.01719E-09 -3.08208E-09 -3.14380E-09 -3.20228E-09 -3.25750E-09 -3.30935E-09 -3.35781E-09 -3.40285E-09 -3.44438E-09 -3.48248E-09
  -3.51720E-09 -3.54861E-09 -3.57677E-09 -3.60176E-09 -3.62364E-09 -3.64249E-09 -3.65836E-09 -3.67134E-09 -3.68150E-09 -3.68889E-09
  -3.69360E-09 -3.69570E-09 -3.69526E-09 -3.69235E-09 -3.68704E-09 -3.67940E-09 -3.66952E-09 -3.65744E-09 -3.64326E-09 -3.62704E-09
  -3.60885E-09 -3.58878E-09 -3.56688E-09 -3.54322E-09 -3.51789E-09 -3.49094E-09 -3.46246E-09 -3.43251E-09 -3.40116E-09 -3.36847E-09
  -3.33454E-09 -3.29940E-09 -3.26316E-09 -3.22584E-09 -3.18753E-09 -3.14831E-09 -3.10823E-09 -3.06735E-09 -3.02575E-09 -2.98347E-09
  -2.94059E-09 -2.89718E-09 -2.85329E-09 -2.80898E-09 -2.76431E-09 -2.71933E-09 -2.67412E-09 -2.62871E-09 -2.58316E-09 -2.53755E-09
  -2.49190E-09 -2.44628E-09 -2.40074E-09 -2.35532E-09 -2.31009E-09 -2.26507E-09 -2.22033E-09 -2.17590E-09 -2.13182E-09 -2.08814E-09
  -2.04491E-09 -2.00216E-09 -1.95993E-09 -1.91825E-09 -1.87716E-09 -1.83669E-09 -1.79689E-09 -1.75776E-09 -1.71935E-09 -1.68169E-09
  -1.64479E-09 -1.60868E-09 -1.57332E-09 -1.53870E-09 -1.50480E-09 -1.47160E-09 -1.43908E-09 -1.40723E-09 -1.37602E-09 -1.34544E-09
  -1.31547E-09 -1.28609E-09 -1.25729E-09 -1.22905E-09 -1.20135E-09 -1.17417E-09 -1.14751E-09 -1.12134E-09 -1.09564E-09 -1.07041E-09
  -1.04563E-09 -1.02128E-09 -9.97356E-10 -9.73830E-10 -9.50700E-10 -9.27947E-10 -9.05562E-10 -8.83527E-10 -8.61835E-10 -8.40475E-10
  -8.19434E-10 -7.98693E-10 -7.78255E-10 -7.58104E-10 -7.38227E-10 -7.18614E-10 -6.99267E-10 -6.80166E-10 -6.61311E-10 -6.42685E-10
  -6.24289E-10 -6.06113E-10 -5.88148E-10 -5.70391E-10 -5.52839E-10 -5.35483E-10 -5.18321E-10 -5.01345E-10 -4.84558E-10 -4.67945E-10
  -4.51518E-10 -4.35263E-10 -4.19186E-10 -4.03282E-10 -3.87545E-10 -3.71987E-10 -3.56598E-10 -3.41384E-10 -3.26341E-10 -3.11476E-10
  -2.96789E-10 -2.82280E-10 -2.67955E-10 -2.53815E-10 -2.39868E-10 -2.26114E-10 -2.12563E-10 -1.99215E-10 -1.86079E-10 -1.73161E-10
  -1.60467E-10 -1.48006E-10 -1.35787E-10
 Gln      Conc. = 1.04E-10
   2.04893E-09  2.17963E-09  2.31568E-09  2.45711E-09  2.60216E-09  2.74806E-09  2.89121E-09  3.02766E-09  3.15587E-09  3.27912E-09
   3.38761E-09  3.48829E-09  3.58709E-09  3.67771E-09  3.76956E-09  3.86241E-09  3.95536E-09  4.04786E-09  4.13957E-09  4.23026E-09
   4.31978E-09  4.40802E-09  4.49490E-09  4.58038E-09  4.66441E-09  4.74697E-09  4.82802E-09  4.90755E-09  4.98553E-09  5.06193E-09
   5.13676E-09  5.20999E-09  5.28161E-09  5.35163E-09  5.42002E-09  5.48682E-09  5.55195E-09  5.61545E-09  5.67733E-09  5.73754E-09
   5.79610E-09  5.85298E-09  5.90822E-09  5.96174E-09  6.01360E-09  6.06373E-09  6.11215E-09  6.15876E-09  6.20359E-09  6.24662E-09
   6.28773E-09  6.32694E-09  6.36430E-09  6.40043E-09  6.43964E-09  6.48530E-09  6.53204E-09  6.58493E-09  6.64838E-09  6.71788E-09
   6.78891E-09  6.86034E-09  6.92732E-09  6.98331E-09  7.02287E-09  7.04525E-09  7.05879E-09  7.06372E-09  7.05000E-09  7.03709E-09
   7.03196E-09  7.03080E-09  7.03492E-09  7.04573E-09  7.06616E-09  7.09636E-09  7.13129E-09  7.17022E-09  7.21103E-09  7.25036E-09
   7.28461E-09  7.30797E-09  7.31734E-09  7.32096E-09  7.31549E-09  7.29542E-09  7.27612E-09  7.25779E-09  7.23542E-09  7.21560E-09
   7.19815E-09  7.18191E-09  7.16609E-09  7.15022E-09  7.13389E-09  7.11694E-09  7.09925E-09  7.08067E-09  7.06111E-09  7.04049E-09
   7.01873E-09  6.99577E-09  6.97157E-09  6.94611E-09  6.91931E-09  6.89116E-09  6.86162E-09  6.83069E-09  6.79830E-09  6.76440E-09
   6.72906E-09  6.69215E-09  6.65370E-09  6.61366E-09  6.57203E-09  6.52879E-09  6.48391E-09  6.43737E-09  6.38912E-09  6.33922E-09
   6.28753E-09  6.23413E-09  6.17894E-09  6.12198E-09  6.06322E-09  6.00261E-09  5.94012E-09  5.87581E-09  5.80961E-09  5.74148E-09
   5.67145E-09  5.59944E-09  5.52551E-09  5.44959E-09  5.37168E-09  5.29171E-09  5.20978E-09  5.12576E-09  5.03969E-09  4.95151E-09
   4.86126E-09  4.76890E-09  4.67442E-09  4.57777E-09  4.47898E-09  4.37803E-09  4.27491E-09  4.16970E-09  4.06248E-09  3.95332E-09
   3.84229E-09  3.72948E-09  3.61496E-09  3.49882E-09  3.38113E-09  3.26199E-09  3.14148E-09  3.01968E-09  2.89670E-09  2.77263E-09
   2.64756E-09  2.52164E-09  2.39500E-09  2.26790E-09  2.14074E-09  2.01462E-09  1.89446E-09  1.79525E-09  1.70417E-09  1.61342E-09
   1.52074E-09  1.42436E-09  1.32069E-09  1.20513E-09  1.07274E-09  9.18423E-10  7.39394E-10  5.42382E-10  3.53976E-10  2.08197E-10
   7.35463E-11 -5.70811E-11 -1.85445E-10 -3.12064E-10 -4.37179E-10 -5.60866E-10 -6.83112E-10 -8.03851E-10 -9.23117E-10 -1.04080E-09
  -1.15682E-09 -1.27115E-09 -1.38369E-09 -1.49438E-09 -1.60310E-09 -1.70981E-09 -1.81448E-09 -1.91693E-09 -2.01714E-09 -2.11507E-09
  -2.21060E-09 -2.30368E-09 -2.39421E-09 -2.48214E-09 -2.56743E-09 -2.64994E-09 -2.72966E-09 -2.80652E-09 -2.88046E-09 -2.95136E-09
  -3.01925E-09 -3.08400E-09 -3.14557E-09 -3.20392E-09 -3.25900E-09 -3.31071E-09 -3.35904E-09 -3.40395E-09 -3.44535E-09 -3.48333E-09
  -3.51791E-09 -3.54920E-09 -3.57724E-09 -3.60211E-09 -3.62387E-09 -3.64260E-09 -3.65836E-09 -3.67122E-09 -3.68126E-09 -3.68854E-09
