 LCModel (Version 6.3-1R) Copyright: S.W. Provencher.          Ref.: Magn. Reson. Med. 30:672-679 (1993).                
 onepulse 17x20_ftSpec_smooth_lcm
 26 lines in following concentration table = NCONC+1
    Conc.  %SD   /Cr    Metabolite                                         
 1.34E-10 127%   0.000 Ala                                                 
 7.42E-10  44%   0.000 Asp                                                 
    0.000 999%   0.000 Cr                                                  
 2.89E-09  12%   0.000 GABA                                                
 1.33E-09  21%   0.000 Glc                                                 
    0.000 999%   0.000 Gln                                                 
 7.23E-12 999%   0.000 Glu                                                 
    0.000 999%   0.000 Glyc                                                
    0.000 999%   0.000 GPC                                                 
    0.000 999%   0.000 GSH                                                 
 1.50E-10 122%   0.000 Ins                                                 
    0.000 999%   0.000 Lac                                                 
    0.000 999%   0.000 NAAG                                                
 1.09E-09  14%   0.000 NAA                                                 
 1.10E-10  45%   0.000 PCh                                                 
    0.000 999%   0.000 PCr                                                 
    0.000 999%   0.000 PE                                                  
    0.000 999%   0.000 Scyllo                                              
    0.000 999%   0.000 Ser                                                 
    0.000 999%   0.000 Tau                                                 
 1.10E-10  45%   0.000 GPC+PCh                                             
 1.09E-09  14%   0.000 NAA+NAAG                                            
 1.50E-10 122%   0.000 Ins+Glyc                                            
    0.000 999%   0.000 Cr+PCr                                              
 7.23E-12 999%   0.000 Glu+Gln                                             
   6 lines in following misc. output table
  FWHM = 0.078 ppm    S/N =   4                                            
  Data shift = 0.347 ppm                                                   
  Ph:  66 deg      27.5 deg/ppm                                            
  alphaB,S = 1.6E-01,   7.5E+01                                            
   16 spline knots.   Ns = 5(1)                                            
  ( 7) 2 infls.   ( 3) 1 extrs.                                            
  363 points on ppm-axis = NY
      4.250000     4.238821     4.227641     4.216462     4.205282     4.194103     4.182923     4.171744     4.160564     4.149385
      4.138206     4.127026     4.115847     4.104667     4.093488     4.082308     4.071129     4.059949     4.048770     4.037591
      4.026411     4.015232     4.004052     3.992873     3.981693     3.970514     3.959334     3.948155     3.936975     3.925796
      3.914617     3.903437     3.892258     3.881078     3.869899     3.858719     3.847540     3.836360     3.825181     3.814002
      3.802822     3.791643     3.780463     3.769284     3.758104     3.746925     3.735745     3.724566     3.713387     3.702207
      3.691028     3.679848     3.668669     3.657489     3.646310     3.635130     3.623951     3.612772     3.601592     3.590413
      3.579233     3.568054     3.556874     3.545695     3.534515     3.523336     3.512156     3.500977     3.489798     3.478618
      3.467439     3.456259     3.445080     3.433900     3.422721     3.411541     3.400362     3.389183     3.378003     3.366824
      3.355644     3.344465     3.333285     3.322106     3.310926     3.299747     3.288568     3.277388     3.266209     3.255029
      3.243850     3.232670     3.221491     3.210311     3.199132     3.187953     3.176773     3.165594     3.154414     3.143235
      3.132055     3.120876     3.109696     3.098517     3.087337     3.076158     3.064979     3.053799     3.042620     3.031440
      3.020261     3.009081     2.997902     2.986722     2.975543     2.964364     2.953184     2.942005     2.930825     2.919646
      2.908466     2.897287     2.886107     2.874928     2.863749     2.852569     2.841390     2.830210     2.819031     2.807851
      2.796672     2.785492     2.774313     2.763134     2.751954     2.740775     2.729595     2.718416     2.707236     2.696057
      2.684877     2.673698     2.662519     2.651339     2.640160     2.628980     2.617801     2.606621     2.595442     2.584262
      2.573083     2.561903     2.550724     2.539545     2.528365     2.517186     2.506006     2.494827     2.483647     2.472468
      2.461288     2.450109     2.438930     2.427750     2.416571     2.405391     2.394212     2.383032     2.371853     2.360673
      2.349494     2.338315     2.327135     2.315956     2.304776     2.293597     2.282417     2.271238     2.260058     2.248879
      2.237700     2.226520     2.215341     2.204161     2.192982     2.181802     2.170623     2.159443     2.148264     2.137084
      2.125905     2.114726     2.103546     2.092367     2.081187     2.070008     2.058828     2.047649     2.036469     2.025290
      2.014111     2.002931     1.991752     1.980572     1.969393     1.958213     1.947034     1.935854     1.924675     1.913496
      1.902316     1.891137     1.879957     1.868778     1.857598     1.846419     1.835239     1.824060     1.812881     1.801701
      1.790522     1.779342     1.768163     1.756983     1.745804     1.734624     1.723445     1.712265     1.701086     1.689907
      1.678727     1.667548     1.656368     1.645189     1.634009     1.622830     1.611650     1.600471     1.589292     1.578112
      1.566933     1.555753     1.544574     1.533394     1.522215     1.511035     1.499856     1.488677     1.477497     1.466318
      1.455138     1.443959     1.432779     1.421600     1.410420     1.399241     1.388062     1.376882     1.365703     1.354523
      1.343344     1.332164     1.320985     1.309805     1.298626     1.287446     1.276267     1.265088     1.253908     1.242729
      1.231549     1.220370     1.209190     1.198011     1.186831     1.175652     1.164473     1.153293     1.142114     1.130934
      1.119755     1.108575     1.097396     1.086216     1.075037     1.063858     1.052678     1.041499     1.030319     1.019140
      1.007960     0.996781     0.985601     0.974422     0.963243     0.952063     0.940884     0.929704     0.918525     0.907345
      0.896166     0.884986     0.873807     0.862628     0.851448     0.840269     0.829089     0.817910     0.806730     0.795551
      0.784371     0.773192     0.762012     0.750833     0.739654     0.728474     0.717295     0.706115     0.694936     0.683756
      0.672577     0.661397     0.650218     0.639039     0.627859     0.616680     0.605500     0.594321     0.583141     0.571962
      0.560782     0.549603     0.538424     0.527244     0.516065     0.504885     0.493706     0.482526     0.471347     0.460167
      0.448988     0.437809     0.426629     0.415450     0.404270     0.393091     0.381911     0.370732     0.359552     0.348373
      0.337193     0.326014     0.314835     0.303655     0.292476     0.281296     0.270117     0.258937     0.247758     0.236578
      0.225399     0.214220     0.203040
 NY phased data points follow
   3.71686E-09  4.82585E-09  7.72950E-09  7.47939E-09  7.64115E-09  6.11439E-09  6.14132E-09  4.59100E-09  4.84282E-09  4.31684E-09
   4.72885E-09  4.71595E-09  5.19702E-09  4.60481E-09  5.34096E-09  6.09800E-09  6.71200E-09  5.97748E-09  7.00091E-09  6.00311E-09
   6.71887E-09  6.18894E-09  5.65307E-09  5.25813E-09  6.43350E-09  6.32806E-09  7.43015E-09  6.39836E-09  7.75485E-09  6.47441E-09
   5.91222E-09  6.42598E-09  7.89168E-09  9.82969E-09  9.99182E-09  1.06926E-08  9.65149E-09  8.54637E-09  8.18457E-09  6.76533E-09
   7.07833E-09  6.43594E-09  6.96563E-09  5.55167E-09  5.96092E-09  6.65709E-09  5.54338E-09  4.94554E-09  3.87868E-09  3.88593E-09
   4.89685E-09  3.66383E-09  4.95352E-09  4.21926E-09  5.35554E-09  3.75549E-09  4.04030E-09  3.69641E-09  3.14404E-09  2.71002E-09
   3.98163E-09  3.50370E-09  4.93003E-09  7.04263E-09  1.00879E-08  1.10181E-08  1.11312E-08  9.47687E-09  8.89601E-09  7.04614E-09
   7.71916E-09  6.14448E-09  5.59934E-09  4.54710E-09  4.93970E-09  3.32608E-09  3.39377E-09  3.90001E-09  4.40707E-09  5.63213E-09
   9.72896E-09  1.22789E-08  1.29009E-08  1.22980E-08  1.07391E-08  9.96753E-09  9.72623E-09  8.72159E-09  8.16289E-09  7.81700E-09
   7.75785E-09  7.49118E-09  7.66047E-09  6.31539E-09  6.85853E-09  5.33841E-09  6.13448E-09  5.00148E-09  4.71305E-09  4.89514E-09
   4.52840E-09  5.54555E-09  4.11784E-09  4.57497E-09  4.64981E-09  4.02276E-09  4.40468E-09  4.11553E-09  4.47704E-09  2.95140E-09
   3.52028E-09  2.53128E-09  2.38139E-09  3.00836E-09  3.35698E-09  3.27010E-09  3.31171E-09  3.66131E-09  4.34727E-09  3.84146E-09
   4.01789E-09  3.40533E-09  4.37654E-09  3.21535E-09  2.79460E-09  1.99517E-09  2.11614E-09  1.77191E-09  2.23215E-09  2.41788E-09
   2.67508E-09  1.96525E-09  2.90071E-09  3.27706E-09  2.79187E-09  1.70270E-09  2.50083E-09  1.72536E-09  2.08521E-09  2.69331E-09
   3.16925E-09  3.71732E-09  4.21523E-09  2.98461E-09  3.12314E-09  3.39189E-09  3.57477E-09  4.38761E-09  3.97646E-09  4.17627E-09
   3.65248E-09  3.36773E-09  4.04817E-09  3.43497E-09  3.90794E-09  3.57927E-09  3.79113E-09  3.74636E-09  4.09121E-09  4.10640E-09
   3.98314E-09  4.05232E-09  4.33971E-09  3.79689E-09  4.03834E-09  4.64502E-09  4.72913E-09  5.24793E-09  7.01349E-09  8.78420E-09
   1.08736E-08  1.43599E-08  1.63335E-08  1.46935E-08  1.20109E-08  8.89801E-09  6.95872E-09  6.29549E-09  5.79320E-09  4.40564E-09
   3.95632E-09  3.25662E-09  3.12688E-09  1.86104E-09  2.63418E-09  3.31404E-10  3.77265E-10 -7.28110E-10 -1.62304E-09 -1.89614E-09
  -2.24542E-09 -3.92630E-09 -4.67899E-09 -5.32613E-09 -6.29296E-09 -7.02930E-09 -7.80368E-09 -8.87026E-09 -9.56355E-09 -9.61700E-09
  -1.01084E-08 -1.02789E-08 -9.45630E-09 -1.03432E-08 -9.64998E-09 -9.05538E-09 -7.67237E-09 -7.64244E-09 -6.10128E-09 -6.35309E-09
  -4.89049E-09 -3.70632E-09 -3.07735E-09 -2.11661E-09 -1.37811E-09 -1.25108E-09 -1.24074E-09 -1.43598E-09 -6.01427E-10 -1.64069E-09
  -1.62774E-09 -1.57836E-09 -1.08905E-09 -2.13382E-09 -9.81899E-10 -1.26563E-09 -8.47971E-10 -8.24238E-10 -1.34687E-09 -6.34729E-10
  -1.63364E-09 -1.74768E-09 -1.14025E-09 -1.97685E-09 -1.24172E-09 -1.09925E-09 -6.42101E-10 -7.61676E-10 -1.24202E-09 -9.59287E-10
  -6.53157E-10 -1.09194E-09 -1.12904E-09 -1.60095E-09 -1.35656E-09 -9.57273E-10 -1.18359E-09 -1.09393E-09 -7.90453E-10 -6.41495E-10
  -3.58250E-10 -3.67080E-10 -5.62925E-10  2.72436E-10 -1.00683E-09 -9.84620E-10 -6.91548E-10 -1.42057E-09 -5.94846E-10 -8.48080E-10
  -1.45392E-09 -1.56218E-09 -1.37007E-09 -1.75854E-09 -1.04191E-09 -1.19147E-09 -3.94314E-10 -1.36090E-10 -3.15280E-10  5.03530E-12
   1.22930E-10 -1.77795E-10  2.09288E-10  4.42022E-10  2.07742E-10 -1.39849E-10  1.15011E-10 -4.25812E-10 -5.41514E-10 -4.86956E-10
  -1.05851E-09 -1.54345E-09 -3.88006E-10 -1.25043E-09 -1.00394E-09 -5.10598E-10 -7.10814E-10 -1.24903E-09 -7.17047E-10 -8.17554E-10
  -1.08394E-09 -1.59035E-09 -3.90356E-10 -5.68883E-10 -8.88401E-10 -6.36054E-10 -8.51512E-10 -1.01141E-09 -9.88109E-10 -9.89883E-11
  -6.04485E-10 -6.99179E-10 -1.74427E-10 -1.06928E-09 -5.55825E-10 -5.25484E-11 -4.99122E-10 -1.62807E-10 -4.72835E-10 -7.44915E-11
  -6.85791E-10 -6.30509E-11 -1.65210E-10  2.20697E-10  4.65026E-11 -5.56536E-10 -2.44994E-10 -1.54432E-10  1.47629E-10 -1.41357E-10
  -1.82449E-11  2.34481E-10  1.20612E-10 -3.03679E-10  6.80927E-10 -2.13311E-10  4.77112E-10  3.60920E-10  6.63219E-10  8.84624E-11
   4.89858E-10  6.93191E-11  3.49353E-10  3.81176E-10  2.95067E-10  1.12538E-09 -9.77613E-11  7.10460E-10  1.07352E-09  1.06001E-10
   5.88485E-11  4.87338E-10  8.19218E-10  6.45432E-11  4.89027E-10  4.07850E-10  9.74023E-11  1.59788E-10  2.91799E-10  5.27851E-10
   8.13756E-10  3.63009E-10  3.95688E-10  4.82562E-10  7.02556E-10  3.31125E-10  5.65148E-10  2.17309E-10  5.93837E-10  5.10870E-10
   5.44232E-10  4.91378E-12  9.61935E-10
 NY points of the fit to the data follow
   5.49030E-09  5.86583E-09  6.12905E-09  6.25897E-09  6.19985E-09  5.96269E-09  5.60922E-09  5.23650E-09  4.96551E-09  4.74243E-09
   4.66974E-09  4.69932E-09  4.79078E-09  4.96452E-09  5.25646E-09  5.64932E-09  6.13322E-09  6.65613E-09  7.05992E-09  7.21180E-09
   7.12259E-09  6.77893E-09  6.28440E-09  5.90598E-09  5.71163E-09  5.67810E-09  5.87598E-09  6.30362E-09  6.78447E-09  7.22851E-09
   7.47856E-09  7.75323E-09  8.24162E-09  8.61605E-09  8.80916E-09  9.15199E-09  9.44924E-09  9.42080E-09  9.01266E-09  8.34865E-09
   7.64879E-09  6.92399E-09  5.88728E-09  5.05925E-09  4.73746E-09  4.48069E-09  4.29065E-09  4.31745E-09  4.41334E-09  4.48007E-09
   4.51342E-09  4.52248E-09  4.54693E-09  4.54297E-09  4.48306E-09  4.40254E-09  4.32090E-09  4.31068E-09  4.31198E-09  4.35553E-09
   4.57340E-09  5.05216E-09  5.65356E-09  6.31975E-09  7.29890E-09  8.24417E-09  8.88334E-09  9.31057E-09  9.49125E-09  9.29152E-09
   8.72384E-09  7.83567E-09  6.87026E-09  6.11976E-09  5.29011E-09  4.47213E-09  4.37837E-09  5.02136E-09  6.03960E-09  7.54776E-09
   9.26721E-09  1.07475E-08  1.17105E-08  1.19138E-08  1.13912E-08  1.06192E-08  9.78639E-09  8.73833E-09  7.64159E-09  7.27450E-09
   7.12597E-09  7.03248E-09  6.74358E-09  6.22150E-09  5.86172E-09  5.52424E-09  5.01122E-09  4.63863E-09  4.40680E-09  4.18942E-09
   4.06551E-09  4.01318E-09  4.00786E-09  4.04928E-09  4.09885E-09  4.13048E-09  4.13803E-09  4.12031E-09  4.07194E-09  3.98411E-09
   3.86279E-09  3.74803E-09  3.67804E-09  3.59524E-09  3.51483E-09  3.48190E-09  3.46444E-09  3.45340E-09  3.44557E-09  3.43941E-09
   3.43411E-09  3.42911E-09  3.42403E-09  3.41857E-09  3.41253E-09  3.40572E-09  3.39798E-09  3.38920E-09  3.37927E-09  3.36808E-09
   3.35553E-09  3.34154E-09  3.32603E-09  3.30891E-09  3.29012E-09  3.26960E-09  3.24728E-09  3.22310E-09  3.19700E-09  3.16893E-09
   3.13883E-09  3.10663E-09  3.07225E-09  3.03559E-09  2.99660E-09  2.95519E-09  2.91132E-09  2.86493E-09  2.81597E-09  2.76443E-09
   2.71031E-09  2.65364E-09  2.59448E-09  2.53294E-09  2.46920E-09  2.40354E-09  2.33638E-09  2.26833E-09  2.20034E-09  2.13386E-09
   2.07120E-09  2.01623E-09  1.97587E-09  1.96366E-09  2.01076E-09  2.20999E-09  2.97024E-09  4.73023E-09  7.21674E-09  1.00833E-08
   1.28917E-08  1.49262E-08  1.55227E-08  1.45338E-08  1.24062E-08  9.74736E-09  6.82395E-09  3.74286E-09  1.30061E-09  2.01967E-10
  -2.94502E-10 -6.22005E-10 -8.79400E-10 -1.09982E-09 -1.29748E-09 -1.47941E-09 -1.64936E-09 -1.80942E-09 -1.96074E-09 -2.10395E-09
  -2.23932E-09 -2.36693E-09 -2.48669E-09 -2.59839E-09 -2.70180E-09 -2.79662E-09 -2.88263E-09 -2.96009E-09 -3.02932E-09 -3.09062E-09
  -3.14428E-09 -3.19057E-09 -3.22977E-09 -3.26214E-09 -3.28795E-09 -3.30744E-09 -3.32088E-09 -3.32851E-09 -3.33058E-09 -3.32734E-09
  -3.31902E-09 -3.30588E-09 -3.28815E-09 -3.26607E-09 -3.23988E-09 -3.20983E-09 -3.17615E-09 -3.13908E-09 -3.09885E-09 -3.05570E-09
  -3.00987E-09 -2.96160E-09 -2.91111E-09 -2.85866E-09 -2.80443E-09 -2.74860E-09 -2.69130E-09 -2.63268E-09 -2.57290E-09 -2.51209E-09
  -2.45040E-09 -2.38799E-09 -2.32499E-09 -2.26156E-09 -2.19783E-09 -2.13396E-09 -2.07009E-09 -2.00638E-09 -1.94294E-09 -1.87996E-09
  -1.81757E-09 -1.75590E-09 -1.69512E-09 -1.63537E-09 -1.57677E-09 -1.51950E-09 -1.46369E-09 -1.40949E-09 -1.35704E-09 -1.30650E-09
  -1.25799E-09 -1.21169E-09 -1.16763E-09 -1.12574E-09 -1.08596E-09 -1.04821E-09 -1.01242E-09 -9.78513E-10 -9.46413E-10 -9.16050E-10
  -8.87352E-10 -8.60235E-10 -8.34637E-10 -8.10474E-10 -7.87682E-10 -7.66180E-10 -7.45886E-10 -7.26748E-10 -7.08680E-10 -6.91602E-10
  -6.75443E-10 -6.60139E-10 -6.45601E-10 -6.31761E-10 -6.18556E-10 -6.05888E-10 -5.93709E-10 -5.81929E-10 -5.70481E-10 -5.59284E-10
  -5.48296E-10 -5.37492E-10 -5.26846E-10 -5.16331E-10 -5.05928E-10 -4.95607E-10 -4.85347E-10 -4.75120E-10 -4.64903E-10 -4.54673E-10
  -4.44403E-10 -4.34069E-10 -4.23646E-10 -4.13110E-10 -4.02437E-10 -3.91600E-10 -3.80577E-10 -3.69341E-10 -3.57872E-10 -3.46136E-10
  -3.34119E-10 -3.21789E-10 -3.09122E-10 -2.96100E-10 -2.82692E-10 -2.68874E-10 -2.54623E-10 -2.39914E-10 -2.24760E-10 -2.09187E-10
  -1.93224E-10 -1.76900E-10 -1.60243E-10 -1.43278E-10 -1.26037E-10 -1.08547E-10 -9.08358E-11 -7.29318E-11 -5.48641E-11 -3.66585E-11
  -1.83472E-11  4.62963E-14  1.84917E-11  3.69579E-11  5.54223E-11  7.38506E-11  9.22190E-11  1.10499E-10  1.28661E-10  1.46674E-10
   1.64517E-10  1.82156E-10  1.99566E-10  2.16715E-10  2.33577E-10  2.50131E-10  2.66376E-10  2.82327E-10  2.97999E-10  3.13406E-10
   3.28561E-10  3.43479E-10  3.58175E-10  3.72662E-10  3.86952E-10  4.01064E-10  4.15006E-10  4.28796E-10  4.42448E-10  4.55975E-10
   4.69392E-10  4.82711E-10  4.95949E-10  5.09117E-10  5.22232E-10  5.35306E-10  5.48354E-10  5.61390E-10  5.74429E-10  5.87482E-10
   6.00565E-10  6.13692E-10  6.26879E-10
 NY background values follow
     4.122E-10    4.232E-10    4.342E-10    4.453E-10    4.563E-10    4.674E-10    4.785E-10    4.897E-10    5.009E-10    5.121E-10
     5.233E-10    5.346E-10    5.458E-10    5.572E-10    5.685E-10    5.799E-10    5.913E-10    6.027E-10    6.142E-10    6.257E-10
     6.372E-10    6.487E-10    6.603E-10    6.719E-10    6.835E-10    6.952E-10    7.068E-10    7.186E-10    7.303E-10    7.420E-10
     7.539E-10    7.658E-10    7.777E-10    7.899E-10    8.021E-10    8.145E-10    8.271E-10    8.399E-10    8.529E-10    8.662E-10
     8.798E-10    8.936E-10    9.078E-10    9.223E-10    9.372E-10    9.525E-10    9.681E-10    9.842E-10    1.001E-09    1.018E-09
     1.035E-09    1.053E-09    1.072E-09    1.091E-09    1.111E-09    1.131E-09    1.152E-09    1.174E-09    1.196E-09    1.219E-09
     1.242E-09    1.266E-09    1.290E-09    1.315E-09    1.341E-09    1.366E-09    1.393E-09    1.419E-09    1.446E-09    1.473E-09
     1.501E-09    1.529E-09    1.557E-09    1.585E-09    1.614E-09    1.643E-09    1.672E-09    1.701E-09    1.730E-09    1.759E-09
     1.789E-09    1.818E-09    1.848E-09    1.877E-09    1.907E-09    1.936E-09    1.965E-09    1.994E-09    2.023E-09    2.052E-09
     2.081E-09    2.109E-09    2.137E-09    2.165E-09    2.192E-09    2.219E-09    2.246E-09    2.272E-09    2.298E-09    2.324E-09
     2.349E-09    2.373E-09    2.397E-09    2.420E-09    2.442E-09    2.464E-09    2.486E-09    2.506E-09    2.526E-09    2.545E-09
     2.563E-09    2.580E-09    2.597E-09    2.612E-09    2.627E-09    2.641E-09    2.653E-09    2.665E-09    2.675E-09    2.684E-09
     2.692E-09    2.698E-09    2.703E-09    2.707E-09    2.709E-09    2.710E-09    2.709E-09    2.706E-09    2.702E-09    2.696E-09
     2.688E-09    2.679E-09    2.667E-09    2.654E-09    2.638E-09    2.620E-09    2.601E-09    2.579E-09    2.555E-09    2.529E-09
     2.500E-09    2.469E-09    2.435E-09    2.399E-09    2.360E-09    2.319E-09    2.274E-09    2.227E-09    2.176E-09    2.122E-09
     2.065E-09    2.004E-09    1.941E-09    1.873E-09    1.802E-09    1.727E-09    1.648E-09    1.565E-09    1.478E-09    1.387E-09
     1.292E-09    1.192E-09    1.088E-09    9.797E-10    8.664E-10    7.484E-10    6.255E-10    4.977E-10    3.650E-10    2.276E-10
     8.610E-11   -5.903E-11   -2.073E-10   -3.583E-10   -5.115E-10   -6.665E-10   -8.227E-10   -9.797E-10   -1.137E-09   -1.294E-09
    -1.451E-09   -1.606E-09   -1.760E-09   -1.911E-09   -2.060E-09   -2.206E-09   -2.349E-09   -2.487E-09   -2.621E-09   -2.750E-09
    -2.874E-09   -2.992E-09   -3.103E-09   -3.208E-09   -3.305E-09   -3.394E-09   -3.475E-09   -3.548E-09   -3.614E-09   -3.672E-09
    -3.722E-09   -3.766E-09   -3.802E-09   -3.832E-09   -3.856E-09   -3.873E-09   -3.885E-09   -3.891E-09   -3.891E-09   -3.887E-09
    -3.877E-09   -3.862E-09   -3.843E-09   -3.820E-09   -3.793E-09   -3.762E-09   -3.727E-09   -3.689E-09   -3.648E-09   -3.604E-09
    -3.557E-09   -3.508E-09   -3.457E-09   -3.404E-09   -3.349E-09   -3.292E-09   -3.234E-09   -3.175E-09   -3.114E-09   -3.053E-09
    -2.991E-09   -2.928E-09   -2.864E-09   -2.800E-09   -2.736E-09   -2.672E-09   -2.607E-09   -2.543E-09   -2.479E-09   -2.416E-09
    -2.353E-09   -2.291E-09   -2.230E-09   -2.169E-09   -2.110E-09   -2.053E-09   -1.997E-09   -1.942E-09   -1.889E-09   -1.838E-09
    -1.789E-09   -1.743E-09   -1.698E-09   -1.656E-09   -1.616E-09   -1.578E-09   -1.542E-09   -1.507E-09   -1.475E-09   -1.444E-09
    -1.415E-09   -1.388E-09   -1.362E-09   -1.338E-09   -1.314E-09   -1.293E-09   -1.272E-09   -1.253E-09   -1.234E-09   -1.217E-09
    -1.200E-09   -1.185E-09   -1.170E-09   -1.156E-09   -1.142E-09   -1.129E-09   -1.117E-09   -1.105E-09   -1.093E-09   -1.082E-09
    -1.071E-09   -1.059E-09   -1.049E-09   -1.038E-09   -1.027E-09   -1.017E-09   -1.006E-09   -9.955E-10   -9.850E-10   -9.745E-10
    -9.640E-10   -9.534E-10   -9.428E-10   -9.320E-10   -9.211E-10   -9.100E-10   -8.987E-10   -8.872E-10   -8.755E-10   -8.635E-10
    -8.513E-10   -8.387E-10   -8.258E-10   -8.125E-10   -7.989E-10   -7.848E-10   -7.703E-10   -7.553E-10   -7.400E-10   -7.241E-10
    -7.079E-10   -6.914E-10   -6.745E-10   -6.573E-10   -6.398E-10   -6.220E-10   -6.041E-10   -5.859E-10   -5.676E-10   -5.492E-10
    -5.306E-10   -5.120E-10   -4.933E-10   -4.746E-10   -4.559E-10   -4.372E-10   -4.186E-10   -4.001E-10   -3.817E-10   -3.634E-10
    -3.453E-10   -3.275E-10   -3.098E-10   -2.924E-10   -2.753E-10   -2.585E-10   -2.420E-10   -2.258E-10   -2.099E-10   -1.942E-10
    -1.788E-10   -1.636E-10   -1.487E-10   -1.340E-10   -1.194E-10   -1.050E-10   -9.085E-11   -7.680E-11   -6.289E-11   -4.911E-11
    -3.543E-11   -2.185E-11   -8.355E-12    5.075E-12    1.845E-11    3.179E-11    4.510E-11    5.841E-11    7.171E-11    8.503E-11
     9.839E-11    1.118E-10    1.252E-10
 Ala      Conc. = 1.34E-10
   5.10145E-10  5.31757E-10  5.49610E-10  5.64490E-10  5.76376E-10  5.85621E-10  5.90063E-10  5.87832E-10  5.87967E-10  5.90699E-10
   5.86365E-10  5.84358E-10  5.88744E-10  5.92247E-10  5.96851E-10  6.04022E-10  6.12562E-10  6.21916E-10  6.31805E-10  6.42066E-10
   6.52602E-10  6.63348E-10  6.74259E-10  6.85304E-10  6.96461E-10  7.07714E-10  7.19049E-10  7.30455E-10  7.41927E-10  7.53463E-10
   7.65078E-10  7.76790E-10  7.88619E-10  8.00585E-10  8.12706E-10  8.25003E-10  8.37498E-10  8.50211E-10  8.63163E-10  8.76374E-10
   8.89868E-10  9.03664E-10  9.17785E-10  9.32252E-10  9.47088E-10  9.62312E-10  9.77949E-10  9.94021E-10  1.01055E-09  1.02755E-09
   1.04505E-09  1.06308E-09  1.08165E-09  1.10078E-09  1.12051E-09  1.14084E-09  1.16180E-09  1.18341E-09  1.20562E-09  1.22843E-09
   1.25181E-09  1.27572E-09  1.30016E-09  1.32509E-09  1.35048E-09  1.37632E-09  1.40258E-09  1.42923E-09  1.45626E-09  1.48363E-09
   1.51132E-09  1.53932E-09  1.56759E-09  1.59611E-09  1.62486E-09  1.65381E-09  1.68295E-09  1.71225E-09  1.74169E-09  1.77125E-09
   1.80091E-09  1.83064E-09  1.86044E-09  1.89028E-09  1.92014E-09  1.95002E-09  1.97990E-09  2.00977E-09  2.03964E-09  2.06949E-09
   2.09937E-09  2.12931E-09  2.15938E-09  2.18970E-09  2.22048E-09  2.25208E-09  2.28515E-09  2.32103E-09  2.36291E-09  2.42101E-09
   2.51274E-09  2.61480E-09  2.72572E-09  2.85791E-09  2.98039E-09  3.07193E-09  3.12951E-09  3.15418E-09  3.14216E-09  3.08580E-09
   2.99213E-09  2.90175E-09  2.85335E-09  2.78976E-09  2.72648E-09  2.70886E-09  2.70526E-09  2.70682E-09  2.71044E-09  2.71475E-09
   2.71900E-09  2.72274E-09  2.72568E-09  2.72762E-09  2.72838E-09  2.72785E-09  2.72593E-09  2.72251E-09  2.71753E-09  2.71090E-09
   2.70256E-09  2.69243E-09  2.68046E-09  2.66659E-09  2.65075E-09  2.63289E-09  2.61295E-09  2.59088E-09  2.56662E-09  2.54011E-09
   2.51129E-09  2.48009E-09  2.44639E-09  2.41012E-09  2.37116E-09  2.32942E-09  2.28480E-09  2.23720E-09  2.18653E-09  2.13269E-09
   2.07558E-09  2.01511E-09  1.95118E-09  1.88370E-09  1.81257E-09  1.73771E-09  1.65903E-09  1.57644E-09  1.48986E-09  1.39923E-09
   1.30448E-09  1.20560E-09  1.10263E-09  9.95691E-10  8.85270E-10  7.72850E-10  6.65205E-10  5.78661E-10  5.02299E-10  4.29947E-10
   3.54092E-10  2.58839E-10  1.28467E-10 -4.05588E-11 -2.37204E-10 -4.45825E-10 -6.60221E-10 -8.80836E-10 -1.09267E-09 -1.26549E-09
  -1.42836E-09 -1.58716E-09 -1.74304E-09 -1.89614E-09 -2.04626E-09 -2.19307E-09 -2.33619E-09 -2.47519E-09 -2.60962E-09 -2.73902E-09
  -2.86294E-09 -2.98092E-09 -3.09247E-09 -3.19713E-09 -3.29442E-09 -3.38389E-09 -3.46518E-09 -3.53845E-09 -3.60394E-09 -3.66187E-09
  -3.71249E-09 -3.75602E-09 -3.79270E-09 -3.82277E-09 -3.84646E-09 -3.86399E-09 -3.87562E-09 -3.88157E-09 -3.88206E-09 -3.87735E-09
  -3.86766E-09 -3.85322E-09 -3.83427E-09 -3.81104E-09 -3.78376E-09 -3.75268E-09 -3.71802E-09 -3.68001E-09 -3.63888E-09 -3.59489E-09
  -3.54824E-09 -3.49918E-09 -3.44795E-09 -3.39477E-09 -3.33985E-09 -3.28335E-09 -3.22541E-09 -3.16616E-09 -3.10577E-09 -3.04438E-09
  -2.98213E-09 -2.91916E-09 -2.85563E-09 -2.79168E-09 -2.72745E-09 -2.66309E-09 -2.59874E-09 -2.53456E-09 -2.47067E-09 -2.40724E-09
  -2.34441E-09 -2.28232E-09 -2.22112E-09 -2.16096E-09 -2.10197E-09 -2.04431E-09 -1.98811E-09 -1.93353E-09 -1.88071E-09 -1.82981E-09
  -1.78094E-09 -1.73428E-09 -1.68987E-09 -1.64764E-09 -1.60752E-09 -1.56945E-09 -1.53333E-09 -1.49910E-09 -1.46668E-09 -1.43600E-09
  -1.40699E-09 -1.37957E-09 -1.35366E-09 -1.32920E-09 -1.30611E-09 -1.28432E-09 -1.26373E-09 -1.24431E-09 -1.22595E-09 -1.20859E-09
  -1.19215E-09 -1.17657E-09 -1.16176E-09 -1.14764E-09 -1.13417E-09 -1.12123E-09 -1.10878E-09 -1.09674E-09 -1.08503E-09 -1.07357E-09
  -1.06232E-09 -1.05126E-09 -1.04036E-09 -1.02958E-09 -1.01893E-09 -1.00835E-09 -9.97842E-10 -9.87364E-10 -9.76897E-10 -9.66419E-10
  -9.55902E-10 -9.45322E-10 -9.34653E-10 -9.23873E-10 -9.12956E-10 -9.01876E-10 -8.90611E-10 -8.79133E-10 -8.67423E-10 -8.55446E-10
  -8.43189E-10 -8.30620E-10 -8.17714E-10 -8.04454E-10 -7.90807E-10 -7.76750E-10 -7.62263E-10 -7.47316E-10 -7.31925E-10 -7.16115E-10
  -6.99916E-10 -6.83354E-10 -6.66461E-10 -6.49260E-10 -6.31782E-10 -6.14055E-10 -5.96108E-10 -5.77967E-10 -5.59662E-10 -5.41220E-10
  -5.22672E-10 -5.04041E-10 -4.85358E-10 -4.66655E-10 -4.47953E-10 -4.29286E-10 -4.10679E-10 -3.92160E-10 -3.73760E-10 -3.55506E-10
  -3.37424E-10 -3.19544E-10 -3.01893E-10 -2.84502E-10 -2.67398E-10 -2.50602E-10 -2.34113E-10 -2.17918E-10 -2.02002E-10 -1.86350E-10
  -1.70949E-10 -1.55784E-10 -1.40841E-10 -1.26107E-10 -1.11568E-10 -9.72069E-11 -8.30142E-11 -6.89727E-11 -5.50693E-11 -4.12893E-11
  -2.76180E-11 -1.40438E-11 -5.50259E-13  1.28755E-11  2.62483E-11  3.95811E-11  5.28890E-11  6.61869E-11  7.94875E-11  9.28040E-11
   1.06152E-10  1.19545E-10  1.32999E-10
 Asp      Conc. = 7.42E-10
   1.30306E-09  1.20408E-09  1.09222E-09  9.78330E-10  8.76475E-10  7.76364E-10  7.03062E-10  6.42100E-10  6.18441E-10  6.09906E-10
   6.08841E-10  6.12041E-10  6.17992E-10  6.25849E-10  6.34693E-10  6.44124E-10  6.54157E-10  6.64718E-10  6.75742E-10  6.87180E-10
   6.99005E-10  7.11201E-10  7.23768E-10  7.36719E-10  7.50081E-10  7.63898E-10  7.78232E-10  7.93169E-10  8.08832E-10  8.25394E-10
   8.43115E-10  8.62369E-10  8.83716E-10  9.08057E-10  9.36992E-10  9.73840E-10  1.02675E-09  1.09217E-09  1.17379E-09  1.25574E-09
   1.32458E-09  1.37200E-09  1.40143E-09  1.44177E-09  1.50965E-09  1.65497E-09  1.84033E-09  2.03084E-09  2.22218E-09  2.36082E-09
   2.42531E-09  2.41036E-09  2.34074E-09  2.22317E-09  2.06432E-09  1.91059E-09  1.77232E-09  1.73089E-09  1.69151E-09  1.63870E-09
   1.62328E-09  1.62596E-09  1.61745E-09  1.61349E-09  1.61813E-09  1.61004E-09  1.58580E-09  1.58075E-09  1.58661E-09  1.59859E-09
   1.61449E-09  1.63311E-09  1.65374E-09  1.67590E-09  1.69927E-09  1.72360E-09  1.74873E-09  1.77450E-09  1.80080E-09  1.82754E-09
   1.85464E-09  1.88203E-09  1.90964E-09  1.93743E-09  1.96534E-09  1.99333E-09  2.02135E-09  2.04936E-09  2.07732E-09  2.10518E-09
   2.13290E-09  2.16046E-09  2.18781E-09  2.21491E-09  2.24174E-09  2.26825E-09  2.29442E-09  2.32021E-09  2.34559E-09  2.37053E-09
   2.39499E-09  2.41893E-09  2.44234E-09  2.46518E-09  2.48742E-09  2.50902E-09  2.52995E-09  2.55019E-09  2.56971E-09  2.58847E-09
   2.60644E-09  2.62360E-09  2.63990E-09  2.65531E-09  2.66977E-09  2.68324E-09  2.69566E-09  2.70697E-09  2.71713E-09  2.72607E-09
   2.73376E-09  2.74012E-09  2.74513E-09  2.74871E-09  2.75082E-09  2.75141E-09  2.75042E-09  2.74780E-09  2.74350E-09  2.73747E-09
   2.72965E-09  2.71999E-09  2.70844E-09  2.69496E-09  2.67948E-09  2.66195E-09  2.64233E-09  2.62056E-09  2.59660E-09  2.57039E-09
   2.54186E-09  2.51096E-09  2.47757E-09  2.44162E-09  2.40300E-09  2.36161E-09  2.31737E-09  2.27019E-09  2.21998E-09  2.16664E-09
   2.11009E-09  2.05025E-09  1.98704E-09  1.92039E-09  1.85023E-09  1.77650E-09  1.69917E-09  1.61820E-09  1.53362E-09  1.44547E-09
   1.35393E-09  1.25926E-09  1.16206E-09  1.06344E-09  9.65951E-10  8.76265E-10  8.19339E-10  8.98048E-10  1.06513E-09  1.28080E-09
   1.50701E-09  1.65964E-09  1.64354E-09  1.42202E-09  1.04263E-09  5.93059E-10  1.17232E-10 -3.91872E-10 -8.80664E-10 -1.15239E-09
  -1.34933E-09 -1.52475E-09 -1.69030E-09 -1.84962E-09 -2.00400E-09 -2.15389E-09 -2.29930E-09 -2.44005E-09 -2.57584E-09 -2.70634E-09
  -2.83115E-09 -2.94985E-09 -3.06202E-09 -3.16718E-09 -3.26491E-09 -3.35473E-09 -3.43635E-09 -3.50989E-09 -3.57561E-09 -3.63376E-09
  -3.68456E-09 -3.72825E-09 -3.76508E-09 -3.79528E-09 -3.81909E-09 -3.83673E-09 -3.84845E-09 -3.85448E-09 -3.85506E-09 -3.85042E-09
  -3.84079E-09 -3.82641E-09 -3.80752E-09 -3.78434E-09 -3.75711E-09 -3.72607E-09 -3.69145E-09 -3.65348E-09 -3.61239E-09 -3.56843E-09
  -3.52181E-09 -3.47279E-09 -3.42158E-09 -3.36843E-09 -3.31353E-09 -3.25706E-09 -3.19914E-09 -3.13992E-09 -3.07955E-09 -3.01817E-09
