 LCModel (Version 6.3-1R) Copyright: S.W. Provencher.          Ref.: Magn. Reson. Med. 30:672-679 (1993).                
 onepulse 17x28_ftSpec_smooth_lcm
 26 lines in following concentration table = NCONC+1
    Conc.  %SD /Cr+PCr  Metabolite                                         
    0.000 999%   0.000 Ala                                                 
 8.04E-10 193%   1.374 Asp                                                 
    0.000 999%   0.000 Cr                                                  
 7.01E-10 142%   1.197 GABA                                                
 8.69E-10 328%   1.484 Glc                                                 
 1.09E-09 103%   1.864 Gln                                                 
    0.000 999%   0.000 Glu                                                 
    0.000 999%   0.000 Glyc                                                
    0.000 999%   0.000 GPC                                                 
 2.93E-10 343%   0.501 GSH                                                 
 1.90E-09  48%   3.247 Ins                                                 
    0.000 999%   0.000 Lac                                                 
 7.97E-11 644%   0.136 NAAG                                                
 9.32E-10  68%   1.592 NAA                                                 
    0.000 999%   0.000 PCh                                                 
 5.85E-10  97%   1.000 PCr                                                 
 2.20E-09 111%   3.759 PE                                                  
 2.99E-11 999% 5.1E-02 Scyllo                                              
 2.63E-09 112%   4.496 Ser                                                 
 2.95E-10 999%   0.504 Tau                                                 
    0.000 999%   0.000 GPC+PCh                                             
 1.01E-09  40%   1.728 NAA+NAAG                                            
 1.90E-09  48%   3.247 Ins+Glyc                                            
 5.85E-10  97%   1.000 Cr+PCr                                              
 1.09E-09 103%   1.864 Glu+Gln                                             
   6 lines in following misc. output table
  FWHM = 0.123 ppm    S/N =   3                                            
  Data shift = 0.402 ppm                                                   
  Ph:  47 deg      -8.8 deg/ppm                                            
  alphaB,S = 7.2E-01,   2.6E+01                                            
    8 spline knots.   Ns = 5(1)                                            
  ( 8) 4 infls.   ( 5) 3 extrs.                                            
  363 points on ppm-axis = NY
      4.250000     4.238821     4.227641     4.216462     4.205282     4.194103     4.182923     4.171744     4.160564     4.149385
      4.138206     4.127026     4.115847     4.104667     4.093488     4.082308     4.071129     4.059949     4.048770     4.037591
      4.026411     4.015232     4.004052     3.992873     3.981693     3.970514     3.959334     3.948155     3.936975     3.925796
      3.914617     3.903437     3.892258     3.881078     3.869899     3.858719     3.847540     3.836360     3.825181     3.814002
      3.802822     3.791643     3.780463     3.769284     3.758104     3.746925     3.735745     3.724566     3.713387     3.702207
      3.691028     3.679848     3.668669     3.657489     3.646310     3.635130     3.623951     3.612772     3.601592     3.590413
      3.579233     3.568054     3.556874     3.545695     3.534515     3.523336     3.512156     3.500977     3.489798     3.478618
      3.467439     3.456259     3.445080     3.433900     3.422721     3.411541     3.400362     3.389183     3.378003     3.366824
      3.355644     3.344465     3.333285     3.322106     3.310926     3.299747     3.288568     3.277388     3.266209     3.255029
      3.243850     3.232670     3.221491     3.210311     3.199132     3.187953     3.176773     3.165594     3.154414     3.143235
      3.132055     3.120876     3.109696     3.098517     3.087337     3.076158     3.064979     3.053799     3.042620     3.031440
      3.020261     3.009081     2.997902     2.986722     2.975543     2.964364     2.953184     2.942005     2.930825     2.919646
      2.908466     2.897287     2.886107     2.874928     2.863749     2.852569     2.841390     2.830210     2.819031     2.807851
      2.796672     2.785492     2.774313     2.763134     2.751954     2.740775     2.729595     2.718416     2.707236     2.696057
      2.684877     2.673698     2.662519     2.651339     2.640160     2.628980     2.617801     2.606621     2.595442     2.584262
      2.573083     2.561903     2.550724     2.539545     2.528365     2.517186     2.506006     2.494827     2.483647     2.472468
      2.461288     2.450109     2.438930     2.427750     2.416571     2.405391     2.394212     2.383032     2.371853     2.360673
      2.349494     2.338315     2.327135     2.315956     2.304776     2.293597     2.282417     2.271238     2.260058     2.248879
      2.237700     2.226520     2.215341     2.204161     2.192982     2.181802     2.170623     2.159443     2.148264     2.137084
      2.125905     2.114726     2.103546     2.092367     2.081187     2.070008     2.058828     2.047649     2.036469     2.025290
      2.014111     2.002931     1.991752     1.980572     1.969393     1.958213     1.947034     1.935854     1.924675     1.913496
      1.902316     1.891137     1.879957     1.868778     1.857598     1.846419     1.835239     1.824060     1.812881     1.801701
      1.790522     1.779342     1.768163     1.756983     1.745804     1.734624     1.723445     1.712265     1.701086     1.689907
      1.678727     1.667548     1.656368     1.645189     1.634009     1.622830     1.611650     1.600471     1.589292     1.578112
      1.566933     1.555753     1.544574     1.533394     1.522215     1.511035     1.499856     1.488677     1.477497     1.466318
      1.455138     1.443959     1.432779     1.421600     1.410420     1.399241     1.388062     1.376882     1.365703     1.354523
      1.343344     1.332164     1.320985     1.309805     1.298626     1.287446     1.276267     1.265088     1.253908     1.242729
      1.231549     1.220370     1.209190     1.198011     1.186831     1.175652     1.164473     1.153293     1.142114     1.130934
      1.119755     1.108575     1.097396     1.086216     1.075037     1.063858     1.052678     1.041499     1.030319     1.019140
      1.007960     0.996781     0.985601     0.974422     0.963243     0.952063     0.940884     0.929704     0.918525     0.907345
      0.896166     0.884986     0.873807     0.862628     0.851448     0.840269     0.829089     0.817910     0.806730     0.795551
      0.784371     0.773192     0.762012     0.750833     0.739654     0.728474     0.717295     0.706115     0.694936     0.683756
      0.672577     0.661397     0.650218     0.639039     0.627859     0.616680     0.605500     0.594321     0.583141     0.571962
      0.560782     0.549603     0.538424     0.527244     0.516065     0.504885     0.493706     0.482526     0.471347     0.460167
      0.448988     0.437809     0.426629     0.415450     0.404270     0.393091     0.381911     0.370732     0.359552     0.348373
      0.337193     0.326014     0.314835     0.303655     0.292476     0.281296     0.270117     0.258937     0.247758     0.236578
      0.225399     0.214220     0.203040
 NY phased data points follow
   1.01048E-08  9.84863E-09  9.43917E-09  9.77232E-09  1.00576E-08  1.06141E-08  1.06626E-08  1.13016E-08  1.13788E-08  1.16415E-08
   1.19412E-08  1.13271E-08  1.05423E-08  1.08195E-08  1.03884E-08  1.03381E-08  9.50011E-09  9.51481E-09  9.46971E-09  1.02987E-08
   1.09437E-08  1.09366E-08  9.92743E-09  9.54165E-09  9.11950E-09  9.98385E-09  1.12568E-08  1.24444E-08  1.29576E-08  1.18518E-08
   1.10207E-08  9.53450E-09  8.36565E-09  8.31349E-09  7.95904E-09  7.72442E-09  8.12486E-09  7.96050E-09  7.83518E-09  7.64267E-09
   7.42859E-09  7.20109E-09  6.35590E-09  6.68091E-09  6.34555E-09  6.89044E-09  7.11056E-09  7.62280E-09  7.29544E-09  6.61695E-09
   6.58621E-09  6.50241E-09  6.74110E-09  7.11360E-09  7.44000E-09  7.48884E-09  7.35653E-09  9.13294E-09  1.10970E-08  1.25259E-08
   1.24318E-08  1.09913E-08  1.05406E-08  9.34657E-09  8.74105E-09  7.92522E-09  7.91436E-09  7.44453E-09  7.03161E-09  7.08426E-09
   6.94058E-09  6.87856E-09  6.74082E-09  7.92395E-09  1.18523E-08  1.56724E-08  1.78165E-08  1.71429E-08  1.53686E-08  1.36206E-08
   1.33726E-08  1.26547E-08  1.24689E-08  1.13180E-08  1.14627E-08  1.16979E-08  1.10823E-08  1.01951E-08  9.92108E-09  9.58306E-09
   9.63846E-09  8.51622E-09  8.83323E-09  7.89686E-09  7.98994E-09  7.75377E-09  7.81622E-09  7.66576E-09  8.03564E-09  7.47248E-09
   7.96134E-09  7.38118E-09  7.59637E-09  7.04667E-09  5.95154E-09  5.85170E-09  5.20196E-09  4.87485E-09  5.64359E-09  5.82915E-09
   6.24295E-09  5.60570E-09  5.93106E-09  5.98359E-09  6.24127E-09  6.41322E-09  6.92755E-09  6.60985E-09  6.10388E-09  5.78962E-09
   5.17562E-09  4.40764E-09  4.74733E-09  4.81313E-09  4.93151E-09  5.05557E-09  4.64636E-09  4.85389E-09  5.25074E-09  5.34366E-09
   5.24890E-09  5.42753E-09  4.88691E-09  4.67843E-09  5.89040E-09  6.41353E-09  7.55799E-09  8.08922E-09  8.42766E-09  8.19704E-09
   8.53611E-09  8.88298E-09  9.77146E-09  1.04629E-08  1.05114E-08  1.02142E-08  1.02396E-08  1.02872E-08  9.90370E-09  9.55540E-09
   1.00726E-08  1.00836E-08  9.95494E-09  1.02730E-08  9.79874E-09  9.62053E-09  9.96316E-09  1.04872E-08  1.02891E-08  9.99279E-09
   1.02929E-08  9.78256E-09  9.96856E-09  9.28078E-09  9.41153E-09  1.00851E-08  1.47992E-08  2.00000E-08  2.31069E-08  2.38585E-08
   2.26120E-08  2.22463E-08  2.19923E-08  2.11302E-08  2.07798E-08  2.05103E-08  2.02349E-08  1.96596E-08  1.94672E-08  1.87611E-08
   1.83354E-08  1.77914E-08  1.60615E-08  1.49362E-08  1.35666E-08  1.16393E-08  1.04104E-08  7.47293E-09  4.95183E-09  2.25397E-09
  -8.97161E-10 -3.98218E-09 -6.82485E-09 -9.58574E-09 -1.24162E-08 -1.43280E-08 -1.66033E-08 -1.76342E-08 -1.88160E-08 -1.93699E-08
  -1.88786E-08 -1.79737E-08 -1.66900E-08 -1.49715E-08 -1.27516E-08 -1.13252E-08 -8.41912E-09 -6.84060E-09 -5.22848E-09 -3.93943E-09
  -2.75716E-09 -2.10116E-09 -2.30781E-09 -2.54482E-09 -2.80768E-09 -3.33882E-09 -2.86453E-09 -3.20916E-09 -3.16222E-09 -2.54740E-09
  -1.72313E-09 -1.57958E-09 -1.40750E-09 -1.75110E-09 -1.46576E-09 -2.08163E-09 -1.83392E-09 -2.15366E-09 -2.48225E-09 -2.30312E-09
  -1.96106E-09 -2.23796E-09 -1.20833E-09 -1.14280E-09 -7.38378E-10 -1.53876E-09 -1.85888E-09 -2.02281E-09 -2.02665E-09 -1.82409E-09
  -2.00380E-09 -2.14473E-09 -1.99470E-09 -2.04519E-09 -1.70507E-09 -1.45037E-09 -1.46625E-09 -1.63052E-09 -1.07454E-09 -1.13242E-09
  -1.11359E-09 -1.36771E-09 -6.04772E-10 -9.47667E-10 -1.03289E-09 -1.25322E-09 -1.28164E-09 -1.22474E-09 -1.76357E-09 -1.72628E-09
  -1.91553E-09 -2.61331E-09 -2.52709E-09 -2.80199E-09 -2.61858E-09 -2.43074E-09 -2.32489E-09 -1.94093E-09 -1.58739E-09 -1.79637E-09
  -1.58880E-09 -8.77690E-10 -9.08670E-10 -8.40792E-10 -7.98658E-10 -3.77061E-10 -1.99853E-10 -3.78419E-10 -8.09135E-10 -3.82246E-10
  -1.48365E-10 -9.04832E-10 -1.78940E-10 -9.61985E-10 -8.35636E-10 -8.80869E-10 -1.07840E-09 -1.34296E-09 -1.00572E-09 -9.43293E-10
  -1.03909E-09 -1.39799E-09 -1.25258E-09 -1.33022E-09 -1.79360E-09 -1.67675E-09 -1.24661E-09 -1.73983E-09 -1.54553E-09 -1.86826E-09
  -1.57175E-09 -1.79898E-09 -2.02226E-09 -1.50731E-09 -2.00644E-09 -1.89608E-09 -2.02542E-09 -2.13307E-09 -2.33569E-09 -2.32305E-09
  -2.17920E-09 -2.82418E-09 -2.21112E-09 -2.43987E-09 -2.33356E-09 -2.77313E-09 -2.61616E-09 -2.25859E-09 -2.64720E-09 -2.70457E-09
  -2.11981E-09 -2.47460E-09 -2.94052E-09 -2.94664E-09 -2.54601E-09 -2.37177E-09 -2.27278E-09 -2.64562E-09 -3.22659E-09 -2.30281E-09
  -2.78655E-09 -2.00380E-09 -2.76323E-09 -2.60831E-09 -2.88216E-09 -2.68087E-09 -2.72845E-09 -2.84283E-09 -2.66638E-09 -2.59893E-09
  -2.92007E-09 -2.73560E-09 -2.95702E-09 -2.83947E-09 -2.48549E-09 -2.91722E-09 -3.08021E-09 -2.94558E-09 -2.67877E-09 -3.03911E-09
  -2.99029E-09 -2.97531E-09 -3.03552E-09 -2.60937E-09 -2.86567E-09 -3.04491E-09 -3.43955E-09 -2.77337E-09 -2.85022E-09 -2.80541E-09
  -2.85947E-09 -2.80629E-09 -3.10233E-09
 NY points of the fit to the data follow
   1.21787E-08  9.78906E-09  8.95301E-09  9.42431E-09  1.00461E-08  9.95640E-09  9.83896E-09  1.05028E-08  1.13475E-08  1.16157E-08
   1.14498E-08  1.13351E-08  1.14858E-08  1.17043E-08  1.13730E-08  1.07441E-08  1.05028E-08  9.76272E-09  8.46953E-09  8.02344E-09
   8.90673E-09  1.03292E-08  1.09562E-08  1.11321E-08  1.10851E-08  1.12591E-08  1.12995E-08  1.10987E-08  1.09121E-08  1.08093E-08
   1.04917E-08  1.03538E-08  9.87790E-09  9.22840E-09  8.18434E-09  7.46106E-09  7.05055E-09  7.14474E-09  7.22380E-09  7.12493E-09
   6.78442E-09  6.14110E-09  5.37605E-09  5.55451E-09  6.19817E-09  6.51923E-09  6.55210E-09  6.71672E-09  7.26809E-09  7.81635E-09
   8.35957E-09  8.73914E-09  8.91760E-09  8.97746E-09  9.15293E-09  9.31227E-09  9.73066E-09  1.02379E-08  1.03616E-08  1.00672E-08
   9.91086E-09  9.84967E-09  9.85959E-09  9.76301E-09  9.72954E-09  9.63179E-09  9.43015E-09  9.14009E-09  8.94781E-09  9.15028E-09
   9.47444E-09  9.68512E-09  9.89471E-09  1.02370E-08  1.07405E-08  1.12734E-08  1.23278E-08  1.41789E-08  1.48438E-08  1.44755E-08
   1.37030E-08  1.29108E-08  1.23874E-08  1.21474E-08  1.18108E-08  1.11855E-08  1.01830E-08  8.43205E-09  6.69531E-09  6.66093E-09
   6.79867E-09  6.96341E-09  7.08552E-09  7.06896E-09  7.08761E-09  7.18755E-09  7.16580E-09  7.13949E-09  7.19741E-09  7.23053E-09
   7.25874E-09  7.30499E-09  7.35421E-09  7.40370E-09  7.45187E-09  7.49728E-09  7.53946E-09  7.57829E-09  7.61363E-09  7.64548E-09
   7.67385E-09  7.69862E-09  7.71991E-09  7.73782E-09  7.75244E-09  7.76384E-09  7.77202E-09  7.77697E-09  7.77871E-09  7.77734E-09
   7.77279E-09  7.76519E-09  7.75448E-09  7.74072E-09  7.72391E-09  7.70404E-09  7.68110E-09  7.65518E-09  7.62622E-09  7.59422E-09
   7.55922E-09  7.52117E-09  7.48014E-09  7.43611E-09  7.38907E-09  7.33900E-09  7.28600E-09  7.22999E-09  7.17103E-09  7.10909E-09
   7.04426E-09  6.97655E-09  6.90599E-09  6.83259E-09  6.75648E-09  6.67770E-09  6.59638E-09  6.51277E-09  6.42713E-09  6.33978E-09
   6.25109E-09  6.16151E-09  6.07156E-09  5.98193E-09  5.89347E-09  5.80729E-09  5.72489E-09  5.64835E-09  5.58068E-09  5.52635E-09
   5.49242E-09  5.49080E-09  5.54305E-09  5.69295E-09  6.04452E-09  6.91495E-09  9.75949E-09  1.78457E-08  2.36430E-08  2.52795E-08
   2.44679E-08  2.32265E-08  2.24746E-08  2.23961E-08  2.29734E-08  2.33975E-08  2.15855E-08  1.52823E-08  6.56830E-09  4.12528E-09
   3.19287E-09  2.67388E-09  2.31803E-09  2.04167E-09  1.80951E-09  1.60435E-09  1.41691E-09  1.24182E-09  1.07569E-09  9.16450E-10
   7.62744E-10  6.13565E-10  4.68311E-10  3.26523E-10  1.87941E-10  5.23145E-11 -8.05057E-11 -2.10537E-10 -3.37857E-10 -4.62517E-10
  -5.84482E-10 -7.03736E-10 -8.20233E-10 -9.33950E-10 -1.04485E-09 -1.15282E-09 -1.25785E-09 -1.35986E-09 -1.45881E-09 -1.55455E-09
  -1.64712E-09 -1.73636E-09 -1.82224E-09 -1.90468E-09 -1.98363E-09 -2.05897E-09 -2.13066E-09 -2.19865E-09 -2.26282E-09 -2.32328E-09
  -2.38006E-09 -2.43330E-09 -2.48303E-09 -2.52938E-09 -2.57240E-09 -2.61221E-09 -2.64888E-09 -2.68248E-09 -2.71311E-09 -2.74085E-09
  -2.76580E-09 -2.78802E-09 -2.80762E-09 -2.82466E-09 -2.83925E-09 -2.85145E-09 -2.86137E-09 -2.86907E-09 -2.87465E-09 -2.87818E-09
  -2.87974E-09 -2.87945E-09 -2.87735E-09 -2.87354E-09 -2.86809E-09 -2.86109E-09 -2.85263E-09 -2.84277E-09 -2.83162E-09 -2.81921E-09
  -2.80568E-09 -2.79105E-09 -2.77545E-09 -2.75890E-09 -2.74151E-09 -2.72337E-09 -2.70452E-09 -2.68505E-09 -2.66502E-09 -2.64452E-09
  -2.62361E-09 -2.60237E-09 -2.58087E-09 -2.55916E-09 -2.53732E-09 -2.51541E-09 -2.49351E-09 -2.47166E-09 -2.44994E-09 -2.42841E-09
  -2.40713E-09 -2.38614E-09 -2.36554E-09 -2.34534E-09 -2.32564E-09 -2.30645E-09 -2.28786E-09 -2.26991E-09 -2.25263E-09 -2.23610E-09
  -2.22035E-09 -2.20544E-09 -2.19141E-09 -2.17828E-09 -2.16612E-09 -2.15496E-09 -2.14485E-09 -2.13579E-09 -2.12786E-09 -2.12107E-09
  -2.11545E-09 -2.11102E-09 -2.10770E-09 -2.10546E-09 -2.10424E-09 -2.10399E-09 -2.10466E-09 -2.10620E-09 -2.10856E-09 -2.11168E-09
  -2.11553E-09 -2.12005E-09 -2.12519E-09 -2.13091E-09 -2.13715E-09 -2.14387E-09 -2.15103E-09 -2.15857E-09 -2.16645E-09 -2.17463E-09
  -2.18306E-09 -2.19169E-09 -2.20050E-09 -2.20941E-09 -2.21841E-09 -2.22744E-09 -2.23647E-09 -2.24545E-09 -2.25434E-09 -2.26310E-09
  -2.27171E-09 -2.28009E-09 -2.28825E-09 -2.29612E-09 -2.30368E-09 -2.31087E-09 -2.31770E-09 -2.32410E-09 -2.33005E-09 -2.33550E-09
  -2.34044E-09 -2.34483E-09 -2.34863E-09 -2.35182E-09 -2.35438E-09 -2.35626E-09 -2.35746E-09 -2.35792E-09 -2.35764E-09 -2.35658E-09
  -2.35473E-09 -2.35204E-09 -2.34853E-09 -2.34414E-09 -2.33885E-09 -2.33267E-09 -2.32556E-09 -2.31751E-09 -2.30848E-09 -2.29849E-09
  -2.28750E-09 -2.27549E-09 -2.26246E-09 -2.24840E-09 -2.23329E-09 -2.21711E-09 -2.19987E-09 -2.18155E-09 -2.16214E-09 -2.14163E-09
  -2.12002E-09 -2.09730E-09 -2.07348E-09
 NY background values follow
     6.041E-09    6.105E-09    6.168E-09    6.230E-09    6.292E-09    6.352E-09    6.411E-09    6.469E-09    6.526E-09    6.582E-09
     6.637E-09    6.691E-09    6.745E-09    6.797E-09    6.848E-09    6.898E-09    6.947E-09    6.995E-09    7.042E-09    7.089E-09
     7.134E-09    7.178E-09    7.222E-09    7.264E-09    7.305E-09    7.346E-09    7.385E-09    7.424E-09    7.462E-09    7.498E-09
     7.534E-09    7.569E-09    7.603E-09    7.636E-09    7.669E-09    7.700E-09    7.730E-09    7.760E-09    7.789E-09    7.817E-09
     7.844E-09    7.870E-09    7.896E-09    7.920E-09    7.944E-09    7.967E-09    7.990E-09    8.011E-09    8.032E-09    8.052E-09
     8.071E-09    8.090E-09    8.108E-09    8.125E-09    8.142E-09    8.158E-09    8.173E-09    8.187E-09    8.201E-09    8.215E-09
     8.227E-09    8.239E-09    8.251E-09    8.262E-09    8.272E-09    8.282E-09    8.291E-09    8.300E-09    8.308E-09    8.316E-09
     8.324E-09    8.330E-09    8.337E-09    8.343E-09    8.349E-09    8.354E-09    8.358E-09    8.362E-09    8.366E-09    8.369E-09
     8.371E-09    8.373E-09    8.374E-09    8.375E-09    8.375E-09    8.374E-09    8.372E-09    8.370E-09    8.366E-09    8.362E-09
     8.357E-09    8.351E-09    8.344E-09    8.336E-09    8.327E-09    8.318E-09    8.306E-09    8.294E-09    8.281E-09    8.267E-09
     8.251E-09    8.234E-09    8.215E-09    8.196E-09    8.175E-09    8.152E-09    8.129E-09    8.103E-09    8.076E-09    8.048E-09
     8.018E-09    7.986E-09    7.953E-09    7.918E-09    7.881E-09    7.842E-09    7.802E-09    7.759E-09    7.715E-09    7.669E-09
     7.621E-09    7.570E-09    7.518E-09    7.464E-09    7.407E-09    7.348E-09    7.287E-09    7.224E-09    7.159E-09    7.091E-09
     7.020E-09    6.948E-09    6.872E-09    6.795E-09    6.715E-09    6.632E-09    6.546E-09    6.458E-09    6.368E-09    6.274E-09
     6.178E-09    6.079E-09    5.977E-09    5.872E-09    5.765E-09    5.654E-09    5.541E-09    5.424E-09    5.305E-09    5.183E-09
     5.059E-09    4.932E-09    4.803E-09    4.671E-09    4.538E-09    4.402E-09    4.264E-09    4.124E-09    3.982E-09    3.839E-09
     3.694E-09    3.547E-09    3.399E-09    3.250E-09    3.099E-09    2.947E-09    2.795E-09    2.641E-09    2.486E-09    2.331E-09
     2.175E-09    2.019E-09    1.862E-09    1.705E-09    1.548E-09    1.390E-09    1.233E-09    1.075E-09    9.182E-10    7.613E-10
     6.049E-10    4.490E-10    2.936E-10    1.391E-10   -1.471E-11   -1.676E-10   -3.194E-10   -4.700E-10   -6.195E-10   -7.676E-10
    -9.143E-10   -1.059E-09   -1.203E-09   -1.345E-09   -1.485E-09   -1.623E-09   -1.759E-09   -1.893E-09   -2.024E-09   -2.154E-09
    -2.281E-09   -2.405E-09   -2.527E-09   -2.646E-09   -2.763E-09   -2.876E-09   -2.987E-09   -3.094E-09   -3.199E-09   -3.300E-09
    -3.398E-09   -3.493E-09   -3.584E-09   -3.672E-09   -3.756E-09   -3.836E-09   -3.912E-09   -3.985E-09   -4.054E-09   -4.119E-09
    -4.180E-09   -4.238E-09   -4.291E-09   -4.342E-09   -4.389E-09   -4.432E-09   -4.472E-09   -4.510E-09   -4.544E-09   -4.574E-09
    -4.603E-09   -4.628E-09   -4.650E-09   -4.670E-09   -4.687E-09   -4.702E-09   -4.714E-09   -4.724E-09   -4.731E-09   -4.737E-09
    -4.740E-09   -4.741E-09   -4.741E-09   -4.738E-09   -4.734E-09   -4.728E-09   -4.721E-09   -4.712E-09   -4.701E-09   -4.689E-09
    -4.676E-09   -4.662E-09   -4.647E-09   -4.630E-09   -4.613E-09   -4.595E-09   -4.576E-09   -4.556E-09   -4.535E-09   -4.514E-09
    -4.493E-09   -4.471E-09   -4.448E-09   -4.426E-09   -4.403E-09   -4.379E-09   -4.356E-09   -4.333E-09   -4.310E-09   -4.286E-09
    -4.263E-09   -4.240E-09   -4.218E-09   -4.195E-09   -4.174E-09   -4.152E-09   -4.131E-09   -4.111E-09   -4.091E-09   -4.071E-09
    -4.053E-09   -4.035E-09   -4.018E-09   -4.002E-09   -3.986E-09   -3.972E-09   -3.958E-09   -3.946E-09   -3.934E-09   -3.924E-09
    -3.914E-09   -3.906E-09   -3.899E-09   -3.892E-09   -3.887E-09   -3.882E-09   -3.879E-09   -3.876E-09   -3.874E-09   -3.872E-09
    -3.871E-09   -3.871E-09   -3.871E-09   -3.872E-09   -3.873E-09   -3.875E-09   -3.877E-09   -3.879E-09   -3.882E-09   -3.884E-09
    -3.887E-09   -3.890E-09   -3.894E-09   -3.897E-09   -3.900E-09   -3.903E-09   -3.906E-09   -3.909E-09   -3.912E-09   -3.914E-09
    -3.917E-09   -3.919E-09   -3.921E-09   -3.922E-09   -3.923E-09   -3.923E-09   -3.924E-09   -3.923E-09   -3.922E-09   -3.921E-09
    -3.919E-09   -3.916E-09   -3.913E-09   -3.909E-09   -3.904E-09   -3.899E-09   -3.893E-09   -3.886E-09   -3.878E-09   -3.870E-09
    -3.860E-09   -3.850E-09   -3.839E-09   -3.827E-09   -3.813E-09   -3.799E-09   -3.784E-09   -3.768E-09   -3.751E-09   -3.733E-09
    -3.714E-09   -3.694E-09   -3.673E-09   -3.650E-09   -3.627E-09   -3.602E-09   -3.577E-09   -3.550E-09   -3.522E-09   -3.493E-09
    -3.463E-09   -3.431E-09   -3.399E-09
 Asp      Conc. = 8.04E-10
   6.20430E-09  6.14148E-09  6.16028E-09  6.14921E-09  6.16150E-09  6.17982E-09  6.18406E-09  6.27366E-09  6.37416E-09  6.46870E-09
   6.55708E-09  6.64062E-09  6.72045E-09  6.79670E-09  6.86872E-09  6.93809E-09  7.00530E-09  7.07066E-09  7.13441E-09  7.19677E-09
   7.25793E-09  7.31808E-09  7.37738E-09  7.43603E-09  7.49419E-09  7.55212E-09  7.61001E-09  7.66819E-09  7.72699E-09  7.78683E-09
   7.84834E-09  7.91229E-09  7.97985E-09  8.05289E-09  8.13441E-09  8.22979E-09  8.33486E-09  8.40575E-09  8.45275E-09  8.46966E-09
   8.49941E-09  8.57815E-09  8.74223E-09  8.90556E-09  9.10642E-09  9.15716E-09  9.02114E-09  8.88055E-09  8.91775E-09  8.95655E-09
   8.96950E-09  8.93563E-09  8.79264E-09  8.54721E-09  8.33263E-09  8.16733E-09  8.20573E-09  8.26561E-09  8.19835E-09  8.07745E-09
   8.07780E-09  8.07284E-09  8.06965E-09  8.12315E-09  8.15169E-09  8.12629E-09  8.10465E-09  8.11124E-09  8.12511E-09  8.14101E-09
   8.15719E-09  8.17299E-09  8.18818E-09  8.20257E-09  8.21615E-09  8.22887E-09  8.24072E-09  8.25169E-09  8.26176E-09  8.27095E-09
   8.27923E-09  8.28662E-09  8.29309E-09  8.29863E-09  8.30327E-09  8.30694E-09  8.30965E-09  8.31140E-09  8.31215E-09  8.31188E-09
   8.31056E-09  8.30821E-09  8.30474E-09  8.30020E-09  8.29450E-09  8.28763E-09  8.27958E-09  8.27031E-09  8.25978E-09  8.24798E-09
   8.23487E-09  8.22041E-09  8.20457E-09  8.18734E-09  8.16865E-09  8.14849E-09  8.12681E-09  8.10360E-09  8.07882E-09  8.05237E-09
   8.02433E-09  7.99457E-09  7.96307E-09  7.92981E-09  7.89476E-09  7.85786E-09  7.81911E-09  7.77844E-09  7.73580E-09  7.69122E-09
   7.64456E-09  7.59588E-09  7.54507E-09  7.49214E-09  7.43704E-09  7.37971E-09  7.32010E-09  7.25825E-09  7.19406E-09  7.12750E-09
   7.05854E-09  6.98713E-09  6.91326E-09  6.83689E-09  6.75796E-09  6.67642E-09  6.59232E-09  6.50553E-09  6.41608E-09  6.32387E-09
   6.22893E-09  6.13121E-09  6.03068E-09  5.92726E-09  5.82100E-09  5.71183E-09  5.59977E-09  5.48489E-09  5.36731E-09  5.24712E-09
   5.12443E-09  4.99937E-09  4.87204E-09  4.74258E-09  4.61112E-09  4.47784E-09  4.34291E-09  4.20656E-09  4.06909E-09  3.93086E-09
   3.79242E-09  3.65466E-09  3.51907E-09  3.38864E-09  3.27041E-09  3.18589E-09  3.23583E-09  3.61517E-09  3.83813E-09  3.79270E-09
   3.59231E-09  3.36617E-09  3.17206E-09  3.02143E-09  2.91234E-09  2.79043E-09  2.51923E-09  1.95682E-09  1.25252E-09  9.53743E-10
   7.48006E-10  5.68572E-10  3.99998E-10  2.37188E-10  7.79796E-11 -7.86275E-11 -2.33119E-10 -3.85710E-10 -5.36600E-10 -6.85788E-10
  -8.33242E-10 -9.78990E-10 -1.12294E-09 -1.26506E-09 -1.40522E-09 -1.54340E-09 -1.67952E-09 -1.81343E-09 -1.94509E-09 -2.07443E-09
  -2.20134E-09 -2.32573E-09 -2.44751E-09 -2.56659E-09 -2.68292E-09 -2.79635E-09 -2.90684E-09 -3.01429E-09 -3.11864E-09 -3.21973E-09
  -3.31758E-09 -3.41203E-09 -3.50303E-09 -3.59050E-09 -3.67439E-09 -3.75455E-09 -3.83096E-09 -3.90356E-09 -3.97223E-09 -4.03706E-09
  -4.09810E-09 -4.15546E-09 -4.20921E-09 -4.25945E-09 -4.30622E-09 -4.34967E-09 -4.38983E-09 -4.42681E-09 -4.46069E-09 -4.49155E-09
  -4.51949E-09 -4.54458E-09 -4.56691E-09 -4.58656E-09 -4.60363E-09 -4.61819E-09 -4.63034E-09 -4.64014E-09 -4.64769E-09 -4.65307E-09
  -4.65636E-09 -4.65766E-09 -4.65705E-09 -4.65459E-09 -4.65037E-09 -4.64449E-09 -4.63702E-09 -4.62804E-09 -4.61763E-09 -4.60586E-09
  -4.59284E-09 -4.57861E-09 -4.56329E-09 -4.54690E-09 -4.52956E-09 -4.51135E-09 -4.49233E-09 -4.47256E-09 -4.45214E-09 -4.43112E-09
  -4.40958E-09 -4.38761E-09 -4.36526E-09 -4.34260E-09 -4.31969E-09 -4.29661E-09 -4.27344E-09 -4.25021E-09 -4.22700E-09 -4.20388E-09
  -4.18090E-09 -4.15812E-09 -4.13562E-09 -4.11342E-09 -4.09161E-09 -4.07023E-09 -4.04933E-09 -4.02899E-09 -4.00921E-09 -3.99008E-09
  -3.97165E-09 -3.95395E-09 -3.93704E-09 -3.92093E-09 -3.90570E-09 -3.89138E-09 -3.87802E-09 -3.86561E-09 -3.85424E-09 -3.84393E-09
  -3.83469E-09 -3.82655E-09 -3.81944E-09 -3.81332E-09 -3.80813E-09 -3.80383E-09 -3.80036E-09 -3.79768E-09 -3.79572E-09 -3.79446E-09
  -3.79383E-09 -3.79379E-09 -3.79429E-09 -3.79529E-09 -3.79673E-09 -3.79857E-09 -3.80077E-09 -3.80328E-09 -3.80605E-09 -3.80904E-09
  -3.81220E-09 -3.81549E-09 -3.81888E-09 -3.82231E-09 -3.82574E-09 -3.82913E-09 -3.83245E-09 -3.83564E-09 -3.83868E-09 -3.84153E-09
  -3.84414E-09 -3.84646E-09 -3.84849E-09 -3.85016E-09 -3.85146E-09 -3.85232E-09 -3.85275E-09 -3.85269E-09 -3.85211E-09 -3.85097E-09
  -3.84926E-09 -3.84693E-09 -3.84396E-09 -3.84031E-09 -3.83597E-09 -3.83090E-09 -3.82507E-09 -3.81846E-09 -3.81105E-09 -3.80279E-09
  -3.79369E-09 -3.78370E-09 -3.77283E-09 -3.76102E-09 -3.74827E-09 -3.73457E-09 -3.71988E-09 -3.70420E-09 -3.68750E-09 -3.66977E-09
  -3.65100E-09 -3.63116E-09 -3.61026E-09 -3.58827E-09 -3.56518E-09 -3.54098E-09 -3.51568E-09 -3.48924E-09 -3.46167E-09 -3.43296E-09
  -3.40311E-09 -3.37210E-09 -3.33995E-09
 GABA     Conc. = 7.01E-10
   6.39944E-09  6.47029E-09  6.54044E-09  6.60993E-09  6.67879E-09  6.74707E-09  6.81479E-09  6.88200E-09  6.94878E-09  7.01518E-09
   7.08127E-09  7.14718E-09  7.21296E-09  7.27873E-09  7.34468E-09  7.41091E-09  7.47761E-09  7.54522E-09  7.61396E-09  7.68421E-09
   7.75661E-09  7.83186E-09  7.91094E-09  7.99528E-09  8.08681E-09  8.18867E-09  8.30605E-09  8.44797E-09  8.63117E-09  8.84018E-09
   8.90375E-09  9.00034E-09  9.22501E-09  9.26003E-09  9.17433E-09  9.16382E-09  9.12274E-09  9.00015E-09  8.80355E-09  8.58823E-09
   8.43969E-09  8.36791E-09  8.11891E-09  7.92754E-09  8.00488E-09  7.98315E-09  7.89568E-09  7.94335E-09  8.01177E-09  8.08114E-09
   8.14857E-09  8.21381E-09  8.27785E-09  8.34195E-09  8.40720E-09  8.47497E-09  8.54744E-09  8.62754E-09  8.71972E-09  8.83186E-09
   8.97848E-09  9.18590E-09  9.32916E-09  9.37047E-09  9.52784E-09  9.63769E-09  9.56996E-09  9.48878E-09  9.43215E-09  9.34842E-09
   9.20114E-09  8.99626E-09  8.79654E-09  8.69530E-09  8.55703E-09  8.31943E-09  8.30285E-09  8.37037E-09  8.35052E-09  8.40795E-09
   8.51003E-09  8.55736E-09  8.67151E-09  8.84222E-09  8.89904E-09  8.94675E-09  9.04739E-09  9.09877E-09  9.10474E-09  9.07208E-09
   9.00854E-09  8.97532E-09  8.92275E-09  8.75150E-09  8.63454E-09  8.61111E-09  8.47621E-09  8.34630E-09  8.30890E-09  8.25415E-09
   8.19657E-09  8.16164E-09  8.13603E-09  8.11432E-09  8.09396E-09  8.07367E-09  8.05288E-09  8.03127E-09  8.00857E-09  7.98453E-09
   7.95900E-09  7.93172E-09  7.90268E-09  7.87186E-09  7.83924E-09  7.80481E-09  7.76847E-09  7.73013E-09  7.68974E-09  7.64734E-09
   7.60278E-09  7.55614E-09  7.50731E-09  7.45629E-09  7.40303E-09  7.34749E-09  7.28960E-09  7.22941E-09  7.16683E-09  7.10182E-09
   7.03437E-09  6.96440E-09  6.89194E-09  6.81692E-09  6.73931E-09  6.65905E-09  6.57618E-09  6.49058E-09  6.40228E-09  6.31118E-09
   6.21732E-09  6.12064E-09  6.02112E-09  5.91869E-09  5.81336E-09  5.70510E-09  5.59391E-09  5.47988E-09  5.36310E-09  5.24369E-09
   5.12174E-09  4.99738E-09  4.87070E-09  4.74185E-09  4.61096E-09  4.47818E-09  4.34370E-09  4.20770E-09  4.07047E-09  3.93234E-09
   3.79378E-09  3.65559E-09  3.51905E-09  3.38674E-09  3.26464E-09  3.17083E-09  3.18877E-09  3.50241E-09  3.68361E-09  3.62853E-09
   3.43511E-09  3.21756E-09  3.02760E-09  2.87553E-09  2.76040E-09  2.63624E-09  2.38478E-09  1.87856E-09  1.23759E-09  9.53696E-10
   7.54089E-10  5.77991E-10  4.11553E-10  2.50259E-10  9.22105E-11 -6.34626E-11 -2.17170E-10 -3.69085E-10 -5.19376E-10 -6.68024E-10
  -8.14984E-10 -9.60276E-10 -1.10380E-09 -1.24552E-09 -1.38530E-09 -1.52312E-09 -1.65890E-09 -1.79248E-09 -1.92382E-09 -2.05286E-09
  -2.17947E-09 -2.30358E-09 -2.42509E-09 -2.54391E-09 -2.65998E-09 -2.77316E-09 -2.88341E-09 -2.99062E-09 -3.09474E-09 -3.19561E-09
  -3.29325E-09 -3.38750E-09 -3.47829E-09 -3.56557E-09 -3.64926E-09 -3.72924E-09 -3.80547E-09 -3.87789E-09 -3.94639E-09 -4.01105E-09
  -4.07193E-09 -4.12915E-09 -4.18274E-09 -4.23283E-09 -4.27946E-09 -4.32276E-09 -4.36280E-09 -4.39964E-09 -4.43340E-09 -4.46413E-09
