 LCModel (Version 6.3-1R) Copyright: S.W. Provencher.          Ref.: Magn. Reson. Med. 30:672-679 (1993).                
 onepulse 17x24_ftSpec_smooth_lcm
 26 lines in following concentration table = NCONC+1
    Conc.  %SD /Cr+PCr  Metabolite                                         
 3.15E-11 917% 9.8E-02 Ala                                                 
    0.000 999%   0.000 Asp                                                 
    0.000 999%   0.000 Cr                                                  
 1.05E-09  73%   3.287 GABA                                                
 8.00E-10 422%   2.502 Glc                                                 
 1.17E-09  65%   3.657 Gln                                                 
    0.000 999%   0.000 Glu                                                 
 8.79E-10 448%   2.750 Glyc                                                
    0.000 999%   0.000 GPC                                                 
    0.000 999%   0.000 GSH                                                 
 2.37E-10 999%   0.742 Ins                                                 
    0.000 999%   0.000 Lac                                                 
    0.000 999%   0.000 NAAG                                                
 1.04E-09  50%   3.243 NAA                                                 
    0.000 999%   0.000 PCh                                                 
 3.20E-10 100%   1.000 PCr                                                 
 1.81E-09 208%   5.667 PE                                                  
    0.000 999%   0.000 Scyllo                                              
 9.26E-10 437%   2.897 Ser                                                 
 1.69E-10 999%   0.527 Tau                                                 
    0.000 999%   0.000 GPC+PCh                                             
 1.04E-09  29%   3.243 NAA+NAAG                                            
 1.12E-09  53%   3.492 Ins+Glyc                                            
 3.20E-10 100%   1.000 Cr+PCr                                              
 1.17E-09  65%   3.657 Glu+Gln                                             
   6 lines in following misc. output table
  FWHM = 0.101 ppm    S/N =   3                                            
  Data shift = 0.391 ppm                                                   
  Ph:  36 deg      -4.3 deg/ppm                                            
  alphaB,S = 8.8E-01,   5.1E+01                                            
    8 spline knots.   Ns = 5(1)                                            
  ( 6) 4 infls.   ( 3) 1 extrs.                                            
  363 points on ppm-axis = NY
      4.250000     4.238821     4.227641     4.216462     4.205282     4.194103     4.182923     4.171744     4.160564     4.149385
      4.138206     4.127026     4.115847     4.104667     4.093488     4.082308     4.071129     4.059949     4.048770     4.037591
      4.026411     4.015232     4.004052     3.992873     3.981693     3.970514     3.959334     3.948155     3.936975     3.925796
      3.914617     3.903437     3.892258     3.881078     3.869899     3.858719     3.847540     3.836360     3.825181     3.814002
      3.802822     3.791643     3.780463     3.769284     3.758104     3.746925     3.735745     3.724566     3.713387     3.702207
      3.691028     3.679848     3.668669     3.657489     3.646310     3.635130     3.623951     3.612772     3.601592     3.590413
      3.579233     3.568054     3.556874     3.545695     3.534515     3.523336     3.512156     3.500977     3.489798     3.478618
      3.467439     3.456259     3.445080     3.433900     3.422721     3.411541     3.400362     3.389183     3.378003     3.366824
      3.355644     3.344465     3.333285     3.322106     3.310926     3.299747     3.288568     3.277388     3.266209     3.255029
      3.243850     3.232670     3.221491     3.210311     3.199132     3.187953     3.176773     3.165594     3.154414     3.143235
      3.132055     3.120876     3.109696     3.098517     3.087337     3.076158     3.064979     3.053799     3.042620     3.031440
      3.020261     3.009081     2.997902     2.986722     2.975543     2.964364     2.953184     2.942005     2.930825     2.919646
      2.908466     2.897287     2.886107     2.874928     2.863749     2.852569     2.841390     2.830210     2.819031     2.807851
      2.796672     2.785492     2.774313     2.763134     2.751954     2.740775     2.729595     2.718416     2.707236     2.696057
      2.684877     2.673698     2.662519     2.651339     2.640160     2.628980     2.617801     2.606621     2.595442     2.584262
      2.573083     2.561903     2.550724     2.539545     2.528365     2.517186     2.506006     2.494827     2.483647     2.472468
      2.461288     2.450109     2.438930     2.427750     2.416571     2.405391     2.394212     2.383032     2.371853     2.360673
      2.349494     2.338315     2.327135     2.315956     2.304776     2.293597     2.282417     2.271238     2.260058     2.248879
      2.237700     2.226520     2.215341     2.204161     2.192982     2.181802     2.170623     2.159443     2.148264     2.137084
      2.125905     2.114726     2.103546     2.092367     2.081187     2.070008     2.058828     2.047649     2.036469     2.025290
      2.014111     2.002931     1.991752     1.980572     1.969393     1.958213     1.947034     1.935854     1.924675     1.913496
      1.902316     1.891137     1.879957     1.868778     1.857598     1.846419     1.835239     1.824060     1.812881     1.801701
      1.790522     1.779342     1.768163     1.756983     1.745804     1.734624     1.723445     1.712265     1.701086     1.689907
      1.678727     1.667548     1.656368     1.645189     1.634009     1.622830     1.611650     1.600471     1.589292     1.578112
      1.566933     1.555753     1.544574     1.533394     1.522215     1.511035     1.499856     1.488677     1.477497     1.466318
      1.455138     1.443959     1.432779     1.421600     1.410420     1.399241     1.388062     1.376882     1.365703     1.354523
      1.343344     1.332164     1.320985     1.309805     1.298626     1.287446     1.276267     1.265088     1.253908     1.242729
      1.231549     1.220370     1.209190     1.198011     1.186831     1.175652     1.164473     1.153293     1.142114     1.130934
      1.119755     1.108575     1.097396     1.086216     1.075037     1.063858     1.052678     1.041499     1.030319     1.019140
      1.007960     0.996781     0.985601     0.974422     0.963243     0.952063     0.940884     0.929704     0.918525     0.907345
      0.896166     0.884986     0.873807     0.862628     0.851448     0.840269     0.829089     0.817910     0.806730     0.795551
      0.784371     0.773192     0.762012     0.750833     0.739654     0.728474     0.717295     0.706115     0.694936     0.683756
      0.672577     0.661397     0.650218     0.639039     0.627859     0.616680     0.605500     0.594321     0.583141     0.571962
      0.560782     0.549603     0.538424     0.527244     0.516065     0.504885     0.493706     0.482526     0.471347     0.460167
      0.448988     0.437809     0.426629     0.415450     0.404270     0.393091     0.381911     0.370732     0.359552     0.348373
      0.337193     0.326014     0.314835     0.303655     0.292476     0.281296     0.270117     0.258937     0.247758     0.236578
      0.225399     0.214220     0.203040
 NY phased data points follow
   1.32758E-08  1.24254E-08  1.03155E-08  1.05798E-08  9.79617E-09  9.95706E-09  9.36362E-09  1.01437E-08  9.46862E-09  1.03917E-08
   1.04826E-08  1.17440E-08  1.17788E-08  1.12344E-08  1.16949E-08  1.18971E-08  1.05749E-08  1.08133E-08  1.00617E-08  1.04902E-08
   9.98083E-09  1.04557E-08  1.12812E-08  1.12593E-08  1.06700E-08  1.01831E-08  8.98968E-09  1.02209E-08  1.13078E-08  1.28530E-08
   1.39856E-08  1.40242E-08  1.22491E-08  1.19960E-08  1.08311E-08  9.74482E-09  9.51563E-09  9.86875E-09  8.68175E-09  8.83039E-09
   8.16836E-09  8.60746E-09  8.09697E-09  7.70319E-09  7.07240E-09  6.86309E-09  5.98644E-09  6.93986E-09  6.67762E-09  6.93304E-09
   6.65602E-09  6.43962E-09  4.99039E-09  5.80723E-09  5.33218E-09  5.49458E-09  5.52539E-09  5.23535E-09  5.80260E-09  8.08242E-09
   1.04480E-08  1.22373E-08  1.20423E-08  1.15529E-08  1.07620E-08  9.23994E-09  8.21120E-09  8.05395E-09  6.49813E-09  6.55674E-09
   6.14302E-09  5.84974E-09  4.49714E-09  4.67894E-09  4.68706E-09  6.61596E-09  1.02471E-08  1.41955E-08  1.50827E-08  1.53504E-08
   1.43324E-08  1.35407E-08  1.21148E-08  1.22360E-08  1.14716E-08  1.10653E-08  1.05970E-08  1.10576E-08  1.01207E-08  1.01397E-08
   9.12601E-09  8.96680E-09  8.19105E-09  8.44846E-09  7.47700E-09  7.45900E-09  6.35043E-09  7.07037E-09  6.54760E-09  7.62764E-09
   6.63947E-09  6.60404E-09  6.69044E-09  6.41114E-09  6.69741E-09  5.41013E-09  5.02678E-09  4.24687E-09  3.75096E-09  4.29487E-09
   4.39773E-09  5.57599E-09  4.60454E-09  4.64417E-09  5.26921E-09  5.54109E-09  4.94955E-09  6.09747E-09  5.60186E-09  5.21505E-09
   4.76893E-09  4.17907E-09  3.71006E-09  3.59386E-09  3.45289E-09  4.00155E-09  3.43037E-09  3.62326E-09  3.56069E-09  3.99237E-09
   3.84731E-09  4.00582E-09  3.46679E-09  3.42896E-09  2.59258E-09  3.81029E-09  3.48349E-09  4.43659E-09  6.07701E-09  5.72486E-09
   5.44547E-09  5.42183E-09  5.52088E-09  6.05764E-09  6.60987E-09  6.50412E-09  6.40218E-09  6.15494E-09  5.88226E-09  5.82375E-09
   5.65078E-09  5.42276E-09  5.24091E-09  5.44346E-09  5.36395E-09  5.19966E-09  5.14683E-09  5.47880E-09  5.29863E-09  5.17007E-09
   4.70345E-09  4.87729E-09  4.60543E-09  5.02843E-09  5.04571E-09  6.00109E-09  7.69678E-09  1.11526E-08  1.64712E-08  1.86484E-08
   1.80809E-08  1.65054E-08  1.59946E-08  1.47233E-08  1.37476E-08  1.26842E-08  1.19399E-08  1.15465E-08  1.16605E-08  1.05079E-08
   9.50652E-09  9.22633E-09  7.74072E-09  7.77463E-09  6.27242E-09  4.73171E-09  3.62087E-09  2.56462E-09  7.07553E-10 -5.19834E-10
  -2.43130E-09 -5.00789E-09 -5.60753E-09 -7.79673E-09 -9.24610E-09 -1.09705E-08 -1.18562E-08 -1.28174E-08 -1.36904E-08 -1.35730E-08
  -1.42053E-08 -1.36499E-08 -1.26277E-08 -1.21641E-08 -1.01898E-08 -9.01286E-09 -8.05150E-09 -6.63198E-09 -4.89145E-09 -4.30444E-09
  -2.73281E-09 -2.27951E-09 -1.20798E-09 -2.03474E-09 -1.36147E-09 -1.20032E-09 -2.06238E-09 -1.66454E-09 -1.78199E-09 -2.11190E-09
  -2.05676E-09 -1.25608E-09 -1.22300E-09 -1.10188E-09 -9.88776E-10 -8.23347E-10 -1.02593E-09 -1.57400E-09 -1.05663E-09 -1.47290E-09
  -1.51304E-09 -1.74434E-09 -1.54265E-09 -1.18712E-09 -5.12818E-10 -6.01494E-10 -1.13433E-09 -5.00375E-10 -8.60145E-10 -9.27457E-10
  -1.23408E-09 -1.23686E-09 -1.52482E-09 -1.55125E-09 -1.07329E-09 -1.38609E-09 -8.19239E-10 -6.32284E-10 -7.75945E-10 -2.37366E-10
   4.27338E-10 -2.70866E-10  3.28570E-10 -1.82018E-10 -7.97399E-10 -4.69046E-10 -1.08070E-09 -1.20717E-09 -1.52084E-09 -1.55506E-09
  -1.41627E-09 -1.90795E-09 -1.56091E-09 -1.39712E-09 -1.00200E-09 -1.24828E-09 -1.19839E-09 -1.54950E-10 -2.54117E-10  7.30836E-11
   1.28844E-10  6.58844E-11  4.61136E-10  7.92857E-10 -5.23563E-10  6.81907E-10  5.97447E-11  2.32136E-10  1.56642E-11 -1.93273E-10
   5.53943E-11 -1.12683E-09  8.56947E-11 -4.57406E-10 -9.19944E-10 -8.64799E-10 -5.64206E-10 -9.92625E-10 -1.17854E-09 -8.47803E-10
  -1.07194E-09 -8.78276E-10 -8.27344E-10 -9.86575E-10 -9.99426E-10 -1.04026E-09 -9.96980E-10 -1.76283E-09 -8.92425E-10 -9.10172E-10
  -2.08561E-09 -1.19536E-09 -1.13511E-09 -1.28948E-09 -1.22545E-09 -1.44936E-09 -1.08869E-09 -1.15306E-09 -1.23931E-09 -1.35797E-09
  -1.13488E-09 -1.09008E-09 -1.25347E-09 -1.21262E-09 -9.71271E-10 -7.68755E-10 -1.73559E-09 -9.32929E-10 -8.65015E-10 -8.87573E-10
  -1.21009E-09 -4.87176E-10 -1.30228E-09 -7.97543E-10 -1.08085E-09 -5.94381E-10 -1.18089E-09 -5.06957E-10 -1.53766E-09 -4.40832E-10
  -5.67036E-10 -4.66203E-10 -6.33091E-10 -8.12248E-10 -6.75375E-10 -2.97339E-10 -3.50603E-10 -1.35767E-09 -6.73730E-10 -8.57580E-10
  -6.79734E-10 -7.30417E-10 -4.30195E-10 -7.44406E-10 -5.24755E-10 -9.40205E-10 -6.47089E-10 -3.00886E-10 -6.21318E-10 -4.57373E-10
  -7.03004E-10 -4.14408E-10 -7.92435E-10 -2.70167E-10 -1.35443E-10 -6.59844E-12 -6.93702E-10 -3.12117E-10 -7.57477E-11  1.53043E-10
  -1.75216E-10 -1.89355E-10 -8.82369E-11
 NY points of the fit to the data follow
   1.36371E-08  1.24348E-08  1.14132E-08  1.07987E-08  1.02849E-08  9.81498E-09  9.33728E-09  9.06009E-09  9.50792E-09  1.03730E-08
   1.10227E-08  1.13545E-08  1.13921E-08  1.14099E-08  1.16156E-08  1.18165E-08  1.18470E-08  1.14845E-08  1.06080E-08  9.59096E-09
   9.24763E-09  9.55250E-09  1.00504E-08  1.06150E-08  1.10597E-08  1.14379E-08  1.18357E-08  1.20664E-08  1.21347E-08  1.21203E-08
   1.18544E-08  1.15759E-08  1.15911E-08  1.15929E-08  1.11933E-08  1.06906E-08  1.01685E-08  9.73845E-09  9.37157E-09  8.95407E-09
   8.46351E-09  7.91655E-09  7.20288E-09  6.69104E-09  6.61439E-09  6.53590E-09  6.34042E-09  6.22884E-09  6.22842E-09  6.31184E-09
   6.49203E-09  6.69674E-09  6.91245E-09  7.07533E-09  7.28585E-09  7.58188E-09  7.91485E-09  8.37006E-09  8.86842E-09  9.16003E-09
   9.25226E-09  9.31347E-09  9.44901E-09  9.46392E-09  9.49676E-09  9.51451E-09  9.36624E-09  9.04538E-09  8.64565E-09  8.37705E-09
   8.22100E-09  8.08099E-09  7.95183E-09  7.89237E-09  8.00233E-09  8.15840E-09  8.69655E-09  1.05381E-08  1.24739E-08  1.37456E-08
   1.41967E-08  1.39293E-08  1.34081E-08  1.30554E-08  1.26552E-08  1.20007E-08  1.10825E-08  9.65555E-09  8.09092E-09  7.54572E-09
   7.29111E-09  7.13196E-09  6.99229E-09  6.76172E-09  6.54901E-09  6.42552E-09  6.23159E-09  6.03138E-09  5.91945E-09  5.81900E-09
   5.73618E-09  5.67516E-09  5.62190E-09  5.58525E-09  5.55549E-09  5.52412E-09  5.48738E-09  5.44530E-09  5.39861E-09  5.34711E-09
   5.29213E-09  5.24050E-09  5.19866E-09  5.14887E-09  5.09632E-09  5.05569E-09  5.01850E-09  4.98232E-09  4.94629E-09  4.91004E-09
   4.87330E-09  4.83597E-09  4.79790E-09  4.75902E-09  4.71925E-09  4.67854E-09  4.63683E-09  4.59409E-09  4.55029E-09  4.50538E-09
   4.45933E-09  4.41211E-09  4.36371E-09  4.31411E-09  4.26328E-09  4.21120E-09  4.15788E-09  4.10326E-09  4.04737E-09  3.99019E-09
   3.93173E-09  3.87198E-09  3.81094E-09  3.74864E-09  3.68508E-09  3.62029E-09  3.55433E-09  3.48733E-09  3.41942E-09  3.35076E-09
   3.28154E-09  3.21199E-09  3.14240E-09  3.07311E-09  3.00456E-09  2.93737E-09  2.87232E-09  2.81054E-09  2.75367E-09  2.70414E-09
   2.66586E-09  2.64539E-09  2.65462E-09  2.71768E-09  2.89134E-09  3.34638E-09  4.85807E-09  9.59428E-09  1.46265E-08  1.78077E-08
   1.87347E-08  1.81822E-08  1.71392E-08  1.61491E-08  1.51814E-08  1.37383E-08  1.11171E-08  7.10995E-09  3.14210E-09  1.92139E-09
   1.40891E-09  1.10288E-09  8.83446E-10  7.08570E-10  5.59708E-10  4.27446E-10  3.06514E-10  1.93761E-10  8.71453E-11 -1.46338E-11
  -1.12459E-10 -2.06981E-10 -2.98621E-10 -3.87700E-10 -4.74423E-10 -5.58971E-10 -6.41464E-10 -7.21946E-10 -8.00485E-10 -8.77128E-10
  -9.51874E-10 -1.02473E-09 -1.09568E-09 -1.16471E-09 -1.23182E-09 -1.29695E-09 -1.36009E-09 -1.42119E-09 -1.48024E-09 -1.53715E-09
  -1.59193E-09 -1.64449E-09 -1.69481E-09 -1.74285E-09 -1.78855E-09 -1.83184E-09 -1.87270E-09 -1.91107E-09 -1.94690E-09 -1.98022E-09
  -2.01107E-09 -2.03952E-09 -2.06560E-09 -2.08937E-09 -2.11088E-09 -2.13019E-09 -2.14733E-09 -2.16236E-09 -2.17532E-09 -2.18627E-09
  -2.19525E-09 -2.20232E-09 -2.20752E-09 -2.21090E-09 -2.21250E-09 -2.21239E-09 -2.21060E-09 -2.20717E-09 -2.20217E-09 -2.19564E-09
  -2.18762E-09 -2.17817E-09 -2.16733E-09 -2.15515E-09 -2.14166E-09 -2.12694E-09 -2.11102E-09 -2.09395E-09 -2.07577E-09 -2.05654E-09
  -2.03630E-09 -2.01510E-09 -1.99300E-09 -1.97001E-09 -1.94620E-09 -1.92164E-09 -1.89634E-09 -1.87037E-09 -1.84377E-09 -1.81658E-09
  -1.78886E-09 -1.76065E-09 -1.73201E-09 -1.70297E-09 -1.67358E-09 -1.64390E-09 -1.61397E-09 -1.58382E-09 -1.55353E-09 -1.52312E-09
  -1.49265E-09 -1.46216E-09 -1.43171E-09 -1.40133E-09 -1.37109E-09 -1.34101E-09 -1.31115E-09 -1.28157E-09 -1.25229E-09 -1.22337E-09
  -1.19487E-09 -1.16682E-09 -1.13929E-09 -1.11229E-09 -1.08589E-09 -1.06014E-09 -1.03509E-09 -1.01076E-09 -9.87224E-10 -9.64524E-10
  -9.42691E-10 -9.21768E-10 -9.01722E-10 -8.82537E-10 -8.64189E-10 -8.46668E-10 -8.29938E-10 -8.13991E-10 -7.98802E-10 -7.84351E-10
  -7.70621E-10 -7.57586E-10 -7.45234E-10 -7.33539E-10 -7.22477E-10 -7.12033E-10 -7.02190E-10 -6.92928E-10 -6.84217E-10 -6.76042E-10
  -6.68387E-10 -6.61224E-10 -6.54545E-10 -6.48314E-10 -6.42523E-10 -6.37146E-10 -6.32168E-10 -6.27558E-10 -6.23307E-10 -6.19393E-10
  -6.15796E-10 -6.12480E-10 -6.09449E-10 -6.06673E-10 -6.04126E-10 -6.01784E-10 -5.99651E-10 -5.97683E-10 -5.95876E-10 -5.94191E-10
  -5.92627E-10 -5.91153E-10 -5.89744E-10 -5.88388E-10 -5.87071E-10 -5.85761E-10 -5.84447E-10 -5.83096E-10 -5.81708E-10 -5.80230E-10
  -5.78681E-10 -5.77009E-10 -5.75217E-10 -5.73275E-10 -5.71142E-10 -5.68843E-10 -5.66319E-10 -5.63575E-10 -5.60568E-10 -5.57296E-10
  -5.53734E-10 -5.49853E-10 -5.45644E-10 -5.41077E-10 -5.36143E-10 -5.30808E-10 -5.25074E-10 -5.18894E-10 -5.12261E-10 -5.05161E-10
  -4.97558E-10 -4.89443E-10 -4.80805E-10
 NY background values follow
     3.203E-09    3.223E-09    3.244E-09    3.264E-09    3.285E-09    3.306E-09    3.326E-09    3.347E-09    3.368E-09    3.389E-09
     3.410E-09    3.432E-09    3.453E-09    3.474E-09    3.496E-09    3.517E-09    3.538E-09    3.560E-09    3.581E-09    3.602E-09
     3.624E-09    3.645E-09    3.666E-09    3.688E-09    3.709E-09    3.730E-09    3.751E-09    3.772E-09    3.793E-09    3.814E-09
     3.835E-09    3.855E-09    3.876E-09    3.896E-09    3.917E-09    3.937E-09    3.957E-09    3.977E-09    3.996E-09    4.016E-09
     4.035E-09    4.054E-09    4.073E-09    4.092E-09    4.110E-09    4.129E-09    4.147E-09    4.165E-09    4.182E-09    4.200E-09
     4.217E-09    4.233E-09    4.250E-09    4.266E-09    4.282E-09    4.298E-09    4.313E-09    4.328E-09    4.343E-09    4.357E-09
     4.371E-09    4.385E-09    4.398E-09    4.411E-09    4.423E-09    4.435E-09    4.447E-09    4.459E-09    4.469E-09    4.480E-09
     4.490E-09    4.500E-09    4.509E-09    4.518E-09    4.526E-09    4.534E-09    4.541E-09    4.548E-09    4.554E-09    4.559E-09
     4.565E-09    4.569E-09    4.573E-09    4.576E-09    4.579E-09    4.581E-09    4.583E-09    4.583E-09    4.583E-09    4.583E-09
     4.581E-09    4.579E-09    4.576E-09    4.572E-09    4.568E-09    4.563E-09    4.557E-09    4.550E-09    4.542E-09    4.533E-09
     4.524E-09    4.513E-09    4.502E-09    4.489E-09    4.476E-09    4.462E-09    4.447E-09    4.430E-09    4.413E-09    4.395E-09
     4.375E-09    4.355E-09    4.334E-09    4.311E-09    4.287E-09    4.262E-09    4.236E-09    4.209E-09    4.181E-09    4.151E-09
     4.121E-09    4.089E-09    4.056E-09    4.021E-09    3.985E-09    3.948E-09    3.910E-09    3.870E-09    3.829E-09    3.787E-09
     3.743E-09    3.698E-09    3.652E-09    3.604E-09    3.554E-09    3.503E-09    3.451E-09    3.397E-09    3.342E-09    3.285E-09
     3.227E-09    3.167E-09    3.105E-09    3.042E-09    2.977E-09    2.911E-09    2.843E-09    2.774E-09    2.703E-09    2.630E-09
     2.557E-09    2.481E-09    2.405E-09    2.327E-09    2.248E-09    2.169E-09    2.088E-09    2.006E-09    1.923E-09    1.839E-09
     1.754E-09    1.669E-09    1.583E-09    1.496E-09    1.409E-09    1.321E-09    1.233E-09    1.144E-09    1.055E-09    9.656E-10
     8.759E-10    7.860E-10    6.960E-10    6.060E-10    5.159E-10    4.258E-10    3.358E-10    2.460E-10    1.564E-10    6.703E-11
    -2.200E-11   -1.107E-10   -1.989E-10   -2.866E-10   -3.738E-10   -4.604E-10   -5.463E-10   -6.315E-10   -7.160E-10   -7.996E-10
    -8.823E-10   -9.640E-10   -1.045E-09   -1.125E-09   -1.203E-09   -1.280E-09   -1.357E-09   -1.432E-09   -1.505E-09   -1.577E-09
    -1.648E-09   -1.717E-09   -1.785E-09   -1.851E-09   -1.915E-09   -1.977E-09   -2.038E-09   -2.097E-09   -2.154E-09   -2.209E-09
    -2.262E-09   -2.313E-09   -2.362E-09   -2.408E-09   -2.452E-09   -2.494E-09   -2.534E-09   -2.571E-09   -2.606E-09   -2.638E-09
    -2.668E-09   -2.695E-09   -2.720E-09   -2.743E-09   -2.764E-09   -2.782E-09   -2.799E-09   -2.813E-09   -2.825E-09   -2.835E-09
    -2.844E-09   -2.850E-09   -2.855E-09   -2.857E-09   -2.858E-09   -2.858E-09   -2.855E-09   -2.851E-09   -2.846E-09   -2.839E-09
    -2.830E-09   -2.820E-09   -2.809E-09   -2.796E-09   -2.782E-09   -2.767E-09   -2.751E-09   -2.733E-09   -2.714E-09   -2.695E-09
    -2.674E-09   -2.652E-09   -2.630E-09   -2.607E-09   -2.582E-09   -2.557E-09   -2.532E-09   -2.505E-09   -2.478E-09   -2.451E-09
    -2.423E-09   -2.394E-09   -2.365E-09   -2.336E-09   -2.306E-09   -2.276E-09   -2.246E-09   -2.215E-09   -2.185E-09   -2.154E-09
    -2.123E-09   -2.092E-09   -2.062E-09   -2.031E-09   -2.000E-09   -1.970E-09   -1.940E-09   -1.910E-09   -1.880E-09   -1.851E-09
    -1.822E-09   -1.794E-09   -1.766E-09   -1.739E-09   -1.712E-09   -1.686E-09   -1.661E-09   -1.636E-09   -1.612E-09   -1.589E-09
    -1.567E-09   -1.546E-09   -1.526E-09   -1.506E-09   -1.488E-09   -1.470E-09   -1.453E-09   -1.437E-09   -1.421E-09   -1.406E-09
    -1.392E-09   -1.379E-09   -1.366E-09   -1.354E-09   -1.343E-09   -1.332E-09   -1.322E-09   -1.313E-09   -1.304E-09   -1.295E-09
    -1.287E-09   -1.280E-09   -1.273E-09   -1.266E-09   -1.260E-09   -1.255E-09   -1.249E-09   -1.245E-09   -1.240E-09   -1.236E-09
    -1.232E-09   -1.228E-09   -1.225E-09   -1.222E-09   -1.219E-09   -1.217E-09   -1.214E-09   -1.212E-09   -1.210E-09   -1.208E-09
    -1.206E-09   -1.204E-09   -1.203E-09   -1.201E-09   -1.199E-09   -1.198E-09   -1.196E-09   -1.195E-09   -1.193E-09   -1.191E-09
    -1.189E-09   -1.187E-09   -1.185E-09   -1.183E-09   -1.181E-09   -1.178E-09   -1.175E-09   -1.172E-09   -1.169E-09   -1.165E-09
    -1.161E-09   -1.157E-09   -1.153E-09   -1.148E-09   -1.143E-09   -1.137E-09   -1.131E-09   -1.124E-09   -1.117E-09   -1.110E-09
    -1.102E-09   -1.094E-09   -1.085E-09
 Ala      Conc. = 3.15E-11
   3.22690E-09  3.24937E-09  3.27072E-09  3.29147E-09  3.31175E-09  3.33170E-09  3.35085E-09  3.36860E-09  3.38718E-09  3.40674E-09
   3.42444E-09  3.44268E-09  3.46271E-09  3.48235E-09  3.50208E-09  3.52245E-09  3.54316E-09  3.56407E-09  3.58509E-09  3.60619E-09
   3.62733E-09  3.64849E-09  3.66965E-09  3.69079E-09  3.71190E-09  3.73297E-09  3.75399E-09  3.77496E-09  3.79584E-09  3.81665E-09
   3.83736E-09  3.85797E-09  3.87847E-09  3.89886E-09  3.91911E-09  3.93924E-09  3.95922E-09  3.97904E-09  3.99870E-09  4.01819E-09
   4.03751E-09  4.05663E-09  4.07556E-09  4.09429E-09  4.11280E-09  4.13109E-09  4.14916E-09  4.16699E-09  4.18457E-09  4.20190E-09
   4.21896E-09  4.23576E-09  4.25227E-09  4.26850E-09  4.28444E-09  4.30006E-09  4.31538E-09  4.33038E-09  4.34504E-09  4.35937E-09
   4.37336E-09  4.38699E-09  4.40027E-09  4.41317E-09  4.42569E-09  4.43783E-09  4.44958E-09  4.46091E-09  4.47184E-09  4.48236E-09
   4.49244E-09  4.50209E-09  4.51130E-09  4.52005E-09  4.52835E-09  4.53616E-09  4.54348E-09  4.55029E-09  4.55657E-09  4.56232E-09
   4.56750E-09  4.57212E-09  4.57615E-09  4.57958E-09  4.58240E-09  4.58460E-09  4.58615E-09  4.58706E-09  4.58732E-09  4.58691E-09
   4.58584E-09  4.58411E-09  4.58174E-09  4.57876E-09  4.57522E-09  4.57124E-09  4.56705E-09  4.56313E-09  4.56075E-09  4.56432E-09
   4.58140E-09  4.59237E-09  4.59338E-09  4.59940E-09  4.60430E-09  4.60188E-09  4.58973E-09  4.56872E-09  4.54023E-09  4.50458E-09
   4.46357E-09  4.42443E-09  4.39380E-09  4.35410E-09  4.31062E-09  4.27814E-09  4.24836E-09  4.21893E-09  4.18908E-09  4.15849E-09
   4.12695E-09  4.09438E-09  4.06069E-09  4.02584E-09  3.98979E-09  3.95249E-09  3.91392E-09  3.87406E-09  3.83289E-09  3.79038E-09
   3.74652E-09  3.70127E-09  3.65464E-09  3.60660E-09  3.55712E-09  3.50620E-09  3.45382E-09  3.39995E-09  3.34458E-09  3.28770E-09
   3.22929E-09  3.16932E-09  3.10780E-09  3.04469E-09  2.97999E-09  2.91367E-09  2.84574E-09  2.77626E-09  2.70527E-09  2.63284E-09
   2.55902E-09  2.48387E-09  2.40745E-09  2.32982E-09  2.25103E-09  2.17115E-09  2.09023E-09  2.00833E-09  1.92553E-09  1.84187E-09
   1.75744E-09  1.67231E-09  1.58659E-09  1.50043E-09  1.41409E-09  1.32831E-09  1.24625E-09  1.17579E-09  1.10572E-09  1.02827E-09
   9.42182E-10  8.50501E-10  7.56961E-10  6.63571E-10  5.70214E-10  4.75028E-10  3.75446E-10  2.70878E-10  1.66977E-10  7.36286E-11
  -1.69434E-11 -1.06403E-10 -1.95132E-10 -2.83198E-10 -3.70626E-10 -4.57394E-10 -5.43459E-10 -6.28759E-10 -7.13283E-10 -7.96958E-10
  -8.79720E-10 -9.61540E-10 -1.04235E-09 -1.12209E-09 -1.20071E-09 -1.27814E-09 -1.35436E-09 -1.42927E-09 -1.50283E-09 -1.57500E-09
  -1.64570E-09 -1.71489E-09 -1.78250E-09 -1.84848E-09 -1.91277E-09 -1.97531E-09 -2.03605E-09 -2.09494E-09 -2.15192E-09 -2.20690E-09
  -2.25988E-09 -2.31076E-09 -2.35949E-09 -2.40603E-09 -2.45032E-09 -2.49228E-09 -2.53187E-09 -2.56904E-09 -2.60373E-09 -2.63596E-09
  -2.66577E-09 -2.69323E-09 -2.71837E-09 -2.74123E-09 -2.76187E-09 -2.78034E-09 -2.79667E-09 -2.81092E-09 -2.82314E-09 -2.83337E-09
  -2.84166E-09 -2.84805E-09 -2.85259E-09 -2.85534E-09 -2.85633E-09 -2.85561E-09 -2.85324E-09 -2.84926E-09 -2.84371E-09 -2.83664E-09
  -2.82809E-09 -2.81814E-09 -2.80680E-09 -2.79413E-09 -2.78017E-09 -2.76498E-09 -2.74860E-09 -2.73109E-09 -2.71247E-09 -2.69281E-09
  -2.67215E-09 -2.65053E-09 -2.62803E-09 -2.60464E-09 -2.58044E-09 -2.55549E-09 -2.52981E-09 -2.50346E-09 -2.47649E-09 -2.44893E-09
  -2.42085E-09 -2.39229E-09 -2.36330E-09 -2.33391E-09 -2.30418E-09 -2.27415E-09 -2.24389E-09 -2.21341E-09 -2.18279E-09 -2.15206E-09
  -2.12126E-09 -2.09045E-09 -2.05969E-09 -2.02899E-09 -1.99844E-09 -1.96805E-09 -1.93789E-09 -1.90800E-09 -1.87842E-09 -1.84920E-09
  -1.82040E-09 -1.79206E-09 -1.76423E-09 -1.73694E-09 -1.71025E-09 -1.68421E-09 -1.65887E-09 -1.63425E-09 -1.61043E-09 -1.58744E-09
  -1.56533E-09 -1.54412E-09 -1.52379E-09 -1.50433E-09 -1.48570E-09 -1.46790E-09 -1.45089E-09 -1.43467E-09 -1.41920E-09 -1.40447E-09
  -1.39047E-09 -1.37716E-09 -1.36453E-09 -1.35256E-09 -1.34122E-09 -1.33051E-09 -1.32039E-09 -1.31085E-09 -1.30187E-09 -1.29342E-09
  -1.28549E-09 -1.27806E-09 -1.27110E-09 -1.26460E-09 -1.25854E-09 -1.25288E-09 -1.24763E-09 -1.24275E-09 -1.23822E-09 -1.23403E-09
  -1.23016E-09 -1.22657E-09 -1.22326E-09 -1.22021E-09 -1.21739E-09 -1.21477E-09 -1.21236E-09 -1.21011E-09 -1.20803E-09 -1.20606E-09
  -1.20422E-09 -1.20246E-09 -1.20077E-09 -1.19914E-09 -1.19754E-09 -1.19594E-09 -1.19434E-09 -1.19271E-09 -1.19103E-09 -1.18927E-09
  -1.18743E-09 -1.18547E-09 -1.18339E-09 -1.18115E-09 -1.17873E-09 -1.17614E-09 -1.17332E-09 -1.17028E-09 -1.16697E-09 -1.16340E-09
  -1.15954E-09 -1.15536E-09 -1.15085E-09 -1.14598E-09 -1.14074E-09 -1.13510E-09 -1.12905E-09 -1.12257E-09 -1.11562E-09 -1.10821E-09
  -1.10029E-09 -1.09186E-09 -1.08291E-09
 GABA     Conc. = 1.05E-09
   3.31327E-09  3.33491E-09  3.35680E-09  3.37893E-09  3.40131E-09  3.42394E-09  3.44684E-09  3.47002E-09  3.49349E-09  3.51730E-09
   3.54146E-09  3.56602E-09  3.59106E-09  3.61657E-09  3.64272E-09  3.66956E-09  3.69709E-09  3.72561E-09  3.75536E-09  3.78653E-09
   3.81959E-09  3.85514E-09  3.89404E-09  3.93763E-09  3.98793E-09  4.04834E-09  4.12540E-09  4.23285E-09  4.40714E-09  4.73420E-09
   5.00398E-09  5.20005E-09  5.59836E-09  5.99796E-09  6.21657E-09  6.39420E-09  6.51788E-09  6.54324E-09  6.44000E-09  6.22649E-09
   5.98531E-09  5.79606E-09  5.46737E-09  5.10613E-09  4.97586E-09  4.83922E-09  4.63687E-09  4.54585E-09  4.50794E-09  4.49396E-09
   4.49356E-09  4.50181E-09  4.51646E-09  4.53671E-09  4.56234E-09  4.59383E-09  4.63263E-09  4.68143E-09  4.74528E-09  4.83430E-09
   4.97195E-09  5.22605E-09  5.56260E-09  5.80241E-09  6.08255E-09  6.44485E-09  6.67282E-09  6.75798E-09  6.77134E-09  6.71681E-09
   6.57874E-09  6.34937E-09  6.06873E-09  5.82564E-09  5.58816E-09  5.26471E-09  5.07949E-09  5.03476E-09  4.94259E-09  4.90872E-09
   4.98657E-09  5.03688E-09  5.11604E-09  5.32697E-09  5.50294E-09  5.62990E-09  5.80668E-09  5.96716E-09  6.07129E-09  6.11519E-09
   6.09895E-09  6.07271E-09  6.01900E-09  5.84940E-09  5.68259E-09  5.59435E-09  5.42776E-09  5.24859E-09  5.15121E-09  5.05536E-09
   4.96039E-09  4.89056E-09  4.83596E-09  4.79068E-09  4.75129E-09  4.71570E-09  4.68271E-09  4.65156E-09  4.62166E-09  4.59256E-09
   4.56384E-09  4.53513E-09  4.50625E-09  4.47709E-09  4.44753E-09  4.41749E-09  4.38683E-09  4.35544E-09  4.32324E-09  4.29019E-09
   4.25620E-09  4.22128E-09  4.18534E-09  4.14836E-09  4.11029E-09  4.07109E-09  4.03073E-09  3.98920E-09  3.94645E-09  3.90246E-09
   3.85721E-09  3.81066E-09  3.76280E-09  3.71361E-09  3.66307E-09  3.61114E-09  3.55783E-09  3.50309E-09  3.44691E-09  3.38928E-09
   3.33018E-09  3.26959E-09  3.20750E-09  3.14388E-09  3.07873E-09  3.01203E-09  2.94380E-09  2.87408E-09  2.80296E-09  2.73048E-09
   2.65673E-09  2.58178E-09  2.50570E-09  2.42861E-09  2.35060E-09  2.27179E-09  2.19233E-09  2.11240E-09  2.03227E-09  1.95229E-09
   1.87301E-09  1.79532E-09  1.72082E-09  1.65278E-09  1.59896E-09  1.58349E-09  1.72146E-09  2.24285E-09  2.77480E-09  3.06874E-09
   3.08896E-09  2.93618E-09  2.72966E-09  2.53088E-09  2.33099E-09  2.06520E-09  1.64866E-09  1.06828E-09  5.21107E-10  3.04914E-10
   1.65484E-10  5.00581E-11 -5.47207E-11 -1.53650E-10 -2.48894E-10 -3.41539E-10 -4.32172E-10 -5.21120E-10 -6.08620E-10 -6.94767E-10
  -7.79613E-10 -8.63215E-10 -9.45562E-10 -1.02665E-09 -1.10645E-09 -1.18494E-09 -1.26210E-09 -1.33786E-09 -1.41218E-09 -1.48505E-09
  -1.55639E-09 -1.62616E-09 -1.69431E-09 -1.76079E-09 -1.82555E-09 -1.88852E-09 -1.94967E-09 -2.00894E-09 -2.06628E-09 -2.12160E-09
  -2.17489E-09 -2.22607E-09 -2.27509E-09 -2.32190E-09 -2.36645E-09 -2.40866E-09 -2.44849E-09 -2.48589E-09 -2.52079E-09 -2.55323E-09
  -2.58325E-09 -2.61090E-09 -2.63622E-09 -2.65926E-09 -2.68007E-09 -2.69871E-09 -2.71520E-09 -2.72961E-09 -2.74198E-09 -2.75235E-09
