 LCModel (Version 6.3-1R) Copyright: S.W. Provencher.          Ref.: Magn. Reson. Med. 30:672-679 (1993).                
 onepulse 17x23_ftSpec_smooth_lcm
 26 lines in following concentration table = NCONC+1
    Conc.  %SD /Cr+PCr  Metabolite                                         
    0.000 999%   0.000 Ala                                                 
    0.000 999%   0.000 Asp                                                 
 4.38E-10  45%   1.000 Cr                                                  
    0.000 999%   0.000 GABA                                                
    0.000 999%   0.000 Glc                                                 
 1.76E-09  42%   4.007 Gln                                                 
 5.91E-10  99%   1.349 Glu                                                 
 1.33E-09  20%   3.041 Glyc                                                
 2.51E-10  27%   0.572 GPC                                                 
    0.000 999%   0.000 GSH                                                 
    0.000 999%   0.000 Ins                                                 
    0.000 999%   0.000 Lac                                                 
    0.000 999%   0.000 NAAG                                                
 6.44E-10  33%   1.470 NAA                                                 
    0.000 999%   0.000 PCh                                                 
    0.000 999%   0.000 PCr                                                 
    0.000 999%   0.000 PE                                                  
 3.19E-10  30%   0.728 Scyllo                                              
 2.26E-09  21%   5.165 Ser                                                 
    0.000 999%   0.000 Tau                                                 
 2.51E-10  27%   0.572 GPC+PCh                                             
 6.44E-10  33%   1.470 NAA+NAAG                                            
 1.33E-09  20%   3.041 Ins+Glyc                                            
 4.38E-10  45%   1.000 Cr+PCr                                              
 2.35E-09  20%   5.355 Glu+Gln                                             
   6 lines in following misc. output table
  FWHM = 0.089 ppm    S/N =   3                                            
  Data shift = 0.347 ppm                                                   
  Ph: -46 deg     -26.1 deg/ppm                                            
  alphaB,S = 1.8E-01,   4.2E+01                                            
   16 spline knots.   Ns = 5(1)                                            
  ( 9) 4 infls.   ( 5) 1 extrs.                                            
  363 points on ppm-axis = NY
      4.250000     4.238821     4.227641     4.216462     4.205282     4.194103     4.182923     4.171744     4.160564     4.149385
      4.138206     4.127026     4.115847     4.104667     4.093488     4.082308     4.071129     4.059949     4.048770     4.037591
      4.026411     4.015232     4.004052     3.992873     3.981693     3.970514     3.959334     3.948155     3.936975     3.925796
      3.914617     3.903437     3.892258     3.881078     3.869899     3.858719     3.847540     3.836360     3.825181     3.814002
      3.802822     3.791643     3.780463     3.769284     3.758104     3.746925     3.735745     3.724566     3.713387     3.702207
      3.691028     3.679848     3.668669     3.657489     3.646310     3.635130     3.623951     3.612772     3.601592     3.590413
      3.579233     3.568054     3.556874     3.545695     3.534515     3.523336     3.512156     3.500977     3.489798     3.478618
      3.467439     3.456259     3.445080     3.433900     3.422721     3.411541     3.400362     3.389183     3.378003     3.366824
      3.355644     3.344465     3.333285     3.322106     3.310926     3.299747     3.288568     3.277388     3.266209     3.255029
      3.243850     3.232670     3.221491     3.210311     3.199132     3.187953     3.176773     3.165594     3.154414     3.143235
      3.132055     3.120876     3.109696     3.098517     3.087337     3.076158     3.064979     3.053799     3.042620     3.031440
      3.020261     3.009081     2.997902     2.986722     2.975543     2.964364     2.953184     2.942005     2.930825     2.919646
      2.908466     2.897287     2.886107     2.874928     2.863749     2.852569     2.841390     2.830210     2.819031     2.807851
      2.796672     2.785492     2.774313     2.763134     2.751954     2.740775     2.729595     2.718416     2.707236     2.696057
      2.684877     2.673698     2.662519     2.651339     2.640160     2.628980     2.617801     2.606621     2.595442     2.584262
      2.573083     2.561903     2.550724     2.539545     2.528365     2.517186     2.506006     2.494827     2.483647     2.472468
      2.461288     2.450109     2.438930     2.427750     2.416571     2.405391     2.394212     2.383032     2.371853     2.360673
      2.349494     2.338315     2.327135     2.315956     2.304776     2.293597     2.282417     2.271238     2.260058     2.248879
      2.237700     2.226520     2.215341     2.204161     2.192982     2.181802     2.170623     2.159443     2.148264     2.137084
      2.125905     2.114726     2.103546     2.092367     2.081187     2.070008     2.058828     2.047649     2.036469     2.025290
      2.014111     2.002931     1.991752     1.980572     1.969393     1.958213     1.947034     1.935854     1.924675     1.913496
      1.902316     1.891137     1.879957     1.868778     1.857598     1.846419     1.835239     1.824060     1.812881     1.801701
      1.790522     1.779342     1.768163     1.756983     1.745804     1.734624     1.723445     1.712265     1.701086     1.689907
      1.678727     1.667548     1.656368     1.645189     1.634009     1.622830     1.611650     1.600471     1.589292     1.578112
      1.566933     1.555753     1.544574     1.533394     1.522215     1.511035     1.499856     1.488677     1.477497     1.466318
      1.455138     1.443959     1.432779     1.421600     1.410420     1.399241     1.388062     1.376882     1.365703     1.354523
      1.343344     1.332164     1.320985     1.309805     1.298626     1.287446     1.276267     1.265088     1.253908     1.242729
      1.231549     1.220370     1.209190     1.198011     1.186831     1.175652     1.164473     1.153293     1.142114     1.130934
      1.119755     1.108575     1.097396     1.086216     1.075037     1.063858     1.052678     1.041499     1.030319     1.019140
      1.007960     0.996781     0.985601     0.974422     0.963243     0.952063     0.940884     0.929704     0.918525     0.907345
      0.896166     0.884986     0.873807     0.862628     0.851448     0.840269     0.829089     0.817910     0.806730     0.795551
      0.784371     0.773192     0.762012     0.750833     0.739654     0.728474     0.717295     0.706115     0.694936     0.683756
      0.672577     0.661397     0.650218     0.639039     0.627859     0.616680     0.605500     0.594321     0.583141     0.571962
      0.560782     0.549603     0.538424     0.527244     0.516065     0.504885     0.493706     0.482526     0.471347     0.460167
      0.448988     0.437809     0.426629     0.415450     0.404270     0.393091     0.381911     0.370732     0.359552     0.348373
      0.337193     0.326014     0.314835     0.303655     0.292476     0.281296     0.270117     0.258937     0.247758     0.236578
      0.225399     0.214220     0.203040
 NY phased data points follow
   1.62714E-08  1.57051E-08  1.42260E-08  1.09226E-08  1.03757E-08  7.99936E-09  8.18293E-09  8.21176E-09  8.24418E-09  8.06889E-09
   8.68089E-09  8.88277E-09  8.90434E-09  9.44556E-09  9.48439E-09  1.00156E-08  8.81530E-09  8.39788E-09  8.82439E-09  7.05855E-09
   7.20602E-09  7.36611E-09  7.12392E-09  7.22499E-09  7.04084E-09  7.79614E-09  7.98681E-09  7.28956E-09  7.07935E-09  5.94224E-09
   6.68038E-09  8.17099E-09  9.03085E-09  9.14094E-09  8.66630E-09  6.49536E-09  5.18069E-09  4.81682E-09  3.35906E-09  3.09185E-09
   3.78971E-09  3.32845E-09  3.22894E-09  3.05851E-09  3.41070E-09  3.59032E-09  2.80026E-09  2.65036E-09  2.52784E-09  2.81913E-09
   2.93706E-09  3.69344E-09  3.59760E-09  3.71563E-09  3.79973E-09  2.98731E-09  3.21644E-09  4.15065E-09  3.93424E-09  4.82034E-09
   5.08156E-09  5.83940E-09  7.46808E-09  9.39265E-09  1.03389E-08  9.77692E-09  7.99146E-09  6.49868E-09  5.45477E-09  3.64699E-09
   3.84925E-09  3.09499E-09  2.96104E-09  3.27282E-09  3.52575E-09  3.18681E-09  3.55099E-09  5.14799E-09  6.45045E-09  9.12891E-09
   1.24660E-08  1.30603E-08  1.16722E-08  1.01147E-08  7.88225E-09  6.35598E-09  5.48340E-09  5.48565E-09  4.68955E-09  4.18699E-09
   4.39582E-09  4.22791E-09  3.33138E-09  3.15552E-09  2.35493E-09  2.00132E-09  2.28435E-09  1.87589E-09  1.61756E-09  1.34606E-09
   1.37220E-09  2.35165E-09  1.42710E-09  2.44804E-09  1.39151E-09  1.77316E-09  1.75201E-09  1.44744E-09  1.51954E-09  3.60220E-10
   5.67461E-10  1.30292E-10  4.84472E-10  9.61403E-10  1.66571E-09  2.14742E-09  1.30581E-09  1.79511E-09  2.44089E-09  2.03736E-09
   1.88391E-09  2.59381E-09  1.96034E-09  1.52171E-09  1.15116E-09  6.25896E-10  7.23023E-10  6.60183E-10  1.08660E-09  1.55054E-09
   1.00140E-09  1.41621E-09  1.87765E-09  1.98577E-09  1.89750E-09  1.62072E-09  1.57895E-09  1.46799E-09  1.37262E-09  2.85999E-09
   2.28843E-09  4.07958E-09  4.44150E-09  3.75043E-09  3.34965E-09  3.49712E-09  3.76931E-09  4.21259E-09  4.39655E-09  4.21715E-09
   3.87947E-09  3.61439E-09  3.47965E-09  3.44808E-09  3.38078E-09  3.04844E-09  3.17389E-09  3.51612E-09  3.48560E-09  3.30818E-09
   3.48697E-09  3.78426E-09  3.68019E-09  3.58693E-09  3.48806E-09  4.00569E-09  4.19408E-09  4.81186E-09  5.48908E-09  7.37692E-09
   9.36710E-09  1.28030E-08  1.63723E-08  1.59885E-08  1.38987E-08  1.13916E-08  1.01339E-08  8.72244E-09  7.72536E-09  6.45871E-09
   6.05172E-09  5.32828E-09  5.34993E-09  3.67317E-09  3.46851E-09  2.46665E-09  1.28182E-09  1.39948E-09 -4.93583E-10 -1.47771E-09
  -2.15901E-09 -3.15892E-09 -4.74837E-09 -5.41902E-09 -7.39918E-09 -8.64922E-09 -9.03040E-09 -1.08226E-08 -1.15598E-08 -1.23671E-08
  -1.26779E-08 -1.33255E-08 -1.34344E-08 -1.27603E-08 -1.30888E-08 -1.19445E-08 -1.08350E-08 -1.01994E-08 -8.18593E-09 -7.27618E-09
  -6.45091E-09 -5.16464E-09 -3.63312E-09 -3.08937E-09 -1.54537E-09 -1.41512E-09 -7.95285E-10 -1.61986E-09 -8.58082E-10 -1.04068E-09
  -1.62543E-09 -1.34805E-09 -1.39673E-09 -1.88488E-09 -1.77320E-09 -8.53128E-10 -1.04279E-09 -7.05841E-10 -1.03867E-09 -4.82586E-10
  -8.81789E-10 -1.55866E-09 -7.28100E-10 -1.47400E-09 -1.37667E-09 -1.64187E-09 -1.06343E-09 -8.63327E-10 -2.96007E-10 -5.02025E-10
  -9.97764E-10 -2.89977E-10 -8.44586E-10 -8.01274E-10 -1.35111E-09 -8.33993E-10 -1.20521E-09 -1.44150E-09 -7.78758E-10 -1.23349E-09
  -4.05484E-10 -4.23342E-10 -5.85935E-10  1.02050E-10  6.44138E-10 -4.33575E-10  2.97431E-10 -4.46537E-10 -7.50576E-10 -2.94427E-10
  -9.56758E-10 -1.13846E-09 -9.77240E-10 -1.33645E-09 -1.21958E-09 -1.67671E-09 -1.23892E-09 -9.72671E-10 -7.84222E-10 -9.86225E-10
  -6.72454E-10  7.54235E-11 -1.84041E-10  5.42513E-11  4.36190E-10  9.68679E-11  4.51619E-10  6.19132E-10 -2.46984E-10  6.48213E-10
   3.07892E-10  2.12408E-10  7.64381E-11 -1.64065E-10 -1.44691E-11 -8.90233E-10  3.21046E-10 -3.66092E-10 -8.64795E-10 -7.55022E-10
  -3.43596E-10 -7.36979E-10 -1.09272E-09 -6.76842E-10 -7.64140E-10 -5.23891E-10 -6.93205E-10 -7.41976E-10 -8.50951E-10 -8.94351E-10
  -6.89577E-10 -1.51039E-09 -7.82217E-10 -5.48748E-10 -1.98959E-09 -9.59715E-10 -7.62699E-10 -9.17899E-10 -8.81860E-10 -1.23562E-09
  -5.53919E-10 -1.09643E-09 -1.11991E-09 -1.10013E-09 -5.72100E-10 -8.17838E-10 -1.04862E-09 -1.20985E-09 -8.00754E-10 -4.43212E-10
  -1.58201E-09 -9.31038E-10 -6.83848E-10 -6.60589E-10 -1.13830E-09 -3.90260E-10 -1.09100E-09 -7.52503E-10 -8.40341E-10 -6.17197E-10
  -1.05374E-09 -4.55775E-10 -1.21643E-09 -6.33391E-10 -5.05495E-10 -6.00534E-10 -4.42720E-10 -8.67022E-10 -4.88778E-10 -3.04800E-10
  -1.65740E-10 -1.30936E-09 -5.73060E-10 -8.78681E-10 -7.38993E-10 -6.76337E-10 -2.67994E-10 -7.22089E-10 -6.46383E-10 -1.01580E-09
  -6.47626E-10 -3.93341E-10 -5.46224E-10 -4.90515E-10 -7.58984E-10 -6.00148E-10 -8.66460E-10 -5.25663E-10 -2.32393E-10 -1.74801E-10
  -8.13419E-10 -5.89372E-10 -3.10060E-10
 NY points of the fit to the data follow
   1.59039E-08  1.44920E-08  1.26806E-08  1.13231E-08  1.08170E-08  1.02051E-08  9.34238E-09  8.55665E-09  8.09956E-09  8.25633E-09
   8.51184E-09  8.82611E-09  9.44947E-09  9.76051E-09  9.70247E-09  9.16591E-09  8.53058E-09  8.25603E-09  7.98826E-09  7.17484E-09
   6.32672E-09  6.63665E-09  6.95925E-09  7.10457E-09  7.41258E-09  7.83170E-09  8.25577E-09  8.31764E-09  7.85942E-09  7.68880E-09
   7.48304E-09  7.32693E-09  7.29780E-09  7.11057E-09  6.38816E-09  5.46541E-09  5.38057E-09  5.25508E-09  5.00211E-09  4.73435E-09
   4.41701E-09  3.83185E-09  3.00091E-09  2.63878E-09  2.59066E-09  2.61759E-09  2.66517E-09  2.71336E-09  2.76310E-09  2.80959E-09
   2.87935E-09  2.97994E-09  3.12075E-09  3.27767E-09  3.48931E-09  3.82471E-09  4.24100E-09  4.71686E-09  5.34713E-09  5.99120E-09
   6.52361E-09  6.99147E-09  7.41421E-09  7.62462E-09  7.59746E-09  7.26626E-09  6.78507E-09  6.36309E-09  5.63830E-09  4.71646E-09
   4.28318E-09  4.08228E-09  3.78542E-09  3.73381E-09  4.00260E-09  4.47917E-09  5.15961E-09  6.23487E-09  7.40493E-09  8.55487E-09
   9.62761E-09  1.04123E-08  1.05150E-08  1.00287E-08  9.32193E-09  8.38034E-09  7.21123E-09  5.80301E-09  4.05837E-09  3.28569E-09
   2.91027E-09  2.69117E-09  2.54232E-09  2.43191E-09  2.35336E-09  2.29211E-09  2.24196E-09  2.20337E-09  2.17298E-09  2.14905E-09
   2.13013E-09  2.11510E-09  2.10340E-09  2.09455E-09  2.08816E-09  2.08400E-09  2.08166E-09  2.08095E-09  2.08171E-09  2.08383E-09
   2.08719E-09  2.09170E-09  2.09729E-09  2.10382E-09  2.11113E-09  2.11904E-09  2.12741E-09  2.13607E-09  2.14489E-09  2.15371E-09
   2.16240E-09  2.17083E-09  2.17886E-09  2.18637E-09  2.19322E-09  2.19929E-09  2.20446E-09  2.20861E-09  2.21161E-09  2.21334E-09
   2.21369E-09  2.21255E-09  2.20979E-09  2.20530E-09  2.19897E-09  2.19068E-09  2.18034E-09  2.16783E-09  2.15305E-09  2.13589E-09
   2.11625E-09  2.09408E-09  2.06937E-09  2.04209E-09  2.01221E-09  1.97973E-09  1.94464E-09  1.90695E-09  1.86667E-09  1.82383E-09
   1.77848E-09  1.73070E-09  1.68060E-09  1.62832E-09  1.57409E-09  1.51820E-09  1.46107E-09  1.40330E-09  1.34578E-09  1.28979E-09
   1.23736E-09  1.19175E-09  1.15853E-09  1.14815E-09  1.18289E-09  1.32171E-09  1.79394E-09  3.25955E-09  5.58971E-09  8.29605E-09
   1.12490E-08  1.40179E-08  1.57486E-08  1.59188E-08  1.48983E-08  1.34465E-08  1.15334E-08  8.18514E-09  3.56542E-09  6.62862E-10
  -2.58734E-10 -7.31069E-10 -1.04741E-09 -1.29150E-09 -1.49570E-09 -1.67500E-09 -1.83713E-09 -1.98639E-09 -2.12527E-09 -2.25527E-09
  -2.37727E-09 -2.49177E-09 -2.59901E-09 -2.69906E-09 -2.79190E-09 -2.87740E-09 -2.95551E-09 -3.02646E-09 -3.09052E-09 -3.14795E-09
  -3.19898E-09 -3.24383E-09 -3.28270E-09 -3.31579E-09 -3.34328E-09 -3.36537E-09 -3.38223E-09 -3.39403E-09 -3.40094E-09 -3.40314E-09
  -3.40078E-09 -3.39403E-09 -3.38306E-09 -3.36802E-09 -3.34907E-09 -3.32638E-09 -3.30010E-09 -3.27038E-09 -3.23739E-09 -3.20127E-09
  -3.16219E-09 -3.12030E-09 -3.07575E-09 -3.02869E-09 -2.97930E-09 -2.92771E-09 -2.87409E-09 -2.81859E-09 -2.76138E-09 -2.70261E-09
  -2.64245E-09 -2.58103E-09 -2.51854E-09 -2.45512E-09 -2.39092E-09 -2.32611E-09 -2.26084E-09 -2.19527E-09 -2.12955E-09 -2.06385E-09
  -1.99832E-09 -1.93311E-09 -1.86839E-09 -1.80431E-09 -1.74101E-09 -1.67868E-09 -1.61744E-09 -1.55747E-09 -1.49893E-09 -1.44196E-09
  -1.38672E-09 -1.33337E-09 -1.28199E-09 -1.23256E-09 -1.18504E-09 -1.13942E-09 -1.09565E-09 -1.05373E-09 -1.01361E-09 -9.75274E-10
  -9.38691E-10 -9.03826E-10 -8.70663E-10 -8.39164E-10 -8.09309E-10 -7.81066E-10 -7.54395E-10 -7.29295E-10 -7.05724E-10 -6.83648E-10
  -6.63041E-10 -6.43885E-10 -6.26139E-10 -6.09781E-10 -5.94792E-10 -5.81123E-10 -5.68769E-10 -5.57687E-10 -5.47857E-10 -5.39242E-10
  -5.31808E-10 -5.25507E-10 -5.20287E-10 -5.16096E-10 -5.12893E-10 -5.10618E-10 -5.09231E-10 -5.08675E-10 -5.08902E-10 -5.09867E-10
  -5.11516E-10 -5.13800E-10 -5.16670E-10 -5.20076E-10 -5.23971E-10 -5.28301E-10 -5.33020E-10 -5.38076E-10 -5.43424E-10 -5.49005E-10
  -5.54782E-10 -5.60695E-10 -5.66697E-10 -5.72745E-10 -5.78781E-10 -5.84759E-10 -5.90631E-10 -5.96345E-10 -6.01886E-10 -6.07251E-10
  -6.12437E-10 -6.17442E-10 -6.22266E-10 -6.26904E-10 -6.31355E-10 -6.35617E-10 -6.39688E-10 -6.43565E-10 -6.47248E-10 -6.50731E-10
  -6.54018E-10 -6.57100E-10 -6.59977E-10 -6.62652E-10 -6.65116E-10 -6.67371E-10 -6.69414E-10 -6.71240E-10 -6.72851E-10 -6.74245E-10
  -6.75416E-10 -6.76364E-10 -6.77086E-10 -6.77583E-10 -6.77850E-10 -6.77886E-10 -6.77698E-10 -6.77298E-10 -6.76694E-10 -6.75897E-10
  -6.74917E-10 -6.73763E-10 -6.72446E-10 -6.70976E-10 -6.69364E-10 -6.67617E-10 -6.65750E-10 -6.63769E-10 -6.61686E-10 -6.59510E-10
  -6.57250E-10 -6.54918E-10 -6.52523E-10 -6.50076E-10 -6.47586E-10 -6.45064E-10 -6.42520E-10 -6.39961E-10 -6.37401E-10 -6.34849E-10
  -6.32315E-10 -6.29810E-10 -6.27340E-10
 NY background values follow
     1.363E-09    1.360E-09    1.356E-09    1.352E-09    1.348E-09    1.345E-09    1.341E-09    1.337E-09    1.334E-09    1.330E-09
     1.327E-09    1.323E-09    1.320E-09    1.316E-09    1.313E-09    1.309E-09    1.306E-09    1.302E-09    1.299E-09    1.295E-09
     1.291E-09    1.288E-09    1.284E-09    1.280E-09    1.277E-09    1.273E-09    1.269E-09    1.265E-09    1.261E-09    1.257E-09
     1.253E-09    1.249E-09    1.245E-09    1.240E-09    1.236E-09    1.232E-09    1.228E-09    1.223E-09    1.219E-09    1.215E-09
     1.211E-09    1.207E-09    1.203E-09    1.199E-09    1.195E-09    1.191E-09    1.188E-09    1.184E-09    1.181E-09    1.177E-09
     1.174E-09    1.171E-09    1.168E-09    1.166E-09    1.163E-09    1.161E-09    1.159E-09    1.157E-09    1.155E-09    1.153E-09
     1.152E-09    1.151E-09    1.150E-09    1.149E-09    1.149E-09    1.148E-09    1.148E-09    1.148E-09    1.149E-09    1.149E-09
     1.150E-09    1.150E-09    1.151E-09    1.153E-09    1.154E-09    1.156E-09    1.157E-09    1.159E-09    1.162E-09    1.164E-09
     1.167E-09    1.169E-09    1.172E-09    1.175E-09    1.179E-09    1.182E-09    1.186E-09    1.190E-09    1.194E-09    1.198E-09
     1.203E-09    1.208E-09    1.213E-09    1.218E-09    1.224E-09    1.230E-09    1.236E-09    1.243E-09    1.249E-09    1.257E-09
     1.264E-09    1.272E-09    1.280E-09    1.289E-09    1.298E-09    1.307E-09    1.317E-09    1.327E-09    1.337E-09    1.348E-09
     1.360E-09    1.371E-09    1.384E-09    1.396E-09    1.409E-09    1.422E-09    1.435E-09    1.448E-09    1.461E-09    1.474E-09
     1.486E-09    1.497E-09    1.508E-09    1.518E-09    1.528E-09    1.536E-09    1.543E-09    1.549E-09    1.554E-09    1.557E-09
     1.559E-09    1.559E-09    1.558E-09    1.554E-09    1.549E-09    1.541E-09    1.531E-09    1.519E-09    1.505E-09    1.487E-09
     1.468E-09    1.445E-09    1.420E-09    1.391E-09    1.360E-09    1.327E-09    1.290E-09    1.250E-09    1.207E-09    1.161E-09
     1.112E-09    1.059E-09    1.004E-09    9.449E-10    8.827E-10    8.172E-10    7.483E-10    6.759E-10    6.000E-10    5.206E-10
     4.376E-10    3.510E-10    2.607E-10    1.666E-10    6.885E-11   -3.276E-11   -1.382E-10   -2.476E-10   -3.609E-10   -4.777E-10
    -5.978E-10   -7.208E-10   -8.462E-10   -9.737E-10   -1.103E-09   -1.233E-09   -1.365E-09   -1.497E-09   -1.629E-09   -1.762E-09
    -1.893E-09   -2.024E-09   -2.153E-09   -2.281E-09   -2.407E-09   -2.530E-09   -2.650E-09   -2.767E-09   -2.881E-09   -2.991E-09
    -3.096E-09   -3.197E-09   -3.293E-09   -3.383E-09   -3.467E-09   -3.545E-09   -3.617E-09   -3.682E-09   -3.741E-09   -3.794E-09
    -3.841E-09   -3.882E-09   -3.918E-09   -3.948E-09   -3.973E-09   -3.992E-09   -4.007E-09   -4.017E-09   -4.022E-09   -4.022E-09
    -4.018E-09   -4.010E-09   -3.997E-09   -3.981E-09   -3.961E-09   -3.937E-09   -3.909E-09   -3.878E-09   -3.844E-09   -3.807E-09
    -3.767E-09   -3.724E-09   -3.679E-09   -3.631E-09   -3.581E-09   -3.529E-09   -3.474E-09   -3.418E-09   -3.360E-09   -3.301E-09
    -3.240E-09   -3.178E-09   -3.115E-09   -3.051E-09   -2.986E-09   -2.921E-09   -2.855E-09   -2.789E-09   -2.723E-09   -2.657E-09
    -2.591E-09   -2.525E-09   -2.460E-09   -2.395E-09   -2.331E-09   -2.269E-09   -2.207E-09   -2.147E-09   -2.088E-09   -2.030E-09
    -1.975E-09   -1.921E-09   -1.869E-09   -1.820E-09   -1.772E-09   -1.726E-09   -1.682E-09   -1.639E-09   -1.599E-09   -1.560E-09
    -1.523E-09   -1.488E-09   -1.455E-09   -1.423E-09   -1.393E-09   -1.364E-09   -1.337E-09   -1.312E-09   -1.288E-09   -1.266E-09
    -1.245E-09   -1.225E-09   -1.207E-09   -1.191E-09   -1.175E-09   -1.161E-09   -1.149E-09   -1.137E-09   -1.127E-09   -1.118E-09
    -1.111E-09   -1.104E-09   -1.099E-09   -1.094E-09   -1.091E-09   -1.088E-09   -1.087E-09   -1.086E-09   -1.086E-09   -1.086E-09
    -1.088E-09   -1.090E-09   -1.092E-09   -1.096E-09   -1.099E-09   -1.103E-09   -1.108E-09   -1.113E-09   -1.118E-09   -1.123E-09
    -1.129E-09   -1.134E-09   -1.140E-09   -1.146E-09   -1.152E-09   -1.157E-09   -1.163E-09   -1.168E-09   -1.174E-09   -1.179E-09
    -1.184E-09   -1.188E-09   -1.193E-09   -1.197E-09   -1.202E-09   -1.206E-09   -1.209E-09   -1.213E-09   -1.217E-09   -1.220E-09
    -1.223E-09   -1.226E-09   -1.228E-09   -1.231E-09   -1.233E-09   -1.235E-09   -1.237E-09   -1.238E-09   -1.240E-09   -1.241E-09
    -1.242E-09   -1.242E-09   -1.243E-09   -1.243E-09   -1.243E-09   -1.243E-09   -1.242E-09   -1.242E-09   -1.241E-09   -1.240E-09
    -1.239E-09   -1.237E-09   -1.236E-09   -1.234E-09   -1.232E-09   -1.230E-09   -1.228E-09   -1.226E-09   -1.223E-09   -1.221E-09
    -1.218E-09   -1.216E-09   -1.213E-09   -1.210E-09   -1.207E-09   -1.205E-09   -1.202E-09   -1.199E-09   -1.196E-09   -1.193E-09
    -1.190E-09   -1.188E-09   -1.185E-09
 Cr       Conc. = 4.38E-10
   2.95976E-09  2.68035E-09  2.17950E-09  1.68266E-09  1.55026E-09  1.49578E-09  1.46575E-09  1.44633E-09  1.43245E-09  1.42183E-09
   1.41330E-09  1.40620E-09  1.40013E-09  1.39485E-09  1.39020E-09  1.38608E-09  1.38243E-09  1.37922E-09  1.37646E-09  1.37417E-09
   1.37240E-09  1.37126E-09  1.37090E-09  1.37156E-09  1.37358E-09  1.37757E-09  1.38451E-09  1.39621E-09  1.41643E-09  1.45450E-09
   1.54259E-09  1.83988E-09  2.26994E-09  2.76078E-09  3.29901E-09  3.80328E-09  4.10589E-09  4.12021E-09  3.93161E-09  3.69358E-09
   3.38444E-09  2.78930E-09  1.92539E-09  1.50893E-09  1.38665E-09  1.33115E-09  1.29940E-09  1.27860E-09  1.26371E-09  1.25236E-09
   1.24331E-09  1.23585E-09  1.22956E-09  1.22415E-09  1.21946E-09  1.21534E-09  1.21173E-09  1.20856E-09  1.20579E-09  1.20337E-09
   1.20128E-09  1.19949E-09  1.19798E-09  1.19674E-09  1.19577E-09  1.19504E-09  1.19455E-09  1.19429E-09  1.19427E-09  1.19447E-09
   1.19488E-09  1.19551E-09  1.19636E-09  1.19741E-09  1.19867E-09  1.20014E-09  1.20181E-09  1.20369E-09  1.20576E-09  1.20803E-09
   1.21050E-09  1.21316E-09  1.21602E-09  1.21908E-09  1.22232E-09  1.22576E-09  1.22941E-09  1.23327E-09  1.23736E-09  1.24167E-09
   1.24624E-09  1.25105E-09  1.25612E-09  1.26146E-09  1.26708E-09  1.27298E-09  1.27919E-09  1.28570E-09  1.29252E-09  1.29967E-09
   1.30716E-09  1.31499E-09  1.32317E-09  1.33171E-09  1.34063E-09  1.34992E-09  1.35961E-09  1.36970E-09  1.38019E-09  1.39111E-09
   1.40245E-09  1.41423E-09  1.42644E-09  1.43904E-09  1.45191E-09  1.46493E-09  1.47800E-09  1.49100E-09  1.50381E-09  1.51632E-09
   1.52843E-09  1.54001E-09  1.55095E-09  1.56115E-09  1.57049E-09  1.57885E-09  1.58612E-09  1.59220E-09  1.59697E-09  1.60030E-09
   1.60211E-09  1.60226E-09  1.60064E-09  1.59715E-09  1.59168E-09  1.58410E-09  1.57430E-09  1.56219E-09  1.54763E-09  1.53053E-09
   1.51076E-09  1.48827E-09  1.46302E-09  1.43496E-09  1.40405E-09  1.37024E-09  1.33349E-09  1.29376E-09  1.25101E-09  1.20520E-09
   1.15629E-09  1.10423E-09  1.04901E-09  9.90578E-10  9.28913E-10  8.63990E-10  7.95799E-10  7.24336E-10  6.49625E-10  5.71713E-10
   4.90711E-10  4.06828E-10  3.20486E-10  2.32544E-10  1.45129E-10  6.48885E-11  2.44200E-11  4.69834E-11  9.05607E-11  1.48389E-10
   2.06961E-10  2.21284E-10  1.44698E-10 -1.81868E-11 -2.19799E-10 -4.35275E-10 -7.13944E-10 -1.09974E-09 -1.45724E-09 -1.64852E-09
  -1.80417E-09 -1.94759E-09 -2.08476E-09 -2.21766E-09 -2.34698E-09 -2.47292E-09 -2.59541E-09 -2.71427E-09 -2.82923E-09 -2.94001E-09
  -3.04630E-09 -3.14775E-09 -3.24401E-09 -3.33473E-09 -3.41955E-09 -3.49811E-09 -3.57015E-09 -3.63575E-09 -3.69508E-09 -3.74829E-09
  -3.79554E-09 -3.83698E-09 -3.87277E-09 -3.90305E-09 -3.92799E-09 -3.94773E-09 -3.96243E-09 -3.97224E-09 -3.97731E-09 -3.97779E-09
  -3.97384E-09 -3.96560E-09 -3.95323E-09 -3.93689E-09 -3.91671E-09 -3.89286E-09 -3.86548E-09 -3.83472E-09 -3.80075E-09 -3.76370E-09
  -3.72373E-09 -3.68099E-09 -3.63563E-09 -3.58780E-09 -3.53766E-09 -3.48536E-09 -3.43106E-09 -3.37491E-09 -3.31706E-09 -3.25769E-09
  -3.19693E-09 -3.13495E-09 -3.07191E-09 -3.00795E-09 -2.94323E-09 -2.87792E-09 -2.81217E-09 -2.74613E-09 -2.67994E-09 -2.61380E-09
  -2.54783E-09 -2.48220E-09 -2.41706E-09 -2.35257E-09 -2.28888E-09 -2.22615E-09 -2.16453E-09 -2.10419E-09 -2.04528E-09 -1.98795E-09
  -1.93236E-09 -1.87867E-09 -1.82695E-09 -1.77718E-09 -1.72933E-09 -1.68338E-09 -1.63930E-09 -1.59706E-09 -1.55663E-09 -1.51799E-09
  -1.48110E-09 -1.44594E-09 -1.41248E-09 -1.38069E-09 -1.35055E-09 -1.32202E-09 -1.29507E-09 -1.26969E-09 -1.24584E-09 -1.22349E-09
  -1.20261E-09 -1.18319E-09 -1.16517E-09 -1.14855E-09 -1.13330E-09 -1.11937E-09 -1.10676E-09 -1.09542E-09 -1.08534E-09 -1.07647E-09
  -1.06878E-09 -1.06223E-09 -1.05676E-09 -1.05232E-09 -1.04887E-09 -1.04635E-09 -1.04472E-09 -1.04392E-09 -1.04391E-09 -1.04463E-09
  -1.04604E-09 -1.04808E-09 -1.05071E-09 -1.05388E-09 -1.05754E-09 -1.06163E-09 -1.06611E-09 -1.07093E-09 -1.07604E-09 -1.08139E-09
  -1.08693E-09 -1.09261E-09 -1.09838E-09 -1.10419E-09 -1.10999E-09 -1.11574E-09 -1.12137E-09 -1.12685E-09 -1.13216E-09 -1.13729E-09
  -1.14224E-09 -1.14702E-09 -1.15161E-09 -1.15601E-09 -1.16023E-09 -1.16426E-09 -1.16809E-09 -1.17174E-09 -1.17518E-09 -1.17843E-09
  -1.18148E-09 -1.18433E-09 -1.18697E-09 -1.18941E-09 -1.19164E-09 -1.19365E-09 -1.19546E-09 -1.19705E-09 -1.19842E-09 -1.19957E-09
  -1.20050E-09 -1.20121E-09 -1.20169E-09 -1.20195E-09 -1.20197E-09 -1.20176E-09 -1.20133E-09 -1.20069E-09 -1.19984E-09 -1.19879E-09
  -1.19757E-09 -1.19616E-09 -1.19460E-09 -1.19288E-09 -1.19102E-09 -1.18902E-09 -1.18690E-09 -1.18466E-09 -1.18232E-09 -1.17989E-09
  -1.17737E-09 -1.17478E-09 -1.17213E-09 -1.16942E-09 -1.16667E-09 -1.16388E-09 -1.16107E-09 -1.15825E-09 -1.15542E-09 -1.15260E-09
  -1.14980E-09 -1.14702E-09 -1.14428E-09
 Gln      Conc. = 1.76E-09
   2.51777E-09  2.84645E-09  3.19842E-09  3.55019E-09  3.85488E-09  4.05074E-09  4.09056E-09  3.95569E-09  3.71315E-09  3.47229E-09
   3.07422E-09  2.57591E-09  2.34652E-09  2.04384E-09  1.85385E-09  1.75902E-09  1.70183E-09  1.66301E-09  1.63466E-09  1.61296E-09
   1.59577E-09  1.58181E-09  1.57020E-09  1.56046E-09  1.55244E-09  1.54596E-09  1.54030E-09  1.53543E-09  1.53151E-09  1.52808E-09
   1.52516E-09  1.52275E-09  1.52087E-09  1.51957E-09  1.51885E-09  1.51878E-09  1.51941E-09  1.52081E-09  1.52306E-09  1.52627E-09
   1.53063E-09  1.53628E-09  1.54355E-09  1.55276E-09  1.56425E-09  1.57853E-09  1.59622E-09  1.61786E-09  1.64489E-09  1.67942E-09
   1.72322E-09  1.78066E-09  1.85967E-09  1.97443E-09  2.15943E-09  2.47048E-09  2.83400E-09  3.25969E-09  3.83421E-09  4.41246E-09
   4.85836E-09  5.22131E-09  5.47545E-09  5.52850E-09  5.28665E-09  4.76660E-09  4.19541E-09  3.80794E-09  3.22721E-09  2.53585E-09
   2.26140E-09  2.21183E-09  2.18382E-09  2.32692E-09  2.60229E-09  3.03111E-09  3.48581E-09  3.90639E-09  4.27787E-09  4.56628E-09
   4.75386E-09  4.78901E-09  4.54596E-09  4.22978E-09  3.97488E-09  3.51934E-09  2.99142E-09  2.71838E-09  2.41911E-09  2.14453E-09
   1.98263E-09  1.87632E-09  1.80231E-09  1.74889E-09  1.70776E-09  1.67575E-09  1.65124E-09  1.63221E-09  1.61742E-09  1.60638E-09
   1.59828E-09  1.59239E-09  1.58845E-09  1.58626E-09  1.58571E-09  1.58670E-09  1.58892E-09  1.59226E-09  1.59665E-09  1.60202E-09
   1.60831E-09  1.61547E-09  1.62346E-09  1.63218E-09  1.64147E-09  1.65119E-09  1.66120E-09  1.67136E-09  1.68154E-09  1.69161E-09
   1.70144E-09  1.71089E-09  1.71985E-09  1.72819E-09  1.73579E-09  1.74252E-09  1.74827E-09  1.75291E-09  1.75633E-09  1.75841E-09
   1.75902E-09  1.75806E-09  1.75540E-09  1.75093E-09  1.74453E-09  1.73609E-09  1.72549E-09  1.71263E-09  1.69738E-09  1.67964E-09
   1.65928E-09  1.63627E-09  1.61054E-09  1.58206E-09  1.55079E-09  1.51668E-09  1.47970E-09  1.43982E-09  1.39699E-09  1.35119E-09
   1.30239E-09  1.25057E-09  1.19572E-09  1.13782E-09  1.07688E-09  1.01292E-09  9.46002E-10  8.76189E-10  8.03622E-10  7.28509E-10
   6.51199E-10  5.72260E-10  4.92676E-10  4.14223E-10  3.40524E-10  2.80100E-10  2.59255E-10  4.03902E-10  8.16230E-10  1.32618E-09
   1.90461E-09  2.49841E-09  2.92888E-09  3.00528E-09  2.73985E-09  2.32000E-09  1.84976E-09  1.13656E-09 -3.80207E-12 -1.05402E-09
  -1.42953E-09 -1.65914E-09 -1.84092E-09 -2.00066E-09 -2.14773E-09 -2.28615E-09 -2.41785E-09 -2.54374E-09 -2.66423E-09 -2.77946E-09
  -2.88938E-09 -2.99386E-09 -3.09269E-09 -3.18559E-09 -3.27230E-09 -3.35251E-09 -3.42599E-09 -3.49288E-09 -3.55336E-09 -3.60760E-09
  -3.65578E-09 -3.69807E-09 -3.73462E-09 -3.76562E-09 -3.79120E-09 -3.81155E-09 -3.82680E-09 -3.83713E-09 -3.84268E-09 -3.84362E-09
  -3.84010E-09 -3.83226E-09 -3.82027E-09 -3.80428E-09 -3.78444E-09 -3.76091E-09 -3.73384E-09 -3.70338E-09 -3.66968E-09 -3.63290E-09
  -3.59318E-09 -3.55069E-09 -3.50556E-09 -3.45796E-09 -3.40804E-09 -3.35595E-09 -3.30185E-09 -3.24590E-09 -3.18824E-09 -3.12905E-09
