 LCModel (Version 6.3-1R) Copyright: S.W. Provencher.          Ref.: Magn. Reson. Med. 30:672-679 (1993).                
 onepulse 17x25_ftSpec_smooth_lcm
 26 lines in following concentration table = NCONC+1
    Conc.  %SD /Cr+PCr  Metabolite                                         
    0.000 999%   0.000 Ala                                                 
    0.000 999%   0.000 Asp                                                 
    0.000 999%   0.000 Cr                                                  
    0.000 999%   0.000 GABA                                                
 3.48E-11 999%   0.168 Glc                                                 
 1.71E-09  38%   8.289 Gln                                                 
    0.000 999%   0.000 Glu                                                 
    0.000 999%   0.000 Glyc                                                
 1.84E-10  82%   0.890 GPC                                                 
    0.000 999%   0.000 GSH                                                 
 1.46E-09  35%   7.067 Ins                                                 
    0.000 999%   0.000 Lac                                                 
 3.34E-10 115%   1.617 NAAG                                                
 3.62E-10 141%   1.751 NAA                                                 
    0.000 999%   0.000 PCh                                                 
 2.07E-10 131%   1.000 PCr                                                 
    0.000 999%   0.000 PE                                                  
 1.87E-10 165%   0.905 Scyllo                                              
 4.20E-09  24%  20.323 Ser                                                 
 2.83E-10 419%   1.369 Tau                                                 
 1.84E-10  82%   0.890 GPC+PCh                                             
 6.97E-10  45%   3.367 NAA+NAAG                                            
 1.46E-09  35%   7.067 Ins+Glyc                                            
 2.07E-10 131%   1.000 Cr+PCr                                              
 1.71E-09  38%   8.289 Glu+Gln                                             
   6 lines in following misc. output table
  FWHM = 0.089 ppm    S/N =   3                                            
  Data shift = 0.369 ppm                                                   
  Ph: -44 deg     -37.2 deg/ppm                                            
  alphaB,S = 9.4E-01,   5.1E+01                                            
    8 spline knots.   Ns = 5(1)                                            
  ( 7) 2 infls.   ( 3) 1 extrs.                                            
  363 points on ppm-axis = NY
      4.250000     4.238821     4.227641     4.216462     4.205282     4.194103     4.182923     4.171744     4.160564     4.149385
      4.138206     4.127026     4.115847     4.104667     4.093488     4.082308     4.071129     4.059949     4.048770     4.037591
      4.026411     4.015232     4.004052     3.992873     3.981693     3.970514     3.959334     3.948155     3.936975     3.925796
      3.914617     3.903437     3.892258     3.881078     3.869899     3.858719     3.847540     3.836360     3.825181     3.814002
      3.802822     3.791643     3.780463     3.769284     3.758104     3.746925     3.735745     3.724566     3.713387     3.702207
      3.691028     3.679848     3.668669     3.657489     3.646310     3.635130     3.623951     3.612772     3.601592     3.590413
      3.579233     3.568054     3.556874     3.545695     3.534515     3.523336     3.512156     3.500977     3.489798     3.478618
      3.467439     3.456259     3.445080     3.433900     3.422721     3.411541     3.400362     3.389183     3.378003     3.366824
      3.355644     3.344465     3.333285     3.322106     3.310926     3.299747     3.288568     3.277388     3.266209     3.255029
      3.243850     3.232670     3.221491     3.210311     3.199132     3.187953     3.176773     3.165594     3.154414     3.143235
      3.132055     3.120876     3.109696     3.098517     3.087337     3.076158     3.064979     3.053799     3.042620     3.031440
      3.020261     3.009081     2.997902     2.986722     2.975543     2.964364     2.953184     2.942005     2.930825     2.919646
      2.908466     2.897287     2.886107     2.874928     2.863749     2.852569     2.841390     2.830210     2.819031     2.807851
      2.796672     2.785492     2.774313     2.763134     2.751954     2.740775     2.729595     2.718416     2.707236     2.696057
      2.684877     2.673698     2.662519     2.651339     2.640160     2.628980     2.617801     2.606621     2.595442     2.584262
      2.573083     2.561903     2.550724     2.539545     2.528365     2.517186     2.506006     2.494827     2.483647     2.472468
      2.461288     2.450109     2.438930     2.427750     2.416571     2.405391     2.394212     2.383032     2.371853     2.360673
      2.349494     2.338315     2.327135     2.315956     2.304776     2.293597     2.282417     2.271238     2.260058     2.248879
      2.237700     2.226520     2.215341     2.204161     2.192982     2.181802     2.170623     2.159443     2.148264     2.137084
      2.125905     2.114726     2.103546     2.092367     2.081187     2.070008     2.058828     2.047649     2.036469     2.025290
      2.014111     2.002931     1.991752     1.980572     1.969393     1.958213     1.947034     1.935854     1.924675     1.913496
      1.902316     1.891137     1.879957     1.868778     1.857598     1.846419     1.835239     1.824060     1.812881     1.801701
      1.790522     1.779342     1.768163     1.756983     1.745804     1.734624     1.723445     1.712265     1.701086     1.689907
      1.678727     1.667548     1.656368     1.645189     1.634009     1.622830     1.611650     1.600471     1.589292     1.578112
      1.566933     1.555753     1.544574     1.533394     1.522215     1.511035     1.499856     1.488677     1.477497     1.466318
      1.455138     1.443959     1.432779     1.421600     1.410420     1.399241     1.388062     1.376882     1.365703     1.354523
      1.343344     1.332164     1.320985     1.309805     1.298626     1.287446     1.276267     1.265088     1.253908     1.242729
      1.231549     1.220370     1.209190     1.198011     1.186831     1.175652     1.164473     1.153293     1.142114     1.130934
      1.119755     1.108575     1.097396     1.086216     1.075037     1.063858     1.052678     1.041499     1.030319     1.019140
      1.007960     0.996781     0.985601     0.974422     0.963243     0.952063     0.940884     0.929704     0.918525     0.907345
      0.896166     0.884986     0.873807     0.862628     0.851448     0.840269     0.829089     0.817910     0.806730     0.795551
      0.784371     0.773192     0.762012     0.750833     0.739654     0.728474     0.717295     0.706115     0.694936     0.683756
      0.672577     0.661397     0.650218     0.639039     0.627859     0.616680     0.605500     0.594321     0.583141     0.571962
      0.560782     0.549603     0.538424     0.527244     0.516065     0.504885     0.493706     0.482526     0.471347     0.460167
      0.448988     0.437809     0.426629     0.415450     0.404270     0.393091     0.381911     0.370732     0.359552     0.348373
      0.337193     0.326014     0.314835     0.303655     0.292476     0.281296     0.270117     0.258937     0.247758     0.236578
      0.225399     0.214220     0.203040
 NY phased data points follow
   1.50022E-08  1.50496E-08  1.37919E-08  1.35590E-08  1.12681E-08  1.15280E-08  1.05275E-08  1.09846E-08  1.01846E-08  1.11191E-08
   1.02679E-08  1.12399E-08  1.12538E-08  1.28032E-08  1.24644E-08  1.23656E-08  1.22727E-08  1.30803E-08  1.20080E-08  1.20764E-08
   1.08780E-08  1.14375E-08  1.09459E-08  1.18372E-08  1.26481E-08  1.26379E-08  1.16118E-08  1.14707E-08  1.00372E-08  1.14623E-08
   1.23771E-08  1.43269E-08  1.52226E-08  1.55661E-08  1.38360E-08  1.32995E-08  1.22117E-08  1.15023E-08  1.08236E-08  1.16259E-08
   1.02774E-08  1.05801E-08  9.78507E-09  9.98040E-09  9.57093E-09  9.13021E-09  8.52747E-09  8.30171E-09  7.19657E-09  8.34369E-09
   7.97642E-09  8.49798E-09  7.77763E-09  7.77982E-09  6.15688E-09  6.94149E-09  6.43216E-09  6.54195E-09  6.54514E-09  6.09240E-09
   6.23792E-09  8.95805E-09  1.12405E-08  1.33388E-08  1.28255E-08  1.29331E-08  1.15592E-08  1.05255E-08  9.19612E-09  9.46998E-09
   7.70207E-09  7.70876E-09  7.11755E-09  7.03703E-09  5.66423E-09  5.46728E-09  4.97685E-09  7.42013E-09  1.11514E-08  1.55567E-08
   1.64206E-08  1.64970E-08  1.52952E-08  1.50141E-08  1.34961E-08  1.37736E-08  1.28433E-08  1.27671E-08  1.21195E-08  1.25639E-08
   1.14998E-08  1.15957E-08  1.04513E-08  1.08462E-08  9.39359E-09  9.96977E-09  8.72716E-09  8.90959E-09  7.75392E-09  8.05188E-09
   7.69285E-09  9.04654E-09  7.74789E-09  8.04354E-09  7.71225E-09  7.73013E-09  7.84533E-09  6.45682E-09  6.03017E-09  5.18252E-09
   4.40914E-09  5.25248E-09  5.25335E-09  6.45338E-09  5.37110E-09  5.58567E-09  5.99410E-09  6.42718E-09  5.83390E-09  7.20489E-09
   6.40114E-09  6.16375E-09  5.61615E-09  5.02112E-09  4.34470E-09  4.39235E-09  4.20373E-09  4.69539E-09  4.11848E-09  4.49300E-09
   4.05378E-09  4.81874E-09  4.37244E-09  4.79611E-09  4.20038E-09  4.13067E-09  3.42019E-09  4.44834E-09  4.47039E-09  5.43458E-09
   6.96442E-09  6.75471E-09  6.38767E-09  6.61669E-09  6.57322E-09  7.36388E-09  7.87466E-09  7.65893E-09  7.54420E-09  7.39498E-09
   6.95001E-09  6.93693E-09  6.45939E-09  6.63654E-09  6.25971E-09  6.45021E-09  6.23880E-09  6.17965E-09  6.06559E-09  6.51461E-09
   6.32039E-09  6.28741E-09  5.58237E-09  5.93626E-09  5.34123E-09  5.95134E-09  5.91464E-09  6.71221E-09  8.23732E-09  1.25618E-08
   1.78976E-08  2.01436E-08  1.88959E-08  1.73858E-08  1.69028E-08  1.53667E-08  1.40375E-08  1.32032E-08  1.20350E-08  1.17591E-08
   1.14675E-08  1.04468E-08  8.98622E-09  8.61556E-09  6.98640E-09  6.41722E-09  4.85432E-09  3.03795E-09  1.44316E-09  7.19713E-11
  -2.23827E-09 -3.82917E-09 -6.08453E-09 -8.95956E-09 -9.98495E-09 -1.20986E-08 -1.37809E-08 -1.55297E-08 -1.63354E-08 -1.71706E-08
  -1.75351E-08 -1.72525E-08 -1.74598E-08 -1.62538E-08 -1.49561E-08 -1.37118E-08 -1.13662E-08 -9.78256E-09 -8.39786E-09 -6.35180E-09
  -4.84468E-09 -4.01171E-09 -2.80285E-09 -2.37330E-09 -1.36147E-09 -2.41097E-09 -1.67158E-09 -1.82749E-09 -2.63428E-09 -2.15951E-09
  -2.44056E-09 -2.51185E-09 -2.17964E-09 -1.55786E-09 -1.53159E-09 -1.64356E-09 -1.27649E-09 -1.25522E-09 -1.67021E-09 -1.82666E-09
  -1.68505E-09 -1.88714E-09 -1.88144E-09 -2.01730E-09 -1.90631E-09 -1.41218E-09 -7.85989E-10 -1.04279E-09 -1.44003E-09 -9.52211E-10
  -1.26028E-09 -1.31853E-09 -1.42501E-09 -1.80214E-09 -1.97821E-09 -1.69029E-09 -1.41843E-09 -1.39404E-09 -1.18304E-09 -8.20517E-10
  -8.81913E-10 -3.43260E-10 -4.50545E-11 -4.05604E-10  1.17899E-10 -3.79148E-10 -9.96382E-10 -8.48242E-10 -1.47774E-09 -1.47334E-09
  -2.17024E-09 -1.84780E-09 -1.78063E-09 -2.18747E-09 -1.84503E-09 -1.66352E-09 -1.15624E-09 -1.33334E-09 -1.23952E-09 -2.50386E-10
  -1.81479E-10  1.70927E-10 -6.39125E-11  1.69815E-10  5.64955E-10  7.62820E-10 -5.50783E-10  6.93424E-10 -1.71981E-10  9.33888E-11
  -2.99931E-10 -3.16093E-10 -1.95677E-10 -1.29528E-09 -2.17117E-10 -7.31155E-10 -1.07191E-09 -1.04046E-09 -8.67199E-10 -1.37706E-09
  -1.30808E-09 -9.43085E-10 -1.36384E-09 -1.24317E-09 -1.09319E-09 -1.20736E-09 -1.29459E-09 -1.25601E-09 -1.09635E-09 -1.93850E-09
  -9.79948E-10 -1.34660E-09 -1.98836E-09 -1.27780E-09 -1.49439E-09 -1.48732E-09 -1.40170E-09 -1.59864E-09 -1.44966E-09 -1.28460E-09
  -1.29095E-09 -1.46722E-09 -1.33902E-09 -1.28249E-09 -1.27596E-09 -1.06367E-09 -1.04829E-09 -9.51356E-10 -1.59006E-09 -8.02030E-10
  -9.46509E-10 -1.05195E-09 -1.04015E-09 -5.98890E-10 -1.29367E-09 -6.42340E-10 -1.07388E-09 -3.93720E-10 -1.14461E-09 -4.83711E-10
  -1.53708E-09 -9.47637E-11 -6.17676E-10 -3.27803E-10 -5.63107E-10 -6.97744E-10 -7.13963E-10 -1.20629E-10 -3.62785E-10 -1.14004E-09
  -5.09833E-10 -4.68183E-10 -5.38024E-10 -5.52878E-10 -3.97512E-10 -5.09699E-10 -2.48275E-10 -7.05725E-10 -4.72392E-10 -8.69517E-11
  -4.36733E-10 -2.97696E-10 -4.25276E-10 -8.18956E-13 -4.83613E-10  1.78157E-10  4.72596E-11  1.94768E-10 -3.79303E-10  2.24753E-10
   2.21164E-10  3.50046E-10  7.03723E-12
 NY points of the fit to the data follow
   1.30430E-08  1.37109E-08  1.34619E-08  1.29383E-08  1.28599E-08  1.27297E-08  1.21547E-08  1.12519E-08  1.04436E-08  1.01477E-08
   1.02834E-08  1.07034E-08  1.13886E-08  1.20889E-08  1.26753E-08  1.29299E-08  1.29005E-08  1.28405E-08  1.25691E-08  1.18510E-08
   1.11555E-08  1.07429E-08  1.04817E-08  1.02690E-08  1.03846E-08  1.09314E-08  1.17718E-08  1.25821E-08  1.30956E-08  1.32915E-08
   1.35483E-08  1.36799E-08  1.36466E-08  1.33434E-08  1.27579E-08  1.20301E-08  1.15445E-08  1.12073E-08  1.09556E-08  1.07466E-08
   1.05253E-08  1.02224E-08  9.79171E-09  9.32867E-09  9.02831E-09  8.80406E-09  8.61218E-09  8.43172E-09  8.25554E-09  8.09470E-09
   7.94670E-09  7.81627E-09  7.70275E-09  7.59432E-09  7.53487E-09  7.63503E-09  7.83253E-09  8.13132E-09  8.60275E-09  9.17357E-09
   9.73296E-09  1.02705E-08  1.07185E-08  1.10172E-08  1.11044E-08  1.09483E-08  1.06385E-08  1.02488E-08  9.66036E-09  9.06799E-09
   8.67884E-09  8.42483E-09  8.27641E-09  8.26558E-09  8.36787E-09  8.61822E-09  9.12490E-09  1.00225E-08  1.12616E-08  1.26094E-08
   1.38346E-08  1.47453E-08  1.52435E-08  1.55125E-08  1.55330E-08  1.50572E-08  1.41213E-08  1.29249E-08  1.17771E-08  1.09667E-08
   1.04324E-08  1.00322E-08  9.70905E-09  9.43500E-09  9.19310E-09  8.97816E-09  8.78762E-09  8.61381E-09  8.44927E-09  8.29211E-09
   8.14884E-09  8.01776E-09  7.89167E-09  7.76887E-09  7.65236E-09  7.54141E-09  7.43491E-09  7.33210E-09  7.23222E-09  7.13486E-09
   7.03975E-09  6.94648E-09  6.85478E-09  6.76441E-09  6.67514E-09  6.58679E-09  6.49919E-09  6.41217E-09  6.32559E-09  6.23937E-09
   6.15333E-09  6.06743E-09  5.98154E-09  5.89560E-09  5.80952E-09  5.72323E-09  5.63664E-09  5.54976E-09  5.46247E-09  5.37475E-09
   5.28655E-09  5.19779E-09  5.10850E-09  5.01860E-09  4.92805E-09  4.83681E-09  4.74493E-09  4.65230E-09  4.55895E-09  4.46481E-09
   4.36993E-09  4.27427E-09  4.17784E-09  4.08060E-09  3.98261E-09  3.88386E-09  3.78439E-09  3.68430E-09  3.58369E-09  3.48269E-09
   3.38146E-09  3.28017E-09  3.17904E-09  3.07834E-09  2.97841E-09  2.87969E-09  2.78278E-09  2.68848E-09  2.59793E-09  2.51283E-09
   2.43572E-09  2.37082E-09  2.32537E-09  2.31323E-09  2.36457E-09  2.56069E-09  3.22033E-09  5.69350E-09  9.52847E-09  1.37069E-08
   1.72844E-08  1.95836E-08  2.04849E-08  2.02924E-08  1.92215E-08  1.70635E-08  1.34326E-08  8.46695E-09  3.68377E-09  1.78252E-09
   1.07683E-09  6.81113E-10  4.07260E-10  1.94022E-10  1.55060E-11 -1.41087E-10 -2.82779E-10 -4.13710E-10 -5.36555E-10 -6.52991E-10
  -7.64145E-10 -8.70872E-10 -9.73706E-10 -1.07307E-09 -1.16922E-09 -1.26242E-09 -1.35282E-09 -1.44048E-09 -1.52552E-09 -1.60802E-09
  -1.68797E-09 -1.76543E-09 -1.84037E-09 -1.91282E-09 -1.98278E-09 -2.05021E-09 -2.11512E-09 -2.17748E-09 -2.23728E-09 -2.29446E-09
  -2.34905E-09 -2.40098E-09 -2.45024E-09 -2.49680E-09 -2.54065E-09 -2.58172E-09 -2.62001E-09 -2.65551E-09 -2.68816E-09 -2.71802E-09
  -2.74515E-09 -2.76960E-09 -2.79144E-09 -2.81072E-09 -2.82750E-09 -2.84185E-09 -2.85382E-09 -2.86347E-09 -2.87086E-09 -2.87605E-09
  -2.87910E-09 -2.88007E-09 -2.87902E-09 -2.87600E-09 -2.87108E-09 -2.86432E-09 -2.85577E-09 -2.84549E-09 -2.83354E-09 -2.81998E-09
  -2.80487E-09 -2.78827E-09 -2.77023E-09 -2.75081E-09 -2.73007E-09 -2.70806E-09 -2.68485E-09 -2.66048E-09 -2.63503E-09 -2.60852E-09
  -2.58105E-09 -2.55264E-09 -2.52337E-09 -2.49326E-09 -2.46239E-09 -2.43082E-09 -2.39858E-09 -2.36574E-09 -2.33234E-09 -2.29843E-09
  -2.26408E-09 -2.22932E-09 -2.19422E-09 -2.15881E-09 -2.12313E-09 -2.08726E-09 -2.05122E-09 -2.01506E-09 -1.97884E-09 -1.94259E-09
  -1.90636E-09 -1.87019E-09 -1.83412E-09 -1.79820E-09 -1.76246E-09 -1.72695E-09 -1.69170E-09 -1.65676E-09 -1.62215E-09 -1.58792E-09
  -1.55410E-09 -1.52072E-09 -1.48783E-09 -1.45544E-09 -1.42359E-09 -1.39232E-09 -1.36165E-09 -1.33159E-09 -1.30220E-09 -1.27349E-09
  -1.24547E-09 -1.21818E-09 -1.19158E-09 -1.16568E-09 -1.14045E-09 -1.11589E-09 -1.09197E-09 -1.06870E-09 -1.04605E-09 -1.02403E-09
  -1.00260E-09 -9.81771E-10 -9.61524E-10 -9.41846E-10 -9.22725E-10 -9.04153E-10 -8.86122E-10 -8.68619E-10 -8.51631E-10 -8.35149E-10
  -8.19166E-10 -8.03668E-10 -7.88652E-10 -7.74100E-10 -7.60011E-10 -7.46371E-10 -7.33175E-10 -7.20409E-10 -7.08071E-10 -6.96151E-10
  -6.84643E-10 -6.73531E-10 -6.62820E-10 -6.52497E-10 -6.42554E-10 -6.32982E-10 -6.23787E-10 -6.14953E-10 -6.06479E-10 -5.98353E-10
  -5.90579E-10 -5.83146E-10 -5.76049E-10 -5.69287E-10 -5.62857E-10 -5.56753E-10 -5.50972E-10 -5.45510E-10 -5.40369E-10 -5.35536E-10
  -5.31023E-10 -5.26816E-10 -5.22923E-10 -5.19338E-10 -5.16054E-10 -5.13085E-10 -5.10419E-10 -5.08063E-10 -5.06010E-10 -5.04268E-10
  -5.02834E-10 -5.01710E-10 -5.00898E-10 -5.00399E-10 -5.00218E-10 -5.00354E-10 -5.00816E-10 -5.01600E-10 -5.02713E-10 -5.04161E-10
  -5.05944E-10 -5.08070E-10 -5.10545E-10
 NY background values follow
     3.298E-09    3.373E-09    3.446E-09    3.519E-09    3.590E-09    3.660E-09    3.729E-09    3.797E-09    3.863E-09    3.929E-09
     3.993E-09    4.056E-09    4.118E-09    4.179E-09    4.238E-09    4.297E-09    4.354E-09    4.410E-09    4.465E-09    4.519E-09
     4.572E-09    4.623E-09    4.674E-09    4.723E-09    4.771E-09    4.818E-09    4.864E-09    4.909E-09    4.952E-09    4.995E-09
     5.036E-09    5.076E-09    5.115E-09    5.153E-09    5.190E-09    5.225E-09    5.260E-09    5.293E-09    5.326E-09    5.357E-09
     5.387E-09    5.416E-09    5.444E-09    5.471E-09    5.497E-09    5.522E-09    5.546E-09    5.569E-09    5.590E-09    5.611E-09
     5.631E-09    5.649E-09    5.667E-09    5.684E-09    5.699E-09    5.714E-09    5.727E-09    5.740E-09    5.752E-09    5.763E-09
     5.772E-09    5.781E-09    5.789E-09    5.796E-09    5.802E-09    5.808E-09    5.812E-09    5.815E-09    5.818E-09    5.819E-09
     5.820E-09    5.820E-09    5.819E-09    5.818E-09    5.815E-09    5.812E-09    5.808E-09    5.803E-09    5.797E-09    5.790E-09
     5.782E-09    5.774E-09    5.765E-09    5.755E-09    5.744E-09    5.732E-09    5.719E-09    5.705E-09    5.691E-09    5.675E-09
     5.659E-09    5.641E-09    5.623E-09    5.604E-09    5.584E-09    5.563E-09    5.541E-09    5.518E-09    5.494E-09    5.469E-09
     5.442E-09    5.415E-09    5.387E-09    5.358E-09    5.328E-09    5.297E-09    5.265E-09    5.232E-09    5.197E-09    5.162E-09
     5.125E-09    5.087E-09    5.049E-09    5.009E-09    4.968E-09    4.926E-09    4.882E-09    4.838E-09    4.792E-09    4.745E-09
     4.697E-09    4.648E-09    4.597E-09    4.546E-09    4.493E-09    4.439E-09    4.383E-09    4.326E-09    4.268E-09    4.209E-09
     4.149E-09    4.087E-09    4.023E-09    3.959E-09    3.893E-09    3.826E-09    3.758E-09    3.688E-09    3.616E-09    3.544E-09
     3.470E-09    3.395E-09    3.318E-09    3.240E-09    3.160E-09    3.079E-09    2.997E-09    2.913E-09    2.828E-09    2.742E-09
     2.655E-09    2.566E-09    2.476E-09    2.386E-09    2.294E-09    2.202E-09    2.109E-09    2.015E-09    1.920E-09    1.825E-09
     1.729E-09    1.633E-09    1.536E-09    1.439E-09    1.342E-09    1.244E-09    1.146E-09    1.048E-09    9.503E-10    8.523E-10
     7.544E-10    6.566E-10    5.591E-10    4.618E-10    3.649E-10    2.684E-10    1.723E-10    7.682E-11   -1.810E-11   -1.124E-10
    -2.059E-10   -2.986E-10   -3.905E-10   -4.815E-10   -5.715E-10   -6.605E-10   -7.484E-10   -8.350E-10   -9.205E-10   -1.005E-09
    -1.088E-09   -1.169E-09   -1.249E-09   -1.328E-09   -1.404E-09   -1.480E-09   -1.553E-09   -1.625E-09   -1.695E-09   -1.763E-09
    -1.830E-09   -1.894E-09   -1.956E-09   -2.017E-09   -2.075E-09   -2.131E-09   -2.185E-09   -2.236E-09   -2.285E-09   -2.332E-09
    -2.377E-09   -2.419E-09   -2.459E-09   -2.496E-09   -2.530E-09   -2.562E-09   -2.592E-09   -2.619E-09   -2.643E-09   -2.664E-09
    -2.683E-09   -2.699E-09   -2.713E-09   -2.724E-09   -2.733E-09   -2.740E-09   -2.744E-09   -2.746E-09   -2.746E-09   -2.744E-09
    -2.740E-09   -2.734E-09   -2.725E-09   -2.715E-09   -2.704E-09   -2.690E-09   -2.675E-09   -2.658E-09   -2.639E-09   -2.619E-09
    -2.598E-09   -2.575E-09   -2.550E-09   -2.525E-09   -2.498E-09   -2.470E-09   -2.440E-09   -2.410E-09   -2.379E-09   -2.346E-09
    -2.313E-09   -2.279E-09   -2.244E-09   -2.208E-09   -2.172E-09   -2.135E-09   -2.097E-09   -2.059E-09   -2.020E-09   -1.981E-09
    -1.941E-09   -1.901E-09   -1.861E-09   -1.821E-09   -1.780E-09   -1.739E-09   -1.698E-09   -1.657E-09   -1.616E-09   -1.575E-09
    -1.534E-09   -1.493E-09   -1.452E-09   -1.412E-09   -1.371E-09   -1.331E-09   -1.292E-09   -1.252E-09   -1.213E-09   -1.175E-09
    -1.137E-09   -1.099E-09   -1.062E-09   -1.025E-09   -9.892E-10   -9.539E-10   -9.191E-10   -8.850E-10   -8.516E-10   -8.190E-10
    -7.870E-10   -7.558E-10   -7.254E-10   -6.957E-10   -6.667E-10   -6.384E-10   -6.108E-10   -5.838E-10   -5.576E-10   -5.319E-10
    -5.070E-10   -4.826E-10   -4.589E-10   -4.357E-10   -4.132E-10   -3.912E-10   -3.698E-10   -3.490E-10   -3.287E-10   -3.090E-10
    -2.898E-10   -2.711E-10   -2.529E-10   -2.352E-10   -2.181E-10   -2.014E-10   -1.851E-10   -1.694E-10   -1.541E-10   -1.392E-10
    -1.248E-10   -1.108E-10   -9.724E-11   -8.410E-11   -7.136E-11   -5.904E-11   -4.711E-11   -3.558E-11   -2.444E-11   -1.367E-11
    -3.283E-12    6.733E-12    1.638E-11    2.567E-11    3.460E-11    4.317E-11    5.139E-11    5.927E-11    6.680E-11    7.399E-11
     8.083E-11    8.734E-11    9.351E-11    9.934E-11    1.048E-10    1.100E-10    1.148E-10    1.193E-10    1.235E-10    1.273E-10
     1.308E-10    1.340E-10    1.368E-10    1.393E-10    1.414E-10    1.432E-10    1.447E-10    1.458E-10    1.465E-10    1.469E-10
     1.469E-10    1.465E-10    1.458E-10
 Glc      Conc. = 3.48E-11
   3.26257E-09  3.35067E-09  3.43822E-09  3.52507E-09  3.60861E-09  3.68800E-09  3.76145E-09  3.83038E-09  3.89342E-09  3.95111E-09
   4.00819E-09  4.06504E-09  4.12165E-09  4.17988E-09  4.24219E-09  4.30935E-09  4.38138E-09  4.45712E-09  4.53217E-09  4.60365E-09
   4.67154E-09  4.73488E-09  4.79229E-09  4.84330E-09  4.88574E-09  4.92119E-09  4.95703E-09  4.99533E-09  5.03532E-09  5.07563E-09
   5.11439E-09  5.15160E-09  5.18805E-09  5.22261E-09  5.25488E-09  5.28663E-09  5.31768E-09  5.34718E-09  5.37572E-09  5.40378E-09
   5.43126E-09  5.45801E-09  5.48397E-09  5.50906E-09  5.53328E-09  5.55659E-09  5.57899E-09  5.60044E-09  5.62095E-09  5.64053E-09
   5.65914E-09  5.67682E-09  5.69352E-09  5.70929E-09  5.72412E-09  5.73798E-09  5.75091E-09  5.76294E-09  5.77397E-09  5.78411E-09
   5.79334E-09  5.80163E-09  5.80904E-09  5.81553E-09  5.82116E-09  5.82588E-09  5.82973E-09  5.83270E-09  5.83482E-09  5.83610E-09
   5.83652E-09  5.83610E-09  5.83490E-09  5.83284E-09  5.82999E-09  5.82632E-09  5.82183E-09  5.81651E-09  5.81036E-09  5.80338E-09
   5.79555E-09  5.78687E-09  5.77733E-09  5.76693E-09  5.75567E-09  5.74353E-09  5.73051E-09  5.71660E-09  5.70180E-09  5.68609E-09
   5.66946E-09  5.65193E-09  5.63345E-09  5.61407E-09  5.59372E-09  5.57241E-09  5.55015E-09  5.52692E-09  5.50271E-09  5.47752E-09
   5.45132E-09  5.42412E-09  5.39590E-09  5.36668E-09  5.33639E-09  5.30507E-09  5.27269E-09  5.23927E-09  5.20477E-09  5.16915E-09
   5.13249E-09  5.09469E-09  5.05578E-09  5.01574E-09  4.97457E-09  4.93225E-09  4.88880E-09  4.84417E-09  4.79836E-09  4.75140E-09
   4.70320E-09  4.65383E-09  4.60322E-09  4.55140E-09  4.49836E-09  4.44406E-09  4.38848E-09  4.33168E-09  4.27359E-09  4.21422E-09
   4.15356E-09  4.09159E-09  4.02833E-09  3.96375E-09  3.89783E-09  3.83056E-09  3.76200E-09  3.69205E-09  3.62075E-09  3.54807E-09
   3.47402E-09  3.39860E-09  3.32179E-09  3.24356E-09  3.16395E-09  3.08292E-09  3.00050E-09  2.91673E-09  2.83167E-09  2.74538E-09
   2.65791E-09  2.56935E-09  2.47972E-09  2.38910E-09  2.29755E-09  2.20514E-09  2.11192E-09  2.01796E-09  1.92334E-09  1.82811E-09
   1.73234E-09  1.63613E-09  1.53956E-09  1.44276E-09  1.34592E-09  1.24952E-09  1.15546E-09  1.06927E-09  9.87562E-10  9.06401E-10
   8.22244E-10  7.32837E-10  6.38272E-10  5.39976E-10  4.38608E-10  3.33039E-10  2.21885E-10  1.06572E-10 -5.44996E-12 -1.04620E-10
  -2.00121E-10 -2.93932E-10 -3.86528E-10 -4.77988E-10 -5.68353E-10 -6.57611E-10 -7.45713E-10 -8.32587E-10 -9.18242E-10 -1.00259E-09
  -1.08556E-09 -1.16715E-09 -1.24725E-09 -1.32585E-09 -1.40283E-09 -1.47819E-09 -1.55188E-09 -1.62380E-09 -1.69391E-09 -1.76218E-09
  -1.82855E-09 -1.89296E-09 -1.95535E-09 -2.01568E-09 -2.07392E-09 -2.12998E-09 -2.18384E-09 -2.23546E-09 -2.28479E-09 -2.33175E-09
  -2.37636E-09 -2.41852E-09 -2.45821E-09 -2.49540E-09 -2.53006E-09 -2.56211E-09 -2.59154E-09 -2.61833E-09 -2.64241E-09 -2.66385E-09
  -2.68268E-09 -2.69897E-09 -2.71276E-09 -2.72411E-09 -2.73308E-09 -2.73972E-09 -2.74409E-09 -2.74624E-09 -2.74623E-09 -2.74411E-09
  -2.73995E-09 -2.73380E-09 -2.72571E-09 -2.71574E-09 -2.70395E-09 -2.69040E-09 -2.67514E-09 -2.65823E-09 -2.63973E-09 -2.61968E-09
  -2.59816E-09 -2.57522E-09 -2.55091E-09 -2.52529E-09 -2.49841E-09 -2.47033E-09 -2.44111E-09 -2.41081E-09 -2.37947E-09 -2.34715E-09
  -2.31391E-09 -2.27980E-09 -2.24489E-09 -2.20919E-09 -2.17279E-09 -2.13575E-09 -2.09809E-09 -2.05988E-09 -2.02117E-09 -1.98201E-09
  -1.94245E-09 -1.90254E-09 -1.86232E-09 -1.82185E-09 -1.78117E-09 -1.74034E-09 -1.69939E-09 -1.65837E-09 -1.61733E-09 -1.57631E-09
  -1.53535E-09 -1.49450E-09 -1.45380E-09 -1.41328E-09 -1.37301E-09 -1.33299E-09 -1.29328E-09 -1.25392E-09 -1.21494E-09 -1.17637E-09
  -1.13826E-09 -1.10064E-09 -1.06353E-09 -1.02697E-09 -9.90988E-10 -9.55621E-10 -9.20897E-10 -8.86824E-10 -8.53456E-10 -8.20805E-10
  -7.88890E-10 -7.57732E-10 -7.27311E-10 -6.97616E-10 -6.68633E-10 -6.40355E-10 -6.12759E-10 -5.85842E-10 -5.59587E-10 -5.33983E-10
  -5.09020E-10 -4.84682E-10 -4.60963E-10 -4.37847E-10 -4.15322E-10 -3.93380E-10 -3.72011E-10 -3.51205E-10 -3.30945E-10 -3.11224E-10
  -2.92035E-10 -2.73363E-10 -2.55205E-10 -2.37544E-10 -2.20376E-10 -2.03689E-10 -1.87477E-10 -1.71727E-10 -1.56435E-10 -1.41592E-10
  -1.27191E-10 -1.13216E-10 -9.96723E-11 -8.65471E-11 -7.38316E-11 -6.15172E-11 -4.96086E-11 -3.80896E-11 -2.69604E-11 -1.62082E-11
  -5.83605E-12  4.16565E-12  1.38032E-11  2.30781E-11  3.19919E-11  4.05523E-11  4.87601E-11  5.66224E-11  6.41352E-11  7.13131E-11
   7.81436E-11  8.46405E-11  9.07968E-11  9.66176E-11  1.02111E-10  1.07262E-10  1.12084E-10  1.16569E-10  1.20724E-10  1.24542E-10
   1.28025E-10  1.31173E-10  1.33982E-10  1.36452E-10  1.38578E-10  1.40361E-10  1.41793E-10  1.42877E-10  1.43607E-10  1.43976E-10
   1.43985E-10  1.43626E-10  1.42892E-10
 Gln      Conc. = 1.71E-09
   1.86925E-09  2.12425E-09  2.49609E-09  2.97846E-09  3.52290E-09  4.06997E-09  4.56219E-09  4.95184E-09  5.22288E-09  5.42503E-09
   5.45392E-09  5.32434E-09  5.23849E-09  5.07112E-09  4.93961E-09  4.85537E-09  4.80118E-09  4.76661E-09  4.74546E-09  4.73379E-09
   4.72897E-09  4.72916E-09  4.73305E-09  4.73971E-09  4.74855E-09  4.75907E-09  4.77054E-09  4.78263E-09  4.79512E-09  4.80750E-09
   4.81955E-09  4.83102E-09  4.84172E-09  4.85149E-09  4.86013E-09  4.86753E-09  4.87346E-09  4.87778E-09  4.88032E-09  4.88082E-09
   4.87916E-09  4.87507E-09  4.86844E-09  4.85903E-09  4.84657E-09  4.83075E-09  4.81124E-09  4.78714E-09  4.75811E-09  4.72431E-09
   4.68467E-09  4.63909E-09  4.58947E-09  4.54476E-09  4.55624E-09  4.72307E-09  4.98749E-09  5.34297E-09  5.87005E-09  6.52083E-09
   7.19267E-09  7.85789E-09  8.42972E-09  8.81723E-09  8.96712E-09  8.87926E-09  8.65079E-09  8.36249E-09  7.85301E-09  7.30461E-09
   6.92510E-09  6.65957E-09  6.48995E-09  6.48191E-09  6.62914E-09  6.95600E-09  7.37283E-09  7.84286E-09  8.33169E-09  8.77988E-09
   9.14155E-09  9.36196E-09  9.37151E-09  9.28615E-09  9.12764E-09  8.78917E-09  8.43138E-09  8.15378E-09  7.83824E-09  7.56291E-09
   7.35069E-09  7.17944E-09  7.03646E-09  6.91331E-09  6.80385E-09  6.70529E-09  6.61545E-09  6.53232E-09  6.45470E-09  6.38160E-09
   6.31199E-09  6.24507E-09  6.18039E-09  6.11759E-09  6.05634E-09  5.99636E-09  5.93728E-09  5.87892E-09  5.82106E-09  5.76351E-09
   5.70620E-09  5.64893E-09  5.59160E-09  5.53413E-09  5.47642E-09  5.41839E-09  5.35997E-09  5.30108E-09  5.24165E-09  5.18169E-09
   5.12103E-09  5.05973E-09  4.99769E-09  4.93489E-09  4.87129E-09  4.80684E-09  4.74149E-09  4.67528E-09  4.60812E-09  4.53999E-09
   4.47089E-09  4.40075E-09  4.32960E-09  4.25740E-09  4.18411E-09  4.10970E-09  4.03424E-09  3.95761E-09  3.87985E-09  3.80090E-09
   3.72081E-09  3.63953E-09  3.55707E-09  3.47338E-09  3.38850E-09  3.30240E-09  3.21511E-09  3.12667E-09  3.03715E-09  2.94663E-09
   2.85518E-09  2.76288E-09  2.66982E-09  2.57610E-09  2.48183E-09  2.38715E-09  2.29223E-09  2.19727E-09  2.10256E-09  2.00846E-09
   1.91552E-09  1.82463E-09  1.73721E-09  1.65598E-09  1.58669E-09  1.54449E-09  1.58671E-09  1.98926E-09  2.65244E-09  3.37894E-09
   3.98639E-09  4.34392E-09  4.43057E-09  4.30814E-09  4.01947E-09  3.52279E-09  2.74079E-09  1.69736E-09  6.86500E-10  2.59865E-10
   5.32044E-11 -9.57267E-11 -2.21496E-10 -3.35337E-10 -4.42002E-10 -5.43806E-10 -6.41981E-10 -7.37217E-10 -8.30005E-10 -9.20575E-10
  -1.00906E-09 -1.09562E-09 -1.18027E-09 -1.26305E-09 -1.34394E-09 -1.42296E-09 -1.50011E-09 -1.57530E-09 -1.64854E-09 -1.71982E-09
  -1.78907E-09 -1.85625E-09 -1.92133E-09 -1.98427E-09 -2.04504E-09 -2.10356E-09 -2.15982E-09 -2.21377E-09 -2.26539E-09 -2.31458E-09
  -2.36138E-09 -2.40569E-09 -2.44748E-09 -2.48674E-09 -2.52342E-09 -2.55746E-09 -2.58885E-09 -2.61757E-09 -2.64355E-09 -2.66686E-09
  -2.68752E-09 -2.70563E-09 -2.72120E-09 -2.73432E-09 -2.74502E-09 -2.75337E-09 -2.75943E-09 -2.76325E-09 -2.76488E-09 -2.76439E-09
