 LCModel (Version 6.3-1R) Copyright: S.W. Provencher.          Ref.: Magn. Reson. Med. 30:672-679 (1993).                
 onepulse 17x26_ftSpec_smooth_lcm
 26 lines in following concentration table = NCONC+1
    Conc.  %SD /Cr+PCr  Metabolite                                         
 9.31E-11 463%   0.852 Ala                                                 
    0.000 999%   0.000 Asp                                                 
 1.09E-10 489%   1.000 Cr                                                  
 1.59E-09  85%  14.598 GABA                                                
 1.65E-09  60%  15.085 Glc                                                 
    0.000 999%   0.000 Gln                                                 
 3.69E-10 283%   3.381 Glu                                                 
    0.000 999%   0.000 Glyc                                                
 3.52E-11 999%   0.322 GPC                                                 
    0.000 999%   0.000 GSH                                                 
 6.50E-10 107%   5.953 Ins                                                 
    0.000 999%   0.000 Lac                                                 
    0.000 999%   0.000 NAAG                                                
 1.29E-09  34%  11.849 NAA                                                 
 1.34E-10 765%   1.231 PCh                                                 
    0.000 999%   0.000 PCr                                                 
    0.000 999%   0.000 PE                                                  
 5.49E-12 999% 5.0E-02 Scyllo                                              
 2.40E-09  51%  21.938 Ser                                                 
    0.000 999%   0.000 Tau                                                 
 1.70E-10  70%   1.554 GPC+PCh                                             
 1.29E-09  34%  11.849 NAA+NAAG                                            
 6.50E-10 107%   5.953 Ins+Glyc                                            
 1.09E-10 489%   1.000 Cr+PCr                                              
 3.69E-10 283%   3.381 Glu+Gln                                             
   6 lines in following misc. output table
  FWHM = 0.078 ppm    S/N =   2                                            
  Data shift = 0.347 ppm                                                   
  Ph:  14 deg      -3.8 deg/ppm                                            
  alphaB,S = 6.4E-01,   2.6E+01                                            
    9 spline knots.   Ns = 5(1)                                            
  ( 5) 2 infls.   ( 5) 1 extrs.                                            
  363 points on ppm-axis = NY
      4.250000     4.238821     4.227641     4.216462     4.205282     4.194103     4.182923     4.171744     4.160564     4.149385
      4.138206     4.127026     4.115847     4.104667     4.093488     4.082308     4.071129     4.059949     4.048770     4.037591
      4.026411     4.015232     4.004052     3.992873     3.981693     3.970514     3.959334     3.948155     3.936975     3.925796
      3.914617     3.903437     3.892258     3.881078     3.869899     3.858719     3.847540     3.836360     3.825181     3.814002
      3.802822     3.791643     3.780463     3.769284     3.758104     3.746925     3.735745     3.724566     3.713387     3.702207
      3.691028     3.679848     3.668669     3.657489     3.646310     3.635130     3.623951     3.612772     3.601592     3.590413
      3.579233     3.568054     3.556874     3.545695     3.534515     3.523336     3.512156     3.500977     3.489798     3.478618
      3.467439     3.456259     3.445080     3.433900     3.422721     3.411541     3.400362     3.389183     3.378003     3.366824
      3.355644     3.344465     3.333285     3.322106     3.310926     3.299747     3.288568     3.277388     3.266209     3.255029
      3.243850     3.232670     3.221491     3.210311     3.199132     3.187953     3.176773     3.165594     3.154414     3.143235
      3.132055     3.120876     3.109696     3.098517     3.087337     3.076158     3.064979     3.053799     3.042620     3.031440
      3.020261     3.009081     2.997902     2.986722     2.975543     2.964364     2.953184     2.942005     2.930825     2.919646
      2.908466     2.897287     2.886107     2.874928     2.863749     2.852569     2.841390     2.830210     2.819031     2.807851
      2.796672     2.785492     2.774313     2.763134     2.751954     2.740775     2.729595     2.718416     2.707236     2.696057
      2.684877     2.673698     2.662519     2.651339     2.640160     2.628980     2.617801     2.606621     2.595442     2.584262
      2.573083     2.561903     2.550724     2.539545     2.528365     2.517186     2.506006     2.494827     2.483647     2.472468
      2.461288     2.450109     2.438930     2.427750     2.416571     2.405391     2.394212     2.383032     2.371853     2.360673
      2.349494     2.338315     2.327135     2.315956     2.304776     2.293597     2.282417     2.271238     2.260058     2.248879
      2.237700     2.226520     2.215341     2.204161     2.192982     2.181802     2.170623     2.159443     2.148264     2.137084
      2.125905     2.114726     2.103546     2.092367     2.081187     2.070008     2.058828     2.047649     2.036469     2.025290
      2.014111     2.002931     1.991752     1.980572     1.969393     1.958213     1.947034     1.935854     1.924675     1.913496
      1.902316     1.891137     1.879957     1.868778     1.857598     1.846419     1.835239     1.824060     1.812881     1.801701
      1.790522     1.779342     1.768163     1.756983     1.745804     1.734624     1.723445     1.712265     1.701086     1.689907
      1.678727     1.667548     1.656368     1.645189     1.634009     1.622830     1.611650     1.600471     1.589292     1.578112
      1.566933     1.555753     1.544574     1.533394     1.522215     1.511035     1.499856     1.488677     1.477497     1.466318
      1.455138     1.443959     1.432779     1.421600     1.410420     1.399241     1.388062     1.376882     1.365703     1.354523
      1.343344     1.332164     1.320985     1.309805     1.298626     1.287446     1.276267     1.265088     1.253908     1.242729
      1.231549     1.220370     1.209190     1.198011     1.186831     1.175652     1.164473     1.153293     1.142114     1.130934
      1.119755     1.108575     1.097396     1.086216     1.075037     1.063858     1.052678     1.041499     1.030319     1.019140
      1.007960     0.996781     0.985601     0.974422     0.963243     0.952063     0.940884     0.929704     0.918525     0.907345
      0.896166     0.884986     0.873807     0.862628     0.851448     0.840269     0.829089     0.817910     0.806730     0.795551
      0.784371     0.773192     0.762012     0.750833     0.739654     0.728474     0.717295     0.706115     0.694936     0.683756
      0.672577     0.661397     0.650218     0.639039     0.627859     0.616680     0.605500     0.594321     0.583141     0.571962
      0.560782     0.549603     0.538424     0.527244     0.516065     0.504885     0.493706     0.482526     0.471347     0.460167
      0.448988     0.437809     0.426629     0.415450     0.404270     0.393091     0.381911     0.370732     0.359552     0.348373
      0.337193     0.326014     0.314835     0.303655     0.292476     0.281296     0.270117     0.258937     0.247758     0.236578
      0.225399     0.214220     0.203040
 NY phased data points follow
  -6.10843E-09 -1.83952E-09  1.09011E-10  3.19445E-09  2.71951E-09  4.28981E-09  2.90398E-09  3.39870E-09  2.15150E-09  2.84079E-09
   1.75683E-09  2.78378E-09  1.92806E-09  2.71473E-09  2.25295E-09  4.09643E-09  4.44566E-09  5.01994E-09  4.56079E-09  5.92727E-09
   5.73429E-09  6.64809E-09  5.29304E-09  5.53958E-09  4.72231E-09  5.54728E-09  6.50979E-09  7.86643E-09  6.73768E-09  7.28967E-09
   5.19893E-09  5.75327E-09  6.02051E-09  8.43199E-09  9.94384E-09  1.18722E-08  1.15997E-08  1.15257E-08  1.06458E-08  1.08126E-08
   9.38818E-09  1.04422E-08  9.74338E-09  1.01124E-08  9.62189E-09  9.72100E-09  9.47566E-09  9.36184E-09  8.44807E-09  8.66666E-09
   7.05580E-09  7.87810E-09  7.51161E-09  8.50490E-09  7.64475E-09  7.97306E-09  6.28801E-09  6.47156E-09  5.92436E-09  5.84606E-09
   5.46746E-09  5.02936E-09  3.43650E-09  5.63061E-09  7.60939E-09  1.09681E-08  1.09801E-08  1.23330E-08  1.13083E-08  1.11183E-08
   9.56224E-09  1.00906E-08  8.71024E-09  8.28536E-09  7.38926E-09  7.34127E-09  5.92117E-09  5.01625E-09  2.90747E-09  4.25937E-09
   7.48442E-09  1.28539E-08  1.51188E-08  1.61734E-08  1.51898E-08  1.57010E-08  1.45641E-08  1.50271E-08  1.42294E-08  1.44660E-08
   1.40322E-08  1.46463E-08  1.36229E-08  1.38481E-08  1.27031E-08  1.35881E-08  1.18302E-08  1.24346E-08  1.12596E-08  1.13214E-08
   1.04278E-08  1.02984E-08  9.76263E-09  1.10562E-08  1.00000E-08  1.03661E-08  9.94159E-09  9.95319E-09  1.00992E-08  8.79064E-09
   8.14752E-09  7.44338E-09  6.08247E-09  6.90875E-09  6.74683E-09  7.80060E-09  6.82661E-09  6.98481E-09  7.14588E-09  7.68529E-09
   7.07705E-09  8.47404E-09  7.74534E-09  7.55947E-09  7.03489E-09  6.40013E-09  5.40005E-09  5.52979E-09  5.20817E-09  5.68872E-09
   5.11023E-09  5.39144E-09  4.80658E-09  5.78221E-09  5.13487E-09  5.55474E-09  5.08073E-09  4.90357E-09  4.26050E-09  5.22082E-09
   5.51746E-09  6.61853E-09  7.74853E-09  7.80997E-09  7.27067E-09  7.67230E-09  7.56802E-09  8.63499E-09  9.02425E-09  8.75560E-09
   8.50124E-09  8.47054E-09  7.88134E-09  7.80951E-09  7.07911E-09  7.64518E-09  6.98915E-09  7.16789E-09  6.90806E-09  6.79528E-09
   6.56127E-09  7.15031E-09  7.00152E-09  6.90606E-09  6.08716E-09  6.62426E-09  5.86077E-09  6.61518E-09  6.54772E-09  7.52811E-09
   9.24464E-09  1.47528E-08  1.92096E-08  2.03697E-08  1.76302E-08  1.56690E-08  1.44248E-08  1.24122E-08  1.04751E-08  9.58383E-09
   7.89722E-09  7.35158E-09  6.06192E-09  4.85273E-09  2.73258E-09  1.88285E-09 -4.51942E-10 -1.89414E-09 -3.98144E-09 -6.19273E-09
  -8.39029E-09 -1.01491E-08 -1.32599E-08 -1.48584E-08 -1.76604E-08 -1.98298E-08 -2.10330E-08 -2.23572E-08 -2.35693E-08 -2.39700E-08
  -2.38229E-08 -2.33866E-08 -2.20907E-08 -2.05556E-08 -1.91254E-08 -1.62366E-08 -1.40388E-08 -1.12489E-08 -8.45581E-09 -6.40421E-09
  -4.56105E-09 -2.30537E-09 -1.72961E-09 -8.41845E-10 -7.47921E-10 -4.99624E-10 -7.18296E-10 -1.79383E-09 -1.35839E-09 -2.13953E-09
  -2.38521E-09 -1.86722E-09 -2.26852E-09 -1.73142E-09 -1.33607E-09 -1.01753E-09 -1.39759E-09 -1.50546E-09 -1.23480E-09 -1.41414E-09
  -1.91734E-09 -1.60245E-09 -1.89501E-09 -1.68224E-09 -1.57257E-09 -1.51298E-09 -1.24090E-09 -6.31901E-10 -6.17491E-10 -1.07822E-09
  -1.37231E-09 -9.16334E-10 -1.41378E-09 -1.05044E-09 -1.34137E-09 -1.56940E-09 -1.23333E-09 -8.04524E-10 -6.05252E-10 -3.46852E-10
  -4.22150E-10 -9.00352E-12 -4.75113E-11  3.81421E-10 -1.46777E-10 -1.15087E-10 -7.84948E-11 -7.18179E-10 -1.07595E-09 -1.02164E-09
  -1.47443E-09 -1.23511E-09 -1.77465E-09 -7.51203E-10 -1.10222E-09 -8.26551E-10 -3.74641E-10  1.78352E-10  4.58698E-10  5.22079E-10
   8.91652E-10  1.44072E-09  1.31856E-09  1.25424E-09  8.93671E-10  1.42648E-09  1.16652E-09  6.56328E-10  1.30173E-10  9.19229E-10
  -3.32534E-10  2.27868E-10 -6.22136E-10  1.83860E-10 -6.12557E-10 -5.46304E-10 -2.56762E-11 -6.21062E-10 -6.38303E-10 -2.91108E-10
  -5.03426E-10 -5.63135E-10 -5.81791E-11 -1.22380E-11 -5.31701E-10 -2.97555E-11 -4.43169E-11  1.03453E-10 -2.09926E-10  4.99835E-10
   4.66388E-11 -1.11789E-10  6.29887E-10 -8.72316E-11  4.87074E-10  5.60956E-10  3.35735E-10  8.40602E-10  5.82235E-10  7.15180E-10
   9.28872E-10  1.12020E-09  1.10253E-09  1.18575E-09  1.41874E-09  1.29529E-09  1.81050E-09  1.59209E-09  1.63606E-09  1.51717E-09
   1.74926E-09  1.99921E-09  1.59029E-09  1.83945E-09  2.17104E-09  1.69373E-09  2.08899E-09  2.25245E-09  2.24448E-09  2.21751E-09
   1.89946E-09  2.15979E-09  2.19746E-09  3.09247E-09  1.80418E-09  2.81296E-09  1.82809E-09  2.49619E-09  2.37964E-09  2.94627E-09
   1.89346E-09  2.53194E-09  2.72904E-09  2.58344E-09  2.35271E-09  2.79397E-09  2.50784E-09  2.90718E-09  2.56950E-09  2.56864E-09
   3.01074E-09  2.94615E-09  2.76446E-09  2.83885E-09  3.13245E-09  2.98219E-09  2.94693E-09  3.23385E-09  2.68779E-09  2.90030E-09
   2.97320E-09  3.37938E-09  2.68476E-09
 NY points of the fit to the data follow
  -1.90477E-09 -4.03319E-10  5.33011E-10  1.29429E-09  2.26595E-09  3.12567E-09  3.38636E-09  3.18802E-09  2.81977E-09  2.32197E-09
   2.02933E-09  1.86972E-09  1.84237E-09  2.04708E-09  2.49096E-09  2.97561E-09  3.42703E-09  4.18487E-09  5.06372E-09  5.69253E-09
   6.18837E-09  6.56699E-09  6.71559E-09  6.56695E-09  6.32204E-09  5.91718E-09  5.57124E-09  5.62603E-09  6.07383E-09  6.77903E-09
   7.50288E-09  7.98182E-09  8.45046E-09  8.96442E-09  9.10607E-09  8.83521E-09  9.02762E-09  9.48433E-09  9.95527E-09  1.02893E-08
   1.04305E-08  1.05359E-08  1.05183E-08  9.99929E-09  9.47188E-09  9.23266E-09  8.93440E-09  8.58687E-09  8.32143E-09  8.12211E-09
   7.93715E-09  7.78350E-09  7.67918E-09  7.60484E-09  7.52552E-09  7.47097E-09  7.42662E-09  7.42416E-09  7.39678E-09  7.30630E-09
   7.15235E-09  7.02261E-09  7.03330E-09  7.13395E-09  7.36384E-09  7.94177E-09  8.64548E-09  9.23886E-09  9.83654E-09  1.03398E-08
   1.07646E-08  1.09781E-08  1.07763E-08  1.02204E-08  9.78695E-09  9.02557E-09  7.90859E-09  7.54878E-09  7.84937E-09  8.48957E-09
   9.73465E-09  1.15024E-08  1.34672E-08  1.52720E-08  1.65485E-08  1.72823E-08  1.75925E-08  1.71326E-08  1.55732E-08  1.42502E-08
   1.36018E-08  1.32304E-08  1.30922E-08  1.28470E-08  1.24290E-08  1.22089E-08  1.19575E-08  1.15115E-08  1.11622E-08  1.08723E-08
   1.05779E-08  1.03246E-08  1.01087E-08  9.94869E-09  9.82740E-09  9.72212E-09  9.62041E-09  9.52097E-09  9.41795E-09  9.28996E-09
   9.11678E-09  8.91647E-09  8.75477E-09  8.57468E-09  8.35685E-09  8.17235E-09  8.00637E-09  7.84943E-09  7.69746E-09  7.54842E-09
   7.40084E-09  7.25402E-09  7.10732E-09  6.96036E-09  6.81284E-09  6.66456E-09  6.51534E-09  6.36506E-09  6.21365E-09  6.06102E-09
   5.90713E-09  5.75194E-09  5.59542E-09  5.43758E-09  5.27841E-09  5.11791E-09  4.95609E-09  4.79298E-09  4.62861E-09  4.46299E-09
   4.29617E-09  4.12817E-09  3.95904E-09  3.78883E-09  3.61752E-09  3.44517E-09  3.27184E-09  3.09758E-09  2.92237E-09  2.74629E-09
   2.56935E-09  2.39154E-09  2.21291E-09  2.03351E-09  1.85329E-09  1.67229E-09  1.49058E-09  1.30821E-09  1.12529E-09  9.42169E-10
   7.59362E-10  5.78174E-10  4.01241E-10  2.34867E-10  9.56739E-11  3.88351E-11  3.40137E-10  2.25533E-09  4.95648E-09  8.15269E-09
   1.18094E-08  1.54432E-08  1.80415E-08  1.88584E-08  1.80562E-08  1.62152E-08  1.32440E-08  8.56081E-09  3.25907E-09  1.26510E-09
   3.76424E-10 -1.68297E-10 -5.59090E-10 -8.65538E-10 -1.11963E-09 -1.33825E-09 -1.53128E-09 -1.70488E-09 -1.86311E-09 -2.00878E-09
  -2.14389E-09 -2.26987E-09 -2.38784E-09 -2.49862E-09 -2.60288E-09 -2.70113E-09 -2.79378E-09 -2.88118E-09 -2.96361E-09 -3.04130E-09
  -3.11445E-09 -3.18323E-09 -3.24780E-09 -3.30825E-09 -3.36474E-09 -3.41733E-09 -3.46614E-09 -3.51121E-09 -3.55266E-09 -3.59054E-09
  -3.62491E-09 -3.65582E-09 -3.68335E-09 -3.70753E-09 -3.72844E-09 -3.74611E-09 -3.76058E-09 -3.77191E-09 -3.78016E-09 -3.78534E-09
  -3.78752E-09 -3.78672E-09 -3.78302E-09 -3.77644E-09 -3.76705E-09 -3.75483E-09 -3.73989E-09 -3.72226E-09 -3.70195E-09 -3.67903E-09
  -3.65355E-09 -3.62554E-09 -3.59504E-09 -3.56212E-09 -3.52681E-09 -3.48915E-09 -3.44921E-09 -3.40701E-09 -3.36262E-09 -3.31606E-09
  -3.26740E-09 -3.21669E-09 -3.16396E-09 -3.10930E-09 -3.05275E-09 -2.99440E-09 -2.93431E-09 -2.87256E-09 -2.80920E-09 -2.74432E-09
  -2.67799E-09 -2.61026E-09 -2.54121E-09 -2.47091E-09 -2.39944E-09 -2.32685E-09 -2.25323E-09 -2.17863E-09 -2.10313E-09 -2.02680E-09
  -1.94971E-09 -1.87191E-09 -1.79349E-09 -1.71451E-09 -1.63504E-09 -1.55514E-09 -1.47489E-09 -1.39434E-09 -1.31357E-09 -1.23264E-09
  -1.15161E-09 -1.07056E-09 -9.89536E-10 -9.08616E-10 -8.27853E-10 -7.47319E-10 -6.67070E-10 -5.87169E-10 -5.07674E-10 -4.28652E-10
  -3.50161E-10 -2.72245E-10 -1.94981E-10 -1.18420E-10 -4.26193E-11  3.23737E-11  1.06489E-10  1.79685E-10  2.51913E-10  3.23103E-10
   3.93220E-10  4.62200E-10  5.30008E-10  5.96583E-10  6.61889E-10  7.25875E-10  7.88491E-10  8.49692E-10  9.09439E-10  9.67691E-10
   1.02441E-09  1.07956E-09  1.13307E-09  1.18495E-09  1.23517E-09  1.28371E-09  1.33056E-09  1.37571E-09  1.41915E-09  1.46085E-09
   1.50082E-09  1.53902E-09  1.57546E-09  1.61012E-09  1.64298E-09  1.67404E-09  1.70329E-09  1.73070E-09  1.75627E-09  1.77999E-09
   1.80184E-09  1.82182E-09  1.83991E-09  1.85611E-09  1.87040E-09  1.88277E-09  1.89322E-09  1.90172E-09  1.90828E-09  1.91288E-09
   1.91552E-09  1.91618E-09  1.91485E-09  1.91154E-09  1.90621E-09  1.89889E-09  1.88954E-09  1.87817E-09  1.86476E-09  1.84931E-09
   1.83181E-09  1.81226E-09  1.79065E-09  1.76696E-09  1.74120E-09  1.71336E-09  1.68343E-09  1.65141E-09  1.61729E-09  1.58106E-09
   1.54273E-09  1.50228E-09  1.45970E-09  1.41501E-09  1.36819E-09  1.31923E-09  1.26814E-09  1.21491E-09  1.15954E-09  1.10201E-09
   1.04234E-09  9.80522E-10  9.16545E-10
 NY background values follow
    -5.717E-10   -4.130E-10   -2.559E-10   -1.006E-10    5.315E-11    2.052E-10    3.555E-10    5.041E-10    6.509E-10    7.960E-10
     9.393E-10    1.081E-09    1.221E-09    1.359E-09    1.495E-09    1.629E-09    1.762E-09    1.893E-09    2.021E-09    2.148E-09
     2.274E-09    2.397E-09    2.518E-09    2.638E-09    2.756E-09    2.872E-09    2.986E-09    3.098E-09    3.208E-09    3.317E-09
     3.423E-09    3.528E-09    3.630E-09    3.731E-09    3.830E-09    3.928E-09    4.023E-09    4.116E-09    4.208E-09    4.298E-09
     4.386E-09    4.472E-09    4.556E-09    4.638E-09    4.719E-09    4.798E-09    4.875E-09    4.950E-09    5.024E-09    5.095E-09
     5.165E-09    5.234E-09    5.300E-09    5.365E-09    5.428E-09    5.490E-09    5.549E-09    5.608E-09    5.664E-09    5.719E-09
     5.772E-09    5.824E-09    5.874E-09    5.923E-09    5.969E-09    6.015E-09    6.058E-09    6.101E-09    6.141E-09    6.180E-09
     6.217E-09    6.252E-09    6.286E-09    6.318E-09    6.349E-09    6.377E-09    6.404E-09    6.429E-09    6.452E-09    6.474E-09
     6.493E-09    6.511E-09    6.527E-09    6.541E-09    6.553E-09    6.563E-09    6.571E-09    6.577E-09    6.581E-09    6.583E-09
     6.583E-09    6.580E-09    6.576E-09    6.569E-09    6.560E-09    6.549E-09    6.535E-09    6.520E-09    6.501E-09    6.481E-09
     6.458E-09    6.433E-09    6.405E-09    6.374E-09    6.341E-09    6.306E-09    6.267E-09    6.226E-09    6.183E-09    6.136E-09
     6.087E-09    6.035E-09    5.980E-09    5.923E-09    5.862E-09    5.798E-09    5.732E-09    5.662E-09    5.589E-09    5.513E-09
     5.434E-09    5.352E-09    5.266E-09    5.178E-09    5.086E-09    4.991E-09    4.893E-09    4.793E-09    4.690E-09    4.584E-09
     4.475E-09    4.364E-09    4.250E-09    4.134E-09    4.016E-09    3.896E-09    3.773E-09    3.648E-09    3.522E-09    3.393E-09
     3.263E-09    3.132E-09    2.998E-09    2.864E-09    2.728E-09    2.591E-09    2.452E-09    2.313E-09    2.173E-09    2.032E-09
     1.890E-09    1.748E-09    1.605E-09    1.462E-09    1.319E-09    1.176E-09    1.032E-09    8.890E-10    7.460E-10    6.033E-10
     4.611E-10    3.195E-10    1.785E-10    3.842E-11   -1.008E-10   -2.389E-10   -3.758E-10   -5.115E-10   -6.458E-10   -7.785E-10
    -9.096E-10   -1.039E-09   -1.166E-09   -1.292E-09   -1.415E-09   -1.536E-09   -1.655E-09   -1.771E-09   -1.885E-09   -1.996E-09
    -2.105E-09   -2.210E-09   -2.312E-09   -2.412E-09   -2.508E-09   -2.601E-09   -2.692E-09   -2.779E-09   -2.863E-09   -2.944E-09
    -3.022E-09   -3.096E-09   -3.168E-09   -3.237E-09   -3.302E-09   -3.365E-09   -3.424E-09   -3.480E-09   -3.533E-09   -3.583E-09
    -3.630E-09   -3.674E-09   -3.715E-09   -3.753E-09   -3.788E-09   -3.820E-09   -3.848E-09   -3.874E-09   -3.897E-09   -3.917E-09
    -3.934E-09   -3.947E-09   -3.959E-09   -3.967E-09   -3.972E-09   -3.975E-09   -3.974E-09   -3.971E-09   -3.965E-09   -3.957E-09
    -3.945E-09   -3.931E-09   -3.915E-09   -3.895E-09   -3.874E-09   -3.849E-09   -3.822E-09   -3.793E-09   -3.761E-09   -3.727E-09
    -3.690E-09   -3.651E-09   -3.610E-09   -3.567E-09   -3.521E-09   -3.473E-09   -3.423E-09   -3.371E-09   -3.317E-09   -3.260E-09
    -3.202E-09   -3.142E-09   -3.080E-09   -3.016E-09   -2.951E-09   -2.883E-09   -2.815E-09   -2.744E-09   -2.672E-09   -2.599E-09
    -2.524E-09   -2.448E-09   -2.371E-09   -2.293E-09   -2.214E-09   -2.133E-09   -2.052E-09   -1.970E-09   -1.887E-09   -1.803E-09
    -1.719E-09   -1.633E-09   -1.548E-09   -1.462E-09   -1.375E-09   -1.289E-09   -1.201E-09   -1.114E-09   -1.027E-09   -9.391E-10
    -8.515E-10   -7.640E-10   -6.766E-10   -5.894E-10   -5.023E-10   -4.156E-10   -3.293E-10   -2.433E-10   -1.579E-10   -7.292E-11
     1.142E-11    9.511E-11    1.781E-10    2.603E-10    3.417E-10    4.222E-10    5.018E-10    5.804E-10    6.580E-10    7.345E-10
     8.098E-10    8.840E-10    9.569E-10    1.029E-09    1.099E-09    1.168E-09    1.235E-09    1.301E-09    1.366E-09    1.429E-09
     1.490E-09    1.550E-09    1.608E-09    1.665E-09    1.719E-09    1.772E-09    1.823E-09    1.873E-09    1.921E-09    1.967E-09
     2.011E-09    2.053E-09    2.094E-09    2.132E-09    2.169E-09    2.204E-09    2.237E-09    2.269E-09    2.298E-09    2.325E-09
     2.351E-09    2.375E-09    2.396E-09    2.416E-09    2.434E-09    2.450E-09    2.464E-09    2.476E-09    2.486E-09    2.494E-09
     2.500E-09    2.503E-09    2.505E-09    2.505E-09    2.503E-09    2.499E-09    2.492E-09    2.484E-09    2.474E-09    2.461E-09
     2.446E-09    2.430E-09    2.411E-09    2.390E-09    2.367E-09    2.342E-09    2.315E-09    2.285E-09    2.254E-09    2.220E-09
     2.184E-09    2.146E-09    2.106E-09    2.064E-09    2.019E-09    1.973E-09    1.924E-09    1.873E-09    1.820E-09    1.764E-09
     1.707E-09    1.647E-09    1.585E-09
 Ala      Conc. = 9.31E-11
  -6.29892E-10 -4.62342E-10 -2.95511E-10 -1.29984E-10  3.40673E-11  1.97906E-10  3.63177E-10  5.20786E-10  6.68401E-10  8.22618E-10
   9.73181E-10  1.10914E-09  1.24694E-09  1.38500E-09  1.51729E-09  1.64773E-09  1.77688E-09  1.90470E-09  2.03109E-09  2.15596E-09
   2.27923E-09  2.40087E-09  2.52082E-09  2.63905E-09  2.75554E-09  2.87026E-09  2.98319E-09  3.09434E-09  3.20367E-09  3.31118E-09
   3.41688E-09  3.52074E-09  3.62276E-09  3.72295E-09  3.82130E-09  3.91781E-09  4.01249E-09  4.10533E-09  4.19633E-09  4.28551E-09
   4.37285E-09  4.45838E-09  4.54208E-09  4.62399E-09  4.70408E-09  4.78240E-09  4.85891E-09  4.93364E-09  5.00662E-09  5.07784E-09
   5.14731E-09  5.21503E-09  5.28104E-09  5.34534E-09  5.40792E-09  5.46881E-09  5.52804E-09  5.58562E-09  5.64154E-09  5.69586E-09
   5.74855E-09  5.79963E-09  5.84913E-09  5.89702E-09  5.94329E-09  5.98794E-09  6.03095E-09  6.07232E-09  6.11203E-09  6.15006E-09
   6.18639E-09  6.22102E-09  6.25393E-09  6.28508E-09  6.31447E-09  6.34208E-09  6.36785E-09  6.39182E-09  6.41388E-09  6.43409E-09
   6.45235E-09  6.46866E-09  6.48297E-09  6.49528E-09  6.50552E-09  6.51363E-09  6.51962E-09  6.52338E-09  6.52488E-09  6.52406E-09
   6.52083E-09  6.51515E-09  6.50690E-09  6.49595E-09  6.48218E-09  6.46545E-09  6.44559E-09  6.42246E-09  6.39636E-09  6.37061E-09
   6.36650E-09  6.36951E-09  6.37402E-09  6.40649E-09  6.45567E-09  6.50334E-09  6.54024E-09  6.56746E-09  6.58092E-09  6.56069E-09
   6.48768E-09  6.38116E-09  6.30757E-09  6.21057E-09  6.07130E-09  5.96124E-09  5.86596E-09  5.77642E-09  5.68888E-09  5.60154E-09
   5.51318E-09  5.42327E-09  5.33137E-09  5.23728E-09  5.14084E-09  5.04200E-09  4.94070E-09  4.83694E-09  4.73073E-09  4.62210E-09
   4.51109E-09  4.39775E-09  4.28211E-09  4.16427E-09  4.04427E-09  3.92220E-09  3.79812E-09  3.67212E-09  3.54430E-09  3.41472E-09
   3.28350E-09  3.15070E-09  3.01642E-09  2.88081E-09  2.74388E-09  2.60577E-09  2.46659E-09  2.32645E-09  2.18541E-09  2.04364E-09
   1.90122E-09  1.75822E-09  1.61479E-09  1.47106E-09  1.32708E-09  1.18298E-09  1.03892E-09  8.94964E-10  7.51224E-10  6.07868E-10
   4.64937E-10  3.22634E-10  1.81058E-10  4.04269E-11 -9.89727E-11 -2.36331E-10 -3.67768E-10 -4.79375E-10 -5.81471E-10 -6.76521E-10
  -7.64879E-10 -8.52369E-10 -9.50433E-10 -1.06679E-09 -1.19875E-09 -1.33986E-09 -1.49180E-09 -1.66053E-09 -1.83104E-09 -1.96100E-09
  -2.07761E-09 -2.18787E-09 -2.29353E-09 -2.39526E-09 -2.49343E-09 -2.58817E-09 -2.67959E-09 -2.76777E-09 -2.85272E-09 -2.93447E-09
  -3.01306E-09 -3.08847E-09 -3.16074E-09 -3.22985E-09 -3.29582E-09 -3.35868E-09 -3.41839E-09 -3.47499E-09 -3.52849E-09 -3.57887E-09
  -3.62617E-09 -3.67039E-09 -3.71154E-09 -3.74962E-09 -3.78467E-09 -3.81668E-09 -3.84568E-09 -3.87166E-09 -3.89467E-09 -3.91472E-09
  -3.93181E-09 -3.94597E-09 -3.95722E-09 -3.96558E-09 -3.97109E-09 -3.97375E-09 -3.97359E-09 -3.97064E-09 -3.96494E-09 -3.95649E-09
  -3.94533E-09 -3.93148E-09 -3.91499E-09 -3.89589E-09 -3.87421E-09 -3.84995E-09 -3.82319E-09 -3.79395E-09 -3.76224E-09 -3.72812E-09
  -3.69162E-09 -3.65279E-09 -3.61164E-09 -3.56824E-09 -3.52262E-09 -3.47481E-09 -3.42486E-09 -3.37282E-09 -3.31873E-09 -3.26261E-09
  -3.20453E-09 -3.14453E-09 -3.08265E-09 -3.01895E-09 -2.95350E-09 -2.88636E-09 -2.81760E-09 -2.74729E-09 -2.67549E-09 -2.60228E-09
  -2.52771E-09 -2.45186E-09 -2.37479E-09 -2.29657E-09 -2.21727E-09 -2.13696E-09 -2.05570E-09 -1.97356E-09 -1.89061E-09 -1.80691E-09
  -1.72254E-09 -1.63756E-09 -1.55203E-09 -1.46603E-09 -1.37962E-09 -1.29286E-09 -1.20582E-09 -1.11857E-09 -1.03117E-09 -9.43684E-10
  -8.56175E-10 -7.68716E-10 -6.81358E-10 -5.94173E-10 -5.07216E-10 -4.20556E-10 -3.34249E-10 -2.48357E-10 -1.62937E-10 -7.80558E-11
   6.23104E-12  8.98784E-11  1.72811E-10  2.54978E-10  3.36325E-10  4.16802E-10  4.96343E-10  5.74904E-10  6.52438E-10  7.28877E-10
   8.04185E-10  8.78299E-10  9.51185E-10  1.02278E-09  1.09305E-09  1.16195E-09  1.22943E-09  1.29544E-09  1.35993E-09  1.42289E-09
   1.48425E-09  1.54400E-09  1.60206E-09  1.65843E-09  1.71309E-09  1.76603E-09  1.81723E-09  1.86668E-09  1.91436E-09  1.96027E-09
   2.00438E-09  2.04670E-09  2.08719E-09  2.12586E-09  2.16269E-09  2.19767E-09  2.23079E-09  2.26203E-09  2.29139E-09  2.31884E-09
   2.34440E-09  2.36803E-09  2.38973E-09  2.40949E-09  2.42730E-09  2.44315E-09  2.45703E-09  2.46893E-09  2.47884E-09  2.48676E-09
   2.49266E-09  2.49655E-09  2.49841E-09  2.49824E-09  2.49603E-09  2.49177E-09  2.48545E-09  2.47706E-09  2.46660E-09  2.45406E-09
   2.43943E-09  2.42271E-09  2.40389E-09  2.38296E-09  2.35991E-09  2.33475E-09  2.30746E-09  2.27803E-09  2.24648E-09  2.21278E-09
   2.17693E-09  2.13893E-09  2.09878E-09  2.05646E-09  2.01198E-09  1.96534E-09  1.91651E-09  1.86552E-09  1.81234E-09  1.75698E-09
   1.69944E-09  1.63971E-09  1.57779E-09
 Cr       Conc. = 1.09E-10
  -4.01828E-10 -1.65769E-10  2.98704E-11  1.44210E-10  2.30579E-10  3.39560E-10  4.59748E-10  5.85558E-10  7.14219E-10  8.44180E-10
   9.74496E-10  1.10454E-09  1.23388E-09  1.36220E-09  1.48923E-09  1.61479E-09  1.73870E-09  1.86080E-09  1.98094E-09  2.09896E-09
   2.21469E-09  2.32795E-09  2.43852E-09  2.54611E-09  2.65036E-09  2.75079E-09  2.84666E-09  2.93694E-09  3.01992E-09  3.09264E-09
   3.14961E-09  3.18830E-09  3.27271E-09  3.39548E-09  3.55577E-09  3.76662E-09  4.02982E-09  4.31490E-09  4.57749E-09  4.79759E-09
   4.98380E-09  5.12663E-09  5.17005E-09  5.09662E-09  5.08402E-09  5.10508E-09  5.14204E-09  5.18747E-09  5.23772E-09  5.29072E-09
   5.34523E-09  5.40042E-09  5.45579E-09  5.51094E-09  5.56556E-09  5.61947E-09  5.67253E-09  5.72463E-09  5.77565E-09  5.82558E-09
   5.87431E-09  5.92182E-09  5.96808E-09  6.01304E-09  6.05665E-09  6.09888E-09  6.13970E-09  6.17908E-09  6.21698E-09  6.25338E-09
   6.28826E-09  6.32158E-09  6.35333E-09  6.38347E-09  6.41198E-09  6.43885E-09  6.46401E-09  6.48750E-09  6.50923E-09  6.52923E-09
   6.54743E-09  6.56382E-09  6.57836E-09  6.59105E-09  6.60186E-09  6.61072E-09  6.61765E-09  6.62259E-09  6.62552E-09  6.62641E-09
   6.62522E-09  6.62195E-09  6.61654E-09  6.60895E-09  6.59917E-09  6.58715E-09  6.57286E-09  6.55627E-09  6.53735E-09  6.51607E-09
   6.49237E-09  6.46623E-09  6.43762E-09  6.40649E-09  6.37281E-09  6.33655E-09  6.29764E-09  6.25610E-09  6.21187E-09  6.16488E-09
   6.11515E-09  6.06256E-09  6.00716E-09  5.94884E-09  5.88762E-09  5.82342E-09  5.75623E-09  5.68600E-09  5.61269E-09  5.53633E-09
   5.45671E-09  5.37394E-09  5.28796E-09  5.19887E-09  5.10670E-09  5.01155E-09  4.91345E-09  4.81250E-09  4.70878E-09  4.60235E-09
   4.49331E-09  4.38173E-09  4.26768E-09  4.15127E-09  4.03256E-09  3.91167E-09  3.78867E-09  3.66365E-09  3.53673E-09  3.40797E-09
   3.27750E-09  3.14539E-09  3.01175E-09  2.87672E-09  2.74034E-09  2.60272E-09  2.46400E-09  2.32429E-09  2.18365E-09  2.04223E-09
   1.90015E-09  1.75745E-09  1.61431E-09  1.47084E-09  1.32710E-09  1.18322E-09  1.03935E-09  8.95575E-10  7.51997E-10  6.08787E-10
   4.65988E-10  3.23805E-10  1.82343E-10  4.18329E-11 -9.74062E-11 -2.34454E-10 -3.64863E-10 -4.72225E-10 -5.68624E-10 -6.57030E-10
  -7.37853E-10 -8.17899E-10 -9.10613E-10 -1.02514E-09 -1.15841E-09 -1.30283E-09 -1.46031E-09 -1.63796E-09 -1.81849E-09 -1.95183E-09
  -2.06985E-09 -2.18090E-09 -2.28705E-09 -2.38914E-09 -2.48756E-09 -2.58251E-09 -2.67409E-09 -2.76240E-09 -2.84746E-09 -2.92931E-09
  -3.00798E-09 -3.08347E-09 -3.15580E-09 -3.22497E-09 -3.29100E-09 -3.35391E-09 -3.41368E-09 -3.47033E-09 -3.52387E-09 -3.57430E-09
  -3.62164E-09 -3.66590E-09 -3.70710E-09 -3.74522E-09 -3.78031E-09 -3.81236E-09 -3.84141E-09 -3.86742E-09 -3.89047E-09 -3.91056E-09
  -3.92770E-09 -3.94189E-09 -3.95319E-09 -3.96158E-09 -3.96714E-09 -3.96984E-09 -3.96972E-09 -3.96681E-09 -3.96115E-09 -3.95274E-09
  -3.94162E-09 -3.92782E-09 -3.91137E-09 -3.89231E-09 -3.87067E-09 -3.84645E-09 -3.81974E-09 -3.79054E-09 -3.75887E-09 -3.72479E-09
