 LCModel (Version 6.3-1R) Copyright: S.W. Provencher.          Ref.: Magn. Reson. Med. 30:672-679 (1993).                
 onepulse 17x27_ftSpec_smooth_lcm
 26 lines in following concentration table = NCONC+1
    Conc.  %SD /Cr+PCr  Metabolite                                         
    0.000 999%   0.000 Ala                                                 
 1.37E-09  66%   4.826 Asp                                                 
    0.000 999%   0.000 Cr                                                  
 4.30E-10 191%   1.520 GABA                                                
 6.90E-10 179%   2.438 Glc                                                 
 2.47E-09  38%   8.740 Gln                                                 
    0.000 999%   0.000 Glu                                                 
    0.000 999%   0.000 Glyc                                                
    0.000 999%   0.000 GPC                                                 
 7.15E-10 130%   2.526 GSH                                                 
 2.11E-09  32%   7.450 Ins                                                 
    0.000 999%   0.000 Lac                                                 
 6.86E-10  44%   2.422 NAAG                                                
    0.000 999%   0.000 NAA                                                 
    0.000 999%   0.000 PCh                                                 
 2.83E-10 187%   1.000 PCr                                                 
 2.56E-09  46%   9.047 PE                                                  
 3.08E-10 129%   1.089 Scyllo                                              
    0.000 999%   0.000 Ser                                                 
    0.000 999%   0.000 Tau                                                 
    0.000 999%   0.000 GPC+PCh                                             
 6.86E-10  44%   2.422 NAA+NAAG                                            
 2.11E-09  32%   7.450 Ins+Glyc                                            
 2.83E-10 187%   1.000 Cr+PCr                                              
 2.47E-09  38%   8.740 Glu+Gln                                             
   6 lines in following misc. output table
  FWHM = 0.123 ppm    S/N =   3                                            
  Data shift = 0.402 ppm                                                   
  Ph: -26 deg     -37.5 deg/ppm                                            
  alphaB,S = 3.0E-01,   2.6E+01                                            
   10 spline knots.   Ns = 5(1)                                            
  ( 8) 3 infls.   ( 3) 3 extrs.                                            
  363 points on ppm-axis = NY
      4.250000     4.238821     4.227641     4.216462     4.205282     4.194103     4.182923     4.171744     4.160564     4.149385
      4.138206     4.127026     4.115847     4.104667     4.093488     4.082308     4.071129     4.059949     4.048770     4.037591
      4.026411     4.015232     4.004052     3.992873     3.981693     3.970514     3.959334     3.948155     3.936975     3.925796
      3.914617     3.903437     3.892258     3.881078     3.869899     3.858719     3.847540     3.836360     3.825181     3.814002
      3.802822     3.791643     3.780463     3.769284     3.758104     3.746925     3.735745     3.724566     3.713387     3.702207
      3.691028     3.679848     3.668669     3.657489     3.646310     3.635130     3.623951     3.612772     3.601592     3.590413
      3.579233     3.568054     3.556874     3.545695     3.534515     3.523336     3.512156     3.500977     3.489798     3.478618
      3.467439     3.456259     3.445080     3.433900     3.422721     3.411541     3.400362     3.389183     3.378003     3.366824
      3.355644     3.344465     3.333285     3.322106     3.310926     3.299747     3.288568     3.277388     3.266209     3.255029
      3.243850     3.232670     3.221491     3.210311     3.199132     3.187953     3.176773     3.165594     3.154414     3.143235
      3.132055     3.120876     3.109696     3.098517     3.087337     3.076158     3.064979     3.053799     3.042620     3.031440
      3.020261     3.009081     2.997902     2.986722     2.975543     2.964364     2.953184     2.942005     2.930825     2.919646
      2.908466     2.897287     2.886107     2.874928     2.863749     2.852569     2.841390     2.830210     2.819031     2.807851
      2.796672     2.785492     2.774313     2.763134     2.751954     2.740775     2.729595     2.718416     2.707236     2.696057
      2.684877     2.673698     2.662519     2.651339     2.640160     2.628980     2.617801     2.606621     2.595442     2.584262
      2.573083     2.561903     2.550724     2.539545     2.528365     2.517186     2.506006     2.494827     2.483647     2.472468
      2.461288     2.450109     2.438930     2.427750     2.416571     2.405391     2.394212     2.383032     2.371853     2.360673
      2.349494     2.338315     2.327135     2.315956     2.304776     2.293597     2.282417     2.271238     2.260058     2.248879
      2.237700     2.226520     2.215341     2.204161     2.192982     2.181802     2.170623     2.159443     2.148264     2.137084
      2.125905     2.114726     2.103546     2.092367     2.081187     2.070008     2.058828     2.047649     2.036469     2.025290
      2.014111     2.002931     1.991752     1.980572     1.969393     1.958213     1.947034     1.935854     1.924675     1.913496
      1.902316     1.891137     1.879957     1.868778     1.857598     1.846419     1.835239     1.824060     1.812881     1.801701
      1.790522     1.779342     1.768163     1.756983     1.745804     1.734624     1.723445     1.712265     1.701086     1.689907
      1.678727     1.667548     1.656368     1.645189     1.634009     1.622830     1.611650     1.600471     1.589292     1.578112
      1.566933     1.555753     1.544574     1.533394     1.522215     1.511035     1.499856     1.488677     1.477497     1.466318
      1.455138     1.443959     1.432779     1.421600     1.410420     1.399241     1.388062     1.376882     1.365703     1.354523
      1.343344     1.332164     1.320985     1.309805     1.298626     1.287446     1.276267     1.265088     1.253908     1.242729
      1.231549     1.220370     1.209190     1.198011     1.186831     1.175652     1.164473     1.153293     1.142114     1.130934
      1.119755     1.108575     1.097396     1.086216     1.075037     1.063858     1.052678     1.041499     1.030319     1.019140
      1.007960     0.996781     0.985601     0.974422     0.963243     0.952063     0.940884     0.929704     0.918525     0.907345
      0.896166     0.884986     0.873807     0.862628     0.851448     0.840269     0.829089     0.817910     0.806730     0.795551
      0.784371     0.773192     0.762012     0.750833     0.739654     0.728474     0.717295     0.706115     0.694936     0.683756
      0.672577     0.661397     0.650218     0.639039     0.627859     0.616680     0.605500     0.594321     0.583141     0.571962
      0.560782     0.549603     0.538424     0.527244     0.516065     0.504885     0.493706     0.482526     0.471347     0.460167
      0.448988     0.437809     0.426629     0.415450     0.404270     0.393091     0.381911     0.370732     0.359552     0.348373
      0.337193     0.326014     0.314835     0.303655     0.292476     0.281296     0.270117     0.258937     0.247758     0.236578
      0.225399     0.214220     0.203040
 NY phased data points follow
   1.18644E-08  1.14682E-08  1.10371E-08  1.12892E-08  1.14323E-08  1.19649E-08  1.20536E-08  1.24579E-08  1.27217E-08  1.32141E-08
   1.34229E-08  1.25888E-08  1.20032E-08  1.23032E-08  1.19164E-08  1.17867E-08  1.08030E-08  1.06047E-08  1.08149E-08  1.15355E-08
   1.24172E-08  1.24754E-08  1.11161E-08  1.07731E-08  1.02757E-08  1.08333E-08  1.24779E-08  1.36343E-08  1.44637E-08  1.34170E-08
   1.23274E-08  1.05809E-08  9.44642E-09  9.19976E-09  8.64272E-09  8.46735E-09  8.96805E-09  8.49516E-09  8.51528E-09  8.05288E-09
   7.92267E-09  7.62094E-09  6.85817E-09  7.09590E-09  6.67518E-09  7.08837E-09  7.58778E-09  7.94804E-09  7.72635E-09  7.04469E-09
   6.85066E-09  6.50990E-09  7.08965E-09  7.23486E-09  7.57037E-09  7.78700E-09  7.54674E-09  9.21688E-09  1.18823E-08  1.34986E-08
   1.35688E-08  1.20278E-08  1.16012E-08  9.81957E-09  9.31200E-09  8.30059E-09  8.55213E-09  7.56771E-09  7.45734E-09  7.26044E-09
   7.29010E-09  6.93558E-09  6.77028E-09  7.69521E-09  1.19354E-08  1.61682E-08  1.88294E-08  1.79987E-08  1.62284E-08  1.44081E-08
   1.41078E-08  1.30185E-08  1.29292E-08  1.18397E-08  1.19969E-08  1.18763E-08  1.14872E-08  1.04867E-08  1.02400E-08  9.69612E-09
   9.97573E-09  8.40302E-09  9.07016E-09  7.84450E-09  8.13476E-09  7.59879E-09  7.67767E-09  7.54954E-09  8.32332E-09  7.37381E-09
   8.07298E-09  7.30549E-09  7.60323E-09  7.07864E-09  5.88649E-09  5.66862E-09  5.01931E-09  4.50099E-09  5.54139E-09  5.66641E-09
   6.31595E-09  5.52721E-09  5.94497E-09  6.13361E-09  6.49290E-09  6.33041E-09  7.35096E-09  6.61952E-09  6.38352E-09  5.95172E-09
   5.31598E-09  4.50994E-09  4.86606E-09  4.78860E-09  5.17917E-09  4.96563E-09  4.93483E-09  4.79707E-09  5.64394E-09  5.27943E-09
   5.47155E-09  5.38411E-09  5.02988E-09  4.68948E-09  5.78789E-09  6.32041E-09  7.47732E-09  8.25961E-09  8.51185E-09  8.09608E-09
   8.47783E-09  8.58376E-09  9.65995E-09  1.02527E-08  1.01086E-08  9.88436E-09  9.96601E-09  9.67860E-09  9.49761E-09  8.89547E-09
   9.56693E-09  9.22745E-09  9.20474E-09  9.32756E-09  9.00593E-09  8.74156E-09  9.27957E-09  9.58976E-09  9.49545E-09  8.85944E-09
   9.25937E-09  8.57528E-09  8.81194E-09  8.40388E-09  8.63432E-09  9.33366E-09  1.44647E-08  2.01377E-08  2.35378E-08  2.34445E-08
   2.21224E-08  2.18416E-08  2.11933E-08  1.99011E-08  1.96157E-08  1.89260E-08  1.87463E-08  1.81425E-08  1.79424E-08  1.69065E-08
   1.64461E-08  1.55712E-08  1.39512E-08  1.29467E-08  1.13535E-08  9.45175E-09  8.22507E-09  5.29680E-09  2.96528E-09  3.76365E-10
  -2.91284E-09 -5.56346E-09 -8.23256E-09 -1.08983E-08 -1.35083E-08 -1.52851E-08 -1.73773E-08 -1.83847E-08 -1.90679E-08 -1.96796E-08
  -1.90991E-08 -1.81973E-08 -1.69900E-08 -1.50127E-08 -1.30039E-08 -1.14266E-08 -8.68618E-09 -6.98601E-09 -5.44246E-09 -4.14173E-09
  -3.25958E-09 -2.37443E-09 -2.76996E-09 -2.72595E-09 -2.80092E-09 -3.49303E-09 -2.97228E-09 -3.29513E-09 -3.23751E-09 -2.67883E-09
  -1.99533E-09 -1.85462E-09 -1.89169E-09 -2.05880E-09 -1.57120E-09 -2.14110E-09 -1.90252E-09 -2.14388E-09 -2.44989E-09 -2.27615E-09
  -2.13950E-09 -2.40881E-09 -1.68826E-09 -1.45453E-09 -9.94239E-10 -1.74804E-09 -1.64562E-09 -1.83774E-09 -1.90532E-09 -1.62355E-09
  -1.96498E-09 -2.29477E-09 -2.09858E-09 -2.26579E-09 -1.78632E-09 -1.78769E-09 -1.71473E-09 -1.76179E-09 -1.14458E-09 -1.02900E-09
  -1.08093E-09 -1.04740E-09 -4.29179E-10 -9.31252E-10 -7.93425E-10 -1.18902E-09 -1.13738E-09 -1.49705E-09 -2.03977E-09 -1.78739E-09
  -2.30293E-09 -2.78164E-09 -2.75480E-09 -2.80436E-09 -2.55702E-09 -2.59628E-09 -2.33311E-09 -2.02261E-09 -1.48152E-09 -1.71618E-09
  -1.51339E-09 -8.59257E-10 -6.13701E-10 -7.81981E-10 -6.64703E-10 -1.57624E-10 -3.71437E-10 -3.14872E-10 -9.33201E-10 -1.61677E-10
  -5.99294E-10 -8.59684E-10 -3.24739E-10 -9.68449E-10 -9.80575E-10 -9.13134E-10 -1.13147E-09 -1.54698E-09 -1.06941E-09 -1.02236E-09
  -1.36274E-09 -1.58413E-09 -1.43720E-09 -1.48912E-09 -2.07849E-09 -1.45571E-09 -1.45677E-09 -1.98891E-09 -1.54357E-09 -2.19859E-09
  -1.66257E-09 -2.00301E-09 -2.19641E-09 -1.82472E-09 -2.18535E-09 -2.23552E-09 -2.35907E-09 -2.42568E-09 -2.58763E-09 -2.60094E-09
  -2.46007E-09 -3.10891E-09 -2.43043E-09 -2.70170E-09 -2.55644E-09 -2.94305E-09 -2.67076E-09 -2.47468E-09 -2.81656E-09 -2.93240E-09
  -2.28869E-09 -3.02228E-09 -3.02878E-09 -3.10155E-09 -2.66769E-09 -2.60279E-09 -2.60029E-09 -3.05653E-09 -3.38277E-09 -2.38578E-09
  -3.16965E-09 -2.28508E-09 -3.03897E-09 -2.91291E-09 -3.28143E-09 -2.65291E-09 -3.00393E-09 -3.14552E-09 -2.86491E-09 -2.82034E-09
  -3.15725E-09 -2.90355E-09 -3.25564E-09 -2.95498E-09 -2.82286E-09 -3.27025E-09 -3.34033E-09 -3.15119E-09 -3.00040E-09 -3.43145E-09
  -3.23451E-09 -3.24193E-09 -3.36451E-09 -2.88789E-09 -3.11890E-09 -3.36371E-09 -3.66300E-09 -2.98789E-09 -3.13039E-09 -3.10146E-09
  -3.28246E-09 -3.06689E-09 -3.29644E-09
 NY points of the fit to the data follow
   1.26984E-08  1.22596E-08  1.15999E-08  1.09904E-08  1.11006E-08  1.16990E-08  1.18821E-08  1.20155E-08  1.28268E-08  1.33420E-08
   1.30356E-08  1.26810E-08  1.22228E-08  1.22400E-08  1.21809E-08  1.16806E-08  1.14249E-08  1.17368E-08  1.16201E-08  1.05017E-08
   9.90942E-09  1.06391E-08  1.13658E-08  1.19377E-08  1.23600E-08  1.30257E-08  1.35974E-08  1.34544E-08  1.25135E-08  1.16051E-08
   1.12286E-08  1.07284E-08  1.01404E-08  9.90547E-09  9.43343E-09  8.76655E-09  8.16609E-09  7.97986E-09  7.96530E-09  7.86929E-09
   7.70684E-09  7.44820E-09  6.99730E-09  6.67451E-09  6.69620E-09  6.78099E-09  6.72394E-09  6.34903E-09  6.39284E-09  6.67734E-09
   7.12628E-09  7.58745E-09  7.88979E-09  8.17592E-09  8.84127E-09  9.41947E-09  9.78988E-09  1.06921E-08  1.14318E-08  1.13827E-08
   1.12707E-08  1.12102E-08  1.11879E-08  1.09825E-08  1.04144E-08  9.84070E-09  9.56847E-09  9.10698E-09  8.42392E-09  8.40954E-09
   8.85072E-09  9.40339E-09  1.00558E-08  1.06169E-08  1.14631E-08  1.27010E-08  1.42843E-08  1.54545E-08  1.58389E-08  1.56692E-08
   1.52254E-08  1.45125E-08  1.37573E-08  1.34024E-08  1.29423E-08  1.17647E-08  1.02493E-08  8.90630E-09  8.27179E-09  7.92408E-09
   7.66748E-09  7.50688E-09  7.40566E-09  7.26779E-09  7.12013E-09  7.06672E-09  6.98515E-09  6.88204E-09  6.83404E-09  6.77902E-09
   6.74548E-09  6.74147E-09  6.73858E-09  6.73961E-09  6.75124E-09  6.77024E-09  6.79404E-09  6.82132E-09  6.85058E-09  6.88149E-09
   6.91350E-09  6.94607E-09  6.97885E-09  7.01147E-09  7.04369E-09  7.07525E-09  7.10590E-09  7.13540E-09  7.16353E-09  7.19012E-09
   7.21499E-09  7.23798E-09  7.25891E-09  7.27764E-09  7.29402E-09  7.30790E-09  7.31915E-09  7.32762E-09  7.33319E-09  7.33573E-09
   7.33510E-09  7.33120E-09  7.32389E-09  7.31307E-09  7.29861E-09  7.28041E-09  7.25835E-09  7.23233E-09  7.20225E-09  7.16801E-09
   7.12951E-09  7.08667E-09  7.03940E-09  6.98764E-09  6.93131E-09  6.87035E-09  6.80474E-09  6.73444E-09  6.65947E-09  6.57985E-09
   6.49564E-09  6.40698E-09  6.31406E-09  6.21717E-09  6.11676E-09  6.01345E-09  5.90824E-09  5.80279E-09  5.69966E-09  5.60259E-09
   5.51750E-09  5.45439E-09  5.43168E-09  5.48740E-09  5.71404E-09  6.40205E-09  8.94130E-09  1.68245E-08  2.29822E-08  2.49896E-08
   2.42746E-08  2.28850E-08  2.17669E-08  2.11851E-08  2.12275E-08  2.12461E-08  1.94073E-08  1.36509E-08  5.88750E-09  3.63560E-09
   2.70603E-09  2.14612E-09  1.73553E-09  1.39957E-09  1.10635E-09  8.40236E-10  5.92638E-10  3.58578E-10  1.35066E-10 -7.98325E-11
  -2.87347E-10 -4.88239E-10 -6.83042E-10 -8.72000E-10 -1.05533E-09 -1.23306E-09 -1.40519E-09 -1.57163E-09 -1.73232E-09 -1.88708E-09
  -2.03576E-09 -2.17818E-09 -2.31415E-09 -2.44346E-09 -2.56588E-09 -2.68121E-09 -2.78918E-09 -2.88961E-09 -2.98231E-09 -3.06748E-09
  -3.14533E-09 -3.21606E-09 -3.27987E-09 -3.33698E-09 -3.38759E-09 -3.43190E-09 -3.47010E-09 -3.50239E-09 -3.52899E-09 -3.55008E-09
  -3.56585E-09 -3.57651E-09 -3.58226E-09 -3.58327E-09 -3.57976E-09 -3.57191E-09 -3.55990E-09 -3.54397E-09 -3.52429E-09 -3.50102E-09
  -3.47438E-09 -3.44458E-09 -3.41178E-09 -3.37620E-09 -3.33801E-09 -3.29742E-09 -3.25462E-09 -3.20979E-09 -3.16312E-09 -3.11482E-09
  -3.06506E-09 -3.01404E-09 -2.96196E-09 -2.90900E-09 -2.85535E-09 -2.80121E-09 -2.74678E-09 -2.69224E-09 -2.63776E-09 -2.58355E-09
  -2.52981E-09 -2.47673E-09 -2.42448E-09 -2.37326E-09 -2.32329E-09 -2.27470E-09 -2.22774E-09 -2.18256E-09 -2.13938E-09 -2.09839E-09
  -2.05964E-09 -2.02312E-09 -1.98880E-09 -1.95663E-09 -1.92656E-09 -1.89857E-09 -1.87260E-09 -1.84863E-09 -1.82661E-09 -1.80649E-09
  -1.78825E-09 -1.77184E-09 -1.75722E-09 -1.74435E-09 -1.73318E-09 -1.72369E-09 -1.71583E-09 -1.70956E-09 -1.70482E-09 -1.70162E-09
  -1.69986E-09 -1.69956E-09 -1.70062E-09 -1.70303E-09 -1.70676E-09 -1.71177E-09 -1.71798E-09 -1.72539E-09 -1.73396E-09 -1.74364E-09
  -1.75438E-09 -1.76614E-09 -1.77889E-09 -1.79260E-09 -1.80720E-09 -1.82269E-09 -1.83899E-09 -1.85607E-09 -1.87390E-09 -1.89245E-09
  -1.91167E-09 -1.93149E-09 -1.95192E-09 -1.97288E-09 -1.99434E-09 -2.01629E-09 -2.03866E-09 -2.06139E-09 -2.08450E-09 -2.10788E-09
  -2.13155E-09 -2.15546E-09 -2.17955E-09 -2.20385E-09 -2.22833E-09 -2.25300E-09 -2.27784E-09 -2.30285E-09 -2.32802E-09 -2.35335E-09
  -2.37881E-09 -2.40442E-09 -2.43015E-09 -2.45600E-09 -2.48197E-09 -2.50804E-09 -2.53421E-09 -2.56047E-09 -2.58680E-09 -2.61322E-09
  -2.63970E-09 -2.66623E-09 -2.69282E-09 -2.71945E-09 -2.74611E-09 -2.77280E-09 -2.79951E-09 -2.82623E-09 -2.85295E-09 -2.87967E-09
  -2.90638E-09 -2.93306E-09 -2.95972E-09 -2.98634E-09 -3.01292E-09 -3.03944E-09 -3.06591E-09 -3.09231E-09 -3.11863E-09 -3.14487E-09
  -3.17102E-09 -3.19707E-09 -3.22301E-09 -3.24884E-09 -3.27454E-09 -3.30012E-09 -3.32556E-09 -3.35084E-09 -3.37598E-09 -3.40096E-09
  -3.42576E-09 -3.45039E-09 -3.47484E-09
 NY background values follow
    -2.872E-09   -2.782E-09   -2.693E-09   -2.603E-09   -2.513E-09   -2.423E-09   -2.334E-09   -2.244E-09   -2.154E-09   -2.065E-09
    -1.975E-09   -1.885E-09   -1.796E-09   -1.707E-09   -1.617E-09   -1.528E-09   -1.439E-09   -1.350E-09   -1.261E-09   -1.172E-09
    -1.083E-09   -9.941E-10   -9.056E-10   -8.172E-10   -7.289E-10   -6.408E-10   -5.528E-10   -4.650E-10   -3.774E-10   -2.899E-10
    -2.026E-10   -1.156E-10   -2.868E-11    5.799E-11    1.444E-10    2.307E-10    3.167E-10    4.024E-10    4.879E-10    5.732E-10
     6.582E-10    7.429E-10    8.274E-10    9.116E-10    9.954E-10    1.079E-09    1.162E-09    1.245E-09    1.328E-09    1.410E-09
     1.492E-09    1.574E-09    1.655E-09    1.736E-09    1.817E-09    1.897E-09    1.977E-09    2.056E-09    2.135E-09    2.214E-09
     2.293E-09    2.370E-09    2.448E-09    2.525E-09    2.602E-09    2.678E-09    2.754E-09    2.830E-09    2.905E-09    2.979E-09
     3.053E-09    3.127E-09    3.201E-09    3.273E-09    3.346E-09    3.418E-09    3.489E-09    3.560E-09    3.631E-09    3.701E-09
     3.770E-09    3.839E-09    3.908E-09    3.976E-09    4.044E-09    4.111E-09    4.177E-09    4.243E-09    4.309E-09    4.374E-09
     4.439E-09    4.502E-09    4.566E-09    4.629E-09    4.691E-09    4.753E-09    4.814E-09    4.875E-09    4.935E-09    4.994E-09
     5.053E-09    5.111E-09    5.169E-09    5.226E-09    5.283E-09    5.339E-09    5.394E-09    5.448E-09    5.501E-09    5.554E-09
     5.604E-09    5.654E-09    5.702E-09    5.749E-09    5.794E-09    5.837E-09    5.878E-09    5.917E-09    5.954E-09    5.989E-09
     6.021E-09    6.052E-09    6.079E-09    6.104E-09    6.126E-09    6.145E-09    6.161E-09    6.174E-09    6.184E-09    6.190E-09
     6.193E-09    6.192E-09    6.188E-09    6.180E-09    6.168E-09    6.152E-09    6.131E-09    6.107E-09    6.078E-09    6.045E-09
     6.007E-09    5.964E-09    5.917E-09    5.865E-09    5.807E-09    5.745E-09    5.677E-09    5.604E-09    5.525E-09    5.441E-09
     5.351E-09    5.256E-09    5.154E-09    5.046E-09    4.932E-09    4.812E-09    4.686E-09    4.553E-09    4.415E-09    4.271E-09
     4.121E-09    3.967E-09    3.807E-09    3.643E-09    3.475E-09    3.303E-09    3.127E-09    2.948E-09    2.765E-09    2.580E-09
     2.392E-09    2.201E-09    2.008E-09    1.814E-09    1.618E-09    1.420E-09    1.222E-09    1.023E-09    8.230E-10    6.231E-10
     4.232E-10    2.236E-10    2.456E-11   -1.736E-10   -3.707E-10   -5.663E-10   -7.604E-10   -9.525E-10   -1.142E-09   -1.330E-09
    -1.514E-09   -1.696E-09   -1.875E-09   -2.049E-09   -2.221E-09   -2.388E-09   -2.550E-09   -2.708E-09   -2.861E-09   -3.009E-09
    -3.152E-09   -3.289E-09   -3.420E-09   -3.544E-09   -3.662E-09   -3.774E-09   -3.878E-09   -3.975E-09   -4.065E-09   -4.147E-09
    -4.222E-09   -4.290E-09   -4.351E-09   -4.406E-09   -4.455E-09   -4.497E-09   -4.533E-09   -4.563E-09   -4.588E-09   -4.608E-09
    -4.622E-09   -4.631E-09   -4.635E-09   -4.635E-09   -4.630E-09   -4.621E-09   -4.607E-09   -4.590E-09   -4.569E-09   -4.545E-09
    -4.517E-09   -4.486E-09   -4.452E-09   -4.416E-09   -4.377E-09   -4.335E-09   -4.291E-09   -4.246E-09   -4.198E-09   -4.149E-09
    -4.098E-09   -4.046E-09   -3.993E-09   -3.940E-09   -3.885E-09   -3.830E-09   -3.775E-09   -3.720E-09   -3.665E-09   -3.610E-09
    -3.555E-09   -3.502E-09   -3.449E-09   -3.397E-09   -3.346E-09   -3.297E-09   -3.249E-09   -3.204E-09   -3.160E-09   -3.118E-09
    -3.079E-09   -3.042E-09   -3.007E-09   -2.974E-09   -2.944E-09   -2.915E-09   -2.888E-09   -2.864E-09   -2.841E-09   -2.821E-09
    -2.802E-09   -2.785E-09   -2.770E-09   -2.756E-09   -2.745E-09   -2.735E-09   -2.726E-09   -2.720E-09   -2.714E-09   -2.711E-09
    -2.708E-09   -2.708E-09   -2.708E-09   -2.710E-09   -2.713E-09   -2.718E-09   -2.724E-09   -2.731E-09   -2.739E-09   -2.748E-09
    -2.758E-09   -2.770E-09   -2.782E-09   -2.795E-09   -2.809E-09   -2.824E-09   -2.840E-09   -2.857E-09   -2.874E-09   -2.892E-09
    -2.911E-09   -2.930E-09   -2.950E-09   -2.971E-09   -2.992E-09   -3.013E-09   -3.035E-09   -3.057E-09   -3.080E-09   -3.103E-09
    -3.126E-09   -3.150E-09   -3.173E-09   -3.197E-09   -3.221E-09   -3.245E-09   -3.270E-09   -3.294E-09   -3.319E-09   -3.344E-09
    -3.369E-09   -3.394E-09   -3.419E-09   -3.445E-09   -3.470E-09   -3.496E-09   -3.522E-09   -3.548E-09   -3.573E-09   -3.599E-09
    -3.625E-09   -3.651E-09   -3.678E-09   -3.704E-09   -3.730E-09   -3.756E-09   -3.782E-09   -3.809E-09   -3.835E-09   -3.861E-09
    -3.887E-09   -3.914E-09   -3.940E-09   -3.966E-09   -3.992E-09   -4.018E-09   -4.044E-09   -4.070E-09   -4.096E-09   -4.122E-09
    -4.147E-09   -4.173E-09   -4.198E-09   -4.224E-09   -4.249E-09   -4.274E-09   -4.299E-09   -4.324E-09   -4.348E-09   -4.373E-09
    -4.397E-09   -4.421E-09   -4.445E-09
 Asp      Conc. = 1.37E-09
  -1.44768E-09 -1.58288E-09 -1.64442E-09 -1.72950E-09 -1.75285E-09 -1.83319E-09 -1.91853E-09 -1.97045E-09 -1.94553E-09 -1.89221E-09
  -1.82564E-09 -1.75140E-09 -1.67148E-09 -1.58713E-09 -1.50167E-09 -1.41537E-09 -1.32818E-09 -1.24017E-09 -1.15151E-09 -1.06223E-09
  -9.72405E-10 -8.82055E-10 -7.91155E-10 -6.99683E-10 -6.07586E-10 -5.14740E-10 -4.21011E-10 -3.26177E-10 -2.29951E-10 -1.31885E-10
  -3.13296E-11  7.26593E-11  1.81754E-10  2.98826E-10  4.29768E-10  5.89100E-10  8.11726E-10  1.00767E-09  1.20531E-09  1.32230E-09
   1.38292E-09  1.45599E-09  1.64874E-09  2.00078E-09  2.48206E-09  3.01456E-09  3.22338E-09  3.15469E-09  3.26177E-09  3.43261E-09
   3.64548E-09  3.84140E-09  3.93048E-09  3.79393E-09  3.48305E-09  3.18982E-09  3.05666E-09  3.18719E-09  3.19489E-09  3.01604E-09
   2.96786E-09  2.95015E-09  2.92286E-09  2.98658E-09  3.08692E-09  3.12729E-09  3.10144E-09  3.11785E-09  3.15443E-09  3.20151E-09
   3.25480E-09  3.31209E-09  3.37207E-09  3.43391E-09  3.49705E-09  3.56111E-09  3.62580E-09  3.69091E-09  3.75629E-09  3.82179E-09
   3.88732E-09  3.95279E-09  4.01815E-09  4.08333E-09  4.14828E-09  4.21297E-09  4.27735E-09  4.34141E-09  4.40512E-09  4.46844E-09
   4.53136E-09  4.59387E-09  4.65595E-09  4.71757E-09  4.77873E-09  4.83941E-09  4.89962E-09  4.95932E-09  5.01851E-09  5.07718E-09
   5.13531E-09  5.19292E-09  5.24999E-09  5.30649E-09  5.36245E-09  5.41776E-09  5.47233E-09  5.52605E-09  5.57879E-09  5.63045E-09
   5.68091E-09  5.73006E-09  5.77778E-09  5.82396E-09  5.86850E-09  5.91126E-09  5.95215E-09  5.99105E-09  6.02785E-09  6.06243E-09
   6.09468E-09  6.12449E-09  6.15174E-09  6.17634E-09  6.19815E-09  6.21708E-09  6.23300E-09  6.24581E-09  6.25539E-09  6.26164E-09
   6.26444E-09  6.26367E-09  6.25924E-09  6.25102E-09  6.23891E-09  6.22278E-09  6.20255E-09  6.17809E-09  6.14929E-09  6.11605E-09
   6.07825E-09  6.03578E-09  5.98855E-09  5.93644E-09  5.87934E-09  5.81715E-09  5.74977E-09  5.67709E-09  5.59901E-09  5.51546E-09
   5.42632E-09  5.33152E-09  5.23098E-09  5.12464E-09  5.01244E-09  4.89437E-09  4.77048E-09  4.64111E-09  4.50681E-09  4.36825E-09
   4.22638E-09  4.08258E-09  3.93930E-09  3.80126E-09  3.67968E-09  3.60954E-09  3.75874E-09  4.52807E-09  5.08596E-09  5.15392E-09
   4.90238E-09  4.57132E-09  4.27091E-09  4.03212E-09  3.86494E-09  3.69208E-09  3.29710E-09  2.44071E-09  1.35686E-09  9.19877E-10
   6.35053E-10  3.93344E-10  1.69533E-10 -4.48059E-11 -2.53174E-10 -4.57116E-10 -6.57429E-10 -8.54472E-10 -1.04832E-09 -1.23898E-09
  -1.42637E-09 -1.61031E-09 -1.79067E-09 -1.96719E-09 -2.13970E-09 -2.30794E-09 -2.47170E-09 -2.63069E-09 -2.78471E-09 -2.93347E-09
  -3.07672E-09 -3.21421E-09 -3.34567E-09 -3.47085E-09 -3.58948E-09 -3.70130E-09 -3.80602E-09 -3.90342E-09 -3.99330E-09 -4.07584E-09
  -4.15122E-09 -4.21962E-09 -4.28125E-09 -4.33630E-09 -4.38495E-09 -4.42741E-09 -4.46385E-09 -4.49448E-09 -4.51948E-09 -4.53905E-09
  -4.55336E-09 -4.56263E-09 -4.56704E-09 -4.56677E-09 -4.56203E-09 -4.55299E-09 -4.53984E-09 -4.52280E-09 -4.50205E-09 -4.47775E-09
  -4.45012E-09 -4.41935E-09 -4.38561E-09 -4.34911E-09 -4.31004E-09 -4.26859E-09 -4.22495E-09 -4.17929E-09 -4.13183E-09 -4.08275E-09
  -4.03223E-09 -3.98046E-09 -3.92765E-09 -3.87398E-09 -3.81964E-09 -3.76481E-09 -3.70971E-09 -3.65452E-09 -3.59939E-09 -3.54455E-09
  -3.49018E-09 -3.43649E-09 -3.38364E-09 -3.33182E-09 -3.28126E-09 -3.23210E-09 -3.18457E-09 -3.13884E-09 -3.09510E-09 -3.05357E-09
  -3.01428E-09 -2.97723E-09 -2.94239E-09 -2.90969E-09 -2.87911E-09 -2.85061E-09 -2.82414E-09 -2.79968E-09 -2.77716E-09 -2.75655E-09
  -2.73783E-09 -2.72093E-09 -2.70584E-09 -2.69249E-09 -2.68086E-09 -2.67090E-09 -2.66258E-09 -2.65585E-09 -2.65066E-09 -2.64700E-09
  -2.64479E-09 -2.64404E-09 -2.64466E-09 -2.64663E-09 -2.64992E-09 -2.65449E-09 -2.66027E-09 -2.66724E-09 -2.67538E-09 -2.68463E-09
  -2.69494E-09 -2.70627E-09 -2.71859E-09 -2.73188E-09 -2.74605E-09 -2.76112E-09 -2.77700E-09 -2.79366E-09 -2.81107E-09 -2.82920E-09
  -2.84800E-09 -2.86740E-09 -2.88742E-09 -2.90796E-09 -2.92901E-09 -2.95054E-09 -2.97249E-09 -2.99481E-09 -3.01750E-09 -3.04047E-09
  -3.06372E-09 -3.08722E-09 -3.11090E-09 -3.13477E-09 -3.15884E-09 -3.18310E-09 -3.20752E-09 -3.23212E-09 -3.25687E-09 -3.28178E-09
  -3.30683E-09 -3.33202E-09 -3.35733E-09 -3.38276E-09 -3.40831E-09 -3.43396E-09 -3.45971E-09 -3.48554E-09 -3.51146E-09 -3.53745E-09
  -3.56350E-09 -3.58962E-09 -3.61577E-09 -3.64198E-09 -3.66821E-09 -3.69447E-09 -3.72075E-09 -3.74704E-09 -3.77333E-09 -3.79961E-09
  -3.82588E-09 -3.85212E-09 -3.87834E-09 -3.90452E-09 -3.93065E-09 -3.95673E-09 -3.98276E-09 -4.00870E-09 -4.03458E-09 -4.06036E-09
  -4.08606E-09 -4.11165E-09 -4.13714E-09 -4.16250E-09 -4.18774E-09 -4.21286E-09 -4.23783E-09 -4.26265E-09 -4.28732E-09 -4.31182E-09
  -4.33615E-09 -4.36030E-09 -4.38426E-09
 GABA     Conc. = 4.30E-10
  -2.82664E-09 -2.73636E-09 -2.64602E-09 -2.55562E-09 -2.46516E-09 -2.37465E-09 -2.28408E-09 -2.19345E-09 -2.10276E-09 -2.01199E-09
  -1.92115E-09 -1.83022E-09 -1.73915E-09 -1.64799E-09 -1.55664E-09 -1.46509E-09 -1.37339E-09 -1.28134E-09 -1.18888E-09 -1.09595E-09
  -1.00236E-09 -9.07832E-10 -8.12024E-10 -7.14391E-10 -6.14096E-10 -5.09695E-10 -3.98322E-10 -2.73893E-10 -1.20026E-10  1.06087E-10
   2.75216E-10  4.01980E-10  6.63641E-10  9.05495E-10  1.03046E-09  1.16975E-09  1.31602E-09  1.42445E-09  1.46935E-09  1.45958E-09
   1.44592E-09  1.50267E-09  1.46400E-09  1.34570E-09  1.37874E-09  1.42038E-09  1.38863E-09  1.41286E-09  1.46710E-09  1.53377E-09
   1.60709E-09  1.68428E-09  1.76416E-09  1.84633E-09  1.93064E-09  2.01717E-09  2.10650E-09  2.19976E-09  2.29908E-09  2.40894E-09
   2.53964E-09  2.72229E-09  2.93837E-09  3.07904E-09  3.24617E-09  3.47766E-09  3.62222E-09  3.69866E-09  3.78113E-09  3.86065E-09
   3.90646E-09  3.89983E-09  3.85653E-09  3.84288E-09  3.85430E-09  3.76643E-09  3.72014E-09  3.78566E-09  3.81564E-09  3.85696E-09
   3.95890E-09  4.03221E-09  4.12040E-09  4.29146E-09  4.42339E-09  4.51757E-09  4.65672E-09  4.79116E-09  4.89583E-09  4.97868E-09
   5.03272E-09  5.09425E-09  5.16790E-09  5.16283E-09  5.14183E-09  5.19756E-09  5.20301E-09  5.17349E-09  5.19870E-09  5.22529E-09
   5.24331E-09  5.27373E-09  5.31167E-09  5.35398E-09  5.39895E-09  5.44544E-09  5.49278E-09  5.54052E-09  5.58828E-09  5.63576E-09
   5.68267E-09  5.72870E-09  5.77368E-09  5.81743E-09  5.85982E-09  5.90072E-09  5.93995E-09  5.97737E-09  6.01282E-09  6.04618E-09
   6.07732E-09  6.10613E-09  6.13247E-09  6.15621E-09  6.17725E-09  6.19546E-09  6.21071E-09  6.22290E-09  6.23191E-09  6.23761E-09
   6.23989E-09  6.23864E-09  6.23374E-09  6.22508E-09  6.21254E-09  6.19601E-09  6.17538E-09  6.15053E-09  6.12135E-09  6.08772E-09
   6.04953E-09  6.00668E-09  5.95905E-09  5.90653E-09  5.84900E-09  5.78635E-09  5.71848E-09  5.64528E-09  5.56663E-09  5.48244E-09
   5.39259E-09  5.29698E-09  5.19551E-09  5.08808E-09  4.97460E-09  4.85498E-09  4.72920E-09  4.59747E-09  4.46016E-09  4.31765E-09
   4.17044E-09  4.01913E-09  3.86468E-09  3.70875E-09  3.55502E-09  3.41461E-09  3.34028E-09  3.46078E-09  3.51242E-09  3.40700E-09
   3.19862E-09  2.96350E-09  2.73666E-09  2.52804E-09  2.34109E-09  2.15174E-09  1.89182E-09  1.48536E-09  1.00546E-09  7.30781E-10
   5.04131E-10  2.91254E-10  8.43940E-11 -1.18904E-10 -3.19576E-10 -5.17888E-10 -7.13930E-10 -9.07639E-10 -1.09882E-09 -1.28732E-09
  -1.47292E-09 -1.65536E-09 -1.83445E-09 -2.00988E-09 -2.18145E-09 -2.34888E-09 -2.51192E-09 -2.67028E-09 -2.82374E-09 -2.97200E-09
  -3.11480E-09 -3.25189E-09 -3.38298E-09 -3.50783E-09 -3.62615E-09 -3.73770E-09 -3.84216E-09 -3.93933E-09 -4.02900E-09 -4.11134E-09
  -4.18653E-09 -4.25476E-09 -4.31623E-09 -4.37113E-09 -4.41964E-09 -4.46197E-09 -4.49829E-09 -4.52880E-09 -4.55369E-09 -4.57316E-09
  -4.58738E-09 -4.59655E-09 -4.60087E-09 -4.60052E-09 -4.59570E-09 -4.58659E-09 -4.57337E-09 -4.55626E-09 -4.53544E-09 -4.51108E-09
