 LCModel (Version 6.3-1R) Copyright: S.W. Provencher.          Ref.: Magn. Reson. Med. 30:672-679 (1993).                
 onepulse 17x21_ftSpec_smooth_lcm
 26 lines in following concentration table = NCONC+1
    Conc.  %SD   /Cr    Metabolite                                         
    0.000 999%   0.000 Ala                                                 
    0.000 999%   0.000 Asp                                                 
    0.000 999%   0.000 Cr                                                  
 2.35E-09  15%   0.000 GABA                                                
 1.27E-09  27%   0.000 Glc                                                 
    0.000 999%   0.000 Gln                                                 
 9.03E-11 424%   0.000 Glu                                                 
    0.000 999%   0.000 Glyc                                                
 7.98E-11 511%   0.000 GPC                                                 
    0.000 999%   0.000 GSH                                                 
 2.98E-10  75%   0.000 Ins                                                 
    0.000 999%   0.000 Lac                                                 
    0.000 999%   0.000 NAAG                                                
 1.06E-09  15%   0.000 NAA                                                 
 2.05E-11 999%   0.000 PCh                                                 
    0.000 999%   0.000 PCr                                                 
    0.000 999%   0.000 PE                                                  
    0.000 999%   0.000 Scyllo                                              
 1.62E-09  29%   0.000 Ser                                                 
    0.000 999%   0.000 Tau                                                 
 1.00E-10  48%   0.000 GPC+PCh                                             
 1.06E-09  15%   0.000 NAA+NAAG                                            
 2.98E-10  75%   0.000 Ins+Glyc                                            
    0.000 999%   0.000 Cr+PCr                                              
 9.03E-11 424%   0.000 Glu+Gln                                             
   6 lines in following misc. output table
  FWHM = 0.078 ppm    S/N =   4                                            
  Data shift = 0.347 ppm                                                   
  Ph:  43 deg      16.8 deg/ppm                                            
  alphaB,S = 1.6E-01,   7.6E+01                                            
   16 spline knots.   Ns = 5(1)                                            
  ( 7) 2 infls.   ( 5) 1 extrs.                                            
  363 points on ppm-axis = NY
      4.250000     4.238821     4.227641     4.216462     4.205282     4.194103     4.182923     4.171744     4.160564     4.149385
      4.138206     4.127026     4.115847     4.104667     4.093488     4.082308     4.071129     4.059949     4.048770     4.037591
      4.026411     4.015232     4.004052     3.992873     3.981693     3.970514     3.959334     3.948155     3.936975     3.925796
      3.914617     3.903437     3.892258     3.881078     3.869899     3.858719     3.847540     3.836360     3.825181     3.814002
      3.802822     3.791643     3.780463     3.769284     3.758104     3.746925     3.735745     3.724566     3.713387     3.702207
      3.691028     3.679848     3.668669     3.657489     3.646310     3.635130     3.623951     3.612772     3.601592     3.590413
      3.579233     3.568054     3.556874     3.545695     3.534515     3.523336     3.512156     3.500977     3.489798     3.478618
      3.467439     3.456259     3.445080     3.433900     3.422721     3.411541     3.400362     3.389183     3.378003     3.366824
      3.355644     3.344465     3.333285     3.322106     3.310926     3.299747     3.288568     3.277388     3.266209     3.255029
      3.243850     3.232670     3.221491     3.210311     3.199132     3.187953     3.176773     3.165594     3.154414     3.143235
      3.132055     3.120876     3.109696     3.098517     3.087337     3.076158     3.064979     3.053799     3.042620     3.031440
      3.020261     3.009081     2.997902     2.986722     2.975543     2.964364     2.953184     2.942005     2.930825     2.919646
      2.908466     2.897287     2.886107     2.874928     2.863749     2.852569     2.841390     2.830210     2.819031     2.807851
      2.796672     2.785492     2.774313     2.763134     2.751954     2.740775     2.729595     2.718416     2.707236     2.696057
      2.684877     2.673698     2.662519     2.651339     2.640160     2.628980     2.617801     2.606621     2.595442     2.584262
      2.573083     2.561903     2.550724     2.539545     2.528365     2.517186     2.506006     2.494827     2.483647     2.472468
      2.461288     2.450109     2.438930     2.427750     2.416571     2.405391     2.394212     2.383032     2.371853     2.360673
      2.349494     2.338315     2.327135     2.315956     2.304776     2.293597     2.282417     2.271238     2.260058     2.248879
      2.237700     2.226520     2.215341     2.204161     2.192982     2.181802     2.170623     2.159443     2.148264     2.137084
      2.125905     2.114726     2.103546     2.092367     2.081187     2.070008     2.058828     2.047649     2.036469     2.025290
      2.014111     2.002931     1.991752     1.980572     1.969393     1.958213     1.947034     1.935854     1.924675     1.913496
      1.902316     1.891137     1.879957     1.868778     1.857598     1.846419     1.835239     1.824060     1.812881     1.801701
      1.790522     1.779342     1.768163     1.756983     1.745804     1.734624     1.723445     1.712265     1.701086     1.689907
      1.678727     1.667548     1.656368     1.645189     1.634009     1.622830     1.611650     1.600471     1.589292     1.578112
      1.566933     1.555753     1.544574     1.533394     1.522215     1.511035     1.499856     1.488677     1.477497     1.466318
      1.455138     1.443959     1.432779     1.421600     1.410420     1.399241     1.388062     1.376882     1.365703     1.354523
      1.343344     1.332164     1.320985     1.309805     1.298626     1.287446     1.276267     1.265088     1.253908     1.242729
      1.231549     1.220370     1.209190     1.198011     1.186831     1.175652     1.164473     1.153293     1.142114     1.130934
      1.119755     1.108575     1.097396     1.086216     1.075037     1.063858     1.052678     1.041499     1.030319     1.019140
      1.007960     0.996781     0.985601     0.974422     0.963243     0.952063     0.940884     0.929704     0.918525     0.907345
      0.896166     0.884986     0.873807     0.862628     0.851448     0.840269     0.829089     0.817910     0.806730     0.795551
      0.784371     0.773192     0.762012     0.750833     0.739654     0.728474     0.717295     0.706115     0.694936     0.683756
      0.672577     0.661397     0.650218     0.639039     0.627859     0.616680     0.605500     0.594321     0.583141     0.571962
      0.560782     0.549603     0.538424     0.527244     0.516065     0.504885     0.493706     0.482526     0.471347     0.460167
      0.448988     0.437809     0.426629     0.415450     0.404270     0.393091     0.381911     0.370732     0.359552     0.348373
      0.337193     0.326014     0.314835     0.303655     0.292476     0.281296     0.270117     0.258937     0.247758     0.236578
      0.225399     0.214220     0.203040
 NY phased data points follow
   1.46587E-08  1.50396E-08  1.62168E-08  1.35238E-08  1.31083E-08  1.08476E-08  1.05255E-08  9.46233E-09  9.90597E-09  9.05876E-09
   9.74611E-09  9.87604E-09  1.00606E-08  9.71108E-09  1.05101E-08  1.10866E-08  1.09095E-08  1.00898E-08  1.09427E-08  9.20596E-09
   9.80366E-09  9.25162E-09  8.99766E-09  8.84856E-09  9.46672E-09  9.50903E-09  1.03087E-08  9.32471E-09  1.04436E-08  8.19215E-09
   8.59644E-09  9.37688E-09  1.12217E-08  1.18175E-08  1.17562E-08  1.10174E-08  9.30359E-09  8.63317E-09  7.52634E-09  6.41915E-09
   6.84475E-09  6.36735E-09  6.63288E-09  5.32361E-09  6.20071E-09  6.38822E-09  5.08960E-09  4.66459E-09  4.02498E-09  4.70524E-09
   5.02915E-09  4.51587E-09  5.49784E-09  4.90518E-09  5.79458E-09  4.11710E-09  4.77835E-09  4.50677E-09  4.44119E-09  4.73167E-09
   5.91382E-09  5.75529E-09  7.71733E-09  9.62391E-09  1.17308E-08  1.17026E-08  1.08889E-08  8.85709E-09  8.22570E-09  6.21201E-09
   6.67022E-09  5.07686E-09  4.91100E-09  4.08998E-09  4.71595E-09  3.56978E-09  4.19227E-09  5.10230E-09  6.05406E-09  7.90584E-09
   1.20613E-08  1.33209E-08  1.30737E-08  1.17523E-08  9.84523E-09  8.66946E-09  8.00095E-09  7.43864E-09  6.88529E-09  6.31053E-09
   6.47643E-09  6.24436E-09  5.77366E-09  4.94334E-09  5.07293E-09  3.63045E-09  4.75112E-09  3.29795E-09  3.64906E-09  3.21563E-09
   3.41287E-09  4.24511E-09  2.79179E-09  3.65622E-09  3.40497E-09  2.87043E-09  3.46127E-09  2.88685E-09  3.32842E-09  1.76812E-09
   2.49937E-09  1.58418E-09  1.62256E-09  2.03472E-09  2.69193E-09  2.69037E-09  2.63510E-09  2.84502E-09  3.50930E-09  2.88427E-09
   3.06328E-09  2.89490E-09  3.40947E-09  2.38066E-09  2.14736E-09  1.17117E-09  1.57869E-09  1.10818E-09  1.80212E-09  1.97022E-09
   1.95358E-09  1.63928E-09  2.73927E-09  2.64514E-09  2.36550E-09  1.44080E-09  2.20352E-09  1.53720E-09  1.86680E-09  2.63043E-09
   2.87657E-09  3.73967E-09  4.02975E-09  3.07940E-09  3.07166E-09  3.33665E-09  3.57003E-09  3.99656E-09  4.07085E-09  4.12331E-09
   3.74666E-09  3.29475E-09  3.78992E-09  3.31351E-09  3.65102E-09  3.30648E-09  3.57084E-09  3.67179E-09  3.90196E-09  3.70597E-09
   3.83540E-09  3.90983E-09  4.27989E-09  3.81318E-09  3.88868E-09  4.55708E-09  4.74922E-09  5.18625E-09  6.76611E-09  8.41930E-09
   1.05103E-08  1.37857E-08  1.64622E-08  1.52111E-08  1.28278E-08  9.80191E-09  8.12393E-09  7.08523E-09  6.62656E-09  5.27407E-09
   4.97830E-09  3.95057E-09  4.15673E-09  2.60094E-09  3.37756E-09  1.26720E-09  1.06670E-09  4.21518E-10 -7.98690E-10 -1.23635E-09
  -1.42337E-09 -3.00574E-09 -3.84450E-09 -4.57642E-09 -5.87362E-09 -6.56638E-09 -7.32199E-09 -8.66189E-09 -9.36123E-09 -9.54591E-09
  -1.01198E-08 -1.08542E-08 -1.00375E-08 -1.05446E-08 -1.03461E-08 -9.58974E-09 -8.51467E-09 -8.32322E-09 -6.67091E-09 -6.61122E-09
  -5.73499E-09 -4.45967E-09 -3.65532E-09 -2.71406E-09 -1.51866E-09 -1.49728E-09 -1.17961E-09 -1.73966E-09 -6.00537E-10 -1.39620E-09
  -1.42899E-09 -1.60992E-09 -1.17219E-09 -2.08151E-09 -1.25684E-09 -1.04904E-09 -9.99674E-10 -6.83690E-10 -1.25459E-09 -2.98423E-10
  -1.33942E-09 -1.69664E-09 -8.61967E-10 -1.79849E-09 -1.44047E-09 -1.37377E-09 -5.69308E-10 -7.33303E-10 -7.13582E-10 -1.01051E-09
  -6.49190E-10 -6.94358E-10 -9.69898E-10 -1.26247E-09 -1.48766E-09 -7.07510E-10 -1.32563E-09 -1.20911E-09 -7.77408E-10 -9.37959E-10
  -2.55298E-10 -3.32630E-10 -5.80331E-10  3.55768E-10 -2.19407E-10 -9.29891E-10 -1.58498E-10 -1.28941E-09 -5.57896E-10 -4.59991E-10
  -1.16489E-09 -1.32659E-09 -9.23477E-10 -1.77067E-09 -1.29174E-09 -1.57772E-09 -7.59324E-10 -4.78179E-10 -5.48677E-10 -3.67773E-10
   6.87738E-11 -1.62259E-10 -1.20616E-10  3.43203E-10  5.70636E-10 -1.04403E-10  3.84579E-10  1.00189E-10 -3.16352E-11  4.43105E-11
  -8.74704E-11 -1.02321E-09 -3.55155E-10 -7.41768E-10 -8.57291E-10 -5.86635E-10 -1.36859E-10 -1.13100E-09 -8.57222E-10 -6.85018E-10
  -5.72306E-10 -1.45943E-09 -8.73340E-10 -4.35153E-10 -7.75445E-10 -5.93150E-10 -9.12144E-10 -8.65402E-10 -1.30275E-09 -5.23184E-10
  -5.56892E-10 -1.25094E-09 -2.20000E-10 -9.40062E-10 -1.39199E-09 -9.14746E-11 -6.56571E-10 -3.19085E-10 -8.49556E-10 -4.29966E-10
  -5.21435E-10 -9.43605E-10 -3.44426E-10 -2.44919E-10  1.49040E-10 -8.73750E-10 -6.01421E-10 -8.61492E-10  8.10693E-11 -5.22292E-10
  -6.44516E-10 -2.92865E-10  7.17248E-11 -6.56548E-10 -3.61365E-11 -1.72542E-10 -3.32753E-10 -8.37435E-11  6.16140E-12 -1.26021E-10
  -1.32928E-10  1.80307E-10 -3.73745E-10  2.14509E-10 -3.37823E-10  5.12349E-10  2.13053E-10 -2.18627E-10  8.68003E-10  4.12353E-10
  -4.06039E-11 -2.29464E-10  6.73235E-10  1.88380E-11  2.19580E-10  4.42132E-10  3.24538E-10 -2.09587E-10 -2.92314E-11 -8.55665E-11
   5.87398E-10  2.95551E-10  3.58973E-10 -4.57606E-11  5.33488E-10  1.54556E-10  5.23739E-10  3.10817E-10  5.02262E-10  1.55203E-10
   5.89454E-10  1.81919E-10  6.80307E-10
 NY points of the fit to the data follow
   1.59164E-08  1.49454E-08  1.39801E-08  1.31175E-08  1.23107E-08  1.14225E-08  1.05444E-08  9.94991E-09  9.64199E-09  9.52203E-09
   9.59461E-09  9.72231E-09  9.85477E-09  1.00178E-08  1.02066E-08  1.04127E-08  1.06467E-08  1.08299E-08  1.07922E-08  1.05223E-08
   1.01263E-08  9.62017E-09  9.10680E-09  8.82760E-09  8.74057E-09  8.81182E-09  9.07885E-09  9.44381E-09  9.77398E-09  9.95033E-09
   9.93474E-09  9.99581E-09  1.01240E-08  1.00811E-08  9.95762E-09  9.95858E-09  9.80968E-09  9.36993E-09  8.68177E-09  7.90746E-09
   7.21318E-09  6.47188E-09  5.66452E-09  5.23341E-09  5.06650E-09  4.84580E-09  4.73113E-09  4.73079E-09  4.75765E-09  4.78599E-09
   4.85369E-09  4.96102E-09  5.11011E-09  5.24841E-09  5.35787E-09  5.43820E-09  5.51768E-09  5.58012E-09  5.67071E-09  5.82995E-09
   6.12862E-09  6.61732E-09  7.16636E-09  7.73992E-09  8.50363E-09  9.09254E-09  9.36170E-09  9.42222E-09  9.23392E-09  8.74951E-09
   8.03927E-09  7.17522E-09  6.36510E-09  5.81185E-09  5.24197E-09  4.86699E-09  5.19794E-09  6.19347E-09  7.45169E-09  8.97849E-09
   1.04207E-08  1.14128E-08  1.18010E-08  1.14390E-08  1.04903E-08  9.41594E-09  8.31648E-09  7.09690E-09  6.01930E-09  5.75931E-09
   5.62734E-09  5.50537E-09  5.18655E-09  4.74077E-09  4.47425E-09  4.17133E-09  3.76395E-09  3.51922E-09  3.35430E-09  3.18595E-09
   3.07410E-09  3.00475E-09  2.95981E-09  2.93017E-09  2.91060E-09  2.89798E-09  2.89038E-09  2.88640E-09  2.88514E-09  2.88594E-09
   2.88818E-09  2.89160E-09  2.89600E-09  2.90113E-09  2.90681E-09  2.91281E-09  2.91887E-09  2.92486E-09  2.93065E-09  2.93613E-09
   2.94120E-09  2.94574E-09  2.94966E-09  2.95283E-09  2.95518E-09  2.95661E-09  2.95704E-09  2.95638E-09  2.95457E-09  2.95151E-09
   2.94713E-09  2.94134E-09  2.93407E-09  2.92523E-09  2.91477E-09  2.90259E-09  2.88863E-09  2.87282E-09  2.85508E-09  2.83534E-09
   2.81352E-09  2.78955E-09  2.76333E-09  2.73477E-09  2.70378E-09  2.67028E-09  2.63419E-09  2.59544E-09  2.55396E-09  2.50972E-09
   2.46267E-09  2.41282E-09  2.36017E-09  2.30480E-09  2.24682E-09  2.18642E-09  2.12394E-09  2.05986E-09  1.99500E-09  1.93057E-09
   1.86863E-09  1.81265E-09  1.76896E-09  1.75023E-09  1.78623E-09  1.96849E-09  2.70288E-09  4.37403E-09  6.91378E-09  9.85613E-09
   1.27452E-08  1.49654E-08  1.59080E-08  1.53386E-08  1.35249E-08  1.09732E-08  8.03183E-09  4.90292E-09  2.27008E-09  7.35471E-10
   1.00957E-10 -2.87674E-10 -5.80044E-10 -8.23129E-10 -1.03658E-09 -1.23006E-09 -1.40881E-09 -1.57582E-09 -1.73282E-09 -1.88088E-09
  -2.02055E-09 -2.15215E-09 -2.27576E-09 -2.39133E-09 -2.49873E-09 -2.59775E-09 -2.68828E-09 -2.77056E-09 -2.84493E-09 -2.91167E-09
  -2.97106E-09 -3.02335E-09 -3.06882E-09 -3.10769E-09 -3.14020E-09 -3.16658E-09 -3.18705E-09 -3.20185E-09 -3.21116E-09 -3.21523E-09
  -3.21425E-09 -3.20843E-09 -3.19798E-09 -3.18312E-09 -3.16403E-09 -3.14093E-09 -3.11401E-09 -3.08348E-09 -3.04954E-09 -3.01238E-09
  -2.97220E-09 -2.92921E-09 -2.88359E-09 -2.83554E-09 -2.78526E-09 -2.73291E-09 -2.67866E-09 -2.62268E-09 -2.56514E-09 -2.50620E-09
  -2.44604E-09 -2.38482E-09 -2.32271E-09 -2.25988E-09 -2.19647E-09 -2.13267E-09 -2.06864E-09 -2.00454E-09 -1.94052E-09 -1.87677E-09
  -1.81344E-09 -1.75068E-09 -1.68866E-09 -1.62755E-09 -1.56749E-09 -1.50865E-09 -1.45119E-09 -1.39525E-09 -1.34101E-09 -1.28863E-09
  -1.23823E-09 -1.19000E-09 -1.14399E-09 -1.10015E-09 -1.05841E-09 -1.01873E-09 -9.81035E-10 -9.45273E-10 -9.11376E-10 -8.79291E-10
  -8.48959E-10 -8.20312E-10 -7.93302E-10 -7.67860E-10 -7.43936E-10 -7.21466E-10 -7.00379E-10 -6.80643E-10 -6.62186E-10 -6.44944E-10
  -6.28860E-10 -6.13886E-10 -5.99951E-10 -5.87003E-10 -5.74994E-10 -5.63844E-10 -5.53521E-10 -5.43953E-10 -5.35090E-10 -5.26868E-10
  -5.19242E-10 -5.12169E-10 -5.05602E-10 -4.99494E-10 -4.93811E-10 -4.88499E-10 -4.83523E-10 -4.78832E-10 -4.74387E-10 -4.70147E-10
  -4.66066E-10 -4.62102E-10 -4.58214E-10 -4.54359E-10 -4.50496E-10 -4.46582E-10 -4.42579E-10 -4.38441E-10 -4.34135E-10 -4.29608E-10
  -4.24833E-10 -4.19761E-10 -4.14354E-10 -4.08578E-10 -4.02388E-10 -3.95744E-10 -3.88612E-10 -3.80951E-10 -3.72763E-10 -3.64066E-10
  -3.54879E-10 -3.45220E-10 -3.35109E-10 -3.24561E-10 -3.13598E-10 -3.02237E-10 -2.90496E-10 -2.78393E-10 -2.65947E-10 -2.53174E-10
  -2.40096E-10 -2.26725E-10 -2.13082E-10 -1.99188E-10 -1.85054E-10 -1.70703E-10 -1.56149E-10 -1.41410E-10 -1.26503E-10 -1.11449E-10
  -9.62582E-11 -8.09519E-11 -6.55451E-11 -5.00566E-11 -3.45026E-11 -1.88952E-11 -3.24574E-12  1.24391E-11  2.81555E-11  4.38976E-11
   5.96588E-11  7.54349E-11  9.12193E-11  1.07007E-10  1.22790E-10  1.38568E-10  1.54330E-10  1.70073E-10  1.85791E-10  2.01480E-10
   2.17135E-10  2.32748E-10  2.48316E-10  2.63833E-10  2.79294E-10  2.94693E-10  3.10027E-10  3.25290E-10  3.40477E-10  3.55580E-10
   3.70598E-10  3.85524E-10  4.00357E-10
 NY background values follow
     5.414E-09    5.374E-09    5.334E-09    5.294E-09    5.254E-09    5.213E-09    5.172E-09    5.132E-09    5.090E-09    5.049E-09
     5.008E-09    4.966E-09    4.925E-09    4.883E-09    4.841E-09    4.799E-09    4.757E-09    4.715E-09    4.673E-09    4.630E-09
     4.588E-09    4.546E-09    4.503E-09    4.461E-09    4.418E-09    4.375E-09    4.333E-09    4.290E-09    4.247E-09    4.204E-09
     4.162E-09    4.119E-09    4.077E-09    4.034E-09    3.992E-09    3.950E-09    3.908E-09    3.867E-09    3.825E-09    3.785E-09
     3.744E-09    3.704E-09    3.664E-09    3.625E-09    3.586E-09    3.548E-09    3.510E-09    3.473E-09    3.437E-09    3.401E-09
     3.366E-09    3.332E-09    3.298E-09    3.265E-09    3.234E-09    3.203E-09    3.173E-09    3.143E-09    3.115E-09    3.088E-09
     3.062E-09    3.036E-09    3.011E-09    2.988E-09    2.965E-09    2.942E-09    2.921E-09    2.900E-09    2.880E-09    2.861E-09
     2.843E-09    2.825E-09    2.808E-09    2.792E-09    2.776E-09    2.761E-09    2.747E-09    2.733E-09    2.719E-09    2.707E-09
     2.694E-09    2.683E-09    2.671E-09    2.661E-09    2.651E-09    2.641E-09    2.631E-09    2.622E-09    2.614E-09    2.606E-09
     2.598E-09    2.591E-09    2.584E-09    2.577E-09    2.571E-09    2.565E-09    2.560E-09    2.555E-09    2.550E-09    2.545E-09
     2.541E-09    2.537E-09    2.533E-09    2.530E-09    2.527E-09    2.524E-09    2.521E-09    2.519E-09    2.516E-09    2.514E-09
     2.512E-09    2.511E-09    2.509E-09    2.508E-09    2.506E-09    2.505E-09    2.504E-09    2.502E-09    2.500E-09    2.498E-09
     2.495E-09    2.491E-09    2.488E-09    2.483E-09    2.478E-09    2.472E-09    2.465E-09    2.457E-09    2.448E-09    2.437E-09
     2.426E-09    2.413E-09    2.399E-09    2.384E-09    2.367E-09    2.348E-09    2.327E-09    2.305E-09    2.281E-09    2.255E-09
     2.227E-09    2.197E-09    2.165E-09    2.130E-09    2.093E-09    2.053E-09    2.010E-09    1.965E-09    1.917E-09    1.866E-09
     1.812E-09    1.755E-09    1.694E-09    1.630E-09    1.562E-09    1.491E-09    1.416E-09    1.337E-09    1.254E-09    1.167E-09
     1.076E-09    9.801E-10    8.802E-10    7.758E-10    6.668E-10    5.531E-10    4.345E-10    3.110E-10    1.825E-10    4.941E-11
    -8.785E-11   -2.288E-10   -3.730E-10   -5.200E-10   -6.693E-10   -8.205E-10   -9.731E-10   -1.127E-09   -1.281E-09   -1.435E-09
    -1.588E-09   -1.741E-09   -1.892E-09   -2.042E-09   -2.189E-09   -2.334E-09   -2.475E-09   -2.613E-09   -2.747E-09   -2.876E-09
    -3.000E-09   -3.119E-09   -3.232E-09   -3.338E-09   -3.438E-09   -3.531E-09   -3.616E-09   -3.693E-09   -3.763E-09   -3.826E-09
    -3.883E-09   -3.932E-09   -3.976E-09   -4.012E-09   -4.043E-09   -4.068E-09   -4.087E-09   -4.101E-09   -4.109E-09   -4.112E-09
    -4.111E-09   -4.104E-09   -4.093E-09   -4.078E-09   -4.059E-09   -4.035E-09   -4.008E-09   -3.978E-09   -3.944E-09   -3.906E-09
    -3.866E-09   -3.823E-09   -3.778E-09   -3.730E-09   -3.679E-09   -3.627E-09   -3.573E-09   -3.517E-09   -3.460E-09   -3.401E-09
    -3.341E-09   -3.280E-09   -3.218E-09   -3.155E-09   -3.092E-09   -3.028E-09   -2.964E-09   -2.900E-09   -2.836E-09   -2.773E-09
    -2.709E-09   -2.647E-09   -2.585E-09   -2.524E-09   -2.464E-09   -2.405E-09   -2.347E-09   -2.292E-09   -2.237E-09   -2.185E-09
    -2.135E-09   -2.086E-09   -2.040E-09   -1.996E-09   -1.955E-09   -1.915E-09   -1.877E-09   -1.841E-09   -1.807E-09   -1.775E-09
    -1.744E-09   -1.716E-09   -1.688E-09   -1.663E-09   -1.639E-09   -1.616E-09   -1.595E-09   -1.575E-09   -1.556E-09   -1.538E-09
    -1.522E-09   -1.507E-09   -1.492E-09   -1.479E-09   -1.467E-09   -1.455E-09   -1.444E-09   -1.434E-09   -1.425E-09   -1.417E-09
    -1.408E-09   -1.401E-09   -1.394E-09   -1.387E-09   -1.381E-09   -1.375E-09   -1.370E-09   -1.364E-09   -1.359E-09   -1.355E-09
    -1.350E-09   -1.345E-09   -1.341E-09   -1.336E-09   -1.332E-09   -1.327E-09   -1.322E-09   -1.317E-09   -1.312E-09   -1.307E-09
    -1.302E-09   -1.296E-09   -1.290E-09   -1.283E-09   -1.276E-09   -1.268E-09   -1.260E-09   -1.252E-09   -1.243E-09   -1.233E-09
    -1.223E-09   -1.213E-09   -1.201E-09   -1.190E-09   -1.178E-09   -1.166E-09   -1.153E-09   -1.140E-09   -1.126E-09   -1.112E-09
    -1.098E-09   -1.084E-09   -1.069E-09   -1.054E-09   -1.039E-09   -1.023E-09   -1.008E-09   -9.918E-10   -9.758E-10   -9.595E-10
    -9.431E-10   -9.266E-10   -9.100E-10   -8.932E-10   -8.764E-10   -8.595E-10   -8.426E-10   -8.256E-10   -8.086E-10   -7.915E-10
    -7.744E-10   -7.573E-10   -7.401E-10   -7.230E-10   -7.058E-10   -6.886E-10   -6.714E-10   -6.543E-10   -6.371E-10   -6.199E-10
    -6.028E-10   -5.857E-10   -5.687E-10   -5.516E-10   -5.347E-10   -5.177E-10   -5.008E-10   -4.840E-10   -4.673E-10   -4.506E-10
    -4.340E-10   -4.174E-10   -4.010E-10
 GABA     Conc. = 2.35E-09
   6.22316E-09  6.19544E-09  6.16819E-09  6.14149E-09  6.11540E-09  6.09004E-09  6.06547E-09  6.04183E-09  6.01927E-09  5.99790E-09
   5.97796E-09  5.95967E-09  5.94326E-09  5.92906E-09  5.91742E-09  5.90869E-09  5.90341E-09  5.90229E-09  5.90606E-09  5.91586E-09
   5.93322E-09  5.96005E-09  5.99916E-09  6.05447E-09  6.13171E-09  6.24033E-09  6.39633E-09  6.63110E-09  7.01341E-09  7.47997E-09
   7.95040E-09  8.57311E-09  9.23505E-09  9.69880E-09  1.00100E-08  1.01522E-08  1.00154E-08  9.56484E-09  8.84826E-09  8.01148E-09
   7.23639E-09  6.39718E-09  5.46439E-09  4.88756E-09  4.55867E-09  4.18932E-09  3.96249E-09  3.89363E-09  3.87572E-09  3.88035E-09
   3.89771E-09  3.92398E-09  3.95858E-09  4.00224E-09  4.05670E-09  4.12510E-09  4.21243E-09  4.32640E-09  4.47993E-09  4.69646E-09
   5.02637E-09  5.54186E-09  6.08125E-09  6.65004E-09  7.37903E-09  7.96469E-09  8.27206E-09  8.38328E-09  8.23808E-09  7.79600E-09
   7.08926E-09  6.22935E-09  5.43091E-09  4.83608E-09  4.13351E-09  3.52346E-09  3.38833E-09  3.27482E-09  3.15023E-09  3.24783E-09
   3.40856E-09  3.59948E-09  3.95294E-09  4.34615E-09  4.68365E-09  5.07681E-09  5.46169E-09  5.74051E-09  5.90424E-09  5.90402E-09
   5.80259E-09  5.66690E-09  5.32366E-09  4.85144E-09  4.55847E-09  4.23050E-09  3.79983E-09  3.53321E-09  3.34783E-09  3.16037E-09
   3.03062E-09  2.94450E-09  2.88377E-09  2.83924E-09  2.80562E-09  2.77970E-09  2.75946E-09  2.74347E-09  2.73076E-09  2.72064E-09
   2.71242E-09  2.70585E-09  2.70065E-09  2.69657E-09  2.69338E-09  2.69085E-09  2.68870E-09  2.68676E-09  2.68491E-09  2.68299E-09
   2.68091E-09  2.67853E-09  2.67574E-09  2.67242E-09  2.66847E-09  2.66378E-09  2.65827E-09  2.65185E-09  2.64443E-09  2.63591E-09
   2.62621E-09  2.61525E-09  2.60294E-09  2.58919E-09  2.57393E-09  2.55707E-09  2.53854E-09  2.51825E-09  2.49612E-09  2.47208E-09
   2.44603E-09  2.41791E-09  2.38759E-09  2.35498E-09  2.31998E-09  2.28248E-09  2.24240E-09  2.19964E-09  2.15411E-09  2.10573E-09
   2.05444E-09  2.00016E-09  1.94287E-09  1.88251E-09  1.81911E-09  1.75269E-09  1.68336E-09  1.61130E-09  1.53686E-09  1.46058E-09
   1.38345E-09  1.30719E-09  1.23511E-09  1.17414E-09  1.14172E-09  1.19711E-09  1.62421E-09  2.38177E-09  3.30069E-09  4.25764E-09
   5.04567E-09  5.41455E-09  5.23047E-09  4.55834E-09  3.60069E-09  2.51568E-09  1.32971E-09  1.48234E-10 -5.33343E-10 -8.63941E-10
  -1.10303E-09 -1.30573E-09 -1.48957E-09 -1.66168E-09 -1.82537E-09 -1.98228E-09 -2.13319E-09 -2.27847E-09 -2.41816E-09 -2.55218E-09
  -2.68033E-09 -2.80237E-09 -2.91796E-09 -3.02676E-09 -3.12840E-09 -3.22250E-09 -3.30880E-09 -3.38744E-09 -3.45865E-09 -3.52266E-09
  -3.57967E-09 -3.62990E-09 -3.67356E-09 -3.71085E-09 -3.74199E-09 -3.76717E-09 -3.78660E-09 -3.80048E-09 -3.80901E-09 -3.81239E-09
  -3.81082E-09 -3.80450E-09 -3.79361E-09 -3.77838E-09 -3.75898E-09 -3.73561E-09 -3.70848E-09 -3.67777E-09 -3.64369E-09 -3.60642E-09
  -3.56616E-09 -3.52310E-09 -3.47745E-09 -3.42938E-09 -3.37909E-09 -3.32676E-09 -3.27253E-09 -3.21658E-09 -3.15908E-09 -3.10019E-09
  -3.04009E-09 -2.97892E-09 -2.91687E-09 -2.85410E-09 -2.79075E-09 -2.72702E-09 -2.66304E-09 -2.59900E-09 -2.53504E-09 -2.47134E-09
  -2.40806E-09 -2.34535E-09 -2.28337E-09 -2.22230E-09 -2.16226E-09 -2.10345E-09 -2.04600E-09 -1.99008E-09 -1.93584E-09 -1.88345E-09
  -1.83304E-09 -1.78480E-09 -1.73876E-09 -1.69488E-09 -1.65310E-09 -1.61336E-09 -1.57561E-09 -1.53977E-09 -1.50579E-09 -1.47362E-09
  -1.44319E-09 -1.41443E-09 -1.38730E-09 -1.36173E-09 -1.33767E-09 -1.31505E-09 -1.29381E-09 -1.27390E-09 -1.25527E-09 -1.23784E-09
  -1.22156E-09 -1.20637E-09 -1.19222E-09 -1.17904E-09 -1.16679E-09 -1.15539E-09 -1.14481E-09 -1.13497E-09 -1.12583E-09 -1.11731E-09
  -1.10939E-09 -1.10200E-09 -1.09511E-09 -1.08867E-09 -1.08264E-09 -1.07698E-09 -1.07163E-09 -1.06657E-09 -1.06174E-09 -1.05710E-09
  -1.05261E-09 -1.04823E-09 -1.04392E-09 -1.03962E-09 -1.03531E-09 -1.03094E-09 -1.02647E-09 -1.02185E-09 -1.01706E-09 -1.01203E-09
  -1.00675E-09 -1.00115E-09 -9.95216E-10 -9.88900E-10 -9.82158E-10 -9.74954E-10 -9.67251E-10 -9.59008E-10 -9.50230E-10 -9.40932E-10
  -9.31134E-10 -9.20854E-10 -9.10112E-10 -8.98923E-10 -8.87309E-10 -8.75287E-10 -8.62875E-10 -8.50092E-10 -8.36956E-10 -8.23483E-10
  -8.09696E-10 -7.95606E-10 -7.81234E-10 -7.66601E-10 -7.51719E-10 -7.36611E-10 -7.21290E-10 -7.05773E-10 -6.90081E-10 -6.74231E-10
  -6.58235E-10 -6.42114E-10 -6.25884E-10 -6.09562E-10 -5.93166E-10 -5.76707E-10 -5.60197E-10 -5.43641E-10 -5.27046E-10 -5.10415E-10
  -4.93756E-10 -4.77073E-10 -4.60373E-10 -4.43661E-10 -4.26944E-10 -4.10223E-10 -3.93510E-10 -3.76806E-10 -3.60118E-10 -3.43451E-10
  -3.26808E-10 -3.10199E-10 -2.93627E-10 -2.77096E-10 -2.60613E-10 -2.44183E-10 -2.27811E-10 -2.11499E-10 -1.95256E-10 -1.79088E-10
  -1.62996E-10 -1.46989E-10 -1.31065E-10
 Glc      Conc. = 1.27E-09
   9.64576E-09  9.78303E-09  9.77205E-09  9.60529E-09  9.25121E-09  8.78351E-09  8.26698E-09  7.82368E-09  7.47064E-09  7.21681E-09
   7.15815E-09  7.20759E-09  7.33532E-09  7.58075E-09  7.95593E-09  8.39109E-09  8.81110E-09  9.13689E-09  9.23024E-09  9.02549E-09
   8.55989E-09  7.87431E-09  7.09826E-09  6.36858E-09  5.72043E-09  5.19634E-09  4.89115E-09  4.76587E-09  4.68836E-09  4.59706E-09
   4.45966E-09  4.30256E-09  4.16411E-09  4.01570E-09  3.85461E-09  3.72776E-09  3.63935E-09  3.55403E-09  3.48034E-09  3.43655E-09
   3.40448E-09  3.37651E-09  3.35055E-09  3.32561E-09  3.30120E-09  3.27708E-09  3.25315E-09  3.22936E-09  3.20568E-09  3.18216E-09
   3.15885E-09  3.13577E-09  3.11300E-09  3.09059E-09  3.06865E-09  3.04712E-09  3.02612E-09  3.00572E-09  2.98588E-09  2.96664E-09
   2.94797E-09  2.92990E-09  2.91240E-09  2.89549E-09  2.87915E-09  2.86340E-09  2.84820E-09  2.83358E-09  2.81951E-09  2.80599E-09
   2.79300E-09  2.78055E-09  2.76862E-09  2.75721E-09  2.74628E-09  2.73586E-09  2.72592E-09  2.71643E-09  2.70739E-09  2.69880E-09
   2.69062E-09  2.68287E-09  2.67549E-09  2.66851E-09  2.66188E-09  2.65561E-09  2.64970E-09  2.64412E-09  2.63889E-09  2.63398E-09
   2.62939E-09  2.62512E-09  2.62116E-09  2.61749E-09  2.61412E-09  2.61103E-09  2.60821E-09  2.60567E-09  2.60338E-09  2.60135E-09
   2.59956E-09  2.59800E-09  2.59666E-09  2.59555E-09  2.59463E-09  2.59392E-09  2.59339E-09  2.59304E-09  2.59286E-09  2.59284E-09
   2.59298E-09  2.59325E-09  2.59364E-09  2.59412E-09  2.59460E-09  2.59500E-09  2.59526E-09  2.59529E-09  2.59501E-09  2.59434E-09
   2.59322E-09  2.59155E-09  2.58926E-09  2.58628E-09  2.58252E-09  2.57791E-09  2.57236E-09  2.56580E-09  2.55816E-09  2.54935E-09
   2.53929E-09  2.52791E-09  2.51512E-09  2.50085E-09  2.48502E-09  2.46754E-09  2.44835E-09  2.42737E-09  2.40452E-09  2.37971E-09
   2.35285E-09  2.32388E-09  2.29267E-09  2.25911E-09  2.22311E-09  2.18454E-09  2.14332E-09  2.09934E-09  2.05249E-09  2.00267E-09
   1.94979E-09  1.89375E-09  1.83446E-09  1.77185E-09  1.70583E-09  1.63634E-09  1.56334E-09  1.48681E-09  1.40677E-09  1.32329E-09
   1.23656E-09  1.14694E-09  1.05514E-09  9.62469E-10  8.71834E-10  7.90290E-10  7.40469E-10  8.33061E-10  1.13863E-09  1.55210E-09
   2.00643E-09  2.40972E-09  2.62636E-09  2.55655E-09  2.20184E-09  1.65529E-09  1.01917E-09  3.27646E-10 -3.91742E-10 -9.39733E-10
  -1.21642E-09 -1.42615E-09 -1.61036E-09 -1.78118E-09 -1.94325E-09 -2.09861E-09 -2.24817E-09 -2.39228E-09 -2.53098E-09 -2.66418E-09
  -2.79166E-09 -2.91312E-09 -3.02823E-09 -3.13663E-09 -3.23795E-09 -3.33178E-09 -3.41785E-09 -3.49630E-09 -3.56736E-09 -3.63124E-09
  -3.68815E-09 -3.73830E-09 -3.78190E-09 -3.81915E-09 -3.85025E-09 -3.87541E-09 -3.89483E-09 -3.90870E-09 -3.91724E-09 -3.92062E-09
  -3.91906E-09 -3.91275E-09 -3.90189E-09 -3.88667E-09 -3.86729E-09 -3.84396E-09 -3.81685E-09 -3.78617E-09 -3.75211E-09 -3.71487E-09
  -3.67463E-09 -3.63161E-09 -3.58597E-09 -3.53794E-09 -3.48767E-09 -3.43536E-09 -3.38115E-09 -3.32522E-09 -3.26774E-09 -3.20887E-09
