 LCModel (Version 6.3-1R) Copyright: S.W. Provencher.          Ref.: Magn. Reson. Med. 30:672-679 (1993).                
 onepulse 17x22_ftSpec_smooth_lcm
 26 lines in following concentration table = NCONC+1
    Conc.  %SD   /Cr    Metabolite                                         
 9.46E-11 226%   0.000 Ala                                                 
 5.35E-10 103%   0.000 Asp                                                 
    0.000 999%   0.000 Cr                                                  
 2.79E-09  13%   0.000 GABA                                                
 1.57E-09  24%   0.000 Glc                                                 
    0.000 999%   0.000 Gln                                                 
    0.000 999%   0.000 Glu                                                 
 5.20E-11 999%   0.000 Glyc                                                
    0.000 999%   0.000 GPC                                                 
    0.000 999%   0.000 GSH                                                 
 1.79E-10 649%   0.000 Ins                                                 
    0.000 999%   0.000 Lac                                                 
    0.000 999%   0.000 NAAG                                                
 1.20E-09  14%   0.000 NAA                                                 
 1.22E-10  53%   0.000 PCh                                                 
    0.000 999%   0.000 PCr                                                 
    0.000 999%   0.000 PE                                                  
    0.000 999%   0.000 Scyllo                                              
 3.84E-10 168%   0.000 Ser                                                 
    0.000 999%   0.000 Tau                                                 
 1.22E-10  53%   0.000 GPC+PCh                                             
 1.20E-09  14%   0.000 NAA+NAAG                                            
 2.31E-10 122%   0.000 Ins+Glyc                                            
    0.000 999%   0.000 Cr+PCr                                              
    0.000 999%   0.000 Glu+Gln                                             
   6 lines in following misc. output table
  FWHM = 0.078 ppm    S/N =   4                                            
  Data shift = 0.347 ppm                                                   
  Ph:  54 deg      18.8 deg/ppm                                            
  alphaB,S = 1.6E-01,   4.9E+01                                            
   16 spline knots.   Ns = 5(1)                                            
  ( 5) 2 infls.   ( 5) 1 extrs.                                            
  363 points on ppm-axis = NY
      4.250000     4.238821     4.227641     4.216462     4.205282     4.194103     4.182923     4.171744     4.160564     4.149385
      4.138206     4.127026     4.115847     4.104667     4.093488     4.082308     4.071129     4.059949     4.048770     4.037591
      4.026411     4.015232     4.004052     3.992873     3.981693     3.970514     3.959334     3.948155     3.936975     3.925796
      3.914617     3.903437     3.892258     3.881078     3.869899     3.858719     3.847540     3.836360     3.825181     3.814002
      3.802822     3.791643     3.780463     3.769284     3.758104     3.746925     3.735745     3.724566     3.713387     3.702207
      3.691028     3.679848     3.668669     3.657489     3.646310     3.635130     3.623951     3.612772     3.601592     3.590413
      3.579233     3.568054     3.556874     3.545695     3.534515     3.523336     3.512156     3.500977     3.489798     3.478618
      3.467439     3.456259     3.445080     3.433900     3.422721     3.411541     3.400362     3.389183     3.378003     3.366824
      3.355644     3.344465     3.333285     3.322106     3.310926     3.299747     3.288568     3.277388     3.266209     3.255029
      3.243850     3.232670     3.221491     3.210311     3.199132     3.187953     3.176773     3.165594     3.154414     3.143235
      3.132055     3.120876     3.109696     3.098517     3.087337     3.076158     3.064979     3.053799     3.042620     3.031440
      3.020261     3.009081     2.997902     2.986722     2.975543     2.964364     2.953184     2.942005     2.930825     2.919646
      2.908466     2.897287     2.886107     2.874928     2.863749     2.852569     2.841390     2.830210     2.819031     2.807851
      2.796672     2.785492     2.774313     2.763134     2.751954     2.740775     2.729595     2.718416     2.707236     2.696057
      2.684877     2.673698     2.662519     2.651339     2.640160     2.628980     2.617801     2.606621     2.595442     2.584262
      2.573083     2.561903     2.550724     2.539545     2.528365     2.517186     2.506006     2.494827     2.483647     2.472468
      2.461288     2.450109     2.438930     2.427750     2.416571     2.405391     2.394212     2.383032     2.371853     2.360673
      2.349494     2.338315     2.327135     2.315956     2.304776     2.293597     2.282417     2.271238     2.260058     2.248879
      2.237700     2.226520     2.215341     2.204161     2.192982     2.181802     2.170623     2.159443     2.148264     2.137084
      2.125905     2.114726     2.103546     2.092367     2.081187     2.070008     2.058828     2.047649     2.036469     2.025290
      2.014111     2.002931     1.991752     1.980572     1.969393     1.958213     1.947034     1.935854     1.924675     1.913496
      1.902316     1.891137     1.879957     1.868778     1.857598     1.846419     1.835239     1.824060     1.812881     1.801701
      1.790522     1.779342     1.768163     1.756983     1.745804     1.734624     1.723445     1.712265     1.701086     1.689907
      1.678727     1.667548     1.656368     1.645189     1.634009     1.622830     1.611650     1.600471     1.589292     1.578112
      1.566933     1.555753     1.544574     1.533394     1.522215     1.511035     1.499856     1.488677     1.477497     1.466318
      1.455138     1.443959     1.432779     1.421600     1.410420     1.399241     1.388062     1.376882     1.365703     1.354523
      1.343344     1.332164     1.320985     1.309805     1.298626     1.287446     1.276267     1.265088     1.253908     1.242729
      1.231549     1.220370     1.209190     1.198011     1.186831     1.175652     1.164473     1.153293     1.142114     1.130934
      1.119755     1.108575     1.097396     1.086216     1.075037     1.063858     1.052678     1.041499     1.030319     1.019140
      1.007960     0.996781     0.985601     0.974422     0.963243     0.952063     0.940884     0.929704     0.918525     0.907345
      0.896166     0.884986     0.873807     0.862628     0.851448     0.840269     0.829089     0.817910     0.806730     0.795551
      0.784371     0.773192     0.762012     0.750833     0.739654     0.728474     0.717295     0.706115     0.694936     0.683756
      0.672577     0.661397     0.650218     0.639039     0.627859     0.616680     0.605500     0.594321     0.583141     0.571962
      0.560782     0.549603     0.538424     0.527244     0.516065     0.504885     0.493706     0.482526     0.471347     0.460167
      0.448988     0.437809     0.426629     0.415450     0.404270     0.393091     0.381911     0.370732     0.359552     0.348373
      0.337193     0.326014     0.314835     0.303655     0.292476     0.281296     0.270117     0.258937     0.247758     0.236578
      0.225399     0.214220     0.203040
 NY phased data points follow
   7.56121E-09  8.81877E-09  1.19396E-08  1.06427E-08  1.07825E-08  9.34337E-09  8.25954E-09  7.71669E-09  7.67370E-09  6.96795E-09
   6.92956E-09  7.35746E-09  7.49451E-09  7.50290E-09  7.95792E-09  8.78502E-09  9.58450E-09  8.42368E-09  9.86272E-09  8.67109E-09
   8.23524E-09  8.44421E-09  8.24196E-09  7.91255E-09  7.97084E-09  7.91253E-09  9.15708E-09  8.62252E-09  9.54303E-09  8.14275E-09
   7.29766E-09  7.95822E-09  9.55676E-09  1.08781E-08  1.19378E-08  1.18947E-08  1.06070E-08  1.02633E-08  9.31588E-09  7.61738E-09
   7.87863E-09  7.38790E-09  7.45172E-09  6.55503E-09  6.52669E-09  7.22411E-09  6.36308E-09  5.67721E-09  5.03420E-09  4.90778E-09
   5.12604E-09  4.69972E-09  5.42139E-09  4.85002E-09  5.68213E-09  4.47681E-09  4.16516E-09  4.33255E-09  4.05412E-09  3.98254E-09
   4.63686E-09  4.36770E-09  5.64452E-09  7.47875E-09  1.00815E-08  1.12103E-08  1.14187E-08  9.91924E-09  9.72842E-09  7.58768E-09
   7.39427E-09  6.29439E-09  5.61538E-09  4.93038E-09  5.01940E-09  4.17646E-09  3.57436E-09  4.30276E-09  4.89351E-09  6.26207E-09
   1.03810E-08  1.31562E-08  1.37445E-08  1.36363E-08  1.21309E-08  1.06907E-08  9.72588E-09  9.44474E-09  9.02253E-09  8.08765E-09
   8.29949E-09  8.26270E-09  7.67698E-09  7.03696E-09  6.83029E-09  5.45444E-09  6.16047E-09  5.28070E-09  5.07905E-09  4.61877E-09
   4.28881E-09  5.45134E-09  4.17121E-09  4.74710E-09  4.67307E-09  3.96428E-09  4.69727E-09  3.83398E-09  4.47026E-09  2.98842E-09
   3.18362E-09  2.55444E-09  2.31382E-09  2.44520E-09  3.11050E-09  3.49235E-09  3.12272E-09  3.09657E-09  3.94850E-09  3.46809E-09
   3.39899E-09  3.68393E-09  3.89398E-09  3.12129E-09  2.92920E-09  1.88816E-09  2.06797E-09  1.60756E-09  2.01826E-09  2.40751E-09
   2.03751E-09  1.94603E-09  2.84352E-09  2.79334E-09  2.70674E-09  1.99630E-09  2.27557E-09  1.90108E-09  1.73432E-09  2.87655E-09
   2.63374E-09  3.97044E-09  4.47184E-09  3.74536E-09  3.43502E-09  3.55200E-09  3.91221E-09  4.17104E-09  4.51526E-09  4.43609E-09
   4.20248E-09  3.72822E-09  3.89303E-09  3.60322E-09  3.76263E-09  3.30909E-09  3.52009E-09  3.74766E-09  3.89230E-09  3.57296E-09
   3.81275E-09  3.93523E-09  4.12231E-09  3.80727E-09  3.77140E-09  4.31717E-09  4.58932E-09  4.95750E-09  6.15245E-09  7.89269E-09
   9.96832E-09  1.31709E-08  1.64335E-08  1.55591E-08  1.33542E-08  1.04197E-08  8.90736E-09  7.56233E-09  6.79093E-09  5.38181E-09
   5.06633E-09  3.93123E-09  4.06066E-09  2.23422E-09  2.60478E-09  7.79136E-10  9.56657E-11 -2.19806E-10 -1.91721E-09 -2.65186E-09
  -3.04528E-09 -4.47720E-09 -5.64681E-09 -6.39715E-09 -8.14457E-09 -8.86396E-09 -9.48785E-09 -1.10218E-08 -1.15112E-08 -1.18135E-08
  -1.21256E-08 -1.27537E-08 -1.20638E-08 -1.16903E-08 -1.16383E-08 -1.02890E-08 -9.19742E-09 -8.51751E-09 -6.56829E-09 -6.08697E-09
  -5.19079E-09 -3.88394E-09 -2.75193E-09 -2.04669E-09 -7.74847E-10 -1.00412E-09 -6.96331E-10 -1.47183E-09 -4.78626E-10 -1.23783E-09
  -1.34968E-09 -1.41647E-09 -1.25980E-09 -1.99390E-09 -1.26673E-09 -7.94637E-10 -9.62313E-10 -7.21808E-10 -1.20385E-09 -3.29513E-10
  -1.46586E-09 -1.62213E-09 -8.68943E-10 -1.81151E-09 -1.40481E-09 -1.47979E-09 -5.45190E-10 -7.84873E-10 -3.88147E-10 -1.03126E-09
  -8.50588E-10 -6.47083E-10 -1.13897E-09 -1.21004E-09 -1.52364E-09 -6.21825E-10 -1.46633E-09 -1.13867E-09 -6.75966E-10 -9.05193E-10
  -6.07175E-11 -4.07957E-10 -4.38597E-10  3.72732E-10 -2.25276E-10 -9.86887E-10 -2.16233E-10 -1.40391E-09 -7.13669E-10 -7.31951E-10
  -1.44308E-09 -1.24664E-09 -9.77050E-10 -1.58162E-09 -1.16865E-09 -1.37003E-09 -4.29085E-10 -3.78928E-10 -3.21751E-10 -2.55502E-10
   3.13238E-10  1.77120E-10 -7.39111E-12  4.46574E-10  5.10815E-10 -1.46325E-10  3.78239E-10 -9.14522E-11 -1.81704E-10  1.06290E-10
  -3.74532E-10 -7.52752E-10 -6.25495E-10 -7.82316E-10 -8.80948E-10 -7.39925E-10 -1.71232E-10 -1.42014E-09 -9.81719E-10 -7.90864E-10
  -5.14318E-10 -1.36692E-09 -7.31002E-10 -5.12140E-10 -5.67991E-10 -6.01845E-10 -8.42556E-10 -7.45400E-10 -9.60711E-10 -4.21607E-10
  -6.27024E-10 -1.10033E-09  8.54165E-11 -9.82775E-10 -9.92084E-10  3.51540E-10 -3.49343E-10 -8.91656E-11 -6.08540E-10 -9.30600E-11
  -1.57493E-10 -6.79879E-10  2.63063E-11  1.73249E-10  2.93315E-10 -6.40920E-10 -1.90964E-10 -3.33618E-10  6.71061E-10 -3.54489E-10
  -2.29025E-10  3.84642E-10  4.64032E-10 -1.12232E-10  3.94455E-10  3.07931E-10  9.23787E-11  4.31768E-10  3.46479E-10  2.36395E-10
   3.58834E-10  5.68863E-10  9.76864E-11  8.59279E-10  2.51150E-10  9.10521E-10  3.96818E-10  5.13851E-10  9.32942E-10  6.87181E-10
   1.85753E-11  2.53954E-10  8.93352E-10  3.00098E-10  7.38988E-10  8.01395E-10  5.85058E-10  1.49656E-10  4.75476E-10  5.14586E-10
   1.10914E-09  5.86095E-10  7.45769E-10  3.41374E-10  8.35274E-10  5.39251E-10  9.36891E-10  8.56909E-10  9.08403E-10  3.59721E-10
   8.10378E-10  8.03330E-10  1.06012E-09
 NY points of the fit to the data follow
   9.29415E-09  9.48360E-09  9.54953E-09  9.59332E-09  9.45087E-09  9.07024E-09  8.52503E-09  7.98847E-09  7.63874E-09  7.30694E-09
   7.20164E-09  7.25329E-09  7.37875E-09  7.59325E-09  7.92040E-09  8.29333E-09  8.72961E-09  9.23976E-09  9.64314E-09  9.76688E-09
   9.68221E-09  9.30487E-09  8.72184E-09  8.22668E-09  7.88764E-09  7.62783E-09  7.61756E-09  7.99301E-09  8.47606E-09  8.93360E-09
   9.11005E-09  9.24113E-09  9.66052E-09  9.92247E-09  9.85927E-09  1.00113E-08  1.03224E-08  1.03748E-08  1.00071E-08  9.31961E-09
   8.61772E-09  8.10113E-09  7.08223E-09  6.02094E-09  5.72043E-09  5.46904E-09  5.08973E-09  5.01821E-09  5.06568E-09  5.09644E-09
   5.11680E-09  5.13272E-09  5.18133E-09  5.20290E-09  5.17524E-09  5.13295E-09  5.09192E-09  5.10890E-09  5.10751E-09  5.10785E-09
   5.27107E-09  5.65149E-09  6.15018E-09  6.68926E-09  7.58842E-09  8.50387E-09  9.11810E-09  9.54387E-09  9.79777E-09  9.72673E-09
   9.31977E-09  8.51739E-09  7.54203E-09  6.83375E-09  6.11610E-09  5.17966E-09  4.99773E-09  5.77011E-09  6.72454E-09  8.09942E-09
   9.84337E-09  1.14655E-08  1.25702E-08  1.28320E-08  1.22603E-08  1.14534E-08  1.06179E-08  9.36945E-09  7.80486E-09  7.32187E-09
   7.14476E-09  7.10094E-09  6.94439E-09  6.41429E-09  5.99663E-09  5.76023E-09  5.25433E-09  4.79553E-09  4.56147E-09  4.33014E-09
   4.15479E-09  4.05453E-09  4.00663E-09  4.00739E-09  4.01976E-09  4.02315E-09  4.01408E-09  3.99420E-09  3.95954E-09  3.89516E-09
   3.79717E-09  3.70088E-09  3.65196E-09  3.58609E-09  3.51029E-09  3.47707E-09  3.45704E-09  3.44213E-09  3.42962E-09  3.41823E-09
   3.40728E-09  3.39634E-09  3.38506E-09  3.37319E-09  3.36054E-09  3.34693E-09  3.33222E-09  3.31629E-09  3.29905E-09  3.28036E-09
   3.26015E-09  3.23832E-09  3.21478E-09  3.18944E-09  3.16224E-09  3.13310E-09  3.10194E-09  3.06871E-09  3.03333E-09  2.99573E-09
   2.95586E-09  2.91367E-09  2.86910E-09  2.82212E-09  2.77267E-09  2.72073E-09  2.66628E-09  2.60930E-09  2.54978E-09  2.48772E-09
   2.42318E-09  2.35619E-09  2.28687E-09  2.21533E-09  2.14180E-09  2.06656E-09  1.99003E-09  1.91284E-09  1.83590E-09  1.76060E-09
   1.68910E-09  1.62501E-09  1.57462E-09  1.55008E-09  1.57850E-09  1.73697E-09  2.35585E-09  4.01101E-09  6.28556E-09  9.00540E-09
   1.20243E-08  1.46608E-08  1.59931E-08  1.55509E-08  1.37241E-08  1.13108E-08  8.54337E-09  5.09780E-09  1.64326E-09  9.27139E-11
  -5.28645E-10 -9.04702E-10 -1.18503E-09 -1.41698E-09 -1.62016E-09 -1.80406E-09 -1.97374E-09 -2.13201E-09 -2.28048E-09 -2.42008E-09
  -2.55129E-09 -2.67435E-09 -2.78926E-09 -2.89593E-09 -2.99421E-09 -3.08383E-09 -3.16467E-09 -3.23697E-09 -3.30108E-09 -3.35731E-09
  -3.40594E-09 -3.44726E-09 -3.48155E-09 -3.50907E-09 -3.53009E-09 -3.54486E-09 -3.55362E-09 -3.55664E-09 -3.55415E-09 -3.54641E-09
  -3.53364E-09 -3.51609E-09 -3.49400E-09 -3.46761E-09 -3.43715E-09 -3.40286E-09 -3.36498E-09 -3.32373E-09 -3.27935E-09 -3.23208E-09
  -3.18214E-09 -3.12978E-09 -3.07521E-09 -3.01868E-09 -2.96040E-09 -2.90050E-09 -2.83913E-09 -2.77644E-09 -2.71257E-09 -2.64766E-09
  -2.58187E-09 -2.51532E-09 -2.44818E-09 -2.38057E-09 -2.31264E-09 -2.24453E-09 -2.17639E-09 -2.10837E-09 -2.04058E-09 -1.97321E-09
  -1.90637E-09 -1.84021E-09 -1.77487E-09 -1.71051E-09 -1.64724E-09 -1.58523E-09 -1.52461E-09 -1.46552E-09 -1.40811E-09 -1.35253E-09
  -1.29890E-09 -1.24739E-09 -1.19804E-09 -1.15078E-09 -1.10558E-09 -1.06237E-09 -1.02108E-09 -9.81653E-10 -9.44031E-10 -9.08153E-10
  -8.73961E-10 -8.41384E-10 -8.10372E-10 -7.80857E-10 -7.52784E-10 -7.26089E-10 -7.00699E-10 -6.76580E-10 -6.53655E-10 -6.31860E-10
  -6.11135E-10 -5.91429E-10 -5.72668E-10 -5.54796E-10 -5.37763E-10 -5.21484E-10 -5.05925E-10 -4.91008E-10 -4.76680E-10 -4.62873E-10
  -4.49544E-10 -4.36659E-10 -4.24180E-10 -4.12071E-10 -4.00301E-10 -3.88830E-10 -3.77628E-10 -3.66654E-10 -3.55874E-10 -3.45257E-10
  -3.34763E-10 -3.24359E-10 -3.14008E-10 -3.03676E-10 -2.93329E-10 -2.82928E-10 -2.72442E-10 -2.61833E-10 -2.51069E-10 -2.40107E-10
  -2.28922E-10 -2.17471E-10 -2.05721E-10 -1.93641E-10 -1.81190E-10 -1.68334E-10 -1.55041E-10 -1.41272E-10 -1.27034E-10 -1.12345E-10
  -9.72243E-11 -8.16937E-11 -6.57737E-11 -4.94818E-11 -3.28411E-11 -1.58709E-11  1.40843E-12  1.89768E-11  3.68127E-11  5.48986E-11
   7.32102E-11  9.17313E-11  1.10440E-10  1.29314E-10  1.48337E-10  1.67484E-10  1.86738E-10  2.06079E-10  2.25485E-10  2.44934E-10
   2.64412E-10  2.83893E-10  3.03359E-10  3.22789E-10  3.42161E-10  3.61463E-10  3.80687E-10  3.99837E-10  4.18920E-10  4.37937E-10
   4.56893E-10  4.75792E-10  4.94637E-10  5.13432E-10  5.32179E-10  5.50886E-10  5.69551E-10  5.88182E-10  6.06780E-10  6.25352E-10
   6.43900E-10  6.62426E-10  6.80936E-10  6.99433E-10  7.17921E-10  7.36402E-10  7.54882E-10  7.73364E-10  7.91853E-10  8.10348E-10
   8.28858E-10  8.47383E-10  8.65930E-10
 NY background values follow
     2.214E-09    2.205E-09    2.197E-09    2.188E-09    2.180E-09    2.171E-09    2.163E-09    2.155E-09    2.147E-09    2.138E-09
     2.130E-09    2.122E-09    2.114E-09    2.107E-09    2.099E-09    2.091E-09    2.084E-09    2.076E-09    2.069E-09    2.061E-09
     2.054E-09    2.047E-09    2.040E-09    2.033E-09    2.026E-09    2.019E-09    2.013E-09    2.006E-09    2.000E-09    1.994E-09
     1.988E-09    1.982E-09    1.976E-09    1.970E-09    1.965E-09    1.960E-09    1.955E-09    1.950E-09    1.946E-09    1.942E-09
     1.939E-09    1.936E-09    1.933E-09    1.931E-09    1.929E-09    1.928E-09    1.927E-09    1.926E-09    1.927E-09    1.928E-09
     1.929E-09    1.931E-09    1.934E-09    1.937E-09    1.941E-09    1.946E-09    1.951E-09    1.958E-09    1.965E-09    1.972E-09
     1.981E-09    1.989E-09    1.999E-09    2.009E-09    2.020E-09    2.031E-09    2.043E-09    2.055E-09    2.068E-09    2.081E-09
     2.094E-09    2.108E-09    2.122E-09    2.137E-09    2.152E-09    2.167E-09    2.182E-09    2.198E-09    2.214E-09    2.230E-09
     2.246E-09    2.262E-09    2.279E-09    2.295E-09    2.311E-09    2.328E-09    2.344E-09    2.361E-09    2.377E-09    2.393E-09
     2.410E-09    2.426E-09    2.441E-09    2.457E-09    2.472E-09    2.487E-09    2.502E-09    2.517E-09    2.531E-09    2.545E-09
     2.558E-09    2.571E-09    2.583E-09    2.595E-09    2.607E-09    2.618E-09    2.628E-09    2.638E-09    2.647E-09    2.656E-09
     2.664E-09    2.671E-09    2.677E-09    2.683E-09    2.687E-09    2.691E-09    2.694E-09    2.696E-09    2.697E-09    2.696E-09
     2.695E-09    2.692E-09    2.687E-09    2.682E-09    2.674E-09    2.666E-09    2.655E-09    2.643E-09    2.629E-09    2.614E-09
     2.596E-09    2.577E-09    2.555E-09    2.532E-09    2.506E-09    2.478E-09    2.448E-09    2.415E-09    2.381E-09    2.343E-09
     2.303E-09    2.261E-09    2.216E-09    2.168E-09    2.118E-09    2.064E-09    2.008E-09    1.949E-09    1.887E-09    1.821E-09
     1.753E-09    1.681E-09    1.606E-09    1.528E-09    1.447E-09    1.361E-09    1.273E-09    1.181E-09    1.085E-09    9.851E-10
     8.818E-10    7.746E-10    6.635E-10    5.484E-10    4.293E-10    3.061E-10    1.788E-10    4.728E-11   -8.847E-11   -2.281E-10
    -3.711E-10   -5.172E-10   -6.657E-10   -8.164E-10   -9.687E-10   -1.122E-09   -1.276E-09   -1.431E-09   -1.585E-09   -1.739E-09
    -1.892E-09   -2.043E-09   -2.192E-09   -2.339E-09   -2.484E-09   -2.624E-09   -2.762E-09   -2.895E-09   -3.023E-09   -3.146E-09
    -3.264E-09   -3.376E-09   -3.482E-09   -3.580E-09   -3.672E-09   -3.755E-09   -3.831E-09   -3.899E-09   -3.959E-09   -4.011E-09
    -4.057E-09   -4.095E-09   -4.127E-09   -4.152E-09   -4.171E-09   -4.184E-09   -4.191E-09   -4.192E-09   -4.188E-09   -4.179E-09
    -4.165E-09   -4.146E-09   -4.123E-09   -4.096E-09   -4.064E-09   -4.029E-09   -3.990E-09   -3.948E-09   -3.903E-09   -3.855E-09
    -3.805E-09   -3.752E-09   -3.697E-09   -3.640E-09   -3.581E-09   -3.520E-09   -3.459E-09   -3.395E-09   -3.331E-09   -3.266E-09
    -3.200E-09   -3.133E-09   -3.065E-09   -2.997E-09   -2.929E-09   -2.861E-09   -2.792E-09   -2.724E-09   -2.656E-09   -2.588E-09
    -2.521E-09   -2.454E-09   -2.389E-09   -2.324E-09   -2.261E-09   -2.199E-09   -2.138E-09   -2.078E-09   -2.021E-09   -1.965E-09
    -1.911E-09   -1.859E-09   -1.810E-09   -1.762E-09   -1.717E-09   -1.674E-09   -1.632E-09   -1.592E-09   -1.555E-09   -1.519E-09
    -1.484E-09   -1.451E-09   -1.420E-09   -1.391E-09   -1.362E-09   -1.335E-09   -1.310E-09   -1.286E-09   -1.262E-09   -1.240E-09
    -1.220E-09   -1.200E-09   -1.181E-09   -1.163E-09   -1.145E-09   -1.129E-09   -1.113E-09   -1.098E-09   -1.084E-09   -1.070E-09
    -1.056E-09   -1.043E-09   -1.031E-09   -1.018E-09   -1.006E-09   -9.947E-10   -9.833E-10   -9.721E-10   -9.612E-10   -9.504E-10
    -9.397E-10   -9.291E-10   -9.186E-10   -9.081E-10   -8.975E-10   -8.870E-10   -8.763E-10   -8.655E-10   -8.545E-10   -8.434E-10
    -8.320E-10   -8.204E-10   -8.084E-10   -7.962E-10   -7.835E-10   -7.705E-10   -7.570E-10   -7.430E-10   -7.286E-10   -7.137E-10
    -6.984E-10   -6.826E-10   -6.665E-10   -6.500E-10   -6.332E-10   -6.160E-10   -5.985E-10   -5.807E-10   -5.627E-10   -5.444E-10
    -5.258E-10   -5.071E-10   -4.882E-10   -4.691E-10   -4.498E-10   -4.305E-10   -4.110E-10   -3.914E-10   -3.718E-10   -3.521E-10
    -3.324E-10   -3.127E-10   -2.929E-10   -2.733E-10   -2.537E-10   -2.341E-10   -2.146E-10   -1.952E-10   -1.759E-10   -1.566E-10
    -1.374E-10   -1.183E-10   -9.917E-11   -8.011E-11   -6.110E-11   -4.213E-11   -2.320E-11   -4.295E-12    1.458E-11    3.342E-11
     5.225E-11    7.105E-11    8.985E-11    1.086E-10    1.274E-10    1.462E-10    1.649E-10    1.837E-10    2.025E-10    2.213E-10
     2.401E-10    2.589E-10    2.778E-10
 Ala      Conc. = 9.46E-11
   2.28480E-09  2.28333E-09  2.27927E-09  2.27305E-09  2.26495E-09  2.25585E-09  2.24325E-09  2.22415E-09  2.20793E-09  2.19554E-09
   2.17557E-09  2.15700E-09  2.14488E-09  2.13147E-09  2.11855E-09  2.10783E-09  2.09825E-09  2.08935E-09  2.08091E-09  2.07281E-09
   2.06498E-09  2.05736E-09  2.04994E-09  2.04268E-09  2.03558E-09  2.02863E-09  2.02182E-09  2.01515E-09  2.00861E-09  2.00222E-09
   1.99598E-09  1.98991E-09  1.98404E-09  1.97839E-09  1.97298E-09  1.96782E-09  1.96296E-09  1.95840E-09  1.95417E-09  1.95028E-09
   1.94677E-09  1.94365E-09  1.94095E-09  1.93869E-09  1.93690E-09  1.93558E-09  1.93477E-09  1.93450E-09  1.93478E-09  1.93563E-09
   1.93709E-09  1.93916E-09  1.94188E-09  1.94527E-09  1.94936E-09  1.95415E-09  1.95967E-09  1.96594E-09  1.97292E-09  1.98060E-09
   1.98895E-09  1.99794E-09  2.00755E-09  2.01774E-09  2.02850E-09  2.03980E-09  2.05161E-09  2.06391E-09  2.07667E-09  2.08987E-09
   2.10349E-09  2.11749E-09  2.13185E-09  2.14656E-09  2.16157E-09  2.17687E-09  2.19244E-09  2.20825E-09  2.22428E-09  2.24050E-09
   2.25689E-09  2.27344E-09  2.29010E-09  2.30689E-09  2.32376E-09  2.34071E-09  2.35771E-09  2.37477E-09  2.39186E-09  2.40899E-09
   2.42618E-09  2.44343E-09  2.46080E-09  2.47837E-09  2.49627E-09  2.51475E-09  2.53425E-09  2.55567E-09  2.58115E-09  2.61745E-09
   2.67564E-09  2.73630E-09  2.80544E-09  2.89510E-09  2.97715E-09  3.03666E-09  3.07354E-09  3.09188E-09  3.08941E-09  3.05236E-09
   2.97795E-09  2.90218E-09  2.87116E-09  2.82100E-09  2.75899E-09  2.73780E-09  2.72848E-09  2.72316E-09  2.71923E-09  2.71555E-09
   2.71153E-09  2.70679E-09  2.70109E-09  2.69425E-09  2.68614E-09  2.67664E-09  2.66563E-09  2.65305E-09  2.63880E-09  2.62280E-09
   2.60497E-09  2.58524E-09  2.56355E-09  2.53982E-09  2.51398E-09  2.48597E-09  2.45571E-09  2.42315E-09  2.38822E-09  2.35085E-09
   2.31095E-09  2.26850E-09  2.22342E-09  2.17564E-09  2.12510E-09  2.07173E-09  2.01548E-09  1.95628E-09  1.89407E-09  1.82879E-09
   1.76037E-09  1.68875E-09  1.61388E-09  1.53569E-09  1.45412E-09  1.36911E-09  1.28061E-09  1.18856E-09  1.09292E-09  9.93633E-10
   8.90673E-10  7.84023E-10  6.73721E-10  5.59845E-10  4.42720E-10  3.23325E-10  2.06125E-10  1.02109E-10  7.14144E-13 -9.82440E-11
  -1.95882E-10 -3.02739E-10 -4.32289E-10 -5.90242E-10 -7.68752E-10 -9.54516E-10 -1.14508E-09 -1.34709E-09 -1.55046E-09 -1.71780E-09
  -1.87575E-09 -2.02971E-09 -2.18068E-09 -2.32874E-09 -2.47364E-09 -2.61508E-09 -2.75267E-09 -2.88602E-09 -3.01468E-09 -3.13824E-09
  -3.25627E-09 -3.36833E-09 -3.47397E-09 -3.57275E-09 -3.66424E-09 -3.74799E-09 -3.82369E-09 -3.89148E-09 -3.95161E-09 -4.00430E-09
  -4.04977E-09 -4.08826E-09 -4.12000E-09 -4.14521E-09 -4.16413E-09 -4.17699E-09 -4.18402E-09 -4.18544E-09 -4.18148E-09 -4.17238E-09
  -4.15836E-09 -4.13966E-09 -4.11649E-09 -4.08910E-09 -4.05771E-09 -4.02255E-09 -3.98385E-09 -3.94184E-09 -3.89675E-09 -3.84880E-09
  -3.79822E-09 -3.74526E-09 -3.69012E-09 -3.63305E-09 -3.57425E-09 -3.51387E-09 -3.45204E-09 -3.38891E-09 -3.32462E-09 -3.25931E-09
  -3.19313E-09 -3.12622E-09 -3.05872E-09 -2.99077E-09 -2.92251E-09 -2.85409E-09 -2.78564E-09 -2.71733E-09 -2.64925E-09 -2.58160E-09
  -2.51450E-09 -2.44807E-09 -2.38248E-09 -2.31787E-09 -2.25437E-09 -2.19212E-09 -2.13127E-09 -2.07196E-09 -2.01434E-09 -1.95855E-09
  -1.90470E-09 -1.85299E-09 -1.80343E-09 -1.75598E-09 -1.71058E-09 -1.66717E-09 -1.62569E-09 -1.58608E-09 -1.54827E-09 -1.51221E-09
  -1.47783E-09 -1.44508E-09 -1.41389E-09 -1.38419E-09 -1.35594E-09 -1.32907E-09 -1.30351E-09 -1.27922E-09 -1.25612E-09 -1.23415E-09
  -1.21326E-09 -1.19338E-09 -1.17445E-09 -1.15641E-09 -1.13921E-09 -1.12276E-09 -1.10703E-09 -1.09194E-09 -1.07744E-09 -1.06347E-09
  -1.04997E-09 -1.03691E-09 -1.02426E-09 -1.01198E-09 -1.00004E-09 -9.88398E-10 -9.77023E-10 -9.65875E-10 -9.54921E-10 -9.44129E-10
  -9.33459E-10 -9.22879E-10 -9.12351E-10 -9.01841E-10 -8.91315E-10 -8.80735E-10 -8.70068E-10 -8.59276E-10 -8.48330E-10 -8.37183E-10
  -8.25813E-10 -8.14176E-10 -8.02237E-10 -7.89968E-10 -7.77327E-10 -7.64280E-10 -7.50794E-10 -7.36831E-10 -7.22397E-10 -7.07511E-10
  -6.92192E-10 -6.76461E-10 -6.60340E-10 -6.43845E-10 -6.27000E-10 -6.09823E-10 -5.92336E-10 -5.74559E-10 -5.56512E-10 -5.38213E-10
  -5.19688E-10 -5.00951E-10 -4.82024E-10 -4.62931E-10 -4.43687E-10 -4.24318E-10 -4.04839E-10 -3.85271E-10 -3.65637E-10 -3.45958E-10
  -3.26248E-10 -3.06533E-10 -2.86831E-10 -2.67164E-10 -2.47551E-10 -2.28008E-10 -2.08540E-10 -1.89144E-10 -1.69813E-10 -1.50546E-10
  -1.31338E-10 -1.12185E-10 -9.30845E-11 -7.40314E-11 -5.50241E-11 -3.60550E-11 -1.71250E-11  1.77255E-12  2.06405E-11  3.94832E-11
   5.83051E-11  7.71072E-11  9.58957E-11  1.14673E-10  1.33444E-10  1.52211E-10  1.70979E-10  1.89752E-10  2.08532E-10  2.27323E-10
   2.46130E-10  2.64956E-10  2.83806E-10
 Asp      Conc. = 5.35E-10
   2.85818E-09  2.76565E-09  2.66795E-09  2.56665E-09  2.48106E-09  2.39062E-09  2.31985E-09  2.25560E-09  2.22276E-09  2.20168E-09
   2.18611E-09  2.17357E-09  2.16299E-09  2.15387E-09  2.14537E-09  2.13725E-09  2.12954E-09  2.12223E-09  2.11528E-09  2.10866E-09
   2.10237E-09  2.09640E-09  2.09076E-09  2.08548E-09  2.08056E-09  2.07608E-09  2.07205E-09  2.06857E-09  2.06572E-09  2.06365E-09
   2.06254E-09  2.06269E-09  2.06450E-09  2.06864E-09  2.07626E-09  2.08974E-09  2.11469E-09  2.14631E-09  2.18949E-09  2.23238E-09
   2.26863E-09  2.29341E-09  2.30778E-09  2.32831E-09  2.36390E-09  2.44900E-09  2.55296E-09  2.66410E-09  2.79197E-09  2.88029E-09
   2.92073E-09  2.90644E-09  2.85481E-09  2.76694E-09  2.64080E-09  2.51022E-09  2.38377E-09  2.35188E-09  2.31692E-09  2.25807E-09
   2.23719E-09  2.23200E-09  2.21442E-09  2.20515E-09  2.20789E-09  2.19923E-09  2.17104E-09  2.15960E-09  2.15711E-09  2.15953E-09
   2.16506E-09  2.17276E-09  2.18207E-09  2.19263E-09  2.20418E-09  2.21654E-09  2.22958E-09  2.24318E-09  2.25726E-09  2.27174E-09
   2.28655E-09  2.30164E-09  2.31696E-09  2.33247E-09  2.34811E-09  2.36386E-09  2.37967E-09  2.39551E-09  2.41134E-09  2.42711E-09
   2.44282E-09  2.45841E-09  2.47386E-09  2.48913E-09  2.50420E-09  2.51903E-09  2.53360E-09  2.54787E-09  2.56181E-09  2.57540E-09
   2.58860E-09  2.60138E-09  2.61373E-09  2.62560E-09  2.63697E-09  2.64781E-09  2.65810E-09  2.66780E-09  2.67689E-09  2.68533E-09
   2.69311E-09  2.70018E-09  2.70652E-09  2.71209E-09  2.71682E-09  2.72063E-09  2.72348E-09  2.72530E-09  2.72602E-09  2.72556E-09
   2.72389E-09  2.72092E-09  2.71659E-09  2.71085E-09  2.70362E-09  2.69484E-09  2.68444E-09  2.67237E-09  2.65856E-09  2.64295E-09
   2.62547E-09  2.60605E-09  2.58464E-09  2.56116E-09  2.53557E-09  2.50778E-09  2.47774E-09  2.44540E-09  2.41067E-09  2.37351E-09
   2.33383E-09  2.29159E-09  2.24673E-09  2.19918E-09  2.14889E-09  2.09579E-09  2.03982E-09  1.98093E-09  1.91905E-09  1.85414E-09
   1.78614E-09  1.71498E-09  1.64064E-09  1.56305E-09  1.48218E-09  1.39799E-09  1.31047E-09  1.21959E-09  1.12537E-09  1.02787E-09
   9.27186E-10  8.23525E-10  7.17306E-10  6.09301E-10  5.01302E-10  3.98047E-10  3.17767E-10  3.32340E-10  3.86190E-10  4.71101E-10
   5.83725E-10  6.68558E-10  6.45593E-10  4.70779E-10  1.77324E-10 -1.58601E-10 -5.14061E-10 -9.29912E-10 -1.37948E-09 -1.62983E-09
  -1.81543E-09 -1.98256E-09 -2.14104E-09 -2.29385E-09 -2.44198E-09 -2.58572E-09 -2.72502E-09 -2.85965E-09 -2.98931E-09 -3.11367E-09
  -3.23233E-09 -3.34491E-09 -3.45099E-09 -3.55012E-09 -3.64191E-09 -3.72591E-09 -3.80183E-09 -3.86981E-09 -3.93009E-09 -3.98292E-09
  -4.02851E-09 -4.06711E-09 -4.09894E-09 -4.12423E-09 -4.14323E-09 -4.15615E-09 -4.16323E-09 -4.16470E-09 -4.16079E-09 -4.15173E-09
  -4.13775E-09 -4.11908E-09 -4.09595E-09 -4.06859E-09 -4.03722E-09 -4.00208E-09 -3.96340E-09 -3.92140E-09 -3.87633E-09 -3.82839E-09
  -3.77783E-09 -3.72488E-09 -3.66976E-09 -3.61270E-09 -3.55391E-09 -3.49353E-09 -3.43171E-09 -3.36859E-09 -3.30430E-09 -3.23900E-09
