 LCModel (Version 6.3-1R) Copyright: S.W. Provencher.          Ref.: Magn. Reson. Med. 30:672-679 (1993).                
 onepulse 17x30_ftSpec_smooth_lcm
 26 lines in following concentration table = NCONC+1
    Conc.  %SD /Cr+PCr  Metabolite                                         
 8.82E-12 999% 6.8E-02 Ala                                                 
 1.30E-09  49%  10.040 Asp                                                 
    0.000 999%   0.000 Cr                                                  
 6.90E-10  83%   5.321 GABA                                                
 3.78E-10 250%   2.915 Glc                                                 
 9.28E-10  72%   7.160 Gln                                                 
    0.000 999%   0.000 Glu                                                 
    0.000 999%   0.000 Glyc                                                
    0.000 999%   0.000 GPC                                                 
 6.76E-10  89%   5.211 GSH                                                 
 1.46E-09  32%  11.284 Ins                                                 
    0.000 999%   0.000 Lac                                                 
 4.32E-10  49%   3.328 NAAG                                                
    0.000 999%   0.000 NAA                                                 
    0.000 999%   0.000 PCh                                                 
 1.30E-10 274%   1.000 PCr                                                 
 1.59E-09  53%  12.294 PE                                                  
 2.17E-10 125%   1.675 Scyllo                                              
    0.000 999%   0.000 Ser                                                 
    0.000 999%   0.000 Tau                                                 
    0.000 999%   0.000 GPC+PCh                                             
 4.32E-10  49%   3.328 NAA+NAAG                                            
 1.46E-09  32%  11.284 Ins+Glyc                                            
 1.30E-10 274%   1.000 Cr+PCr                                              
 9.28E-10  72%   7.160 Glu+Gln                                             
   6 lines in following misc. output table
  FWHM = 0.123 ppm    S/N =   3                                            
  Data shift = 0.414 ppm                                                   
  Ph:   5 deg     -26.5 deg/ppm                                            
  alphaB,S = 2.7E-01,   2.4E+01                                            
   10 spline knots.   Ns = 5(1)                                            
  (10) 4 infls.   ( 7) 3 extrs.                                            
  363 points on ppm-axis = NY
      4.250000     4.238821     4.227641     4.216462     4.205282     4.194103     4.182923     4.171744     4.160564     4.149385
      4.138206     4.127026     4.115847     4.104667     4.093488     4.082308     4.071129     4.059949     4.048770     4.037591
      4.026411     4.015232     4.004052     3.992873     3.981693     3.970514     3.959334     3.948155     3.936975     3.925796
      3.914617     3.903437     3.892258     3.881078     3.869899     3.858719     3.847540     3.836360     3.825181     3.814002
      3.802822     3.791643     3.780463     3.769284     3.758104     3.746925     3.735745     3.724566     3.713387     3.702207
      3.691028     3.679848     3.668669     3.657489     3.646310     3.635130     3.623951     3.612772     3.601592     3.590413
      3.579233     3.568054     3.556874     3.545695     3.534515     3.523336     3.512156     3.500977     3.489798     3.478618
      3.467439     3.456259     3.445080     3.433900     3.422721     3.411541     3.400362     3.389183     3.378003     3.366824
      3.355644     3.344465     3.333285     3.322106     3.310926     3.299747     3.288568     3.277388     3.266209     3.255029
      3.243850     3.232670     3.221491     3.210311     3.199132     3.187953     3.176773     3.165594     3.154414     3.143235
      3.132055     3.120876     3.109696     3.098517     3.087337     3.076158     3.064979     3.053799     3.042620     3.031440
      3.020261     3.009081     2.997902     2.986722     2.975543     2.964364     2.953184     2.942005     2.930825     2.919646
      2.908466     2.897287     2.886107     2.874928     2.863749     2.852569     2.841390     2.830210     2.819031     2.807851
      2.796672     2.785492     2.774313     2.763134     2.751954     2.740775     2.729595     2.718416     2.707236     2.696057
      2.684877     2.673698     2.662519     2.651339     2.640160     2.628980     2.617801     2.606621     2.595442     2.584262
      2.573083     2.561903     2.550724     2.539545     2.528365     2.517186     2.506006     2.494827     2.483647     2.472468
      2.461288     2.450109     2.438930     2.427750     2.416571     2.405391     2.394212     2.383032     2.371853     2.360673
      2.349494     2.338315     2.327135     2.315956     2.304776     2.293597     2.282417     2.271238     2.260058     2.248879
      2.237700     2.226520     2.215341     2.204161     2.192982     2.181802     2.170623     2.159443     2.148264     2.137084
      2.125905     2.114726     2.103546     2.092367     2.081187     2.070008     2.058828     2.047649     2.036469     2.025290
      2.014111     2.002931     1.991752     1.980572     1.969393     1.958213     1.947034     1.935854     1.924675     1.913496
      1.902316     1.891137     1.879957     1.868778     1.857598     1.846419     1.835239     1.824060     1.812881     1.801701
      1.790522     1.779342     1.768163     1.756983     1.745804     1.734624     1.723445     1.712265     1.701086     1.689907
      1.678727     1.667548     1.656368     1.645189     1.634009     1.622830     1.611650     1.600471     1.589292     1.578112
      1.566933     1.555753     1.544574     1.533394     1.522215     1.511035     1.499856     1.488677     1.477497     1.466318
      1.455138     1.443959     1.432779     1.421600     1.410420     1.399241     1.388062     1.376882     1.365703     1.354523
      1.343344     1.332164     1.320985     1.309805     1.298626     1.287446     1.276267     1.265088     1.253908     1.242729
      1.231549     1.220370     1.209190     1.198011     1.186831     1.175652     1.164473     1.153293     1.142114     1.130934
      1.119755     1.108575     1.097396     1.086216     1.075037     1.063858     1.052678     1.041499     1.030319     1.019140
      1.007960     0.996781     0.985601     0.974422     0.963243     0.952063     0.940884     0.929704     0.918525     0.907345
      0.896166     0.884986     0.873807     0.862628     0.851448     0.840269     0.829089     0.817910     0.806730     0.795551
      0.784371     0.773192     0.762012     0.750833     0.739654     0.728474     0.717295     0.706115     0.694936     0.683756
      0.672577     0.661397     0.650218     0.639039     0.627859     0.616680     0.605500     0.594321     0.583141     0.571962
      0.560782     0.549603     0.538424     0.527244     0.516065     0.504885     0.493706     0.482526     0.471347     0.460167
      0.448988     0.437809     0.426629     0.415450     0.404270     0.393091     0.381911     0.370732     0.359552     0.348373
      0.337193     0.326014     0.314835     0.303655     0.292476     0.281296     0.270117     0.258937     0.247758     0.236578
      0.225399     0.214220     0.203040
 NY phased data points follow
   7.71766E-09  7.11410E-09  7.32617E-09  7.25974E-09  7.67171E-09  7.46887E-09  8.17713E-09  8.16437E-09  8.15122E-09  8.46683E-09
   9.02738E-09  8.34670E-09  8.39717E-09  8.15822E-09  8.14965E-09  7.61393E-09  7.75603E-09  7.34042E-09  7.58808E-09  7.81671E-09
   8.06584E-09  7.80268E-09  7.69589E-09  6.89630E-09  7.42171E-09  7.68071E-09  8.69720E-09  9.14244E-09  9.09290E-09  8.88661E-09
   8.71550E-09  7.58081E-09  7.52462E-09  7.38583E-09  7.34489E-09  7.08279E-09  7.33034E-09  6.90046E-09  7.22208E-09  6.82677E-09
   7.03969E-09  6.30647E-09  6.32126E-09  6.00368E-09  6.07122E-09  5.94799E-09  6.31346E-09  6.38370E-09  5.81772E-09  5.72740E-09
   5.83099E-09  5.40523E-09  5.70087E-09  5.73285E-09  5.88538E-09  5.22673E-09  6.32624E-09  6.82856E-09  7.79055E-09  8.24435E-09
   7.80899E-09  7.37135E-09  7.49827E-09  6.69589E-09  6.31898E-09  5.99590E-09  5.91337E-09  5.15781E-09  5.26619E-09  5.01461E-09
   4.80816E-09  4.68241E-09  5.08715E-09  6.73006E-09  8.67010E-09  1.03217E-08  1.07575E-08  1.02744E-08  9.40154E-09  9.13302E-09
   9.08429E-09  9.09908E-09  8.53507E-09  8.21018E-09  8.70542E-09  8.42557E-09  7.89503E-09  7.73172E-09  7.77064E-09  7.43232E-09
   7.36993E-09  7.11621E-09  6.86133E-09  6.59521E-09  6.48867E-09  6.43278E-09  6.46617E-09  6.48654E-09  6.29491E-09  6.27773E-09
   6.13099E-09  6.10040E-09  6.20800E-09  5.38234E-09  5.48642E-09  4.81792E-09  4.62822E-09  4.72819E-09  4.91372E-09  5.01612E-09
   4.70737E-09  4.73095E-09  4.58104E-09  4.51966E-09  5.08187E-09  4.76295E-09  5.03910E-09  4.48232E-09  4.24100E-09  3.80860E-09
   3.26728E-09  3.31390E-09  3.59426E-09  3.29228E-09  3.64439E-09  3.05566E-09  3.43222E-09  3.02488E-09  3.34889E-09  3.23303E-09
   3.44386E-09  2.94335E-09  2.81295E-09  3.54795E-09  3.68003E-09  4.39050E-09  4.78640E-09  4.95531E-09  4.92206E-09  5.00747E-09
   5.53495E-09  5.85790E-09  6.60574E-09  6.87047E-09  6.63316E-09  6.60051E-09  7.03109E-09  6.59537E-09  6.69095E-09  6.78291E-09
   7.05500E-09  7.00197E-09  7.35827E-09  6.93098E-09  7.10162E-09  7.09640E-09  7.50368E-09  7.46858E-09  7.42216E-09  7.63636E-09
   7.48789E-09  7.79964E-09  7.19842E-09  7.36024E-09  8.08314E-09  1.03114E-08  1.30156E-08  1.45118E-08  1.56206E-08  1.49420E-08
   1.47645E-08  1.47560E-08  1.47874E-08  1.46184E-08  1.47383E-08  1.42639E-08  1.40918E-08  1.40287E-08  1.36118E-08  1.37063E-08
   1.33361E-08  1.23731E-08  1.14272E-08  1.06913E-08  9.39935E-09  8.32495E-09  6.41005E-09  4.76377E-09  2.83508E-09  7.95995E-10
  -1.64407E-09 -3.38334E-09 -5.26701E-09 -7.20430E-09 -8.54713E-09 -1.00944E-08 -1.05313E-08 -1.17903E-08 -1.19670E-08 -1.16932E-08
  -1.09790E-08 -1.00800E-08 -9.22778E-09 -7.57487E-09 -6.80961E-09 -4.62939E-09 -3.94138E-09 -2.86428E-09 -2.04727E-09 -1.16288E-09
  -7.85574E-10 -9.71081E-10 -1.34708E-09 -1.72503E-09 -1.86992E-09 -1.61640E-09 -1.95363E-09 -1.82405E-09 -1.29703E-09 -6.12340E-10
  -3.83782E-10 -2.45381E-10 -4.29511E-10 -6.36834E-10 -1.23869E-09 -1.27121E-09 -1.74967E-09 -1.70958E-09 -1.61380E-09 -1.17833E-09
  -1.18829E-09 -1.17477E-10 -3.69796E-10 -5.08526E-10 -1.50564E-09 -2.11148E-09 -2.12265E-09 -1.79035E-09 -2.00265E-09 -1.92310E-09
  -1.86860E-09 -1.65302E-09 -1.35217E-09 -1.08106E-09 -1.00420E-09 -9.37974E-10 -1.11897E-09 -9.30132E-10 -1.33865E-09 -1.30587E-09
  -1.52879E-09 -8.85535E-10 -1.21249E-09 -1.49300E-09 -1.58987E-09 -1.56131E-09 -1.40957E-09 -1.58910E-09 -1.95873E-09 -1.74611E-09
  -2.25880E-09 -1.88999E-09 -2.17808E-09 -1.96392E-09 -1.82352E-09 -1.60217E-09 -1.10267E-09 -1.24043E-09 -1.27292E-09 -8.67497E-10
  -7.51012E-10 -6.95555E-10 -7.62020E-10 -6.70829E-10 -4.23977E-10 -2.84059E-10 -5.86784E-10 -7.38583E-10 -6.75399E-10 -5.09017E-10
  -1.21049E-09 -6.16930E-10 -1.33049E-09 -8.24337E-10 -1.30783E-09 -1.27458E-09 -1.28717E-09 -1.18457E-09 -1.41198E-09 -1.18575E-09
  -1.48460E-09 -1.30746E-09 -1.49952E-09 -1.61681E-09 -1.91866E-09 -1.58214E-09 -1.73082E-09 -1.69195E-09 -1.77905E-09 -1.87006E-09
  -2.04647E-09 -1.86722E-09 -1.82807E-09 -2.00377E-09 -1.97135E-09 -2.08115E-09 -2.21974E-09 -2.12810E-09 -2.10347E-09 -2.16348E-09
  -2.11492E-09 -1.98287E-09 -2.14824E-09 -1.80826E-09 -2.58274E-09 -2.30256E-09 -2.16290E-09 -2.28192E-09 -2.14388E-09 -1.95150E-09
  -2.11162E-09 -2.43122E-09 -2.42462E-09 -2.02050E-09 -2.02632E-09 -1.82018E-09 -2.47113E-09 -2.28394E-09 -2.16881E-09 -1.88940E-09
  -1.91802E-09 -2.49284E-09 -2.17087E-09 -2.30076E-09 -2.26084E-09 -2.23598E-09 -2.30315E-09 -2.26344E-09 -2.31768E-09 -2.51173E-09
  -2.47621E-09 -2.37002E-09 -2.37421E-09 -2.19436E-09 -2.61707E-09 -2.27520E-09 -2.42391E-09 -2.21511E-09 -2.54891E-09 -2.38375E-09
  -2.44162E-09 -2.23012E-09 -2.35823E-09 -2.40711E-09 -2.49515E-09 -2.39187E-09 -2.02110E-09 -2.15539E-09 -2.12567E-09 -1.99890E-09
  -2.19406E-09 -2.36475E-09 -2.05211E-09
 NY points of the fit to the data follow
   8.15279E-09  7.82073E-09  7.38642E-09  6.97689E-09  7.13688E-09  7.65716E-09  7.88076E-09  8.07253E-09  8.67118E-09  8.78136E-09
   8.41821E-09  8.16929E-09  7.95968E-09  8.17837E-09  8.27843E-09  7.99266E-09  7.89331E-09  8.26252E-09  8.22758E-09  7.23976E-09
   6.61999E-09  7.02441E-09  7.44181E-09  7.76503E-09  8.05790E-09  8.59819E-09  9.12509E-09  9.18833E-09  8.67610E-09  8.22135E-09
   8.17099E-09  7.90725E-09  7.60602E-09  7.60151E-09  7.44090E-09  7.13100E-09  6.88584E-09  6.89201E-09  6.94274E-09  6.85388E-09
   6.71912E-09  6.66095E-09  6.42387E-09  6.09795E-09  6.07271E-09  6.06584E-09  5.82698E-09  5.28681E-09  5.19262E-09  5.34312E-09
   5.67159E-09  6.03312E-09  6.21821E-09  6.30196E-09  6.47928E-09  6.51830E-09  6.55290E-09  7.00694E-09  7.30184E-09  7.11220E-09
   7.01982E-09  7.02055E-09  7.12711E-09  7.13728E-09  6.94756E-09  6.85439E-09  6.82173E-09  6.59834E-09  6.32034E-09  6.42312E-09
   6.71967E-09  6.92171E-09  7.14082E-09  7.36190E-09  7.71823E-09  8.17874E-09  8.94354E-09  9.60016E-09  9.79232E-09  9.71532E-09
   9.55611E-09  9.26616E-09  8.99297E-09  8.97147E-09  8.90786E-09  8.38179E-09  7.49494E-09  6.63511E-09  6.30251E-09  6.13357E-09
   5.97993E-09  5.89553E-09  5.87669E-09  5.73944E-09  5.55801E-09  5.53700E-09  5.44320E-09  5.27936E-09  5.21620E-09  5.15260E-09
   5.09496E-09  5.06819E-09  5.04855E-09  5.04127E-09  5.04460E-09  5.05303E-09  5.06533E-09  5.08171E-09  5.10049E-09  5.11935E-09
   5.13634E-09  5.15431E-09  5.17972E-09  5.20117E-09  5.21864E-09  5.24178E-09  5.26657E-09  5.29172E-09  5.31672E-09  5.34127E-09
   5.36515E-09  5.38821E-09  5.41028E-09  5.43120E-09  5.45085E-09  5.46910E-09  5.48583E-09  5.50092E-09  5.51427E-09  5.52577E-09
   5.53530E-09  5.54277E-09  5.54809E-09  5.55115E-09  5.55186E-09  5.55013E-09  5.54587E-09  5.53898E-09  5.52939E-09  5.51701E-09
   5.50177E-09  5.48359E-09  5.46240E-09  5.43813E-09  5.41071E-09  5.38010E-09  5.34625E-09  5.30914E-09  5.26874E-09  5.22506E-09
   5.17812E-09  5.12798E-09  5.07475E-09  5.01860E-09  4.95979E-09  4.89870E-09  4.83596E-09  4.77262E-09  4.71031E-09  4.65142E-09
   4.59977E-09  4.56179E-09  4.54945E-09  4.58762E-09  4.73757E-09  5.19528E-09  6.92112E-09  1.20862E-08  1.55740E-08  1.64080E-08
   1.59752E-08  1.54632E-08  1.52531E-08  1.54116E-08  1.59721E-08  1.64519E-08  1.54070E-08  1.11806E-08  5.24515E-09  3.57035E-09
   2.89228E-09  2.49190E-09  2.20276E-09  1.96858E-09  1.76545E-09  1.58166E-09  1.41084E-09  1.24927E-09  1.09474E-09  9.45806E-10
   8.01539E-10  6.61367E-10  5.24880E-10  3.91876E-10  2.62179E-10  1.35746E-10  1.25542E-11 -1.07354E-10 -2.23946E-10 -3.37128E-10
  -4.46805E-10 -5.52874E-10 -6.55209E-10 -7.53691E-10 -8.48178E-10 -9.38534E-10 -1.02459E-09 -1.10625E-09 -1.18337E-09 -1.25608E-09
  -1.32447E-09 -1.38868E-09 -1.44881E-09 -1.50498E-09 -1.55729E-09 -1.60587E-09 -1.65081E-09 -1.69223E-09 -1.73024E-09 -1.76494E-09
  -1.79643E-09 -1.82483E-09 -1.85025E-09 -1.87279E-09 -1.89255E-09 -1.90965E-09 -1.92416E-09 -1.93623E-09 -1.94595E-09 -1.95341E-09
  -1.95872E-09 -1.96199E-09 -1.96332E-09 -1.96282E-09 -1.96059E-09 -1.95674E-09 -1.95137E-09 -1.94457E-09 -1.93646E-09 -1.92713E-09
  -1.91670E-09 -1.90526E-09 -1.89292E-09 -1.87978E-09 -1.86595E-09 -1.85152E-09 -1.83661E-09 -1.82132E-09 -1.80573E-09 -1.78995E-09
  -1.77411E-09 -1.75829E-09 -1.74260E-09 -1.72713E-09 -1.71202E-09 -1.69732E-09 -1.68317E-09 -1.66965E-09 -1.65689E-09 -1.64498E-09
  -1.63395E-09 -1.62380E-09 -1.61452E-09 -1.60608E-09 -1.59848E-09 -1.59169E-09 -1.58570E-09 -1.58049E-09 -1.57604E-09 -1.57234E-09
  -1.56937E-09 -1.56711E-09 -1.56555E-09 -1.56466E-09 -1.56444E-09 -1.56486E-09 -1.56592E-09 -1.56758E-09 -1.56984E-09 -1.57268E-09
  -1.57607E-09 -1.58002E-09 -1.58448E-09 -1.58945E-09 -1.59493E-09 -1.60088E-09 -1.60728E-09 -1.61413E-09 -1.62140E-09 -1.62909E-09
  -1.63716E-09 -1.64561E-09 -1.65442E-09 -1.66357E-09 -1.67304E-09 -1.68282E-09 -1.69289E-09 -1.70323E-09 -1.71383E-09 -1.72467E-09
  -1.73574E-09 -1.74699E-09 -1.75845E-09 -1.77008E-09 -1.78185E-09 -1.79378E-09 -1.80582E-09 -1.81796E-09 -1.83019E-09 -1.84249E-09
  -1.85485E-09 -1.86725E-09 -1.87967E-09 -1.89211E-09 -1.90458E-09 -1.91706E-09 -1.92956E-09 -1.94207E-09 -1.95458E-09 -1.96709E-09
  -1.97961E-09 -1.99212E-09 -2.00461E-09 -2.01710E-09 -2.02957E-09 -2.04202E-09 -2.05444E-09 -2.06684E-09 -2.07920E-09 -2.09153E-09
  -2.10382E-09 -2.11606E-09 -2.12826E-09 -2.14041E-09 -2.15250E-09 -2.16453E-09 -2.17650E-09 -2.18841E-09 -2.20025E-09 -2.21201E-09
  -2.22369E-09 -2.23530E-09 -2.24682E-09 -2.25825E-09 -2.26958E-09 -2.28082E-09 -2.29196E-09 -2.30300E-09 -2.31393E-09 -2.32475E-09
  -2.33545E-09 -2.34603E-09 -2.35650E-09 -2.36683E-09 -2.37703E-09 -2.38710E-09 -2.39704E-09 -2.40682E-09 -2.41647E-09 -2.42597E-09
  -2.43531E-09 -2.44450E-09 -2.45352E-09
 NY background values follow
    -1.758E-09   -1.698E-09   -1.638E-09   -1.577E-09   -1.517E-09   -1.456E-09   -1.395E-09   -1.334E-09   -1.274E-09   -1.213E-09
    -1.152E-09   -1.091E-09   -1.030E-09   -9.692E-10   -9.083E-10   -8.474E-10   -7.866E-10   -7.257E-10   -6.649E-10   -6.042E-10
    -5.435E-10   -4.828E-10   -4.223E-10   -3.618E-10   -3.014E-10   -2.411E-10   -1.809E-10   -1.208E-10   -6.083E-11   -1.000E-12
     5.871E-11    1.182E-10    1.776E-10    2.369E-10    2.959E-10    3.548E-10    4.135E-10    4.720E-10    5.303E-10    5.884E-10
     6.462E-10    7.039E-10    7.613E-10    8.184E-10    8.753E-10    9.319E-10    9.883E-10    1.044E-09    1.100E-09    1.156E-09
     1.211E-09    1.266E-09    1.320E-09    1.375E-09    1.429E-09    1.482E-09    1.535E-09    1.588E-09    1.641E-09    1.694E-09
     1.746E-09    1.798E-09    1.849E-09    1.900E-09    1.951E-09    2.002E-09    2.053E-09    2.103E-09    2.153E-09    2.203E-09
     2.253E-09    2.302E-09    2.351E-09    2.400E-09    2.449E-09    2.497E-09    2.546E-09    2.594E-09    2.642E-09    2.690E-09
     2.737E-09    2.785E-09    2.832E-09    2.879E-09    2.926E-09    2.973E-09    3.020E-09    3.066E-09    3.113E-09    3.159E-09
     3.206E-09    3.252E-09    3.298E-09    3.344E-09    3.389E-09    3.435E-09    3.481E-09    3.527E-09    3.572E-09    3.618E-09
     3.663E-09    3.708E-09    3.754E-09    3.799E-09    3.844E-09    3.889E-09    3.934E-09    3.979E-09    4.024E-09    4.068E-09
     4.111E-09    4.154E-09    4.196E-09    4.238E-09    4.278E-09    4.318E-09    4.356E-09    4.394E-09    4.430E-09    4.465E-09
     4.498E-09    4.530E-09    4.561E-09    4.590E-09    4.617E-09    4.642E-09    4.665E-09    4.687E-09    4.706E-09    4.723E-09
     4.738E-09    4.750E-09    4.760E-09    4.768E-09    4.773E-09    4.775E-09    4.774E-09    4.771E-09    4.765E-09    4.755E-09
     4.743E-09    4.727E-09    4.708E-09    4.685E-09    4.659E-09    4.630E-09    4.596E-09    4.559E-09    4.519E-09    4.474E-09
     4.425E-09    4.372E-09    4.315E-09    4.254E-09    4.188E-09    4.118E-09    4.044E-09    3.965E-09    3.882E-09    3.794E-09
     3.703E-09    3.608E-09    3.510E-09    3.408E-09    3.303E-09    3.196E-09    3.085E-09    2.971E-09    2.855E-09    2.737E-09
     2.617E-09    2.494E-09    2.370E-09    2.244E-09    2.117E-09    1.989E-09    1.859E-09    1.728E-09    1.597E-09    1.465E-09
     1.333E-09    1.200E-09    1.067E-09    9.345E-10    8.021E-10    6.701E-10    5.388E-10    4.083E-10    2.787E-10    1.502E-10
     2.306E-11   -1.026E-10   -2.266E-10   -3.488E-10   -4.691E-10   -5.871E-10   -7.028E-10   -8.160E-10   -9.265E-10   -1.034E-09
    -1.139E-09   -1.240E-09   -1.338E-09   -1.433E-09   -1.524E-09   -1.611E-09   -1.693E-09   -1.772E-09   -1.846E-09   -1.916E-09
    -1.982E-09   -2.044E-09   -2.102E-09   -2.156E-09   -2.206E-09   -2.252E-09   -2.295E-09   -2.335E-09   -2.371E-09   -2.404E-09
    -2.434E-09   -2.461E-09   -2.484E-09   -2.506E-09   -2.524E-09   -2.539E-09   -2.553E-09   -2.563E-09   -2.572E-09   -2.578E-09
    -2.582E-09   -2.584E-09   -2.584E-09   -2.583E-09   -2.579E-09   -2.574E-09   -2.568E-09   -2.560E-09   -2.551E-09   -2.540E-09
    -2.529E-09   -2.517E-09   -2.503E-09   -2.489E-09   -2.475E-09   -2.459E-09   -2.443E-09   -2.427E-09   -2.411E-09   -2.394E-09
    -2.377E-09   -2.361E-09   -2.344E-09   -2.328E-09   -2.312E-09   -2.297E-09   -2.282E-09   -2.268E-09   -2.254E-09   -2.241E-09
    -2.230E-09   -2.219E-09   -2.209E-09   -2.200E-09   -2.191E-09   -2.184E-09   -2.177E-09   -2.171E-09   -2.166E-09   -2.162E-09
    -2.158E-09   -2.156E-09   -2.153E-09   -2.152E-09   -2.151E-09   -2.151E-09   -2.151E-09   -2.152E-09   -2.154E-09   -2.156E-09
    -2.159E-09   -2.163E-09   -2.167E-09   -2.171E-09   -2.176E-09   -2.181E-09   -2.187E-09   -2.193E-09   -2.200E-09   -2.207E-09
    -2.215E-09   -2.223E-09   -2.231E-09   -2.240E-09   -2.249E-09   -2.258E-09   -2.268E-09   -2.278E-09   -2.288E-09   -2.298E-09
    -2.309E-09   -2.319E-09   -2.330E-09   -2.342E-09   -2.353E-09   -2.364E-09   -2.376E-09   -2.388E-09   -2.399E-09   -2.411E-09
    -2.423E-09   -2.435E-09   -2.447E-09   -2.459E-09   -2.471E-09   -2.483E-09   -2.495E-09   -2.507E-09   -2.519E-09   -2.531E-09
    -2.544E-09   -2.556E-09   -2.568E-09   -2.580E-09   -2.592E-09   -2.604E-09   -2.616E-09   -2.628E-09   -2.640E-09   -2.652E-09
    -2.664E-09   -2.676E-09   -2.687E-09   -2.699E-09   -2.711E-09   -2.722E-09   -2.734E-09   -2.746E-09   -2.757E-09   -2.768E-09
    -2.780E-09   -2.791E-09   -2.802E-09   -2.813E-09   -2.824E-09   -2.835E-09   -2.846E-09   -2.856E-09   -2.867E-09   -2.877E-09
    -2.888E-09   -2.898E-09   -2.908E-09   -2.918E-09   -2.928E-09   -2.937E-09   -2.947E-09   -2.956E-09   -2.966E-09   -2.975E-09
    -2.984E-09   -2.993E-09   -3.001E-09
 Ala      Conc. = 8.82E-12
  -1.75270E-09 -1.69163E-09 -1.63096E-09 -1.57025E-09 -1.50955E-09 -1.44877E-09 -1.38810E-09 -1.32831E-09 -1.26822E-09 -1.20713E-09
  -1.14722E-09 -1.08755E-09 -1.02684E-09 -9.66380E-10 -9.06095E-10 -8.45580E-10 -7.84970E-10 -7.24308E-10 -6.63651E-10 -6.03001E-10
  -5.42391E-10 -4.81829E-10 -4.21319E-10 -3.60880E-10 -3.00531E-10 -2.40266E-10 -1.80106E-10 -1.20051E-10 -6.01196E-11 -3.10495E-13
   5.93740E-11  1.18895E-10  1.78274E-10  2.37490E-10  2.96539E-10  3.55404E-10  4.14083E-10  4.72578E-10  5.30861E-10  5.88919E-10
   6.46778E-10  7.04413E-10  7.61797E-10  8.18934E-10  8.75826E-10  9.32450E-10  9.88813E-10  1.04489E-09  1.10068E-09  1.15617E-09
   1.21137E-09  1.26625E-09  1.32082E-09  1.37506E-09  1.42898E-09  1.48259E-09  1.53588E-09  1.58888E-09  1.64158E-09  1.69400E-09
   1.74612E-09  1.79797E-09  1.84955E-09  1.90086E-09  1.95190E-09  2.00269E-09  2.05323E-09  2.10353E-09  2.15359E-09  2.20341E-09
   2.25301E-09  2.30239E-09  2.35155E-09  2.40050E-09  2.44924E-09  2.49779E-09  2.54614E-09  2.59431E-09  2.64230E-09  2.69011E-09
   2.73776E-09  2.78524E-09  2.83257E-09  2.87974E-09  2.92677E-09  2.97366E-09  3.02042E-09  3.06706E-09  3.11358E-09  3.15999E-09
   3.20631E-09  3.25254E-09  3.29869E-09  3.34479E-09  3.39085E-09  3.43693E-09  3.48309E-09  3.52948E-09  3.57652E-09  3.62567E-09
   3.67938E-09  3.72851E-09  3.77477E-09  3.82593E-09  3.87652E-09  3.92417E-09  3.96997E-09  4.01534E-09  4.05991E-09  4.10168E-09
   4.13921E-09  4.17584E-09  4.21830E-09  4.25539E-09  4.28725E-09  4.32361E-09  4.36062E-09  4.39714E-09  4.43276E-09  4.46726E-09
   4.50047E-09  4.53227E-09  4.56257E-09  4.59125E-09  4.61821E-09  4.64337E-09  4.66664E-09  4.68792E-09  4.70712E-09  4.72416E-09
   4.73894E-09  4.75138E-09  4.76139E-09  4.76887E-09  4.77376E-09  4.77594E-09  4.77535E-09  4.77188E-09  4.76546E-09  4.75599E-09
   4.74339E-09  4.72756E-09  4.70844E-09  4.68592E-09  4.65991E-09  4.63034E-09  4.59710E-09  4.56013E-09  4.51932E-09  4.47459E-09
   4.42586E-09  4.37304E-09  4.31603E-09  4.25476E-09  4.18914E-09  4.11907E-09  4.04451E-09  3.96555E-09  3.88238E-09  3.79516E-09
   3.70409E-09  3.60932E-09  3.51106E-09  3.40950E-09  3.30488E-09  3.19759E-09  3.08889E-09  2.98147E-09  2.86963E-09  2.75245E-09
   2.63169E-09  2.50887E-09  2.38459E-09  2.25909E-09  2.13260E-09  2.00475E-09  1.87405E-09  1.73878E-09  1.60078E-09  1.46707E-09
   1.33405E-09  1.20109E-09  1.06817E-09  9.35418E-10  8.02949E-10  6.70960E-10  5.39591E-10  4.09001E-10  2.79389E-10  1.50913E-10
   2.37342E-11 -1.01955E-10 -2.26008E-10 -3.48218E-10 -4.68450E-10 -5.86510E-10 -7.02235E-10 -8.15436E-10 -9.25966E-10 -1.03363E-09
  -1.13827E-09 -1.23971E-09 -1.33776E-09 -1.43228E-09 -1.52308E-09 -1.60999E-09 -1.69282E-09 -1.77143E-09 -1.84569E-09 -1.91569E-09
  -1.98152E-09 -2.04329E-09 -2.10110E-09 -2.15505E-09 -2.20525E-09 -2.25180E-09 -2.29479E-09 -2.33434E-09 -2.37055E-09 -2.40352E-09
  -2.43334E-09 -2.46013E-09 -2.48398E-09 -2.50501E-09 -2.52330E-09 -2.53897E-09 -2.55211E-09 -2.56283E-09 -2.57125E-09 -2.57744E-09
  -2.58151E-09 -2.58357E-09 -2.58372E-09 -2.58207E-09 -2.57871E-09 -2.57376E-09 -2.56732E-09 -2.55947E-09 -2.55032E-09 -2.53999E-09
  -2.52857E-09 -2.51616E-09 -2.50287E-09 -2.48880E-09 -2.47404E-09 -2.45871E-09 -2.44292E-09 -2.42676E-09 -2.41032E-09 -2.39370E-09
  -2.37703E-09 -2.36040E-09 -2.34391E-09 -2.32765E-09 -2.31175E-09 -2.29629E-09 -2.28138E-09 -2.26712E-09 -2.25362E-09 -2.24099E-09
  -2.22925E-09 -2.21840E-09 -2.20842E-09 -2.19930E-09 -2.19102E-09 -2.18356E-09 -2.17691E-09 -2.17104E-09 -2.16595E-09 -2.16161E-09
  -2.15801E-09 -2.15512E-09 -2.15295E-09 -2.15146E-09 -2.15063E-09 -2.15046E-09 -2.15092E-09 -2.15200E-09 -2.15368E-09 -2.15595E-09
  -2.15878E-09 -2.16216E-09 -2.16607E-09 -2.17050E-09 -2.17543E-09 -2.18084E-09 -2.18671E-09 -2.19302E-09 -2.19978E-09 -2.20694E-09
  -2.21450E-09 -2.22244E-09 -2.23074E-09 -2.23939E-09 -2.24836E-09 -2.25765E-09 -2.26723E-09 -2.27708E-09 -2.28719E-09 -2.29756E-09
  -2.30815E-09 -2.31893E-09 -2.32992E-09 -2.34108E-09 -2.35240E-09 -2.36386E-09 -2.37545E-09 -2.38713E-09 -2.39892E-09 -2.41077E-09
  -2.42268E-09 -2.43465E-09 -2.44663E-09 -2.45864E-09 -2.47067E-09 -2.48272E-09 -2.49479E-09 -2.50687E-09 -2.51896E-09 -2.53106E-09
  -2.54315E-09 -2.55525E-09 -2.56733E-09 -2.57940E-09 -2.59146E-09 -2.60350E-09 -2.61552E-09 -2.62751E-09 -2.63947E-09 -2.65140E-09
  -2.66329E-09 -2.67514E-09 -2.68694E-09 -2.69870E-09 -2.71039E-09 -2.72204E-09 -2.73362E-09 -2.74514E-09 -2.75659E-09 -2.76796E-09
  -2.77926E-09 -2.79049E-09 -2.80162E-09 -2.81267E-09 -2.82363E-09 -2.83449E-09 -2.84526E-09 -2.85592E-09 -2.86647E-09 -2.87691E-09
  -2.88724E-09 -2.89745E-09 -2.90754E-09 -2.91750E-09 -2.92733E-09 -2.93704E-09 -2.94660E-09 -2.95602E-09 -2.96530E-09 -2.97442E-09
  -2.98340E-09 -2.99222E-09 -3.00088E-09
 Asp      Conc. = 1.30E-09
  -3.39128E-10 -4.74195E-10 -5.39579E-10 -6.40023E-10 -6.77597E-10 -7.85607E-10 -9.09581E-10 -1.00965E-09 -1.02768E-09 -1.01360E-09
  -9.83992E-10 -9.45240E-10 -8.99649E-10 -8.48513E-10 -7.95605E-10 -7.41448E-10 -6.86052E-10 -6.29581E-10 -5.72223E-10 -5.14088E-10
  -4.55280E-10 -3.95852E-10 -3.35826E-10 -2.75209E-10 -2.13984E-10 -1.52072E-10 -8.93823E-11 -2.57507E-11  3.90463E-11  1.05367E-10
   1.73745E-10  2.44983E-10  3.20511E-10  4.02865E-10  4.97390E-10  6.17819E-10  7.98556E-10  9.49507E-10  1.10824E-09  1.19372E-09
   1.23322E-09  1.29064E-09  1.46038E-09  1.77023E-09  2.19167E-09  2.65597E-09  2.80232E-09  2.70671E-09  2.82555E-09  2.99723E-09
   3.22139E-09  3.45174E-09  3.58254E-09  3.47560E-09  3.17323E-09  2.85287E-09  2.67180E-09  2.78285E-09  2.77454E-09  2.55346E-09
   2.47303E-09  2.42692E-09  2.36525E-09  2.40432E-09  2.48905E-09  2.50973E-09  2.45282E-09  2.43873E-09  2.44599E-09  2.46469E-09
   2.49034E-09  2.52060E-09  2.55408E-09  2.58991E-09  2.62750E-09  2.66643E-09  2.70641E-09  2.74722E-09  2.78870E-09  2.83069E-09
   2.87312E-09  2.91588E-09  2.95893E-09  3.00221E-09  3.04567E-09  3.08928E-09  3.13301E-09  3.17684E-09  3.22075E-09  3.26472E-09
   3.30875E-09  3.35282E-09  3.39692E-09  3.44104E-09  3.48518E-09  3.52935E-09  3.57352E-09  3.61771E-09  3.66191E-09  3.70612E-09
   3.75033E-09  3.79457E-09  3.83881E-09  3.88307E-09  3.92735E-09  3.97159E-09  4.01571E-09  4.05960E-09  4.10320E-09  4.14641E-09
   4.18913E-09  4.23129E-09  4.27278E-09  4.31353E-09  4.35343E-09  4.39241E-09  4.43038E-09  4.46724E-09  4.50291E-09  4.53730E-09
   4.57032E-09  4.60189E-09  4.63192E-09  4.66031E-09  4.68699E-09  4.71185E-09  4.73483E-09  4.75582E-09  4.77474E-09  4.79151E-09
   4.80603E-09  4.81822E-09  4.82800E-09  4.83527E-09  4.83995E-09  4.84195E-09  4.84119E-09  4.83758E-09  4.83103E-09  4.82147E-09
   4.80879E-09  4.79293E-09  4.77379E-09  4.75131E-09  4.72537E-09  4.69592E-09  4.66287E-09  4.62614E-09  4.58566E-09  4.54136E-09
   4.49316E-09  4.44102E-09  4.38486E-09  4.32465E-09  4.26036E-09  4.19197E-09  4.11956E-09  4.04337E-09  3.96383E-09  3.88148E-09
   3.79711E-09  3.71195E-09  3.62815E-09  3.55009E-09  3.48833E-09  3.47669E-09  3.68193E-09  4.44357E-09  4.91836E-09  4.95386E-09
   4.78135E-09  4.59565E-09  4.45876E-09  4.38187E-09  4.36960E-09  4.33926E-09  4.04921E-09  3.23053E-09  2.14638E-09  1.76352E-09
   1.54136E-09  1.36443E-09  1.20577E-09  1.05628E-09  9.12158E-10  7.71639E-10  6.33785E-10  4.98118E-10  3.64435E-10  2.32629E-10
   1.02681E-10 -2.53431E-11 -1.51391E-10 -2.75323E-10 -3.97054E-10 -5.16433E-10 -6.33326E-10 -7.47569E-10 -8.59034E-10 -9.67546E-10
  -1.07295E-09 -1.17508E-09 -1.27378E-09 -1.36889E-09 -1.46023E-09 -1.54764E-09 -1.63094E-09 -1.70999E-09 -1.78466E-09 -1.85504E-09
  -1.92123E-09 -1.98334E-09 -2.04147E-09 -2.09572E-09 -2.14621E-09 -2.19303E-09 -2.23629E-09 -2.27609E-09 -2.31253E-09 -2.34573E-09
  -2.37577E-09 -2.40277E-09 -2.42682E-09 -2.44804E-09 -2.46652E-09 -2.48237E-09 -2.49568E-09 -2.50657E-09 -2.51515E-09 -2.52149E-09
