 LCModel (Version 6.3-1R) Copyright: S.W. Provencher.          Ref.: Magn. Reson. Med. 30:672-679 (1993).                
 onepulse 17x4_ftSpec_smooth_lcm
 26 lines in following concentration table = NCONC+1
    Conc.  %SD /Cr+PCr  Metabolite                                         
 7.94E-12 999% 5.5E-02 Ala                                                 
 1.82E-09  30%  12.728 Asp                                                 
    0.000 999%   0.000 Cr                                                  
 8.66E-10  58%   6.050 GABA                                                
    0.000 999%   0.000 Glc                                                 
    0.000 999%   0.000 Gln                                                 
    0.000 999%   0.000 Glu                                                 
    0.000 999%   0.000 Glyc                                                
 6.10E-11 158%   0.426 GPC                                                 
 5.38E-11 588%   0.375 GSH                                                 
 7.55E-10  44%   5.272 Ins                                                 
    0.000 999%   0.000 Lac                                                 
    0.000 999%   0.000 NAAG                                                
    0.000 999%   0.000 NAA                                                 
    0.000 999%   0.000 PCh                                                 
 1.43E-10 184%   1.000 PCr                                                 
    0.000 999%   0.000 PE                                                  
 1.77E-10 129%   1.238 Scyllo                                              
    0.000 999%   0.000 Ser                                                 
 1.51E-10 456%   1.052 Tau                                                 
 6.10E-11 158%   0.426 GPC+PCh                                             
    0.000 999%   0.000 NAA+NAAG                                            
 7.55E-10  44%   5.272 Ins+Glyc                                            
 1.43E-10 184%   1.000 Cr+PCr                                              
    0.000 999%   0.000 Glu+Gln                                             
   6 lines in following misc. output table
  FWHM = 0.112 ppm    S/N =   1                                            
  Data shift = 0.291 ppm                                                   
  Ph: 112 deg      10.4 deg/ppm                                            
  alphaB,S = 1.0E+00,   1.4E+01                                            
    8 spline knots.   Ns = 5(1)                                            
  ( 8) 5 infls.   (11) 3 extrs.                                            
  363 points on ppm-axis = NY
      4.250000     4.238821     4.227641     4.216462     4.205282     4.194103     4.182923     4.171744     4.160564     4.149385
      4.138206     4.127026     4.115847     4.104667     4.093488     4.082308     4.071129     4.059949     4.048770     4.037591
      4.026411     4.015232     4.004052     3.992873     3.981693     3.970514     3.959334     3.948155     3.936975     3.925796
      3.914617     3.903437     3.892258     3.881078     3.869899     3.858719     3.847540     3.836360     3.825181     3.814002
      3.802822     3.791643     3.780463     3.769284     3.758104     3.746925     3.735745     3.724566     3.713387     3.702207
      3.691028     3.679848     3.668669     3.657489     3.646310     3.635130     3.623951     3.612772     3.601592     3.590413
      3.579233     3.568054     3.556874     3.545695     3.534515     3.523336     3.512156     3.500977     3.489798     3.478618
      3.467439     3.456259     3.445080     3.433900     3.422721     3.411541     3.400362     3.389183     3.378003     3.366824
      3.355644     3.344465     3.333285     3.322106     3.310926     3.299747     3.288568     3.277388     3.266209     3.255029
      3.243850     3.232670     3.221491     3.210311     3.199132     3.187953     3.176773     3.165594     3.154414     3.143235
      3.132055     3.120876     3.109696     3.098517     3.087337     3.076158     3.064979     3.053799     3.042620     3.031440
      3.020261     3.009081     2.997902     2.986722     2.975543     2.964364     2.953184     2.942005     2.930825     2.919646
      2.908466     2.897287     2.886107     2.874928     2.863749     2.852569     2.841390     2.830210     2.819031     2.807851
      2.796672     2.785492     2.774313     2.763134     2.751954     2.740775     2.729595     2.718416     2.707236     2.696057
      2.684877     2.673698     2.662519     2.651339     2.640160     2.628980     2.617801     2.606621     2.595442     2.584262
      2.573083     2.561903     2.550724     2.539545     2.528365     2.517186     2.506006     2.494827     2.483647     2.472468
      2.461288     2.450109     2.438930     2.427750     2.416571     2.405391     2.394212     2.383032     2.371853     2.360673
      2.349494     2.338315     2.327135     2.315956     2.304776     2.293597     2.282417     2.271238     2.260058     2.248879
      2.237700     2.226520     2.215341     2.204161     2.192982     2.181802     2.170623     2.159443     2.148264     2.137084
      2.125905     2.114726     2.103546     2.092367     2.081187     2.070008     2.058828     2.047649     2.036469     2.025290
      2.014111     2.002931     1.991752     1.980572     1.969393     1.958213     1.947034     1.935854     1.924675     1.913496
      1.902316     1.891137     1.879957     1.868778     1.857598     1.846419     1.835239     1.824060     1.812881     1.801701
      1.790522     1.779342     1.768163     1.756983     1.745804     1.734624     1.723445     1.712265     1.701086     1.689907
      1.678727     1.667548     1.656368     1.645189     1.634009     1.622830     1.611650     1.600471     1.589292     1.578112
      1.566933     1.555753     1.544574     1.533394     1.522215     1.511035     1.499856     1.488677     1.477497     1.466318
      1.455138     1.443959     1.432779     1.421600     1.410420     1.399241     1.388062     1.376882     1.365703     1.354523
      1.343344     1.332164     1.320985     1.309805     1.298626     1.287446     1.276267     1.265088     1.253908     1.242729
      1.231549     1.220370     1.209190     1.198011     1.186831     1.175652     1.164473     1.153293     1.142114     1.130934
      1.119755     1.108575     1.097396     1.086216     1.075037     1.063858     1.052678     1.041499     1.030319     1.019140
      1.007960     0.996781     0.985601     0.974422     0.963243     0.952063     0.940884     0.929704     0.918525     0.907345
      0.896166     0.884986     0.873807     0.862628     0.851448     0.840269     0.829089     0.817910     0.806730     0.795551
      0.784371     0.773192     0.762012     0.750833     0.739654     0.728474     0.717295     0.706115     0.694936     0.683756
      0.672577     0.661397     0.650218     0.639039     0.627859     0.616680     0.605500     0.594321     0.583141     0.571962
      0.560782     0.549603     0.538424     0.527244     0.516065     0.504885     0.493706     0.482526     0.471347     0.460167
      0.448988     0.437809     0.426629     0.415450     0.404270     0.393091     0.381911     0.370732     0.359552     0.348373
      0.337193     0.326014     0.314835     0.303655     0.292476     0.281296     0.270117     0.258937     0.247758     0.236578
      0.225399     0.214220     0.203040
 NY phased data points follow
   4.63182E-09  7.16122E-09  5.14776E-09  8.31558E-09  6.78871E-09  1.00212E-08  8.28317E-09  1.03387E-08  7.38697E-09  9.35635E-09
   6.96971E-09  9.16051E-09  6.44960E-09  8.67379E-09  6.76084E-09  9.24527E-09  6.44841E-09  9.14979E-09  6.78178E-09  9.40269E-09
   7.11977E-09  9.67904E-09  7.46619E-09  9.41972E-09  6.99370E-09  9.38982E-09  6.70250E-09  8.98463E-09  6.63573E-09  8.97820E-09
   7.30010E-09  9.23084E-09  7.02750E-09  8.90211E-09  6.80810E-09  8.77354E-09  7.38451E-09  9.91290E-09  8.50333E-09  1.02783E-08
   7.64174E-09  9.84871E-09  7.42371E-09  9.05592E-09  7.16785E-09  8.90850E-09  6.95336E-09  8.90731E-09  6.97856E-09  8.71348E-09
   6.46133E-09  8.58215E-09  6.36341E-09  8.20805E-09  6.54331E-09  7.86928E-09  6.12810E-09  8.32361E-09  6.57248E-09  8.03346E-09
   6.08945E-09  7.33113E-09  5.88532E-09  7.64609E-09  5.89063E-09  7.77839E-09  6.25553E-09  8.52106E-09  7.50285E-09  9.49915E-09
   8.48367E-09  9.83767E-09  8.18562E-09  9.51474E-09  7.84682E-09  8.79898E-09  6.92086E-09  8.29851E-09  6.66776E-09  7.79673E-09
   5.69786E-09  7.28828E-09  5.44675E-09  7.61333E-09  7.29682E-09  9.73798E-09  9.07102E-09  1.06637E-08  9.57089E-09  1.06196E-08
   9.32905E-09  9.87069E-09  8.52814E-09  9.63763E-09  8.45307E-09  9.42227E-09  8.19928E-09  8.93630E-09  7.65073E-09  8.72406E-09
   7.08037E-09  8.48994E-09  6.62996E-09  7.74581E-09  6.14125E-09  7.65881E-09  6.22892E-09  7.25949E-09  5.90238E-09  6.81684E-09
   5.85023E-09  7.21579E-09  5.65278E-09  7.06113E-09  5.47879E-09  6.48474E-09  5.11914E-09  6.44723E-09  5.04665E-09  6.52611E-09
   4.97294E-09  6.31285E-09  5.15056E-09  6.48861E-09  4.92246E-09  6.33368E-09  5.46267E-09  6.60605E-09  5.38811E-09  6.01915E-09
   4.97521E-09  6.10146E-09  4.96709E-09  5.90722E-09  4.77509E-09  6.41571E-09  5.43174E-09  6.54093E-09  5.43917E-09  7.03382E-09
   6.24322E-09  7.11358E-09  6.13908E-09  6.86701E-09  6.21113E-09  7.83714E-09  6.96736E-09  7.94638E-09  7.05992E-09  8.16016E-09
   7.69383E-09  9.02019E-09  7.84822E-09  8.82479E-09  7.91693E-09  9.45775E-09  8.13046E-09  9.11382E-09  8.02179E-09  8.58021E-09
   7.56440E-09  8.59760E-09  8.29086E-09  8.96334E-09  7.91628E-09  8.70068E-09  7.76129E-09  9.09601E-09  8.04931E-09  9.01187E-09
   7.81355E-09  9.01349E-09  7.64196E-09  8.06502E-09  7.13584E-09  8.16254E-09  9.00923E-09  1.14890E-08  1.13064E-08  1.15089E-08
   1.03877E-08  1.06429E-08  9.36945E-09  9.07760E-09  7.22429E-09  6.74533E-09  5.08446E-09  4.04519E-09  1.76489E-09  1.20091E-09
  -1.45260E-09 -2.45576E-09 -4.70490E-09 -5.46290E-09 -7.20547E-09 -8.28592E-09 -9.53835E-09 -9.41928E-09 -1.02556E-08 -9.31397E-09
  -1.02002E-08 -9.33943E-09 -8.94231E-09 -7.29560E-09 -7.18474E-09 -5.49587E-09 -4.76218E-09 -3.07732E-09 -3.09432E-09 -2.17820E-09
  -2.40782E-09 -1.51535E-09 -1.95739E-09 -1.30728E-09 -2.20823E-09 -1.87527E-09 -2.05347E-09 -1.75891E-09 -1.93846E-09 -1.44589E-09
  -1.83806E-09 -1.07760E-09 -1.63859E-09 -6.39268E-10 -1.47718E-09 -6.63331E-10 -1.67457E-09 -7.74226E-10 -8.38528E-10 -1.40134E-10
  -4.67389E-10 -1.78161E-10 -5.83256E-10 -2.88684E-10 -2.70996E-10  1.40697E-10 -8.05683E-11  6.04419E-11 -3.52896E-10  5.95821E-11
  -5.75367E-10 -6.99358E-10 -9.61450E-10 -7.60125E-10 -1.24091E-09 -1.10544E-09 -1.59744E-09 -1.49217E-09 -1.51708E-09 -1.25893E-09
  -1.77119E-09 -1.53587E-09 -1.98925E-09 -1.66494E-09 -2.14648E-09 -2.40579E-09 -2.31876E-09 -2.73124E-09 -3.01226E-09 -3.02177E-09
  -2.83836E-09 -3.08192E-09 -3.36320E-09 -3.46054E-09 -3.79586E-09 -3.46454E-09 -3.79694E-09 -3.80014E-09 -4.44803E-09 -4.00928E-09
  -3.99754E-09 -3.86188E-09 -3.85979E-09 -3.74432E-09 -3.82885E-09 -3.68677E-09 -3.15977E-09 -3.27068E-09 -3.49690E-09 -2.99873E-09
  -2.86260E-09 -2.96424E-09 -2.86360E-09 -2.78327E-09 -2.87540E-09 -2.75916E-09 -2.91262E-09 -2.60140E-09 -2.32445E-09 -2.37012E-09
  -2.78624E-09 -2.73651E-09 -2.37110E-09 -2.67805E-09 -2.31249E-09 -2.97803E-09 -2.80650E-09 -2.70046E-09 -2.73913E-09 -3.12172E-09
  -3.22774E-09 -3.15512E-09 -3.23014E-09 -3.30313E-09 -3.48100E-09 -3.67492E-09 -3.51064E-09 -3.39873E-09 -3.41740E-09 -4.04843E-09
  -3.52625E-09 -4.03565E-09 -3.48705E-09 -3.76394E-09 -3.97629E-09 -4.47621E-09 -4.02428E-09 -3.72770E-09 -3.94933E-09 -4.42567E-09
  -4.48077E-09 -4.39992E-09 -4.18095E-09 -4.35857E-09 -4.21776E-09 -4.52861E-09 -4.44795E-09 -4.90255E-09 -4.06893E-09 -4.70337E-09
  -4.58971E-09 -4.89368E-09 -4.05906E-09 -5.07234E-09 -4.55962E-09 -5.02962E-09 -4.64207E-09 -4.89006E-09 -4.45946E-09 -4.93284E-09
  -4.85611E-09 -5.54295E-09 -4.94648E-09 -5.19056E-09 -4.63457E-09 -5.52784E-09 -4.96082E-09 -5.37351E-09 -5.05351E-09 -5.73692E-09
  -5.16994E-09 -5.63198E-09 -5.12732E-09 -6.00671E-09 -4.96961E-09 -5.74396E-09 -5.52777E-09 -6.31216E-09 -5.24207E-09 -5.84478E-09
  -5.29282E-09 -5.72884E-09 -5.49019E-09
 NY points of the fit to the data follow
   7.11393E-09  6.75079E-09  6.68654E-09  6.94769E-09  7.46078E-09  7.60753E-09  7.72969E-09  8.11452E-09  8.51618E-09  8.51429E-09
   8.36225E-09  8.26175E-09  8.33614E-09  8.32348E-09  8.08677E-09  7.98998E-09  8.36572E-09  8.55999E-09  7.91232E-09  7.42703E-09
   7.50333E-09  7.80284E-09  7.99336E-09  8.32935E-09  8.58606E-09  8.68741E-09  8.44972E-09  7.85373E-09  7.31877E-09  7.79928E-09
   8.21377E-09  8.55527E-09  8.70505E-09  8.42059E-09  7.96050E-09  8.09002E-09  8.32560E-09  8.43438E-09  8.43484E-09  8.25190E-09
   8.05486E-09  7.93521E-09  7.54445E-09  7.63295E-09  8.25429E-09  8.57630E-09  8.14469E-09  7.82535E-09  7.92959E-09  8.09037E-09
   8.37107E-09  8.58889E-09  8.57308E-09  8.19674E-09  7.59826E-09  7.19896E-09  7.05761E-09  7.53851E-09  7.63615E-09  7.41637E-09
   7.52019E-09  7.76133E-09  7.92141E-09  8.07882E-09  8.39805E-09  8.55462E-09  8.32966E-09  8.23012E-09  8.24331E-09  8.24179E-09
   8.15144E-09  7.95628E-09  7.74552E-09  7.68302E-09  7.62271E-09  7.26659E-09  7.18313E-09  7.39446E-09  7.41565E-09  7.45802E-09
   7.60682E-09  7.69635E-09  7.84117E-09  8.05990E-09  8.14117E-09  8.19542E-09  8.32955E-09  8.40493E-09  8.42935E-09  8.41501E-09
   8.33274E-09  8.31486E-09  8.33339E-09  8.10516E-09  7.90532E-09  7.96573E-09  7.82138E-09  7.60086E-09  7.58592E-09  7.55136E-09
   7.48251E-09  7.45140E-09  7.43714E-09  7.43050E-09  7.42324E-09  7.41397E-09  7.40377E-09  7.39268E-09  7.37925E-09  7.36133E-09
   7.33926E-09  7.31873E-09  7.30101E-09  7.27432E-09  7.24534E-09  7.22107E-09  7.19603E-09  7.16940E-09  7.14105E-09  7.11104E-09
   7.07929E-09  7.04596E-09  7.01098E-09  6.97442E-09  6.93630E-09  6.89662E-09  6.85538E-09  6.81269E-09  6.76851E-09  6.72286E-09
   6.67578E-09  6.62726E-09  6.57740E-09  6.52616E-09  6.47359E-09  6.41966E-09  6.36454E-09  6.30810E-09  6.25046E-09  6.19160E-09
   6.13164E-09  6.07058E-09  6.00850E-09  5.94538E-09  5.88136E-09  5.81650E-09  5.75089E-09  5.68467E-09  5.61801E-09  5.55109E-09
   5.48411E-09  5.41735E-09  5.35109E-09  5.28574E-09  5.22175E-09  5.15974E-09  5.10050E-09  5.04510E-09  4.99501E-09  4.95236E-09
   4.92029E-09  4.90390E-09  4.91175E-09  4.96006E-09  5.08389E-09  5.37786E-09  6.20740E-09  8.51526E-09  9.93819E-09  1.01720E-08
   9.70557E-09  9.14850E-09  8.65696E-09  8.57101E-09  8.97654E-09  9.73176E-09  9.73549E-09  7.58676E-09  3.72210E-09  2.47811E-09
   2.14795E-09  1.98859E-09  1.87717E-09  1.78236E-09  1.69371E-09  1.60722E-09  1.52127E-09  1.43521E-09  1.34870E-09  1.26173E-09
   1.17436E-09  1.08661E-09  9.98605E-10  9.10430E-10  8.22245E-10  7.34092E-10  6.46043E-10  5.58276E-10  4.70832E-10  3.83756E-10
   2.97157E-10  2.11106E-10  1.25686E-10  4.09426E-11 -4.30838E-11 -1.26267E-10 -2.08598E-10 -2.90019E-10 -3.70486E-10 -4.49871E-10
  -5.28239E-10 -6.05450E-10 -6.81480E-10 -7.56294E-10 -8.29874E-10 -9.02100E-10 -9.72977E-10 -1.04249E-09 -1.11052E-09 -1.17714E-09
  -1.24233E-09 -1.30614E-09 -1.36857E-09 -1.42965E-09 -1.48937E-09 -1.54780E-09 -1.60494E-09 -1.66080E-09 -1.71542E-09 -1.76881E-09
  -1.82101E-09 -1.87203E-09 -1.92190E-09 -1.97064E-09 -2.01829E-09 -2.06485E-09 -2.11037E-09 -2.15485E-09 -2.19834E-09 -2.24085E-09
  -2.28241E-09 -2.32305E-09 -2.36279E-09 -2.40166E-09 -2.43968E-09 -2.47688E-09 -2.51329E-09 -2.54893E-09 -2.58383E-09 -2.61801E-09
  -2.65152E-09 -2.68434E-09 -2.71655E-09 -2.74812E-09 -2.77911E-09 -2.80956E-09 -2.83946E-09 -2.86885E-09 -2.89775E-09 -2.92619E-09
  -2.95420E-09 -2.98181E-09 -3.00902E-09 -3.03588E-09 -3.06239E-09 -3.08859E-09 -3.11451E-09 -3.14014E-09 -3.16553E-09 -3.19071E-09
  -3.21568E-09 -3.24047E-09 -3.26511E-09 -3.28959E-09 -3.31398E-09 -3.33826E-09 -3.36248E-09 -3.38663E-09 -3.41074E-09 -3.43484E-09
  -3.45894E-09 -3.48305E-09 -3.50721E-09 -3.53141E-09 -3.55568E-09 -3.58004E-09 -3.60450E-09 -3.62906E-09 -3.65376E-09 -3.67860E-09
  -3.70359E-09 -3.72874E-09 -3.75402E-09 -3.77941E-09 -3.80488E-09 -3.83040E-09 -3.85597E-09 -3.88154E-09 -3.90710E-09 -3.93263E-09
  -3.95810E-09 -3.98348E-09 -4.00877E-09 -4.03392E-09 -4.05892E-09 -4.08376E-09 -4.10839E-09 -4.13281E-09 -4.15699E-09 -4.18090E-09
  -4.20453E-09 -4.22785E-09 -4.25085E-09 -4.27349E-09 -4.29577E-09 -4.31765E-09 -4.33912E-09 -4.36016E-09 -4.38074E-09 -4.40085E-09
  -4.42046E-09 -4.43956E-09 -4.45812E-09 -4.47613E-09 -4.49357E-09 -4.51040E-09 -4.52664E-09 -4.54224E-09 -4.55720E-09 -4.57148E-09
  -4.58509E-09 -4.59799E-09 -4.61018E-09 -4.62163E-09 -4.63232E-09 -4.64225E-09 -4.65139E-09 -4.65973E-09 -4.66726E-09 -4.67395E-09
  -4.67980E-09 -4.68478E-09 -4.68889E-09 -4.69211E-09 -4.69442E-09 -4.69582E-09 -4.69628E-09 -4.69581E-09 -4.69437E-09 -4.69197E-09
  -4.68859E-09 -4.68422E-09 -4.67884E-09 -4.67245E-09 -4.66505E-09 -4.65660E-09 -4.64711E-09 -4.63657E-09 -4.62497E-09 -4.61230E-09
  -4.59855E-09 -4.58371E-09 -4.56779E-09
 NY background values follow
     4.362E-09    4.463E-09    4.562E-09    4.660E-09    4.756E-09    4.851E-09    4.945E-09    5.037E-09    5.128E-09    5.218E-09
     5.307E-09    5.394E-09    5.480E-09    5.564E-09    5.647E-09    5.729E-09    5.809E-09    5.889E-09    5.966E-09    6.043E-09
     6.118E-09    6.192E-09    6.264E-09    6.335E-09    6.405E-09    6.473E-09    6.540E-09    6.606E-09    6.670E-09    6.733E-09
     6.795E-09    6.855E-09    6.914E-09    6.972E-09    7.028E-09    7.083E-09    7.137E-09    7.189E-09    7.240E-09    7.290E-09
     7.338E-09    7.385E-09    7.431E-09    7.475E-09    7.518E-09    7.560E-09    7.600E-09    7.640E-09    7.677E-09    7.714E-09
     7.749E-09    7.783E-09    7.816E-09    7.847E-09    7.877E-09    7.906E-09    7.934E-09    7.960E-09    7.985E-09    8.009E-09
     8.032E-09    8.053E-09    8.073E-09    8.092E-09    8.109E-09    8.126E-09    8.141E-09    8.155E-09    8.168E-09    8.179E-09
     8.189E-09    8.199E-09    8.206E-09    8.213E-09    8.219E-09    8.223E-09    8.226E-09    8.228E-09    8.229E-09    8.229E-09
     8.227E-09    8.225E-09    8.221E-09    8.216E-09    8.210E-09    8.202E-09    8.193E-09    8.184E-09    8.173E-09    8.160E-09
     8.147E-09    8.132E-09    8.117E-09    8.100E-09    8.081E-09    8.062E-09    8.041E-09    8.019E-09    7.996E-09    7.972E-09
     7.947E-09    7.920E-09    7.892E-09    7.863E-09    7.832E-09    7.801E-09    7.768E-09    7.734E-09    7.699E-09    7.662E-09
     7.624E-09    7.585E-09    7.545E-09    7.504E-09    7.461E-09    7.417E-09    7.371E-09    7.325E-09    7.277E-09    7.228E-09
     7.178E-09    7.126E-09    7.073E-09    7.019E-09    6.964E-09    6.907E-09    6.849E-09    6.790E-09    6.729E-09    6.668E-09
     6.605E-09    6.540E-09    6.474E-09    6.408E-09    6.339E-09    6.270E-09    6.199E-09    6.127E-09    6.053E-09    5.979E-09
     5.903E-09    5.825E-09    5.747E-09    5.667E-09    5.585E-09    5.503E-09    5.419E-09    5.334E-09    5.247E-09    5.160E-09
     5.071E-09    4.981E-09    4.890E-09    4.798E-09    4.705E-09    4.612E-09    4.517E-09    4.421E-09    4.324E-09    4.227E-09
     4.128E-09    4.029E-09    3.930E-09    3.829E-09    3.728E-09    3.626E-09    3.524E-09    3.422E-09    3.318E-09    3.215E-09
     3.111E-09    3.007E-09    2.902E-09    2.797E-09    2.692E-09    2.587E-09    2.482E-09    2.376E-09    2.271E-09    2.165E-09
     2.060E-09    1.955E-09    1.849E-09    1.744E-09    1.640E-09    1.535E-09    1.431E-09    1.327E-09    1.223E-09    1.120E-09
     1.018E-09    9.157E-10    8.141E-10    7.131E-10    6.129E-10    5.132E-10    4.143E-10    3.162E-10    2.189E-10    1.225E-10
     2.688E-11   -6.775E-11   -1.614E-10   -2.540E-10   -3.457E-10   -4.361E-10   -5.255E-10   -6.137E-10   -7.007E-10   -7.863E-10
    -8.708E-10   -9.539E-10   -1.036E-09   -1.116E-09   -1.195E-09   -1.272E-09   -1.348E-09   -1.422E-09   -1.495E-09   -1.566E-09
    -1.636E-09   -1.704E-09   -1.771E-09   -1.836E-09   -1.900E-09   -1.962E-09   -2.023E-09   -2.082E-09   -2.140E-09   -2.197E-09
    -2.253E-09   -2.307E-09   -2.360E-09   -2.412E-09   -2.462E-09   -2.512E-09   -2.560E-09   -2.607E-09   -2.654E-09   -2.699E-09
    -2.743E-09   -2.786E-09   -2.828E-09   -2.869E-09   -2.909E-09   -2.949E-09   -2.987E-09   -3.025E-09   -3.062E-09   -3.098E-09
    -3.133E-09   -3.168E-09   -3.202E-09   -3.235E-09   -3.267E-09   -3.299E-09   -3.331E-09   -3.362E-09   -3.392E-09   -3.422E-09
    -3.451E-09   -3.480E-09   -3.508E-09   -3.536E-09   -3.564E-09   -3.591E-09   -3.618E-09   -3.644E-09   -3.670E-09   -3.696E-09
    -3.722E-09   -3.748E-09   -3.773E-09   -3.798E-09   -3.823E-09   -3.848E-09   -3.873E-09   -3.897E-09   -3.922E-09   -3.946E-09
    -3.971E-09   -3.995E-09   -4.019E-09   -4.044E-09   -4.068E-09   -4.093E-09   -4.117E-09   -4.142E-09   -4.167E-09   -4.191E-09
    -4.216E-09   -4.241E-09   -4.266E-09   -4.292E-09   -4.317E-09   -4.342E-09   -4.367E-09   -4.393E-09   -4.418E-09   -4.443E-09
    -4.468E-09   -4.493E-09   -4.518E-09   -4.542E-09   -4.567E-09   -4.591E-09   -4.615E-09   -4.639E-09   -4.662E-09   -4.685E-09
    -4.708E-09   -4.731E-09   -4.753E-09   -4.775E-09   -4.796E-09   -4.817E-09   -4.838E-09   -4.858E-09   -4.877E-09   -4.896E-09
    -4.915E-09   -4.933E-09   -4.950E-09   -4.967E-09   -4.984E-09   -4.999E-09   -5.014E-09   -5.029E-09   -5.042E-09   -5.055E-09
    -5.067E-09   -5.079E-09   -5.090E-09   -5.100E-09   -5.109E-09   -5.118E-09   -5.125E-09   -5.132E-09   -5.138E-09   -5.143E-09
    -5.147E-09   -5.151E-09   -5.153E-09   -5.155E-09   -5.155E-09   -5.155E-09   -5.154E-09   -5.152E-09   -5.148E-09   -5.144E-09
    -5.139E-09   -5.133E-09   -5.126E-09   -5.117E-09   -5.108E-09   -5.098E-09   -5.086E-09   -5.074E-09   -5.060E-09   -5.045E-09
    -5.030E-09   -5.013E-09   -4.995E-09
 Ala      Conc. = 7.94E-12
   4.36797E-09  4.46754E-09  4.56605E-09  4.66325E-09  4.75915E-09  4.85378E-09  4.94619E-09  5.03756E-09  5.12943E-09  5.21848E-09
   5.30527E-09  5.39294E-09  5.47903E-09  5.56298E-09  5.64617E-09  5.72816E-09  5.80881E-09  5.88810E-09  5.96604E-09  6.04261E-09
   6.11783E-09  6.19169E-09  6.26420E-09  6.33535E-09  6.40514E-09  6.47360E-09  6.54070E-09  6.60646E-09  6.67087E-09  6.73394E-09
   6.79567E-09  6.85605E-09  6.91508E-09  6.97280E-09  7.02916E-09  7.08422E-09  7.13791E-09  7.19027E-09  7.24133E-09  7.29104E-09
   7.33944E-09  7.38650E-09  7.43227E-09  7.47669E-09  7.51982E-09  7.56163E-09  7.60216E-09  7.64135E-09  7.67925E-09  7.71587E-09
   7.75117E-09  7.78521E-09  7.81794E-09  7.84939E-09  7.87960E-09  7.90849E-09  7.93613E-09  7.96255E-09  7.98761E-09  8.01147E-09
   8.03410E-09  8.05544E-09  8.07556E-09  8.09443E-09  8.11212E-09  8.12854E-09  8.14376E-09  8.15774E-09  8.17052E-09  8.18212E-09
   8.19249E-09  8.20167E-09  8.20971E-09  8.21653E-09  8.22220E-09  8.22669E-09  8.23000E-09  8.23215E-09  8.23312E-09  8.23292E-09
   8.23154E-09  8.22899E-09  8.22526E-09  8.22035E-09  8.21429E-09  8.20705E-09  8.19863E-09  8.18906E-09  8.17833E-09  8.16643E-09
   8.15337E-09  8.13920E-09  8.12387E-09  8.10747E-09  8.08998E-09  8.07146E-09  8.05205E-09  8.03189E-09  8.01140E-09  7.99171E-09
   7.97098E-09  7.94457E-09  7.91768E-09  7.89142E-09  7.86158E-09  7.82871E-09  7.79460E-09  7.75957E-09  7.72236E-09  7.68090E-09
   7.63576E-09  7.59289E-09  7.55342E-09  7.50555E-09  7.45586E-09  7.41122E-09  7.36626E-09  7.32018E-09  7.27280E-09  7.22419E-09
   7.17420E-09  7.12295E-09  7.07037E-09  7.01651E-09  6.96135E-09  6.90488E-09  6.84709E-09  6.78805E-09  6.72770E-09  6.66604E-09
   6.60310E-09  6.53884E-09  6.47331E-09  6.40647E-09  6.33833E-09  6.26885E-09  6.19815E-09  6.12610E-09  6.05276E-09  5.97809E-09
   5.90213E-09  5.82487E-09  5.74632E-09  5.66642E-09  5.58524E-09  5.50275E-09  5.41896E-09  5.33390E-09  5.24761E-09  5.16013E-09
   5.07148E-09  4.98172E-09  4.89085E-09  4.79895E-09  4.70603E-09  4.61213E-09  4.51731E-09  4.42158E-09  4.32501E-09  4.22764E-09
   4.12948E-09  4.03063E-09  3.93111E-09  3.83102E-09  3.73048E-09  3.62975E-09  3.52992E-09  3.43215E-09  3.33154E-09  3.22831E-09
   3.12356E-09  3.01843E-09  2.91322E-09  2.80865E-09  2.70485E-09  2.60134E-09  2.49566E-09  2.38532E-09  2.27264E-09  2.16581E-09
   2.06010E-09  1.95471E-09  1.84949E-09  1.74449E-09  1.63971E-09  1.53518E-09  1.43096E-09  1.32713E-09  1.22364E-09  1.12057E-09
   1.01802E-09  9.15937E-10  8.14420E-10  7.13483E-10  6.13227E-10  5.13638E-10  4.14736E-10  3.16651E-10  2.19381E-10  1.22932E-10
   2.73768E-11 -6.72444E-11 -1.60875E-10 -2.53497E-10 -3.45091E-10 -4.35552E-10 -5.24888E-10 -6.13059E-10 -7.00038E-10 -7.85707E-10
  -8.70147E-10 -9.53226E-10 -1.03493E-09 -1.11524E-09 -1.19415E-09 -1.27153E-09 -1.34740E-09 -1.42176E-09 -1.49449E-09 -1.56568E-09
  -1.63530E-09 -1.70341E-09 -1.77002E-09 -1.83515E-09 -1.89882E-09 -1.96109E-09 -2.02194E-09 -2.08143E-09 -2.13956E-09 -2.19637E-09
  -2.25190E-09 -2.30615E-09 -2.35917E-09 -2.41096E-09 -2.46157E-09 -2.51102E-09 -2.55934E-09 -2.60655E-09 -2.65269E-09 -2.69777E-09
  -2.74182E-09 -2.78488E-09 -2.82698E-09 -2.86813E-09 -2.90835E-09 -2.94770E-09 -2.98619E-09 -3.02384E-09 -3.06070E-09 -3.09676E-09
  -3.13209E-09 -3.16668E-09 -3.20060E-09 -3.23381E-09 -3.26639E-09 -3.29837E-09 -3.32974E-09 -3.36055E-09 -3.39082E-09 -3.42057E-09
  -3.44984E-09 -3.47865E-09 -3.50702E-09 -3.53499E-09 -3.56255E-09 -3.58975E-09 -3.61663E-09 -3.64316E-09 -3.66942E-09 -3.69541E-09
  -3.72114E-09 -3.74665E-09 -3.77196E-09 -3.79707E-09 -3.82205E-09 -3.84687E-09 -3.87157E-09 -3.89618E-09 -3.92070E-09 -3.94516E-09
  -3.96959E-09 -3.99399E-09 -4.01839E-09 -4.04279E-09 -4.06723E-09 -4.09171E-09 -4.11626E-09 -4.14086E-09 -4.16556E-09 -4.19037E-09
  -4.21529E-09 -4.24033E-09 -4.26547E-09 -4.29067E-09 -4.31592E-09 -4.34119E-09 -4.36646E-09 -4.39171E-09 -4.41691E-09 -4.44204E-09
  -4.46708E-09 -4.49200E-09 -4.51679E-09 -4.54141E-09 -4.56585E-09 -4.59008E-09 -4.61409E-09 -4.63784E-09 -4.66132E-09 -4.68451E-09
  -4.70738E-09 -4.72991E-09 -4.75208E-09 -4.77388E-09 -4.79527E-09 -4.81624E-09 -4.83677E-09 -4.85683E-09 -4.87641E-09 -4.89548E-09
  -4.91404E-09 -4.93204E-09 -4.94949E-09 -4.96636E-09 -4.98262E-09 -4.99826E-09 -5.01327E-09 -5.02761E-09 -5.04129E-09 -5.05427E-09
  -5.06654E-09 -5.07808E-09 -5.08888E-09 -5.09891E-09 -5.10817E-09 -5.11664E-09 -5.12429E-09 -5.13112E-09 -5.13711E-09 -5.14224E-09
  -5.14650E-09 -5.14987E-09 -5.15235E-09 -5.15391E-09 -5.15454E-09 -5.15424E-09 -5.15298E-09 -5.15076E-09 -5.14755E-09 -5.14336E-09
  -5.13817E-09 -5.13196E-09 -5.12473E-09 -5.11647E-09 -5.10716E-09 -5.09680E-09 -5.08538E-09 -5.07288E-09 -5.05930E-09 -5.04463E-09
  -5.02886E-09 -5.01199E-09 -4.99401E-09
 Asp      Conc. = 1.82E-09
   4.68062E-09  4.42348E-09  4.40719E-09  4.34934E-09  4.41078E-09  4.32596E-09  4.30896E-09  4.38717E-09  4.61083E-09  4.81949E-09
   5.00693E-09  5.17860E-09  5.33955E-09  5.49174E-09  5.63252E-09  5.76562E-09  5.89355E-09  6.01729E-09  6.13758E-09  6.25499E-09
   6.37006E-09  6.48325E-09  6.59501E-09  6.70576E-09  6.81592E-09  6.92599E-09  7.03645E-09  7.14789E-09  7.26100E-09  7.37661E-09
   7.49584E-09  7.62010E-09  7.75139E-09  7.89269E-09  8.04855E-09  8.22644E-09  8.43174E-09  8.55920E-09  8.68296E-09  8.70682E-09
   8.74682E-09  8.87301E-09  9.15654E-09  9.55650E-09  9.89726E-09  1.01220E-08  9.82317E-09  9.39448E-09  9.32823E-09  9.32325E-09
   9.45011E-09  9.53240E-09  9.39345E-09  8.89297E-09  8.18441E-09  7.68297E-09  7.43157E-09  7.79754E-09  7.77251E-09  7.41451E-09
   7.35321E-09  7.37320E-09  7.35699E-09  7.49315E-09  7.67747E-09  7.68920E-09  7.53844E-09  7.53282E-09  7.56404E-09  7.60359E-09
   7.64398E-09  7.68279E-09  7.71922E-09  7.75289E-09  7.78380E-09  7.81200E-09  7.83756E-09  7.86062E-09  7.88125E-09  7.89958E-09
   7.91568E-09  7.92965E-09  7.94156E-09  7.95149E-09  7.95951E-09  7.96566E-09  7.96999E-09  7.97256E-09  7.97341E-09  7.97256E-09
   7.97005E-09  7.96594E-09  7.96020E-09  7.95294E-09  7.94410E-09  7.93371E-09  7.92184E-09  7.90847E-09  7.89361E-09  7.87730E-09
   7.85953E-09  7.84033E-09  7.81969E-09  7.79766E-09  7.77419E-09  7.74933E-09  7.72307E-09  7.69545E-09  7.66645E-09  7.63603E-09
   7.60431E-09  7.57119E-09  7.53670E-09  7.50086E-09  7.46368E-09  7.42515E-09  7.38529E-09  7.34410E-09  7.30155E-09  7.25773E-09
   7.21251E-09  7.16602E-09  7.11818E-09  7.06905E-09  7.01862E-09  6.96686E-09  6.91377E-09  6.85943E-09  6.80378E-09  6.74684E-09
   6.68863E-09  6.62910E-09  6.56835E-09  6.50632E-09  6.44304E-09  6.37847E-09  6.31274E-09  6.24574E-09  6.17754E-09  6.10811E-09
   6.03753E-09  5.96578E-09  5.89290E-09  5.81887E-09  5.74377E-09  5.66761E-09  5.59045E-09  5.51235E-09  5.43342E-09  5.35375E-09
   5.27345E-09  5.19267E-09  5.11155E-09  5.03030E-09  4.94914E-09  4.86835E-09  4.78831E-09  4.70951E-09  4.63261E-09  4.55856E-09
   4.48870E-09  4.42523E-09  4.37170E-09  4.33468E-09  4.32776E-09  4.38530E-09  4.62607E-09  5.55236E-09  6.21541E-09  6.32930E-09
   6.08854E-09  5.77688E-09  5.48149E-09  5.34717E-09  5.43015E-09  5.70182E-09  5.73421E-09  4.87620E-09  3.09853E-09  2.30409E-09
   2.07027E-09  1.93433E-09  1.82453E-09  1.72355E-09  1.62582E-09  1.52929E-09  1.43315E-09  1.33715E-09  1.24107E-09  1.14498E-09
   1.04896E-09  9.52982E-10  8.57177E-10  7.61590E-10  6.66354E-10  5.71484E-10  4.77026E-10  3.83133E-10  2.89828E-10  1.97132E-10
   1.05140E-10  1.39048E-11 -7.65024E-11 -1.66050E-10 -2.54710E-10 -3.42366E-10 -4.29017E-10 -5.14616E-10 -5.99126E-10 -6.82425E-10
  -7.64587E-10 -8.45475E-10 -9.25072E-10 -1.00335E-09 -1.08029E-09 -1.15578E-09 -1.22983E-09 -1.30242E-09 -1.37346E-09 -1.44299E-09
  -1.51102E-09 -1.57759E-09 -1.64270E-09 -1.70639E-09 -1.76867E-09 -1.82957E-09 -1.88912E-09 -1.94733E-09 -2.00423E-09 -2.05984E-09
  -2.11421E-09 -2.16734E-09 -2.21926E-09 -2.27000E-09 -2.31959E-09 -2.36804E-09 -2.41540E-09 -2.46167E-09 -2.50690E-09 -2.55110E-09
