 LCModel (Version 6.3-1R) Copyright: S.W. Provencher.          Ref.: Magn. Reson. Med. 30:672-679 (1993).                
 onepulse 17x5_ftSpec_smooth_lcm
 26 lines in following concentration table = NCONC+1
    Conc.  %SD   /Cr    Metabolite                                         
    0.000 999%   0.000 Ala                                                 
 1.58E-09  40%   0.000 Asp                                                 
    0.000 999%   0.000 Cr                                                  
 2.02E-09  25%   0.000 GABA                                                
 5.11E-10 155%   0.000 Glc                                                 
    0.000 999%   0.000 Gln                                                 
    0.000 999%   0.000 Glu                                                 
    0.000 999%   0.000 Glyc                                                
 8.28E-11 117%   0.000 GPC                                                 
 8.06E-11 473%   0.000 GSH                                                 
 6.67E-10  76%   0.000 Ins                                                 
    0.000 999%   0.000 Lac                                                 
    0.000 999%   0.000 NAAG                                                
    0.000 999%   0.000 NAA                                                 
    0.000 999%   0.000 PCh                                                 
    0.000 999%   0.000 PCr                                                 
    0.000 999%   0.000 PE                                                  
 1.73E-10 116%   0.000 Scyllo                                              
    0.000 999%   0.000 Ser                                                 
    0.000 999%   0.000 Tau                                                 
 8.28E-11 117%   0.000 GPC+PCh                                             
    0.000 999%   0.000 NAA+NAAG                                            
 6.67E-10  76%   0.000 Ins+Glyc                                            
    0.000 999%   0.000 Cr+PCr                                              
    0.000 999%   0.000 Glu+Gln                                             
   6 lines in following misc. output table
  FWHM = 0.112 ppm    S/N =   2                                            
  Data shift = 0.291 ppm                                                   
  Ph:  76 deg      -0.3 deg/ppm                                            
  alphaB,S = 7.9E-01,   1.3E+01                                            
    8 spline knots.   Ns = 5(1)                                            
   2 inflections.     1 extrema                                            
  363 points on ppm-axis = NY
      4.250000     4.238821     4.227641     4.216462     4.205282     4.194103     4.182923     4.171744     4.160564     4.149385
      4.138206     4.127026     4.115847     4.104667     4.093488     4.082308     4.071129     4.059949     4.048770     4.037591
      4.026411     4.015232     4.004052     3.992873     3.981693     3.970514     3.959334     3.948155     3.936975     3.925796
      3.914617     3.903437     3.892258     3.881078     3.869899     3.858719     3.847540     3.836360     3.825181     3.814002
      3.802822     3.791643     3.780463     3.769284     3.758104     3.746925     3.735745     3.724566     3.713387     3.702207
      3.691028     3.679848     3.668669     3.657489     3.646310     3.635130     3.623951     3.612772     3.601592     3.590413
      3.579233     3.568054     3.556874     3.545695     3.534515     3.523336     3.512156     3.500977     3.489798     3.478618
      3.467439     3.456259     3.445080     3.433900     3.422721     3.411541     3.400362     3.389183     3.378003     3.366824
      3.355644     3.344465     3.333285     3.322106     3.310926     3.299747     3.288568     3.277388     3.266209     3.255029
      3.243850     3.232670     3.221491     3.210311     3.199132     3.187953     3.176773     3.165594     3.154414     3.143235
      3.132055     3.120876     3.109696     3.098517     3.087337     3.076158     3.064979     3.053799     3.042620     3.031440
      3.020261     3.009081     2.997902     2.986722     2.975543     2.964364     2.953184     2.942005     2.930825     2.919646
      2.908466     2.897287     2.886107     2.874928     2.863749     2.852569     2.841390     2.830210     2.819031     2.807851
      2.796672     2.785492     2.774313     2.763134     2.751954     2.740775     2.729595     2.718416     2.707236     2.696057
      2.684877     2.673698     2.662519     2.651339     2.640160     2.628980     2.617801     2.606621     2.595442     2.584262
      2.573083     2.561903     2.550724     2.539545     2.528365     2.517186     2.506006     2.494827     2.483647     2.472468
      2.461288     2.450109     2.438930     2.427750     2.416571     2.405391     2.394212     2.383032     2.371853     2.360673
      2.349494     2.338315     2.327135     2.315956     2.304776     2.293597     2.282417     2.271238     2.260058     2.248879
      2.237700     2.226520     2.215341     2.204161     2.192982     2.181802     2.170623     2.159443     2.148264     2.137084
      2.125905     2.114726     2.103546     2.092367     2.081187     2.070008     2.058828     2.047649     2.036469     2.025290
      2.014111     2.002931     1.991752     1.980572     1.969393     1.958213     1.947034     1.935854     1.924675     1.913496
      1.902316     1.891137     1.879957     1.868778     1.857598     1.846419     1.835239     1.824060     1.812881     1.801701
      1.790522     1.779342     1.768163     1.756983     1.745804     1.734624     1.723445     1.712265     1.701086     1.689907
      1.678727     1.667548     1.656368     1.645189     1.634009     1.622830     1.611650     1.600471     1.589292     1.578112
      1.566933     1.555753     1.544574     1.533394     1.522215     1.511035     1.499856     1.488677     1.477497     1.466318
      1.455138     1.443959     1.432779     1.421600     1.410420     1.399241     1.388062     1.376882     1.365703     1.354523
      1.343344     1.332164     1.320985     1.309805     1.298626     1.287446     1.276267     1.265088     1.253908     1.242729
      1.231549     1.220370     1.209190     1.198011     1.186831     1.175652     1.164473     1.153293     1.142114     1.130934
      1.119755     1.108575     1.097396     1.086216     1.075037     1.063858     1.052678     1.041499     1.030319     1.019140
      1.007960     0.996781     0.985601     0.974422     0.963243     0.952063     0.940884     0.929704     0.918525     0.907345
      0.896166     0.884986     0.873807     0.862628     0.851448     0.840269     0.829089     0.817910     0.806730     0.795551
      0.784371     0.773192     0.762012     0.750833     0.739654     0.728474     0.717295     0.706115     0.694936     0.683756
      0.672577     0.661397     0.650218     0.639039     0.627859     0.616680     0.605500     0.594321     0.583141     0.571962
      0.560782     0.549603     0.538424     0.527244     0.516065     0.504885     0.493706     0.482526     0.471347     0.460167
      0.448988     0.437809     0.426629     0.415450     0.404270     0.393091     0.381911     0.370732     0.359552     0.348373
      0.337193     0.326014     0.314835     0.303655     0.292476     0.281296     0.270117     0.258937     0.247758     0.236578
      0.225399     0.214220     0.203040
 NY phased data points follow
   5.88046E-09  6.72775E-09  7.63891E-09  9.23066E-09  9.96730E-09  1.11365E-08  1.05875E-08  9.89837E-09  8.53155E-09  8.59906E-09
   7.97736E-09  8.06260E-09  7.30915E-09  8.15907E-09  8.16057E-09  8.65977E-09  7.71467E-09  9.16741E-09  8.30501E-09  9.72619E-09
   8.84325E-09  9.82109E-09  8.51071E-09  9.17236E-09  8.23258E-09  9.25373E-09  7.62800E-09  8.85665E-09  7.70451E-09  9.48083E-09
   8.69985E-09  9.46324E-09  8.22698E-09  9.07076E-09  7.90461E-09  9.34374E-09  9.31308E-09  1.10419E-08  1.03067E-08  1.05135E-08
   8.53857E-09  9.64006E-09  7.59342E-09  8.70305E-09  7.58731E-09  8.61058E-09  7.22493E-09  8.66421E-09  7.13629E-09  8.37167E-09
   6.71087E-09  8.22532E-09  6.39332E-09  7.89725E-09  6.63120E-09  7.45186E-09  6.59044E-09  8.42339E-09  6.78817E-09  7.78764E-09
   6.13506E-09  7.16648E-09  6.44407E-09  7.88381E-09  6.68203E-09  8.49149E-09  7.53958E-09  9.96771E-09  9.55828E-09  1.13260E-08
   1.03883E-08  1.10895E-08  9.11861E-09  1.00590E-08  8.25704E-09  8.83944E-09  7.30006E-09  8.12305E-09  6.67282E-09  7.64235E-09
   5.87099E-09  7.50221E-09  5.98664E-09  9.01483E-09  9.33733E-09  1.25394E-08  1.17789E-08  1.29408E-08  1.13833E-08  1.21208E-08
   1.05002E-08  1.05334E-08  9.28065E-09  1.01288E-08  8.91858E-09  9.77936E-09  8.46731E-09  8.94225E-09  7.79857E-09  8.40587E-09
   6.90124E-09  8.09253E-09  6.22523E-09  7.18783E-09  5.66801E-09  7.23046E-09  5.78345E-09  6.95500E-09  5.54014E-09  6.34357E-09
   5.69752E-09  6.98056E-09  5.35185E-09  6.70452E-09  4.85748E-09  5.88980E-09  4.56108E-09  6.03221E-09  4.56342E-09  6.30429E-09
   4.52038E-09  6.27984E-09  4.94841E-09  6.56484E-09  4.63923E-09  6.43955E-09  5.31368E-09  6.72633E-09  5.09380E-09  5.81981E-09
   4.64047E-09  5.78306E-09  4.58737E-09  5.70962E-09  4.68055E-09  6.51514E-09  5.40540E-09  6.75837E-09  5.62824E-09  7.66324E-09
   6.42531E-09  7.52711E-09  6.01805E-09  7.21815E-09  6.64912E-09  8.47414E-09  7.64360E-09  8.84944E-09  7.69858E-09  8.86820E-09
   8.42943E-09  9.81001E-09  8.25852E-09  9.58850E-09  8.41476E-09  1.02332E-08  8.39968E-09  9.58823E-09  7.98949E-09  8.75523E-09
   7.49734E-09  8.72162E-09  8.24485E-09  9.10201E-09  7.59314E-09  8.63236E-09  7.37703E-09  9.11922E-09  7.48533E-09  8.84056E-09
   7.27912E-09  8.83024E-09  6.86209E-09  7.38716E-09  6.21107E-09  7.97711E-09  9.73931E-09  1.31702E-08  1.26978E-08  1.27027E-08
   1.08597E-08  1.09689E-08  8.99986E-09  8.35084E-09  5.75687E-09  5.11951E-09  2.65099E-09  1.16652E-09 -1.91254E-09 -2.48529E-09
  -5.91904E-09 -7.06943E-09 -1.01478E-08 -1.07826E-08 -1.30773E-08 -1.41766E-08 -1.55955E-08 -1.53446E-08 -1.61706E-08 -1.46760E-08
  -1.56542E-08 -1.40708E-08 -1.35854E-08 -1.12591E-08 -1.07102E-08 -8.38775E-09 -7.42368E-09 -5.27419E-09 -5.49100E-09 -4.10169E-09
  -4.37967E-09 -3.03930E-09 -3.81410E-09 -2.84218E-09 -4.18261E-09 -3.26721E-09 -3.68593E-09 -3.30586E-09 -3.79106E-09 -3.05270E-09
  -3.69903E-09 -2.50511E-09 -3.43430E-09 -2.09956E-09 -3.38824E-09 -2.09577E-09 -3.53383E-09 -2.28418E-09 -2.60322E-09 -1.59317E-09
  -2.30244E-09 -1.78426E-09 -2.48133E-09 -1.95606E-09 -2.26279E-09 -1.51239E-09 -1.86988E-09 -1.60396E-09 -1.94643E-09 -1.45563E-09
  -2.29259E-09 -2.04406E-09 -2.42138E-09 -1.86211E-09 -2.65622E-09 -2.26186E-09 -2.98609E-09 -2.56089E-09 -2.79570E-09 -2.28514E-09
  -2.91264E-09 -2.56735E-09 -3.05021E-09 -2.30936E-09 -3.05893E-09 -2.91663E-09 -2.86797E-09 -2.91466E-09 -3.33368E-09 -3.17060E-09
  -3.22383E-09 -3.23253E-09 -3.71939E-09 -3.63004E-09 -4.23876E-09 -3.77831E-09 -4.36448E-09 -4.09116E-09 -5.13620E-09 -4.51717E-09
  -4.75377E-09 -4.57261E-09 -4.68543E-09 -4.32544E-09 -4.53371E-09 -4.25970E-09 -3.70474E-09 -3.69208E-09 -4.20937E-09 -3.24066E-09
  -3.17666E-09 -3.20140E-09 -3.13585E-09 -2.70012E-09 -3.05938E-09 -2.74020E-09 -3.13153E-09 -2.63469E-09 -2.35567E-09 -2.25664E-09
  -2.92941E-09 -2.68899E-09 -2.45456E-09 -2.59356E-09 -2.36437E-09 -3.00104E-09 -3.05721E-09 -2.69427E-09 -2.99671E-09 -3.06679E-09
  -3.54210E-09 -3.20660E-09 -3.57480E-09 -3.43816E-09 -3.82216E-09 -3.84470E-09 -3.77081E-09 -3.69096E-09 -3.74639E-09 -4.45899E-09
  -3.72573E-09 -4.30750E-09 -3.92124E-09 -4.10128E-09 -4.46887E-09 -4.83756E-09 -4.50268E-09 -4.16812E-09 -4.45207E-09 -4.84544E-09
  -5.14866E-09 -4.68030E-09 -4.73942E-09 -4.85768E-09 -4.77747E-09 -4.98874E-09 -4.88500E-09 -5.38399E-09 -4.65451E-09 -5.31347E-09
  -5.02467E-09 -5.46195E-09 -4.64937E-09 -5.63567E-09 -5.29851E-09 -5.55018E-09 -5.31974E-09 -5.54743E-09 -5.12316E-09 -5.54367E-09
  -5.41317E-09 -6.26390E-09 -5.55955E-09 -5.73965E-09 -5.24766E-09 -6.18330E-09 -5.49669E-09 -6.02553E-09 -5.82192E-09 -6.37026E-09
  -5.89971E-09 -6.22265E-09 -5.66432E-09 -6.80766E-09 -5.74733E-09 -6.38568E-09 -6.09931E-09 -7.06339E-09 -6.05657E-09 -6.57279E-09
  -6.12663E-09 -6.49188E-09 -6.16150E-09
 NY points of the fit to the data follow
   8.21465E-09  7.94545E-09  8.06789E-09  8.17647E-09  8.51091E-09  8.53314E-09  8.40661E-09  8.62428E-09  8.67320E-09  8.60161E-09
   8.59739E-09  8.67735E-09  8.99806E-09  9.19044E-09  8.98600E-09  8.85307E-09  9.21930E-09  9.29795E-09  8.49799E-09  7.99699E-09
   8.12579E-09  8.45349E-09  8.63847E-09  8.88340E-09  8.96733E-09  9.03859E-09  8.95315E-09  8.39204E-09  7.85742E-09  8.59359E-09
   9.26900E-09  9.54633E-09  9.82812E-09  9.60745E-09  8.90758E-09  9.12948E-09  9.50108E-09  9.56434E-09  9.34135E-09  8.84783E-09
   8.49673E-09  8.66738E-09  8.49385E-09  7.56585E-09  7.75119E-09  8.14201E-09  7.39296E-09  6.85612E-09  7.18731E-09  7.55280E-09
   8.04874E-09  8.44693E-09  8.53400E-09  8.22774E-09  7.78271E-09  7.39660E-09  7.68994E-09  8.27337E-09  8.37827E-09  8.22500E-09
   8.56099E-09  8.95630E-09  9.44398E-09  9.74056E-09  9.98176E-09  1.04375E-08  1.03192E-08  1.00309E-08  1.00506E-08  1.01289E-08
   1.00197E-08  9.58730E-09  8.94181E-09  8.53699E-09  8.65184E-09  7.75778E-09  6.69373E-09  7.26937E-09  7.52056E-09  7.29166E-09
   7.56817E-09  7.81124E-09  8.01583E-09  8.50385E-09  8.82014E-09  8.86743E-09  9.11593E-09  9.36543E-09  9.47182E-09  9.52726E-09
   9.36261E-09  9.25077E-09  9.44341E-09  9.10967E-09  8.37013E-09  8.46516E-09  8.42358E-09  7.73394E-09  7.53466E-09  7.53700E-09
   7.33660E-09  7.22233E-09  7.18316E-09  7.17093E-09  7.16926E-09  7.17088E-09  7.17247E-09  7.17308E-09  7.17219E-09  7.16947E-09
   7.16474E-09  7.15674E-09  7.14569E-09  7.13172E-09  7.11495E-09  7.09571E-09  7.07423E-09  7.05000E-09  7.02307E-09  6.99359E-09
   6.96146E-09  6.92692E-09  6.88995E-09  6.85058E-09  6.80883E-09  6.76473E-09  6.71827E-09  6.66956E-09  6.61857E-09  6.56535E-09
   6.50991E-09  6.45227E-09  6.39250E-09  6.33062E-09  6.26666E-09  6.20060E-09  6.13261E-09  6.06256E-09  5.99057E-09  5.91664E-09
   5.84088E-09  5.76335E-09  5.68410E-09  5.60314E-09  5.52061E-09  5.43658E-09  5.35118E-09  5.26462E-09  5.17714E-09  5.08898E-09
   5.00043E-09  4.91186E-09  4.82365E-09  4.73633E-09  4.65053E-09  4.56702E-09  4.48684E-09  4.41132E-09  4.34233E-09  4.28249E-09
   4.23568E-09  4.20805E-09  4.20989E-09  4.26032E-09  4.40005E-09  4.73683E-09  5.67510E-09  8.16055E-09  9.87704E-09  1.01476E-08
   9.57599E-09  8.83163E-09  8.22739E-09  8.19638E-09  9.12608E-09  1.08065E-08  1.14950E-08  8.80246E-09  3.24294E-09  9.22438E-10
   4.07773E-10  1.94249E-10  5.58978E-11 -5.90058E-11 -1.66276E-10 -2.71477E-10 -3.76645E-10 -4.82434E-10 -5.89099E-10 -6.96497E-10
  -8.04405E-10 -9.12687E-10 -1.02107E-09 -1.12937E-09 -1.23731E-09 -1.34477E-09 -1.45158E-09 -1.55749E-09 -1.66238E-09 -1.76616E-09
  -1.86863E-09 -1.96968E-09 -2.06916E-09 -2.16699E-09 -2.26305E-09 -2.35719E-09 -2.44934E-09 -2.53940E-09 -2.62730E-09 -2.71284E-09
  -2.79606E-09 -2.87678E-09 -2.95493E-09 -3.03045E-09 -3.10327E-09 -3.17324E-09 -3.24033E-09 -3.30448E-09 -3.36556E-09 -3.42365E-09
  -3.47877E-09 -3.53101E-09 -3.58040E-09 -3.62701E-09 -3.67089E-09 -3.71213E-09 -3.75077E-09 -3.78688E-09 -3.82052E-09 -3.85176E-09
  -3.88067E-09 -3.90731E-09 -3.93175E-09 -3.95405E-09 -3.97430E-09 -3.99254E-09 -4.00887E-09 -4.02332E-09 -4.03600E-09 -4.04695E-09
  -4.05625E-09 -4.06398E-09 -4.07020E-09 -4.07498E-09 -4.07838E-09 -4.08050E-09 -4.08138E-09 -4.08112E-09 -4.07977E-09 -4.07739E-09
  -4.07409E-09 -4.06989E-09 -4.06492E-09 -4.05917E-09 -4.05277E-09 -4.04579E-09 -4.03826E-09 -4.03028E-09 -4.02190E-09 -4.01320E-09
  -4.00423E-09 -3.99509E-09 -3.98581E-09 -3.97648E-09 -3.96714E-09 -3.95788E-09 -3.94876E-09 -3.93982E-09 -3.93114E-09 -3.92279E-09
  -3.91481E-09 -3.90726E-09 -3.90023E-09 -3.89374E-09 -3.88788E-09 -3.88268E-09 -3.87821E-09 -3.87453E-09 -3.87167E-09 -3.86971E-09
  -3.86869E-09 -3.86866E-09 -3.86968E-09 -3.87177E-09 -3.87501E-09 -3.87943E-09 -3.88509E-09 -3.89199E-09 -3.90023E-09 -3.90982E-09
  -3.92079E-09 -3.93317E-09 -3.94690E-09 -3.96192E-09 -3.97817E-09 -3.99562E-09 -4.01420E-09 -4.03386E-09 -4.05455E-09 -4.07622E-09
  -4.09882E-09 -4.12228E-09 -4.14658E-09 -4.17164E-09 -4.19742E-09 -4.22387E-09 -4.25094E-09 -4.27858E-09 -4.30674E-09 -4.33536E-09
  -4.36440E-09 -4.39380E-09 -4.42354E-09 -4.45353E-09 -4.48375E-09 -4.51415E-09 -4.54467E-09 -4.57527E-09 -4.60591E-09 -4.63653E-09
  -4.66710E-09 -4.69755E-09 -4.72786E-09 -4.75798E-09 -4.78786E-09 -4.81745E-09 -4.84673E-09 -4.87563E-09 -4.90413E-09 -4.93218E-09
  -4.95974E-09 -4.98677E-09 -5.01322E-09 -5.03907E-09 -5.06427E-09 -5.08878E-09 -5.11258E-09 -5.13561E-09 -5.15786E-09 -5.17926E-09
  -5.19982E-09 -5.21946E-09 -5.23818E-09 -5.25594E-09 -5.27269E-09 -5.28843E-09 -5.30311E-09 -5.31671E-09 -5.32918E-09 -5.34053E-09
  -5.35070E-09 -5.35968E-09 -5.36744E-09 -5.37395E-09 -5.37920E-09 -5.38315E-09 -5.38580E-09 -5.38710E-09 -5.38706E-09 -5.38564E-09
  -5.38282E-09 -5.37860E-09 -5.37295E-09
 NY background values follow
     4.119E-09    4.228E-09    4.335E-09    4.441E-09    4.546E-09    4.649E-09    4.750E-09    4.851E-09    4.950E-09    5.048E-09
     5.144E-09    5.239E-09    5.332E-09    5.425E-09    5.515E-09    5.605E-09    5.693E-09    5.780E-09    5.865E-09    5.949E-09
     6.031E-09    6.112E-09    6.192E-09    6.270E-09    6.347E-09    6.423E-09    6.497E-09    6.570E-09    6.641E-09    6.711E-09
     6.780E-09    6.847E-09    6.913E-09    6.977E-09    7.040E-09    7.102E-09    7.162E-09    7.221E-09    7.279E-09    7.335E-09
     7.389E-09    7.443E-09    7.495E-09    7.545E-09    7.594E-09    7.642E-09    7.688E-09    7.733E-09    7.777E-09    7.819E-09
     7.860E-09    7.900E-09    7.938E-09    7.974E-09    8.010E-09    8.044E-09    8.077E-09    8.108E-09    8.138E-09    8.166E-09
     8.194E-09    8.219E-09    8.244E-09    8.267E-09    8.289E-09    8.309E-09    8.329E-09    8.346E-09    8.363E-09    8.378E-09
     8.392E-09    8.404E-09    8.416E-09    8.425E-09    8.434E-09    8.441E-09    8.447E-09    8.452E-09    8.455E-09    8.457E-09
     8.457E-09    8.457E-09    8.454E-09    8.451E-09    8.446E-09    8.439E-09    8.432E-09    8.422E-09    8.412E-09    8.400E-09
     8.386E-09    8.371E-09    8.355E-09    8.337E-09    8.318E-09    8.297E-09    8.275E-09    8.251E-09    8.225E-09    8.198E-09
     8.170E-09    8.140E-09    8.108E-09    8.075E-09    8.040E-09    8.004E-09    7.966E-09    7.927E-09    7.885E-09    7.843E-09
     7.798E-09    7.752E-09    7.704E-09    7.654E-09    7.603E-09    7.550E-09    7.495E-09    7.439E-09    7.381E-09    7.321E-09
     7.259E-09    7.196E-09    7.130E-09    7.063E-09    6.994E-09    6.924E-09    6.851E-09    6.776E-09    6.700E-09    6.622E-09
     6.542E-09    6.460E-09    6.376E-09    6.290E-09    6.202E-09    6.112E-09    6.021E-09    5.927E-09    5.831E-09    5.734E-09
     5.634E-09    5.532E-09    5.429E-09    5.323E-09    5.215E-09    5.105E-09    4.993E-09    4.879E-09    4.764E-09    4.646E-09
     4.527E-09    4.405E-09    4.283E-09    4.158E-09    4.032E-09    3.905E-09    3.776E-09    3.645E-09    3.514E-09    3.381E-09
     3.247E-09    3.113E-09    2.977E-09    2.840E-09    2.702E-09    2.564E-09    2.425E-09    2.285E-09    2.145E-09    2.004E-09
     1.863E-09    1.722E-09    1.580E-09    1.438E-09    1.296E-09    1.155E-09    1.013E-09    8.712E-10    7.298E-10    5.886E-10
     4.480E-10    3.077E-10    1.680E-10    2.896E-11   -1.094E-10   -2.470E-10   -3.837E-10   -5.194E-10   -6.541E-10   -7.878E-10
    -9.202E-10   -1.051E-09   -1.181E-09   -1.310E-09   -1.437E-09   -1.562E-09   -1.686E-09   -1.807E-09   -1.928E-09   -2.046E-09
    -2.162E-09   -2.276E-09   -2.388E-09   -2.498E-09   -2.606E-09   -2.711E-09   -2.814E-09   -2.915E-09   -3.012E-09   -3.108E-09
    -3.200E-09   -3.290E-09   -3.377E-09   -3.461E-09   -3.542E-09   -3.619E-09   -3.694E-09   -3.766E-09   -3.834E-09   -3.899E-09
    -3.961E-09   -4.020E-09   -4.076E-09   -4.129E-09   -4.178E-09   -4.226E-09   -4.270E-09   -4.312E-09   -4.351E-09   -4.387E-09
    -4.421E-09   -4.453E-09   -4.482E-09   -4.510E-09   -4.534E-09   -4.557E-09   -4.578E-09   -4.597E-09   -4.614E-09   -4.629E-09
    -4.642E-09   -4.653E-09   -4.663E-09   -4.672E-09   -4.679E-09   -4.684E-09   -4.688E-09   -4.691E-09   -4.693E-09   -4.694E-09
    -4.694E-09   -4.692E-09   -4.690E-09   -4.687E-09   -4.683E-09   -4.679E-09   -4.674E-09   -4.668E-09   -4.662E-09   -4.656E-09
    -4.649E-09   -4.642E-09   -4.635E-09   -4.628E-09   -4.620E-09   -4.613E-09   -4.605E-09   -4.598E-09   -4.591E-09   -4.584E-09
    -4.578E-09   -4.572E-09   -4.566E-09   -4.561E-09   -4.556E-09   -4.552E-09   -4.549E-09   -4.546E-09   -4.544E-09   -4.543E-09
    -4.543E-09   -4.544E-09   -4.545E-09   -4.548E-09   -4.552E-09   -4.557E-09   -4.563E-09   -4.571E-09   -4.579E-09   -4.589E-09
    -4.600E-09   -4.613E-09   -4.627E-09   -4.642E-09   -4.658E-09   -4.676E-09   -4.695E-09   -4.714E-09   -4.735E-09   -4.756E-09
    -4.779E-09   -4.802E-09   -4.826E-09   -4.851E-09   -4.876E-09   -4.902E-09   -4.929E-09   -4.956E-09   -4.983E-09   -5.011E-09
    -5.040E-09   -5.068E-09   -5.097E-09   -5.126E-09   -5.156E-09   -5.185E-09   -5.215E-09   -5.245E-09   -5.274E-09   -5.304E-09
    -5.333E-09   -5.363E-09   -5.392E-09   -5.421E-09   -5.449E-09   -5.478E-09   -5.505E-09   -5.533E-09   -5.560E-09   -5.587E-09
    -5.613E-09   -5.638E-09   -5.663E-09   -5.687E-09   -5.711E-09   -5.734E-09   -5.756E-09   -5.777E-09   -5.798E-09   -5.817E-09
    -5.836E-09   -5.854E-09   -5.871E-09   -5.886E-09   -5.901E-09   -5.915E-09   -5.928E-09   -5.939E-09   -5.950E-09   -5.959E-09
    -5.967E-09   -5.974E-09   -5.979E-09   -5.983E-09   -5.986E-09   -5.988E-09   -5.988E-09   -5.987E-09   -5.985E-09   -5.981E-09
    -5.976E-09   -5.969E-09   -5.961E-09
 Asp      Conc. = 1.58E-09
   4.34017E-09  4.13841E-09  4.22917E-09  4.17256E-09  4.21422E-09  4.17148E-09  4.06976E-09  4.24178E-09  4.46973E-09  4.67548E-09
   4.86053E-09  5.03143E-09  5.19321E-09  5.34652E-09  5.48781E-09  5.62268E-09  5.75275E-09  5.87888E-09  6.00169E-09  6.12172E-09
   6.23943E-09  6.35526E-09  6.46956E-09  6.58275E-09  6.69517E-09  6.80726E-09  6.91944E-09  7.03225E-09  7.14626E-09  7.26223E-09
   7.38112E-09  7.50420E-09  7.63324E-09  7.77092E-09  7.92136E-09  8.09101E-09  8.27405E-09  8.38303E-09  8.47526E-09  8.51296E-09
   8.58670E-09  8.74951E-09  9.05485E-09  9.36819E-09  9.69673E-09  9.72407E-09  9.36838E-09  9.01731E-09  9.08307E-09  9.15403E-09
   9.37306E-09  9.52469E-09  9.38753E-09  8.85774E-09  8.20922E-09  7.62946E-09  7.71489E-09  8.07969E-09  7.95027E-09  7.53509E-09
   7.56250E-09  7.55216E-09  7.53294E-09  7.74847E-09  7.90800E-09  7.85755E-09  7.75360E-09  7.76696E-09  7.80469E-09  7.84733E-09
   7.88954E-09  7.92962E-09  7.96702E-09  8.00150E-09  8.03313E-09  8.06197E-09  8.08811E-09  8.11167E-09  8.13274E-09  8.15142E-09
   8.16778E-09  8.18192E-09  8.19388E-09  8.20373E-09  8.21155E-09  8.21735E-09  8.22117E-09  8.22306E-09  8.22306E-09  8.22117E-09
   8.21742E-09  8.21186E-09  8.20444E-09  8.19527E-09  8.18428E-09  8.17150E-09  8.15697E-09  8.14066E-09  8.12260E-09  8.10278E-09
   8.08121E-09  8.05788E-09  8.03281E-09  8.00601E-09  7.97743E-09  7.94710E-09  7.91502E-09  7.88120E-09  7.84562E-09  7.80823E-09
   7.76914E-09  7.72824E-09  7.68555E-09  7.64108E-09  7.59481E-09  7.54676E-09  7.49692E-09  7.44526E-09  7.39177E-09  7.33652E-09
   7.27937E-09  7.22044E-09  7.15964E-09  7.09701E-09  7.03253E-09  6.96618E-09  6.89794E-09  6.82788E-09  6.75592E-09  6.68208E-09
   6.60636E-09  6.52873E-09  6.44923E-09  6.36784E-09  6.28454E-09  6.19930E-09  6.11225E-09  6.02324E-09  5.93236E-09  5.83955E-09
   5.74487E-09  5.64832E-09  5.54991E-09  5.44961E-09  5.34749E-09  5.24355E-09  5.13785E-09  5.03047E-09  4.92152E-09  4.81115E-09
   4.69947E-09  4.58665E-09  4.47285E-09  4.35830E-09  4.24323E-09  4.12794E-09  4.01281E-09  3.89833E-09  3.78515E-09  3.67419E-09
   3.56675E-09  3.46496E-09  3.37228E-09  3.29527E-09  3.24793E-09  3.26788E-09  3.49879E-09  4.28833E-09  4.65034E-09  4.55965E-09
   4.24261E-09  3.90690E-09  3.62592E-09  3.55272E-09  3.80304E-09  4.27498E-09  4.31990E-09  3.15657E-09  1.14431E-09  6.05140E-10
   3.91044E-10  2.38154E-10  1.01972E-10 -2.86665E-11 -1.57317E-10 -2.85190E-10 -4.12655E-10 -5.39736E-10 -6.66483E-10 -7.92733E-10
  -9.18315E-10 -1.04318E-09 -1.16716E-09 -1.29014E-09 -1.41194E-09 -1.53251E-09 -1.65176E-09 -1.76950E-09 -1.88565E-09 -2.00017E-09
  -2.11291E-09 -2.22380E-09 -2.33271E-09 -2.43959E-09 -2.54437E-09 -2.64690E-09 -2.74714E-09 -2.84501E-09 -2.94044E-09 -3.03326E-09
  -3.12354E-09 -3.21109E-09 -3.29585E-09 -3.37778E-09 -3.45683E-09 -3.53284E-09 -3.60579E-09 -3.67565E-09 -3.74226E-09 -3.80574E-09
  -3.86610E-09 -3.92343E-09 -3.97778E-09 -4.02922E-09 -4.07780E-09 -4.12362E-09 -4.16672E-09 -4.20717E-09 -4.24504E-09 -4.28040E-09
  -4.31334E-09 -4.34389E-09 -4.37214E-09 -4.39817E-09 -4.42204E-09 -4.44381E-09 -4.46358E-09 -4.48138E-09 -4.49732E-09 -4.51145E-09
  -4.52385E-09 -4.53460E-09 -4.54376E-09 -4.55140E-09 -4.55759E-09 -4.56241E-09 -4.56593E-09 -4.56823E-09 -4.56937E-09 -4.56942E-09
  -4.56847E-09 -4.56656E-09 -4.56381E-09 -4.56022E-09 -4.55590E-09 -4.55095E-09 -4.54539E-09 -4.53931E-09 -4.53278E-09 -4.52585E-09
  -4.51861E-09 -4.51113E-09 -4.50347E-09 -4.49569E-09 -4.48785E-09 -4.48002E-09 -4.47229E-09 -4.46468E-09 -4.45728E-09 -4.45015E-09
  -4.44334E-09 -4.43692E-09 -4.43096E-09 -4.42549E-09 -4.42060E-09 -4.41632E-09 -4.41272E-09 -4.40987E-09 -4.40779E-09 -4.40655E-09
  -4.40622E-09 -4.40682E-09 -4.40843E-09 -4.41107E-09 -4.41480E-09 -4.41968E-09 -4.42575E-09 -4.43302E-09 -4.44158E-09 -4.45146E-09
  -4.46267E-09 -4.47525E-09 -4.48912E-09 -4.50426E-09 -4.52058E-09 -4.53807E-09 -4.55664E-09 -4.57625E-09 -4.59686E-09 -4.61840E-09
  -4.64083E-09 -4.66409E-09 -4.68815E-09 -4.71293E-09 -4.73840E-09 -4.76449E-09 -4.79118E-09 -4.81839E-09 -4.84608E-09 -4.87420E-09
  -4.90271E-09 -4.93155E-09 -4.96067E-09 -4.99003E-09 -5.01958E-09 -5.04927E-09 -5.07905E-09 -5.10887E-09 -5.13870E-09 -5.16849E-09
  -5.19818E-09 -5.22772E-09 -5.25710E-09 -5.28625E-09 -5.31512E-09 -5.34368E-09 -5.37189E-09 -5.39970E-09 -5.42708E-09 -5.45397E-09
  -5.48035E-09 -5.50616E-09 -5.53137E-09 -5.55594E-09 -5.57985E-09 -5.60303E-09 -5.62547E-09 -5.64711E-09 -5.66795E-09 -5.68790E-09
  -5.70699E-09 -5.72513E-09 -5.74233E-09 -5.75854E-09 -5.77371E-09 -5.78785E-09 -5.80090E-09 -5.81284E-09 -5.82364E-09 -5.83328E-09
  -5.84172E-09 -5.84894E-09 -5.85492E-09 -5.85963E-09 -5.86305E-09 -5.86515E-09 -5.86593E-09 -5.86533E-09 -5.86336E-09 -5.86000E-09
  -5.85522E-09 -5.84901E-09 -5.84135E-09
 GABA     Conc. = 2.02E-09
   5.15623E-09  5.28520E-09  5.41372E-09  5.54187E-09  5.66971E-09  5.79737E-09  5.92492E-09  6.05249E-09  6.18024E-09  6.30834E-09
   6.43693E-09  6.56626E-09  6.69663E-09  6.82815E-09  6.96137E-09  7.09654E-09  7.23402E-09  7.37477E-09  7.51949E-09  7.66880E-09
   7.82418E-09  7.98720E-09  8.15961E-09  8.34420E-09  8.54491E-09  8.76691E-09  9.01926E-09  9.31545E-09  9.67790E-09  1.01349E-08
   1.03844E-08  1.04712E-08  1.09143E-08  1.11664E-08  1.09519E-08  1.08710E-08  1.08924E-08  1.07310E-08  1.03024E-08  9.67931E-09
   9.17637E-09  9.11689E-09  8.59216E-09  7.34278E-09  7.21471E-09  7.56926E-09  7.17697E-09  7.00488E-09  7.23442E-09  7.48742E-09
   7.72525E-09  7.94609E-09  8.15366E-09  8.35375E-09  8.55080E-09  8.74834E-09  8.95169E-09  9.16731E-09  9.40383E-09  9.67544E-09
   1.00034E-08  1.04254E-08  1.09361E-08  1.10413E-08  1.11520E-08  1.16357E-08  1.16035E-08  1.13042E-08  1.12698E-08  1.12766E-08
   1.11073E-08  1.06205E-08  9.90930E-09  9.45302E-09  9.52685E-09  8.59326E-09  7.49403E-09  8.03697E-09  8.25729E-09  8.01398E-09
   8.28331E-09  8.49239E-09  8.68655E-09  9.18796E-09  9.47851E-09  9.50682E-09  9.74539E-09  9.97324E-09  1.00556E-08  1.00869E-08
   9.89866E-09  9.76388E-09  9.93431E-09  9.57905E-09  8.81863E-09  8.89343E-09  8.83223E-09  8.12355E-09  7.90575E-09  7.89003E-09
   7.67203E-09  7.54063E-09  7.48473E-09  7.45618E-09  7.43855E-09  7.42456E-09  7.41086E-09  7.39651E-09  7.38095E-09  7.36384E-09
   7.34498E-09  7.32310E-09  7.29841E-09  7.27103E-09  7.24105E-09  7.20881E-09  7.17451E-09  7.13763E-09  7.09823E-09  7.05642E-09
   7.01211E-09  6.96551E-09  6.91661E-09  6.86541E-09  6.81193E-09  6.75619E-09  6.69816E-09  6.63793E-09  6.57548E-09  6.51084E-09
   6.44401E-09  6.37497E-09  6.30381E-09  6.23050E-09  6.15508E-09  6.07749E-09  5.99789E-09  5.91613E-09  5.83230E-09  5.74636E-09
   5.65842E-09  5.56847E-09  5.47654E-09  5.38259E-09  5.28669E-09  5.18887E-09  5.08918E-09  4.98775E-09  4.88472E-09  4.78021E-09
   4.67435E-09  4.56734E-09  4.45935E-09  4.35063E-09  4.24145E-09  4.13213E-09  4.02309E-09  3.91485E-09  3.80811E-09  3.70383E-09
   3.60335E-09  3.50880E-09  3.42352E-09  3.35347E-09  3.31047E-09  3.32242E-09  3.47657E-09  4.16363E-09  4.94831E-09  5.14911E-09
   4.92415E-09  4.55180E-09  4.19898E-09  3.99845E-09  4.12617E-09  4.62132E-09  5.04486E-09  4.46415E-09  2.46362E-09  8.40856E-10
   4.58140E-10  2.67021E-10  1.21093E-10 -1.06569E-11 -1.37322E-10 -2.62025E-10 -3.85893E-10 -5.09272E-10 -6.32355E-10 -7.55042E-10
  -8.77191E-10 -9.98760E-10 -1.11957E-09 -1.23951E-09 -1.35840E-09 -1.47617E-09 -1.59273E-09 -1.70786E-09 -1.82151E-09 -1.93361E-09
  -2.04402E-09 -2.15264E-09 -2.25937E-09 -2.36412E-09 -2.46684E-09 -2.56737E-09 -2.66566E-09 -2.76164E-09 -2.85523E-09 -2.94627E-09
  -3.03481E-09 -3.12066E-09 -3.20377E-09 -3.28409E-09 -3.36157E-09 -3.43604E-09 -3.50750E-09 -3.57590E-09 -3.64109E-09 -3.70318E-09
  -3.76218E-09 -3.81819E-09 -3.87124E-09 -3.92142E-09 -3.96877E-09 -4.01338E-09 -4.05531E-09 -4.09461E-09 -4.13136E-09 -4.16563E-09
  -4.19749E-09 -4.22700E-09 -4.25423E-09 -4.27926E-09 -4.30215E-09 -4.32298E-09 -4.34181E-09 -4.35872E-09 -4.37377E-09 -4.38704E-09
