 LCModel (Version 6.3-1R) Copyright: S.W. Provencher.          Ref.: Magn. Reson. Med. 30:672-679 (1993).                
 onepulse 17x6_ftSpec_smooth_lcm
 26 lines in following concentration table = NCONC+1
    Conc.  %SD   /Cr    Metabolite                                         
 8.35E-10  34%   0.000 Ala                                                 
 5.10E-09  11%   0.000 Asp                                                 
    0.000 999%   0.000 Cr                                                  
 3.32E-09  12%   0.000 GABA                                                
 4.21E-10 166%   0.000 Glc                                                 
    0.000 999%   0.000 Gln                                                 
    0.000 999%   0.000 Glu                                                 
    0.000 999%   0.000 Glyc                                                
    0.000 999%   0.000 GPC                                                 
    0.000 999%   0.000 GSH                                                 
 6.74E-10  60%   0.000 Ins                                                 
    0.000 999%   0.000 Lac                                                 
    0.000 999%   0.000 NAAG                                                
 4.57E-10  46%   0.000 NAA                                                 
 3.50E-11 360%   0.000 PCh                                                 
    0.000 999%   0.000 PCr                                                 
    0.000 999%   0.000 PE                                                  
 1.33E-10 194%   0.000 Scyllo                                              
    0.000 999%   0.000 Ser                                                 
 4.40E-10 192%   0.000 Tau                                                 
 3.50E-11 360%   0.000 GPC+PCh                                             
 4.57E-10  46%   0.000 NAA+NAAG                                            
 6.74E-10  60%   0.000 Ins+Glyc                                            
    0.000 999%   0.000 Cr+PCr                                              
    0.000 999%   0.000 Glu+Gln                                             
   6 lines in following misc. output table
  FWHM = 0.112 ppm    S/N =   4                                            
  Data shift = 0.402 ppm                                                   
  Ph:-136 deg      45.2 deg/ppm                                            
  alphaB,S = 2.1E-01,   2.6E+01                                            
   12 spline knots.   Ns = 5(1)                                            
  (10) 5 infls.   ( 9) 3 extrs.                                            
  363 points on ppm-axis = NY
      4.250000     4.238821     4.227641     4.216462     4.205282     4.194103     4.182923     4.171744     4.160564     4.149385
      4.138206     4.127026     4.115847     4.104667     4.093488     4.082308     4.071129     4.059949     4.048770     4.037591
      4.026411     4.015232     4.004052     3.992873     3.981693     3.970514     3.959334     3.948155     3.936975     3.925796
      3.914617     3.903437     3.892258     3.881078     3.869899     3.858719     3.847540     3.836360     3.825181     3.814002
      3.802822     3.791643     3.780463     3.769284     3.758104     3.746925     3.735745     3.724566     3.713387     3.702207
      3.691028     3.679848     3.668669     3.657489     3.646310     3.635130     3.623951     3.612772     3.601592     3.590413
      3.579233     3.568054     3.556874     3.545695     3.534515     3.523336     3.512156     3.500977     3.489798     3.478618
      3.467439     3.456259     3.445080     3.433900     3.422721     3.411541     3.400362     3.389183     3.378003     3.366824
      3.355644     3.344465     3.333285     3.322106     3.310926     3.299747     3.288568     3.277388     3.266209     3.255029
      3.243850     3.232670     3.221491     3.210311     3.199132     3.187953     3.176773     3.165594     3.154414     3.143235
      3.132055     3.120876     3.109696     3.098517     3.087337     3.076158     3.064979     3.053799     3.042620     3.031440
      3.020261     3.009081     2.997902     2.986722     2.975543     2.964364     2.953184     2.942005     2.930825     2.919646
      2.908466     2.897287     2.886107     2.874928     2.863749     2.852569     2.841390     2.830210     2.819031     2.807851
      2.796672     2.785492     2.774313     2.763134     2.751954     2.740775     2.729595     2.718416     2.707236     2.696057
      2.684877     2.673698     2.662519     2.651339     2.640160     2.628980     2.617801     2.606621     2.595442     2.584262
      2.573083     2.561903     2.550724     2.539545     2.528365     2.517186     2.506006     2.494827     2.483647     2.472468
      2.461288     2.450109     2.438930     2.427750     2.416571     2.405391     2.394212     2.383032     2.371853     2.360673
      2.349494     2.338315     2.327135     2.315956     2.304776     2.293597     2.282417     2.271238     2.260058     2.248879
      2.237700     2.226520     2.215341     2.204161     2.192982     2.181802     2.170623     2.159443     2.148264     2.137084
      2.125905     2.114726     2.103546     2.092367     2.081187     2.070008     2.058828     2.047649     2.036469     2.025290
      2.014111     2.002931     1.991752     1.980572     1.969393     1.958213     1.947034     1.935854     1.924675     1.913496
      1.902316     1.891137     1.879957     1.868778     1.857598     1.846419     1.835239     1.824060     1.812881     1.801701
      1.790522     1.779342     1.768163     1.756983     1.745804     1.734624     1.723445     1.712265     1.701086     1.689907
      1.678727     1.667548     1.656368     1.645189     1.634009     1.622830     1.611650     1.600471     1.589292     1.578112
      1.566933     1.555753     1.544574     1.533394     1.522215     1.511035     1.499856     1.488677     1.477497     1.466318
      1.455138     1.443959     1.432779     1.421600     1.410420     1.399241     1.388062     1.376882     1.365703     1.354523
      1.343344     1.332164     1.320985     1.309805     1.298626     1.287446     1.276267     1.265088     1.253908     1.242729
      1.231549     1.220370     1.209190     1.198011     1.186831     1.175652     1.164473     1.153293     1.142114     1.130934
      1.119755     1.108575     1.097396     1.086216     1.075037     1.063858     1.052678     1.041499     1.030319     1.019140
      1.007960     0.996781     0.985601     0.974422     0.963243     0.952063     0.940884     0.929704     0.918525     0.907345
      0.896166     0.884986     0.873807     0.862628     0.851448     0.840269     0.829089     0.817910     0.806730     0.795551
      0.784371     0.773192     0.762012     0.750833     0.739654     0.728474     0.717295     0.706115     0.694936     0.683756
      0.672577     0.661397     0.650218     0.639039     0.627859     0.616680     0.605500     0.594321     0.583141     0.571962
      0.560782     0.549603     0.538424     0.527244     0.516065     0.504885     0.493706     0.482526     0.471347     0.460167
      0.448988     0.437809     0.426629     0.415450     0.404270     0.393091     0.381911     0.370732     0.359552     0.348373
      0.337193     0.326014     0.314835     0.303655     0.292476     0.281296     0.270117     0.258937     0.247758     0.236578
      0.225399     0.214220     0.203040
 NY phased data points follow
  -3.67173E-09 -2.02485E-09 -3.21514E-09 -2.65032E-09 -4.16462E-09 -2.62358E-09 -3.84181E-09 -3.33643E-09 -4.02904E-09 -3.51354E-09
  -4.02218E-09 -2.53200E-09 -2.58762E-09 -1.72026E-09 -2.47419E-09 -1.33672E-09 -1.51651E-09 -1.06530E-09 -1.89123E-09 -1.97600E-09
  -2.29842E-09 -1.13633E-09 -1.41386E-09 -2.86741E-10 -1.18806E-09 -1.37220E-09 -2.88437E-09 -1.91409E-09 -1.79802E-09  9.44061E-10
   8.33251E-10  2.26187E-09  2.09705E-09  2.44330E-09  1.69086E-09  2.75277E-09  2.11456E-09  2.65644E-09  2.47318E-09  2.99004E-09
   2.76627E-09  3.27887E-09  3.05929E-09  3.07175E-09  2.81902E-09  3.24436E-09  1.85446E-09  2.52745E-09  2.68525E-09  3.24364E-09
   2.74333E-09  2.66051E-09  1.36111E-09  1.75845E-09  6.95471E-10  7.47212E-10 -3.62333E-10 -7.88077E-10 -1.08622E-09  2.77111E-10
   9.32439E-10  3.24861E-09  3.69212E-09  4.49370E-09  4.73365E-09  5.10614E-09  4.73512E-09  5.50805E-09  4.29553E-09  4.82549E-09
   3.45150E-09  3.34950E-09  1.37848E-09 -2.90924E-10 -1.56301E-09 -9.59381E-10  1.43004E-09  3.44065E-09  4.65745E-09  5.80905E-09
   6.81227E-09  7.64295E-09  7.27593E-09  7.96676E-09  7.68723E-09  8.48874E-09  8.57990E-09  9.19186E-09  8.91121E-09  9.85283E-09
   9.07009E-09  9.87779E-09  9.35452E-09  9.66963E-09  8.77283E-09  9.02849E-09  8.52312E-09  8.86391E-09  8.70427E-09  8.80471E-09
   7.71444E-09  9.12374E-09  8.44581E-09  9.26617E-09  8.64720E-09  8.83413E-09  7.62980E-09  8.11213E-09  7.01879E-09  7.78380E-09
   7.10542E-09  7.24204E-09  6.91242E-09  7.67193E-09  7.30047E-09  7.15533E-09  7.18429E-09  7.69117E-09  7.98880E-09  7.80623E-09
   7.26306E-09  7.23588E-09  6.54993E-09  6.53676E-09  5.71500E-09  6.13439E-09  5.66004E-09  6.17582E-09  5.53112E-09  6.37385E-09
   6.47261E-09  7.04485E-09  6.54446E-09  6.07303E-09  5.93299E-09  6.27770E-09  6.69648E-09  7.76954E-09  7.78909E-09  8.05068E-09
   7.81743E-09  9.46791E-09  8.99292E-09  9.83138E-09  9.52121E-09  1.08143E-08  1.09023E-08  1.14446E-08  1.13800E-08  1.14168E-08
   1.10347E-08  1.11342E-08  1.11835E-08  1.23905E-08  1.16141E-08  1.21879E-08  1.13501E-08  1.24343E-08  1.20775E-08  1.25475E-08
   1.22982E-08  1.28285E-08  1.27900E-08  1.18732E-08  1.06551E-08  9.34642E-09  1.08384E-08  1.51362E-08  1.88311E-08  2.10672E-08
   2.16547E-08  2.26177E-08  2.33071E-08  2.36459E-08  2.30567E-08  2.28525E-08  2.22277E-08  2.13835E-08  1.90323E-08  1.82463E-08
   1.61202E-08  1.40346E-08  1.10012E-08  8.54251E-09  6.03261E-09  2.76489E-09 -1.99029E-10 -2.54314E-09 -5.23540E-09 -6.08233E-09
  -8.28656E-09 -9.34300E-09 -1.03505E-08 -1.02919E-08 -1.00656E-08 -9.11830E-09 -8.27505E-09 -6.53516E-09 -6.32596E-09 -5.08972E-09
  -4.70091E-09 -3.26718E-09 -3.31959E-09 -2.41100E-09 -3.09969E-09 -2.60971E-09 -2.36022E-09 -2.42024E-09 -3.01722E-09 -2.45790E-09
  -3.15331E-09 -2.13363E-09 -2.80830E-09 -1.88724E-09 -2.82212E-09 -1.95000E-09 -2.68139E-09 -2.46425E-09 -2.26541E-09 -1.78067E-09
  -1.90192E-09 -1.83600E-09 -2.15793E-09 -2.17618E-09 -2.36959E-09 -1.88978E-09 -1.78564E-09 -1.88601E-09 -1.68396E-09 -1.61964E-09
  -2.13661E-09 -1.95879E-09 -2.20657E-09 -1.67094E-09 -2.26877E-09 -2.20003E-09 -2.72495E-09 -2.60630E-09 -2.76526E-09 -2.35438E-09
  -2.80865E-09 -2.80562E-09 -3.01156E-09 -2.25886E-09 -2.82269E-09 -2.56105E-09 -2.42721E-09 -2.25967E-09 -2.62999E-09 -2.54665E-09
  -2.72724E-09 -2.58499E-09 -3.13933E-09 -2.99335E-09 -3.66859E-09 -3.33430E-09 -4.07787E-09 -3.69303E-09 -4.93868E-09 -4.44759E-09
  -4.84690E-09 -4.69866E-09 -4.92316E-09 -4.45598E-09 -4.64459E-09 -4.36081E-09 -3.86221E-09 -3.79844E-09 -4.45472E-09 -3.05011E-09
  -3.04220E-09 -3.10709E-09 -3.07152E-09 -2.33742E-09 -2.96897E-09 -2.51775E-09 -3.12349E-09 -2.43149E-09 -2.36664E-09 -2.17462E-09
  -3.05017E-09 -2.62759E-09 -2.64722E-09 -2.57283E-09 -2.77204E-09 -3.30581E-09 -3.54370E-09 -3.03377E-09 -3.72772E-09 -3.39083E-09
  -4.30089E-09 -3.56963E-09 -4.43733E-09 -3.91469E-09 -4.72459E-09 -4.22218E-09 -4.70087E-09 -4.33007E-09 -4.95857E-09 -5.05320E-09
  -4.69928E-09 -5.05890E-09 -5.17510E-09 -5.14021E-09 -5.82178E-09 -5.52030E-09 -5.62999E-09 -5.21029E-09 -5.90644E-09 -5.81924E-09
  -6.43189E-09 -5.13448E-09 -6.24384E-09 -5.69477E-09 -6.28770E-09 -5.76176E-09 -6.30496E-09 -5.95830E-09 -6.23893E-09 -6.22884E-09
  -6.34798E-09 -6.13570E-09 -6.23694E-09 -6.65246E-09 -6.73020E-09 -6.20643E-09 -6.77856E-09 -6.31950E-09 -6.65282E-09 -6.36590E-09
  -6.90712E-09 -6.83595E-09 -6.53450E-09 -6.20823E-09 -6.82706E-09 -6.75738E-09 -6.64395E-09 -6.91348E-09 -7.22827E-09 -6.70951E-09
  -7.01132E-09 -6.34950E-09 -6.98942E-09 -7.20242E-09 -6.74876E-09 -6.68143E-09 -6.99452E-09 -7.01501E-09 -6.69368E-09 -6.77012E-09
  -6.88284E-09 -6.67470E-09 -6.96939E-09 -7.07189E-09 -7.14190E-09 -6.60381E-09 -6.82432E-09 -6.57524E-09 -6.28212E-09 -6.71610E-09
  -7.10071E-09 -6.04917E-09 -6.32848E-09
 NY points of the fit to the data follow
  -1.39883E-09 -2.34205E-09 -3.12617E-09 -3.35146E-09 -3.53611E-09 -3.78999E-09 -4.03768E-09 -4.32658E-09 -3.75274E-09 -3.29350E-09
  -3.14605E-09 -2.84549E-09 -2.42747E-09 -2.02713E-09 -1.83507E-09 -1.85181E-09 -1.61122E-09 -1.37548E-09 -1.66147E-09 -1.98818E-09
  -1.91170E-09 -1.63016E-09 -1.44586E-09 -1.32419E-09 -1.29792E-09 -1.21272E-09 -1.01891E-09 -9.40122E-10 -7.30892E-10  1.31465E-10
   6.26701E-10  9.19295E-10  1.87769E-09  2.45004E-09  2.39451E-09  2.72860E-09  3.25595E-09  3.58054E-09  3.37767E-09  2.69641E-09
   1.99648E-09  2.02666E-09  1.57510E-09  9.55511E-10  1.76391E-09  3.07977E-09  2.83587E-09  2.26626E-09  2.11275E-09  2.74109E-09
   3.35017E-09  3.76384E-09  3.89361E-09  3.34461E-09  2.12342E-09  1.14118E-09  1.02282E-10  7.54049E-10  1.51692E-09  1.50806E-09
   1.32968E-09  2.10931E-09  3.02146E-09  3.40970E-09  4.40311E-09  5.65806E-09  5.71196E-09  5.41678E-09  5.44579E-09  5.50960E-09
   5.37448E-09  4.80563E-09  3.92005E-09  3.36548E-09  3.44935E-09  2.65459E-09  2.11158E-09  3.47321E-09  4.14909E-09  4.24350E-09
   4.75930E-09  5.12705E-09  5.55528E-09  6.46604E-09  7.07158E-09  7.36657E-09  7.74959E-09  7.58277E-09  6.96892E-09  7.18040E-09
   7.23679E-09  7.33426E-09  7.70387E-09  7.39818E-09  6.73882E-09  7.00388E-09  6.99323E-09  6.48147E-09  6.65196E-09  7.18497E-09
   7.54559E-09  7.70224E-09  8.07734E-09  8.61016E-09  8.95453E-09  9.08933E-09  9.14053E-09  9.18106E-09  9.10694E-09  8.74086E-09
   8.14158E-09  7.91017E-09  7.92339E-09  7.39463E-09  6.99234E-09  7.00463E-09  7.10130E-09  7.22015E-09  7.34447E-09  7.46841E-09
   7.58970E-09  7.70735E-09  7.82090E-09  7.92998E-09  8.03440E-09  8.13405E-09  8.22881E-09  8.31857E-09  8.40328E-09  8.48287E-09
   8.55719E-09  8.62619E-09  8.68978E-09  8.74787E-09  8.80037E-09  8.84717E-09  8.88817E-09  8.92326E-09  8.95232E-09  8.97530E-09
   8.99208E-09  9.00259E-09  9.00675E-09  9.00443E-09  8.99556E-09  8.98011E-09  8.95801E-09  8.92924E-09  8.89382E-09  8.85173E-09
   8.80303E-09  8.74783E-09  8.68632E-09  8.61876E-09  8.54554E-09  8.46724E-09  8.38470E-09  8.29913E-09  8.21235E-09  8.12718E-09
   8.04807E-09  7.98241E-09  7.94356E-09  7.95797E-09  8.08476E-09  8.48961E-09  9.85253E-09  1.43504E-08  1.94957E-08  2.23140E-08
   2.32718E-08  2.36033E-08  2.38219E-08  2.38484E-08  2.38383E-08  2.40433E-08  2.35467E-08  1.98523E-08  1.20365E-08  6.64741E-09
   4.97081E-09  4.13641E-09  3.57856E-09  3.14256E-09  2.77061E-09  2.43668E-09  2.12755E-09  1.83596E-09  1.55766E-09  1.29016E-09
   1.03192E-09  7.82031E-10  5.39998E-10  3.05536E-10  7.86106E-11 -1.40703E-10 -3.52321E-10 -5.55958E-10 -7.51397E-10 -9.38369E-10
  -1.11648E-09 -1.28546E-09 -1.44497E-09 -1.59524E-09 -1.73653E-09 -1.86916E-09 -1.99340E-09 -2.10958E-09 -2.21795E-09 -2.31881E-09
  -2.41242E-09 -2.49906E-09 -2.57902E-09 -2.65254E-09 -2.71991E-09 -2.78140E-09 -2.83725E-09 -2.88775E-09 -2.93317E-09 -2.97375E-09
  -3.00976E-09 -3.04146E-09 -3.06912E-09 -3.09299E-09 -3.11331E-09 -3.13037E-09 -3.14438E-09 -3.15565E-09 -3.16439E-09 -3.17085E-09
  -3.17531E-09 -3.17800E-09 -3.17917E-09 -3.17904E-09 -3.17790E-09 -3.17595E-09 -3.17346E-09 -3.17063E-09 -3.16774E-09 -3.16500E-09
  -3.16265E-09 -3.16091E-09 -3.16000E-09 -3.16003E-09 -3.16101E-09 -3.16295E-09 -3.16587E-09 -3.16978E-09 -3.17470E-09 -3.18063E-09
  -3.18760E-09 -3.19562E-09 -3.20468E-09 -3.21482E-09 -3.22603E-09 -3.23835E-09 -3.25175E-09 -3.26627E-09 -3.28191E-09 -3.29867E-09
  -3.31658E-09 -3.33563E-09 -3.35583E-09 -3.37719E-09 -3.39972E-09 -3.42342E-09 -3.44829E-09 -3.47435E-09 -3.50159E-09 -3.53002E-09
  -3.55965E-09 -3.59046E-09 -3.62248E-09 -3.65570E-09 -3.69012E-09 -3.72573E-09 -3.76255E-09 -3.80057E-09 -3.83978E-09 -3.88019E-09
  -3.92180E-09 -3.96459E-09 -4.00858E-09 -4.05372E-09 -4.09995E-09 -4.14721E-09 -4.19542E-09 -4.24453E-09 -4.29446E-09 -4.34517E-09
  -4.39657E-09 -4.44861E-09 -4.50123E-09 -4.55435E-09 -4.60794E-09 -4.66191E-09 -4.71621E-09 -4.77078E-09 -4.82555E-09 -4.88048E-09
  -4.93550E-09 -4.99054E-09 -5.04556E-09 -5.10050E-09 -5.15531E-09 -5.20991E-09 -5.26427E-09 -5.31832E-09 -5.37201E-09 -5.42530E-09
  -5.47812E-09 -5.53042E-09 -5.58216E-09 -5.63328E-09 -5.68373E-09 -5.73348E-09 -5.78245E-09 -5.83061E-09 -5.87792E-09 -5.92433E-09
  -5.96979E-09 -6.01425E-09 -6.05768E-09 -6.10005E-09 -6.14133E-09 -6.18151E-09 -6.22059E-09 -6.25854E-09 -6.29537E-09 -6.33105E-09
  -6.36558E-09 -6.39893E-09 -6.43112E-09 -6.46210E-09 -6.49190E-09 -6.52048E-09 -6.54784E-09 -6.57397E-09 -6.59886E-09 -6.62250E-09
  -6.64487E-09 -6.66598E-09 -6.68581E-09 -6.70435E-09 -6.72159E-09 -6.73752E-09 -6.75214E-09 -6.76544E-09 -6.77740E-09 -6.78802E-09
  -6.79730E-09 -6.80523E-09 -6.81179E-09 -6.81699E-09 -6.82080E-09 -6.82324E-09 -6.82428E-09 -6.82393E-09 -6.82219E-09 -6.81902E-09
  -6.81445E-09 -6.80847E-09 -6.80106E-09
 NY background values follow
    -1.010E-08   -1.003E-08   -9.956E-09   -9.882E-09   -9.806E-09   -9.727E-09   -9.646E-09   -9.562E-09   -9.476E-09   -9.388E-09
    -9.297E-09   -9.204E-09   -9.108E-09   -9.010E-09   -8.909E-09   -8.806E-09   -8.700E-09   -8.592E-09   -8.482E-09   -8.369E-09
    -8.254E-09   -8.136E-09   -8.016E-09   -7.893E-09   -7.768E-09   -7.641E-09   -7.511E-09   -7.378E-09   -7.243E-09   -7.106E-09
    -6.966E-09   -6.824E-09   -6.679E-09   -6.532E-09   -6.382E-09   -6.230E-09   -6.075E-09   -5.918E-09   -5.758E-09   -5.596E-09
    -5.432E-09   -5.264E-09   -5.095E-09   -4.923E-09   -4.748E-09   -4.572E-09   -4.393E-09   -4.213E-09   -4.030E-09   -3.846E-09
    -3.660E-09   -3.472E-09   -3.283E-09   -3.093E-09   -2.901E-09   -2.708E-09   -2.515E-09   -2.320E-09   -2.124E-09   -1.927E-09
    -1.730E-09   -1.533E-09   -1.335E-09   -1.137E-09   -9.382E-10   -7.398E-10   -5.416E-10   -3.435E-10   -1.457E-10    5.156E-11
     2.483E-10    4.442E-10    6.394E-10    8.335E-10    1.027E-09    1.218E-09    1.409E-09    1.598E-09    1.785E-09    1.971E-09
     2.155E-09    2.336E-09    2.516E-09    2.693E-09    2.869E-09    3.042E-09    3.212E-09    3.381E-09    3.547E-09    3.711E-09
     3.873E-09    4.032E-09    4.189E-09    4.343E-09    4.495E-09    4.644E-09    4.791E-09    4.935E-09    5.077E-09    5.216E-09
     5.352E-09    5.486E-09    5.617E-09    5.745E-09    5.871E-09    5.994E-09    6.114E-09    6.231E-09    6.346E-09    6.458E-09
     6.567E-09    6.673E-09    6.776E-09    6.876E-09    6.973E-09    7.068E-09    7.159E-09    7.248E-09    7.334E-09    7.416E-09
     7.496E-09    7.573E-09    7.647E-09    7.717E-09    7.784E-09    7.848E-09    7.908E-09    7.964E-09    8.016E-09    8.064E-09
     8.107E-09    8.147E-09    8.181E-09    8.211E-09    8.236E-09    8.256E-09    8.270E-09    8.279E-09    8.283E-09    8.281E-09
     8.273E-09    8.259E-09    8.239E-09    8.212E-09    8.180E-09    8.140E-09    8.094E-09    8.040E-09    7.980E-09    7.912E-09
     7.837E-09    7.755E-09    7.664E-09    7.566E-09    7.460E-09    7.346E-09    7.224E-09    7.093E-09    6.954E-09    6.806E-09
     6.649E-09    6.483E-09    6.308E-09    6.125E-09    5.933E-09    5.734E-09    5.528E-09    5.314E-09    5.095E-09    4.869E-09
     4.639E-09    4.403E-09    4.163E-09    3.918E-09    3.670E-09    3.420E-09    3.166E-09    2.910E-09    2.653E-09    2.394E-09
     2.134E-09    1.875E-09    1.615E-09    1.356E-09    1.098E-09    8.412E-10    5.867E-10    3.347E-10    8.556E-11   -1.602E-10
    -4.021E-10   -6.397E-10   -8.726E-10   -1.100E-09   -1.322E-09   -1.538E-09   -1.748E-09   -1.950E-09   -2.145E-09   -2.332E-09
    -2.511E-09   -2.681E-09   -2.842E-09   -2.994E-09   -3.137E-09   -3.272E-09   -3.398E-09   -3.517E-09   -3.627E-09   -3.731E-09
    -3.827E-09   -3.916E-09   -3.999E-09   -4.075E-09   -4.145E-09   -4.209E-09   -4.267E-09   -4.320E-09   -4.368E-09   -4.411E-09
    -4.450E-09   -4.484E-09   -4.514E-09   -4.540E-09   -4.562E-09   -4.581E-09   -4.597E-09   -4.611E-09   -4.621E-09   -4.630E-09
    -4.636E-09   -4.640E-09   -4.643E-09   -4.644E-09   -4.645E-09   -4.644E-09   -4.643E-09   -4.642E-09   -4.640E-09   -4.638E-09
    -4.637E-09   -4.636E-09   -4.636E-09   -4.637E-09   -4.639E-09   -4.642E-09   -4.645E-09   -4.650E-09   -4.655E-09   -4.661E-09
    -4.669E-09   -4.677E-09   -4.686E-09   -4.696E-09   -4.708E-09   -4.720E-09   -4.733E-09   -4.748E-09   -4.763E-09   -4.780E-09
    -4.797E-09   -4.816E-09   -4.835E-09   -4.856E-09   -4.878E-09   -4.901E-09   -4.925E-09   -4.951E-09   -4.977E-09   -5.004E-09
    -5.033E-09   -5.063E-09   -5.094E-09   -5.126E-09   -5.159E-09   -5.193E-09   -5.229E-09   -5.265E-09   -5.303E-09   -5.342E-09
    -5.382E-09   -5.423E-09   -5.465E-09   -5.508E-09   -5.553E-09   -5.598E-09   -5.644E-09   -5.691E-09   -5.739E-09   -5.788E-09
    -5.837E-09   -5.887E-09   -5.937E-09   -5.988E-09   -6.039E-09   -6.090E-09   -6.142E-09   -6.194E-09   -6.246E-09   -6.298E-09
    -6.351E-09   -6.403E-09   -6.455E-09   -6.507E-09   -6.559E-09   -6.611E-09   -6.662E-09   -6.713E-09   -6.763E-09   -6.814E-09
    -6.863E-09   -6.912E-09   -6.961E-09   -7.008E-09   -7.055E-09   -7.102E-09   -7.147E-09   -7.192E-09   -7.235E-09   -7.278E-09
    -7.320E-09   -7.360E-09   -7.400E-09   -7.439E-09   -7.476E-09   -7.512E-09   -7.547E-09   -7.581E-09   -7.614E-09   -7.646E-09
    -7.676E-09   -7.705E-09   -7.733E-09   -7.760E-09   -7.785E-09   -7.809E-09   -7.832E-09   -7.854E-09   -7.875E-09   -7.894E-09
    -7.912E-09   -7.928E-09   -7.943E-09   -7.957E-09   -7.970E-09   -7.981E-09   -7.991E-09   -7.999E-09   -8.006E-09   -8.012E-09
    -8.016E-09   -8.019E-09   -8.021E-09   -8.021E-09   -8.020E-09   -8.017E-09   -8.013E-09   -8.008E-09   -8.001E-09   -7.993E-09
    -7.983E-09   -7.971E-09   -7.959E-09
 Ala      Conc. = 8.35E-10
  -9.36128E-09 -9.34673E-09 -9.32565E-09 -9.30405E-09 -9.27582E-09 -9.24520E-09 -9.30121E-09 -9.34497E-09 -9.21657E-09 -9.20312E-09
  -9.27954E-09 -9.16764E-09 -9.06312E-09 -9.01699E-09 -8.92354E-09 -8.81349E-09 -8.69770E-09 -8.57901E-09 -8.45824E-09 -8.33565E-09
  -8.21131E-09 -8.08514E-09 -7.95715E-09 -7.82726E-09 -7.69540E-09 -7.56149E-09 -7.42552E-09 -7.28743E-09 -7.14717E-09 -7.00475E-09
  -6.86004E-09 -6.71310E-09 -6.56388E-09 -6.41236E-09 -6.25844E-09 -6.10222E-09 -5.94358E-09 -5.78259E-09 -5.61917E-09 -5.45333E-09
  -5.28503E-09 -5.11434E-09 -4.94119E-09 -4.76575E-09 -4.58804E-09 -4.40819E-09 -4.22628E-09 -4.04237E-09 -3.85659E-09 -3.66901E-09
  -3.47971E-09 -3.28881E-09 -3.09640E-09 -2.90259E-09 -2.70747E-09 -2.51110E-09 -2.31365E-09 -2.11516E-09 -1.91577E-09 -1.71557E-09
  -1.51466E-09 -1.31318E-09 -1.11119E-09 -9.08844E-10 -7.06201E-10 -5.03387E-10 -3.00530E-10 -9.76891E-11  1.04982E-10  3.07410E-10
   5.09499E-10  7.11098E-10  9.12159E-10  1.11254E-09  1.31219E-09  1.51105E-09  1.70896E-09  1.90582E-09  2.10170E-09  2.29641E-09
   2.48997E-09  2.68228E-09  2.87345E-09  3.06357E-09  3.25278E-09  3.44127E-09  3.62928E-09  3.81713E-09  4.00523E-09  4.19412E-09
   4.38455E-09  4.57757E-09  4.77463E-09  4.97792E-09  5.19079E-09  5.41878E-09  5.67176E-09  5.96973E-09  6.36154E-09  6.99549E-09
   7.60864E-09  7.89343E-09  8.32003E-09  8.86723E-09  9.20593E-09  9.32406E-09  9.35200E-09  9.36498E-09  9.26041E-09  8.86196E-09
   8.22916E-09  7.96453E-09  7.94478E-09  7.38342E-09  6.94894E-09  6.92924E-09  6.99422E-09  7.08205E-09  7.17605E-09  7.27036E-09
   7.36268E-09  7.45195E-09  7.53769E-09  7.61958E-09  7.69740E-09  7.77101E-09  7.84027E-09  7.90508E-09  7.96532E-09  8.02090E-09
   8.07169E-09  8.11758E-09  8.15847E-09  8.19422E-09  8.22470E-09  8.24980E-09  8.26940E-09  8.28333E-09  8.29149E-09  8.29373E-09
   8.28992E-09  8.27991E-09  8.26359E-09  8.24080E-09  8.21140E-09  8.17527E-09  8.13227E-09  8.08225E-09  8.02510E-09  7.96067E-09
   7.88884E-09  7.80949E-09  7.72251E-09  7.62778E-09  7.52521E-09  7.41472E-09  7.29626E-09  7.16980E-09  7.03538E-09  6.89315E-09
   6.74344E-09  6.58683E-09  6.42477E-09  6.26063E-09  6.10242E-09  5.97566E-09  6.01038E-09  6.23753E-09  6.30616E-09  6.19924E-09
   6.01403E-09  5.81519E-09  5.60215E-09  5.37270E-09  5.15449E-09  4.92881E-09  4.54412E-09  3.82192E-09  3.01840E-09  2.62326E-09
   2.31221E-09  2.02671E-09  1.75218E-09  1.48373E-09  1.21946E-09  9.58635E-10  7.01053E-10  4.46784E-10  1.96024E-10 -5.09130E-11
  -2.93690E-10 -5.31934E-10 -7.65229E-10 -9.93206E-10 -1.21541E-09 -1.43140E-09 -1.64081E-09 -1.84314E-09 -2.03800E-09 -2.22499E-09
  -2.40360E-09 -2.57346E-09 -2.73419E-09 -2.88593E-09 -3.02890E-09 -3.16339E-09 -3.28963E-09 -3.40791E-09 -3.51847E-09 -3.62158E-09
  -3.71749E-09 -3.80646E-09 -3.88875E-09 -3.96462E-09 -4.03433E-09 -4.09815E-09 -4.15632E-09 -4.20911E-09 -4.25678E-09 -4.29957E-09
  -4.33776E-09 -4.37160E-09 -4.40134E-09 -4.42724E-09 -4.44954E-09 -4.46853E-09 -4.48441E-09 -4.49749E-09 -4.50798E-09 -4.51613E-09
  -4.52221E-09 -4.52647E-09 -4.52914E-09 -4.53045E-09 -4.53068E-09 -4.53004E-09 -4.52879E-09 -4.52714E-09 -4.52536E-09 -4.52366E-09
  -4.52229E-09 -4.52145E-09 -4.52140E-09 -4.52220E-09 -4.52389E-09 -4.52648E-09 -4.52998E-09 -4.53441E-09 -4.53977E-09 -4.54609E-09
  -4.55337E-09 -4.56164E-09 -4.57089E-09 -4.58115E-09 -4.59243E-09 -4.60474E-09 -4.61807E-09 -4.63246E-09 -4.64790E-09 -4.66441E-09
  -4.68200E-09 -4.70067E-09 -4.72042E-09 -4.74128E-09 -4.76324E-09 -4.78631E-09 -4.81049E-09 -4.83580E-09 -4.86224E-09 -4.88980E-09
  -4.91851E-09 -4.94834E-09 -4.97931E-09 -5.01143E-09 -5.04469E-09 -5.07909E-09 -5.11464E-09 -5.15133E-09 -5.18916E-09 -5.22812E-09
  -5.26824E-09 -5.30948E-09 -5.35186E-09 -5.39534E-09 -5.43986E-09 -5.48535E-09 -5.53174E-09 -5.57897E-09 -5.62698E-09 -5.67571E-09
  -5.72508E-09 -5.77504E-09 -5.82552E-09 -5.87647E-09 -5.92782E-09 -5.97950E-09 -6.03147E-09 -6.08366E-09 -6.13600E-09 -6.18844E-09
  -6.24093E-09 -6.29340E-09 -6.34579E-09 -6.39806E-09 -6.45014E-09 -6.50198E-09 -6.55353E-09 -6.60471E-09 -6.65551E-09 -6.70584E-09
  -6.75567E-09 -6.80492E-09 -6.85358E-09 -6.90157E-09 -6.94885E-09 -6.99538E-09 -7.04109E-09 -7.08595E-09 -7.12992E-09 -7.17294E-09
  -7.21497E-09 -7.25596E-09 -7.29589E-09 -7.33470E-09 -7.37238E-09 -7.40894E-09 -7.44434E-09 -7.47859E-09 -7.51166E-09 -7.54355E-09
  -7.57425E-09 -7.60374E-09 -7.63202E-09 -7.65906E-09 -7.68487E-09 -7.70944E-09 -7.73275E-09 -7.75479E-09 -7.77555E-09 -7.79503E-09
  -7.81320E-09 -7.83008E-09 -7.84564E-09 -7.85988E-09 -7.87278E-09 -7.88434E-09 -7.89456E-09 -7.90342E-09 -7.91091E-09 -7.91704E-09
  -7.92178E-09 -7.92514E-09 -7.92710E-09 -7.92767E-09 -7.92682E-09 -7.92456E-09 -7.92088E-09 -7.91578E-09 -7.90926E-09 -7.90129E-09
  -7.89188E-09 -7.88102E-09 -7.86871E-09
 Asp      Conc. = 5.10E-09
  -6.70215E-09 -7.74256E-09 -8.62664E-09 -8.98930E-09 -9.44763E-09 -9.85797E-09 -1.00876E-08 -1.05340E-08 -1.03556E-08 -1.00734E-08
  -9.79539E-09 -9.53362E-09 -9.28492E-09 -9.04415E-09 -8.81263E-09 -8.59611E-09 -8.38573E-09 -8.17889E-09 -7.97398E-09 -7.76973E-09
  -7.56506E-09 -7.35887E-09 -7.15026E-09 -6.93825E-09 -6.72185E-09 -6.49994E-09 -6.27140E-09 -6.03481E-09 -5.78852E-09 -5.53051E-09
  -5.25806E-09 -4.96771E-09 -4.65449E-09 -4.31107E-09 -3.92573E-09 -3.47829E-09 -2.93233E-09 -2.34615E-09 -1.86687E-09 -1.53593E-09
  -1.33246E-09 -1.05482E-09 -5.37546E-10  4.41335E-10  1.36178E-09  2.62991E-09  3.04137E-09  2.58964E-09  2.22387E-09  2.59767E-09
   2.93167E-09  3.10263E-09  3.02182E-09  2.31603E-09  9.22394E-10 -2.89533E-10 -1.64602E-09 -1.31881E-09 -8.75131E-10 -1.21294E-09
  -1.84377E-09 -1.73180E-09 -1.70602E-09 -1.68879E-09 -1.23593E-09 -9.38389E-10 -1.07162E-09 -1.08973E-09 -9.42677E-10 -7.42919E-10
  -5.22879E-10 -2.94617E-10 -6.34202E-11  1.68008E-10  3.98270E-10  6.26572E-10  8.52362E-10  1.07530E-09  1.29533E-09  1.51219E-09
   1.72582E-09  1.93607E-09  2.14300E-09  2.34661E-09  2.54692E-09  2.74396E-09  2.93777E-09  3.12837E-09  3.31578E-09  3.50002E-09
   3.68111E-09  3.85907E-09  4.03391E-09  4.20563E-09  4.37425E-09  4.53979E-09  4.70223E-09  4.86160E-09  5.01787E-09  5.17106E-09
   5.32118E-09  5.46821E-09  5.61215E-09  5.75302E-09  5.89079E-09  6.02548E-09  6.15707E-09  6.28555E-09  6.41094E-09  6.53321E-09
   6.65239E-09  6.76844E-09  6.88137E-09  6.99118E-09  7.09784E-09  7.20138E-09  7.30177E-09  7.39901E-09  7.49311E-09  7.58405E-09
   7.67186E-09  7.75649E-09  7.83791E-09  7.91597E-09  7.99053E-09  8.06143E-09  8.12853E-09  8.19167E-09  8.25071E-09  8.30550E-09
   8.35588E-09  8.40171E-09  8.44284E-09  8.47912E-09  8.51039E-09  8.53652E-09  8.55736E-09  8.57276E-09  8.58257E-09  8.58666E-09
   8.58488E-09  8.57709E-09  8.56317E-09  8.54297E-09  8.51637E-09  8.48324E-09  8.44347E-09  8.39695E-09  8.34357E-09  8.28326E-09
   8.21592E-09  8.14151E-09  8.06002E-09  7.97144E-09  7.87583E-09  7.77332E-09  7.66415E-09  7.54866E-09  7.42746E-09  7.30151E-09
   7.17235E-09  7.04251E-09  6.91667E-09  6.80392E-09  6.72301E-09  6.72014E-09  6.94673E-09  8.15875E-09  1.06103E-08  1.21628E-08
   1.26763E-08  1.27286E-08  1.27168E-08  1.26419E-08  1.24853E-08  1.24097E-08  1.23097E-08  1.12823E-08  8.23675E-09  4.62253E-09
   3.48797E-09  2.89375E-09  2.46523E-09  2.10692E-09  1.78493E-09  1.48455E-09  1.19860E-09  9.23256E-10  6.56432E-10  3.96991E-10
   1.44318E-10 -1.01865E-10 -3.41600E-10 -5.74845E-10 -8.01392E-10 -1.02098E-09 -1.23339E-09 -1.43823E-09 -1.63519E-09 -1.82393E-09
  -2.00402E-09 -2.17512E-09 -2.33689E-09 -2.48949E-09 -2.63319E-09 -2.76827E-09 -2.89501E-09 -3.01369E-09 -3.12457E-09 -3.22793E-09
  -3.32403E-09 -3.41314E-09 -3.49554E-09 -3.57147E-09 -3.64122E-09 -3.70504E-09 -3.76320E-09 -3.81595E-09 -3.86357E-09 -3.90630E-09
  -3.94442E-09 -3.97818E-09 -4.00784E-09 -4.03365E-09 -4.05586E-09 -4.07477E-09 -4.09056E-09 -4.10356E-09 -4.11397E-09 -4.12205E-09
  -4.12807E-09 -4.13226E-09 -4.13488E-09 -4.13614E-09 -4.13633E-09 -4.13565E-09 -4.13439E-09 -4.13272E-09 -4.13094E-09 -4.12926E-09
