 LCModel (Version 6.3-1R) Copyright: S.W. Provencher.          Ref.: Magn. Reson. Med. 30:672-679 (1993).                
 onepulse 17x7_ftSpec_smooth_lcm
 26 lines in following concentration table = NCONC+1
    Conc.  %SD /Cr+PCr  Metabolite                                         
    0.000 999%   0.000 Ala                                                 
 1.04E-09  63%   1.937 Asp                                                 
    0.000 999%   0.000 Cr                                                  
 3.13E-10 253%   0.581 GABA                                                
 2.11E-10 390%   0.391 Glc                                                 
 2.96E-09  23%   5.499 Gln                                                 
    0.000 999%   0.000 Glu                                                 
    0.000 999%   0.000 Glyc                                                
    0.000 999%   0.000 GPC                                                 
 2.32E-10 223%   0.430 GSH                                                 
 1.27E-09  35%   2.359 Ins                                                 
    0.000 999%   0.000 Lac                                                 
 3.21E-10 110%   0.596 NAAG                                                
 1.67E-10 317%   0.309 NAA                                                 
    0.000 999%   0.000 PCh                                                 
 5.39E-10  61%   1.000 PCr                                                 
 1.56E-09  53%   2.891 PE                                                  
 2.53E-11 999% 4.7E-02 Scyllo                                              
    0.000 999%   0.000 Ser                                                 
 9.68E-10 118%   1.798 Tau                                                 
    0.000 999%   0.000 GPC+PCh                                             
 4.88E-10  63%   0.905 NAA+NAAG                                            
 1.27E-09  35%   2.359 Ins+Glyc                                            
 5.39E-10  61%   1.000 Cr+PCr                                              
 2.96E-09  23%   5.499 Glu+Gln                                             
   6 lines in following misc. output table
  FWHM = 0.112 ppm    S/N =   4                                            
  Data shift = 0.391 ppm                                                   
  Ph: -14 deg     -45.0 deg/ppm                                            
  alphaB,S = 1.8E-01,   3.6E+01                                            
   12 spline knots.   Ns = 5(1)                                            
  ( 8) 4 infls.   ( 7) 3 extrs.                                            
  363 points on ppm-axis = NY
      4.250000     4.238821     4.227641     4.216462     4.205282     4.194103     4.182923     4.171744     4.160564     4.149385
      4.138206     4.127026     4.115847     4.104667     4.093488     4.082308     4.071129     4.059949     4.048770     4.037591
      4.026411     4.015232     4.004052     3.992873     3.981693     3.970514     3.959334     3.948155     3.936975     3.925796
      3.914617     3.903437     3.892258     3.881078     3.869899     3.858719     3.847540     3.836360     3.825181     3.814002
      3.802822     3.791643     3.780463     3.769284     3.758104     3.746925     3.735745     3.724566     3.713387     3.702207
      3.691028     3.679848     3.668669     3.657489     3.646310     3.635130     3.623951     3.612772     3.601592     3.590413
      3.579233     3.568054     3.556874     3.545695     3.534515     3.523336     3.512156     3.500977     3.489798     3.478618
      3.467439     3.456259     3.445080     3.433900     3.422721     3.411541     3.400362     3.389183     3.378003     3.366824
      3.355644     3.344465     3.333285     3.322106     3.310926     3.299747     3.288568     3.277388     3.266209     3.255029
      3.243850     3.232670     3.221491     3.210311     3.199132     3.187953     3.176773     3.165594     3.154414     3.143235
      3.132055     3.120876     3.109696     3.098517     3.087337     3.076158     3.064979     3.053799     3.042620     3.031440
      3.020261     3.009081     2.997902     2.986722     2.975543     2.964364     2.953184     2.942005     2.930825     2.919646
      2.908466     2.897287     2.886107     2.874928     2.863749     2.852569     2.841390     2.830210     2.819031     2.807851
      2.796672     2.785492     2.774313     2.763134     2.751954     2.740775     2.729595     2.718416     2.707236     2.696057
      2.684877     2.673698     2.662519     2.651339     2.640160     2.628980     2.617801     2.606621     2.595442     2.584262
      2.573083     2.561903     2.550724     2.539545     2.528365     2.517186     2.506006     2.494827     2.483647     2.472468
      2.461288     2.450109     2.438930     2.427750     2.416571     2.405391     2.394212     2.383032     2.371853     2.360673
      2.349494     2.338315     2.327135     2.315956     2.304776     2.293597     2.282417     2.271238     2.260058     2.248879
      2.237700     2.226520     2.215341     2.204161     2.192982     2.181802     2.170623     2.159443     2.148264     2.137084
      2.125905     2.114726     2.103546     2.092367     2.081187     2.070008     2.058828     2.047649     2.036469     2.025290
      2.014111     2.002931     1.991752     1.980572     1.969393     1.958213     1.947034     1.935854     1.924675     1.913496
      1.902316     1.891137     1.879957     1.868778     1.857598     1.846419     1.835239     1.824060     1.812881     1.801701
      1.790522     1.779342     1.768163     1.756983     1.745804     1.734624     1.723445     1.712265     1.701086     1.689907
      1.678727     1.667548     1.656368     1.645189     1.634009     1.622830     1.611650     1.600471     1.589292     1.578112
      1.566933     1.555753     1.544574     1.533394     1.522215     1.511035     1.499856     1.488677     1.477497     1.466318
      1.455138     1.443959     1.432779     1.421600     1.410420     1.399241     1.388062     1.376882     1.365703     1.354523
      1.343344     1.332164     1.320985     1.309805     1.298626     1.287446     1.276267     1.265088     1.253908     1.242729
      1.231549     1.220370     1.209190     1.198011     1.186831     1.175652     1.164473     1.153293     1.142114     1.130934
      1.119755     1.108575     1.097396     1.086216     1.075037     1.063858     1.052678     1.041499     1.030319     1.019140
      1.007960     0.996781     0.985601     0.974422     0.963243     0.952063     0.940884     0.929704     0.918525     0.907345
      0.896166     0.884986     0.873807     0.862628     0.851448     0.840269     0.829089     0.817910     0.806730     0.795551
      0.784371     0.773192     0.762012     0.750833     0.739654     0.728474     0.717295     0.706115     0.694936     0.683756
      0.672577     0.661397     0.650218     0.639039     0.627859     0.616680     0.605500     0.594321     0.583141     0.571962
      0.560782     0.549603     0.538424     0.527244     0.516065     0.504885     0.493706     0.482526     0.471347     0.460167
      0.448988     0.437809     0.426629     0.415450     0.404270     0.393091     0.381911     0.370732     0.359552     0.348373
      0.337193     0.326014     0.314835     0.303655     0.292476     0.281296     0.270117     0.258937     0.247758     0.236578
      0.225399     0.214220     0.203040
 NY phased data points follow
   1.23996E-08  1.16997E-08  1.10672E-08  1.05645E-08  1.10885E-08  1.15123E-08  1.17811E-08  1.15176E-08  1.26780E-08  1.22347E-08
   1.31715E-08  1.31806E-08  1.34316E-08  1.20946E-08  1.24923E-08  1.20196E-08  1.24718E-08  1.13691E-08  1.17963E-08  1.12346E-08
   1.23879E-08  1.26496E-08  1.29872E-08  1.24174E-08  1.20149E-08  1.12741E-08  1.21897E-08  1.34840E-08  1.47667E-08  1.51103E-08
   1.44228E-08  1.30059E-08  1.27252E-08  1.09864E-08  1.13038E-08  1.09123E-08  1.13503E-08  1.01463E-08  1.10788E-08  1.00222E-08
   1.04854E-08  9.69754E-09  9.97489E-09  8.91697E-09  9.41257E-09  8.83023E-09  8.72071E-09  8.75153E-09  9.97165E-09  8.98996E-09
   8.94308E-09  8.03354E-09  8.24571E-09  8.14151E-09  8.99275E-09  8.75929E-09  9.79619E-09  9.62306E-09  1.16211E-08  1.29692E-08
   1.47521E-08  1.46797E-08  1.50473E-08  1.28630E-08  1.29137E-08  1.13306E-08  1.11123E-08  1.06457E-08  9.96574E-09  8.95475E-09
   9.15247E-09  8.08685E-09  8.70180E-09  7.30456E-09  9.72409E-09  1.11948E-08  1.60350E-08  1.71860E-08  1.74432E-08  1.62820E-08
   1.64964E-08  1.53879E-08  1.49123E-08  1.38316E-08  1.39622E-08  1.31544E-08  1.36745E-08  1.27319E-08  1.27602E-08  1.22266E-08
   1.19613E-08  1.11746E-08  1.11171E-08  9.96003E-09  1.01254E-08  9.35258E-09  9.56674E-09  8.96311E-09  9.49724E-09  9.22347E-09
   8.79410E-09  8.84143E-09  9.61275E-09  8.59459E-09  8.89779E-09  7.79302E-09  7.72739E-09  6.85345E-09  7.39677E-09  6.79385E-09
   8.04751E-09  6.97674E-09  7.81381E-09  7.59995E-09  8.47715E-09  7.41423E-09  8.01682E-09  7.78812E-09  8.57488E-09  7.88273E-09
   7.49283E-09  6.84569E-09  6.80492E-09  6.21089E-09  6.45369E-09  6.37106E-09  6.80907E-09  6.51733E-09  7.38432E-09  7.10800E-09
   8.15215E-09  7.65531E-09  8.34734E-09  7.26843E-09  7.48082E-09  7.71463E-09  8.30237E-09  9.34805E-09  1.00960E-08  9.91627E-09
   9.76769E-09  1.00014E-08  1.11477E-08  1.04358E-08  1.11423E-08  1.08527E-08  1.17365E-08  1.11905E-08  1.16011E-08  1.08894E-08
   1.07823E-08  1.03260E-08  1.05658E-08  1.06592E-08  1.11937E-08  1.01091E-08  1.06885E-08  9.78513E-09  1.08302E-08  1.01106E-08
   1.06063E-08  1.00048E-08  1.05013E-08  9.77929E-09  9.22023E-09  7.71209E-09  7.59906E-09  1.13401E-08  1.66302E-08  1.98221E-08
   2.09241E-08  2.02880E-08  2.04771E-08  2.06097E-08  1.98578E-08  1.88462E-08  1.79772E-08  1.71228E-08  1.55978E-08  1.34392E-08
   1.24214E-08  1.04478E-08  8.30113E-09  5.53939E-09  3.44660E-09  1.09070E-09 -2.00755E-09 -4.30034E-09 -6.58879E-09 -8.53889E-09
  -9.30138E-09 -1.12163E-08 -1.19346E-08 -1.27642E-08 -1.28422E-08 -1.22111E-08 -1.12715E-08 -1.02679E-08 -8.84682E-09 -8.67181E-09
  -7.22114E-09 -6.44055E-09 -4.91219E-09 -4.69947E-09 -3.75237E-09 -3.98803E-09 -3.25652E-09 -2.72899E-09 -2.84570E-09 -3.50939E-09
  -2.82463E-09 -3.41706E-09 -2.57490E-09 -2.92561E-09 -2.37046E-09 -2.99940E-09 -2.39623E-09 -2.48734E-09 -2.59444E-09 -2.14763E-09
  -2.03759E-09 -1.84524E-09 -1.84197E-09 -2.01205E-09 -2.27754E-09 -2.44735E-09 -2.03359E-09 -1.71310E-09 -1.96484E-09 -1.40491E-09
  -1.57274E-09 -2.00872E-09 -1.67621E-09 -1.82447E-09 -1.35199E-09 -1.44990E-09 -1.70499E-09 -1.99253E-09 -2.10578E-09 -2.21747E-09
  -1.81750E-09 -2.17756E-09 -2.46302E-09 -2.49363E-09 -1.78986E-09 -2.05793E-09 -1.74091E-09 -1.45232E-09 -1.17398E-09 -1.25318E-09
  -1.22200E-09 -1.24905E-09 -1.00181E-09 -1.26955E-09 -1.09750E-09 -1.44861E-09 -1.21504E-09 -1.82071E-09 -1.56375E-09 -2.38635E-09
  -2.66235E-09 -2.78204E-09 -3.06068E-09 -3.23179E-09 -3.40059E-09 -3.13967E-09 -3.45089E-09 -2.97564E-09 -2.84285E-09 -3.56673E-09
  -2.87175E-09 -1.80066E-09 -2.21104E-09 -2.14466E-09 -1.43747E-09 -1.40501E-09 -1.30412E-09 -1.39124E-09 -1.37761E-09 -7.44280E-10
  -6.21448E-10 -5.23831E-10 -1.06049E-09 -3.32141E-10 -3.45187E-10  5.30975E-11 -3.92582E-10 -7.10450E-10 -3.08596E-10 -6.19701E-10
  -3.52760E-10 -7.24976E-10 -5.75025E-10 -4.73446E-10 -7.16196E-10 -6.26495E-10 -7.97230E-10 -6.26485E-10 -8.73058E-10 -4.83392E-10
  -1.25642E-09 -6.69046E-10 -8.38467E-10 -9.81511E-10 -9.79417E-10 -1.26450E-09 -1.40470E-09 -1.35918E-09 -1.28318E-09 -1.32063E-09
  -1.38176E-09 -2.06404E-09 -1.58728E-09 -1.06942E-09 -1.86590E-09 -1.48151E-09 -2.01746E-09 -1.49919E-09 -2.00647E-09 -1.35274E-09
  -2.14067E-09 -1.70707E-09 -2.08190E-09 -1.41542E-09 -1.87782E-09 -2.19199E-09 -2.17296E-09 -1.70028E-09 -2.42557E-09 -1.89731E-09
  -2.37937E-09 -1.73899E-09 -2.68944E-09 -2.21744E-09 -2.12512E-09 -1.67134E-09 -2.51459E-09 -1.75719E-09 -2.09824E-09 -2.40612E-09
  -2.72289E-09 -2.30216E-09 -2.78331E-09 -1.59279E-09 -2.77569E-09 -2.68375E-09 -2.88337E-09 -2.18323E-09 -2.78169E-09 -2.39607E-09
  -2.68193E-09 -2.45863E-09 -2.76855E-09 -2.44478E-09 -2.64388E-09 -2.77280E-09 -3.16403E-09 -2.79832E-09 -3.47020E-09 -2.81022E-09
  -2.70447E-09 -3.08029E-09 -3.68029E-09
 NY points of the fit to the data follow
   1.21028E-08  1.17457E-08  1.13009E-08  1.11437E-08  1.12979E-08  1.16308E-08  1.18180E-08  1.18124E-08  1.19742E-08  1.23473E-08
   1.24325E-08  1.23378E-08  1.24326E-08  1.24996E-08  1.27172E-08  1.27831E-08  1.29084E-08  1.29707E-08  1.23377E-08  1.12810E-08
   1.08712E-08  1.11971E-08  1.17696E-08  1.23385E-08  1.27231E-08  1.30593E-08  1.34962E-08  1.37233E-08  1.39174E-08  1.39446E-08
   1.36638E-08  1.31049E-08  1.26700E-08  1.23390E-08  1.19356E-08  1.13183E-08  1.07264E-08  1.04848E-08  1.04866E-08  1.04722E-08
   1.02762E-08  9.73269E-09  8.75048E-09  7.95744E-09  7.87623E-09  7.97136E-09  8.02662E-09  7.97525E-09  8.05786E-09  8.26069E-09
   8.58569E-09  8.91915E-09  9.17968E-09  9.34039E-09  9.59399E-09  1.01282E-08  1.07335E-08  1.15056E-08  1.23607E-08  1.30102E-08
   1.34612E-08  1.37721E-08  1.39649E-08  1.39612E-08  1.36039E-08  1.29199E-08  1.22105E-08  1.16843E-08  1.08186E-08  1.00559E-08
   9.93003E-09  1.00678E-08  1.02961E-08  1.07670E-08  1.13839E-08  1.22572E-08  1.33565E-08  1.45821E-08  1.55629E-08  1.61199E-08
   1.63221E-08  1.61877E-08  1.56625E-08  1.52021E-08  1.47625E-08  1.37139E-08  1.23285E-08  1.12183E-08  1.02875E-08  9.73882E-09
   9.43497E-09  9.25371E-09  9.13659E-09  9.00677E-09  8.88473E-09  8.82926E-09  8.75560E-09  8.67119E-09  8.62900E-09  8.58952E-09
   8.56127E-09  8.55146E-09  8.54620E-09  8.54546E-09  8.55167E-09  8.56288E-09  8.57727E-09  8.59399E-09  8.61219E-09  8.63160E-09
   8.65185E-09  8.67260E-09  8.69365E-09  8.71478E-09  8.73585E-09  8.75675E-09  8.77732E-09  8.79745E-09  8.81702E-09  8.83598E-09
   8.85422E-09  8.87170E-09  8.88828E-09  8.90374E-09  8.91784E-09  8.93036E-09  8.94108E-09  8.94978E-09  8.95624E-09  8.96025E-09
   8.96160E-09  8.96008E-09  8.95549E-09  8.94763E-09  8.93627E-09  8.92124E-09  8.90235E-09  8.87937E-09  8.85213E-09  8.82044E-09
   8.78413E-09  8.74300E-09  8.69689E-09  8.64562E-09  8.58902E-09  8.52696E-09  8.45928E-09  8.38586E-09  8.30659E-09  8.22137E-09
   8.13013E-09  8.03287E-09  7.92961E-09  7.82043E-09  7.70553E-09  7.58524E-09  7.46008E-09  7.33084E-09  7.19880E-09  7.06594E-09
   6.93555E-09  6.81301E-09  6.70837E-09  6.64162E-09  6.65721E-09  6.87906E-09  7.81709E-09  1.13259E-08  1.58439E-08  1.93340E-08
   2.10462E-08  2.14184E-08  2.13123E-08  2.12540E-08  2.12268E-08  2.06789E-08  1.84173E-08  1.33073E-08  6.71398E-09  3.93910E-09
   2.89057E-09  2.26416E-09  1.79514E-09  1.40185E-09  1.05136E-09  7.28129E-10  4.24040E-10  1.34581E-10 -1.42862E-10 -4.09778E-10
  -6.67019E-10 -9.15029E-10 -1.15395E-09 -1.38379E-09 -1.60439E-09 -1.81548E-09 -2.01681E-09 -2.20797E-09 -2.38860E-09 -2.55832E-09
  -2.71662E-09 -2.86310E-09 -2.99735E-09 -3.11962E-09 -3.23027E-09 -3.32969E-09 -3.41828E-09 -3.49641E-09 -3.56445E-09 -3.62277E-09
  -3.67174E-09 -3.71172E-09 -3.74309E-09 -3.76619E-09 -3.78139E-09 -3.78907E-09 -3.78955E-09 -3.78321E-09 -3.77042E-09 -3.75151E-09
  -3.72685E-09 -3.69679E-09 -3.66169E-09 -3.62191E-09 -3.57779E-09 -3.52970E-09 -3.47797E-09 -3.42299E-09 -3.36509E-09 -3.30460E-09
  -3.24192E-09 -3.17739E-09 -3.11135E-09 -3.04414E-09 -2.97615E-09 -2.90769E-09 -2.83917E-09 -2.77086E-09 -2.70318E-09 -2.63646E-09
  -2.57106E-09 -2.50731E-09 -2.44556E-09 -2.38592E-09 -2.32836E-09 -2.27283E-09 -2.21930E-09 -2.16772E-09 -2.11807E-09 -2.07030E-09
  -2.02438E-09 -1.98028E-09 -1.93793E-09 -1.89733E-09 -1.85842E-09 -1.82119E-09 -1.78556E-09 -1.75152E-09 -1.71904E-09 -1.68805E-09
  -1.65855E-09 -1.63047E-09 -1.60379E-09 -1.57848E-09 -1.55448E-09 -1.53177E-09 -1.51029E-09 -1.49004E-09 -1.47096E-09 -1.45300E-09
  -1.43615E-09 -1.42034E-09 -1.40556E-09 -1.39177E-09 -1.37892E-09 -1.36696E-09 -1.35589E-09 -1.34563E-09 -1.33617E-09 -1.32747E-09
  -1.31950E-09 -1.31219E-09 -1.30553E-09 -1.29950E-09 -1.29410E-09 -1.28935E-09 -1.28525E-09 -1.28181E-09 -1.27905E-09 -1.27697E-09
  -1.27558E-09 -1.27489E-09 -1.27491E-09 -1.27564E-09 -1.27711E-09 -1.27932E-09 -1.28228E-09 -1.28598E-09 -1.29046E-09 -1.29571E-09
  -1.30175E-09 -1.30857E-09 -1.31621E-09 -1.32465E-09 -1.33392E-09 -1.34402E-09 -1.35496E-09 -1.36675E-09 -1.37940E-09 -1.39292E-09
  -1.40731E-09 -1.42259E-09 -1.43877E-09 -1.45586E-09 -1.47386E-09 -1.49279E-09 -1.51265E-09 -1.53345E-09 -1.55521E-09 -1.57793E-09
  -1.60163E-09 -1.62629E-09 -1.65195E-09 -1.67860E-09 -1.70620E-09 -1.73473E-09 -1.76413E-09 -1.79439E-09 -1.82546E-09 -1.85732E-09
  -1.88992E-09 -1.92322E-09 -1.95721E-09 -1.99183E-09 -2.02707E-09 -2.06287E-09 -2.09921E-09 -2.13605E-09 -2.17336E-09 -2.21110E-09
  -2.24924E-09 -2.28774E-09 -2.32657E-09 -2.36568E-09 -2.40506E-09 -2.44466E-09 -2.48444E-09 -2.52439E-09 -2.56444E-09 -2.60458E-09
  -2.64477E-09 -2.68498E-09 -2.72516E-09 -2.76529E-09 -2.80532E-09 -2.84523E-09 -2.88497E-09 -2.92453E-09 -2.96385E-09 -3.00290E-09
  -3.04166E-09 -3.08008E-09 -3.11813E-09
 NY background values follow
     1.822E-09    1.873E-09    1.924E-09    1.975E-09    2.025E-09    2.075E-09    2.126E-09    2.176E-09    2.226E-09    2.276E-09
     2.325E-09    2.375E-09    2.425E-09    2.474E-09    2.524E-09    2.573E-09    2.623E-09    2.673E-09    2.722E-09    2.772E-09
     2.822E-09    2.871E-09    2.921E-09    2.972E-09    3.022E-09    3.072E-09    3.123E-09    3.173E-09    3.224E-09    3.275E-09
     3.327E-09    3.378E-09    3.430E-09    3.482E-09    3.535E-09    3.587E-09    3.640E-09    3.694E-09    3.747E-09    3.801E-09
     3.856E-09    3.911E-09    3.966E-09    4.022E-09    4.078E-09    4.134E-09    4.190E-09    4.247E-09    4.305E-09    4.362E-09
     4.420E-09    4.478E-09    4.536E-09    4.594E-09    4.652E-09    4.711E-09    4.770E-09    4.829E-09    4.887E-09    4.946E-09
     5.005E-09    5.064E-09    5.123E-09    5.183E-09    5.242E-09    5.301E-09    5.359E-09    5.418E-09    5.477E-09    5.536E-09
     5.594E-09    5.652E-09    5.711E-09    5.769E-09    5.826E-09    5.884E-09    5.941E-09    5.998E-09    6.055E-09    6.111E-09
     6.167E-09    6.223E-09    6.278E-09    6.333E-09    6.388E-09    6.442E-09    6.495E-09    6.548E-09    6.601E-09    6.653E-09
     6.705E-09    6.756E-09    6.806E-09    6.856E-09    6.905E-09    6.954E-09    7.001E-09    7.048E-09    7.095E-09    7.140E-09
     7.185E-09    7.229E-09    7.273E-09    7.315E-09    7.356E-09    7.397E-09    7.437E-09    7.476E-09    7.513E-09    7.550E-09
     7.586E-09    7.621E-09    7.655E-09    7.687E-09    7.719E-09    7.749E-09    7.779E-09    7.807E-09    7.834E-09    7.860E-09
     7.884E-09    7.908E-09    7.930E-09    7.950E-09    7.969E-09    7.985E-09    8.000E-09    8.012E-09    8.022E-09    8.029E-09
     8.033E-09    8.034E-09    8.032E-09    8.026E-09    8.017E-09    8.003E-09    7.986E-09    7.964E-09    7.937E-09    7.906E-09
     7.870E-09    7.828E-09    7.782E-09    7.730E-09    7.672E-09    7.608E-09    7.538E-09    7.462E-09    7.379E-09    7.290E-09
     7.194E-09    7.090E-09    6.980E-09    6.861E-09    6.735E-09    6.601E-09    6.459E-09    6.309E-09    6.150E-09    5.982E-09
     5.806E-09    5.620E-09    5.426E-09    5.222E-09    5.011E-09    4.791E-09    4.565E-09    4.332E-09    4.093E-09    3.848E-09
     3.599E-09    3.345E-09    3.087E-09    2.825E-09    2.561E-09    2.295E-09    2.026E-09    1.756E-09    1.486E-09    1.215E-09
     9.446E-10    6.749E-10    4.066E-10    1.402E-10   -1.239E-10   -3.850E-10   -6.426E-10   -8.963E-10   -1.145E-09   -1.390E-09
    -1.628E-09   -1.860E-09   -2.086E-09   -2.305E-09   -2.516E-09   -2.718E-09   -2.912E-09   -3.097E-09   -3.272E-09   -3.437E-09
    -3.590E-09   -3.733E-09   -3.863E-09   -3.982E-09   -4.089E-09   -4.186E-09   -4.272E-09   -4.347E-09   -4.413E-09   -4.469E-09
    -4.516E-09   -4.554E-09   -4.584E-09   -4.605E-09   -4.619E-09   -4.625E-09   -4.624E-09   -4.617E-09   -4.603E-09   -4.582E-09
    -4.557E-09   -4.526E-09   -4.489E-09   -4.449E-09   -4.404E-09   -4.354E-09   -4.302E-09   -4.246E-09   -4.187E-09   -4.126E-09
    -4.063E-09   -3.997E-09   -3.930E-09   -3.863E-09   -3.794E-09   -3.725E-09   -3.656E-09   -3.587E-09   -3.518E-09   -3.451E-09
    -3.385E-09   -3.321E-09   -3.258E-09   -3.198E-09   -3.140E-09   -3.084E-09   -3.030E-09   -2.978E-09   -2.928E-09   -2.879E-09
    -2.833E-09   -2.788E-09   -2.746E-09   -2.705E-09   -2.665E-09   -2.627E-09   -2.591E-09   -2.557E-09   -2.524E-09   -2.493E-09
    -2.463E-09   -2.434E-09   -2.407E-09   -2.381E-09   -2.357E-09   -2.334E-09   -2.312E-09   -2.291E-09   -2.272E-09   -2.253E-09
    -2.236E-09   -2.220E-09   -2.205E-09   -2.191E-09   -2.177E-09   -2.165E-09   -2.154E-09   -2.143E-09   -2.133E-09   -2.124E-09
    -2.116E-09   -2.108E-09   -2.101E-09   -2.095E-09   -2.089E-09   -2.084E-09   -2.079E-09   -2.076E-09   -2.073E-09   -2.070E-09
    -2.068E-09   -2.067E-09   -2.067E-09   -2.067E-09   -2.068E-09   -2.070E-09   -2.073E-09   -2.076E-09   -2.080E-09   -2.085E-09
    -2.091E-09   -2.098E-09   -2.105E-09   -2.113E-09   -2.122E-09   -2.132E-09   -2.142E-09   -2.154E-09   -2.166E-09   -2.179E-09
    -2.193E-09   -2.208E-09   -2.224E-09   -2.241E-09   -2.258E-09   -2.277E-09   -2.296E-09   -2.317E-09   -2.338E-09   -2.361E-09
    -2.384E-09   -2.408E-09   -2.434E-09   -2.460E-09   -2.487E-09   -2.515E-09   -2.544E-09   -2.574E-09   -2.605E-09   -2.637E-09
    -2.669E-09   -2.702E-09   -2.735E-09   -2.770E-09   -2.805E-09   -2.840E-09   -2.876E-09   -2.912E-09   -2.949E-09   -2.987E-09
    -3.025E-09   -3.063E-09   -3.101E-09   -3.140E-09   -3.179E-09   -3.218E-09   -3.258E-09   -3.297E-09   -3.337E-09   -3.377E-09
    -3.416E-09   -3.456E-09   -3.496E-09   -3.536E-09   -3.575E-09   -3.615E-09   -3.654E-09   -3.693E-09   -3.732E-09   -3.771E-09
    -3.809E-09   -3.847E-09   -3.885E-09
 Asp      Conc. = 1.04E-09
   3.00793E-09  2.89206E-09  2.81227E-09  2.72176E-09  2.66338E-09  2.56088E-09  2.47043E-09  2.40025E-09  2.39510E-09  2.41408E-09
   2.44442E-09  2.48135E-09  2.52296E-09  2.56802E-09  2.61418E-09  2.66107E-09  2.70878E-09  2.75723E-09  2.80633E-09  2.85604E-09
   2.90633E-09  2.95719E-09  3.00866E-09  3.06075E-09  3.11353E-09  3.16709E-09  3.22153E-09  3.27702E-09  3.33375E-09  3.39201E-09
   3.45222E-09  3.51498E-09  3.58124E-09  3.65262E-09  3.73221E-09  3.82708E-09  3.95491E-09  4.08983E-09  4.23354E-09  4.34818E-09
   4.42635E-09  4.49053E-09  4.59047E-09  4.77586E-09  5.03999E-09  5.37000E-09  5.60163E-09  5.68923E-09  5.79740E-09  5.93757E-09
   6.14287E-09  6.31697E-09  6.38474E-09  6.27991E-09  6.03112E-09  5.78005E-09  5.63382E-09  5.70690E-09  5.70314E-09  5.57636E-09
   5.53507E-09  5.52602E-09  5.51756E-09  5.56712E-09  5.63950E-09  5.66549E-09  5.64004E-09  5.64958E-09  5.67637E-09  5.71223E-09
   5.75353E-09  5.79837E-09  5.84563E-09  5.89461E-09  5.94483E-09  5.99595E-09  6.04772E-09  6.09995E-09  6.15248E-09  6.20520E-09
   6.25801E-09  6.31082E-09  6.36357E-09  6.41619E-09  6.46861E-09  6.52080E-09  6.57270E-09  6.62427E-09  6.67546E-09  6.72625E-09
   6.77660E-09  6.82646E-09  6.87583E-09  6.92465E-09  6.97289E-09  7.02054E-09  7.06756E-09  7.11393E-09  7.15961E-09  7.20459E-09
   7.24882E-09  7.29229E-09  7.33499E-09  7.37686E-09  7.41790E-09  7.45808E-09  7.49737E-09  7.53575E-09  7.57320E-09  7.60969E-09
   7.64519E-09  7.67969E-09  7.71316E-09  7.74558E-09  7.77691E-09  7.80715E-09  7.83626E-09  7.86423E-09  7.89103E-09  7.91663E-09
   7.94101E-09  7.96415E-09  7.98597E-09  8.00626E-09  8.02483E-09  8.04149E-09  8.05602E-09  8.06823E-09  8.07793E-09  8.08490E-09
   8.08896E-09  8.08991E-09  8.08754E-09  8.08166E-09  8.07205E-09  8.05854E-09  8.04093E-09  8.01900E-09  7.99256E-09  7.96143E-09
   7.92539E-09  7.88426E-09  7.83783E-09  7.78591E-09  7.72831E-09  7.66483E-09  7.59527E-09  7.51944E-09  7.43718E-09  7.34827E-09
   7.25251E-09  7.14977E-09  7.03985E-09  6.92257E-09  6.79778E-09  6.66536E-09  6.52517E-09  6.37712E-09  6.22118E-09  6.05738E-09
   5.88598E-09  5.70734E-09  5.52266E-09  5.33468E-09  5.14930E-09  4.98264E-09  4.90314E-09  5.12820E-09  5.41884E-09  5.56112E-09
   5.49737E-09  5.29386E-09  5.04905E-09  4.81317E-09  4.57542E-09  4.26582E-09  3.74294E-09  2.89124E-09  1.91923E-09  1.44936E-09
   1.10895E-09  8.05038E-10  5.16760E-10  2.37416E-10 -3.55493E-11 -3.03144E-10 -5.65687E-10 -8.23146E-10 -1.07532E-09 -1.32186E-09
  -1.56240E-09 -1.79650E-09 -2.02370E-09 -2.24355E-09 -2.45554E-09 -2.65915E-09 -2.85393E-09 -3.03931E-09 -3.21482E-09 -3.37995E-09
  -3.53413E-09 -3.67688E-09 -3.80775E-09 -3.92694E-09 -4.03478E-09 -4.13162E-09 -4.21781E-09 -4.29373E-09 -4.35972E-09 -4.41613E-09
  -4.46331E-09 -4.50162E-09 -4.53141E-09 -4.55304E-09 -4.56684E-09 -4.57320E-09 -4.57243E-09 -4.56490E-09 -4.55098E-09 -4.53099E-09
  -4.50530E-09 -4.47426E-09 -4.43822E-09 -4.39754E-09 -4.35254E-09 -4.30363E-09 -4.25109E-09 -4.19533E-09 -4.13667E-09 -4.07546E-09
  -4.01208E-09 -3.94686E-09 -3.88017E-09 -3.81231E-09 -3.74370E-09 -3.67464E-09 -3.60552E-09 -3.53663E-09 -3.46839E-09 -3.40112E-09
  -3.33518E-09 -3.27091E-09 -3.20864E-09 -3.14850E-09 -3.09044E-09 -3.03442E-09 -2.98041E-09 -2.92837E-09 -2.87826E-09 -2.83004E-09
  -2.78367E-09 -2.73914E-09 -2.69636E-09 -2.65533E-09 -2.61600E-09 -2.57836E-09 -2.54232E-09 -2.50788E-09 -2.47499E-09 -2.44361E-09
  -2.41372E-09 -2.38526E-09 -2.35819E-09 -2.33251E-09 -2.30814E-09 -2.28505E-09 -2.26321E-09 -2.24260E-09 -2.22315E-09 -2.20484E-09
  -2.18763E-09 -2.17147E-09 -2.15633E-09 -2.14220E-09 -2.12900E-09 -2.11670E-09 -2.10529E-09 -2.09469E-09 -2.08490E-09 -2.07585E-09
  -2.06755E-09 -2.05991E-09 -2.05292E-09 -2.04656E-09 -2.04083E-09 -2.03575E-09 -2.03133E-09 -2.02757E-09 -2.02448E-09 -2.02207E-09
  -2.02036E-09 -2.01935E-09 -2.01905E-09 -2.01946E-09 -2.02061E-09 -2.02250E-09 -2.02513E-09 -2.02852E-09 -2.03268E-09 -2.03761E-09
  -2.04333E-09 -2.04984E-09 -2.05716E-09 -2.06528E-09 -2.07424E-09 -2.08402E-09 -2.09464E-09 -2.10611E-09 -2.11844E-09 -2.13165E-09
  -2.14573E-09 -2.16069E-09 -2.17655E-09 -2.19332E-09 -2.21100E-09 -2.22961E-09 -2.24915E-09 -2.26963E-09 -2.29107E-09 -2.31347E-09
  -2.33684E-09 -2.36118E-09 -2.38653E-09 -2.41285E-09 -2.44013E-09 -2.46832E-09 -2.49740E-09 -2.52734E-09 -2.55808E-09 -2.58960E-09
  -2.62187E-09 -2.65485E-09 -2.68851E-09 -2.72280E-09 -2.75770E-09 -2.79317E-09 -2.82917E-09 -2.86568E-09 -2.90264E-09 -2.94005E-09
  -2.97784E-09 -3.01600E-09 -3.05448E-09 -3.09326E-09 -3.13229E-09 -3.17154E-09 -3.21097E-09 -3.25056E-09 -3.29027E-09 -3.33006E-09
  -3.36989E-09 -3.40974E-09 -3.44956E-09 -3.48933E-09 -3.52900E-09 -3.56854E-09 -3.60792E-09 -3.64711E-09 -3.68606E-09 -3.72474E-09
  -3.76312E-09 -3.80117E-09 -3.83884E-09
 GABA     Conc. = 3.13E-10
   1.85467E-09  1.90619E-09  1.95752E-09  2.00870E-09  2.05973E-09  2.11063E-09  2.16144E-09  2.21216E-09  2.26282E-09  2.31346E-09
   2.36408E-09  2.41473E-09  2.46544E-09  2.51622E-09  2.56715E-09  2.61825E-09  2.66954E-09  2.72112E-09  2.77306E-09  2.82543E-09
   2.87837E-09  2.93205E-09  2.98668E-09  3.04261E-09  3.10036E-09  3.16072E-09  3.22524E-09  3.29698E-09  3.38370E-09  3.50594E-09
   3.62393E-09  3.72607E-09  3.87236E-09  4.03108E-09  4.15693E-09  4.27231E-09  4.37660E-09  4.45854E-09  4.50171E-09  4.50137E-09
   4.48894E-09  4.50986E-09  4.46259E-09  4.37000E-09  4.37899E-09  4.39202E-09  4.36114E-09  4.37270E-09  4.40770E-09  4.45276E-09
   4.50331E-09  4.55731E-09  4.61379E-09  4.67234E-09  4.73273E-09  4.79497E-09  4.85934E-09  4.92640E-09  4.99731E-09  5.07433E-09
   5.16245E-09  5.27604E-09  5.41617E-09  5.54073E-09  5.66911E-09  5.82412E-09  5.95992E-09  6.06362E-09  6.14943E-09  6.21799E-09
   6.26078E-09  6.26502E-09  6.23834E-09  6.22397E-09  6.22075E-09  6.15463E-09  6.12192E-09  6.16784E-09  6.19186E-09  6.21768E-09
   6.28288E-09  6.34943E-09  6.42064E-09  6.52437E-09  6.62780E-09  6.71943E-09  6.82194E-09  6.92567E-09  7.02039E-09  7.09801E-09
   7.15131E-09  7.20678E-09  7.26551E-09  7.26832E-09  7.25958E-09  7.29789E-09  7.29984E-09  7.27987E-09  7.29759E-09  7.31611E-09
   7.32934E-09  7.35179E-09  7.37970E-09  7.41062E-09  7.44320E-09  7.47661E-09  7.51038E-09  7.54420E-09  7.57784E-09  7.61116E-09
   7.64395E-09  7.67608E-09  7.70746E-09  7.73804E-09  7.76775E-09  7.79658E-09  7.82444E-09  7.85129E-09  7.87707E-09  7.90175E-09
   7.92529E-09  7.94767E-09  7.96880E-09  7.98845E-09  8.00643E-09  8.02254E-09  8.03656E-09  8.04830E-09  8.05754E-09  8.06410E-09
   8.06777E-09  8.06833E-09  8.06560E-09  8.05937E-09  8.04944E-09  8.03560E-09  8.01767E-09  7.99543E-09  7.96868E-09  7.93723E-09
   7.90088E-09  7.85943E-09  7.81268E-09  7.76042E-09  7.70246E-09  7.63860E-09  7.56864E-09  7.49238E-09  7.40964E-09  7.32021E-09
   7.22388E-09  7.12048E-09  7.00981E-09  6.89167E-09  6.76589E-09  6.63227E-09  6.49066E-09  6.34085E-09  6.18272E-09  6.01612E-09
   5.84103E-09  5.65736E-09  5.46549E-09  5.26655E-09  5.06274E-09  4.85951E-09  4.67948E-09  4.58566E-09  4.50475E-09  4.37427E-09
   4.17880E-09  3.93932E-09  3.68551E-09  3.43219E-09  3.17586E-09  2.89516E-09  2.54762E-09  2.10090E-09  1.62318E-09  1.29584E-09
   1.00494E-09  7.25106E-10  4.50772E-10  1.80393E-10 -8.63975E-11 -3.49526E-10 -6.08716E-10 -8.63584E-10 -1.11371E-09 -1.35860E-09
  -1.59778E-09 -1.83076E-09 -2.05702E-09 -2.27607E-09 -2.48737E-09 -2.69038E-09 -2.88465E-09 -3.06958E-09 -3.24468E-09 -3.40946E-09
  -3.56332E-09 -3.70580E-09 -3.83642E-09 -3.95538E-09 -4.06300E-09 -4.15965E-09 -4.24567E-09 -4.32144E-09 -4.38728E-09 -4.44356E-09
  -4.49062E-09 -4.52881E-09 -4.55850E-09 -4.58003E-09 -4.59374E-09 -4.60001E-09 -4.59916E-09 -4.59156E-09 -4.57757E-09 -4.55751E-09
  -4.53176E-09 -4.50067E-09 -4.46457E-09 -4.42384E-09 -4.37879E-09 -4.32982E-09 -4.27724E-09 -4.22144E-09 -4.16275E-09 -4.10150E-09
  -4.03808E-09 -3.97282E-09 -3.90609E-09 -3.83821E-09 -3.76956E-09 -3.70047E-09 -3.63132E-09 -3.56241E-09 -3.49414E-09 -3.42685E-09
