 LCModel (Version 6.3-1R) Copyright: S.W. Provencher.          Ref.: Magn. Reson. Med. 30:672-679 (1993).                
 onepulse 17x8_ftSpec_smooth_lcm
 26 lines in following concentration table = NCONC+1
    Conc.  %SD /Cr+PCr  Metabolite                                         
    0.000 999%   0.000 Ala                                                 
 7.62E-10 121%   1.221 Asp                                                 
    0.000 999%   0.000 Cr                                                  
 1.13E-10 744%   0.181 GABA                                                
 1.64E-10 999%   0.263 Glc                                                 
 3.26E-09  24%   5.219 Gln                                                 
    0.000 999%   0.000 Glu                                                 
    0.000 999%   0.000 Glyc                                                
    0.000 999%   0.000 GPC                                                 
 6.97E-11 892%   0.112 GSH                                                 
 1.37E-09  42%   2.200 Ins                                                 
    0.000 999%   0.000 Lac                                                 
 3.34E-10 119%   0.535 NAAG                                                
 1.39E-10 426%   0.223 NAA                                                 
    0.000 999%   0.000 PCh                                                 
 6.24E-10  60%   1.000 PCr                                                 
 1.61E-09 103%   2.575 PE                                                  
 2.89E-11 999% 4.6E-02 Scyllo                                              
 5.29E-10 369%   0.847 Ser                                                 
 9.69E-10 204%   1.553 Tau                                                 
    0.000 999%   0.000 GPC+PCh                                             
 4.73E-10  73%   0.757 NAA+NAAG                                            
 1.37E-09  42%   2.200 Ins+Glyc                                            
 6.24E-10  60%   1.000 Cr+PCr                                              
 3.26E-09  24%   5.219 Glu+Gln                                             
   6 lines in following misc. output table
  FWHM = 0.112 ppm    S/N =   3                                            
  Data shift = 0.391 ppm                                                   
  Ph: -14 deg     -43.3 deg/ppm                                            
  alphaB,S = 3.4E-01,   4.0E+01                                            
   11 spline knots.   Ns = 5(1)                                            
  ( 8) 4 infls.   ( 7) 3 extrs.                                            
  363 points on ppm-axis = NY
      4.250000     4.238821     4.227641     4.216462     4.205282     4.194103     4.182923     4.171744     4.160564     4.149385
      4.138206     4.127026     4.115847     4.104667     4.093488     4.082308     4.071129     4.059949     4.048770     4.037591
      4.026411     4.015232     4.004052     3.992873     3.981693     3.970514     3.959334     3.948155     3.936975     3.925796
      3.914617     3.903437     3.892258     3.881078     3.869899     3.858719     3.847540     3.836360     3.825181     3.814002
      3.802822     3.791643     3.780463     3.769284     3.758104     3.746925     3.735745     3.724566     3.713387     3.702207
      3.691028     3.679848     3.668669     3.657489     3.646310     3.635130     3.623951     3.612772     3.601592     3.590413
      3.579233     3.568054     3.556874     3.545695     3.534515     3.523336     3.512156     3.500977     3.489798     3.478618
      3.467439     3.456259     3.445080     3.433900     3.422721     3.411541     3.400362     3.389183     3.378003     3.366824
      3.355644     3.344465     3.333285     3.322106     3.310926     3.299747     3.288568     3.277388     3.266209     3.255029
      3.243850     3.232670     3.221491     3.210311     3.199132     3.187953     3.176773     3.165594     3.154414     3.143235
      3.132055     3.120876     3.109696     3.098517     3.087337     3.076158     3.064979     3.053799     3.042620     3.031440
      3.020261     3.009081     2.997902     2.986722     2.975543     2.964364     2.953184     2.942005     2.930825     2.919646
      2.908466     2.897287     2.886107     2.874928     2.863749     2.852569     2.841390     2.830210     2.819031     2.807851
      2.796672     2.785492     2.774313     2.763134     2.751954     2.740775     2.729595     2.718416     2.707236     2.696057
      2.684877     2.673698     2.662519     2.651339     2.640160     2.628980     2.617801     2.606621     2.595442     2.584262
      2.573083     2.561903     2.550724     2.539545     2.528365     2.517186     2.506006     2.494827     2.483647     2.472468
      2.461288     2.450109     2.438930     2.427750     2.416571     2.405391     2.394212     2.383032     2.371853     2.360673
      2.349494     2.338315     2.327135     2.315956     2.304776     2.293597     2.282417     2.271238     2.260058     2.248879
      2.237700     2.226520     2.215341     2.204161     2.192982     2.181802     2.170623     2.159443     2.148264     2.137084
      2.125905     2.114726     2.103546     2.092367     2.081187     2.070008     2.058828     2.047649     2.036469     2.025290
      2.014111     2.002931     1.991752     1.980572     1.969393     1.958213     1.947034     1.935854     1.924675     1.913496
      1.902316     1.891137     1.879957     1.868778     1.857598     1.846419     1.835239     1.824060     1.812881     1.801701
      1.790522     1.779342     1.768163     1.756983     1.745804     1.734624     1.723445     1.712265     1.701086     1.689907
      1.678727     1.667548     1.656368     1.645189     1.634009     1.622830     1.611650     1.600471     1.589292     1.578112
      1.566933     1.555753     1.544574     1.533394     1.522215     1.511035     1.499856     1.488677     1.477497     1.466318
      1.455138     1.443959     1.432779     1.421600     1.410420     1.399241     1.388062     1.376882     1.365703     1.354523
      1.343344     1.332164     1.320985     1.309805     1.298626     1.287446     1.276267     1.265088     1.253908     1.242729
      1.231549     1.220370     1.209190     1.198011     1.186831     1.175652     1.164473     1.153293     1.142114     1.130934
      1.119755     1.108575     1.097396     1.086216     1.075037     1.063858     1.052678     1.041499     1.030319     1.019140
      1.007960     0.996781     0.985601     0.974422     0.963243     0.952063     0.940884     0.929704     0.918525     0.907345
      0.896166     0.884986     0.873807     0.862628     0.851448     0.840269     0.829089     0.817910     0.806730     0.795551
      0.784371     0.773192     0.762012     0.750833     0.739654     0.728474     0.717295     0.706115     0.694936     0.683756
      0.672577     0.661397     0.650218     0.639039     0.627859     0.616680     0.605500     0.594321     0.583141     0.571962
      0.560782     0.549603     0.538424     0.527244     0.516065     0.504885     0.493706     0.482526     0.471347     0.460167
      0.448988     0.437809     0.426629     0.415450     0.404270     0.393091     0.381911     0.370732     0.359552     0.348373
      0.337193     0.326014     0.314835     0.303655     0.292476     0.281296     0.270117     0.258937     0.247758     0.236578
      0.225399     0.214220     0.203040
 NY phased data points follow
   1.30880E-08  1.20797E-08  1.13774E-08  1.09362E-08  1.13145E-08  1.17267E-08  1.20881E-08  1.20830E-08  1.30886E-08  1.26974E-08
   1.34662E-08  1.34950E-08  1.36877E-08  1.24220E-08  1.27285E-08  1.22450E-08  1.24431E-08  1.17570E-08  1.20660E-08  1.15327E-08
   1.22722E-08  1.29587E-08  1.32974E-08  1.26746E-08  1.20589E-08  1.14484E-08  1.20656E-08  1.38400E-08  1.48640E-08  1.53725E-08
   1.45445E-08  1.34176E-08  1.26273E-08  1.10888E-08  1.09757E-08  1.09710E-08  1.11326E-08  1.00644E-08  1.07366E-08  1.00244E-08
   9.90331E-09  9.53544E-09  9.48938E-09  8.66758E-09  8.84916E-09  8.48562E-09  8.09625E-09  8.47778E-09  9.35345E-09  8.74345E-09
   8.29903E-09  7.78027E-09  7.60549E-09  7.72125E-09  8.40131E-09  8.67483E-09  9.35011E-09  9.53705E-09  1.13512E-08  1.32338E-08
   1.51730E-08  1.52533E-08  1.52066E-08  1.30751E-08  1.25938E-08  1.11856E-08  1.06492E-08  1.05679E-08  9.53547E-09  8.81768E-09
   8.55600E-09  8.04176E-09  8.37580E-09  7.12972E-09  9.32114E-09  1.11671E-08  1.64284E-08  1.80686E-08  1.78016E-08  1.65811E-08
   1.65684E-08  1.54195E-08  1.50502E-08  1.38791E-08  1.38203E-08  1.31361E-08  1.34745E-08  1.26766E-08  1.25200E-08  1.22212E-08
   1.16507E-08  1.12513E-08  1.05833E-08  9.60339E-09  9.79895E-09  9.42503E-09  9.07510E-09  8.74263E-09  8.98078E-09  9.21156E-09
   8.45597E-09  8.55520E-09  8.99606E-09  8.41125E-09  8.15372E-09  7.57264E-09  7.08230E-09  6.52141E-09  6.52827E-09  6.46341E-09
   7.39092E-09  6.86254E-09  7.14289E-09  7.49598E-09  7.86768E-09  7.28192E-09  7.50598E-09  7.68002E-09  8.24743E-09  7.71738E-09
   6.99523E-09  6.53588E-09  6.18907E-09  5.69144E-09  5.89496E-09  6.24711E-09  6.07458E-09  6.06798E-09  6.76750E-09  6.79596E-09
   7.26458E-09  6.96709E-09  7.53481E-09  6.85108E-09  6.63364E-09  6.87509E-09  7.49074E-09  8.85557E-09  9.37873E-09  9.53114E-09
   8.94586E-09  9.20856E-09  1.01367E-08  9.98950E-09  1.02170E-08  1.03546E-08  1.05843E-08  1.03405E-08  1.05373E-08  1.00201E-08
   9.57809E-09  9.39682E-09  9.67391E-09  9.79583E-09  9.73616E-09  9.02638E-09  9.44801E-09  8.71171E-09  9.21637E-09  9.06206E-09
   9.14641E-09  8.59009E-09  8.76885E-09  8.15496E-09  7.92272E-09  6.13400E-09  5.77207E-09  1.03947E-08  1.62176E-08  1.97832E-08
   2.06779E-08  2.00312E-08  1.99538E-08  2.05020E-08  1.94213E-08  1.87870E-08  1.76836E-08  1.73655E-08  1.58169E-08  1.44150E-08
   1.31810E-08  1.18020E-08  9.76229E-09  7.54487E-09  5.53089E-09  3.33026E-09  2.32387E-10 -1.91242E-09 -4.46095E-09 -6.31854E-09
  -7.53158E-09 -9.52446E-09 -1.06492E-08 -1.17748E-08 -1.24610E-08 -1.21688E-08 -1.17548E-08 -1.09892E-08 -1.00715E-08 -1.00585E-08
  -8.59087E-09 -7.56754E-09 -6.15592E-09 -5.70762E-09 -4.77668E-09 -4.41800E-09 -3.65422E-09 -2.95880E-09 -2.96968E-09 -3.70594E-09
  -2.91304E-09 -3.42558E-09 -2.87083E-09 -2.99781E-09 -2.77775E-09 -3.08956E-09 -2.84837E-09 -2.58322E-09 -2.67595E-09 -2.12463E-09
  -2.33380E-09 -1.97475E-09 -1.91240E-09 -2.12241E-09 -2.61721E-09 -2.78053E-09 -2.27236E-09 -1.97807E-09 -2.19066E-09 -1.60205E-09
  -1.86747E-09 -2.49454E-09 -1.86339E-09 -2.04287E-09 -1.68985E-09 -1.45855E-09 -1.95596E-09 -2.31318E-09 -2.31890E-09 -2.51123E-09
  -2.01768E-09 -2.68400E-09 -2.91673E-09 -2.77052E-09 -2.00672E-09 -2.35299E-09 -1.84063E-09 -1.64574E-09 -1.35937E-09 -1.49146E-09
  -1.40677E-09 -1.39534E-09 -1.14018E-09 -1.42197E-09 -1.12587E-09 -1.52665E-09 -1.15267E-09 -1.91866E-09 -1.70421E-09 -2.52627E-09
  -2.73484E-09 -3.01065E-09 -3.03539E-09 -3.42815E-09 -3.61278E-09 -3.35569E-09 -3.48823E-09 -3.29434E-09 -3.14351E-09 -3.65966E-09
  -2.91767E-09 -1.71657E-09 -2.24921E-09 -2.12630E-09 -1.49677E-09 -1.50738E-09 -1.25261E-09 -1.47216E-09 -1.25674E-09 -8.46812E-10
  -8.32507E-10 -5.43505E-10 -1.26806E-09 -4.64264E-10 -3.84934E-10 -2.41605E-10 -6.97776E-10 -8.24965E-10 -6.35150E-10 -1.01644E-09
  -8.09118E-10 -1.03998E-09 -8.89038E-10 -6.71216E-10 -1.00569E-09 -1.04015E-09 -8.98274E-10 -1.23458E-09 -1.11812E-09 -1.02266E-09
  -1.38610E-09 -1.16377E-09 -1.21745E-09 -1.57086E-09 -1.49105E-09 -1.87008E-09 -1.77966E-09 -1.90462E-09 -1.77975E-09 -2.01564E-09
  -1.90596E-09 -2.62393E-09 -2.05724E-09 -1.61261E-09 -2.33634E-09 -2.21797E-09 -2.48542E-09 -2.34744E-09 -2.59942E-09 -2.12054E-09
  -2.72441E-09 -2.55473E-09 -2.69648E-09 -2.27727E-09 -2.52717E-09 -3.01705E-09 -2.91549E-09 -2.33019E-09 -3.14325E-09 -2.75460E-09
  -3.06158E-09 -2.61063E-09 -3.42817E-09 -2.89255E-09 -2.79930E-09 -2.59105E-09 -3.22589E-09 -2.51937E-09 -2.99459E-09 -3.36360E-09
  -3.49786E-09 -3.10395E-09 -3.61488E-09 -2.57115E-09 -3.55169E-09 -3.72989E-09 -3.86728E-09 -3.13308E-09 -3.68114E-09 -3.22617E-09
  -3.65764E-09 -3.39496E-09 -3.61683E-09 -3.47495E-09 -3.51851E-09 -3.72419E-09 -4.00841E-09 -3.75042E-09 -4.32433E-09 -3.74833E-09
  -3.72482E-09 -4.10819E-09 -4.43275E-09
 NY points of the fit to the data follow
   1.34049E-08  1.25844E-08  1.18000E-08  1.15340E-08  1.15839E-08  1.17736E-08  1.18121E-08  1.17375E-08  1.19964E-08  1.26068E-08
   1.28622E-08  1.28456E-08  1.29546E-08  1.29916E-08  1.31721E-08  1.31985E-08  1.32605E-08  1.32355E-08  1.25225E-08  1.14126E-08
   1.09718E-08  1.12918E-08  1.18894E-08  1.24976E-08  1.29447E-08  1.33556E-08  1.38342E-08  1.40814E-08  1.42379E-08  1.41727E-08
   1.37992E-08  1.32084E-08  1.27951E-08  1.24818E-08  1.20340E-08  1.13248E-08  1.06199E-08  1.02713E-08  1.01972E-08  1.01406E-08
   9.89457E-09  9.25128E-09  8.21149E-09  7.43134E-09  7.37656E-09  7.50335E-09  7.61702E-09  7.66720E-09  7.79773E-09  7.99778E-09
   8.27112E-09  8.54379E-09  8.77901E-09  8.97086E-09  9.32146E-09  9.99807E-09  1.07194E-08  1.15380E-08  1.24790E-08  1.32591E-08
   1.37982E-08  1.41542E-08  1.43270E-08  1.42564E-08  1.38109E-08  1.30080E-08  1.21975E-08  1.15703E-08  1.06112E-08  9.81964E-09
   9.67149E-09  9.83152E-09  1.01378E-08  1.06765E-08  1.13658E-08  1.23744E-08  1.35899E-08  1.48496E-08  1.58488E-08  1.64105E-08
   1.65896E-08  1.64013E-08  1.58120E-08  1.52866E-08  1.47178E-08  1.35359E-08  1.20981E-08  1.09729E-08  1.00512E-08  9.49073E-09
   9.17749E-09  8.98234E-09  8.84770E-09  8.73729E-09  8.64366E-09  8.58437E-09  8.53023E-09  8.48023E-09  8.44700E-09  8.41598E-09
   8.39895E-09  8.39301E-09  8.38717E-09  8.38303E-09  8.38356E-09  8.38719E-09  8.39234E-09  8.39823E-09  8.40409E-09  8.40966E-09
   8.41457E-09  8.41851E-09  8.42120E-09  8.42239E-09  8.42187E-09  8.41946E-09  8.41496E-09  8.40819E-09  8.39899E-09  8.38720E-09
   8.37269E-09  8.35531E-09  8.33494E-09  8.31143E-09  8.28468E-09  8.25454E-09  8.22092E-09  8.18370E-09  8.14275E-09  8.09797E-09
   8.04925E-09  7.99649E-09  7.93959E-09  7.87844E-09  7.81293E-09  7.74300E-09  7.66852E-09  7.58947E-09  7.50602E-09  7.41830E-09
   7.32646E-09  7.23069E-09  7.13115E-09  7.02798E-09  6.92140E-09  6.81159E-09  6.69875E-09  6.58309E-09  6.46485E-09  6.34429E-09
   6.22170E-09  6.09738E-09  5.97174E-09  5.84523E-09  5.71838E-09  5.59191E-09  5.46671E-09  5.34399E-09  5.22544E-09  5.11350E-09
   5.01199E-09  4.92696E-09  4.86916E-09  4.85932E-09  4.94375E-09  5.25181E-09  6.31466E-09  1.00952E-08  1.49728E-08  1.87822E-08
   2.06886E-08  2.11525E-08  2.10988E-08  2.10831E-08  2.10332E-08  2.03294E-08  1.78177E-08  1.26058E-08  6.20715E-09  3.60610E-09
   2.68426E-09  2.17737E-09  1.82654E-09  1.55084E-09  1.31715E-09  1.10954E-09  9.19431E-10  7.41799E-10  5.73593E-10  4.12793E-10
   2.58097E-10  1.08553E-10 -3.64323E-11 -1.77357E-10 -3.14532E-10 -4.48203E-10 -5.78524E-10 -7.05631E-10 -8.29600E-10 -9.50503E-10
  -1.06836E-09 -1.18320E-09 -1.29502E-09 -1.40382E-09 -1.50959E-09 -1.61232E-09 -1.71197E-09 -1.80851E-09 -1.90192E-09 -1.99215E-09
  -2.07917E-09 -2.16292E-09 -2.24339E-09 -2.32053E-09 -2.39425E-09 -2.46454E-09 -2.53135E-09 -2.59463E-09 -2.65432E-09 -2.71037E-09
  -2.76275E-09 -2.81138E-09 -2.85620E-09 -2.89721E-09 -2.93434E-09 -2.96747E-09 -2.99664E-09 -3.02177E-09 -3.04292E-09 -3.06022E-09
  -3.07381E-09 -3.08382E-09 -3.09037E-09 -3.09360E-09 -3.09362E-09 -3.09057E-09 -3.08458E-09 -3.07578E-09 -3.06428E-09 -3.05023E-09
  -3.03374E-09 -3.01495E-09 -2.99399E-09 -2.97097E-09 -2.94603E-09 -2.91930E-09 -2.89090E-09 -2.86097E-09 -2.82962E-09 -2.79698E-09
  -2.76319E-09 -2.72837E-09 -2.69264E-09 -2.65615E-09 -2.61900E-09 -2.58133E-09 -2.54327E-09 -2.50494E-09 -2.46648E-09 -2.42800E-09
  -2.38963E-09 -2.35151E-09 -2.31376E-09 -2.27651E-09 -2.23987E-09 -2.20399E-09 -2.16899E-09 -2.13499E-09 -2.10213E-09 -2.07052E-09
  -2.04030E-09 -2.01160E-09 -1.98453E-09 -1.95915E-09 -1.93544E-09 -1.91338E-09 -1.89296E-09 -1.87414E-09 -1.85690E-09 -1.84123E-09
  -1.82711E-09 -1.81451E-09 -1.80341E-09 -1.79379E-09 -1.78563E-09 -1.77891E-09 -1.77360E-09 -1.76969E-09 -1.76714E-09 -1.76596E-09
  -1.76610E-09 -1.76755E-09 -1.77029E-09 -1.77430E-09 -1.77955E-09 -1.78602E-09 -1.79370E-09 -1.80256E-09 -1.81258E-09 -1.82373E-09
  -1.83601E-09 -1.84937E-09 -1.86381E-09 -1.87931E-09 -1.89583E-09 -1.91338E-09 -1.93189E-09 -1.95139E-09 -1.97182E-09 -1.99319E-09
  -2.01546E-09 -2.03860E-09 -2.06259E-09 -2.08746E-09 -2.11312E-09 -2.13957E-09 -2.16681E-09 -2.19477E-09 -2.22349E-09 -2.25292E-09
  -2.28304E-09 -2.31384E-09 -2.34528E-09 -2.37735E-09 -2.41004E-09 -2.44331E-09 -2.47716E-09 -2.51155E-09 -2.54647E-09 -2.58190E-09
  -2.61782E-09 -2.65420E-09 -2.69104E-09 -2.72830E-09 -2.76597E-09 -2.80402E-09 -2.84244E-09 -2.88120E-09 -2.92030E-09 -2.95969E-09
  -2.99937E-09 -3.03932E-09 -3.07951E-09 -3.11992E-09 -3.16053E-09 -3.20133E-09 -3.24230E-09 -3.28340E-09 -3.32463E-09 -3.36596E-09
  -3.40736E-09 -3.44884E-09 -3.49035E-09 -3.53188E-09 -3.57341E-09 -3.61492E-09 -3.65639E-09 -3.69781E-09 -3.73913E-09 -3.78036E-09
  -3.82146E-09 -3.86242E-09 -3.90321E-09
 NY background values follow
     1.680E-09    1.741E-09    1.801E-09    1.862E-09    1.922E-09    1.982E-09    2.043E-09    2.103E-09    2.163E-09    2.223E-09
     2.284E-09    2.344E-09    2.404E-09    2.464E-09    2.524E-09    2.584E-09    2.644E-09    2.704E-09    2.764E-09    2.824E-09
     2.883E-09    2.943E-09    3.002E-09    3.062E-09    3.121E-09    3.181E-09    3.240E-09    3.299E-09    3.358E-09    3.417E-09
     3.476E-09    3.535E-09    3.593E-09    3.652E-09    3.710E-09    3.768E-09    3.826E-09    3.884E-09    3.942E-09    4.000E-09
     4.058E-09    4.115E-09    4.172E-09    4.229E-09    4.286E-09    4.343E-09    4.400E-09    4.456E-09    4.513E-09    4.569E-09
     4.625E-09    4.681E-09    4.736E-09    4.792E-09    4.847E-09    4.902E-09    4.957E-09    5.011E-09    5.066E-09    5.120E-09
     5.174E-09    5.227E-09    5.281E-09    5.334E-09    5.387E-09    5.440E-09    5.492E-09    5.544E-09    5.596E-09    5.647E-09
     5.699E-09    5.750E-09    5.800E-09    5.851E-09    5.901E-09    5.951E-09    6.000E-09    6.049E-09    6.098E-09    6.147E-09
     6.195E-09    6.243E-09    6.290E-09    6.337E-09    6.384E-09    6.431E-09    6.477E-09    6.522E-09    6.568E-09    6.613E-09
     6.657E-09    6.701E-09    6.745E-09    6.788E-09    6.831E-09    6.873E-09    6.914E-09    6.954E-09    6.993E-09    7.031E-09
     7.067E-09    7.103E-09    7.136E-09    7.169E-09    7.199E-09    7.228E-09    7.256E-09    7.281E-09    7.304E-09    7.325E-09
     7.344E-09    7.361E-09    7.375E-09    7.386E-09    7.395E-09    7.402E-09    7.405E-09    7.406E-09    7.403E-09    7.398E-09
     7.389E-09    7.377E-09    7.362E-09    7.343E-09    7.320E-09    7.294E-09    7.264E-09    7.230E-09    7.192E-09    7.150E-09
     7.103E-09    7.053E-09    6.998E-09    6.939E-09    6.874E-09    6.806E-09    6.732E-09    6.654E-09    6.571E-09    6.483E-09
     6.392E-09    6.295E-09    6.195E-09    6.091E-09    5.983E-09    5.871E-09    5.755E-09    5.636E-09    5.514E-09    5.389E-09
     5.261E-09    5.130E-09    4.996E-09    4.860E-09    4.721E-09    4.580E-09    4.436E-09    4.291E-09    4.144E-09    3.995E-09
     3.845E-09    3.693E-09    3.539E-09    3.385E-09    3.230E-09    3.073E-09    2.916E-09    2.759E-09    2.600E-09    2.442E-09
     2.283E-09    2.125E-09    1.966E-09    1.808E-09    1.650E-09    1.492E-09    1.336E-09    1.180E-09    1.025E-09    8.706E-10
     7.179E-10    5.665E-10    4.166E-10    2.683E-10    1.216E-10   -2.345E-11   -1.667E-10   -3.083E-10   -4.479E-10   -5.857E-10
    -7.215E-10   -8.554E-10   -9.871E-10   -1.117E-09   -1.244E-09   -1.369E-09   -1.492E-09   -1.613E-09   -1.731E-09   -1.847E-09
    -1.960E-09   -2.071E-09   -2.179E-09   -2.284E-09   -2.387E-09   -2.487E-09   -2.584E-09   -2.678E-09   -2.769E-09   -2.857E-09
    -2.942E-09   -3.024E-09   -3.103E-09   -3.178E-09   -3.250E-09   -3.319E-09   -3.384E-09   -3.446E-09   -3.505E-09   -3.560E-09
    -3.611E-09   -3.659E-09   -3.702E-09   -3.742E-09   -3.778E-09   -3.811E-09   -3.839E-09   -3.863E-09   -3.884E-09   -3.900E-09
    -3.913E-09   -3.922E-09   -3.928E-09   -3.931E-09   -3.930E-09   -3.926E-09   -3.920E-09   -3.910E-09   -3.898E-09   -3.883E-09
    -3.866E-09   -3.847E-09   -3.825E-09   -3.802E-09   -3.776E-09   -3.749E-09   -3.720E-09   -3.690E-09   -3.658E-09   -3.625E-09
    -3.591E-09   -3.555E-09   -3.519E-09   -3.482E-09   -3.444E-09   -3.406E-09   -3.368E-09   -3.329E-09   -3.290E-09   -3.251E-09
    -3.212E-09   -3.174E-09   -3.136E-09   -3.098E-09   -3.061E-09   -3.025E-09   -2.989E-09   -2.955E-09   -2.922E-09   -2.890E-09
    -2.859E-09   -2.830E-09   -2.803E-09   -2.777E-09   -2.753E-09   -2.730E-09   -2.710E-09   -2.690E-09   -2.673E-09   -2.657E-09
    -2.642E-09   -2.629E-09   -2.618E-09   -2.608E-09   -2.599E-09   -2.592E-09   -2.587E-09   -2.582E-09   -2.579E-09   -2.578E-09
    -2.578E-09   -2.579E-09   -2.581E-09   -2.585E-09   -2.590E-09   -2.596E-09   -2.603E-09   -2.612E-09   -2.621E-09   -2.632E-09
    -2.644E-09   -2.657E-09   -2.671E-09   -2.686E-09   -2.703E-09   -2.720E-09   -2.738E-09   -2.757E-09   -2.777E-09   -2.798E-09
    -2.820E-09   -2.843E-09   -2.867E-09   -2.891E-09   -2.916E-09   -2.943E-09   -2.969E-09   -2.997E-09   -3.025E-09   -3.055E-09
    -3.084E-09   -3.115E-09   -3.146E-09   -3.178E-09   -3.210E-09   -3.243E-09   -3.276E-09   -3.310E-09   -3.345E-09   -3.380E-09
    -3.416E-09   -3.452E-09   -3.488E-09   -3.525E-09   -3.562E-09   -3.600E-09   -3.638E-09   -3.676E-09   -3.715E-09   -3.754E-09
    -3.793E-09   -3.833E-09   -3.873E-09   -3.913E-09   -3.953E-09   -3.994E-09   -4.034E-09   -4.075E-09   -4.116E-09   -4.157E-09
    -4.198E-09   -4.239E-09   -4.280E-09   -4.321E-09   -4.362E-09   -4.403E-09   -4.444E-09   -4.485E-09   -4.526E-09   -4.567E-09
    -4.608E-09   -4.648E-09   -4.689E-09
 Asp      Conc. = 7.62E-10
   2.53873E-09  2.47706E-09  2.44207E-09  2.39833E-09  2.37621E-09  2.32563E-09  2.28418E-09  2.26195E-09  2.28401E-09  2.32268E-09
   2.36928E-09  2.42054E-09  2.47510E-09  2.53200E-09  2.58963E-09  2.64775E-09  2.70639E-09  2.76549E-09  2.82498E-09  2.88480E-09
   2.94491E-09  3.00532E-09  3.06600E-09  3.12699E-09  3.18830E-09  3.24998E-09  3.31211E-09  3.37478E-09  3.43812E-09  3.50235E-09
   3.56774E-09  3.63474E-09  3.70404E-09  3.77684E-09  3.85543E-09  3.94514E-09  4.05917E-09  4.17795E-09  4.30228E-09  4.40427E-09
   4.47862E-09  4.54203E-09  4.63213E-09  4.78382E-09  4.99477E-09  5.25242E-09  5.43791E-09  5.51868E-09  5.61489E-09  5.73527E-09
   5.89642E-09  6.02921E-09  6.07955E-09  6.00535E-09  5.83483E-09  5.66994E-09  5.58876E-09  5.64861E-09  5.65144E-09  5.57369E-09
   5.55696E-09  5.56154E-09  5.56862E-09  5.61569E-09  5.67424E-09  5.69962E-09  5.69295E-09  5.71044E-09  5.73968E-09  5.77508E-09
   5.81411E-09  5.85546E-09  5.89837E-09  5.94235E-09  5.98706E-09  6.03227E-09  6.07781E-09  6.12356E-09  6.16941E-09  6.21529E-09
   6.26113E-09  6.30689E-09  6.35251E-09  6.39798E-09  6.44325E-09  6.48831E-09  6.53312E-09  6.57767E-09  6.62194E-09  6.66592E-09
   6.70959E-09  6.75294E-09  6.79589E-09  6.83837E-09  6.88026E-09  6.92145E-09  6.96185E-09  7.00135E-09  7.03985E-09  7.07725E-09
   7.11344E-09  7.14833E-09  7.18182E-09  7.21380E-09  7.24417E-09  7.27283E-09  7.29970E-09  7.32465E-09  7.34760E-09  7.36844E-09
   7.38708E-09  7.40341E-09  7.41734E-09  7.42876E-09  7.43758E-09  7.44370E-09  7.44702E-09  7.44744E-09  7.44485E-09  7.43916E-09
   7.43028E-09  7.41810E-09  7.40252E-09  7.38344E-09  7.36078E-09  7.33442E-09  7.30426E-09  7.27023E-09  7.23220E-09  7.19007E-09
   7.14376E-09  7.09317E-09  7.03820E-09  6.97875E-09  6.91471E-09  6.84601E-09  6.77252E-09  6.69423E-09  6.61127E-09  6.52379E-09
   6.43191E-09  6.33579E-09  6.23558E-09  6.13139E-09  6.02339E-09  5.91172E-09  5.79653E-09  5.67795E-09  5.55615E-09  5.43126E-09
   5.30344E-09  5.17285E-09  5.03963E-09  4.90397E-09  4.76601E-09  4.62597E-09  4.48402E-09  4.34040E-09  4.19537E-09  4.04922E-09
   3.90245E-09  3.75562E-09  3.60976E-09  3.46675E-09  3.33075E-09  3.21366E-09  3.16751E-09  3.35067E-09  3.58690E-09  3.71628E-09
   3.69366E-09  3.56905E-09  3.41635E-09  3.27174E-09  3.12151E-09  2.91047E-09  2.54361E-09  1.96236E-09  1.32666E-09  1.03770E-09
   8.36528E-10  6.61102E-10  4.97063E-10  3.39530E-10  1.86411E-10  3.66899E-11 -1.10152E-10 -2.54445E-10 -3.96323E-10 -5.35904E-10
  -6.73205E-10 -8.08279E-10 -9.41072E-10 -1.07161E-09 -1.19985E-09 -1.32576E-09 -1.44929E-09 -1.57041E-09 -1.68907E-09 -1.80524E-09
  -1.91884E-09 -2.02984E-09 -2.13819E-09 -2.24382E-09 -2.34669E-09 -2.44676E-09 -2.54396E-09 -2.63824E-09 -2.72955E-09 -2.81782E-09
  -2.90301E-09 -2.98506E-09 -3.06392E-09 -3.13955E-09 -3.21185E-09 -3.28080E-09 -3.34634E-09 -3.40842E-09 -3.46696E-09 -3.52191E-09
  -3.57326E-09 -3.62088E-09 -3.66476E-09 -3.70486E-09 -3.74110E-09 -3.77339E-09 -3.80175E-09 -3.82609E-09 -3.84648E-09 -3.86306E-09
  -3.87594E-09 -3.88526E-09 -3.89115E-09 -3.89372E-09 -3.89312E-09 -3.88946E-09 -3.88287E-09 -3.87349E-09 -3.86142E-09 -3.84682E-09
  -3.82979E-09 -3.81047E-09 -3.78899E-09 -3.76546E-09 -3.74003E-09 -3.71281E-09 -3.68393E-09 -3.65352E-09 -3.62171E-09 -3.58862E-09
  -3.55438E-09 -3.51912E-09 -3.48296E-09 -3.44603E-09 -3.40846E-09 -3.37038E-09 -3.33191E-09 -3.29317E-09 -3.25430E-09 -3.21543E-09
  -3.17667E-09 -3.13816E-09 -3.10002E-09 -3.06239E-09 -3.02538E-09 -2.98913E-09 -2.95375E-09 -2.91939E-09 -2.88616E-09 -2.85419E-09
  -2.82361E-09 -2.79455E-09 -2.76713E-09 -2.74139E-09 -2.71733E-09 -2.69493E-09 -2.67416E-09 -2.65500E-09 -2.63742E-09 -2.62140E-09
  -2.60695E-09 -2.59400E-09 -2.58257E-09 -2.57262E-09 -2.56413E-09 -2.55706E-09 -2.55143E-09 -2.54718E-09 -2.54431E-09 -2.54280E-09
  -2.54261E-09 -2.54373E-09 -2.54614E-09 -2.54983E-09 -2.55475E-09 -2.56089E-09 -2.56825E-09 -2.57678E-09 -2.58648E-09 -2.59731E-09
  -2.60926E-09 -2.62230E-09 -2.63642E-09 -2.65159E-09 -2.66779E-09 -2.68501E-09 -2.70320E-09 -2.72237E-09 -2.74247E-09 -2.76352E-09
  -2.78546E-09 -2.80827E-09 -2.83195E-09 -2.85648E-09 -2.88182E-09 -2.90794E-09 -2.93485E-09 -2.96249E-09 -2.99088E-09 -3.01998E-09
  -3.04977E-09 -3.08023E-09 -3.11134E-09 -3.14308E-09 -3.17544E-09 -3.20837E-09 -3.24188E-09 -3.27594E-09 -3.31053E-09 -3.34562E-09
  -3.38119E-09 -3.41724E-09 -3.45373E-09 -3.49065E-09 -3.52797E-09 -3.56568E-09 -3.60376E-09 -3.64217E-09 -3.68092E-09 -3.71996E-09
  -3.75929E-09 -3.79888E-09 -3.83872E-09 -3.87877E-09 -3.91903E-09 -3.95947E-09 -4.00007E-09 -4.04081E-09 -4.08168E-09 -4.12264E-09
  -4.16368E-09 -4.20478E-09 -4.24592E-09 -4.28708E-09 -4.32824E-09 -4.36937E-09 -4.41046E-09 -4.45150E-09 -4.49244E-09 -4.53329E-09
  -4.57400E-09 -4.61457E-09 -4.65497E-09
 GABA     Conc. = 1.13E-10
   1.69234E-09  1.75287E-09  1.81340E-09  1.87394E-09  1.93448E-09  1.99502E-09  2.05557E-09  2.11610E-09  2.17664E-09  2.23717E-09
   2.29771E-09  2.35824E-09  2.41876E-09  2.47930E-09  2.53984E-09  2.60040E-09  2.66098E-09  2.72159E-09  2.78226E-09  2.84301E-09
   2.90387E-09  2.96489E-09  3.02616E-09  3.08778E-09  3.14993E-09  3.21292E-09  3.27728E-09  3.34416E-09  3.41643E-09  3.50164E-09
   3.58503E-09  3.66240E-09  3.75563E-09  3.85310E-09  3.93825E-09  4.01895E-09  4.09484E-09  4.16196E-09  4.21488E-09  4.25258E-09
   4.28574E-09  4.32841E-09  4.34771E-09  4.35381E-09  4.39380E-09  4.43397E-09  4.46015E-09  4.50110E-09  4.54976E-09  4.60162E-09
   4.65513E-09  4.70959E-09  4.76466E-09  4.82021E-09  4.87616E-09  4.93253E-09  4.98941E-09  5.04703E-09  5.10581E-09  5.16659E-09
   5.23125E-09  5.30513E-09  5.38830E-09  5.46551E-09  5.54410E-09  5.63176E-09  5.71200E-09  5.78016E-09  5.84102E-09  5.89484E-09
   5.93887E-09  5.96930E-09  5.98938E-09  6.01319E-09  6.03926E-09  6.04556E-09  6.06506E-09  6.10957E-09  6.14640E-09  6.18491E-09
   6.23691E-09  6.28897E-09  6.34256E-09  6.40762E-09  6.47229E-09  6.53261E-09  6.59655E-09  6.66053E-09  6.72073E-09  6.77442E-09
   6.81972E-09  6.86517E-09  6.91017E-09  6.93622E-09  6.95890E-09  6.99574E-09  7.01955E-09  7.03645E-09  7.06511E-09  7.09304E-09
   7.11857E-09  7.14629E-09  7.17476E-09  7.20304E-09  7.23059E-09  7.25701E-09  7.28206E-09  7.30554E-09  7.32727E-09  7.34711E-09
   7.36490E-09  7.38050E-09  7.39380E-09  7.40466E-09  7.41300E-09  7.41870E-09  7.42167E-09  7.42176E-09  7.41889E-09  7.41295E-09
   7.40383E-09  7.39144E-09  7.37568E-09  7.35643E-09  7.33361E-09  7.30710E-09  7.27680E-09  7.24264E-09  7.20449E-09  7.16224E-09
   7.11582E-09  7.06512E-09  7.01004E-09  6.95047E-09  6.88633E-09  6.81751E-09  6.74391E-09  6.66550E-09  6.58242E-09  6.49481E-09
   6.40278E-09  6.30652E-09  6.20613E-09  6.10176E-09  5.99357E-09  5.88168E-09  5.76624E-09  5.64738E-09  5.52526E-09  5.40001E-09
   5.27178E-09  5.14070E-09  5.00693E-09  4.87059E-09  4.73184E-09  4.59084E-09  4.44772E-09  4.30263E-09  4.15575E-09  4.00721E-09
   3.85725E-09  3.70603E-09  3.55385E-09  3.40110E-09  3.24854E-09  3.09815E-09  2.95842E-09  2.85191E-09  2.75201E-09  2.63556E-09
   2.49654E-09  2.34271E-09  2.18506E-09  2.02888E-09  1.87199E-09  1.70610E-09  1.51723E-09  1.29747E-09  1.07229E-09  8.99244E-10
   7.39473E-10  5.84554E-10  4.32555E-10  2.82845E-10  1.35162E-10 -1.05954E-11 -1.54440E-10 -2.96402E-10 -4.36423E-10 -5.74498E-10
  -7.10557E-10 -8.44594E-10 -9.76509E-10 -1.10630E-09 -1.23389E-09 -1.35924E-09 -1.48228E-09 -1.60296E-09 -1.72124E-09 -1.83706E-09
  -1.95035E-09 -2.06107E-09 -2.16917E-09 -2.27457E-09 -2.37723E-09 -2.47711E-09 -2.57414E-09 -2.66826E-09 -2.75941E-09 -2.84755E-09
  -2.93261E-09 -3.01453E-09 -3.09329E-09 -3.16881E-09 -3.24102E-09 -3.30987E-09 -3.37532E-09 -3.43732E-09 -3.49578E-09 -3.55066E-09
  -3.60193E-09 -3.64950E-09 -3.69331E-09 -3.73335E-09 -3.76953E-09 -3.80176E-09 -3.83007E-09 -3.85437E-09 -3.87471E-09 -3.89124E-09
  -3.90407E-09 -3.91335E-09 -3.91920E-09 -3.92174E-09 -3.92109E-09 -3.91740E-09 -3.91077E-09 -3.90135E-09 -3.88926E-09 -3.87462E-09
