 LCModel (Version 6.3-1R) Copyright: S.W. Provencher.          Ref.: Magn. Reson. Med. 30:672-679 (1993).                
 onepulse 17x9_ftSpec_smooth_lcm
 26 lines in following concentration table = NCONC+1
    Conc.  %SD /Cr+PCr  Metabolite                                         
 4.36E-10  63%   5.952 Ala                                                 
 2.06E-09  30%  28.135 Asp                                                 
 7.32E-11 468%   1.000 Cr                                                  
 1.44E-09  38%  19.639 GABA                                                
 1.07E-09  88%  14.589 Glc                                                 
 7.65E-10  86%  10.450 Gln                                                 
    0.000 999%   0.000 Glu                                                 
    0.000 999%   0.000 Glyc                                                
    0.000 999%   0.000 GPC                                                 
 7.33E-10  71%  10.011 GSH                                                 
 1.67E-09  27%  22.763 Ins                                                 
    0.000 999%   0.000 Lac                                                 
 7.44E-10  39%  10.168 NAAG                                                
 2.37E-10 176%   3.239 NAA                                                 
    0.000 999%   0.000 PCh                                                 
    0.000 999%   0.000 PCr                                                 
 3.34E-09  24%  45.668 PE                                                  
 8.37E-11 286%   1.144 Scyllo                                              
    0.000 999%   0.000 Ser                                                 
 2.84E-10 317%   3.878 Tau                                                 
    0.000 999%   0.000 GPC+PCh                                             
 9.81E-10  29%  13.407 NAA+NAAG                                            
 1.67E-09  27%  22.763 Ins+Glyc                                            
 7.32E-11 468%   1.000 Cr+PCr                                              
 7.65E-10  86%  10.450 Glu+Gln                                             
   6 lines in following misc. output table
  FWHM = 0.123 ppm    S/N =   4                                            
  Data shift = 0.470 ppm                                                   
  Ph:  63 deg     -29.4 deg/ppm                                            
  alphaB,S = 7.8E-01,   3.8E+00                                            
   10 spline knots.   Ns = 5(1)                                            
  ( 7)10 infls.   (11) 7 extrs.                                            
  363 points on ppm-axis = NY
      4.250000     4.238821     4.227641     4.216462     4.205282     4.194103     4.182923     4.171744     4.160564     4.149385
      4.138206     4.127026     4.115847     4.104667     4.093488     4.082308     4.071129     4.059949     4.048770     4.037591
      4.026411     4.015232     4.004052     3.992873     3.981693     3.970514     3.959334     3.948155     3.936975     3.925796
      3.914617     3.903437     3.892258     3.881078     3.869899     3.858719     3.847540     3.836360     3.825181     3.814002
      3.802822     3.791643     3.780463     3.769284     3.758104     3.746925     3.735745     3.724566     3.713387     3.702207
      3.691028     3.679848     3.668669     3.657489     3.646310     3.635130     3.623951     3.612772     3.601592     3.590413
      3.579233     3.568054     3.556874     3.545695     3.534515     3.523336     3.512156     3.500977     3.489798     3.478618
      3.467439     3.456259     3.445080     3.433900     3.422721     3.411541     3.400362     3.389183     3.378003     3.366824
      3.355644     3.344465     3.333285     3.322106     3.310926     3.299747     3.288568     3.277388     3.266209     3.255029
      3.243850     3.232670     3.221491     3.210311     3.199132     3.187953     3.176773     3.165594     3.154414     3.143235
      3.132055     3.120876     3.109696     3.098517     3.087337     3.076158     3.064979     3.053799     3.042620     3.031440
      3.020261     3.009081     2.997902     2.986722     2.975543     2.964364     2.953184     2.942005     2.930825     2.919646
      2.908466     2.897287     2.886107     2.874928     2.863749     2.852569     2.841390     2.830210     2.819031     2.807851
      2.796672     2.785492     2.774313     2.763134     2.751954     2.740775     2.729595     2.718416     2.707236     2.696057
      2.684877     2.673698     2.662519     2.651339     2.640160     2.628980     2.617801     2.606621     2.595442     2.584262
      2.573083     2.561903     2.550724     2.539545     2.528365     2.517186     2.506006     2.494827     2.483647     2.472468
      2.461288     2.450109     2.438930     2.427750     2.416571     2.405391     2.394212     2.383032     2.371853     2.360673
      2.349494     2.338315     2.327135     2.315956     2.304776     2.293597     2.282417     2.271238     2.260058     2.248879
      2.237700     2.226520     2.215341     2.204161     2.192982     2.181802     2.170623     2.159443     2.148264     2.137084
      2.125905     2.114726     2.103546     2.092367     2.081187     2.070008     2.058828     2.047649     2.036469     2.025290
      2.014111     2.002931     1.991752     1.980572     1.969393     1.958213     1.947034     1.935854     1.924675     1.913496
      1.902316     1.891137     1.879957     1.868778     1.857598     1.846419     1.835239     1.824060     1.812881     1.801701
      1.790522     1.779342     1.768163     1.756983     1.745804     1.734624     1.723445     1.712265     1.701086     1.689907
      1.678727     1.667548     1.656368     1.645189     1.634009     1.622830     1.611650     1.600471     1.589292     1.578112
      1.566933     1.555753     1.544574     1.533394     1.522215     1.511035     1.499856     1.488677     1.477497     1.466318
      1.455138     1.443959     1.432779     1.421600     1.410420     1.399241     1.388062     1.376882     1.365703     1.354523
      1.343344     1.332164     1.320985     1.309805     1.298626     1.287446     1.276267     1.265088     1.253908     1.242729
      1.231549     1.220370     1.209190     1.198011     1.186831     1.175652     1.164473     1.153293     1.142114     1.130934
      1.119755     1.108575     1.097396     1.086216     1.075037     1.063858     1.052678     1.041499     1.030319     1.019140
      1.007960     0.996781     0.985601     0.974422     0.963243     0.952063     0.940884     0.929704     0.918525     0.907345
      0.896166     0.884986     0.873807     0.862628     0.851448     0.840269     0.829089     0.817910     0.806730     0.795551
      0.784371     0.773192     0.762012     0.750833     0.739654     0.728474     0.717295     0.706115     0.694936     0.683756
      0.672577     0.661397     0.650218     0.639039     0.627859     0.616680     0.605500     0.594321     0.583141     0.571962
      0.560782     0.549603     0.538424     0.527244     0.516065     0.504885     0.493706     0.482526     0.471347     0.460167
      0.448988     0.437809     0.426629     0.415450     0.404270     0.393091     0.381911     0.370732     0.359552     0.348373
      0.337193     0.326014     0.314835     0.303655     0.292476     0.281296     0.270117     0.258937     0.247758     0.236578
      0.225399     0.214220     0.203040
 NY phased data points follow
   9.99124E-09  1.08474E-08  1.06926E-08  1.10481E-08  1.15321E-08  1.23127E-08  1.20453E-08  1.18400E-08  1.18562E-08  1.15621E-08
   1.11972E-08  1.13260E-08  1.10019E-08  1.04632E-08  1.08522E-08  1.19531E-08  1.21212E-08  1.16727E-08  1.08975E-08  9.74059E-09
   1.02819E-08  1.20727E-08  1.33078E-08  1.46314E-08  1.46298E-08  1.48443E-08  1.37017E-08  1.28863E-08  1.22754E-08  1.30056E-08
   1.19165E-08  1.20192E-08  1.20992E-08  1.16821E-08  1.11613E-08  1.13087E-08  1.05199E-08  1.00754E-08  9.80060E-09  9.11210E-09
   8.32370E-09  9.00817E-09  9.03242E-09  8.69177E-09  7.91889E-09  7.28348E-09  5.92256E-09  5.89263E-09  5.37031E-09  5.61644E-09
   4.51417E-09  4.86252E-09  5.77216E-09  8.79516E-09  1.08322E-08  1.27527E-08  1.23208E-08  1.21256E-08  1.13844E-08  1.05834E-08
   1.03483E-08  1.01208E-08  8.68083E-09  8.24248E-09  6.48237E-09  6.84622E-09  4.07557E-09  3.21865E-09  2.35352E-09  5.64104E-09
   1.01651E-08  1.24806E-08  1.27272E-08  1.36467E-08  1.36207E-08  1.39520E-08  1.36685E-08  1.33466E-08  1.32282E-08  1.33577E-08
   1.35843E-08  1.31898E-08  1.35110E-08  1.32058E-08  1.31340E-08  1.29847E-08  1.18332E-08  1.15535E-08  1.17893E-08  1.11910E-08
   1.07052E-08  1.03797E-08  1.09519E-08  1.07480E-08  1.00133E-08  1.03193E-08  1.04707E-08  1.01454E-08  9.91336E-09  9.48946E-09
   8.66521E-09  7.98931E-09  7.23964E-09  7.72686E-09  7.71583E-09  7.27623E-09  7.40009E-09  7.93454E-09  7.54186E-09  7.49367E-09
   7.56333E-09  8.44979E-09  8.69573E-09  8.20093E-09  7.71440E-09  7.36098E-09  6.21811E-09  5.87354E-09  6.30549E-09  5.95989E-09
   5.29456E-09  5.74559E-09  5.63220E-09  5.93650E-09  5.52343E-09  5.86511E-09  5.78848E-09  5.12597E-09  4.24268E-09  4.24399E-09
   5.30741E-09  6.07339E-09  6.88979E-09  6.60647E-09  6.04655E-09  6.67873E-09  7.35866E-09  7.56988E-09  7.96170E-09  8.44460E-09
   8.28559E-09  8.75787E-09  8.73601E-09  8.35360E-09  7.85015E-09  8.21262E-09  8.62264E-09  8.60140E-09  7.97052E-09  8.33939E-09
   7.93576E-09  7.58324E-09  7.80545E-09  8.11006E-09  7.37185E-09  7.18082E-09  6.48105E-09  6.23184E-09  4.64230E-09  4.98434E-10
   1.29369E-09  6.35918E-09  1.19321E-08  1.50812E-08  1.67865E-08  1.73358E-08  1.96901E-08  2.02961E-08  2.10434E-08  2.10873E-08
   2.20837E-08  2.23987E-08  2.24876E-08  2.27364E-08  2.26380E-08  2.25254E-08  2.17650E-08  2.10801E-08  2.01221E-08  1.83053E-08
   1.64330E-08  1.43138E-08  1.18773E-08  1.03598E-08  8.00247E-09  5.83076E-09  3.54806E-09  1.41523E-09 -4.82267E-10 -1.70920E-09
  -2.90160E-09 -3.06174E-09 -4.51323E-09 -4.58719E-09 -4.32905E-09 -3.74766E-09 -3.50286E-09 -3.12886E-09 -2.55301E-09 -1.95280E-09
  -1.30065E-09 -3.25103E-10 -1.09400E-09 -5.91687E-10 -6.10483E-10 -7.33032E-10 -4.66219E-10 -7.34484E-10 -4.77501E-10 -9.91922E-10
  -7.05595E-10 -8.90327E-10 -2.36159E-10 -5.16482E-10 -2.37180E-10  2.00611E-10  2.32012E-10 -3.25414E-10 -9.35374E-10 -7.69333E-10
  -3.64915E-10 -4.97787E-10 -1.94894E-10  2.43266E-10 -9.12649E-10 -4.22908E-10 -2.70137E-10 -4.51746E-10  3.89269E-10  1.81093E-10
  -5.40024E-10 -3.81881E-10 -7.29102E-10 -3.34468E-10 -8.39283E-10 -1.45354E-09 -1.55202E-09 -8.79649E-10 -1.04195E-09 -1.06884E-09
  -6.70829E-10 -4.91215E-10 -3.27073E-10 -2.99012E-10 -1.88463E-10  1.23673E-10 -4.97987E-11  3.81719E-10  1.03584E-10  5.96915E-10
   2.60171E-10  7.42686E-11 -1.31485E-10 -6.90873E-10 -8.60710E-10 -1.12717E-09 -1.32568E-09 -2.08043E-09 -1.92071E-09 -2.16185E-09
  -2.17104E-09 -2.36154E-09 -2.44224E-09 -2.75583E-09 -1.17260E-09 -1.51107E-09 -1.44626E-09 -1.08536E-09 -9.60018E-10 -6.56131E-10
  -6.46870E-10 -6.98721E-10 -3.66257E-12 -3.42640E-10  4.59551E-10 -3.92259E-10  2.49161E-10  5.74874E-10  7.61754E-10  3.51465E-10
   6.64070E-10  5.14992E-10  3.31979E-10  1.97646E-10  4.58030E-10  2.66436E-10  8.61502E-10  6.47564E-10  4.05676E-10  7.39911E-10
   2.62196E-10  3.86148E-10  5.29932E-10  3.15150E-10  4.56527E-10  4.41379E-10  1.55546E-10  1.85625E-10 -1.29013E-11 -1.25217E-10
  -1.12603E-10 -9.41283E-11 -2.43468E-10 -2.09192E-10 -5.19827E-10 -6.93584E-10  1.40568E-10 -5.46032E-10 -4.12266E-10 -6.62662E-10
  -5.02785E-10 -1.09741E-09 -4.45838E-10 -9.65059E-10 -9.14646E-10 -1.10615E-09 -7.79448E-10 -8.78728E-10 -1.06711E-09 -1.62168E-09
  -4.79181E-10 -1.41900E-09 -1.09724E-09 -1.44550E-09 -9.71841E-10 -1.81180E-09 -1.21073E-09 -1.36214E-09 -1.11738E-09 -1.65841E-09
  -9.37383E-10 -1.45126E-09 -1.64909E-09 -1.95910E-09 -1.40676E-09 -2.18283E-09 -1.27643E-09 -1.75730E-09 -2.11974E-09 -2.50396E-09
  -1.67754E-09 -2.37139E-09 -1.84662E-09 -2.24557E-09 -2.07074E-09 -2.15474E-09 -2.07944E-09 -2.14570E-09 -2.25402E-09 -2.61332E-09
  -2.24894E-09 -2.72607E-09 -2.46677E-09 -2.42694E-09 -2.83899E-09 -2.96742E-09 -2.80885E-09 -2.66509E-09 -2.77553E-09 -2.62303E-09
  -2.86149E-09 -2.81533E-09 -2.72413E-09
 NY points of the fit to the data follow
   1.23834E-08  1.19196E-08  1.09477E-08  1.05879E-08  1.13592E-08  1.05971E-08  1.06918E-08  1.22823E-08  1.33052E-08  1.25722E-08
   1.02701E-08  1.07142E-08  1.04332E-08  1.07021E-08  1.24877E-08  1.10103E-08  1.04983E-08  1.19252E-08  1.18655E-08  1.05295E-08
   1.11048E-08  1.19933E-08  1.26187E-08  1.33712E-08  1.39300E-08  1.39201E-08  1.32803E-08  1.34302E-08  1.34871E-08  1.32909E-08
   1.43477E-08  1.29719E-08  1.25425E-08  1.25958E-08  1.08540E-08  9.98788E-09  9.86453E-09  9.29359E-09  8.78725E-09  9.03970E-09
   9.05896E-09  8.19057E-09  8.63207E-09  9.26462E-09  8.47059E-09  8.09898E-09  8.94280E-09  7.76320E-09  7.28267E-09  8.23126E-09
   7.95617E-09  7.96430E-09  8.39705E-09  9.01972E-09  9.22370E-09  9.12523E-09  9.48090E-09  8.93456E-09  8.76141E-09  9.28077E-09
   9.23687E-09  8.97304E-09  9.36778E-09  8.94680E-09  9.26325E-09  1.00047E-08  9.68140E-09  9.51744E-09  9.75846E-09  9.60349E-09
   1.04685E-08  1.06068E-08  1.10662E-08  1.06850E-08  1.07991E-08  1.35888E-08  1.41247E-08  1.32670E-08  1.35530E-08  1.36722E-08
   1.38310E-08  1.34289E-08  1.27607E-08  1.31807E-08  1.28558E-08  1.26794E-08  1.29812E-08  1.11095E-08  9.28441E-09  8.86527E-09
   8.80228E-09  8.57372E-09  8.10034E-09  8.62398E-09  8.39764E-09  7.61826E-09  8.01257E-09  7.93147E-09  7.57045E-09  7.85333E-09
   8.18817E-09  7.51041E-09  7.86577E-09  8.42093E-09  8.06928E-09  8.12804E-09  8.13368E-09  8.18566E-09  8.15858E-09  8.12118E-09
   8.35240E-09  7.43376E-09  7.44153E-09  7.79578E-09  7.12595E-09  6.91329E-09  6.82502E-09  6.77868E-09  6.75063E-09  6.73187E-09
   6.71815E-09  6.70713E-09  6.69762E-09  6.68878E-09  6.68003E-09  6.67095E-09  6.66134E-09  6.65095E-09  6.63958E-09  6.62716E-09
   6.61357E-09  6.59871E-09  6.58254E-09  6.56502E-09  6.54607E-09  6.52568E-09  6.50382E-09  6.48046E-09  6.45558E-09  6.42920E-09
   6.40130E-09  6.37190E-09  6.34102E-09  6.30870E-09  6.27496E-09  6.23986E-09  6.20349E-09  6.16592E-09  6.12732E-09  6.08786E-09
   6.04772E-09  6.00723E-09  5.96676E-09  5.92682E-09  5.88816E-09  5.85174E-09  5.81903E-09  5.79218E-09  5.77450E-09  5.77122E-09
   5.79114E-09  5.85026E-09  5.98074E-09  6.25730E-09  6.89513E-09  8.77047E-09  1.65481E-08  2.28070E-08  2.12904E-08  2.07708E-08
   2.19076E-08  2.24626E-08  2.25585E-08  2.25363E-08  2.28665E-08  2.20332E-08  2.39976E-08  2.29696E-08  1.36754E-08  7.24479E-09
   5.48694E-09  4.73658E-09  4.30426E-09  4.00821E-09  3.78193E-09  3.59586E-09  3.43488E-09  3.29059E-09  3.15800E-09  3.03394E-09
   2.91634E-09  2.80381E-09  2.69537E-09  2.59038E-09  2.48830E-09  2.38881E-09  2.29165E-09  2.19667E-09  2.10370E-09  2.01269E-09
   1.92357E-09  1.83632E-09  1.75092E-09  1.66738E-09  1.58572E-09  1.50594E-09  1.42812E-09  1.35224E-09  1.27837E-09  1.20645E-09
   1.13644E-09  1.06829E-09  1.00196E-09  9.37415E-10  8.74618E-10  8.13525E-10  7.54117E-10  6.96356E-10  6.40202E-10  5.85628E-10
   5.32619E-10  4.81129E-10  4.31133E-10  3.82607E-10  3.35517E-10  2.89843E-10  2.45565E-10  2.02634E-10  1.61029E-10  1.20747E-10
   8.17484E-11  4.40012E-11  7.49256E-12 -2.78160E-11 -6.19372E-11 -9.49091E-11 -1.26751E-10 -1.57477E-10 -1.87122E-10 -2.15707E-10
  -2.43256E-10 -2.69790E-10 -2.95340E-10 -3.19929E-10 -3.43575E-10 -3.66304E-10 -3.88149E-10 -4.09136E-10 -4.29260E-10 -4.48558E-10
  -4.67069E-10 -4.84813E-10 -5.01801E-10 -5.18050E-10 -5.33622E-10 -5.48496E-10 -5.62720E-10 -5.76305E-10 -5.89289E-10 -6.01692E-10
  -6.13526E-10 -6.24824E-10 -6.35610E-10 -6.45910E-10 -6.55749E-10 -6.65153E-10 -6.74146E-10 -6.82753E-10 -6.91000E-10 -6.98912E-10
  -7.06514E-10 -7.13831E-10 -7.20887E-10 -7.27709E-10 -7.34321E-10 -7.40748E-10 -7.47016E-10 -7.53148E-10 -7.59172E-10 -7.65112E-10
  -7.70989E-10 -7.76834E-10 -7.82669E-10 -7.88519E-10 -7.94410E-10 -8.00367E-10 -8.06414E-10 -8.12576E-10 -8.18881E-10 -8.25349E-10
  -8.32009E-10 -8.38883E-10 -8.45998E-10 -8.53380E-10 -8.61050E-10 -8.69038E-10 -8.77365E-10 -8.86057E-10 -8.95139E-10 -9.04637E-10
  -9.14577E-10 -9.24979E-10 -9.35872E-10 -9.47281E-10 -9.59228E-10 -9.71743E-10 -9.84846E-10 -9.98564E-10 -1.01292E-09 -1.02795E-09
  -1.04366E-09 -1.06008E-09 -1.07722E-09 -1.09505E-09 -1.11355E-09 -1.13271E-09 -1.15250E-09 -1.17292E-09 -1.19395E-09 -1.21556E-09
  -1.23774E-09 -1.26047E-09 -1.28374E-09 -1.30753E-09 -1.33181E-09 -1.35658E-09 -1.38181E-09 -1.40749E-09 -1.43360E-09 -1.46012E-09
  -1.48704E-09 -1.51434E-09 -1.54199E-09 -1.56999E-09 -1.59831E-09 -1.62694E-09 -1.65587E-09 -1.68506E-09 -1.71451E-09 -1.74420E-09
  -1.77411E-09 -1.80422E-09 -1.83452E-09 -1.86498E-09 -1.89560E-09 -1.92635E-09 -1.95721E-09 -1.98817E-09 -2.01922E-09 -2.05032E-09
  -2.08148E-09 -2.11266E-09 -2.14385E-09 -2.17504E-09 -2.20619E-09 -2.23732E-09 -2.26838E-09 -2.29936E-09 -2.33025E-09 -2.36103E-09
  -2.39168E-09 -2.42219E-09 -2.45253E-09
 NY background values follow
    -2.793E-09   -2.706E-09   -2.620E-09   -2.533E-09   -2.447E-09   -2.360E-09   -2.273E-09   -2.187E-09   -2.100E-09   -2.014E-09
    -1.927E-09   -1.841E-09   -1.754E-09   -1.668E-09   -1.581E-09   -1.495E-09   -1.408E-09   -1.322E-09   -1.236E-09   -1.149E-09
    -1.063E-09   -9.770E-10   -8.909E-10   -8.049E-10   -7.190E-10   -6.331E-10   -5.473E-10   -4.617E-10   -3.761E-10   -2.906E-10
    -2.052E-10   -1.199E-10   -3.474E-11    5.031E-11    1.353E-10    2.201E-10    3.047E-10    3.893E-10    4.737E-10    5.580E-10
     6.421E-10    7.261E-10    8.099E-10    8.935E-10    9.770E-10    1.060E-09    1.144E-09    1.226E-09    1.309E-09    1.392E-09
     1.474E-09    1.556E-09    1.638E-09    1.720E-09    1.802E-09    1.883E-09    1.964E-09    2.045E-09    2.125E-09    2.205E-09
     2.285E-09    2.364E-09    2.443E-09    2.521E-09    2.599E-09    2.676E-09    2.753E-09    2.829E-09    2.904E-09    2.979E-09
     3.053E-09    3.127E-09    3.200E-09    3.272E-09    3.343E-09    3.414E-09    3.484E-09    3.553E-09    3.621E-09    3.688E-09
     3.754E-09    3.820E-09    3.884E-09    3.948E-09    4.010E-09    4.071E-09    4.132E-09    4.191E-09    4.249E-09    4.306E-09
     4.362E-09    4.416E-09    4.470E-09    4.522E-09    4.573E-09    4.622E-09    4.671E-09    4.718E-09    4.763E-09    4.807E-09
     4.850E-09    4.891E-09    4.931E-09    4.969E-09    5.006E-09    5.041E-09    5.075E-09    5.107E-09    5.138E-09    5.166E-09
     5.194E-09    5.219E-09    5.243E-09    5.266E-09    5.286E-09    5.305E-09    5.323E-09    5.338E-09    5.352E-09    5.365E-09
     5.375E-09    5.384E-09    5.391E-09    5.396E-09    5.399E-09    5.401E-09    5.400E-09    5.398E-09    5.394E-09    5.389E-09
     5.381E-09    5.371E-09    5.360E-09    5.347E-09    5.331E-09    5.314E-09    5.295E-09    5.274E-09    5.251E-09    5.226E-09
     5.199E-09    5.170E-09    5.138E-09    5.105E-09    5.070E-09    5.033E-09    4.993E-09    4.952E-09    4.909E-09    4.863E-09
     4.815E-09    4.765E-09    4.713E-09    4.659E-09    4.603E-09    4.544E-09    4.483E-09    4.420E-09    4.355E-09    4.288E-09
     4.219E-09    4.149E-09    4.076E-09    4.002E-09    3.926E-09    3.849E-09    3.770E-09    3.690E-09    3.609E-09    3.526E-09
     3.442E-09    3.357E-09    3.271E-09    3.185E-09    3.097E-09    3.009E-09    2.920E-09    2.830E-09    2.740E-09    2.649E-09
     2.558E-09    2.467E-09    2.375E-09    2.284E-09    2.192E-09    2.100E-09    2.008E-09    1.917E-09    1.825E-09    1.734E-09
     1.644E-09    1.554E-09    1.464E-09    1.375E-09    1.287E-09    1.199E-09    1.112E-09    1.027E-09    9.419E-10    8.582E-10
     7.757E-10    6.944E-10    6.144E-10    5.358E-10    4.586E-10    3.829E-10    3.089E-10    2.366E-10    1.660E-10    9.715E-11
     2.999E-11   -3.548E-11   -9.930E-11   -1.615E-10   -2.220E-10   -2.810E-10   -3.384E-10   -3.943E-10   -4.486E-10   -5.015E-10
    -5.529E-10   -6.028E-10   -6.513E-10   -6.984E-10   -7.441E-10   -7.884E-10   -8.314E-10   -8.731E-10   -9.135E-10   -9.527E-10
    -9.905E-10   -1.027E-09   -1.063E-09   -1.097E-09   -1.130E-09   -1.162E-09   -1.193E-09   -1.223E-09   -1.252E-09   -1.279E-09
    -1.306E-09   -1.332E-09   -1.356E-09   -1.380E-09   -1.403E-09   -1.425E-09   -1.446E-09   -1.466E-09   -1.486E-09   -1.505E-09
    -1.522E-09   -1.539E-09   -1.556E-09   -1.571E-09   -1.586E-09   -1.600E-09   -1.614E-09   -1.627E-09   -1.639E-09   -1.651E-09
    -1.662E-09   -1.673E-09   -1.683E-09   -1.693E-09   -1.702E-09   -1.711E-09   -1.720E-09   -1.728E-09   -1.735E-09   -1.743E-09
    -1.750E-09   -1.757E-09   -1.763E-09   -1.769E-09   -1.776E-09   -1.781E-09   -1.787E-09   -1.793E-09   -1.798E-09   -1.804E-09
    -1.809E-09   -1.814E-09   -1.820E-09   -1.825E-09   -1.831E-09   -1.836E-09   -1.842E-09   -1.847E-09   -1.853E-09   -1.859E-09
    -1.865E-09   -1.872E-09   -1.878E-09   -1.885E-09   -1.892E-09   -1.900E-09   -1.908E-09   -1.916E-09   -1.925E-09   -1.934E-09
    -1.943E-09   -1.953E-09   -1.964E-09   -1.974E-09   -1.986E-09   -1.998E-09   -2.011E-09   -2.024E-09   -2.038E-09   -2.052E-09
    -2.068E-09   -2.084E-09   -2.100E-09   -2.118E-09   -2.136E-09   -2.154E-09   -2.174E-09   -2.194E-09   -2.214E-09   -2.235E-09
    -2.257E-09   -2.279E-09   -2.302E-09   -2.325E-09   -2.349E-09   -2.374E-09   -2.398E-09   -2.424E-09   -2.449E-09   -2.475E-09
    -2.502E-09   -2.529E-09   -2.556E-09   -2.583E-09   -2.611E-09   -2.639E-09   -2.668E-09   -2.696E-09   -2.725E-09   -2.755E-09
    -2.784E-09   -2.814E-09   -2.843E-09   -2.873E-09   -2.904E-09   -2.934E-09   -2.964E-09   -2.995E-09   -3.025E-09   -3.056E-09
    -3.086E-09   -3.117E-09   -3.148E-09   -3.178E-09   -3.209E-09   -3.240E-09   -3.270E-09   -3.301E-09   -3.331E-09   -3.361E-09
    -3.391E-09   -3.421E-09   -3.451E-09
 Ala      Conc. = 4.36E-10
  -2.44909E-09 -2.42721E-09 -2.28526E-09 -2.17242E-09 -2.09608E-09 -2.06700E-09 -1.91290E-09 -1.84247E-09 -1.91363E-09 -1.73621E-09
  -1.65264E-09 -1.70005E-09 -1.59992E-09 -1.52236E-09 -1.47304E-09 -1.40716E-09 -1.33353E-09 -1.25584E-09 -1.17580E-09 -1.09425E-09
  -1.01172E-09 -9.28512E-10 -8.44806E-10 -7.60755E-10 -6.76473E-10 -5.92008E-10 -5.07431E-10 -4.22772E-10 -3.38079E-10 -2.53363E-10
  -1.68638E-10 -8.39690E-11  6.75994E-13  8.52602E-11  1.69781E-10  2.54213E-10  3.38557E-10  4.22820E-10  5.06961E-10  5.90969E-10
   6.74888E-10  7.58684E-10  8.42325E-10  9.25821E-10  1.00918E-09  1.09238E-09  1.17544E-09  1.25832E-09  1.34103E-09  1.42355E-09
   1.50593E-09  1.58811E-09  1.67011E-09  1.75190E-09  1.83346E-09  1.91477E-09  1.99580E-09  2.07654E-09  2.15694E-09  2.23700E-09
   2.31667E-09  2.39595E-09  2.47479E-09  2.55319E-09  2.63110E-09  2.70851E-09  2.78540E-09  2.86174E-09  2.93751E-09  3.01268E-09
   3.08722E-09  3.16113E-09  3.23438E-09  3.30694E-09  3.37879E-09  3.44993E-09  3.52031E-09  3.58994E-09  3.65881E-09  3.72688E-09
   3.79417E-09  3.86065E-09  3.92633E-09  3.99122E-09  4.05533E-09  4.11869E-09  4.18134E-09  4.24334E-09  4.30479E-09  4.36584E-09
   4.42669E-09  4.48766E-09  4.54929E-09  4.61236E-09  4.67830E-09  4.74974E-09  4.83199E-09  4.93780E-09  5.10562E-09  5.49731E-09
   6.01903E-09  5.51655E-09  5.99421E-09  6.66292E-09  6.39830E-09  6.52324E-09  6.58366E-09  6.67951E-09  6.69032E-09  6.68603E-09
   6.94540E-09  6.05143E-09  6.08114E-09  6.45496E-09  5.80258E-09  5.60605E-09  5.53191E-09  5.49836E-09  5.48200E-09  5.47388E-09
   5.46988E-09  5.46785E-09  5.46656E-09  5.46523E-09  5.46339E-09  5.46069E-09  5.45690E-09  5.45184E-09  5.44539E-09  5.43744E-09
   5.42791E-09  5.41675E-09  5.40389E-09  5.38930E-09  5.37293E-09  5.35474E-09  5.33473E-09  5.31284E-09  5.28907E-09  5.26339E-09
   5.23577E-09  5.20620E-09  5.17466E-09  5.14115E-09  5.10563E-09  5.06809E-09  5.02853E-09  4.98693E-09  4.94327E-09  4.89756E-09
   4.84977E-09  4.79992E-09  4.74799E-09  4.69397E-09  4.63790E-09  4.57977E-09  4.51964E-09  4.45762E-09  4.39388E-09  4.32866E-09
   4.26232E-09  4.19541E-09  4.12901E-09  4.06544E-09  4.01099E-09  3.98885E-09  4.13373E-09  4.48871E-09  4.11781E-09  4.11105E-09
   4.06409E-09  3.99676E-09  3.92447E-09  3.82542E-09  3.76650E-09  3.66360E-09  3.55946E-09  3.67563E-09  3.00590E-09  2.78138E-09
   2.64768E-09  2.53693E-09  2.43460E-09  2.33615E-09  2.23978E-09  2.14473E-09  2.05057E-09  1.95710E-09  1.86427E-09  1.77204E-09
   1.68040E-09  1.58940E-09  1.49904E-09  1.40943E-09  1.32057E-09  1.23256E-09  1.14544E-09  1.05930E-09  9.74183E-10  8.90186E-10
   8.07371E-10  7.25807E-10  6.45573E-10  5.66737E-10  4.89375E-10  4.13556E-10  3.39386E-10  2.66883E-10  1.96151E-10  1.27149E-10
   5.98647E-11 -5.73292E-12 -6.96616E-11 -1.31951E-10 -1.92620E-10 -2.51699E-10 -3.09201E-10 -3.65153E-10 -4.19586E-10 -4.72521E-10
  -5.23967E-10 -5.73962E-10 -6.22527E-10 -6.69682E-10 -7.15453E-10 -7.59862E-10 -8.02919E-10 -8.44674E-10 -8.85144E-10 -9.24330E-10
  -9.62267E-10 -9.98988E-10 -1.03450E-09 -1.06884E-09 -1.10202E-09 -1.13408E-09 -1.16504E-09 -1.19490E-09 -1.22370E-09 -1.25146E-09
  -1.27821E-09 -1.30396E-09 -1.32874E-09 -1.35258E-09 -1.37548E-09 -1.39749E-09 -1.41863E-09 -1.43892E-09 -1.45837E-09 -1.47700E-09
  -1.49485E-09 -1.51195E-09 -1.52830E-09 -1.54392E-09 -1.55888E-09 -1.57314E-09 -1.58677E-09 -1.59976E-09 -1.61216E-09 -1.62399E-09
  -1.63525E-09 -1.64599E-09 -1.65622E-09 -1.66597E-09 -1.67526E-09 -1.68413E-09 -1.69259E-09 -1.70067E-09 -1.70839E-09 -1.71579E-09
  -1.72287E-09 -1.72968E-09 -1.73623E-09 -1.74255E-09 -1.74867E-09 -1.75460E-09 -1.76038E-09 -1.76602E-09 -1.77156E-09 -1.77702E-09
  -1.78242E-09 -1.78779E-09 -1.79315E-09 -1.79853E-09 -1.80395E-09 -1.80944E-09 -1.81502E-09 -1.82072E-09 -1.82657E-09 -1.83258E-09
  -1.83878E-09 -1.84520E-09 -1.85186E-09 -1.85878E-09 -1.86600E-09 -1.87354E-09 -1.88141E-09 -1.88966E-09 -1.89829E-09 -1.90734E-09
  -1.91683E-09 -1.92679E-09 -1.93724E-09 -1.94820E-09 -1.95970E-09 -1.97177E-09 -1.98443E-09 -1.99771E-09 -2.01162E-09 -2.02620E-09
  -2.04147E-09 -2.05745E-09 -2.07414E-09 -2.09152E-09 -2.10958E-09 -2.12829E-09 -2.14764E-09 -2.16762E-09 -2.18820E-09 -2.20936E-09
  -2.23110E-09 -2.25338E-09 -2.27620E-09 -2.29954E-09 -2.32337E-09 -2.34769E-09 -2.37247E-09 -2.39770E-09 -2.42335E-09 -2.44942E-09
  -2.47588E-09 -2.50272E-09 -2.52992E-09 -2.55746E-09 -2.58532E-09 -2.61349E-09 -2.64195E-09 -2.67068E-09 -2.69967E-09 -2.72889E-09
  -2.75833E-09 -2.78797E-09 -2.81779E-09 -2.84779E-09 -2.87792E-09 -2.90819E-09 -2.93858E-09 -2.96906E-09 -2.99962E-09 -3.03024E-09
  -3.06091E-09 -3.09160E-09 -3.12230E-09 -3.15299E-09 -3.18366E-09 -3.21428E-09 -3.24484E-09 -3.27532E-09 -3.30571E-09 -3.33598E-09
  -3.36612E-09 -3.39611E-09 -3.42594E-09
 Asp      Conc. = 2.06E-09
  -6.27193E-10 -2.57748E-10 -9.69323E-10 -7.31451E-10 -1.07737E-09 -1.20981E-09 -1.11761E-09 -1.38295E-09 -1.61521E-09 -1.66207E-09
  -1.64613E-09 -1.60211E-09 -1.54181E-09 -1.47930E-09 -1.39971E-09 -1.31938E-09 -1.23802E-09 -1.15513E-09 -1.07086E-09 -9.85373E-10
  -8.98819E-10 -8.11270E-10 -7.22745E-10 -6.33239E-10 -5.42706E-10 -4.51011E-10 -3.57993E-10 -2.63386E-10 -1.66840E-10 -6.78113E-11
   3.44818E-11  1.41176E-10  2.54221E-10  3.76896E-10  5.15603E-10  6.84913E-10  9.26560E-10  1.28986E-09  1.26523E-09  1.61023E-09
   1.48762E-09  1.67026E-09  1.90511E-09  2.48603E-09  2.83760E-09  3.80472E-09  3.94242E-09  3.65813E-09  3.61744E-09  4.74378E-09
   4.12721E-09  4.32514E-09  4.77337E-09  4.94773E-09  4.58926E-09  4.91852E-09  4.60462E-09  3.60858E-09  3.45297E-09  4.27128E-09
   3.59725E-09  3.33040E-09  3.53321E-09  3.27970E-09  3.17491E-09  3.35508E-09  3.54510E-09  3.41043E-09  3.37303E-09  3.37833E-09
   3.40453E-09  3.44255E-09  3.48790E-09  3.53805E-09  3.59144E-09  3.64705E-09  3.70415E-09  3.76225E-09  3.82097E-09  3.87999E-09
   3.93909E-09  3.99808E-09  4.05682E-09  4.11516E-09  4.17299E-09  4.23023E-09  4.28679E-09  4.34260E-09  4.39759E-09  4.45169E-09
   4.50486E-09  4.55704E-09  4.60819E-09  4.65826E-09  4.70721E-09  4.75500E-09  4.80159E-09  4.84694E-09  4.89101E-09  4.93378E-09
   4.97520E-09  5.01526E-09  5.05391E-09  5.09112E-09  5.12688E-09  5.16113E-09  5.19388E-09  5.22510E-09  5.25478E-09  5.28290E-09
   5.30946E-09  5.33442E-09  5.35779E-09  5.37954E-09  5.39965E-09  5.41812E-09  5.43493E-09  5.45006E-09  5.46350E-09  5.47524E-09
   5.48526E-09  5.49355E-09  5.50010E-09  5.50488E-09  5.50790E-09  5.50913E-09  5.50856E-09  5.50619E-09  5.50198E-09  5.49595E-09
   5.48806E-09  5.47831E-09  5.46669E-09  5.45318E-09  5.43777E-09  5.42045E-09  5.40122E-09  5.38005E-09  5.35694E-09  5.33187E-09
   5.30485E-09  5.27585E-09  5.24488E-09  5.21192E-09  5.17697E-09  5.14003E-09  5.10109E-09  5.06015E-09  5.01721E-09  4.97230E-09
   4.92541E-09  4.87657E-09  4.82582E-09  4.77319E-09  4.71876E-09  4.66261E-09  4.60491E-09  4.54590E-09  4.48599E-09  4.42574E-09
   4.36602E-09  4.30823E-09  4.25490E-09  4.21100E-09  4.18794E-09  4.21754E-09  4.42083E-09  5.52456E-09  7.23101E-09  5.88554E-09
   6.16184E-09  6.24171E-09  6.23955E-09  6.20512E-09  6.07377E-09  6.11640E-09  5.92379E-09  5.90171E-09  6.50219E-09  3.80320E-09
   3.12972E-09  2.84745E-09  2.66766E-09  2.52663E-09  2.40382E-09  2.29098E-09  2.18415E-09  2.08125E-09  1.98118E-09  1.88322E-09
   1.78696E-09  1.69216E-09  1.59864E-09  1.50636E-09  1.41522E-09  1.32523E-09  1.23640E-09  1.14876E-09  1.06231E-09  9.77130E-10
   8.93256E-10  8.10739E-10  7.29645E-10  6.50027E-10  5.71953E-10  4.95483E-10  4.20713E-10  3.47658E-10  2.76417E-10  2.06943E-10
   1.39219E-10  7.32115E-11  8.90044E-12 -5.37475E-11 -1.14751E-10 -1.74146E-10 -2.31946E-10 -2.88178E-10 -3.42877E-10 -3.96062E-10
  -4.47747E-10 -4.97970E-10 -5.46751E-10 -5.94111E-10 -6.40079E-10 -6.84676E-10 -7.27912E-10 -7.69840E-10 -8.10475E-10 -8.49819E-10
  -8.87910E-10 -9.24777E-10 -9.60430E-10 -9.94909E-10 -1.02822E-09 -1.06041E-09 -1.09149E-09 -1.12146E-09 -1.15038E-09 -1.17825E-09
