 LCModel (Version 6.3-1R) Copyright: S.W. Provencher.          Ref.: Magn. Reson. Med. 30:672-679 (1993).                
 onepulse 18x10_ftSpec_smooth_lcm
 26 lines in following concentration table = NCONC+1
    Conc.  %SD   /Cr    Metabolite                                         
 4.01E-10  70%   0.000 Ala                                                 
 1.51E-09  38%   0.000 Asp                                                 
    0.000 999%   0.000 Cr                                                  
 1.29E-09  32%   0.000 GABA                                                
 2.25E-09  28%   0.000 Glc                                                 
 1.28E-09  48%   0.000 Gln                                                 
    0.000 999%   0.000 Glu                                                 
    0.000 999%   0.000 Glyc                                                
    0.000 999%   0.000 GPC                                                 
 1.51E-10 231%   0.000 GSH                                                 
 7.39E-10  50%   0.000 Ins                                                 
 8.21E-12 999%   0.000 Lac                                                 
 8.76E-10  22%   0.000 NAAG                                                
    0.000 999%   0.000 NAA                                                 
    0.000 999%   0.000 PCh                                                 
    0.000 999%   0.000 PCr                                                 
 2.42E-09  24%   0.000 PE                                                  
    0.000 999%   0.000 Scyllo                                              
    0.000 999%   0.000 Ser                                                 
    0.000 999%   0.000 Tau                                                 
    0.000 999%   0.000 GPC+PCh                                             
 8.76E-10  22%   0.000 NAA+NAAG                                            
 7.39E-10  50%   0.000 Ins+Glyc                                            
    0.000 999%   0.000 Cr+PCr                                              
 1.28E-09  48%   0.000 Glu+Gln                                             
   6 lines in following misc. output table
  FWHM = 0.123 ppm    S/N =   4                                            
  Data shift = 0.481 ppm                                                   
  Ph:  48 deg     -33.6 deg/ppm                                            
  alphaB,S = 8.8E-01,   6.4E+00                                            
   10 spline knots.   Ns = 5(1)                                            
  (11) 6 infls.   (11) 5 extrs.                                            
  363 points on ppm-axis = NY
      4.250000     4.238821     4.227641     4.216462     4.205282     4.194103     4.182923     4.171744     4.160564     4.149385
      4.138206     4.127026     4.115847     4.104667     4.093488     4.082308     4.071129     4.059949     4.048770     4.037591
      4.026411     4.015232     4.004052     3.992873     3.981693     3.970514     3.959334     3.948155     3.936975     3.925796
      3.914617     3.903437     3.892258     3.881078     3.869899     3.858719     3.847540     3.836360     3.825181     3.814002
      3.802822     3.791643     3.780463     3.769284     3.758104     3.746925     3.735745     3.724566     3.713387     3.702207
      3.691028     3.679848     3.668669     3.657489     3.646310     3.635130     3.623951     3.612772     3.601592     3.590413
      3.579233     3.568054     3.556874     3.545695     3.534515     3.523336     3.512156     3.500977     3.489798     3.478618
      3.467439     3.456259     3.445080     3.433900     3.422721     3.411541     3.400362     3.389183     3.378003     3.366824
      3.355644     3.344465     3.333285     3.322106     3.310926     3.299747     3.288568     3.277388     3.266209     3.255029
      3.243850     3.232670     3.221491     3.210311     3.199132     3.187953     3.176773     3.165594     3.154414     3.143235
      3.132055     3.120876     3.109696     3.098517     3.087337     3.076158     3.064979     3.053799     3.042620     3.031440
      3.020261     3.009081     2.997902     2.986722     2.975543     2.964364     2.953184     2.942005     2.930825     2.919646
      2.908466     2.897287     2.886107     2.874928     2.863749     2.852569     2.841390     2.830210     2.819031     2.807851
      2.796672     2.785492     2.774313     2.763134     2.751954     2.740775     2.729595     2.718416     2.707236     2.696057
      2.684877     2.673698     2.662519     2.651339     2.640160     2.628980     2.617801     2.606621     2.595442     2.584262
      2.573083     2.561903     2.550724     2.539545     2.528365     2.517186     2.506006     2.494827     2.483647     2.472468
      2.461288     2.450109     2.438930     2.427750     2.416571     2.405391     2.394212     2.383032     2.371853     2.360673
      2.349494     2.338315     2.327135     2.315956     2.304776     2.293597     2.282417     2.271238     2.260058     2.248879
      2.237700     2.226520     2.215341     2.204161     2.192982     2.181802     2.170623     2.159443     2.148264     2.137084
      2.125905     2.114726     2.103546     2.092367     2.081187     2.070008     2.058828     2.047649     2.036469     2.025290
      2.014111     2.002931     1.991752     1.980572     1.969393     1.958213     1.947034     1.935854     1.924675     1.913496
      1.902316     1.891137     1.879957     1.868778     1.857598     1.846419     1.835239     1.824060     1.812881     1.801701
      1.790522     1.779342     1.768163     1.756983     1.745804     1.734624     1.723445     1.712265     1.701086     1.689907
      1.678727     1.667548     1.656368     1.645189     1.634009     1.622830     1.611650     1.600471     1.589292     1.578112
      1.566933     1.555753     1.544574     1.533394     1.522215     1.511035     1.499856     1.488677     1.477497     1.466318
      1.455138     1.443959     1.432779     1.421600     1.410420     1.399241     1.388062     1.376882     1.365703     1.354523
      1.343344     1.332164     1.320985     1.309805     1.298626     1.287446     1.276267     1.265088     1.253908     1.242729
      1.231549     1.220370     1.209190     1.198011     1.186831     1.175652     1.164473     1.153293     1.142114     1.130934
      1.119755     1.108575     1.097396     1.086216     1.075037     1.063858     1.052678     1.041499     1.030319     1.019140
      1.007960     0.996781     0.985601     0.974422     0.963243     0.952063     0.940884     0.929704     0.918525     0.907345
      0.896166     0.884986     0.873807     0.862628     0.851448     0.840269     0.829089     0.817910     0.806730     0.795551
      0.784371     0.773192     0.762012     0.750833     0.739654     0.728474     0.717295     0.706115     0.694936     0.683756
      0.672577     0.661397     0.650218     0.639039     0.627859     0.616680     0.605500     0.594321     0.583141     0.571962
      0.560782     0.549603     0.538424     0.527244     0.516065     0.504885     0.493706     0.482526     0.471347     0.460167
      0.448988     0.437809     0.426629     0.415450     0.404270     0.393091     0.381911     0.370732     0.359552     0.348373
      0.337193     0.326014     0.314835     0.303655     0.292476     0.281296     0.270117     0.258937     0.247758     0.236578
      0.225399     0.214220     0.203040
 NY phased data points follow
   1.15135E-08  1.11264E-08  1.14341E-08  1.16990E-08  1.25695E-08  1.21080E-08  1.17376E-08  1.17431E-08  1.14419E-08  1.06734E-08
   1.15546E-08  1.11683E-08  1.10174E-08  1.07913E-08  1.17986E-08  1.16754E-08  1.15466E-08  1.07303E-08  1.00694E-08  1.08865E-08
   1.28139E-08  1.36125E-08  1.45524E-08  1.46149E-08  1.43666E-08  1.33119E-08  1.23319E-08  1.16076E-08  1.22026E-08  1.11184E-08
   1.12469E-08  1.10708E-08  1.09685E-08  1.00686E-08  1.01423E-08  9.24837E-09  8.90609E-09  8.72884E-09  8.25286E-09  7.52739E-09
   8.19689E-09  7.97168E-09  7.45817E-09  7.05498E-09  6.19362E-09  4.89105E-09  4.93834E-09  4.41707E-09  4.83547E-09  4.00862E-09
   5.03029E-09  6.60926E-09  9.40850E-09  1.15810E-08  1.30638E-08  1.22516E-08  1.18954E-08  1.07397E-08  1.00642E-08  9.67399E-09
   9.24356E-09  7.91815E-09  7.10130E-09  5.47708E-09  5.86500E-09  3.76266E-09  3.59391E-09  3.28419E-09  6.64376E-09  1.04679E-08
   1.28142E-08  1.27424E-08  1.39365E-08  1.33116E-08  1.36389E-08  1.33990E-08  1.31190E-08  1.28692E-08  1.29679E-08  1.27791E-08
   1.27582E-08  1.25475E-08  1.24797E-08  1.18655E-08  1.17562E-08  1.07711E-08  1.05177E-08  1.07274E-08  1.03930E-08  9.60688E-09
   9.71272E-09  9.97882E-09  1.02370E-08  9.12795E-09  9.44341E-09  9.57531E-09  8.88625E-09  8.92714E-09  8.67733E-09  7.85496E-09
   6.77820E-09  6.22081E-09  6.77184E-09  6.92435E-09  6.37553E-09  6.28651E-09  7.09544E-09  6.63478E-09  6.75257E-09  6.79252E-09
   7.69187E-09  7.87500E-09  7.10934E-09  6.79003E-09  6.49261E-09  5.40749E-09  4.97646E-09  5.66313E-09  5.24145E-09  4.57768E-09
   5.40265E-09  4.65520E-09  5.24088E-09  4.69837E-09  4.93411E-09  4.43604E-09  4.28378E-09  3.39887E-09  3.61217E-09  4.42114E-09
   5.01419E-09  6.05819E-09  5.79612E-09  5.29633E-09  5.56420E-09  6.25200E-09  6.37137E-09  6.94891E-09  7.47787E-09  7.06895E-09
   7.25470E-09  7.22367E-09  6.94855E-09  6.21524E-09  6.59049E-09  6.94828E-09  6.93530E-09  6.02352E-09  6.39538E-09  5.92875E-09
   5.52478E-09  5.70624E-09  6.17454E-09  5.00898E-09  4.76105E-09  3.62252E-09  3.15443E-09  2.19354E-09 -7.27042E-10  1.65238E-10
   4.59733E-09  9.49717E-09  1.23861E-08  1.41987E-08  1.50069E-08  1.69084E-08  1.73957E-08  1.76830E-08  1.76922E-08  1.83984E-08
   1.88887E-08  1.90542E-08  1.95614E-08  1.92574E-08  1.93666E-08  1.91473E-08  1.88781E-08  1.84604E-08  1.72693E-08  1.60492E-08
   1.48936E-08  1.34673E-08  1.21354E-08  1.04618E-08  8.71178E-09  6.85903E-09  5.18363E-09  3.00741E-09  1.57968E-09  9.59673E-11
  -6.03127E-10 -2.14935E-09 -2.83879E-09 -3.00252E-09 -3.18022E-09 -3.27603E-09 -3.40724E-09 -3.12446E-09 -2.76350E-09 -1.98338E-09
  -9.56460E-10 -1.17299E-09 -6.86251E-10 -3.43598E-10 -6.19690E-10 -2.47525E-10 -6.05106E-10 -6.75652E-11 -5.27089E-10 -7.25728E-10
  -1.05378E-09 -3.54387E-10 -5.81627E-10 -2.20195E-10  5.16444E-10  3.18674E-10 -6.61514E-11 -4.16824E-10 -3.92424E-10 -6.18643E-11
  -5.57529E-10 -1.41244E-10  4.21755E-10 -8.40647E-10 -4.58735E-10 -2.11788E-11 -3.37457E-10  3.75615E-10  3.14088E-10 -2.10333E-10
  -3.41835E-11 -1.62122E-10  7.91623E-11 -5.31741E-10 -1.00984E-09 -1.13733E-09 -6.82532E-10 -7.85904E-10 -1.31710E-09 -6.73148E-10
  -6.93211E-10 -2.15407E-10 -4.09590E-10 -1.61246E-10  9.02683E-11  3.67199E-11  6.74723E-10  5.03250E-10  1.01520E-09  9.17514E-10
   1.11287E-10  5.13354E-10 -3.03482E-10 -1.98174E-10 -8.35972E-10 -6.47780E-10 -1.90366E-09 -1.44230E-09 -1.85694E-09 -1.82416E-09
  -2.36156E-09 -1.80868E-09 -2.49551E-09 -1.09633E-09 -1.49110E-09 -1.25966E-09 -7.74499E-10 -7.66160E-10 -5.67883E-10 -5.03468E-10
  -2.69008E-10  2.36481E-10 -1.98919E-10  3.73476E-10 -1.09220E-10  2.90901E-10  5.02120E-10  7.72631E-10  2.38326E-10  9.41680E-10
   4.23450E-10  2.53056E-10  1.57940E-10  7.84785E-10  2.78017E-10  8.84052E-10  9.16165E-10  5.44029E-10  9.33770E-10  3.89794E-10
   6.08344E-10  5.24757E-10  2.95347E-10  5.52293E-10  4.14272E-10  2.41042E-10  3.23188E-10  3.41137E-10  3.62692E-11  1.67676E-10
   2.18062E-10  1.25778E-10 -6.59390E-11  1.23428E-10 -5.54562E-10  2.22711E-10 -3.10160E-10 -2.07719E-10 -4.46104E-10 -1.43534E-11
  -7.98403E-10 -2.86253E-10 -4.40228E-10 -6.88964E-10 -6.37157E-10 -4.50952E-10 -7.03642E-10 -5.96267E-10 -1.28602E-09 -1.56979E-10
  -9.79832E-10 -7.31113E-10 -9.44057E-10 -5.84213E-10 -1.36310E-09 -7.28269E-10 -8.21880E-10 -8.88620E-10 -1.26203E-09 -4.49729E-10
  -1.21333E-09 -1.11439E-09 -1.31245E-09 -8.40900E-10 -1.60513E-09 -8.48468E-10 -1.25211E-09 -1.22314E-09 -1.98532E-09 -1.06916E-09
  -1.95885E-09 -1.20538E-09 -1.70000E-09 -1.38713E-09 -1.68725E-09 -1.33685E-09 -1.77926E-09 -1.66725E-09 -1.93347E-09 -1.61735E-09
  -1.73565E-09 -1.61601E-09 -1.96406E-09 -1.95917E-09 -2.05700E-09 -2.05067E-09 -2.13530E-09 -2.06713E-09 -1.70194E-09 -2.04121E-09
  -2.26563E-09 -1.81637E-09 -2.18425E-09
 NY points of the fit to the data follow
   1.32098E-08  1.28661E-08  1.24067E-08  1.13190E-08  1.18205E-08  1.22015E-08  1.18086E-08  1.13240E-08  1.27697E-08  1.13697E-08
   9.98666E-09  1.00666E-08  9.90505E-09  1.01773E-08  1.16272E-08  1.24063E-08  1.17698E-08  1.19585E-08  1.21642E-08  1.15257E-08
   1.23276E-08  1.32002E-08  1.32856E-08  1.38690E-08  1.43475E-08  1.42415E-08  1.24759E-08  1.20105E-08  1.18064E-08  1.21053E-08
   1.24698E-08  1.15311E-08  1.12634E-08  1.09878E-08  9.61957E-09  9.14169E-09  8.59358E-09  8.13352E-09  7.88854E-09  7.73752E-09
   7.34938E-09  7.05093E-09  7.89980E-09  7.55175E-09  7.20191E-09  7.58288E-09  7.26758E-09  6.67257E-09  7.40681E-09  7.16577E-09
   7.28433E-09  7.54063E-09  7.70346E-09  7.90581E-09  8.54198E-09  8.10415E-09  8.23870E-09  8.70598E-09  8.85876E-09  8.28288E-09
   8.79800E-09  8.99246E-09  9.19484E-09  9.02006E-09  9.34647E-09  1.00570E-08  9.86410E-09  9.28054E-09  9.39255E-09  9.54107E-09
   1.04090E-08  1.08671E-08  1.05709E-08  1.03029E-08  1.12729E-08  1.33907E-08  1.40117E-08  1.29028E-08  1.30467E-08  1.31136E-08
   1.34091E-08  1.28486E-08  1.19608E-08  1.25701E-08  1.21074E-08  1.20704E-08  1.18656E-08  9.18658E-09  8.32094E-09  8.30040E-09
   8.12624E-09  7.67346E-09  7.68405E-09  7.98839E-09  7.27915E-09  7.03936E-09  7.32548E-09  6.92045E-09  6.76593E-09  6.97583E-09
   7.27373E-09  6.76746E-09  6.82875E-09  7.44303E-09  7.25042E-09  7.14891E-09  7.19009E-09  7.19919E-09  7.17345E-09  7.25433E-09
   7.21784E-09  6.47070E-09  6.56818E-09  6.73147E-09  6.14606E-09  5.94808E-09  5.86168E-09  5.80889E-09  5.76185E-09  5.74036E-09
   5.71756E-09  5.69038E-09  5.67184E-09  5.65613E-09  5.64160E-09  5.62758E-09  5.61370E-09  5.59966E-09  5.58530E-09  5.57051E-09
   5.55515E-09  5.53915E-09  5.52245E-09  5.50501E-09  5.48678E-09  5.46772E-09  5.44780E-09  5.42701E-09  5.40533E-09  5.38277E-09
   5.35931E-09  5.33497E-09  5.30977E-09  5.28375E-09  5.25691E-09  5.22931E-09  5.20104E-09  5.17216E-09  5.14280E-09  5.11312E-09
   5.08329E-09  5.05358E-09  5.02431E-09  4.99594E-09  4.96909E-09  4.94462E-09  4.92378E-09  4.90839E-09  4.90128E-09  4.90689E-09
   4.93267E-09  4.99210E-09  5.11211E-09  5.35463E-09  5.89558E-09  7.43761E-09  1.37736E-08  1.98892E-08  1.89423E-08  1.76216E-08
   1.83814E-08  1.90930E-08  1.94015E-08  1.95143E-08  1.92951E-08  1.93270E-08  2.11348E-08  1.86104E-08  1.05889E-08  6.02289E-09
   4.72269E-09  4.14882E-09  3.81418E-09  3.58451E-09  3.40937E-09  3.26592E-09  3.14233E-09  3.03197E-09  2.93086E-09  2.83648E-09
   2.74713E-09  2.66171E-09  2.57941E-09  2.49970E-09  2.42213E-09  2.34644E-09  2.27239E-09  2.19986E-09  2.12869E-09  2.05883E-09
   1.99022E-09  1.92282E-09  1.85661E-09  1.79157E-09  1.72771E-09  1.66503E-09  1.60356E-09  1.54329E-09  1.48427E-09  1.42644E-09
   1.36979E-09  1.31428E-09  1.25991E-09  1.20664E-09  1.15445E-09  1.10333E-09  1.05326E-09  1.00422E-09  9.56201E-10  9.09176E-10
   8.63147E-10  8.18086E-10  7.73986E-10  7.30835E-10  6.88616E-10  6.47318E-10  6.06941E-10  5.67452E-10  5.28844E-10  4.91124E-10
   4.54271E-10  4.18268E-10  3.83114E-10  3.48788E-10  3.15289E-10  2.82594E-10  2.50701E-10  2.19606E-10  1.89292E-10  1.59750E-10
   1.30972E-10  1.02949E-10  7.56655E-11  4.91146E-11  2.32900E-11 -1.81982E-12 -2.62305E-11 -4.99555E-11 -7.29787E-11 -9.53220E-11
  -1.17007E-10 -1.38039E-10 -1.58419E-10 -1.78151E-10 -1.97273E-10 -2.15760E-10 -2.33642E-10 -2.50917E-10 -2.67607E-10 -2.83717E-10
  -2.99253E-10 -3.14238E-10 -3.28693E-10 -3.42638E-10 -3.56093E-10 -3.69076E-10 -3.81607E-10 -3.93706E-10 -4.05393E-10 -4.16687E-10
  -4.27607E-10 -4.38174E-10 -4.48406E-10 -4.58324E-10 -4.67946E-10 -4.77293E-10 -4.86384E-10 -4.95237E-10 -5.03875E-10 -5.12314E-10
  -5.20574E-10 -5.28677E-10 -5.36641E-10 -5.44485E-10 -5.52228E-10 -5.59892E-10 -5.67494E-10 -5.75054E-10 -5.82593E-10 -5.90127E-10
  -5.97679E-10 -6.05268E-10 -6.12912E-10 -6.20631E-10 -6.28444E-10 -6.36372E-10 -6.44433E-10 -6.52647E-10 -6.61034E-10 -6.69612E-10
  -6.78402E-10 -6.87423E-10 -6.96693E-10 -7.06233E-10 -7.16062E-10 -7.26200E-10 -7.36665E-10 -7.47479E-10 -7.58659E-10 -7.70225E-10
  -7.82196E-10 -7.94590E-10 -8.07410E-10 -8.20641E-10 -8.34275E-10 -8.48301E-10 -8.62708E-10 -8.77485E-10 -8.92624E-10 -9.08111E-10
  -9.23940E-10 -9.40095E-10 -9.56570E-10 -9.73354E-10 -9.90435E-10 -1.00780E-09 -1.02545E-09 -1.04336E-09 -1.06152E-09 -1.07993E-09
  -1.09858E-09 -1.11745E-09 -1.13653E-09 -1.15582E-09 -1.17530E-09 -1.19496E-09 -1.21480E-09 -1.23479E-09 -1.25494E-09 -1.27523E-09
  -1.29564E-09 -1.31618E-09 -1.33683E-09 -1.35757E-09 -1.37840E-09 -1.39931E-09 -1.42029E-09 -1.44132E-09 -1.46240E-09 -1.48352E-09
  -1.50466E-09 -1.52581E-09 -1.54697E-09 -1.56813E-09 -1.58926E-09 -1.61037E-09 -1.63144E-09 -1.65246E-09 -1.67343E-09 -1.69432E-09
  -1.71514E-09 -1.73587E-09 -1.75649E-09
 NY background values follow
    -4.818E-10   -4.250E-10   -3.681E-10   -3.112E-10   -2.543E-10   -1.974E-10   -1.404E-10   -8.342E-11   -2.644E-11    3.054E-11
     8.750E-11    1.445E-10    2.014E-10    2.583E-10    3.152E-10    3.720E-10    4.288E-10    4.855E-10    5.422E-10    5.988E-10
     6.553E-10    7.118E-10    7.682E-10    8.244E-10    8.806E-10    9.367E-10    9.927E-10    1.049E-09    1.104E-09    1.160E-09
     1.215E-09    1.271E-09    1.326E-09    1.381E-09    1.436E-09    1.491E-09    1.545E-09    1.600E-09    1.654E-09    1.708E-09
     1.762E-09    1.815E-09    1.869E-09    1.922E-09    1.975E-09    2.028E-09    2.080E-09    2.133E-09    2.185E-09    2.236E-09
     2.288E-09    2.339E-09    2.390E-09    2.441E-09    2.491E-09    2.542E-09    2.591E-09    2.641E-09    2.690E-09    2.739E-09
     2.787E-09    2.835E-09    2.883E-09    2.930E-09    2.977E-09    3.023E-09    3.069E-09    3.115E-09    3.160E-09    3.204E-09
     3.248E-09    3.292E-09    3.335E-09    3.377E-09    3.419E-09    3.460E-09    3.501E-09    3.541E-09    3.580E-09    3.619E-09
     3.657E-09    3.695E-09    3.732E-09    3.768E-09    3.804E-09    3.838E-09    3.873E-09    3.906E-09    3.939E-09    3.970E-09
     4.002E-09    4.032E-09    4.061E-09    4.090E-09    4.118E-09    4.145E-09    4.171E-09    4.197E-09    4.221E-09    4.245E-09
     4.267E-09    4.289E-09    4.310E-09    4.330E-09    4.348E-09    4.366E-09    4.383E-09    4.399E-09    4.414E-09    4.428E-09
     4.441E-09    4.453E-09    4.464E-09    4.474E-09    4.482E-09    4.490E-09    4.496E-09    4.502E-09    4.506E-09    4.510E-09
     4.512E-09    4.513E-09    4.512E-09    4.511E-09    4.509E-09    4.505E-09    4.500E-09    4.494E-09    4.487E-09    4.478E-09
     4.468E-09    4.457E-09    4.445E-09    4.432E-09    4.417E-09    4.401E-09    4.384E-09    4.365E-09    4.345E-09    4.324E-09
     4.301E-09    4.277E-09    4.252E-09    4.225E-09    4.197E-09    4.168E-09    4.137E-09    4.104E-09    4.071E-09    4.036E-09
     3.999E-09    3.961E-09    3.922E-09    3.881E-09    3.838E-09    3.794E-09    3.749E-09    3.702E-09    3.654E-09    3.604E-09
     3.553E-09    3.501E-09    3.448E-09    3.393E-09    3.337E-09    3.280E-09    3.223E-09    3.164E-09    3.104E-09    3.044E-09
     2.982E-09    2.920E-09    2.857E-09    2.793E-09    2.729E-09    2.664E-09    2.599E-09    2.533E-09    2.467E-09    2.400E-09
     2.334E-09    2.266E-09    2.199E-09    2.131E-09    2.063E-09    1.995E-09    1.928E-09    1.860E-09    1.792E-09    1.724E-09
     1.656E-09    1.589E-09    1.522E-09    1.455E-09    1.389E-09    1.323E-09    1.257E-09    1.192E-09    1.127E-09    1.063E-09
     9.999E-10    9.373E-10    8.754E-10    8.143E-10    7.541E-10    6.947E-10    6.363E-10    5.789E-10    5.225E-10    4.671E-10
     4.128E-10    3.594E-10    3.071E-10    2.557E-10    2.053E-10    1.559E-10    1.074E-10    5.992E-11    1.335E-11   -3.228E-11
    -7.699E-11   -1.208E-10   -1.637E-10   -2.057E-10   -2.468E-10   -2.870E-10   -3.263E-10   -3.648E-10   -4.024E-10   -4.392E-10
    -4.752E-10   -5.103E-10   -5.446E-10   -5.781E-10   -6.108E-10   -6.427E-10   -6.739E-10   -7.042E-10   -7.338E-10   -7.626E-10
    -7.907E-10   -8.181E-10   -8.447E-10   -8.706E-10   -8.958E-10   -9.203E-10   -9.441E-10   -9.672E-10   -9.896E-10   -1.011E-09
    -1.033E-09   -1.053E-09   -1.073E-09   -1.092E-09   -1.111E-09   -1.129E-09   -1.146E-09   -1.163E-09   -1.179E-09   -1.194E-09
    -1.209E-09   -1.224E-09   -1.238E-09   -1.251E-09   -1.264E-09   -1.277E-09   -1.289E-09   -1.301E-09   -1.312E-09   -1.323E-09
    -1.333E-09   -1.343E-09   -1.353E-09   -1.363E-09   -1.372E-09   -1.381E-09   -1.389E-09   -1.398E-09   -1.406E-09   -1.414E-09
    -1.422E-09   -1.429E-09   -1.437E-09   -1.444E-09   -1.452E-09   -1.459E-09   -1.466E-09   -1.473E-09   -1.481E-09   -1.488E-09
    -1.495E-09   -1.502E-09   -1.509E-09   -1.517E-09   -1.524E-09   -1.532E-09   -1.539E-09   -1.547E-09   -1.555E-09   -1.563E-09
    -1.572E-09   -1.580E-09   -1.589E-09   -1.598E-09   -1.608E-09   -1.617E-09   -1.627E-09   -1.638E-09   -1.649E-09   -1.660E-09
    -1.671E-09   -1.683E-09   -1.696E-09   -1.709E-09   -1.722E-09   -1.736E-09   -1.750E-09   -1.764E-09   -1.779E-09   -1.794E-09
    -1.809E-09   -1.825E-09   -1.841E-09   -1.857E-09   -1.874E-09   -1.891E-09   -1.908E-09   -1.926E-09   -1.944E-09   -1.962E-09
    -1.980E-09   -1.998E-09   -2.017E-09   -2.036E-09   -2.055E-09   -2.074E-09   -2.094E-09   -2.113E-09   -2.133E-09   -2.153E-09
    -2.173E-09   -2.193E-09   -2.213E-09   -2.233E-09   -2.254E-09   -2.274E-09   -2.295E-09   -2.316E-09   -2.336E-09   -2.357E-09
    -2.378E-09   -2.398E-09   -2.419E-09   -2.440E-09   -2.460E-09   -2.481E-09   -2.502E-09   -2.522E-09   -2.543E-09   -2.563E-09
    -2.584E-09   -2.604E-09   -2.624E-09
 Ala      Conc. = 4.01E-10
  -1.50530E-10 -1.52201E-10 -7.26021E-11  2.64044E-11  5.94947E-11  8.76452E-11  1.97638E-10  2.11654E-10  1.63143E-10  2.89479E-10
   3.28051E-10  2.80514E-10  3.43105E-10  3.90663E-10  4.14210E-10  4.52446E-10  4.97626E-10  5.46444E-10  5.97378E-10  6.49656E-10
   7.02816E-10  7.56579E-10  8.10767E-10  8.65245E-10  9.19916E-10  9.74721E-10  1.02960E-09  1.08452E-09  1.13944E-09  1.19435E-09
   1.24921E-09  1.30400E-09  1.35871E-09  1.41333E-09  1.46784E-09  1.52222E-09  1.57647E-09  1.63058E-09  1.68454E-09  1.73832E-09
   1.79195E-09  1.84540E-09  1.89866E-09  1.95172E-09  2.00458E-09  2.05723E-09  2.10967E-09  2.16189E-09  2.21387E-09  2.26560E-09
   2.31711E-09  2.36836E-09  2.41936E-09  2.47009E-09  2.52054E-09  2.57070E-09  2.62056E-09  2.67009E-09  2.71930E-09  2.76816E-09
   2.81667E-09  2.86481E-09  2.91256E-09  2.95992E-09  3.00688E-09  3.05341E-09  3.09952E-09  3.14518E-09  3.19040E-09  3.23514E-09
   3.27941E-09  3.32320E-09  3.36649E-09  3.40928E-09  3.45155E-09  3.49331E-09  3.53454E-09  3.57524E-09  3.61541E-09  3.65505E-09
   3.69415E-09  3.73273E-09  3.77079E-09  3.80834E-09  3.84542E-09  3.88206E-09  3.91830E-09  3.95422E-09  3.98991E-09  4.02550E-09
   4.06121E-09  4.09733E-09  4.13433E-09  4.17295E-09  4.21444E-09  4.26112E-09  4.31760E-09  4.39474E-09  4.52435E-09  4.83621E-09
   5.36024E-09  4.98729E-09  5.15443E-09  5.87029E-09  5.75490E-09  5.71183E-09  5.79653E-09  5.83699E-09  5.85311E-09  5.95684E-09
   5.93726E-09  5.21597E-09  5.33412E-09  5.51433E-09  4.94497E-09  4.76174E-09  4.68656E-09  4.64779E-09  4.62477E-09  4.60959E-09
   4.59857E-09  4.58977E-09  4.58210E-09  4.57486E-09  4.56760E-09  4.56003E-09  4.55193E-09  4.54316E-09  4.53357E-09  4.52310E-09
   4.51166E-09  4.49921E-09  4.48569E-09  4.47106E-09  4.45529E-09  4.43835E-09  4.42022E-09  4.40087E-09  4.38028E-09  4.35844E-09
   4.33532E-09  4.31091E-09  4.28520E-09  4.25817E-09  4.22980E-09  4.20009E-09  4.16903E-09  4.13661E-09  4.10281E-09  4.06763E-09
   4.03106E-09  3.99311E-09  3.95377E-09  3.91304E-09  3.87093E-09  3.82745E-09  3.78267E-09  3.73663E-09  3.68951E-09  3.64148E-09
   3.59283E-09  3.54405E-09  3.49604E-09  3.45078E-09  3.41348E-09  3.40284E-09  3.52325E-09  3.89279E-09  3.66349E-09  3.55240E-09
   3.54939E-09  3.51320E-09  3.46408E-09  3.40813E-09  3.34232E-09  3.26492E-09  3.26640E-09  3.25199E-09  2.70200E-09  2.51831E-09
   2.41386E-09  2.32945E-09  2.25241E-09  2.17875E-09  2.10686E-09  2.03606E-09  1.96593E-09  1.89630E-09  1.82709E-09  1.75824E-09
   1.68973E-09  1.62159E-09  1.55379E-09  1.48641E-09  1.41945E-09  1.35295E-09  1.28694E-09  1.22149E-09  1.15661E-09  1.09237E-09
   1.02880E-09  9.65942E-10  9.03856E-10  8.42578E-10  7.82159E-10  7.22639E-10  6.64092E-10  6.06520E-10  5.49999E-10  4.94503E-10
   4.40032E-10  3.86571E-10  3.34115E-10  2.82649E-10  2.32168E-10  1.82656E-10  1.34114E-10  8.65279E-11  3.98834E-11 -5.82647E-12
  -5.06002E-11 -9.44593E-11 -1.37410E-10 -1.79458E-10 -2.20617E-10 -2.60894E-10 -3.00287E-10 -3.38828E-10 -3.76520E-10 -4.13354E-10
  -4.49350E-10 -4.84522E-10 -5.18869E-10 -5.52413E-10 -5.85150E-10 -6.17103E-10 -6.48273E-10 -6.78664E-10 -7.08292E-10 -7.37162E-10
  -7.65286E-10 -7.92669E-10 -8.19324E-10 -8.45261E-10 -8.70483E-10 -8.95002E-10 -9.18833E-10 -9.41989E-10 -9.64453E-10 -9.86247E-10
  -1.00739E-09 -1.02789E-09 -1.04775E-09 -1.06696E-09 -1.08557E-09 -1.10356E-09 -1.12095E-09 -1.13773E-09 -1.15394E-09 -1.16957E-09
  -1.18463E-09 -1.19915E-09 -1.21315E-09 -1.22664E-09 -1.23964E-09 -1.25217E-09 -1.26426E-09 -1.27592E-09 -1.28717E-09 -1.29803E-09
  -1.30852E-09 -1.31867E-09 -1.32848E-09 -1.33797E-09 -1.34718E-09 -1.35611E-09 -1.36479E-09 -1.37324E-09 -1.38147E-09 -1.38950E-09
  -1.39736E-09 -1.40507E-09 -1.41263E-09 -1.42008E-09 -1.42743E-09 -1.43470E-09 -1.44191E-09 -1.44908E-09 -1.45623E-09 -1.46337E-09
  -1.47054E-09 -1.47774E-09 -1.48500E-09 -1.49234E-09 -1.49977E-09 -1.50731E-09 -1.51499E-09 -1.52283E-09 -1.53083E-09 -1.53903E-09
  -1.54744E-09 -1.55608E-09 -1.56498E-09 -1.57414E-09 -1.58359E-09 -1.59335E-09 -1.60344E-09 -1.61387E-09 -1.62468E-09 -1.63586E-09
  -1.64746E-09 -1.65947E-09 -1.67192E-09 -1.68477E-09 -1.69802E-09 -1.71167E-09 -1.72570E-09 -1.74009E-09 -1.75485E-09 -1.76996E-09
  -1.78541E-09 -1.80118E-09 -1.81727E-09 -1.83367E-09 -1.85037E-09 -1.86735E-09 -1.88461E-09 -1.90213E-09 -1.91991E-09 -1.93793E-09
  -1.95619E-09 -1.97467E-09 -1.99336E-09 -2.01225E-09 -2.03134E-09 -2.05060E-09 -2.07004E-09 -2.08964E-09 -2.10939E-09 -2.12927E-09
  -2.14929E-09 -2.16942E-09 -2.18966E-09 -2.21000E-09 -2.23042E-09 -2.25092E-09 -2.27149E-09 -2.29211E-09 -2.31277E-09 -2.33347E-09
  -2.35419E-09 -2.37492E-09 -2.39566E-09 -2.41639E-09 -2.43710E-09 -2.45778E-09 -2.47842E-09 -2.49901E-09 -2.51954E-09 -2.54000E-09
  -2.56038E-09 -2.58066E-09 -2.60084E-09
 Asp      Conc. = 1.51E-09
   1.20127E-09  8.70378E-10  9.17767E-10  6.64716E-10  6.45485E-10  6.09916E-10  4.42576E-10  2.71537E-10  2.31563E-10  2.37287E-10
   2.63545E-10  2.99863E-10  3.40949E-10  3.92134E-10  4.44421E-10  4.97511E-10  5.51708E-10  6.06917E-10  6.62988E-10  7.19835E-10
   7.77384E-10  8.35612E-10  8.94533E-10  9.54183E-10  1.01463E-09  1.07601E-09  1.13850E-09  1.20236E-09  1.26796E-09  1.33585E-09
   1.40689E-09  1.48238E-09  1.56465E-09  1.65808E-09  1.77246E-09  1.93483E-09  2.19073E-09  2.20839E-09  2.40720E-09  2.36499E-09
   2.42780E-09  2.60017E-09  2.97858E-09  3.32284E-09  3.87687E-09  4.21559E-09  3.89027E-09  3.77415E-09  4.53167E-09  4.31632E-09
   4.31029E-09  4.65481E-09  4.74879E-09  4.58336E-09  4.64542E-09  4.42408E-09  3.72134E-09  3.75215E-09  4.10914E-09  3.66577E-09
   3.53524E-09  3.59731E-09  3.41999E-09  3.36378E-09  3.48621E-09  3.59749E-09  3.49401E-09  3.45766E-09  3.45196E-09  3.46137E-09
   3.47937E-09  3.50270E-09  3.52954E-09  3.55875E-09  3.58960E-09  3.62157E-09  3.65429E-09  3.68749E-09  3.72096E-09  3.75452E-09
   3.78805E-09  3.82144E-09  3.85461E-09  3.88747E-09  3.91996E-09  3.95203E-09  3.98363E-09  4.01472E-09  4.04525E-09  4.07519E-09
   4.10451E-09  4.13318E-09  4.16118E-09  4.18847E-09  4.21504E-09  4.24086E-09  4.26591E-09  4.29017E-09  4.31361E-09  4.33623E-09
   4.35799E-09  4.37890E-09  4.39891E-09  4.41803E-09  4.43623E-09  4.45350E-09  4.46982E-09  4.48518E-09  4.49958E-09  4.51299E-09
   4.52540E-09  4.53681E-09  4.54720E-09  4.55656E-09  4.56487E-09  4.57213E-09  4.57833E-09  4.58345E-09  4.58747E-09  4.59040E-09
   4.59222E-09  4.59292E-09  4.59249E-09  4.59091E-09  4.58818E-09  4.58428E-09  4.57921E-09  4.57296E-09  4.56551E-09  4.55685E-09
   4.54698E-09  4.53588E-09  4.52355E-09  4.50997E-09  4.49514E-09  4.47904E-09  4.46167E-09  4.44302E-09  4.42308E-09  4.40185E-09
   4.37930E-09  4.35545E-09  4.33028E-09  4.30379E-09  4.27597E-09  4.24682E-09  4.21635E-09  4.18454E-09  4.15142E-09  4.11698E-09
   4.08124E-09  4.04423E-09  4.00599E-09  3.96654E-09  3.92596E-09  3.88435E-09  3.84188E-09  3.79879E-09  3.75549E-09  3.71259E-09
   3.67108E-09  3.63272E-09  3.60096E-09  3.58351E-09  3.60131E-09  3.73048E-09  4.40039E-09  5.82435E-09  5.14987E-09  4.92634E-09
   5.07784E-09  5.11032E-09  5.09823E-09  5.06252E-09  4.98885E-09  4.88800E-09  5.08568E-09  5.10242E-09  3.29910E-09  2.81438E-09
   2.60983E-09  2.47878E-09  2.37554E-09  2.28536E-09  2.20223E-09  2.12335E-09  2.04718E-09  1.97287E-09  1.89996E-09  1.82812E-09
   1.75714E-09  1.68694E-09  1.61740E-09  1.54853E-09  1.48028E-09  1.41266E-09  1.34567E-09  1.27935E-09  1.21369E-09  1.14876E-09
   1.08456E-09  1.02115E-09  9.58553E-10  8.96809E-10  8.35964E-10  7.76054E-10  7.17146E-10  6.59242E-10  6.02414E-10  5.46633E-10
   4.91895E-10  4.38185E-10  3.85497E-10  3.33812E-10  2.83127E-10  2.33423E-10  1.84698E-10  1.36941E-10  9.01345E-11  4.42708E-11
  -6.49550E-13 -4.46480E-11 -8.77313E-11 -1.29906E-10 -1.71186E-10 -2.11579E-10 -2.51083E-10 -2.89730E-10 -3.27524E-10 -3.64455E-10
