 LCModel (Version 6.3-1R) Copyright: S.W. Provencher.          Ref.: Magn. Reson. Med. 30:672-679 (1993).                
 onepulse 18x11_ftSpec_smooth_lcm
 26 lines in following concentration table = NCONC+1
    Conc.  %SD /Cr+PCr  Metabolite                                         
    0.000 999%   0.000 Ala                                                 
    0.000 999%   0.000 Asp                                                 
 3.89E-10  52%   1.000 Cr                                                  
    0.000 999%   0.000 GABA                                                
    0.000 999%   0.000 Glc                                                 
 3.30E-09  15%   8.479 Gln                                                 
    0.000 999%   0.000 Glu                                                 
 1.01E-09  33%   2.595 Glyc                                                
 1.91E-10  49%   0.491 GPC                                                 
    0.000 999%   0.000 GSH                                                 
    0.000 999%   0.000 Ins                                                 
    0.000 999%   0.000 Lac                                                 
 2.28E-10 115%   0.587 NAAG                                                
 1.54E-10 215%   0.396 NAA                                                 
    0.000 999%   0.000 PCh                                                 
    0.000 999%   0.000 PCr                                                 
    0.000 999%   0.000 PE                                                  
 9.74E-11 222%   0.250 Scyllo                                              
 1.40E-09  34%   3.590 Ser                                                 
 9.47E-10  64%   2.432 Tau                                                 
 1.91E-10  49%   0.491 GPC+PCh                                             
 3.83E-10  57%   0.982 NAA+NAAG                                            
 1.01E-09  33%   2.595 Ins+Glyc                                            
 3.89E-10  52%   1.000 Cr+PCr                                              
 3.30E-09  15%   8.479 Glu+Gln                                             
   6 lines in following misc. output table
  FWHM = 0.089 ppm    S/N =   3                                            
  Data shift = 0.358 ppm                                                   
  Ph: -44 deg     -37.6 deg/ppm                                            
  alphaB,S = 3.7E-01,   2.6E+01                                            
   11 spline knots.   Ns = 5(1)                                            
  ( 9) 4 infls.   ( 7) 1 extrs.                                            
  363 points on ppm-axis = NY
      4.250000     4.238821     4.227641     4.216462     4.205282     4.194103     4.182923     4.171744     4.160564     4.149385
      4.138206     4.127026     4.115847     4.104667     4.093488     4.082308     4.071129     4.059949     4.048770     4.037591
      4.026411     4.015232     4.004052     3.992873     3.981693     3.970514     3.959334     3.948155     3.936975     3.925796
      3.914617     3.903437     3.892258     3.881078     3.869899     3.858719     3.847540     3.836360     3.825181     3.814002
      3.802822     3.791643     3.780463     3.769284     3.758104     3.746925     3.735745     3.724566     3.713387     3.702207
      3.691028     3.679848     3.668669     3.657489     3.646310     3.635130     3.623951     3.612772     3.601592     3.590413
      3.579233     3.568054     3.556874     3.545695     3.534515     3.523336     3.512156     3.500977     3.489798     3.478618
      3.467439     3.456259     3.445080     3.433900     3.422721     3.411541     3.400362     3.389183     3.378003     3.366824
      3.355644     3.344465     3.333285     3.322106     3.310926     3.299747     3.288568     3.277388     3.266209     3.255029
      3.243850     3.232670     3.221491     3.210311     3.199132     3.187953     3.176773     3.165594     3.154414     3.143235
      3.132055     3.120876     3.109696     3.098517     3.087337     3.076158     3.064979     3.053799     3.042620     3.031440
      3.020261     3.009081     2.997902     2.986722     2.975543     2.964364     2.953184     2.942005     2.930825     2.919646
      2.908466     2.897287     2.886107     2.874928     2.863749     2.852569     2.841390     2.830210     2.819031     2.807851
      2.796672     2.785492     2.774313     2.763134     2.751954     2.740775     2.729595     2.718416     2.707236     2.696057
      2.684877     2.673698     2.662519     2.651339     2.640160     2.628980     2.617801     2.606621     2.595442     2.584262
      2.573083     2.561903     2.550724     2.539545     2.528365     2.517186     2.506006     2.494827     2.483647     2.472468
      2.461288     2.450109     2.438930     2.427750     2.416571     2.405391     2.394212     2.383032     2.371853     2.360673
      2.349494     2.338315     2.327135     2.315956     2.304776     2.293597     2.282417     2.271238     2.260058     2.248879
      2.237700     2.226520     2.215341     2.204161     2.192982     2.181802     2.170623     2.159443     2.148264     2.137084
      2.125905     2.114726     2.103546     2.092367     2.081187     2.070008     2.058828     2.047649     2.036469     2.025290
      2.014111     2.002931     1.991752     1.980572     1.969393     1.958213     1.947034     1.935854     1.924675     1.913496
      1.902316     1.891137     1.879957     1.868778     1.857598     1.846419     1.835239     1.824060     1.812881     1.801701
      1.790522     1.779342     1.768163     1.756983     1.745804     1.734624     1.723445     1.712265     1.701086     1.689907
      1.678727     1.667548     1.656368     1.645189     1.634009     1.622830     1.611650     1.600471     1.589292     1.578112
      1.566933     1.555753     1.544574     1.533394     1.522215     1.511035     1.499856     1.488677     1.477497     1.466318
      1.455138     1.443959     1.432779     1.421600     1.410420     1.399241     1.388062     1.376882     1.365703     1.354523
      1.343344     1.332164     1.320985     1.309805     1.298626     1.287446     1.276267     1.265088     1.253908     1.242729
      1.231549     1.220370     1.209190     1.198011     1.186831     1.175652     1.164473     1.153293     1.142114     1.130934
      1.119755     1.108575     1.097396     1.086216     1.075037     1.063858     1.052678     1.041499     1.030319     1.019140
      1.007960     0.996781     0.985601     0.974422     0.963243     0.952063     0.940884     0.929704     0.918525     0.907345
      0.896166     0.884986     0.873807     0.862628     0.851448     0.840269     0.829089     0.817910     0.806730     0.795551
      0.784371     0.773192     0.762012     0.750833     0.739654     0.728474     0.717295     0.706115     0.694936     0.683756
      0.672577     0.661397     0.650218     0.639039     0.627859     0.616680     0.605500     0.594321     0.583141     0.571962
      0.560782     0.549603     0.538424     0.527244     0.516065     0.504885     0.493706     0.482526     0.471347     0.460167
      0.448988     0.437809     0.426629     0.415450     0.404270     0.393091     0.381911     0.370732     0.359552     0.348373
      0.337193     0.326014     0.314835     0.303655     0.292476     0.281296     0.270117     0.258937     0.247758     0.236578
      0.225399     0.214220     0.203040
 NY phased data points follow
   1.37069E-08  1.17971E-08  9.68678E-09  8.78093E-09  8.27600E-09  7.44352E-09  8.13545E-09  7.79949E-09  9.11337E-09  8.69011E-09
   9.67803E-09  9.49115E-09  9.20161E-09  9.28852E-09  9.84794E-09  9.11498E-09  8.45736E-09  7.98525E-09  8.39487E-09  7.42233E-09
   8.37267E-09  8.35946E-09  8.48811E-09  8.19386E-09  8.86032E-09  8.80639E-09  8.45731E-09  7.68577E-09  7.82093E-09  8.55937E-09
   1.04986E-08  1.06199E-08  9.84679E-09  8.87555E-09  7.50553E-09  5.81627E-09  5.18144E-09  4.60488E-09  5.20476E-09  4.70516E-09
   4.64911E-09  4.81212E-09  4.77495E-09  4.10308E-09  3.97475E-09  3.59903E-09  3.58141E-09  3.86995E-09  4.46944E-09  4.07394E-09
   4.51752E-09  4.76298E-09  4.53660E-09  4.09167E-09  4.15652E-09  3.64864E-09  4.65268E-09  5.37939E-09  6.51144E-09  7.19816E-09
   8.47283E-09  1.08129E-08  1.28564E-08  1.34392E-08  1.26762E-08  9.74743E-09  8.04583E-09  6.66686E-09  5.74168E-09  5.73219E-09
   5.40942E-09  4.77826E-09  4.49378E-09  4.15050E-09  5.11529E-09  5.51597E-09  6.20991E-09  8.26110E-09  1.11228E-08  1.47836E-08
   1.51572E-08  1.32698E-08  1.17013E-08  1.09297E-08  9.15398E-09  9.27533E-09  7.97793E-09  7.54995E-09  7.10058E-09  6.87407E-09
   6.14983E-09  5.95699E-09  5.40821E-09  4.84370E-09  4.23514E-09  4.47710E-09  3.59380E-09  4.15378E-09  3.91681E-09  3.57400E-09
   3.46299E-09  4.33225E-09  4.08304E-09  3.68080E-09  2.76200E-09  3.86281E-09  2.95993E-09  3.04601E-09  2.71407E-09  2.15050E-09
   1.59841E-09  1.50417E-09  2.53954E-09  3.35219E-09  2.88293E-09  2.74944E-09  3.67085E-09  3.91139E-09  3.51515E-09  4.08497E-09
   4.14001E-09  4.45679E-09  3.13930E-09  2.78157E-09  2.58815E-09  2.29271E-09  1.81333E-09  2.89653E-09  3.18878E-09  2.58661E-09
   3.16813E-09  3.40816E-09  3.10496E-09  3.81708E-09  3.20688E-09  3.53177E-09  3.10739E-09  3.51483E-09  3.41912E-09  5.35835E-09
   5.45015E-09  6.28887E-09  5.69192E-09  5.14020E-09  5.05143E-09  6.08933E-09  6.05796E-09  6.36269E-09  6.21516E-09  5.78416E-09
   5.13783E-09  5.32814E-09  4.68588E-09  4.62838E-09  4.28694E-09  5.10827E-09  4.71134E-09  4.60214E-09  4.05114E-09  4.51344E-09
   4.00283E-09  4.51374E-09  4.64377E-09  4.46264E-09  3.48905E-09  4.24419E-09  3.40158E-09  5.09946E-09  4.46117E-09  6.67735E-09
   1.19215E-08  1.65111E-08  1.72356E-08  1.64344E-08  1.47570E-08  1.42143E-08  1.30532E-08  1.13602E-08  1.00259E-08  9.50508E-09
   8.87224E-09  7.91163E-09  7.00930E-09  6.13527E-09  4.24410E-09  3.83215E-09  2.30403E-09  1.36164E-09 -6.04443E-10 -1.98556E-09
  -3.60553E-09 -4.74144E-09 -6.12826E-09 -7.25540E-09 -8.75027E-09 -9.81373E-09 -1.05174E-08 -1.12513E-08 -1.21480E-08 -1.15553E-08
  -1.17117E-08 -1.10495E-08 -1.11391E-08 -9.63366E-09 -9.10754E-09 -8.01715E-09 -7.46885E-09 -6.40876E-09 -5.41664E-09 -4.09812E-09
  -3.29270E-09 -2.57173E-09 -3.03754E-09 -2.08885E-09 -2.71944E-09 -2.11462E-09 -2.58435E-09 -2.18671E-09 -2.33339E-09 -2.52052E-09
  -2.72426E-09 -2.06374E-09 -1.88481E-09 -1.64276E-09 -1.06734E-09 -1.10779E-09 -1.97480E-09 -1.79318E-09 -2.11825E-09 -1.55819E-09
  -1.77014E-09 -1.81849E-09 -1.28579E-09 -1.61780E-09 -2.21265E-09 -9.33078E-10 -1.41137E-09 -1.11365E-09 -1.04608E-09 -1.56906E-09
  -1.87927E-09 -1.28737E-09 -1.64918E-09 -1.77558E-09 -2.38278E-09 -1.71639E-09 -1.91073E-09 -1.10157E-09 -1.86540E-09 -1.35560E-09
  -1.10417E-09 -8.31819E-10 -7.62749E-10 -6.40540E-10 -7.22082E-10 -4.58646E-10 -6.49079E-10 -2.30536E-10 -1.04692E-09 -4.55080E-10
  -2.03627E-09 -1.68018E-09 -2.02079E-09 -2.20561E-09 -2.63935E-09 -2.59868E-09 -2.80035E-09 -2.94018E-09 -2.46938E-09 -2.29492E-09
  -2.20918E-09 -1.80324E-09 -1.33376E-09 -1.23571E-09 -3.59060E-10 -8.25985E-10 -2.92130E-10 -3.24489E-10 -4.42804E-10 -3.31186E-10
  -3.09002E-10  1.24259E-10 -2.45232E-10 -5.75372E-10 -5.13721E-10 -3.38451E-10 -4.88131E-10 -4.89090E-10 -1.22600E-09 -6.29811E-10
  -6.86088E-10 -1.45609E-09 -1.37792E-09 -8.16194E-10 -9.21019E-10 -1.44030E-09 -8.18013E-10 -1.40892E-09 -1.47507E-09 -1.63352E-09
  -1.93433E-09 -1.70509E-09 -2.30153E-09 -1.88115E-09 -2.07620E-09 -2.24669E-09 -2.20223E-09 -2.03669E-09 -2.46671E-09 -2.32651E-09
  -2.24854E-09 -2.38412E-09 -2.94915E-09 -2.23203E-09 -2.84105E-09 -2.86896E-09 -2.72060E-09 -2.78112E-09 -2.84702E-09 -2.76513E-09
  -2.87139E-09 -3.20279E-09 -2.80249E-09 -3.10729E-09 -3.37847E-09 -2.78043E-09 -3.28061E-09 -2.93690E-09 -3.28996E-09 -3.24021E-09
  -2.77461E-09 -3.47303E-09 -3.30946E-09 -3.17303E-09 -3.43814E-09 -3.32970E-09 -3.07494E-09 -3.41669E-09 -3.73324E-09 -3.27687E-09
  -3.25817E-09 -3.68877E-09 -3.62149E-09 -3.67692E-09 -3.51602E-09 -3.79200E-09 -3.47498E-09 -3.95777E-09 -3.96339E-09 -3.76180E-09
  -3.51279E-09 -4.23250E-09 -3.41863E-09 -3.87757E-09 -3.50909E-09 -3.97646E-09 -3.62162E-09 -4.25463E-09 -3.67547E-09 -3.94954E-09
  -3.45279E-09 -3.88649E-09 -3.66820E-09
 NY points of the fit to the data follow
   1.17090E-08  1.09509E-08  1.00317E-08  9.61117E-09  9.62121E-09  9.47624E-09  9.13311E-09  8.72383E-09  8.55456E-09  8.63387E-09
   8.68236E-09  8.80854E-09  9.28955E-09  9.17109E-09  9.01395E-09  8.93102E-09  9.05184E-09  9.08618E-09  8.58121E-09  7.55912E-09
   7.32561E-09  7.42929E-09  7.56728E-09  7.82833E-09  8.16898E-09  8.64138E-09  9.39851E-09  9.87274E-09  1.00220E-08  9.83419E-09
   9.46005E-09  8.95708E-09  8.43996E-09  7.48045E-09  6.42760E-09  5.84019E-09  5.72124E-09  5.62787E-09  5.50838E-09  5.41111E-09
   5.25464E-09  4.82572E-09  4.07516E-09  3.52290E-09  3.43037E-09  3.43548E-09  3.47193E-09  3.51947E-09  3.58312E-09  3.66272E-09
   3.76473E-09  3.89441E-09  4.06965E-09  4.28892E-09  4.62972E-09  5.15060E-09  5.80905E-09  6.68942E-09  7.76123E-09  8.72709E-09
   9.60630E-09  1.04703E-08  1.10916E-08  1.12434E-08  1.08507E-08  9.98543E-09  9.05042E-09  8.36068E-09  7.16857E-09  5.88490E-09
   5.47841E-09  5.43281E-09  5.34416E-09  5.65584E-09  6.31638E-09  7.22051E-09  8.17065E-09  9.24715E-09  1.04213E-08  1.14917E-08
   1.22796E-08  1.25651E-08  1.21251E-08  1.15567E-08  1.10050E-08  9.81443E-09  8.26751E-09  7.10772E-09  6.01868E-09  5.30684E-09
   4.91894E-09  4.67781E-09  4.50981E-09  4.38837E-09  4.28850E-09  4.21128E-09  4.15532E-09  4.11169E-09  4.07290E-09  4.03611E-09
   4.01393E-09  4.00009E-09  3.98576E-09  3.97273E-09  3.96390E-09  3.95828E-09  3.95450E-09  3.95199E-09  3.95011E-09  3.94868E-09
   3.94743E-09  3.94612E-09  3.94454E-09  3.94247E-09  3.93975E-09  3.93623E-09  3.93176E-09  3.92620E-09  3.91943E-09  3.91133E-09
   3.90178E-09  3.89068E-09  3.87794E-09  3.86344E-09  3.84710E-09  3.82882E-09  3.80852E-09  3.78611E-09  3.76150E-09  3.73460E-09
   3.70535E-09  3.67367E-09  3.63947E-09  3.60268E-09  3.56322E-09  3.52103E-09  3.47602E-09  3.42820E-09  3.37763E-09  3.32443E-09
   3.26868E-09  3.21050E-09  3.14999E-09  3.08726E-09  3.02243E-09  2.95562E-09  2.88696E-09  2.81659E-09  2.74464E-09  2.67130E-09
   2.59673E-09  2.52113E-09  2.44474E-09  2.36784E-09  2.29075E-09  2.21389E-09  2.13778E-09  2.06308E-09  1.99073E-09  1.92203E-09
   1.85890E-09  1.80431E-09  1.76319E-09  1.74446E-09  1.76632E-09  1.87450E-09  2.23490E-09  3.40775E-09  5.32570E-09  8.28403E-09
   1.20444E-08  1.52925E-08  1.69008E-08  1.70303E-08  1.65807E-08  1.59634E-08  1.42733E-08  1.02164E-08  4.52051E-09  1.74845E-09
   8.65611E-10  4.25245E-10  1.43092E-10 -6.52011E-11 -2.33084E-10 -3.76364E-10 -5.03424E-10 -6.19121E-10 -7.26406E-10 -8.27204E-10
  -9.22775E-10 -1.01401E-09 -1.10151E-09 -1.18573E-09 -1.26699E-09 -1.34552E-09 -1.42150E-09 -1.49505E-09 -1.56627E-09 -1.63524E-09
  -1.70199E-09 -1.76656E-09 -1.82898E-09 -1.88924E-09 -1.94737E-09 -2.00336E-09 -2.05720E-09 -2.10888E-09 -2.15839E-09 -2.20569E-09
  -2.25079E-09 -2.29365E-09 -2.33425E-09 -2.37258E-09 -2.40858E-09 -2.44225E-09 -2.47355E-09 -2.50247E-09 -2.52895E-09 -2.55297E-09
  -2.57452E-09 -2.59354E-09 -2.61001E-09 -2.62391E-09 -2.63519E-09 -2.64381E-09 -2.64977E-09 -2.65303E-09 -2.65363E-09 -2.65170E-09
  -2.64734E-09 -2.64064E-09 -2.63172E-09 -2.62067E-09 -2.60760E-09 -2.59260E-09 -2.57580E-09 -2.55728E-09 -2.53716E-09 -2.51553E-09
  -2.49250E-09 -2.46817E-09 -2.44263E-09 -2.41601E-09 -2.38839E-09 -2.35989E-09 -2.33059E-09 -2.30062E-09 -2.27006E-09 -2.23902E-09
  -2.20760E-09 -2.17591E-09 -2.14405E-09 -2.11212E-09 -2.08023E-09 -2.04847E-09 -2.01695E-09 -1.98576E-09 -1.95502E-09 -1.92483E-09
  -1.89528E-09 -1.86648E-09 -1.83854E-09 -1.81155E-09 -1.78561E-09 -1.76084E-09 -1.73733E-09 -1.71517E-09 -1.69449E-09 -1.67537E-09
  -1.65793E-09 -1.64225E-09 -1.62845E-09 -1.61655E-09 -1.60652E-09 -1.59832E-09 -1.59192E-09 -1.58728E-09 -1.58434E-09 -1.58309E-09
  -1.58349E-09 -1.58548E-09 -1.58905E-09 -1.59414E-09 -1.60073E-09 -1.60876E-09 -1.61822E-09 -1.62905E-09 -1.64122E-09 -1.65470E-09
  -1.66944E-09 -1.68540E-09 -1.70255E-09 -1.72086E-09 -1.74028E-09 -1.76077E-09 -1.78230E-09 -1.80483E-09 -1.82833E-09 -1.85275E-09
  -1.87805E-09 -1.90420E-09 -1.93116E-09 -1.95890E-09 -1.98737E-09 -2.01654E-09 -2.04636E-09 -2.07681E-09 -2.10783E-09 -2.13942E-09
  -2.17150E-09 -2.20405E-09 -2.23703E-09 -2.27043E-09 -2.30416E-09 -2.33821E-09 -2.37255E-09 -2.40712E-09 -2.44191E-09 -2.47691E-09
  -2.51211E-09 -2.54750E-09 -2.58307E-09 -2.61882E-09 -2.65473E-09 -2.69081E-09 -2.72704E-09 -2.76342E-09 -2.79994E-09 -2.83659E-09
  -2.87336E-09 -2.91025E-09 -2.94725E-09 -2.98436E-09 -3.02155E-09 -3.05884E-09 -3.09621E-09 -3.13365E-09 -3.17115E-09 -3.20871E-09
  -3.24633E-09 -3.28398E-09 -3.32168E-09 -3.35940E-09 -3.39714E-09 -3.43490E-09 -3.47267E-09 -3.51043E-09 -3.54819E-09 -3.58593E-09
  -3.62364E-09 -3.66133E-09 -3.69898E-09 -3.73659E-09 -3.77415E-09 -3.81164E-09 -3.84907E-09 -3.88643E-09 -3.92369E-09 -3.96088E-09
  -3.99796E-09 -4.03495E-09 -4.07181E-09
 NY background values follow
     8.593E-10    8.824E-10    9.056E-10    9.287E-10    9.519E-10    9.752E-10    9.984E-10    1.022E-09    1.045E-09    1.068E-09
     1.091E-09    1.115E-09    1.138E-09    1.161E-09    1.184E-09    1.208E-09    1.231E-09    1.254E-09    1.277E-09    1.300E-09
     1.323E-09    1.346E-09    1.369E-09    1.392E-09    1.415E-09    1.438E-09    1.460E-09    1.483E-09    1.505E-09    1.528E-09
     1.550E-09    1.573E-09    1.595E-09    1.617E-09    1.639E-09    1.661E-09    1.683E-09    1.704E-09    1.726E-09    1.747E-09
     1.769E-09    1.790E-09    1.811E-09    1.832E-09    1.853E-09    1.873E-09    1.894E-09    1.914E-09    1.934E-09    1.954E-09
     1.974E-09    1.994E-09    2.014E-09    2.034E-09    2.053E-09    2.072E-09    2.092E-09    2.111E-09    2.130E-09    2.149E-09
     2.168E-09    2.187E-09    2.206E-09    2.225E-09    2.244E-09    2.263E-09    2.282E-09    2.301E-09    2.320E-09    2.339E-09
     2.358E-09    2.377E-09    2.395E-09    2.414E-09    2.433E-09    2.453E-09    2.472E-09    2.491E-09    2.510E-09    2.529E-09
     2.549E-09    2.568E-09    2.588E-09    2.608E-09    2.627E-09    2.647E-09    2.667E-09    2.687E-09    2.708E-09    2.728E-09
     2.749E-09    2.770E-09    2.791E-09    2.811E-09    2.832E-09    2.853E-09    2.874E-09    2.894E-09    2.915E-09    2.934E-09
     2.954E-09    2.973E-09    2.991E-09    3.008E-09    3.025E-09    3.041E-09    3.057E-09    3.071E-09    3.084E-09    3.096E-09
     3.107E-09    3.117E-09    3.126E-09    3.133E-09    3.139E-09    3.143E-09    3.145E-09    3.146E-09    3.146E-09    3.143E-09
     3.139E-09    3.132E-09    3.124E-09    3.114E-09    3.101E-09    3.087E-09    3.070E-09    3.050E-09    3.028E-09    3.004E-09
     2.977E-09    2.948E-09    2.915E-09    2.880E-09    2.843E-09    2.802E-09    2.758E-09    2.711E-09    2.661E-09    2.609E-09
     2.554E-09    2.496E-09    2.435E-09    2.372E-09    2.307E-09    2.239E-09    2.169E-09    2.097E-09    2.023E-09    1.947E-09
     1.869E-09    1.790E-09    1.708E-09    1.626E-09    1.542E-09    1.456E-09    1.369E-09    1.281E-09    1.192E-09    1.102E-09
     1.010E-09    9.185E-10    8.258E-10    7.325E-10    6.386E-10    5.443E-10    4.496E-10    3.546E-10    2.594E-10    1.641E-10
     6.880E-11   -2.641E-11   -1.214E-10   -2.162E-10   -3.106E-10   -4.045E-10   -4.979E-10   -5.907E-10   -6.827E-10   -7.739E-10
    -8.642E-10   -9.536E-10   -1.042E-09   -1.129E-09   -1.215E-09   -1.300E-09   -1.383E-09   -1.465E-09   -1.546E-09   -1.626E-09
    -1.704E-09   -1.781E-09   -1.856E-09   -1.930E-09   -2.002E-09   -2.073E-09   -2.142E-09   -2.210E-09   -2.276E-09   -2.340E-09
    -2.403E-09   -2.463E-09   -2.522E-09   -2.579E-09   -2.635E-09   -2.688E-09   -2.739E-09   -2.789E-09   -2.836E-09   -2.882E-09
    -2.925E-09   -2.966E-09   -3.005E-09   -3.042E-09   -3.076E-09   -3.109E-09   -3.139E-09   -3.167E-09   -3.192E-09   -3.215E-09
    -3.235E-09   -3.253E-09   -3.269E-09   -3.282E-09   -3.292E-09   -3.300E-09   -3.305E-09   -3.308E-09   -3.308E-09   -3.305E-09
    -3.300E-09   -3.293E-09   -3.283E-09   -3.271E-09   -3.258E-09   -3.242E-09   -3.225E-09   -3.206E-09   -3.185E-09   -3.163E-09
    -3.139E-09   -3.114E-09   -3.088E-09   -3.061E-09   -3.033E-09   -3.004E-09   -2.974E-09   -2.944E-09   -2.913E-09   -2.882E-09
    -2.850E-09   -2.818E-09   -2.785E-09   -2.753E-09   -2.721E-09   -2.689E-09   -2.657E-09   -2.625E-09   -2.594E-09   -2.563E-09
    -2.534E-09   -2.504E-09   -2.476E-09   -2.449E-09   -2.422E-09   -2.397E-09   -2.374E-09   -2.351E-09   -2.330E-09   -2.311E-09
    -2.293E-09   -2.277E-09   -2.263E-09   -2.250E-09   -2.240E-09   -2.232E-09   -2.225E-09   -2.220E-09   -2.217E-09   -2.215E-09
    -2.215E-09   -2.217E-09   -2.220E-09   -2.225E-09   -2.231E-09   -2.239E-09   -2.248E-09   -2.259E-09   -2.271E-09   -2.284E-09
    -2.298E-09   -2.314E-09   -2.331E-09   -2.349E-09   -2.368E-09   -2.388E-09   -2.409E-09   -2.432E-09   -2.455E-09   -2.479E-09
    -2.504E-09   -2.530E-09   -2.557E-09   -2.584E-09   -2.612E-09   -2.641E-09   -2.671E-09   -2.701E-09   -2.732E-09   -2.763E-09
    -2.795E-09   -2.827E-09   -2.860E-09   -2.893E-09   -2.926E-09   -2.960E-09   -2.994E-09   -3.028E-09   -3.063E-09   -3.098E-09
    -3.133E-09   -3.168E-09   -3.203E-09   -3.238E-09   -3.274E-09   -3.310E-09   -3.346E-09   -3.382E-09   -3.418E-09   -3.454E-09
    -3.491E-09   -3.528E-09   -3.564E-09   -3.601E-09   -3.638E-09   -3.675E-09   -3.712E-09   -3.749E-09   -3.786E-09   -3.824E-09
    -3.861E-09   -3.898E-09   -3.936E-09   -3.973E-09   -4.011E-09   -4.048E-09   -4.086E-09   -4.123E-09   -4.161E-09   -4.198E-09
    -4.235E-09   -4.273E-09   -4.310E-09   -4.347E-09   -4.385E-09   -4.422E-09   -4.459E-09   -4.496E-09   -4.533E-09   -4.570E-09
    -4.607E-09   -4.643E-09   -4.680E-09
 Cr       Conc. = 3.89E-10
   2.49943E-09  2.31957E-09  1.86521E-09  1.28907E-09  1.14631E-09  1.11143E-09  1.10643E-09  1.11341E-09  1.12634E-09  1.14262E-09
   1.16098E-09  1.18070E-09  1.20138E-09  1.22275E-09  1.24467E-09  1.26702E-09  1.28974E-09  1.31279E-09  1.33615E-09  1.35984E-09
   1.38387E-09  1.40832E-09  1.43328E-09  1.45889E-09  1.48537E-09  1.51310E-09  1.54267E-09  1.57514E-09  1.61258E-09  1.65972E-09
   1.73067E-09  1.89150E-09  2.17592E-09  2.59025E-09  3.15558E-09  3.72515E-09  4.09361E-09  4.21092E-09  4.19305E-09  4.14772E-09
   4.01245E-09  3.58308E-09  2.80980E-09  2.21960E-09  2.08012E-09  2.03511E-09  2.02096E-09  2.02028E-09  2.02656E-09  2.03685E-09
   2.04961E-09  2.06398E-09  2.07943E-09  2.09565E-09  2.11240E-09  2.12954E-09  2.14697E-09  2.16462E-09  2.18244E-09  2.20038E-09
   2.21842E-09  2.23654E-09  2.25472E-09  2.27296E-09  2.29125E-09  2.30958E-09  2.32795E-09  2.34637E-09  2.36482E-09  2.38332E-09
   2.40187E-09  2.42046E-09  2.43911E-09  2.45781E-09  2.47657E-09  2.49541E-09  2.51431E-09  2.53329E-09  2.55234E-09  2.57149E-09
   2.59073E-09  2.61007E-09  2.62952E-09  2.64907E-09  2.66875E-09  2.68855E-09  2.70848E-09  2.72854E-09  2.74875E-09  2.76911E-09
   2.78963E-09  2.81030E-09  2.83111E-09  2.85198E-09  2.87283E-09  2.89360E-09  2.91422E-09  2.93461E-09  2.95470E-09  2.97443E-09
   2.99372E-09  3.01250E-09  3.03070E-09  3.04825E-09  3.06507E-09  3.08110E-09  3.09627E-09  3.11050E-09  3.12372E-09  3.13587E-09
   3.14686E-09  3.15664E-09  3.16513E-09  3.17225E-09  3.17794E-09  3.18213E-09  3.18475E-09  3.18571E-09  3.18497E-09  3.18243E-09
   3.17803E-09  3.17171E-09  3.16339E-09  3.15299E-09  3.14045E-09  3.12570E-09  3.10867E-09  3.08928E-09  3.06747E-09  3.04315E-09
   3.01627E-09  2.98676E-09  2.95454E-09  2.91953E-09  2.88168E-09  2.84091E-09  2.79714E-09  2.75036E-09  2.70066E-09  2.64812E-09
   2.59283E-09  2.53490E-09  2.47440E-09  2.41143E-09  2.34609E-09  2.27847E-09  2.20866E-09  2.13676E-09  2.06285E-09  1.98704E-09
   1.90943E-09  1.83010E-09  1.74915E-09  1.66670E-09  1.58283E-09  1.49767E-09  1.41132E-09  1.32390E-09  1.23556E-09  1.14644E-09
   1.05675E-09  9.66720E-10  8.76736E-10  7.87409E-10  6.99959E-10  6.17526E-10  5.52722E-10  5.36820E-10  5.56422E-10  6.35254E-10
   7.43692E-10  8.02282E-10  7.66579E-10  6.66199E-10  5.50768E-10  4.25759E-10  2.24709E-10 -1.11158E-10 -4.91364E-10 -6.59227E-10
  -7.77594E-10 -8.80946E-10 -9.77461E-10 -1.06996E-09 -1.15966E-09 -1.24714E-09 -1.33272E-09 -1.41658E-09 -1.49880E-09 -1.57944E-09
  -1.65851E-09 -1.73605E-09 -1.81201E-09 -1.88641E-09 -1.95923E-09 -2.03043E-09 -2.10000E-09 -2.16790E-09 -2.23411E-09 -2.29860E-09
  -2.36133E-09 -2.42228E-09 -2.48141E-09 -2.53869E-09 -2.59408E-09 -2.64756E-09 -2.69909E-09 -2.74863E-09 -2.79615E-09 -2.84161E-09
  -2.88499E-09 -2.92623E-09 -2.96533E-09 -3.00224E-09 -3.03690E-09 -3.06931E-09 -3.09942E-09 -3.12720E-09 -3.15261E-09 -3.17561E-09
  -3.19618E-09 -3.21427E-09 -3.22985E-09 -3.24289E-09 -3.25336E-09 -3.26120E-09 -3.26640E-09 -3.26893E-09 -3.26884E-09 -3.26623E-09
  -3.26121E-09 -3.25388E-09 -3.24435E-09 -3.23270E-09 -3.21906E-09 -3.20351E-09 -3.18616E-09 -3.16712E-09 -3.14648E-09 -3.12435E-09
  -3.10082E-09 -3.07601E-09 -3.05001E-09 -3.02293E-09 -2.99487E-09 -2.96592E-09 -2.93620E-09 -2.90580E-09 -2.87483E-09 -2.84339E-09
  -2.81158E-09 -2.77950E-09 -2.74726E-09 -2.71495E-09 -2.68268E-09 -2.65055E-09 -2.61867E-09 -2.58713E-09 -2.55604E-09 -2.52550E-09
  -2.49562E-09 -2.46648E-09 -2.43821E-09 -2.41088E-09 -2.38462E-09 -2.35953E-09 -2.33570E-09 -2.31323E-09 -2.29223E-09 -2.27281E-09
  -2.25506E-09 -2.23908E-09 -2.22498E-09 -2.21278E-09 -2.20245E-09 -2.19396E-09 -2.18727E-09 -2.18233E-09 -2.17911E-09 -2.17757E-09
  -2.17769E-09 -2.17940E-09 -2.18268E-09 -2.18750E-09 -2.19381E-09 -2.20156E-09 -2.21075E-09 -2.22130E-09 -2.23320E-09 -2.24641E-09
  -2.26087E-09 -2.27657E-09 -2.29345E-09 -2.31149E-09 -2.33064E-09 -2.35087E-09 -2.37213E-09 -2.39440E-09 -2.41763E-09 -2.44178E-09
  -2.46682E-09 -2.49271E-09 -2.51941E-09 -2.54688E-09 -2.57509E-09 -2.60400E-09 -2.63355E-09 -2.66375E-09 -2.69451E-09 -2.72583E-09
  -2.75765E-09 -2.78994E-09 -2.82266E-09 -2.85579E-09 -2.88927E-09 -2.92306E-09 -2.95714E-09 -2.99144E-09 -3.02597E-09 -3.06070E-09
  -3.09564E-09 -3.13077E-09 -3.16607E-09 -3.20156E-09 -3.23721E-09 -3.27302E-09 -3.30899E-09 -3.34510E-09 -3.38135E-09 -3.41773E-09
  -3.45424E-09 -3.49086E-09 -3.52759E-09 -3.56443E-09 -3.60135E-09 -3.63837E-09 -3.67546E-09 -3.71263E-09 -3.74986E-09 -3.78715E-09
  -3.82449E-09 -3.86187E-09 -3.89928E-09 -3.93673E-09 -3.97419E-09 -4.01167E-09 -4.04915E-09 -4.08663E-09 -4.12411E-09 -4.16156E-09
  -4.19899E-09 -4.23639E-09 -4.27376E-09 -4.31107E-09 -4.34834E-09 -4.38554E-09 -4.42267E-09 -4.45973E-09 -4.49670E-09 -4.53359E-09
  -4.57038E-09 -4.60706E-09 -4.64362E-09
 Gln      Conc. = 3.30E-09
   2.90084E-09  3.48237E-09  4.17577E-09  4.91395E-09  5.56383E-09  6.01760E-09  6.18413E-09  6.02304E-09  5.64582E-09  5.28145E-09
   4.53886E-09  3.63360E-09  3.20388E-09  2.57581E-09  2.23481E-09  2.07833E-09  1.99536E-09  1.94861E-09  1.92273E-09  1.91007E-09
   1.90627E-09  1.90869E-09  1.91572E-09  1.92650E-09  1.94072E-09  1.95797E-09  1.97676E-09  1.99727E-09  2.01964E-09  2.04298E-09
   2.06729E-09  2.09257E-09  2.11884E-09  2.14612E-09  2.17444E-09  2.20385E-09  2.23445E-09  2.26633E-09  2.29962E-09  2.33450E-09
   2.37123E-09  2.41009E-09  2.45161E-09  2.49633E-09  2.54490E-09  2.59821E-09  2.65722E-09  2.72301E-09  2.79802E-09  2.88528E-09
   2.98835E-09  3.11524E-09  3.27775E-09  3.49736E-09  3.82816E-09  4.34607E-09  5.00688E-09  5.89499E-09  6.97003E-09  7.96156E-09
   8.86243E-09  9.76102E-09  1.03939E-08  1.05336E-08  1.01118E-08  9.23704E-09  8.29339E-09  7.60249E-09  6.37120E-09  5.02196E-09
   4.53605E-09  4.42058E-09  4.25446E-09  4.47994E-09  5.05111E-09  5.86226E-09  6.68070E-09  7.50794E-09  8.29768E-09  8.91832E-09
   9.33124E-09  9.45780E-09  9.04744E-09  8.53228E-09  8.07853E-09  7.16170E-09  6.18195E-09  5.69220E-09  5.08207E-09  4.55330E-09
   4.24855E-09  4.05269E-09  3.92018E-09  3.82729E-09  3.75739E-09  3.70492E-09  3.66627E-09  3.63725E-09  3.61577E-09  3.60074E-09
   3.59027E-09  3.58277E-09  3.57775E-09  3.57475E-09  3.57352E-09  3.57374E-09  3.57470E-09  3.57611E-09  3.57775E-09  3.57938E-09
   3.58081E-09  3.58186E-09  3.58236E-09  3.58215E-09  3.58110E-09  3.57908E-09  3.57596E-09  3.57163E-09  3.56596E-09  3.55886E-09
   3.55022E-09  3.53994E-09  3.52794E-09  3.51411E-09  3.49837E-09  3.48063E-09  3.46080E-09  3.43880E-09  3.41455E-09  3.38796E-09
   3.35896E-09  3.32746E-09  3.29340E-09  3.25668E-09  3.21724E-09  3.17501E-09  3.12990E-09  3.08189E-09  3.03108E-09  2.97754E-09
   2.92137E-09  2.86268E-09  2.80155E-09  2.73807E-09  2.67236E-09  2.60452E-09  2.53465E-09  2.46285E-09  2.38925E-09  2.31396E-09
   2.23711E-09  2.15884E-09  2.07928E-09  1.99862E-09  1.91703E-09  1.83474E-09  1.75200E-09  1.66913E-09  1.58656E-09  1.50482E-09
   1.42473E-09  1.34741E-09  1.27472E-09  1.20980E-09  1.15868E-09  1.13489E-09  1.17860E-09  1.47422E-09  2.11888E-09  3.12891E-09
   4.56373E-09  6.01304E-09  6.89941E-09  7.07900E-09  6.87546E-09  6.59191E-09  6.05580E-09  4.69612E-09  2.37216E-09  5.51032E-10
   1.28692E-12 -2.76531E-10 -4.64354E-10 -6.11944E-10 -7.37981E-10 -8.50959E-10 -9.55243E-10 -1.05331E-09 -1.14663E-09 -1.23615E-09
  -1.32244E-09 -1.40596E-09 -1.48694E-09 -1.56561E-09 -1.64208E-09 -1.71646E-09 -1.78881E-09 -1.85916E-09 -1.92755E-09 -1.99398E-09
  -2.05847E-09 -2.12100E-09 -2.18156E-09 -2.24015E-09 -2.29675E-09 -2.35133E-09 -2.40388E-09 -2.45437E-09 -2.50278E-09 -2.54906E-09
  -2.59321E-09 -2.63518E-09 -2.67496E-09 -2.71251E-09 -2.74779E-09 -2.78077E-09 -2.81143E-09 -2.83973E-09 -2.86564E-09 -2.88911E-09
  -2.91014E-09 -2.92867E-09 -2.94466E-09 -2.95811E-09 -2.96896E-09 -2.97717E-09 -2.98273E-09 -2.98561E-09 -2.98585E-09 -2.98357E-09
