 LCModel (Version 6.3-1R) Copyright: S.W. Provencher.          Ref.: Magn. Reson. Med. 30:672-679 (1993).                
 onepulse 18x18_ftSpec_smooth_lcm
 26 lines in following concentration table = NCONC+1
    Conc.  %SD   /Cr    Metabolite                                         
 1.19E-10 123%   0.000 Ala                                                 
 5.68E-10  50%   0.000 Asp                                                 
    0.000 999%   0.000 Cr                                                  
 2.72E-09  11%   0.000 GABA                                                
 1.16E-09  27%   0.000 Glc                                                 
    0.000 999%   0.000 Gln                                                 
 2.43E-10 123%   0.000 Glu                                                 
    0.000 999%   0.000 Glyc                                                
    0.000 999%   0.000 GPC                                                 
    0.000 999%   0.000 GSH                                                 
 1.54E-10 101%   0.000 Ins                                                 
    0.000 999%   0.000 Lac                                                 
    0.000 999%   0.000 NAAG                                                
 9.92E-10  14%   0.000 NAA                                                 
 9.34E-11  44%   0.000 PCh                                                 
    0.000 999%   0.000 PCr                                                 
    0.000 999%   0.000 PE                                                  
 1.92E-11 397%   0.000 Scyllo                                              
    0.000 999%   0.000 Ser                                                 
    0.000 999%   0.000 Tau                                                 
 9.34E-11  44%   0.000 GPC+PCh                                             
 9.92E-10  14%   0.000 NAA+NAAG                                            
 1.54E-10 101%   0.000 Ins+Glyc                                            
    0.000 999%   0.000 Cr+PCr                                              
 2.43E-10 123%   0.000 Glu+Gln                                             
   6 lines in following misc. output table
  FWHM = 0.067 ppm    S/N =   5                                            
  Data shift = 0.335 ppm                                                   
  Ph:  67 deg      34.3 deg/ppm                                            
  alphaB,S = 1.7E-01,   6.0E+01                                            
   16 spline knots.   Ns = 5(1)                                            
  ( 5) 2 infls.   ( 3) 1 extrs.                                            
  363 points on ppm-axis = NY
      4.250000     4.238821     4.227641     4.216462     4.205282     4.194103     4.182923     4.171744     4.160564     4.149385
      4.138206     4.127026     4.115847     4.104667     4.093488     4.082308     4.071129     4.059949     4.048770     4.037591
      4.026411     4.015232     4.004052     3.992873     3.981693     3.970514     3.959334     3.948155     3.936975     3.925796
      3.914617     3.903437     3.892258     3.881078     3.869899     3.858719     3.847540     3.836360     3.825181     3.814002
      3.802822     3.791643     3.780463     3.769284     3.758104     3.746925     3.735745     3.724566     3.713387     3.702207
      3.691028     3.679848     3.668669     3.657489     3.646310     3.635130     3.623951     3.612772     3.601592     3.590413
      3.579233     3.568054     3.556874     3.545695     3.534515     3.523336     3.512156     3.500977     3.489798     3.478618
      3.467439     3.456259     3.445080     3.433900     3.422721     3.411541     3.400362     3.389183     3.378003     3.366824
      3.355644     3.344465     3.333285     3.322106     3.310926     3.299747     3.288568     3.277388     3.266209     3.255029
      3.243850     3.232670     3.221491     3.210311     3.199132     3.187953     3.176773     3.165594     3.154414     3.143235
      3.132055     3.120876     3.109696     3.098517     3.087337     3.076158     3.064979     3.053799     3.042620     3.031440
      3.020261     3.009081     2.997902     2.986722     2.975543     2.964364     2.953184     2.942005     2.930825     2.919646
      2.908466     2.897287     2.886107     2.874928     2.863749     2.852569     2.841390     2.830210     2.819031     2.807851
      2.796672     2.785492     2.774313     2.763134     2.751954     2.740775     2.729595     2.718416     2.707236     2.696057
      2.684877     2.673698     2.662519     2.651339     2.640160     2.628980     2.617801     2.606621     2.595442     2.584262
      2.573083     2.561903     2.550724     2.539545     2.528365     2.517186     2.506006     2.494827     2.483647     2.472468
      2.461288     2.450109     2.438930     2.427750     2.416571     2.405391     2.394212     2.383032     2.371853     2.360673
      2.349494     2.338315     2.327135     2.315956     2.304776     2.293597     2.282417     2.271238     2.260058     2.248879
      2.237700     2.226520     2.215341     2.204161     2.192982     2.181802     2.170623     2.159443     2.148264     2.137084
      2.125905     2.114726     2.103546     2.092367     2.081187     2.070008     2.058828     2.047649     2.036469     2.025290
      2.014111     2.002931     1.991752     1.980572     1.969393     1.958213     1.947034     1.935854     1.924675     1.913496
      1.902316     1.891137     1.879957     1.868778     1.857598     1.846419     1.835239     1.824060     1.812881     1.801701
      1.790522     1.779342     1.768163     1.756983     1.745804     1.734624     1.723445     1.712265     1.701086     1.689907
      1.678727     1.667548     1.656368     1.645189     1.634009     1.622830     1.611650     1.600471     1.589292     1.578112
      1.566933     1.555753     1.544574     1.533394     1.522215     1.511035     1.499856     1.488677     1.477497     1.466318
      1.455138     1.443959     1.432779     1.421600     1.410420     1.399241     1.388062     1.376882     1.365703     1.354523
      1.343344     1.332164     1.320985     1.309805     1.298626     1.287446     1.276267     1.265088     1.253908     1.242729
      1.231549     1.220370     1.209190     1.198011     1.186831     1.175652     1.164473     1.153293     1.142114     1.130934
      1.119755     1.108575     1.097396     1.086216     1.075037     1.063858     1.052678     1.041499     1.030319     1.019140
      1.007960     0.996781     0.985601     0.974422     0.963243     0.952063     0.940884     0.929704     0.918525     0.907345
      0.896166     0.884986     0.873807     0.862628     0.851448     0.840269     0.829089     0.817910     0.806730     0.795551
      0.784371     0.773192     0.762012     0.750833     0.739654     0.728474     0.717295     0.706115     0.694936     0.683756
      0.672577     0.661397     0.650218     0.639039     0.627859     0.616680     0.605500     0.594321     0.583141     0.571962
      0.560782     0.549603     0.538424     0.527244     0.516065     0.504885     0.493706     0.482526     0.471347     0.460167
      0.448988     0.437809     0.426629     0.415450     0.404270     0.393091     0.381911     0.370732     0.359552     0.348373
      0.337193     0.326014     0.314835     0.303655     0.292476     0.281296     0.270117     0.258937     0.247758     0.236578
      0.225399     0.214220     0.203040
 NY phased data points follow
   1.40459E-09  4.21405E-09  5.68942E-09  7.14434E-09  7.58178E-09  6.29957E-09  5.26748E-09  4.91581E-09  3.68005E-09  3.58681E-09
   4.31629E-09  4.13053E-09  3.97368E-09  4.33566E-09  4.53025E-09  5.07035E-09  6.06109E-09  6.21800E-09  5.90042E-09  5.82310E-09
   5.62524E-09  6.36681E-09  5.93004E-09  4.51733E-09  5.13391E-09  5.69382E-09  6.88417E-09  6.59063E-09  6.39417E-09  6.21680E-09
   6.13242E-09  5.45901E-09  6.53269E-09  7.88191E-09  1.01656E-08  9.38017E-09  9.92657E-09  8.54921E-09  6.87970E-09  6.23103E-09
   5.87140E-09  5.95066E-09  4.95659E-09  5.59596E-09  4.96556E-09  4.84547E-09  5.25146E-09  4.44515E-09  4.35499E-09  3.07756E-09
   3.68525E-09  3.58074E-09  3.66942E-09  4.37172E-09  4.18736E-09  3.88084E-09  3.28114E-09  3.48036E-09  3.22176E-09  2.48400E-09
   2.98498E-09  3.64011E-09  4.26571E-09  5.35958E-09  8.84291E-09  1.13511E-08  1.22035E-08  1.06326E-08  8.87256E-09  7.01661E-09
   6.40217E-09  6.54147E-09  5.14662E-09  4.20911E-09  3.90400E-09  4.28509E-09  2.45079E-09  2.74739E-09  3.69369E-09  4.62199E-09
   6.88593E-09  1.05728E-08  1.31468E-08  1.21650E-08  1.12733E-08  9.27718E-09  8.37778E-09  8.35352E-09  6.82110E-09  6.44854E-09
   6.66530E-09  6.20497E-09  5.84518E-09  6.42196E-09  5.05601E-09  5.03132E-09  4.48967E-09  4.57764E-09  4.23349E-09  3.18380E-09
   3.87563E-09  3.32463E-09  4.37776E-09  2.84039E-09  4.11435E-09  3.72917E-09  3.90829E-09  3.81306E-09  3.68906E-09  3.63966E-09
   2.54476E-09  2.54791E-09  2.21161E-09  2.40795E-09  3.11678E-09  3.07165E-09  3.19978E-09  3.72373E-09  3.70709E-09  3.98251E-09
   4.38751E-09  3.88159E-09  3.14842E-09  3.81016E-09  2.59474E-09  1.91030E-09  1.55662E-09  2.17131E-09  2.06040E-09  2.20600E-09
   2.53507E-09  2.71816E-09  2.36952E-09  2.50521E-09  3.77755E-09  2.50364E-09  2.36863E-09  2.17390E-09  1.41971E-09  2.34597E-09
   3.16400E-09  3.30960E-09  4.40134E-09  4.37975E-09  2.77404E-09  2.78369E-09  3.62219E-09  3.96625E-09  4.68160E-09  3.68227E-09
   3.81649E-09  3.25743E-09  3.72865E-09  3.74872E-09  3.71581E-09  3.87707E-09  3.59025E-09  3.93009E-09  3.71850E-09  4.41149E-09
   4.85955E-09  4.78212E-09  4.69156E-09  4.52803E-09  4.99363E-09  5.24345E-09  5.49655E-09  5.75660E-09  6.14830E-09  8.34377E-09
   1.04739E-08  1.28335E-08  1.61816E-08  1.68465E-08  1.39717E-08  1.03810E-08  7.29278E-09  5.18697E-09  5.41805E-09  4.69231E-09
   3.27529E-09  2.96560E-09  2.76532E-09  2.22189E-09  1.72920E-09  2.37504E-09  2.88985E-10  7.72650E-10 -1.77351E-10 -8.51217E-10
  -6.92227E-10 -1.27331E-09 -2.72292E-09 -2.90296E-09 -3.23808E-09 -4.40212E-09 -5.23553E-09 -5.51868E-09 -6.41133E-09 -7.40283E-09
  -7.69339E-09 -8.03143E-09 -8.28056E-09 -8.21240E-09 -8.66529E-09 -8.62965E-09 -8.17230E-09 -7.46695E-09 -7.21077E-09 -6.52547E-09
  -6.58776E-09 -4.50248E-09 -3.87156E-09 -3.10498E-09 -3.13510E-09 -2.03602E-09 -1.99493E-09 -1.91475E-09 -1.35458E-09 -1.28485E-09
  -1.96009E-09 -2.27685E-09 -1.63644E-09 -1.21075E-09 -2.63189E-09 -1.61335E-09 -1.17960E-09 -1.57283E-09 -1.20878E-09 -1.76537E-09
  -1.20579E-09 -1.78382E-09 -1.59034E-09 -1.79490E-09 -2.40870E-09 -1.17190E-09 -1.63819E-09 -1.44709E-09 -7.24163E-10 -2.10689E-09
  -8.44941E-10 -1.19169E-09 -1.33815E-09 -1.22833E-09 -1.95838E-09 -1.67654E-09 -1.33143E-09 -1.11217E-09 -1.92895E-09 -1.13818E-09
  -9.75457E-10 -7.37321E-10 -5.98146E-10 -7.27894E-10 -2.40778E-10 -1.51058E-09 -1.03767E-09 -1.10902E-09 -1.58642E-09 -1.14217E-09
  -1.45427E-09 -1.50252E-09 -2.44083E-09 -1.96307E-09 -2.04093E-09 -1.22074E-09 -1.30768E-09 -7.43741E-10 -3.26328E-10 -4.94715E-10
  -1.78031E-10 -2.39770E-10 -4.62206E-10  8.81855E-11  2.57207E-10 -3.14355E-10 -5.67402E-10 -5.87601E-10 -1.25378E-09 -1.24942E-09
  -1.18783E-09 -1.71047E-09 -1.65775E-09 -9.36710E-10 -1.72416E-09 -1.28339E-09 -1.22096E-09 -1.25187E-09 -1.33625E-09 -1.31812E-09
  -1.11705E-09 -1.28431E-09 -1.49364E-09 -8.20465E-10 -7.28688E-10 -1.37409E-09 -8.35556E-10 -8.18930E-10 -9.80515E-10 -1.28631E-09
  -5.12899E-10 -5.03271E-10 -1.18538E-09 -9.71476E-10 -1.15783E-09 -9.33780E-10 -8.51655E-10 -8.66509E-10 -8.44445E-10 -5.13454E-10
  -1.25393E-09 -9.39717E-10 -4.00546E-10 -4.76339E-10 -5.21757E-10 -4.72577E-10 -5.43424E-10 -6.17855E-10 -6.43869E-10 -3.44486E-10
  -1.45948E-10 -7.35916E-10 -2.88117E-10 -1.01231E-09 -3.31196E-10 -6.76160E-11 -6.83720E-10  1.13474E-10 -8.94942E-11  2.90352E-11
  -7.67571E-10 -1.67333E-10 -7.54555E-10 -1.03415E-10 -3.27750E-10 -1.38860E-10 -3.91480E-10 -5.14617E-10 -1.55534E-10 -3.75257E-10
  -5.98337E-10 -4.13163E-10  9.54637E-11  2.50931E-11 -8.20686E-10 -4.64540E-10 -3.59260E-10 -4.90449E-10  2.15870E-10 -4.96252E-10
   9.24363E-11 -2.01696E-10 -1.04449E-10 -1.01560E-10  2.90820E-11 -2.58297E-10 -3.10165E-10 -4.64827E-10 -2.83239E-10 -2.41151E-10
  -1.33664E-11 -3.30118E-10 -3.02600E-11
 NY points of the fit to the data follow
   4.57424E-09  5.01190E-09  5.39447E-09  5.65448E-09  5.70325E-09  5.52619E-09  5.17494E-09  4.76852E-09  4.44426E-09  4.20347E-09
   4.11974E-09  4.14961E-09  4.25111E-09  4.41131E-09  4.64616E-09  4.92754E-09  5.27957E-09  5.72124E-09  6.16686E-09  6.48686E-09
   6.60257E-09  6.40602E-09  5.95153E-09  5.48764E-09  5.14163E-09  4.99950E-09  5.15534E-09  5.60294E-09  6.14833E-09  6.58540E-09
   6.79594E-09  7.00768E-09  7.36478E-09  7.69663E-09  7.96562E-09  8.36188E-09  8.69151E-09  8.69245E-09  8.28477E-09  7.59980E-09
   6.86775E-09  6.08141E-09  5.08618E-09  4.32686E-09  3.91331E-09  3.56551E-09  3.40141E-09  3.47389E-09  3.63806E-09  3.76396E-09
   3.81219E-09  3.78115E-09  3.75504E-09  3.75909E-09  3.79481E-09  3.84771E-09  3.87460E-09  3.88087E-09  3.84886E-09  3.86754E-09
   4.10150E-09  4.61580E-09  5.27741E-09  6.03473E-09  7.03742E-09  7.98613E-09  8.69057E-09  9.16483E-09  9.37700E-09  9.19030E-09
   8.54857E-09  7.53733E-09  6.41600E-09  5.55042E-09  4.73272E-09  4.01855E-09  3.94517E-09  4.41302E-09  5.15842E-09  6.40027E-09
   8.00068E-09  9.72665E-09  1.11812E-08  1.17214E-08  1.11956E-08  1.00672E-08  8.83072E-09  7.67593E-09  6.68568E-09  6.41478E-09
   6.30600E-09  6.22147E-09  5.93966E-09  5.45274E-09  5.10665E-09  4.74629E-09  4.25949E-09  3.92713E-09  3.70075E-09  3.49575E-09
   3.38434E-09  3.33848E-09  3.34282E-09  3.39733E-09  3.47058E-09  3.53137E-09  3.56217E-09  3.56727E-09  3.54745E-09  3.49459E-09
   3.40788E-09  3.31223E-09  3.24947E-09  3.18533E-09  3.13147E-09  3.12070E-09  3.12387E-09  3.13281E-09  3.14466E-09  3.15805E-09
   3.17224E-09  3.18674E-09  3.20121E-09  3.21540E-09  3.22910E-09  3.24217E-09  3.25446E-09  3.26587E-09  3.27630E-09  3.28566E-09
   3.29385E-09  3.30081E-09  3.30646E-09  3.31073E-09  3.31354E-09  3.31484E-09  3.31457E-09  3.31268E-09  3.30912E-09  3.30383E-09
   3.29675E-09  3.28777E-09  3.27676E-09  3.26360E-09  3.24815E-09  3.23030E-09  3.20993E-09  3.18694E-09  3.16124E-09  3.13273E-09
   3.10138E-09  3.06713E-09  3.02999E-09  2.98999E-09  2.94723E-09  2.90190E-09  2.85428E-09  2.80485E-09  2.75435E-09  2.70394E-09
   2.65552E-09  2.61220E-09  2.57962E-09  2.56869E-09  2.60442E-09  2.76194E-09  3.36416E-09  4.65262E-09  6.51678E-09  8.94901E-09
   1.18501E-08  1.46463E-08  1.63093E-08  1.60516E-08  1.39529E-08  1.07811E-08  7.35369E-09  4.16318E-09  1.92133E-09  9.12904E-10
   4.37043E-10  1.14990E-10 -1.42385E-10 -3.65669E-10 -5.68184E-10 -7.56587E-10 -9.34432E-10 -1.10371E-09 -1.26550E-09 -1.42039E-09
  -1.56864E-09 -1.71030E-09 -1.84525E-09 -1.97330E-09 -2.09420E-09 -2.20763E-09 -2.31337E-09 -2.41159E-09 -2.50253E-09 -2.58641E-09
  -2.66343E-09 -2.73380E-09 -2.79769E-09 -2.85530E-09 -2.90680E-09 -2.95238E-09 -2.99219E-09 -3.02642E-09 -3.05521E-09 -3.07875E-09
  -3.09720E-09 -3.11072E-09 -3.11946E-09 -3.12360E-09 -3.12328E-09 -3.11867E-09 -3.10992E-09 -3.09720E-09 -3.08066E-09 -3.06045E-09
  -3.03674E-09 -3.00967E-09 -2.97941E-09 -2.94611E-09 -2.90994E-09 -2.87109E-09 -2.82972E-09 -2.78605E-09 -2.74024E-09 -2.69250E-09
  -2.64300E-09 -2.59194E-09 -2.53950E-09 -2.48587E-09 -2.43122E-09 -2.37577E-09 -2.31967E-09 -2.26314E-09 -2.20633E-09 -2.14946E-09
  -2.09270E-09 -2.03623E-09 -1.98025E-09 -1.92495E-09 -1.87049E-09 -1.81708E-09 -1.76490E-09 -1.71413E-09 -1.66496E-09 -1.61758E-09
  -1.57216E-09 -1.52891E-09 -1.48788E-09 -1.44902E-09 -1.41226E-09 -1.37752E-09 -1.34471E-09 -1.31378E-09 -1.28464E-09 -1.25722E-09
  -1.23145E-09 -1.20724E-09 -1.18454E-09 -1.16324E-09 -1.14330E-09 -1.12463E-09 -1.10715E-09 -1.09080E-09 -1.07550E-09 -1.06116E-09
  -1.04772E-09 -1.03511E-09 -1.02324E-09 -1.01204E-09 -1.00145E-09 -9.91372E-10 -9.81753E-10 -9.72505E-10 -9.63560E-10 -9.54836E-10
  -9.46295E-10 -9.37919E-10 -9.29686E-10 -9.21576E-10 -9.13580E-10 -9.05669E-10 -8.97833E-10 -8.90049E-10 -8.82299E-10 -8.74569E-10
  -8.66836E-10 -8.59084E-10 -8.51294E-10 -8.43448E-10 -8.35530E-10 -8.27518E-10 -8.19397E-10 -8.11147E-10 -8.02754E-10 -7.94190E-10
  -7.85449E-10 -7.76504E-10 -7.67339E-10 -7.57941E-10 -7.48286E-10 -7.38356E-10 -7.28137E-10 -7.17607E-10 -7.06777E-10 -6.95665E-10
  -6.84291E-10 -6.72675E-10 -6.60839E-10 -6.48797E-10 -6.36574E-10 -6.24189E-10 -6.11660E-10 -5.99008E-10 -5.86254E-10 -5.73414E-10
  -5.60513E-10 -5.47566E-10 -5.34593E-10 -5.21621E-10 -5.08659E-10 -4.95737E-10 -4.82869E-10 -4.70073E-10 -4.57373E-10 -4.44791E-10
  -4.32338E-10 -4.20041E-10 -4.07917E-10 -3.95987E-10 -3.84272E-10 -3.72782E-10 -3.61521E-10 -3.50478E-10 -3.39640E-10 -3.28996E-10
  -3.18538E-10 -3.08252E-10 -2.98130E-10 -2.88159E-10 -2.78333E-10 -2.68635E-10 -2.59061E-10 -2.49596E-10 -2.40231E-10 -2.30955E-10
  -2.21756E-10 -2.12626E-10 -2.03553E-10 -1.94527E-10 -1.85537E-10 -1.76573E-10 -1.67624E-10 -1.58678E-10 -1.49726E-10 -1.40759E-10
  -1.31764E-10 -1.22733E-10 -1.13649E-10
 NY background values follow
    -2.437E-10   -2.177E-10   -1.917E-10   -1.658E-10   -1.399E-10   -1.141E-10   -8.832E-11   -6.268E-11   -3.716E-11   -1.178E-11
     1.344E-11    3.848E-11    6.331E-11    8.793E-11    1.123E-10    1.364E-10    1.603E-10    1.838E-10    2.070E-10    2.299E-10
     2.524E-10    2.746E-10    2.963E-10    3.177E-10    3.386E-10    3.590E-10    3.790E-10    3.985E-10    4.175E-10    4.359E-10
     4.539E-10    4.714E-10    4.885E-10    5.051E-10    5.214E-10    5.373E-10    5.529E-10    5.682E-10    5.833E-10    5.981E-10
     6.128E-10    6.272E-10    6.415E-10    6.557E-10    6.699E-10    6.839E-10    6.980E-10    7.120E-10    7.261E-10    7.403E-10
     7.545E-10    7.689E-10    7.834E-10    7.981E-10    8.131E-10    8.282E-10    8.437E-10    8.594E-10    8.755E-10    8.918E-10
     9.085E-10    9.256E-10    9.430E-10    9.608E-10    9.789E-10    9.975E-10    1.016E-09    1.036E-09    1.056E-09    1.076E-09
     1.097E-09    1.118E-09    1.139E-09    1.162E-09    1.184E-09    1.208E-09    1.231E-09    1.256E-09    1.280E-09    1.306E-09
     1.332E-09    1.358E-09    1.385E-09    1.413E-09    1.442E-09    1.471E-09    1.500E-09    1.530E-09    1.561E-09    1.592E-09
     1.624E-09    1.655E-09    1.688E-09    1.720E-09    1.753E-09    1.785E-09    1.818E-09    1.851E-09    1.885E-09    1.918E-09
     1.951E-09    1.984E-09    2.017E-09    2.049E-09    2.082E-09    2.114E-09    2.146E-09    2.178E-09    2.209E-09    2.239E-09
     2.270E-09    2.300E-09    2.329E-09    2.357E-09    2.385E-09    2.413E-09    2.439E-09    2.465E-09    2.489E-09    2.513E-09
     2.536E-09    2.558E-09    2.579E-09    2.599E-09    2.617E-09    2.634E-09    2.650E-09    2.665E-09    2.678E-09    2.690E-09
     2.700E-09    2.709E-09    2.716E-09    2.722E-09    2.726E-09    2.728E-09    2.728E-09    2.726E-09    2.723E-09    2.718E-09
     2.710E-09    2.701E-09    2.689E-09    2.675E-09    2.658E-09    2.638E-09    2.616E-09    2.590E-09    2.562E-09    2.530E-09
     2.494E-09    2.455E-09    2.413E-09    2.366E-09    2.315E-09    2.260E-09    2.201E-09    2.137E-09    2.069E-09    1.996E-09
     1.918E-09    1.835E-09    1.746E-09    1.652E-09    1.553E-09    1.448E-09    1.337E-09    1.220E-09    1.097E-09    9.688E-10
     8.351E-10    6.966E-10    5.538E-10    4.073E-10    2.574E-10    1.048E-10   -5.023E-11   -2.071E-10   -3.654E-10   -5.245E-10
    -6.841E-10   -8.437E-10   -1.003E-09   -1.161E-09   -1.317E-09   -1.472E-09   -1.624E-09   -1.773E-09   -1.919E-09   -2.061E-09
    -2.199E-09   -2.332E-09   -2.459E-09   -2.581E-09   -2.697E-09   -2.805E-09   -2.907E-09   -3.002E-09   -3.090E-09   -3.171E-09
    -3.245E-09   -3.314E-09   -3.376E-09   -3.431E-09   -3.481E-09   -3.525E-09   -3.564E-09   -3.597E-09   -3.625E-09   -3.647E-09
    -3.665E-09   -3.678E-09   -3.686E-09   -3.689E-09   -3.688E-09   -3.683E-09   -3.674E-09   -3.660E-09   -3.643E-09   -3.623E-09
    -3.599E-09   -3.571E-09   -3.540E-09   -3.507E-09   -3.470E-09   -3.431E-09   -3.389E-09   -3.346E-09   -3.299E-09   -3.251E-09
    -3.202E-09   -3.150E-09   -3.098E-09   -3.044E-09   -2.989E-09   -2.934E-09   -2.877E-09   -2.821E-09   -2.764E-09   -2.707E-09
    -2.650E-09   -2.593E-09   -2.537E-09   -2.481E-09   -2.427E-09   -2.373E-09   -2.321E-09   -2.270E-09   -2.221E-09   -2.173E-09
    -2.128E-09   -2.084E-09   -2.043E-09   -2.004E-09   -1.967E-09   -1.933E-09   -1.900E-09   -1.869E-09   -1.839E-09   -1.812E-09
    -1.786E-09   -1.762E-09   -1.739E-09   -1.717E-09   -1.697E-09   -1.679E-09   -1.661E-09   -1.644E-09   -1.629E-09   -1.615E-09
    -1.601E-09   -1.588E-09   -1.576E-09   -1.565E-09   -1.554E-09   -1.544E-09   -1.534E-09   -1.525E-09   -1.516E-09   -1.507E-09
    -1.498E-09   -1.490E-09   -1.482E-09   -1.473E-09   -1.465E-09   -1.457E-09   -1.449E-09   -1.441E-09   -1.433E-09   -1.425E-09
    -1.418E-09   -1.410E-09   -1.402E-09   -1.394E-09   -1.386E-09   -1.378E-09   -1.369E-09   -1.361E-09   -1.352E-09   -1.344E-09
    -1.335E-09   -1.326E-09   -1.316E-09   -1.307E-09   -1.297E-09   -1.287E-09   -1.276E-09   -1.266E-09   -1.255E-09   -1.243E-09
    -1.232E-09   -1.220E-09   -1.208E-09   -1.196E-09   -1.183E-09   -1.171E-09   -1.158E-09   -1.145E-09   -1.132E-09   -1.119E-09
    -1.106E-09   -1.093E-09   -1.080E-09   -1.067E-09   -1.054E-09   -1.040E-09   -1.027E-09   -1.014E-09   -1.001E-09   -9.887E-10
    -9.760E-10   -9.635E-10   -9.512E-10   -9.390E-10   -9.271E-10   -9.153E-10   -9.038E-10   -8.926E-10   -8.815E-10   -8.706E-10
    -8.599E-10   -8.494E-10   -8.390E-10   -8.288E-10   -8.187E-10   -8.088E-10   -7.989E-10   -7.892E-10   -7.796E-10   -7.700E-10
    -7.606E-10   -7.512E-10   -7.418E-10   -7.325E-10   -7.232E-10   -7.140E-10   -7.048E-10   -6.955E-10   -6.863E-10   -6.770E-10
    -6.678E-10   -6.584E-10   -6.490E-10
 Ala      Conc. = 1.19E-10
  -1.53465E-10 -1.17756E-10 -8.54466E-11 -5.65705E-11 -3.02232E-11 -6.35769E-12  1.32984E-11  2.69954E-11  4.15120E-11  5.79208E-11
   6.90822E-11  8.21452E-11  1.00028E-10  1.17323E-10  1.35867E-10  1.56503E-10  1.78053E-10  1.99986E-10  2.22031E-10  2.44026E-10
   2.65865E-10  2.87476E-10  3.08796E-10  3.29786E-10  3.50407E-10  3.70622E-10  3.90405E-10  4.09729E-10  4.28567E-10  4.46908E-10
   4.64772E-10  4.82186E-10  4.99178E-10  5.15775E-10  5.32004E-10  5.47895E-10  5.63475E-10  5.78773E-10  5.93818E-10  6.08639E-10
   6.23264E-10  6.37724E-10  6.52046E-10  6.66261E-10  6.80396E-10  6.94483E-10  7.08551E-10  7.22627E-10  7.36744E-10  7.50929E-10
   7.65211E-10  7.79623E-10  7.94191E-10  8.08947E-10  8.23919E-10  8.39138E-10  8.54633E-10  8.70428E-10  8.86536E-10  9.02970E-10
   9.19741E-10  9.36865E-10  9.54352E-10  9.72215E-10  9.90467E-10  1.00912E-09  1.02819E-09  1.04769E-09  1.06763E-09  1.08802E-09
   1.10889E-09  1.13023E-09  1.15207E-09  1.17441E-09  1.19728E-09  1.22069E-09  1.24465E-09  1.26917E-09  1.29428E-09  1.31998E-09
   1.34630E-09  1.37325E-09  1.40085E-09  1.42913E-09  1.45810E-09  1.48775E-09  1.51808E-09  1.54904E-09  1.58062E-09  1.61281E-09
   1.64562E-09  1.67905E-09  1.71316E-09  1.74802E-09  1.78379E-09  1.82073E-09  1.85933E-09  1.90055E-09  1.94665E-09  2.00446E-09
   2.08543E-09  2.17536E-09  2.28068E-09  2.41308E-09  2.54800E-09  2.65854E-09  2.73005E-09  2.76900E-09  2.77777E-09  2.74936E-09
   2.68387E-09  2.60659E-09  2.55974E-09  2.50942E-09  2.46762E-09  2.46741E-09  2.47997E-09  2.49728E-09  2.51657E-09  2.53659E-09
   2.55667E-09  2.57642E-09  2.59558E-09  2.61396E-09  2.63141E-09  2.64783E-09  2.66311E-09  2.67717E-09  2.68995E-09  2.70136E-09
   2.71134E-09  2.71983E-09  2.72677E-09  2.73210E-09  2.73576E-09  2.73770E-09  2.73787E-09  2.73620E-09  2.73265E-09  2.72716E-09
   2.71966E-09  2.71004E-09  2.69816E-09  2.68386E-09  2.66700E-09  2.64742E-09  2.62499E-09  2.59954E-09  2.57094E-09  2.53904E-09
   2.50369E-09  2.46473E-09  2.42204E-09  2.37547E-09  2.32486E-09  2.27008E-09  2.21098E-09  2.14744E-09  2.07931E-09  2.00647E-09
   1.92880E-09  1.84621E-09  1.75866E-09  1.66616E-09  1.56895E-09  1.46796E-09  1.36747E-09  1.27835E-09  1.19372E-09  1.11504E-09
   1.04284E-09  9.68194E-10  8.69488E-10  7.26247E-10  5.38968E-10  3.24534E-10  1.02668E-10 -1.16734E-10 -3.24110E-10 -4.97782E-10
  -6.63370E-10 -8.26170E-10 -9.87230E-10 -1.14664E-09 -1.30418E-09 -1.45952E-09 -1.61226E-09 -1.76197E-09 -1.90820E-09 -2.05051E-09
  -2.18842E-09 -2.32147E-09 -2.44920E-09 -2.57111E-09 -2.68675E-09 -2.79565E-09 -2.89745E-09 -2.99223E-09 -3.08015E-09 -3.16136E-09
  -3.23602E-09 -3.30427E-09 -3.36628E-09 -3.42219E-09 -3.47217E-09 -3.51636E-09 -3.55492E-09 -3.58801E-09 -3.61577E-09 -3.63837E-09
  -3.65595E-09 -3.66867E-09 -3.67668E-09 -3.68014E-09 -3.67919E-09 -3.67401E-09 -3.66473E-09 -3.65151E-09 -3.63450E-09 -3.61386E-09
  -3.58975E-09 -3.56231E-09 -3.53169E-09 -3.49806E-09 -3.46158E-09 -3.42243E-09 -3.38079E-09 -3.33685E-09 -3.29080E-09 -3.24282E-09
  -3.19310E-09 -3.14183E-09 -3.08919E-09 -3.03536E-09 -2.98053E-09 -2.92490E-09 -2.86864E-09 -2.81194E-09 -2.75497E-09 -2.69795E-09
  -2.64104E-09 -2.58443E-09 -2.52832E-09 -2.47288E-09 -2.41829E-09 -2.36475E-09 -2.31244E-09 -2.26155E-09 -2.21226E-09 -2.16476E-09
  -2.11923E-09 -2.07586E-09 -2.03473E-09 -1.99575E-09 -1.95888E-09 -1.92403E-09 -1.89111E-09 -1.86007E-09 -1.83083E-09 -1.80330E-09
  -1.77742E-09 -1.75310E-09 -1.73029E-09 -1.70889E-09 -1.68884E-09 -1.67006E-09 -1.65247E-09 -1.63601E-09 -1.62060E-09 -1.60616E-09
  -1.59260E-09 -1.57988E-09 -1.56790E-09 -1.55659E-09 -1.54588E-09 -1.53569E-09 -1.52595E-09 -1.51659E-09 -1.50753E-09 -1.49868E-09
  -1.49002E-09 -1.48152E-09 -1.47317E-09 -1.46493E-09 -1.45681E-09 -1.44877E-09 -1.44081E-09 -1.43289E-09 -1.42501E-09 -1.41714E-09
  -1.40928E-09 -1.40139E-09 -1.39346E-09 -1.38547E-09 -1.37741E-09 -1.36926E-09 -1.36099E-09 -1.35260E-09 -1.34406E-09 -1.33534E-09
  -1.32645E-09 -1.31735E-09 -1.30803E-09 -1.29847E-09 -1.28866E-09 -1.27857E-09 -1.26818E-09 -1.25749E-09 -1.24649E-09 -1.23521E-09
  -1.22366E-09 -1.21187E-09 -1.19986E-09 -1.18764E-09 -1.17524E-09 -1.16267E-09 -1.14996E-09 -1.13712E-09 -1.12418E-09 -1.11115E-09
  -1.09806E-09 -1.08492E-09 -1.07175E-09 -1.05858E-09 -1.04542E-09 -1.03229E-09 -1.01922E-09 -1.00622E-09 -9.93306E-10 -9.80512E-10
  -9.67845E-10 -9.55331E-10 -9.42988E-10 -9.30837E-10 -9.18899E-10 -9.07184E-10 -8.95695E-10 -8.84421E-10 -8.73350E-10 -8.62471E-10
  -8.51775E-10 -8.41249E-10 -8.30885E-10 -8.20670E-10 -8.10597E-10 -8.00649E-10 -7.90823E-10 -7.81103E-10 -7.71481E-10 -7.61945E-10
  -7.52484E-10 -7.43090E-10 -7.33749E-10 -7.24453E-10 -7.15190E-10 -7.05952E-10 -6.96725E-10 -6.87498E-10 -6.78263E-10 -6.69010E-10
  -6.59727E-10 -6.50404E-10 -6.41027E-10
 Asp      Conc. = 5.68E-10
   4.43141E-10  3.86702E-10  3.18555E-10  2.37794E-10  1.65537E-10  9.79839E-11  5.65607E-11  3.27999E-11  3.60201E-11  4.96952E-11
   6.84357E-11  8.99006E-11  1.12879E-10  1.36713E-10  1.60748E-10  1.84819E-10  2.08937E-10  2.33047E-10  2.57097E-10  2.81048E-10
   3.04869E-10  3.28544E-10  3.52058E-10  3.75415E-10  3.98625E-10  4.21703E-10  4.44689E-10  4.67636E-10  4.90619E-10  5.13765E-10
   5.37280E-10  5.61457E-10  5.86716E-10  6.13705E-10  6.43530E-10  6.78376E-10  7.23184E-10  7.75250E-10  8.39090E-10  9.06471E-10
   9.71732E-10  1.02623E-09  1.06495E-09  1.09575E-09  1.12829E-09  1.20135E-09  1.31162E-09  1.46129E-09  1.64716E-09  1.80246E-09
   1.88276E-09  1.86095E-09  1.77242E-09  1.65421E-09  1.52926E-09  1.42202E-09  1.32266E-09  1.27326E-09  1.22044E-09  1.16897E-09
   1.16247E-09  1.17501E-09  1.17881E-09  1.17838E-09  1.17510E-09  1.16271E-09  1.14326E-09  1.13970E-09  1.14457E-09  1.15421E-09
   1.16699E-09  1.18202E-09  1.19879E-09  1.21698E-09  1.23638E-09  1.25684E-09  1.27826E-09  1.30056E-09  1.32371E-09  1.34765E-09
   1.37236E-09  1.39783E-09  1.42403E-09  1.45098E-09  1.47864E-09  1.50702E-09  1.53603E-09  1.56565E-09  1.59580E-09  1.62645E-09
   1.65754E-09  1.68903E-09  1.72086E-09  1.75299E-09  1.78537E-09  1.81796E-09  1.85071E-09  1.88357E-09  1.91650E-09  1.94945E-09
   1.98238E-09  2.01525E-09  2.04800E-09  2.08059E-09  2.11298E-09  2.14513E-09  2.17699E-09  2.20851E-09  2.23965E-09  2.27037E-09
   2.30063E-09  2.33037E-09  2.35956E-09  2.38814E-09  2.41606E-09  2.44328E-09  2.46974E-09  2.49539E-09  2.52017E-09  2.54403E-09
   2.56693E-09  2.58881E-09  2.60962E-09  2.62931E-09  2.64782E-09  2.66510E-09  2.68111E-09  2.69579E-09  2.70909E-09  2.72096E-09
   2.73134E-09  2.74019E-09  2.74745E-09  2.75307E-09  2.75701E-09  2.75921E-09  2.75961E-09  2.75817E-09  2.75485E-09  2.74958E-09
   2.74230E-09  2.73291E-09  2.72125E-09  2.70719E-09  2.69057E-09  2.67125E-09  2.64909E-09  2.62394E-09  2.59566E-09  2.56411E-09
   2.52916E-09  2.49064E-09  2.44845E-09  2.40244E-09  2.35249E-09  2.29848E-09  2.24030E-09  2.17784E-09  2.11105E-09  2.03987E-09
   1.96431E-09  1.88449E-09  1.80070E-09  1.71355E-09  1.62456E-09  1.53777E-09  1.46852E-09  1.47544E-09  1.52861E-09  1.63002E-09
   1.78376E-09  1.95387E-09  2.04054E-09  1.93584E-09  1.62679E-09  1.18556E-09  7.08422E-10  2.46440E-10 -1.66074E-10 -4.09669E-10
  -6.00605E-10 -7.76129E-10 -9.44703E-10 -1.10899E-09 -1.26990E-09 -1.42768E-09 -1.58225E-09 -1.73337E-09 -1.88070E-09 -2.02388E-09
  -2.16250E-09 -2.29614E-09 -2.42436E-09 -2.54668E-09 -2.66267E-09 -2.77186E-09 -2.87392E-09 -2.96892E-09 -3.05703E-09 -3.13841E-09
  -3.21321E-09 -3.28159E-09 -3.34371E-09 -3.39973E-09 -3.44979E-09 -3.49407E-09 -3.53270E-09 -3.56586E-09 -3.59368E-09 -3.61633E-09
  -3.63396E-09 -3.64672E-09 -3.65477E-09 -3.65827E-09 -3.65736E-09 -3.65220E-09 -3.64295E-09 -3.62975E-09 -3.61277E-09 -3.59216E-09
  -3.56806E-09 -3.54064E-09 -3.51004E-09 -3.47643E-09 -3.43996E-09 -3.40082E-09 -3.35919E-09 -3.31527E-09 -3.26923E-09 -3.22126E-09
