 LCModel (Version 6.3-1R) Copyright: S.W. Provencher.          Ref.: Magn. Reson. Med. 30:672-679 (1993).                
 onepulse 18x17_ftSpec_smooth_lcm
 26 lines in following concentration table = NCONC+1
    Conc.  %SD   /Cr    Metabolite                                         
 1.19E-10 117%   0.000 Ala                                                 
 5.69E-10  48%   0.000 Asp                                                 
    0.000 999%   0.000 Cr                                                  
 2.76E-09  10%   0.000 GABA                                                
 1.07E-09  27%   0.000 Glc                                                 
    0.000 999%   0.000 Gln                                                 
 2.43E-10 116%   0.000 Glu                                                 
    0.000 999%   0.000 Glyc                                                
    0.000 999%   0.000 GPC                                                 
    0.000 999%   0.000 GSH                                                 
 1.56E-10  96%   0.000 Ins                                                 
    0.000 999%   0.000 Lac                                                 
    0.000 999%   0.000 NAAG                                                
 9.72E-10  13%   0.000 NAA                                                 
 9.52E-11  42%   0.000 PCh                                                 
    0.000 999%   0.000 PCr                                                 
    0.000 999%   0.000 PE                                                  
 2.72E-11 260%   0.000 Scyllo                                              
    0.000 999%   0.000 Ser                                                 
    0.000 999%   0.000 Tau                                                 
 9.52E-11  42%   0.000 GPC+PCh                                             
 9.72E-10  13%   0.000 NAA+NAAG                                            
 1.56E-10  96%   0.000 Ins+Glyc                                            
    0.000 999%   0.000 Cr+PCr                                              
 2.43E-10 116%   0.000 Glu+Gln                                             
   6 lines in following misc. output table
  FWHM = 0.067 ppm    S/N =   5                                            
  Data shift = 0.335 ppm                                                   
  Ph:  72 deg      35.4 deg/ppm                                            
  alphaB,S = 1.7E-01,   6.3E+01                                            
   16 spline knots.   Ns = 5(1)                                            
  ( 5) 2 infls.   ( 3) 1 extrs.                                            
  363 points on ppm-axis = NY
      4.250000     4.238821     4.227641     4.216462     4.205282     4.194103     4.182923     4.171744     4.160564     4.149385
      4.138206     4.127026     4.115847     4.104667     4.093488     4.082308     4.071129     4.059949     4.048770     4.037591
      4.026411     4.015232     4.004052     3.992873     3.981693     3.970514     3.959334     3.948155     3.936975     3.925796
      3.914617     3.903437     3.892258     3.881078     3.869899     3.858719     3.847540     3.836360     3.825181     3.814002
      3.802822     3.791643     3.780463     3.769284     3.758104     3.746925     3.735745     3.724566     3.713387     3.702207
      3.691028     3.679848     3.668669     3.657489     3.646310     3.635130     3.623951     3.612772     3.601592     3.590413
      3.579233     3.568054     3.556874     3.545695     3.534515     3.523336     3.512156     3.500977     3.489798     3.478618
      3.467439     3.456259     3.445080     3.433900     3.422721     3.411541     3.400362     3.389183     3.378003     3.366824
      3.355644     3.344465     3.333285     3.322106     3.310926     3.299747     3.288568     3.277388     3.266209     3.255029
      3.243850     3.232670     3.221491     3.210311     3.199132     3.187953     3.176773     3.165594     3.154414     3.143235
      3.132055     3.120876     3.109696     3.098517     3.087337     3.076158     3.064979     3.053799     3.042620     3.031440
      3.020261     3.009081     2.997902     2.986722     2.975543     2.964364     2.953184     2.942005     2.930825     2.919646
      2.908466     2.897287     2.886107     2.874928     2.863749     2.852569     2.841390     2.830210     2.819031     2.807851
      2.796672     2.785492     2.774313     2.763134     2.751954     2.740775     2.729595     2.718416     2.707236     2.696057
      2.684877     2.673698     2.662519     2.651339     2.640160     2.628980     2.617801     2.606621     2.595442     2.584262
      2.573083     2.561903     2.550724     2.539545     2.528365     2.517186     2.506006     2.494827     2.483647     2.472468
      2.461288     2.450109     2.438930     2.427750     2.416571     2.405391     2.394212     2.383032     2.371853     2.360673
      2.349494     2.338315     2.327135     2.315956     2.304776     2.293597     2.282417     2.271238     2.260058     2.248879
      2.237700     2.226520     2.215341     2.204161     2.192982     2.181802     2.170623     2.159443     2.148264     2.137084
      2.125905     2.114726     2.103546     2.092367     2.081187     2.070008     2.058828     2.047649     2.036469     2.025290
      2.014111     2.002931     1.991752     1.980572     1.969393     1.958213     1.947034     1.935854     1.924675     1.913496
      1.902316     1.891137     1.879957     1.868778     1.857598     1.846419     1.835239     1.824060     1.812881     1.801701
      1.790522     1.779342     1.768163     1.756983     1.745804     1.734624     1.723445     1.712265     1.701086     1.689907
      1.678727     1.667548     1.656368     1.645189     1.634009     1.622830     1.611650     1.600471     1.589292     1.578112
      1.566933     1.555753     1.544574     1.533394     1.522215     1.511035     1.499856     1.488677     1.477497     1.466318
      1.455138     1.443959     1.432779     1.421600     1.410420     1.399241     1.388062     1.376882     1.365703     1.354523
      1.343344     1.332164     1.320985     1.309805     1.298626     1.287446     1.276267     1.265088     1.253908     1.242729
      1.231549     1.220370     1.209190     1.198011     1.186831     1.175652     1.164473     1.153293     1.142114     1.130934
      1.119755     1.108575     1.097396     1.086216     1.075037     1.063858     1.052678     1.041499     1.030319     1.019140
      1.007960     0.996781     0.985601     0.974422     0.963243     0.952063     0.940884     0.929704     0.918525     0.907345
      0.896166     0.884986     0.873807     0.862628     0.851448     0.840269     0.829089     0.817910     0.806730     0.795551
      0.784371     0.773192     0.762012     0.750833     0.739654     0.728474     0.717295     0.706115     0.694936     0.683756
      0.672577     0.661397     0.650218     0.639039     0.627859     0.616680     0.605500     0.594321     0.583141     0.571962
      0.560782     0.549603     0.538424     0.527244     0.516065     0.504885     0.493706     0.482526     0.471347     0.460167
      0.448988     0.437809     0.426629     0.415450     0.404270     0.393091     0.381911     0.370732     0.359552     0.348373
      0.337193     0.326014     0.314835     0.303655     0.292476     0.281296     0.270117     0.258937     0.247758     0.236578
      0.225399     0.214220     0.203040
 NY phased data points follow
   1.68942E-09  4.00397E-09  6.02988E-09  6.82004E-09  7.46300E-09  5.88207E-09  5.30214E-09  4.77558E-09  4.05261E-09  3.46503E-09
   4.48775E-09  3.97862E-09  4.05382E-09  4.24874E-09  4.77063E-09  5.07522E-09  6.02538E-09  6.22197E-09  6.11296E-09  5.77597E-09
   5.83531E-09  6.00808E-09  5.96628E-09  4.37241E-09  5.27987E-09  5.43628E-09  7.40032E-09  6.61291E-09  6.66946E-09  5.87029E-09
   6.49068E-09  5.55081E-09  6.86125E-09  8.10521E-09  1.03451E-08  9.52563E-09  9.92918E-09  8.67633E-09  6.81368E-09  6.27837E-09
   6.28224E-09  6.18981E-09  5.22947E-09  5.47550E-09  5.34414E-09  4.89264E-09  5.34145E-09  4.56959E-09  4.59963E-09  3.25612E-09
   3.85522E-09  3.66063E-09  4.07737E-09  4.25119E-09  4.49603E-09  3.44129E-09  3.51728E-09  3.45735E-09  3.24886E-09  2.58671E-09
   3.00607E-09  3.28544E-09  4.14882E-09  5.35665E-09  9.24549E-09  1.18798E-08  1.27153E-08  1.07496E-08  9.21660E-09  7.13063E-09
   6.81714E-09  6.51572E-09  5.48002E-09  4.37974E-09  4.17190E-09  4.33694E-09  2.67856E-09  2.46435E-09  3.74780E-09  4.77241E-09
   7.04816E-09  1.05563E-08  1.33218E-08  1.21177E-08  1.13143E-08  9.35750E-09  8.31578E-09  8.19487E-09  7.00290E-09  6.65972E-09
   6.90833E-09  6.50003E-09  5.95112E-09  6.20430E-09  5.27646E-09  4.96927E-09  4.64335E-09  4.55419E-09  4.42099E-09  3.11409E-09
   3.80799E-09  3.38165E-09  4.26837E-09  2.85132E-09  4.19647E-09  3.86437E-09  3.96265E-09  3.96858E-09  3.72184E-09  3.59907E-09
   2.70553E-09  2.26057E-09  2.39965E-09  2.39181E-09  3.04061E-09  2.93435E-09  3.40504E-09  3.74410E-09  3.48001E-09  3.81679E-09
   4.55251E-09  3.93330E-09  3.31924E-09  3.60815E-09  2.69547E-09  1.74152E-09  1.60028E-09  2.27007E-09  2.12638E-09  2.12613E-09
   2.56242E-09  2.66270E-09  2.47314E-09  2.33672E-09  3.65605E-09  2.45573E-09  2.65470E-09  1.78938E-09  1.28962E-09  2.05819E-09
   3.23704E-09  3.07529E-09  4.42341E-09  4.29172E-09  2.82398E-09  2.50214E-09  3.70491E-09  3.92802E-09  4.38905E-09  3.69626E-09
   3.55403E-09  3.17144E-09  3.68751E-09  3.25899E-09  3.67114E-09  3.50473E-09  3.33630E-09  3.67012E-09  3.37087E-09  3.91934E-09
   4.74699E-09  4.66516E-09  4.62913E-09  4.19697E-09  4.77975E-09  4.64605E-09  4.92079E-09  5.38803E-09  5.58763E-09  7.68708E-09
   9.99780E-09  1.25746E-08  1.59764E-08  1.68470E-08  1.39918E-08  1.00800E-08  7.36727E-09  5.26458E-09  5.55279E-09  4.53526E-09
   3.16920E-09  2.83609E-09  2.59897E-09  1.91855E-09  1.52922E-09  2.07292E-09  1.08328E-10  4.98558E-10 -1.52639E-10 -1.08339E-09
  -1.03267E-09 -1.64295E-09 -2.79546E-09 -2.82000E-09 -3.24853E-09 -4.66286E-09 -5.27873E-09 -5.37834E-09 -6.11606E-09 -7.14652E-09
  -7.39266E-09 -7.50608E-09 -7.82573E-09 -7.57646E-09 -7.70348E-09 -7.71245E-09 -6.91725E-09 -6.66233E-09 -6.10692E-09 -5.60892E-09
  -5.33686E-09 -3.56964E-09 -3.18651E-09 -2.33795E-09 -2.55907E-09 -1.70669E-09 -1.63988E-09 -1.90417E-09 -1.10492E-09 -1.18739E-09
  -1.70401E-09 -2.11004E-09 -1.46631E-09 -9.39048E-10 -2.43316E-09 -1.48737E-09 -6.86885E-10 -1.64735E-09 -1.01302E-09 -1.49335E-09
  -1.01720E-09 -1.80550E-09 -1.24972E-09 -1.80414E-09 -1.93432E-09 -1.01648E-09 -1.42379E-09 -1.38833E-09 -3.79457E-10 -1.90274E-09
  -9.41948E-10 -1.15387E-09 -1.05318E-09 -8.82643E-10 -1.76935E-09 -1.65003E-09 -1.09854E-09 -8.85479E-10 -1.81355E-09 -9.37706E-10
  -9.36745E-10 -7.47702E-10 -1.56429E-10 -6.16911E-10 -1.49547E-10 -1.10310E-09 -8.07933E-10 -1.00455E-09 -1.55092E-09 -1.35607E-09
  -1.26397E-09 -1.43358E-09 -2.15468E-09 -1.76566E-09 -2.01143E-09 -1.26924E-09 -9.64857E-10 -7.72461E-10 -1.69970E-10 -2.91316E-10
  -2.03708E-11  3.27497E-11 -2.76700E-10  7.56158E-11  5.43102E-10 -2.77640E-10 -5.16357E-10 -3.98605E-10 -1.01160E-09 -1.07957E-09
  -1.27693E-09 -1.24790E-09 -1.38986E-09 -1.22885E-09 -1.48170E-09 -1.02353E-09 -1.31386E-09 -1.10576E-09 -1.34983E-09 -1.48452E-09
  -8.90861E-10 -1.01287E-09 -1.44237E-09 -8.44604E-10 -6.59870E-10 -1.10320E-09 -8.03392E-10 -8.02359E-10 -7.30095E-10 -1.35043E-09
  -5.67503E-10 -4.16453E-10 -1.26202E-09 -9.66903E-10 -7.41804E-10 -9.49805E-10 -8.86876E-10 -8.66188E-10 -7.68145E-10 -2.98621E-10
  -1.08860E-09 -8.22822E-10 -4.38121E-10 -2.71500E-10 -5.70577E-10 -5.16300E-10 -4.36741E-10 -5.01547E-10 -4.39016E-10 -3.20682E-10
  -1.87067E-11 -6.52146E-10 -1.88809E-10 -7.98962E-10 -2.09392E-10 -2.06570E-10 -4.32401E-10  6.00697E-11 -1.67736E-10 -6.43451E-11
  -5.96539E-10 -1.76082E-10 -6.04674E-10 -1.59621E-11 -6.95859E-11 -1.50774E-10 -3.36241E-10 -3.04009E-10 -1.85092E-10 -5.14150E-10
  -1.93773E-10 -2.03531E-10 -4.99010E-12  1.20320E-10 -6.30617E-10 -5.45048E-10 -1.58022E-10 -4.48417E-10  3.25794E-10 -3.00545E-10
   2.97871E-10 -1.36885E-10  1.79321E-11 -4.58037E-12  3.23457E-11 -1.25051E-10 -1.06028E-10 -2.66535E-10 -1.09740E-10 -4.25805E-10
   6.98820E-11 -9.38448E-11  1.87266E-10
 NY points of the fit to the data follow
   4.66365E-09  5.06354E-09  5.40848E-09  5.62812E-09  5.64170E-09  5.44579E-09  5.10005E-09  4.72446E-09  4.42484E-09  4.22090E-09
   4.16937E-09  4.21708E-09  4.32717E-09  4.48796E-09  4.70505E-09  4.95886E-09  5.28794E-09  5.70207E-09  6.11108E-09  6.39771E-09
   6.49090E-09  6.30369E-09  5.89197E-09  5.47363E-09  5.17103E-09  5.08037E-09  5.28690E-09  5.74247E-09  6.26547E-09  6.69448E-09
   6.92285E-09  7.12709E-09  7.46825E-09  7.81397E-09  8.11784E-09  8.53603E-09  8.87038E-09  8.87455E-09  8.47109E-09  7.78443E-09
   7.02770E-09  6.21668E-09  5.20871E-09  4.42611E-09  4.00417E-09  3.65452E-09  3.48847E-09  3.57301E-09  3.74198E-09  3.86966E-09
   3.91975E-09  3.89441E-09  3.87162E-09  3.88183E-09  3.92576E-09  3.98254E-09  4.01389E-09  4.02189E-09  3.99187E-09  4.01951E-09
   4.25807E-09  4.76218E-09  5.43748E-09  6.21885E-09  7.21428E-09  8.17800E-09  8.92167E-09  9.42422E-09  9.64116E-09  9.44892E-09
   8.79652E-09  7.76827E-09  6.62996E-09  5.72659E-09  4.87991E-09  4.16239E-09  4.07437E-09  4.48032E-09  5.20129E-09  6.45471E-09
   8.08233E-09  9.79963E-09  1.11931E-08  1.17039E-08  1.11955E-08  1.00795E-08  8.82832E-09  7.66281E-09  6.72601E-09  6.49493E-09
   6.40938E-09  6.32834E-09  6.04798E-09  5.56853E-09  5.21061E-09  4.83777E-09  4.34433E-09  3.99976E-09  3.76532E-09  3.55353E-09
   3.43420E-09  3.38652E-09  3.39092E-09  3.44244E-09  3.51276E-09  3.57207E-09  3.60240E-09  3.60523E-09  3.58050E-09  3.52129E-09
   3.42936E-09  3.33088E-09  3.26210E-09  3.19113E-09  3.13318E-09  3.11828E-09  3.11704E-09  3.12132E-09  3.12826E-09  3.13653E-09
   3.14539E-09  3.15437E-09  3.16315E-09  3.17146E-09  3.17914E-09  3.18602E-09  3.19199E-09  3.19693E-09  3.20077E-09  3.20340E-09
   3.20476E-09  3.20476E-09  3.20335E-09  3.20044E-09  3.19599E-09  3.18992E-09  3.18220E-09  3.17278E-09  3.16160E-09  3.14861E-09
   3.13376E-09  3.11699E-09  3.09819E-09  3.07729E-09  3.05423E-09  3.02892E-09  3.00129E-09  2.97130E-09  2.93889E-09  2.90401E-09
   2.86668E-09  2.82689E-09  2.78467E-09  2.74012E-09  2.69335E-09  2.64459E-09  2.59415E-09  2.54253E-09  2.49046E-09  2.43909E-09
   2.39020E-09  2.34677E-09  2.31401E-09  2.30189E-09  2.33269E-09  2.47069E-09  2.98962E-09  4.18621E-09  6.02942E-09  8.51805E-09
   1.14951E-08  1.43554E-08  1.60880E-08  1.59141E-08  1.38906E-08  1.07431E-08  7.28214E-09  4.06731E-09  1.82684E-09  8.78310E-10
   4.29745E-10  1.29115E-10 -1.08005E-10 -3.11328E-10 -4.93993E-10 -6.62646E-10 -8.20893E-10 -9.70788E-10 -1.11350E-09 -1.24969E-09
  -1.37969E-09 -1.50365E-09 -1.62153E-09 -1.73322E-09 -1.83854E-09 -1.93727E-09 -2.02924E-09 -2.11463E-09 -2.19365E-09 -2.26651E-09
  -2.33340E-09 -2.39449E-09 -2.44996E-09 -2.49999E-09 -2.54472E-09 -2.58432E-09 -2.61895E-09 -2.64876E-09 -2.67389E-09 -2.69449E-09
  -2.71072E-09 -2.72271E-09 -2.73062E-09 -2.73458E-09 -2.73473E-09 -2.73123E-09 -2.72421E-09 -2.71381E-09 -2.70017E-09 -2.68343E-09
  -2.66373E-09 -2.64121E-09 -2.61600E-09 -2.58826E-09 -2.55812E-09 -2.52573E-09 -2.49124E-09 -2.45481E-09 -2.41659E-09 -2.37673E-09
  -2.33539E-09 -2.29271E-09 -2.24886E-09 -2.20398E-09 -2.15822E-09 -2.11174E-09 -2.06468E-09 -2.01720E-09 -1.96945E-09 -1.92159E-09
  -1.87376E-09 -1.82611E-09 -1.77880E-09 -1.73198E-09 -1.68580E-09 -1.64040E-09 -1.59595E-09 -1.55259E-09 -1.51047E-09 -1.46975E-09
  -1.43057E-09 -1.39309E-09 -1.35737E-09 -1.32335E-09 -1.29099E-09 -1.26024E-09 -1.23103E-09 -1.20331E-09 -1.17703E-09 -1.15212E-09
  -1.12855E-09 -1.10623E-09 -1.08514E-09 -1.06520E-09 -1.04636E-09 -1.02858E-09 -1.01177E-09 -9.95918E-10 -9.80946E-10 -9.66795E-10
  -9.53412E-10 -9.40752E-10 -9.28747E-10 -9.17346E-10 -9.06503E-10 -8.96143E-10 -8.86233E-10 -8.76704E-10 -8.67507E-10 -8.58580E-10
  -8.49892E-10 -8.41423E-10 -8.33149E-10 -8.25048E-10 -8.17107E-10 -8.09297E-10 -8.01604E-10 -7.94001E-10 -7.86472E-10 -7.78997E-10
  -7.71552E-10 -7.64120E-10 -7.56677E-10 -7.49205E-10 -7.41683E-10 -7.34090E-10 -7.26406E-10 -7.18609E-10 -7.10685E-10 -7.02601E-10
  -6.94350E-10 -6.85902E-10 -6.77239E-10 -6.68347E-10 -6.59198E-10 -6.49773E-10 -6.40055E-10 -6.30019E-10 -6.19675E-10 -6.09038E-10
  -5.98126E-10 -5.86956E-10 -5.75548E-10 -5.63914E-10 -5.52076E-10 -5.40049E-10 -5.27852E-10 -5.15501E-10 -5.03016E-10 -4.90409E-10
  -4.77705E-10 -4.64913E-10 -4.52055E-10 -4.39151E-10 -4.26212E-10 -4.13261E-10 -4.00312E-10 -3.87382E-10 -3.74490E-10 -3.61656E-10
  -3.48890E-10 -3.36215E-10 -3.23645E-10 -3.11201E-10 -2.98899E-10 -2.86750E-10 -2.74756E-10 -2.62912E-10 -2.51206E-10 -2.39634E-10
  -2.28188E-10 -2.16860E-10 -2.05643E-10 -1.94529E-10 -1.83514E-10 -1.72585E-10 -1.61741E-10 -1.50971E-10 -1.40269E-10 -1.29627E-10
  -1.19037E-10 -1.08494E-10 -9.79895E-11 -8.75166E-11 -7.70674E-11 -6.66362E-11 -5.62144E-11 -4.57933E-11 -3.53679E-11 -2.49326E-11
  -1.44778E-11 -3.99769E-12  6.51934E-12
 NY background values follow
    -1.309E-10   -1.050E-10   -7.921E-11   -5.340E-11   -2.762E-11   -1.889E-12    2.377E-11    4.935E-11    7.481E-11    1.002E-10
     1.254E-10    1.504E-10    1.753E-10    2.000E-10    2.244E-10    2.487E-10    2.727E-10    2.964E-10    3.198E-10    3.430E-10
     3.658E-10    3.883E-10    4.104E-10    4.322E-10    4.536E-10    4.746E-10    4.951E-10    5.152E-10    5.348E-10    5.540E-10
     5.727E-10    5.911E-10    6.090E-10    6.265E-10    6.438E-10    6.607E-10    6.773E-10    6.937E-10    7.099E-10    7.259E-10
     7.417E-10    7.573E-10    7.729E-10    7.883E-10    8.037E-10    8.191E-10    8.345E-10    8.499E-10    8.654E-10    8.809E-10
     8.966E-10    9.123E-10    9.283E-10    9.444E-10    9.608E-10    9.774E-10    9.943E-10    1.012E-09    1.029E-09    1.047E-09
     1.065E-09    1.083E-09    1.102E-09    1.121E-09    1.141E-09    1.160E-09    1.180E-09    1.201E-09    1.222E-09    1.243E-09
     1.264E-09    1.286E-09    1.309E-09    1.331E-09    1.354E-09    1.378E-09    1.401E-09    1.426E-09    1.450E-09    1.475E-09
     1.501E-09    1.527E-09    1.553E-09    1.580E-09    1.607E-09    1.634E-09    1.662E-09    1.691E-09    1.719E-09    1.748E-09
     1.777E-09    1.806E-09    1.836E-09    1.865E-09    1.895E-09    1.924E-09    1.954E-09    1.983E-09    2.012E-09    2.042E-09
     2.071E-09    2.099E-09    2.128E-09    2.156E-09    2.183E-09    2.211E-09    2.238E-09    2.264E-09    2.290E-09    2.315E-09
     2.340E-09    2.364E-09    2.387E-09    2.409E-09    2.431E-09    2.452E-09    2.472E-09    2.491E-09    2.509E-09    2.526E-09
     2.542E-09    2.557E-09    2.571E-09    2.583E-09    2.594E-09    2.604E-09    2.612E-09    2.619E-09    2.625E-09    2.629E-09
     2.632E-09    2.632E-09    2.632E-09    2.629E-09    2.625E-09    2.619E-09    2.611E-09    2.601E-09    2.589E-09    2.575E-09
     2.560E-09    2.542E-09    2.521E-09    2.499E-09    2.474E-09    2.446E-09    2.416E-09    2.383E-09    2.347E-09    2.309E-09
     2.267E-09    2.222E-09    2.174E-09    2.123E-09    2.068E-09    2.010E-09    1.948E-09    1.882E-09    1.813E-09    1.739E-09
     1.662E-09    1.580E-09    1.494E-09    1.404E-09    1.310E-09    1.211E-09    1.107E-09    9.988E-10    8.857E-10    7.682E-10
     6.466E-10    5.213E-10    3.927E-10    2.613E-10    1.275E-10   -8.498E-12   -1.461E-10   -2.850E-10   -4.248E-10   -5.651E-10
    -7.055E-10   -8.456E-10   -9.850E-10   -1.123E-09   -1.260E-09   -1.395E-09   -1.528E-09   -1.657E-09   -1.784E-09   -1.908E-09
    -2.027E-09   -2.142E-09   -2.253E-09   -2.358E-09   -2.458E-09   -2.553E-09   -2.641E-09   -2.723E-09   -2.799E-09   -2.869E-09
    -2.934E-09   -2.993E-09   -3.046E-09   -3.095E-09   -3.138E-09   -3.176E-09   -3.210E-09   -3.239E-09   -3.263E-09   -3.283E-09
    -3.298E-09   -3.309E-09   -3.317E-09   -3.320E-09   -3.320E-09   -3.316E-09   -3.308E-09   -3.297E-09   -3.283E-09   -3.266E-09
    -3.246E-09   -3.224E-09   -3.198E-09   -3.170E-09   -3.140E-09   -3.107E-09   -3.072E-09   -3.036E-09   -2.998E-09   -2.958E-09
    -2.916E-09   -2.873E-09   -2.829E-09   -2.784E-09   -2.738E-09   -2.692E-09   -2.645E-09   -2.597E-09   -2.549E-09   -2.501E-09
    -2.454E-09   -2.406E-09   -2.358E-09   -2.312E-09   -2.265E-09   -2.220E-09   -2.175E-09   -2.132E-09   -2.090E-09   -2.049E-09
    -2.010E-09   -1.972E-09   -1.936E-09   -1.902E-09   -1.870E-09   -1.839E-09   -1.810E-09   -1.782E-09   -1.756E-09   -1.731E-09
    -1.707E-09   -1.685E-09   -1.664E-09   -1.644E-09   -1.625E-09   -1.607E-09   -1.590E-09   -1.574E-09   -1.559E-09   -1.545E-09
    -1.531E-09   -1.519E-09   -1.507E-09   -1.495E-09   -1.484E-09   -1.474E-09   -1.464E-09   -1.454E-09   -1.445E-09   -1.436E-09
    -1.427E-09   -1.418E-09   -1.410E-09   -1.402E-09   -1.394E-09   -1.386E-09   -1.378E-09   -1.370E-09   -1.363E-09   -1.355E-09
    -1.348E-09   -1.340E-09   -1.332E-09   -1.325E-09   -1.317E-09   -1.309E-09   -1.302E-09   -1.294E-09   -1.286E-09   -1.277E-09
    -1.269E-09   -1.260E-09   -1.252E-09   -1.243E-09   -1.233E-09   -1.224E-09   -1.214E-09   -1.204E-09   -1.193E-09   -1.182E-09
    -1.171E-09   -1.160E-09   -1.148E-09   -1.136E-09   -1.124E-09   -1.112E-09   -1.100E-09   -1.087E-09   -1.074E-09   -1.062E-09
    -1.049E-09   -1.036E-09   -1.023E-09   -1.010E-09   -9.964E-10   -9.832E-10   -9.700E-10   -9.569E-10   -9.437E-10   -9.307E-10
    -9.176E-10   -9.047E-10   -8.919E-10   -8.792E-10   -8.666E-10   -8.542E-10   -8.420E-10   -8.299E-10   -8.179E-10   -8.061E-10
    -7.943E-10   -7.827E-10   -7.712E-10   -7.598E-10   -7.485E-10   -7.373E-10   -7.262E-10   -7.151E-10   -7.041E-10   -6.932E-10
    -6.823E-10   -6.714E-10   -6.606E-10   -6.498E-10   -6.390E-10   -6.283E-10   -6.175E-10   -6.068E-10   -5.960E-10   -5.852E-10
    -5.744E-10   -5.636E-10   -5.527E-10
 Ala      Conc. = 1.19E-10
  -3.77358E-11 -2.56090E-12  2.92887E-11  5.76554E-11  8.34063E-11  1.06542E-10  1.25282E-10  1.38612E-10  1.53050E-10  1.68706E-10
   1.79539E-10  1.92900E-10  2.10798E-10  2.28153E-10  2.46971E-10  2.67919E-10  2.89791E-10  3.12059E-10  3.34455E-10  3.56823E-10
   3.79061E-10  4.01098E-10  4.22879E-10  4.44365E-10  4.65521E-10  4.86312E-10  5.06714E-10  5.26703E-10  5.46254E-10  5.65356E-10
   5.84030E-10  6.02300E-10  6.20193E-10  6.37734E-10  6.54949E-10  6.71866E-10  6.88509E-10  7.04908E-10  7.21088E-10  7.37077E-10
   7.52902E-10  7.68592E-10  7.84172E-10  7.99671E-10  8.15115E-10  8.30534E-10  8.45954E-10  8.61403E-10  8.76910E-10  8.92502E-10
   9.08206E-10  9.24051E-10  9.40064E-10  9.56273E-10  9.72708E-10  9.89394E-10  1.00636E-09  1.02363E-09  1.04120E-09  1.05909E-09
   1.07729E-09  1.09582E-09  1.11468E-09  1.13387E-09  1.15340E-09  1.17328E-09  1.19351E-09  1.21409E-09  1.23504E-09  1.25636E-09
   1.27806E-09  1.30013E-09  1.32260E-09  1.34546E-09  1.36872E-09  1.39240E-09  1.41649E-09  1.44100E-09  1.46595E-09  1.49134E-09
   1.51718E-09  1.54349E-09  1.57027E-09  1.59754E-09  1.62531E-09  1.65358E-09  1.68233E-09  1.71153E-09  1.74116E-09  1.77123E-09
   1.80174E-09  1.83270E-09  1.86417E-09  1.89623E-09  1.92903E-09  1.96284E-09  1.99813E-09  2.03585E-09  2.07810E-09  2.13107E-09
   2.20572E-09  2.29296E-09  2.39640E-09  2.52344E-09  2.65288E-09  2.75937E-09  2.82788E-09  2.86207E-09  2.86355E-09  2.82649E-09
   2.75359E-09  2.67141E-09  2.61656E-09  2.55752E-09  2.50980E-09  2.50372E-09  2.51021E-09  2.52126E-09  2.53411E-09  2.54754E-09
   2.56090E-09  2.57379E-09  2.58595E-09  2.59722E-09  2.60745E-09  2.61654E-09  2.62439E-09  2.63093E-09  2.63608E-09  2.63979E-09
   2.64198E-09  2.64260E-09  2.64160E-09  2.63891E-09  2.63450E-09  2.62829E-09  2.62025E-09  2.61032E-09  2.59846E-09  2.58460E-09
   2.56869E-09  2.55067E-09  2.53041E-09  2.50783E-09  2.48283E-09  2.45530E-09  2.42514E-09  2.39226E-09  2.35656E-09  2.31793E-09
   2.27629E-09  2.23153E-09  2.18356E-09  2.13227E-09  2.07759E-09  2.01939E-09  1.95761E-09  1.89215E-09  1.82292E-09  1.74985E-09
   1.67286E-09  1.59191E-09  1.50701E-09  1.41819E-09  1.32573E-09  1.23049E-09  1.13626E-09  1.05316E-09  9.78096E-10  9.12250E-10
   8.54494E-10  7.94570E-10  7.11145E-10  5.84496E-10  4.14402E-10  2.16652E-10  1.02202E-11 -1.93482E-10 -3.82610E-10 -5.37594E-10
  -6.84055E-10 -8.27428E-10 -9.68859E-10 -1.10853E-09 -1.24631E-09 -1.38194E-09 -1.51512E-09 -1.64550E-09 -1.77270E-09 -1.89636E-09
  -2.01610E-09 -2.13154E-09 -2.24229E-09 -2.34793E-09 -2.44811E-09 -2.54241E-09 -2.63056E-09 -2.71263E-09 -2.78875E-09 -2.85906E-09
  -2.92371E-09 -2.98282E-09 -3.03654E-09 -3.08499E-09 -3.12833E-09 -3.16669E-09 -3.20019E-09 -3.22899E-09 -3.25322E-09 -3.27300E-09
  -3.28849E-09 -3.29982E-09 -3.30712E-09 -3.31053E-09 -3.31019E-09 -3.30623E-09 -3.29880E-09 -3.28802E-09 -3.27403E-09 -3.25698E-09
  -3.23699E-09 -3.21421E-09 -3.18877E-09 -3.16080E-09 -3.13046E-09 -3.09788E-09 -3.06323E-09 -3.02664E-09 -2.98828E-09 -2.94829E-09
  -2.90682E-09 -2.86404E-09 -2.82008E-09 -2.77510E-09 -2.72925E-09 -2.68268E-09 -2.63555E-09 -2.58800E-09 -2.54017E-09 -2.49225E-09
  -2.44436E-09 -2.39665E-09 -2.34928E-09 -2.30241E-09 -2.25617E-09 -2.21073E-09 -2.16622E-09 -2.12281E-09 -2.08065E-09 -2.03988E-09
  -2.00065E-09 -1.96313E-09 -1.92736E-09 -1.89329E-09 -1.86089E-09 -1.83009E-09 -1.80083E-09 -1.77306E-09 -1.74673E-09 -1.72177E-09
  -1.69814E-09 -1.67577E-09 -1.65462E-09 -1.63463E-09 -1.61573E-09 -1.59789E-09 -1.58102E-09 -1.56510E-09 -1.55007E-09 -1.53585E-09
  -1.52240E-09 -1.50966E-09 -1.49758E-09 -1.48611E-09 -1.47519E-09 -1.46475E-09 -1.45475E-09 -1.44514E-09 -1.43586E-09 -1.42684E-09
  -1.41806E-09 -1.40949E-09 -1.40112E-09 -1.39292E-09 -1.38488E-09 -1.37696E-09 -1.36916E-09 -1.36145E-09 -1.35381E-09 -1.34622E-09
  -1.33865E-09 -1.33110E-09 -1.32353E-09 -1.31594E-09 -1.30828E-09 -1.30056E-09 -1.29274E-09 -1.28481E-09 -1.27674E-09 -1.26851E-09
  -1.26012E-09 -1.25152E-09 -1.24270E-09 -1.23366E-09 -1.22435E-09 -1.21476E-09 -1.20488E-09 -1.19468E-09 -1.18416E-09 -1.17335E-09
  -1.16227E-09 -1.15092E-09 -1.13933E-09 -1.12751E-09 -1.11548E-09 -1.10327E-09 -1.09087E-09 -1.07833E-09 -1.06564E-09 -1.05283E-09
  -1.03992E-09 -1.02692E-09 -1.01385E-09 -1.00073E-09 -9.87571E-10 -9.74399E-10 -9.61225E-10 -9.48067E-10 -9.34943E-10 -9.21875E-10
  -9.08871E-10 -8.95955E-10 -8.83142E-10 -8.70450E-10 -8.57898E-10 -8.45495E-10 -8.33245E-10 -8.21140E-10 -8.09172E-10 -7.97333E-10
  -7.85618E-10 -7.74017E-10 -7.62523E-10 -7.51130E-10 -7.39833E-10 -7.28618E-10 -7.17485E-10 -7.06422E-10 -6.95425E-10 -6.84483E-10
  -6.73591E-10 -6.62742E-10 -6.51928E-10 -6.41142E-10 -6.30377E-10 -6.19626E-10 -6.08882E-10 -5.98134E-10 -5.87379E-10 -5.76611E-10
  -5.65820E-10 -5.54999E-10 -5.44139E-10
 Asp      Conc. = 5.69E-10
   5.51470E-10  4.90057E-10  4.18850E-10  3.35852E-10  2.62340E-10  1.95086E-10  1.54199E-10  1.33623E-10  1.39288E-10  1.54842E-10
   1.75106E-10  1.97864E-10  2.21979E-10  2.46805E-10  2.71726E-10  2.96639E-10  3.21571E-10  3.46480E-10  3.71325E-10  3.96078E-10
   4.20717E-10  4.45232E-10  4.69617E-10  4.93882E-10  5.18042E-10  5.42120E-10  5.66161E-10  5.90224E-10  6.14392E-10  6.38795E-10
   6.63645E-10  6.89237E-10  7.15991E-10  7.44551E-10  7.76001E-10  8.12431E-10  8.58425E-10  9.12516E-10  9.78295E-10  1.04859E-09
   1.11641E-09  1.17200E-09  1.21000E-09  1.23823E-09  1.27049E-09  1.34290E-09  1.45813E-09  1.61465E-09  1.80131E-09  1.95360E-09
   2.03018E-09  2.00576E-09  1.91414E-09  1.79262E-09  1.66559E-09  1.55577E-09  1.46039E-09  1.41192E-09  1.35840E-09  1.30911E-09
   1.30576E-09  1.31976E-09  1.32580E-09  1.32843E-09  1.32640E-09  1.31409E-09  1.29637E-09  1.29473E-09  1.30132E-09  1.31252E-09
   1.32668E-09  1.34293E-09  1.36077E-09  1.37986E-09  1.40001E-09  1.42105E-09  1.44289E-09  1.46545E-09  1.48867E-09  1.51251E-09
   1.53694E-09  1.56193E-09  1.58747E-09  1.61355E-09  1.64015E-09  1.66724E-09  1.69477E-09  1.72270E-09  1.75097E-09  1.77954E-09
   1.80836E-09  1.83738E-09  1.86657E-09  1.89586E-09  1.92523E-09  1.95462E-09  1.98399E-09  2.01331E-09  2.04252E-09  2.07158E-09
   2.10045E-09  2.12909E-09  2.15746E-09  2.18551E-09  2.21319E-09  2.24048E-09  2.26733E-09  2.29368E-09  2.31952E-09  2.34478E-09
   2.36943E-09  2.39343E-09  2.41673E-09  2.43929E-09  2.46106E-09  2.48199E-09  2.50204E-09  2.52115E-09  2.53928E-09  2.55638E-09
   2.57239E-09  2.58728E-09  2.60099E-09  2.61348E-09  2.62469E-09  2.63458E-09  2.64310E-09  2.65021E-09  2.65585E-09  2.65997E-09
   2.66254E-09  2.66349E-09  2.66278E-09  2.66037E-09  2.65620E-09  2.65024E-09  2.64242E-09  2.63271E-09  2.62105E-09  2.60740E-09
   2.59171E-09  2.57389E-09  2.55385E-09  2.53150E-09  2.50672E-09  2.47944E-09  2.44955E-09  2.41695E-09  2.38156E-09  2.34327E-09
   2.30201E-09  2.25767E-09  2.21018E-09  2.15944E-09  2.10538E-09  2.04793E-09  1.98702E-09  1.92261E-09  1.85466E-09  1.78318E-09
   1.70823E-09  1.62994E-09  1.54864E-09  1.46495E-09  1.38034E-09  1.29857E-09  1.23355E-09  1.23768E-09  1.29860E-09  1.41953E-09
   1.59697E-09  1.78741E-09  1.89135E-09  1.80599E-09  1.51719E-09  1.09304E-09  6.25291E-10  1.70499E-10 -2.23173E-10 -4.47094E-10
  -6.18937E-10 -7.75170E-10 -9.24245E-10 -1.06891E-09 -1.21014E-09 -1.34829E-09 -1.48336E-09 -1.61519E-09 -1.74354E-09 -1.86812E-09
  -1.98860E-09 -2.10465E-09 -2.21591E-09 -2.32199E-09 -2.42252E-09 -2.51714E-09 -2.60556E-09 -2.68786E-09 -2.76418E-09 -2.83467E-09
  -2.89947E-09 -2.95872E-09 -3.01256E-09 -3.06113E-09 -3.10456E-09 -3.14300E-09 -3.17658E-09 -3.20545E-09 -3.22974E-09 -3.24958E-09
  -3.26512E-09 -3.27649E-09 -3.28383E-09 -3.28729E-09 -3.28698E-09 -3.28305E-09 -3.27565E-09 -3.26489E-09 -3.25093E-09 -3.23390E-09
  -3.21394E-09 -3.19117E-09 -3.16575E-09 -3.13780E-09 -3.10747E-09 -3.07491E-09 -3.04026E-09 -3.00369E-09 -2.96533E-09 -2.92536E-09
