 LCModel (Version 6.3-1R) Copyright: S.W. Provencher.          Ref.: Magn. Reson. Med. 30:672-679 (1993).                
 onepulse 18x15_ftSpec_smooth_lcm
 26 lines in following concentration table = NCONC+1
    Conc.  %SD   /Cr    Metabolite                                         
 1.29E-10 109%   0.000 Ala                                                 
 6.07E-10  45%   0.000 Asp                                                 
    0.000 999%   0.000 Cr                                                  
 3.05E-09   8%   0.000 GABA                                                
 8.82E-10  54%   0.000 Glc                                                 
    0.000 999%   0.000 Gln                                                 
 1.06E-10 274%   0.000 Glu                                                 
    0.000 999%   0.000 Glyc                                                
    0.000 999%   0.000 GPC                                                 
    0.000 999%   0.000 GSH                                                 
 1.17E-10 143%   0.000 Ins                                                 
    0.000 999%   0.000 Lac                                                 
    0.000 999%   0.000 NAAG                                                
 1.06E-09  11%   0.000 NAA                                                 
 8.57E-11  85%   0.000 PCh                                                 
    0.000 999%   0.000 PCr                                                 
    0.000 999%   0.000 PE                                                  
 1.08E-11 997%   0.000 Scyllo                                              
    0.000 999%   0.000 Ser                                                 
 1.07E-10 470%   0.000 Tau                                                 
 8.57E-11  85%   0.000 GPC+PCh                                             
 1.06E-09  11%   0.000 NAA+NAAG                                            
 1.17E-10 143%   0.000 Ins+Glyc                                            
    0.000 999%   0.000 Cr+PCr                                              
 1.06E-10 274%   0.000 Glu+Gln                                             
   6 lines in following misc. output table
  FWHM = 0.078 ppm    S/N =   5                                            
  Data shift = 0.347 ppm                                                   
  Ph:  86 deg      36.6 deg/ppm                                            
  alphaB,S = 1.6E-01,   1.0E+02                                            
   16 spline knots.   Ns = 5(1)                                            
  ( 7) 2 infls.   ( 3) 1 extrs.                                            
  363 points on ppm-axis = NY
      4.250000     4.238821     4.227641     4.216462     4.205282     4.194103     4.182923     4.171744     4.160564     4.149385
      4.138206     4.127026     4.115847     4.104667     4.093488     4.082308     4.071129     4.059949     4.048770     4.037591
      4.026411     4.015232     4.004052     3.992873     3.981693     3.970514     3.959334     3.948155     3.936975     3.925796
      3.914617     3.903437     3.892258     3.881078     3.869899     3.858719     3.847540     3.836360     3.825181     3.814002
      3.802822     3.791643     3.780463     3.769284     3.758104     3.746925     3.735745     3.724566     3.713387     3.702207
      3.691028     3.679848     3.668669     3.657489     3.646310     3.635130     3.623951     3.612772     3.601592     3.590413
      3.579233     3.568054     3.556874     3.545695     3.534515     3.523336     3.512156     3.500977     3.489798     3.478618
      3.467439     3.456259     3.445080     3.433900     3.422721     3.411541     3.400362     3.389183     3.378003     3.366824
      3.355644     3.344465     3.333285     3.322106     3.310926     3.299747     3.288568     3.277388     3.266209     3.255029
      3.243850     3.232670     3.221491     3.210311     3.199132     3.187953     3.176773     3.165594     3.154414     3.143235
      3.132055     3.120876     3.109696     3.098517     3.087337     3.076158     3.064979     3.053799     3.042620     3.031440
      3.020261     3.009081     2.997902     2.986722     2.975543     2.964364     2.953184     2.942005     2.930825     2.919646
      2.908466     2.897287     2.886107     2.874928     2.863749     2.852569     2.841390     2.830210     2.819031     2.807851
      2.796672     2.785492     2.774313     2.763134     2.751954     2.740775     2.729595     2.718416     2.707236     2.696057
      2.684877     2.673698     2.662519     2.651339     2.640160     2.628980     2.617801     2.606621     2.595442     2.584262
      2.573083     2.561903     2.550724     2.539545     2.528365     2.517186     2.506006     2.494827     2.483647     2.472468
      2.461288     2.450109     2.438930     2.427750     2.416571     2.405391     2.394212     2.383032     2.371853     2.360673
      2.349494     2.338315     2.327135     2.315956     2.304776     2.293597     2.282417     2.271238     2.260058     2.248879
      2.237700     2.226520     2.215341     2.204161     2.192982     2.181802     2.170623     2.159443     2.148264     2.137084
      2.125905     2.114726     2.103546     2.092367     2.081187     2.070008     2.058828     2.047649     2.036469     2.025290
      2.014111     2.002931     1.991752     1.980572     1.969393     1.958213     1.947034     1.935854     1.924675     1.913496
      1.902316     1.891137     1.879957     1.868778     1.857598     1.846419     1.835239     1.824060     1.812881     1.801701
      1.790522     1.779342     1.768163     1.756983     1.745804     1.734624     1.723445     1.712265     1.701086     1.689907
      1.678727     1.667548     1.656368     1.645189     1.634009     1.622830     1.611650     1.600471     1.589292     1.578112
      1.566933     1.555753     1.544574     1.533394     1.522215     1.511035     1.499856     1.488677     1.477497     1.466318
      1.455138     1.443959     1.432779     1.421600     1.410420     1.399241     1.388062     1.376882     1.365703     1.354523
      1.343344     1.332164     1.320985     1.309805     1.298626     1.287446     1.276267     1.265088     1.253908     1.242729
      1.231549     1.220370     1.209190     1.198011     1.186831     1.175652     1.164473     1.153293     1.142114     1.130934
      1.119755     1.108575     1.097396     1.086216     1.075037     1.063858     1.052678     1.041499     1.030319     1.019140
      1.007960     0.996781     0.985601     0.974422     0.963243     0.952063     0.940884     0.929704     0.918525     0.907345
      0.896166     0.884986     0.873807     0.862628     0.851448     0.840269     0.829089     0.817910     0.806730     0.795551
      0.784371     0.773192     0.762012     0.750833     0.739654     0.728474     0.717295     0.706115     0.694936     0.683756
      0.672577     0.661397     0.650218     0.639039     0.627859     0.616680     0.605500     0.594321     0.583141     0.571962
      0.560782     0.549603     0.538424     0.527244     0.516065     0.504885     0.493706     0.482526     0.471347     0.460167
      0.448988     0.437809     0.426629     0.415450     0.404270     0.393091     0.381911     0.370732     0.359552     0.348373
      0.337193     0.326014     0.314835     0.303655     0.292476     0.281296     0.270117     0.258937     0.247758     0.236578
      0.225399     0.214220     0.203040
 NY phased data points follow
   1.34210E-09  4.12233E-09  5.63055E-09  6.14549E-09  4.76796E-09  4.28551E-09  3.81138E-09  3.95084E-09  2.57869E-09  3.13958E-09
   3.29406E-09  3.23235E-09  3.25921E-09  4.19650E-09  4.14056E-09  4.96681E-09  5.62731E-09  5.83043E-09  5.11004E-09  5.36392E-09
   4.98137E-09  5.30332E-09  3.76526E-09  4.62457E-09  4.66771E-09  6.45668E-09  6.46453E-09  6.64282E-09  5.52946E-09  5.97538E-09
   5.19824E-09  6.29995E-09  7.98804E-09  1.01367E-08  1.02240E-08  1.04717E-08  9.46141E-09  7.64589E-09  6.84302E-09  7.33531E-09
   6.86272E-09  6.51616E-09  5.62665E-09  5.94476E-09  5.66249E-09  6.19364E-09  4.94575E-09  4.79760E-09  3.58109E-09  3.83227E-09
   4.15208E-09  4.65067E-09  4.04462E-09  4.81567E-09  3.47835E-09  3.62329E-09  3.09798E-09  3.10499E-09  2.34132E-09  2.69524E-09
   2.32375E-09  3.07555E-09  3.97467E-09  8.35575E-09  1.17190E-08  1.30939E-08  1.13085E-08  1.02214E-08  8.48045E-09  7.98123E-09
   7.13320E-09  6.57602E-09  5.62325E-09  4.99314E-09  4.22321E-09  3.84561E-09  2.40090E-09  3.12563E-09  4.06203E-09  5.92953E-09
   9.82043E-09  1.33485E-08  1.30038E-08  1.21792E-08  1.07096E-08  9.50095E-09  9.07195E-09  8.71981E-09  8.21930E-09  8.34504E-09
   8.03449E-09  7.38891E-09  6.68414E-09  6.77591E-09  5.85365E-09  5.48650E-09  5.50198E-09  5.13774E-09  4.21559E-09  4.58336E-09
   4.34990E-09  4.23125E-09  4.08061E-09  4.53508E-09  4.53366E-09  4.22863E-09  4.44056E-09  4.13014E-09  3.98888E-09  3.66334E-09
   2.34984E-09  2.82917E-09  2.29053E-09  2.94897E-09  3.21218E-09  3.60775E-09  3.54000E-09  3.59332E-09  3.78838E-09  4.42672E-09
   4.25839E-09  4.18510E-09  3.92891E-09  3.25438E-09  2.10462E-09  2.10671E-09  2.32317E-09  2.18133E-09  1.80794E-09  2.53214E-09
   2.47014E-09  2.56010E-09  2.45580E-09  2.97405E-09  2.46852E-09  2.66718E-09  1.88566E-09  1.52292E-09  1.51515E-09  3.06078E-09
   2.96377E-09  4.31089E-09  4.27056E-09  3.48677E-09  2.79327E-09  3.76665E-09  4.16913E-09  4.04836E-09  4.28052E-09  3.63906E-09
   3.54120E-09  3.56567E-09  2.96685E-09  3.28202E-09  2.98256E-09  3.04178E-09  3.28563E-09  2.80723E-09  3.13529E-09  3.55617E-09
   3.57419E-09  4.11121E-09  3.51828E-09  3.91672E-09  3.30324E-09  3.72688E-09  4.12824E-09  4.27142E-09  5.71758E-09  7.31291E-09
   1.06644E-08  1.51551E-08  1.71103E-08  1.48722E-08  1.09267E-08  8.79120E-09  6.90780E-09  6.18106E-09  4.89870E-09  3.74318E-09
   3.48896E-09  2.81383E-09  1.91881E-09  1.69371E-09  1.37843E-09 -2.94007E-10 -1.93898E-10 -4.41077E-10 -1.87663E-09 -2.57170E-09
  -3.22348E-09 -3.76165E-09 -3.69433E-09 -4.34426E-09 -5.64560E-09 -6.45443E-09 -6.29022E-09 -6.58837E-09 -7.41196E-09 -7.69667E-09
  -7.40947E-09 -7.38405E-09 -6.93062E-09 -6.56337E-09 -6.10369E-09 -5.19291E-09 -5.16503E-09 -4.57773E-09 -3.85573E-09 -3.05990E-09
  -2.14680E-09 -2.11699E-09 -1.44644E-09 -1.39030E-09 -1.19050E-09 -9.07369E-10 -1.60891E-09 -8.18403E-10 -1.07740E-09 -1.33496E-09
  -1.67614E-09 -1.17503E-09 -7.14995E-10 -1.46339E-09 -9.61068E-10 -1.22606E-10 -1.54438E-09 -9.77274E-10 -9.10521E-10 -7.30385E-10
  -1.48369E-09 -9.95723E-10 -1.45843E-09 -8.89528E-10 -1.00455E-09 -8.47026E-10 -9.29283E-10 -3.02407E-10 -1.15930E-09 -9.74340E-10
  -1.12295E-09 -8.35392E-10 -2.49186E-10 -1.09479E-09 -1.57274E-09 -6.80578E-10 -6.63349E-10 -1.10248E-09 -3.16587E-10 -9.68710E-10
  -6.83775E-10  5.40037E-10 -3.44965E-10  5.97017E-11 -1.78246E-10 -4.99807E-10 -6.71518E-10 -1.20650E-09 -1.33152E-09 -9.41377E-10
  -1.52070E-09 -1.69548E-09 -1.44723E-09 -1.51790E-09 -1.16559E-09 -4.33838E-10 -6.03253E-10 -2.19759E-10 -3.57164E-11  1.30954E-10
   7.66828E-10  6.24440E-10  3.95590E-10  7.04963E-10  1.91339E-10  8.36516E-11  3.43529E-11 -2.13021E-10 -4.38188E-10 -9.27389E-10
  -4.65886E-10 -6.06078E-10 -1.69410E-09 -1.05451E-09 -9.48714E-10 -7.25163E-10 -9.06987E-10 -1.49437E-09 -1.67425E-09 -2.89130E-10
  -7.07431E-10 -1.09936E-09 -9.30251E-10 -3.87601E-10 -5.36308E-10 -8.84726E-10 -8.43323E-10 -4.93366E-10 -1.03956E-09 -4.81034E-10
  -4.72718E-10 -9.34418E-10 -8.18010E-10 -1.19778E-10 -4.93838E-10 -7.06071E-10 -5.58577E-10 -4.72086E-11  1.73139E-10 -3.65126E-10
  -3.33632E-10 -5.48331E-10 -1.78615E-10  1.31741E-10 -3.48553E-10 -3.50062E-10  2.31958E-10  2.99243E-10 -2.61161E-10  1.67097E-10
  -3.30901E-11  7.95046E-11  4.64806E-11  2.43479E-10 -1.36842E-10  4.78725E-10  3.39987E-10  1.56637E-10  2.16515E-10  2.86845E-10
   3.30833E-10 -9.74155E-11  1.83668E-10  9.23670E-10 -2.45503E-12  4.25094E-10  5.64053E-11  6.47573E-10 -3.26319E-10  9.09336E-10
   6.46765E-10  5.14200E-10  5.45165E-10  5.71991E-10  4.21878E-10  4.92272E-10  1.77346E-10  4.65137E-10  7.24886E-10  1.03446E-09
   2.66128E-10  3.79496E-10  8.17780E-10  5.78982E-10  6.22312E-10  7.83999E-10  9.13147E-10  5.88726E-10  3.23252E-10  5.76608E-10
   7.83992E-10  7.86846E-10  6.22992E-10
 NY points of the fit to the data follow
   4.03758E-09  4.30123E-09  4.47273E-09  4.51230E-09  4.40026E-09  4.17520E-09  3.90010E-09  3.65309E-09  3.48464E-09  3.40374E-09
   3.42635E-09  3.51427E-09  3.65007E-09  3.84175E-09  4.11527E-09  4.46440E-09  4.88383E-09  5.30801E-09  5.60742E-09  5.69532E-09
   5.57906E-09  5.28831E-09  4.93047E-09  4.69636E-09  4.65533E-09  4.82640E-09  5.20694E-09  5.67044E-09  6.12077E-09  6.54478E-09
   6.86283E-09  7.22229E-09  7.77487E-09  8.30099E-09  8.73073E-09  9.18957E-09  9.46927E-09  9.36440E-09  8.88481E-09  8.15854E-09
   7.33666E-09  6.45522E-09  5.40245E-09  4.58843E-09  4.20700E-09  3.93379E-09  3.79013E-09  3.84909E-09  3.94520E-09  3.99725E-09
   4.01311E-09  4.01891E-09  4.05833E-09  4.10309E-09  4.11876E-09  4.10481E-09  4.07100E-09  4.05734E-09  4.07242E-09  4.18314E-09
   4.48202E-09  5.04041E-09  5.78178E-09  6.60957E-09  7.65859E-09  8.68186E-09  9.42687E-09  9.89344E-09  1.00213E-08  9.69015E-09
   8.94411E-09  7.91978E-09  6.84482E-09  5.94299E-09  5.08079E-09  4.36831E-09  4.27929E-09  4.85928E-09  5.94402E-09  7.59706E-09
   9.47500E-09  1.10411E-08  1.19321E-08  1.19844E-08  1.13049E-08  1.03223E-08  9.30750E-09  8.29638E-09  7.46797E-09  7.24853E-09
   7.14603E-09  7.00466E-09  6.67820E-09  6.17672E-09  5.76673E-09  5.36377E-09  4.85885E-09  4.48219E-09  4.23108E-09  4.01401E-09
   3.89143E-09  3.84741E-09  3.85239E-09  3.89702E-09  3.94959E-09  3.98549E-09  3.99668E-09  3.97931E-09  3.92637E-09  3.83604E-09
   3.72227E-09  3.61533E-09  3.53885E-09  3.46064E-09  3.39546E-09  3.36890E-09  3.35513E-09  3.34664E-09  3.34068E-09  3.33594E-09
   3.33167E-09  3.32737E-09  3.32270E-09  3.31739E-09  3.31123E-09  3.30407E-09  3.29575E-09  3.28618E-09  3.27524E-09  3.26284E-09
   3.24889E-09  3.23331E-09  3.21602E-09  3.19693E-09  3.17600E-09  3.15315E-09  3.12833E-09  3.10147E-09  3.07252E-09  3.04142E-09
   3.00810E-09  2.97254E-09  2.93469E-09  2.89450E-09  2.85194E-09  2.80698E-09  2.75959E-09  2.70976E-09  2.65745E-09  2.60267E-09
   2.54544E-09  2.48578E-09  2.42376E-09  2.35947E-09  2.29305E-09  2.22471E-09  2.15477E-09  2.08371E-09  2.01225E-09  1.94153E-09
   1.87337E-09  1.81086E-09  1.75960E-09  1.73068E-09  1.74983E-09  1.89365E-09  2.50778E-09  4.11994E-09  6.62449E-09  9.71145E-09
   1.28021E-08  1.50289E-08  1.56555E-08  1.45672E-08  1.22486E-08  9.34306E-09  6.29831E-09  3.45554E-09  1.43114E-09  6.03939E-10
   1.75529E-10 -1.21598E-10 -3.57548E-10 -5.58848E-10 -7.37830E-10 -9.00986E-10 -1.05197E-09 -1.19296E-09 -1.32522E-09 -1.44954E-09
  -1.56636E-09 -1.67590E-09 -1.77821E-09 -1.87325E-09 -1.96092E-09 -2.04103E-09 -2.11349E-09 -2.17856E-09 -2.23656E-09 -2.28779E-09
  -2.33253E-09 -2.37105E-09 -2.40360E-09 -2.43045E-09 -2.45184E-09 -2.46801E-09 -2.47919E-09 -2.48563E-09 -2.48754E-09 -2.48517E-09
  -2.47873E-09 -2.46845E-09 -2.45455E-09 -2.43725E-09 -2.41677E-09 -2.39334E-09 -2.36716E-09 -2.33845E-09 -2.30744E-09 -2.27432E-09
  -2.23933E-09 -2.20268E-09 -2.16457E-09 -2.12522E-09 -2.08482E-09 -2.04346E-09 -2.00126E-09 -1.95829E-09 -1.91467E-09 -1.87050E-09
  -1.82587E-09 -1.78088E-09 -1.73564E-09 -1.69023E-09 -1.64475E-09 -1.59930E-09 -1.55399E-09 -1.50891E-09 -1.46413E-09 -1.41980E-09
  -1.37598E-09 -1.33277E-09 -1.29028E-09 -1.24860E-09 -1.20782E-09 -1.16804E-09 -1.12936E-09 -1.09188E-09 -1.05569E-09 -1.02089E-09
  -9.87568E-10 -9.55837E-10 -9.25711E-10 -8.97146E-10 -8.70090E-10 -8.44489E-10 -8.20283E-10 -7.97423E-10 -7.75847E-10 -7.55505E-10
  -7.36341E-10 -7.18296E-10 -7.01322E-10 -6.85356E-10 -6.70350E-10 -6.56245E-10 -6.42979E-10 -6.30514E-10 -6.18787E-10 -6.07736E-10
  -5.97310E-10 -5.87460E-10 -5.78122E-10 -5.69244E-10 -5.60779E-10 -5.52655E-10 -5.44836E-10 -5.37256E-10 -5.29865E-10 -5.22602E-10
  -5.15433E-10 -5.08332E-10 -5.01271E-10 -4.94223E-10 -4.87168E-10 -4.80075E-10 -4.72921E-10 -4.65678E-10 -4.58321E-10 -4.50827E-10
  -4.43168E-10 -4.35318E-10 -4.27252E-10 -4.18944E-10 -4.10370E-10 -4.01502E-10 -3.92316E-10 -3.82786E-10 -3.72889E-10 -3.62592E-10
  -3.51879E-10 -3.40717E-10 -3.29083E-10 -3.16956E-10 -3.04304E-10 -2.91104E-10 -2.77333E-10 -2.62962E-10 -2.48006E-10 -2.32490E-10
  -2.16444E-10 -1.99894E-10 -1.82871E-10 -1.65398E-10 -1.47508E-10 -1.29226E-10 -1.10581E-10 -9.15998E-11 -7.23128E-11 -5.27445E-11
  -3.29272E-11 -1.28836E-11  7.35623E-12  2.77613E-11  4.83094E-11  6.89668E-11  8.97103E-11  1.10512E-10  1.31341E-10  1.52170E-10
   1.72976E-10  1.93726E-10  2.14395E-10  2.34954E-10  2.55375E-10  2.75637E-10  2.95736E-10  3.15677E-10  3.35469E-10  3.55118E-10
   3.74631E-10  3.94016E-10  4.13278E-10  4.32425E-10  4.51461E-10  4.70398E-10  4.89238E-10  5.07989E-10  5.26659E-10  5.45254E-10
   5.63781E-10  5.82246E-10  6.00656E-10  6.19019E-10  6.37340E-10  6.55626E-10  6.73884E-10  6.92122E-10  7.10346E-10  7.28561E-10
   7.46774E-10  7.64993E-10  7.83227E-10
 NY background values follow
    -2.800E-10   -2.547E-10   -2.294E-10   -2.040E-10   -1.787E-10   -1.533E-10   -1.280E-10   -1.027E-10   -7.750E-11   -5.234E-11
    -2.727E-11   -2.289E-12    2.258E-11    4.732E-11    7.193E-11    9.639E-11    1.207E-10    1.448E-10    1.687E-10    1.924E-10
     2.159E-10    2.392E-10    2.622E-10    2.849E-10    3.074E-10    3.295E-10    3.514E-10    3.729E-10    3.941E-10    4.150E-10
     4.356E-10    4.559E-10    4.759E-10    4.958E-10    5.154E-10    5.349E-10    5.543E-10    5.736E-10    5.929E-10    6.121E-10
     6.314E-10    6.507E-10    6.701E-10    6.896E-10    7.093E-10    7.291E-10    7.491E-10    7.694E-10    7.900E-10    8.108E-10
     8.320E-10    8.536E-10    8.756E-10    8.980E-10    9.209E-10    9.443E-10    9.683E-10    9.928E-10    1.018E-09    1.043E-09
     1.069E-09    1.096E-09    1.123E-09    1.150E-09    1.178E-09    1.206E-09    1.235E-09    1.264E-09    1.293E-09    1.322E-09
     1.352E-09    1.382E-09    1.413E-09    1.443E-09    1.474E-09    1.505E-09    1.536E-09    1.567E-09    1.599E-09    1.630E-09
     1.662E-09    1.693E-09    1.725E-09    1.757E-09    1.788E-09    1.820E-09    1.852E-09    1.883E-09    1.915E-09    1.946E-09
     1.977E-09    2.007E-09    2.038E-09    2.068E-09    2.098E-09    2.127E-09    2.156E-09    2.185E-09    2.213E-09    2.240E-09
     2.267E-09    2.293E-09    2.318E-09    2.343E-09    2.367E-09    2.391E-09    2.413E-09    2.435E-09    2.455E-09    2.475E-09
     2.494E-09    2.512E-09    2.529E-09    2.544E-09    2.559E-09    2.572E-09    2.585E-09    2.596E-09    2.605E-09    2.613E-09
     2.620E-09    2.626E-09    2.629E-09    2.632E-09    2.632E-09    2.631E-09    2.629E-09    2.624E-09    2.618E-09    2.610E-09
     2.600E-09    2.588E-09    2.574E-09    2.558E-09    2.540E-09    2.520E-09    2.498E-09    2.473E-09    2.447E-09    2.417E-09
     2.386E-09    2.352E-09    2.316E-09    2.277E-09    2.235E-09    2.191E-09    2.145E-09    2.095E-09    2.043E-09    1.989E-09
     1.931E-09    1.870E-09    1.807E-09    1.741E-09    1.671E-09    1.599E-09    1.523E-09    1.445E-09    1.363E-09    1.278E-09
     1.189E-09    1.098E-09    1.003E-09    9.041E-10    8.022E-10    6.968E-10    5.879E-10    4.753E-10    3.592E-10    2.398E-10
     1.175E-10   -7.294E-12   -1.343E-10   -2.630E-10   -3.932E-10   -5.243E-10   -6.561E-10   -7.882E-10   -9.202E-10   -1.052E-09
    -1.182E-09   -1.311E-09   -1.439E-09   -1.565E-09   -1.688E-09   -1.809E-09   -1.926E-09   -2.040E-09   -2.150E-09   -2.256E-09
    -2.357E-09   -2.453E-09   -2.543E-09   -2.628E-09   -2.707E-09   -2.779E-09   -2.844E-09   -2.903E-09   -2.955E-09   -3.001E-09
    -3.041E-09   -3.076E-09   -3.104E-09   -3.127E-09   -3.145E-09   -3.158E-09   -3.167E-09   -3.170E-09   -3.170E-09   -3.165E-09
    -3.156E-09   -3.144E-09   -3.128E-09   -3.109E-09   -3.087E-09   -3.062E-09   -3.034E-09   -3.004E-09   -2.971E-09   -2.937E-09
    -2.900E-09   -2.862E-09   -2.823E-09   -2.783E-09   -2.741E-09   -2.699E-09   -2.655E-09   -2.612E-09   -2.567E-09   -2.522E-09
    -2.476E-09   -2.430E-09   -2.384E-09   -2.338E-09   -2.292E-09   -2.246E-09   -2.200E-09   -2.154E-09   -2.108E-09   -2.063E-09
    -2.019E-09   -1.975E-09   -1.932E-09   -1.890E-09   -1.848E-09   -1.808E-09   -1.769E-09   -1.730E-09   -1.694E-09   -1.658E-09
    -1.625E-09   -1.592E-09   -1.562E-09   -1.532E-09   -1.505E-09   -1.479E-09   -1.454E-09   -1.431E-09   -1.409E-09   -1.388E-09
    -1.368E-09   -1.350E-09   -1.332E-09   -1.316E-09   -1.300E-09   -1.286E-09   -1.272E-09   -1.259E-09   -1.247E-09   -1.236E-09
    -1.225E-09   -1.214E-09   -1.205E-09   -1.195E-09   -1.186E-09   -1.178E-09   -1.170E-09   -1.162E-09   -1.154E-09   -1.146E-09
    -1.139E-09   -1.131E-09   -1.124E-09   -1.116E-09   -1.109E-09   -1.101E-09   -1.094E-09   -1.086E-09   -1.078E-09   -1.070E-09
    -1.062E-09   -1.054E-09   -1.045E-09   -1.037E-09   -1.028E-09   -1.018E-09   -1.009E-09   -9.989E-10   -9.886E-10   -9.778E-10
    -9.667E-10   -9.552E-10   -9.431E-10   -9.306E-10   -9.175E-10   -9.039E-10   -8.897E-10   -8.749E-10   -8.595E-10   -8.436E-10
    -8.271E-10   -8.102E-10   -7.927E-10   -7.748E-10   -7.565E-10   -7.378E-10   -7.188E-10   -6.994E-10   -6.796E-10   -6.596E-10
    -6.394E-10   -6.189E-10   -5.983E-10   -5.774E-10   -5.564E-10   -5.353E-10   -5.142E-10   -4.929E-10   -4.716E-10   -4.504E-10
    -4.291E-10   -4.079E-10   -3.868E-10   -3.658E-10   -3.449E-10   -3.242E-10   -3.037E-10   -2.833E-10   -2.630E-10   -2.429E-10
    -2.229E-10   -2.031E-10   -1.833E-10   -1.637E-10   -1.442E-10   -1.248E-10   -1.055E-10   -8.626E-11   -6.711E-11   -4.804E-11
    -2.902E-11   -1.007E-11    8.827E-12    2.768E-11    4.650E-11    6.528E-11    8.403E-11    1.028E-10    1.215E-10    1.402E-10
     1.589E-10    1.777E-10    1.964E-10
 Ala      Conc. = 1.29E-10
  -1.77562E-10 -1.43236E-10 -1.12603E-10 -8.49060E-11 -6.03292E-11 -3.93529E-11 -2.28042E-11 -1.04070E-11  3.32556E-12  1.77032E-11
   2.82107E-11  4.16797E-11  5.95149E-11  7.71271E-11  9.61909E-11  1.17293E-10  1.39355E-10  1.61887E-10  1.84639E-10  2.07463E-10
   2.30262E-10  2.52968E-10  2.75529E-10  2.97910E-10  3.20078E-10  3.42001E-10  3.63660E-10  3.85034E-10  4.06099E-10  4.26851E-10
   4.47312E-10  4.67514E-10  4.87484E-10  5.07256E-10  5.26858E-10  5.46322E-10  5.65680E-10  5.84963E-10  6.04203E-10  6.23432E-10
   6.42680E-10  6.61983E-10  6.81369E-10  7.00873E-10  7.20525E-10  7.40360E-10  7.60408E-10  7.80702E-10  8.01275E-10  8.22160E-10
   8.43387E-10  8.64992E-10  8.87005E-10  9.09460E-10  9.32388E-10  9.55824E-10  9.79798E-10  1.00433E-09  1.02939E-09  1.05497E-09
   1.08104E-09  1.10759E-09  1.13460E-09  1.16204E-09  1.18989E-09  1.21815E-09  1.24678E-09  1.27576E-09  1.30508E-09  1.33472E-09
   1.36465E-09  1.39487E-09  1.42534E-09  1.45605E-09  1.48699E-09  1.51812E-09  1.54944E-09  1.58093E-09  1.61257E-09  1.64434E-09
   1.67623E-09  1.70822E-09  1.74030E-09  1.77246E-09  1.80468E-09  1.83695E-09  1.86926E-09  1.90157E-09  1.93390E-09  1.96622E-09
   1.99856E-09  2.03095E-09  2.06345E-09  2.09617E-09  2.12930E-09  2.16317E-09  2.19840E-09  2.23619E-09  2.27937E-09  2.33659E-09
   2.42444E-09  2.53012E-09  2.64708E-09  2.77852E-09  2.90022E-09  2.99240E-09  3.05013E-09  3.07187E-09  3.05222E-09  2.99054E-09
   2.90171E-09  2.81657E-09  2.75918E-09  2.69778E-09  2.64745E-09  2.63408E-09  2.63217E-09  2.63438E-09  2.63810E-09  2.64212E-09
   2.64580E-09  2.64874E-09  2.65069E-09  2.65145E-09  2.65088E-09  2.64887E-09  2.64533E-09  2.64017E-09  2.63332E-09  2.62471E-09
   2.61428E-09  2.60197E-09  2.58772E-09  2.57148E-09  2.55319E-09  2.53280E-09  2.51026E-09  2.48552E-09  2.45853E-09  2.42923E-09
   2.39758E-09  2.36353E-09  2.32704E-09  2.28805E-09  2.24653E-09  2.20242E-09  2.15568E-09  2.10626E-09  2.05412E-09  1.99921E-09
   1.94150E-09  1.88092E-09  1.81744E-09  1.75102E-09  1.68162E-09  1.60918E-09  1.53369E-09  1.45508E-09  1.37335E-09  1.28846E-09
   1.20039E-09  1.10916E-09  1.01484E-09  9.17546E-10  8.17710E-10  7.16538E-10  6.19381E-10  5.41603E-10  4.80406E-10  4.30134E-10
   3.79827E-10  3.10769E-10  2.05210E-10  5.91643E-11 -1.16741E-10 -3.07298E-10 -5.02047E-10 -6.94180E-10 -8.71535E-10 -1.01757E-09
  -1.15462E-09 -1.28765E-09 -1.41777E-09 -1.54516E-09 -1.66972E-09 -1.79122E-09 -1.90939E-09 -2.02390E-09 -2.13439E-09 -2.24053E-09
  -2.34196E-09 -2.43831E-09 -2.52921E-09 -2.61429E-09 -2.69319E-09 -2.76553E-09 -2.83106E-09 -2.88992E-09 -2.94232E-09 -2.98847E-09
  -3.02858E-09 -3.06287E-09 -3.09156E-09 -3.11484E-09 -3.13293E-09 -3.14604E-09 -3.15439E-09 -3.15819E-09 -3.15764E-09 -3.15295E-09
  -3.14435E-09 -3.13203E-09 -3.11621E-09 -3.09710E-09 -3.07490E-09 -3.04984E-09 -3.02212E-09 -2.99195E-09 -2.95953E-09 -2.92509E-09
  -2.88883E-09 -2.85095E-09 -2.81168E-09 -2.77122E-09 -2.72974E-09 -2.68735E-09 -2.64415E-09 -2.60023E-09 -2.55569E-09 -2.51062E-09
  -2.46513E-09 -2.41931E-09 -2.37325E-09 -2.32706E-09 -2.28081E-09 -2.23463E-09 -2.18859E-09 -2.14281E-09 -2.09735E-09 -2.05235E-09
  -2.00788E-09 -1.96404E-09 -1.92092E-09 -1.87864E-09 -1.83726E-09 -1.79690E-09 -1.75765E-09 -1.71961E-09 -1.68287E-09 -1.64753E-09
  -1.61367E-09 -1.58141E-09 -1.55077E-09 -1.52170E-09 -1.49414E-09 -1.46805E-09 -1.44336E-09 -1.42001E-09 -1.39796E-09 -1.37715E-09
  -1.35752E-09 -1.33902E-09 -1.32159E-09 -1.30517E-09 -1.28972E-09 -1.27517E-09 -1.26146E-09 -1.24856E-09 -1.23640E-09 -1.22492E-09
  -1.21407E-09 -1.20379E-09 -1.19403E-09 -1.18474E-09 -1.17585E-09 -1.16731E-09 -1.15908E-09 -1.15109E-09 -1.14329E-09 -1.13562E-09
  -1.12804E-09 -1.12053E-09 -1.11307E-09 -1.10561E-09 -1.09816E-09 -1.09066E-09 -1.08310E-09 -1.07546E-09 -1.06770E-09 -1.05981E-09
  -1.05175E-09 -1.04350E-09 -1.03503E-09 -1.02633E-09 -1.01735E-09 -1.00808E-09 -9.98499E-10 -9.88568E-10 -9.78271E-10 -9.67573E-10
  -9.56459E-10 -9.44896E-10 -9.32860E-10 -9.20330E-10 -9.07275E-10 -8.93671E-10 -8.79495E-10 -8.64719E-10 -8.49356E-10 -8.33434E-10
  -8.16979E-10 -8.00020E-10 -7.82587E-10 -7.64703E-10 -7.46400E-10 -7.27705E-10 -7.08645E-10 -6.89248E-10 -6.69544E-10 -6.49557E-10
  -6.29320E-10 -6.08855E-10 -5.88193E-10 -5.67364E-10 -5.46390E-10 -5.25306E-10 -5.04134E-10 -4.82902E-10 -4.61640E-10 -4.40378E-10
  -4.19137E-10 -3.97950E-10 -3.76842E-10 -3.55843E-10 -3.34979E-10 -3.14273E-10 -2.93729E-10 -2.73340E-10 -2.53098E-10 -2.32997E-10
  -2.13030E-10 -1.93190E-10 -1.73470E-10 -1.53863E-10 -1.34365E-10 -1.14964E-10 -9.56593E-11 -7.64397E-11 -5.73000E-11 -3.82326E-11
  -1.92301E-11 -2.88557E-13  1.86014E-11  3.74452E-11  5.62505E-11  7.50227E-11  9.37698E-11  1.12499E-10  1.31217E-10  1.49927E-10
   1.68639E-10  1.87359E-10  2.06097E-10
 Asp      Conc. = 6.07E-10
   4.25667E-10  3.50728E-10  2.68307E-10  1.84808E-10  1.13498E-10  5.09607E-11  1.28549E-11 -7.67288E-12 -3.02693E-12  1.14016E-11
   3.05370E-11  5.22478E-11  7.54685E-11  9.95663E-11  1.23968E-10  1.48514E-10  1.73218E-10  1.98030E-10  2.22908E-10  2.47821E-10
   2.72748E-10  2.97679E-10  3.22611E-10  3.47556E-10  3.72535E-10  3.97575E-10  4.22731E-10  4.48071E-10  4.73693E-10  4.99748E-10
   5.26478E-10  5.54224E-10  5.83482E-10  6.15025E-10  6.50185E-10  6.91614E-10  7.45471E-10  8.10526E-10  8.88626E-10  9.67945E-10
   1.03529E-09  1.08105E-09  1.10769E-09  1.13861E-09  1.19654E-09  1.31980E-09  1.48988E-09  1.67217E-09  1.84306E-09  1.95696E-09
   1.99597E-09  1.96315E-09  1.88584E-09  1.77749E-09  1.64956E-09  1.53476E-09  1.44307E-09  1.40710E-09  1.37551E-09  1.34899E-09
   1.35244E-09  1.36503E-09  1.37010E-09  1.37538E-09  1.38027E-09  1.37663E-09  1.36837E-09  1.37477E-09  1.38911E-09  1.40794E-09
   1.42968E-09  1.45344E-09  1.47871E-09  1.50513E-09  1.53246E-09  1.56053E-09  1.58921E-09  1.61838E-09  1.64796E-09  1.67788E-09
   1.70809E-09  1.73853E-09  1.76915E-09  1.79991E-09  1.83078E-09  1.86171E-09  1.89266E-09  1.92357E-09  1.95441E-09  1.98512E-09
   2.01566E-09  2.04599E-09  2.07608E-09  2.10587E-09  2.13532E-09  2.16440E-09  2.19306E-09  2.22127E-09  2.24898E-09  2.27617E-09
   2.30277E-09  2.32877E-09  2.35411E-09  2.37877E-09  2.40270E-09  2.42586E-09  2.44821E-09  2.46973E-09  2.49036E-09  2.51008E-09
   2.52883E-09  2.54660E-09  2.56332E-09  2.57898E-09  2.59350E-09  2.60685E-09  2.61899E-09  2.62985E-09  2.63940E-09  2.64758E-09
   2.65435E-09  2.65965E-09  2.66346E-09  2.66570E-09  2.66634E-09  2.66533E-09  2.66262E-09  2.65816E-09  2.65191E-09  2.64382E-09
   2.63383E-09  2.62191E-09  2.60801E-09  2.59207E-09  2.57406E-09  2.55392E-09  2.53161E-09  2.50707E-09  2.48028E-09  2.45116E-09
   2.41968E-09  2.38580E-09  2.34946E-09  2.31064E-09  2.26927E-09  2.22533E-09  2.17876E-09  2.12952E-09  2.07757E-09  2.02288E-09
   1.96540E-09  1.90508E-09  1.84191E-09  1.77585E-09  1.70687E-09  1.63494E-09  1.56007E-09  1.48224E-09  1.40148E-09  1.31785E-09
   1.23147E-09  1.14254E-09  1.05149E-09  9.59089E-10  8.67143E-10  7.80341E-10  7.16290E-10  7.50515E-10  8.78773E-10  1.07568E-09
   1.29366E-09  1.44719E-09  1.44628E-09  1.25938E-09  9.27248E-10  5.20559E-10  9.14936E-11 -3.29303E-10 -6.93750E-10 -9.09866E-10
  -1.07385E-09 -1.22113E-09 -1.36006E-09 -1.49343E-09 -1.62228E-09 -1.74700E-09 -1.86766E-09 -1.98415E-09 -2.09624E-09 -2.20370E-09
  -2.30623E-09 -2.40352E-09 -2.49523E-09 -2.58100E-09 -2.66050E-09 -2.73337E-09 -2.79936E-09 -2.85863E-09 -2.91140E-09 -2.95789E-09
  -2.99830E-09 -3.03287E-09 -3.06179E-09 -3.08530E-09 -3.10360E-09 -3.11691E-09 -3.12543E-09 -3.12939E-09 -3.12899E-09 -3.12445E-09
  -3.11597E-09 -3.10377E-09 -3.08806E-09 -3.06906E-09 -3.04697E-09 -3.02200E-09 -2.99437E-09 -2.96428E-09 -2.93194E-09 -2.89757E-09
  -2.86138E-09 -2.82358E-09 -2.78437E-09 -2.74396E-09 -2.70254E-09 -2.66021E-09 -2.61706E-09 -2.57319E-09 -2.52870E-09 -2.48368E-09
