 LCModel (Version 6.3-1R) Copyright: S.W. Provencher.          Ref.: Magn. Reson. Med. 30:672-679 (1993).                
 onepulse 18x16_ftSpec_smooth_lcm
 26 lines in following concentration table = NCONC+1
    Conc.  %SD   /Cr    Metabolite                                         
 1.14E-10 118%   0.000 Ala                                                 
 4.84E-10  54%   0.000 Asp                                                 
    0.000 999%   0.000 Cr                                                  
 2.83E-09  10%   0.000 GABA                                                
 9.82E-10  45%   0.000 Glc                                                 
    0.000 999%   0.000 Gln                                                 
 2.28E-10 139%   0.000 Glu                                                 
    0.000 999%   0.000 Glyc                                                
    0.000 999%   0.000 GPC                                                 
    0.000 999%   0.000 GSH                                                 
 1.49E-10 104%   0.000 Ins                                                 
    0.000 999%   0.000 Lac                                                 
    0.000 999%   0.000 NAAG                                                
 9.77E-10  13%   0.000 NAA                                                 
 8.70E-11  77%   0.000 PCh                                                 
    0.000 999%   0.000 PCr                                                 
    0.000 999%   0.000 PE                                                  
 6.88E-12 999%   0.000 Scyllo                                              
    0.000 999%   0.000 Ser                                                 
 7.81E-11 593%   0.000 Tau                                                 
 8.70E-11  77%   0.000 GPC+PCh                                             
 9.77E-10  13%   0.000 NAA+NAAG                                            
 1.49E-10 104%   0.000 Ins+Glyc                                            
    0.000 999%   0.000 Cr+PCr                                              
 2.28E-10 139%   0.000 Glu+Gln                                             
   6 lines in following misc. output table
  FWHM = 0.056 ppm    S/N =   6                                            
  Data shift = 0.335 ppm                                                   
  Ph:  77 deg      35.6 deg/ppm                                            
  alphaB,S = 1.7E-01,   4.1E+01                                            
   16 spline knots.   Ns = 5(1)                                            
  ( 4) 2 infls.   ( 3) 1 extrs.                                            
  363 points on ppm-axis = NY
      4.250000     4.238821     4.227641     4.216462     4.205282     4.194103     4.182923     4.171744     4.160564     4.149385
      4.138206     4.127026     4.115847     4.104667     4.093488     4.082308     4.071129     4.059949     4.048770     4.037591
      4.026411     4.015232     4.004052     3.992873     3.981693     3.970514     3.959334     3.948155     3.936975     3.925796
      3.914617     3.903437     3.892258     3.881078     3.869899     3.858719     3.847540     3.836360     3.825181     3.814002
      3.802822     3.791643     3.780463     3.769284     3.758104     3.746925     3.735745     3.724566     3.713387     3.702207
      3.691028     3.679848     3.668669     3.657489     3.646310     3.635130     3.623951     3.612772     3.601592     3.590413
      3.579233     3.568054     3.556874     3.545695     3.534515     3.523336     3.512156     3.500977     3.489798     3.478618
      3.467439     3.456259     3.445080     3.433900     3.422721     3.411541     3.400362     3.389183     3.378003     3.366824
      3.355644     3.344465     3.333285     3.322106     3.310926     3.299747     3.288568     3.277388     3.266209     3.255029
      3.243850     3.232670     3.221491     3.210311     3.199132     3.187953     3.176773     3.165594     3.154414     3.143235
      3.132055     3.120876     3.109696     3.098517     3.087337     3.076158     3.064979     3.053799     3.042620     3.031440
      3.020261     3.009081     2.997902     2.986722     2.975543     2.964364     2.953184     2.942005     2.930825     2.919646
      2.908466     2.897287     2.886107     2.874928     2.863749     2.852569     2.841390     2.830210     2.819031     2.807851
      2.796672     2.785492     2.774313     2.763134     2.751954     2.740775     2.729595     2.718416     2.707236     2.696057
      2.684877     2.673698     2.662519     2.651339     2.640160     2.628980     2.617801     2.606621     2.595442     2.584262
      2.573083     2.561903     2.550724     2.539545     2.528365     2.517186     2.506006     2.494827     2.483647     2.472468
      2.461288     2.450109     2.438930     2.427750     2.416571     2.405391     2.394212     2.383032     2.371853     2.360673
      2.349494     2.338315     2.327135     2.315956     2.304776     2.293597     2.282417     2.271238     2.260058     2.248879
      2.237700     2.226520     2.215341     2.204161     2.192982     2.181802     2.170623     2.159443     2.148264     2.137084
      2.125905     2.114726     2.103546     2.092367     2.081187     2.070008     2.058828     2.047649     2.036469     2.025290
      2.014111     2.002931     1.991752     1.980572     1.969393     1.958213     1.947034     1.935854     1.924675     1.913496
      1.902316     1.891137     1.879957     1.868778     1.857598     1.846419     1.835239     1.824060     1.812881     1.801701
      1.790522     1.779342     1.768163     1.756983     1.745804     1.734624     1.723445     1.712265     1.701086     1.689907
      1.678727     1.667548     1.656368     1.645189     1.634009     1.622830     1.611650     1.600471     1.589292     1.578112
      1.566933     1.555753     1.544574     1.533394     1.522215     1.511035     1.499856     1.488677     1.477497     1.466318
      1.455138     1.443959     1.432779     1.421600     1.410420     1.399241     1.388062     1.376882     1.365703     1.354523
      1.343344     1.332164     1.320985     1.309805     1.298626     1.287446     1.276267     1.265088     1.253908     1.242729
      1.231549     1.220370     1.209190     1.198011     1.186831     1.175652     1.164473     1.153293     1.142114     1.130934
      1.119755     1.108575     1.097396     1.086216     1.075037     1.063858     1.052678     1.041499     1.030319     1.019140
      1.007960     0.996781     0.985601     0.974422     0.963243     0.952063     0.940884     0.929704     0.918525     0.907345
      0.896166     0.884986     0.873807     0.862628     0.851448     0.840269     0.829089     0.817910     0.806730     0.795551
      0.784371     0.773192     0.762012     0.750833     0.739654     0.728474     0.717295     0.706115     0.694936     0.683756
      0.672577     0.661397     0.650218     0.639039     0.627859     0.616680     0.605500     0.594321     0.583141     0.571962
      0.560782     0.549603     0.538424     0.527244     0.516065     0.504885     0.493706     0.482526     0.471347     0.460167
      0.448988     0.437809     0.426629     0.415450     0.404270     0.393091     0.381911     0.370732     0.359552     0.348373
      0.337193     0.326014     0.314835     0.303655     0.292476     0.281296     0.270117     0.258937     0.247758     0.236578
      0.225399     0.214220     0.203040
 NY phased data points follow
   1.36224E-09  3.26106E-09  5.77975E-09  6.56518E-09  7.13368E-09  5.47824E-09  5.13813E-09  4.54233E-09  4.33341E-09  3.21498E-09
   4.21754E-09  3.81802E-09  3.99973E-09  4.02199E-09  4.86282E-09  4.92322E-09  5.80837E-09  6.20700E-09  6.23262E-09  5.66280E-09
   5.91890E-09  5.59549E-09  5.89628E-09  4.20227E-09  5.25290E-09  5.20138E-09  7.42432E-09  6.75841E-09  6.88638E-09  5.74275E-09
   6.55934E-09  5.57116E-09  6.93659E-09  8.28289E-09  1.04723E-08  9.94185E-09  1.01920E-08  8.98832E-09  7.07709E-09  6.51963E-09
   6.83393E-09  6.51671E-09  5.84930E-09  5.42774E-09  5.69870E-09  5.17291E-09  5.72851E-09  4.69502E-09  4.75667E-09  3.41127E-09
   3.89644E-09  3.91354E-09  4.45750E-09  4.10699E-09  4.76849E-09  3.26603E-09  3.66594E-09  3.32417E-09  3.31367E-09  2.59024E-09
   3.02197E-09  2.91569E-09  3.86605E-09  5.05753E-09  9.28425E-09  1.21502E-08  1.30854E-08  1.09485E-08  9.71384E-09  7.61550E-09
   7.39407E-09  6.64029E-09  6.00511E-09  4.83763E-09  4.51126E-09  4.26399E-09  3.23916E-09  2.30846E-09  3.61284E-09  4.62118E-09
   6.84638E-09  1.04616E-08  1.34860E-08  1.24041E-08  1.15759E-08  9.76667E-09  8.62067E-09  8.31594E-09  7.55283E-09  7.17137E-09
   7.39771E-09  7.01640E-09  6.35585E-09  6.05657E-09  5.76020E-09  5.09811E-09  4.83158E-09  4.72993E-09  4.54310E-09  3.34109E-09
   3.93720E-09  3.61645E-09  4.08251E-09  3.15901E-09  4.21396E-09  4.00139E-09  3.92297E-09  4.07176E-09  3.77089E-09  3.60649E-09
   2.99499E-09  2.04971E-09  2.49224E-09  2.25476E-09  2.87387E-09  2.92282E-09  3.50059E-09  3.59611E-09  3.34240E-09  3.64145E-09
   4.44974E-09  4.02176E-09  3.57984E-09  3.46461E-09  2.82370E-09  1.67584E-09  1.68490E-09  2.20608E-09  2.07782E-09  1.90703E-09
   2.50202E-09  2.51359E-09  2.45872E-09  2.29799E-09  3.27607E-09  2.36345E-09  2.68161E-09  1.63765E-09  1.25236E-09  1.73447E-09
   3.19719E-09  2.90756E-09  4.32444E-09  4.17436E-09  3.01235E-09  2.44890E-09  3.71972E-09  3.90461E-09  4.06087E-09  3.84326E-09
   3.39528E-09  3.20913E-09  3.50811E-09  2.88228E-09  3.41356E-09  3.07424E-09  3.07203E-09  3.37905E-09  2.95887E-09  3.37628E-09
   4.18489E-09  4.13494E-09  4.34238E-09  3.77881E-09  4.34502E-09  3.86842E-09  4.29479E-09  4.81266E-09  4.99944E-09  6.76860E-09
   8.95476E-09  1.19418E-08  1.56344E-08  1.68254E-08  1.39591E-08  9.85502E-09  7.50098E-09  5.47410E-09  5.38838E-09  4.21604E-09
   2.96832E-09  2.68349E-09  2.26806E-09  1.46885E-09  1.21336E-09  1.34991E-09 -4.41133E-10 -1.40179E-10 -5.41035E-10 -1.76392E-09
  -1.97693E-09 -2.57292E-09 -3.31906E-09 -3.22875E-09 -3.80552E-09 -5.22437E-09 -5.78530E-09 -5.68096E-09 -6.22597E-09 -7.13991E-09
  -7.34091E-09 -7.23756E-09 -7.40969E-09 -7.02191E-09 -6.85559E-09 -6.68200E-09 -5.73182E-09 -5.75026E-09 -5.05623E-09 -4.53183E-09
  -3.98910E-09 -2.69582E-09 -2.55034E-09 -1.72684E-09 -1.88397E-09 -1.36340E-09 -1.22441E-09 -1.81117E-09 -8.98820E-10 -1.10737E-09
  -1.47135E-09 -1.88939E-09 -1.30821E-09 -7.43287E-10 -2.01822E-09 -1.22532E-09 -3.44131E-10 -1.66157E-09 -9.36688E-10 -1.16345E-09
  -8.48429E-10 -1.73284E-09 -1.06246E-09 -1.69085E-09 -1.34875E-09 -9.95660E-10 -1.12306E-09 -1.18285E-09 -2.88384E-10 -1.56545E-09
  -1.00513E-09 -1.09902E-09 -8.80667E-10 -5.33327E-10 -1.50454E-09 -1.61823E-09 -8.65107E-10 -7.34910E-10 -1.48173E-09 -6.42657E-10
  -9.70320E-10 -7.10648E-10  2.73943E-10 -5.19115E-10 -7.06836E-11 -6.45232E-10 -6.64211E-10 -8.79822E-10 -1.46824E-09 -1.46563E-09
  -1.04448E-09 -1.51458E-09 -1.84961E-09 -1.58691E-09 -1.78417E-09 -1.22598E-09 -5.63568E-10 -6.95658E-10 -1.04751E-10 -1.35737E-10
   7.48606E-11  4.17811E-10  1.07480E-10  1.18979E-10  6.60732E-10 -1.23789E-10 -3.47726E-10 -2.00815E-10 -6.80251E-10 -8.51645E-10
  -1.25625E-09 -7.86707E-10 -1.06982E-09 -1.59172E-09 -1.22150E-09 -8.81505E-10 -1.18082E-09 -9.80220E-10 -1.44985E-09 -1.56798E-09
  -5.94286E-10 -8.49300E-10 -1.29061E-09 -8.22765E-10 -5.44649E-10 -7.78382E-10 -8.20475E-10 -8.42547E-10 -5.72543E-10 -1.30562E-09
  -4.95963E-10 -4.54517E-10 -1.15727E-09 -8.83862E-10 -3.31175E-10 -7.79737E-10 -8.14241E-10 -7.50330E-10 -4.02972E-10 -4.54002E-11
  -7.37926E-10 -5.96704E-10 -4.65069E-10 -1.40403E-10 -3.14753E-10 -5.09665E-10 -3.71710E-10 -1.82479E-10 -9.68811E-11 -3.12531E-10
   9.65460E-11 -3.95471E-10 -6.17851E-11 -3.56006E-10 -2.02168E-12 -2.55900E-10 -3.12046E-11  1.13399E-10 -1.35291E-10  2.11700E-11
  -2.06067E-10 -2.76414E-11 -3.87982E-10  1.15176E-10  3.76824E-10 -1.36203E-10 -9.98076E-12 -1.41808E-10  1.19392E-10 -5.02229E-10
   3.64690E-10  1.70368E-10  1.42175E-10  3.15496E-10 -1.54051E-10 -2.50216E-10  1.23779E-10 -2.16307E-10  3.29446E-10  1.63361E-10
   5.82610E-10 -1.04802E-11  1.47217E-10  3.00179E-10  1.55393E-10  2.03183E-10  2.50359E-10  2.34885E-10  1.20465E-10 -2.68713E-10
   1.94464E-10  2.94194E-10  4.02977E-10
 NY points of the fit to the data follow
   4.27658E-09  4.68330E-09  5.03704E-09  5.29315E-09  5.36129E-09  5.21787E-09  4.91028E-09  4.56075E-09  4.29589E-09  4.10307E-09
   4.05484E-09  4.10216E-09  4.21534E-09  4.38579E-09  4.61622E-09  4.85435E-09  5.15751E-09  5.57624E-09  6.02407E-09  6.35082E-09
   6.46013E-09  6.23372E-09  5.75935E-09  5.31417E-09  5.02860E-09  4.96386E-09  5.20610E-09  5.73875E-09  6.34418E-09  6.79254E-09
   6.94948E-09  7.10192E-09  7.52095E-09  7.97060E-09  8.28011E-09  8.70501E-09  9.15910E-09  9.31681E-09  8.94366E-09  8.19236E-09
   7.42135E-09  6.75228E-09  5.70535E-09  4.70992E-09  4.25764E-09  3.89013E-09  3.61798E-09  3.66377E-09  3.82255E-09  3.93321E-09
   3.95267E-09  3.89482E-09  3.87178E-09  3.91716E-09  4.00855E-09  4.10104E-09  4.13848E-09  4.14171E-09  4.08769E-09  4.07877E-09
   4.30567E-09  4.80337E-09  5.44755E-09  6.17081E-09  7.17577E-09  8.21218E-09  9.03478E-09  9.60295E-09  9.93416E-09  9.88983E-09
   9.30892E-09  8.22821E-09  6.98566E-09  6.10806E-09  5.30678E-09  4.40897E-09  4.20859E-09  4.59611E-09  5.15995E-09  6.25040E-09
   7.87944E-09  9.83056E-09  1.15293E-08  1.21192E-08  1.14441E-08  1.01788E-08  9.00506E-09  7.99452E-09  6.97666E-09  6.71049E-09
   6.61193E-09  6.59326E-09  6.38894E-09  5.84886E-09  5.44409E-09  5.12617E-09  4.59917E-09  4.18668E-09  3.94066E-09  3.70799E-09
   3.55746E-09  3.48197E-09  3.46510E-09  3.50558E-09  3.57052E-09  3.62081E-09  3.63589E-09  3.63140E-09  3.61330E-09  3.56093E-09
   3.46156E-09  3.34631E-09  3.27842E-09  3.20969E-09  3.14183E-09  3.11957E-09  3.11160E-09  3.10931E-09  3.10973E-09  3.11149E-09
   3.11385E-09  3.11633E-09  3.11860E-09  3.12040E-09  3.12154E-09  3.12188E-09  3.12127E-09  3.11963E-09  3.11685E-09  3.11285E-09
   3.10755E-09  3.10089E-09  3.09278E-09  3.08316E-09  3.07196E-09  3.05912E-09  3.04461E-09  3.02838E-09  3.01037E-09  2.99054E-09
   2.96881E-09  2.94515E-09  2.91948E-09  2.89175E-09  2.86191E-09  2.82991E-09  2.79569E-09  2.75922E-09  2.72047E-09  2.67942E-09
   2.63608E-09  2.59046E-09  2.54263E-09  2.49268E-09  2.44073E-09  2.38700E-09  2.33180E-09  2.27560E-09  2.21910E-09  2.16334E-09
   2.10997E-09  2.06170E-09  2.02320E-09  2.00336E-09  2.02169E-09  2.13339E-09  2.57344E-09  3.60436E-09  5.14238E-09  7.37006E-09
   1.04202E-08  1.37679E-08  1.60359E-08  1.60013E-08  1.38043E-08  1.05912E-08  7.33552E-09  4.22808E-09  1.76631E-09  7.33219E-10
   2.67715E-10 -3.44876E-11 -2.67925E-10 -4.65088E-10 -6.40163E-10 -8.00274E-10 -9.49283E-10 -1.08939E-09 -1.22187E-09 -1.34744E-09
  -1.46651E-09 -1.57923E-09 -1.68563E-09 -1.78561E-09 -1.87903E-09 -1.96568E-09 -2.04544E-09 -2.11850E-09 -2.18511E-09 -2.24551E-09
  -2.29992E-09 -2.34855E-09 -2.39160E-09 -2.42928E-09 -2.46177E-09 -2.48926E-09 -2.51194E-09 -2.52998E-09 -2.54358E-09 -2.55290E-09
  -2.55812E-09 -2.55942E-09 -2.55697E-09 -2.55095E-09 -2.54151E-09 -2.52885E-09 -2.51312E-09 -2.49450E-09 -2.47315E-09 -2.44924E-09
  -2.42294E-09 -2.39442E-09 -2.36385E-09 -2.33140E-09 -2.29722E-09 -2.26144E-09 -2.22417E-09 -2.18556E-09 -2.14572E-09 -2.10477E-09
  -2.06285E-09 -2.02007E-09 -1.97656E-09 -1.93245E-09 -1.88785E-09 -1.84289E-09 -1.79770E-09 -1.75240E-09 -1.70711E-09 -1.66196E-09
  -1.61707E-09 -1.57256E-09 -1.52856E-09 -1.48519E-09 -1.44257E-09 -1.40083E-09 -1.36009E-09 -1.32047E-09 -1.28210E-09 -1.24511E-09
  -1.20959E-09 -1.17570E-09 -1.14347E-09 -1.11286E-09 -1.08380E-09 -1.05626E-09 -1.03016E-09 -1.00547E-09 -9.82114E-10 -9.60051E-10
  -9.39225E-10 -9.19575E-10 -9.01055E-10 -8.83602E-10 -8.67171E-10 -8.51702E-10 -8.37131E-10 -8.23426E-10 -8.10521E-10 -7.98356E-10
  -7.86879E-10 -7.76044E-10 -7.65785E-10 -7.56054E-10 -7.46801E-10 -7.37957E-10 -7.29486E-10 -7.21322E-10 -7.13416E-10 -7.05709E-10
  -6.98166E-10 -6.90768E-10 -6.83490E-10 -6.76307E-10 -6.69206E-10 -6.62157E-10 -6.55145E-10 -6.48141E-10 -6.41127E-10 -6.34084E-10
  -6.26985E-10 -6.19811E-10 -6.12539E-10 -6.05148E-10 -5.97618E-10 -5.89923E-10 -5.82045E-10 -5.73960E-10 -5.65651E-10 -5.57087E-10
  -5.48256E-10 -5.39130E-10 -5.29688E-10 -5.19914E-10 -5.09780E-10 -4.99267E-10 -4.88354E-10 -4.77016E-10 -4.65266E-10 -4.53124E-10
  -4.40610E-10 -4.27748E-10 -4.14560E-10 -4.01065E-10 -3.87287E-10 -3.73246E-10 -3.58966E-10 -3.44468E-10 -3.29774E-10 -3.14903E-10
  -2.99883E-10 -2.84728E-10 -2.69463E-10 -2.54114E-10 -2.38696E-10 -2.23236E-10 -2.07753E-10 -1.92268E-10 -1.76804E-10 -1.61386E-10
  -1.46028E-10 -1.30757E-10 -1.15593E-10 -1.00559E-10 -8.56772E-11 -7.09621E-11 -5.64171E-11 -4.20351E-11 -2.78064E-11 -1.37240E-11
   2.19269E-13  1.40323E-11  2.77219E-11  4.12961E-11  5.47602E-11  6.81271E-11  8.13979E-11  9.45846E-11  1.07693E-10  1.20732E-10
   1.33710E-10  1.46631E-10  1.59506E-10  1.72340E-10  1.85144E-10  1.97921E-10  2.10683E-10  2.23436E-10  2.36188E-10  2.48944E-10
   2.61714E-10  2.74504E-10  2.87325E-10
 NY background values follow
    -4.304E-11   -1.488E-11    1.328E-11    4.143E-11    6.953E-11    9.757E-11    1.255E-10    1.534E-10    1.811E-10    2.087E-10
     2.362E-10    2.634E-10    2.905E-10    3.173E-10    3.439E-10    3.702E-10    3.963E-10    4.220E-10    4.474E-10    4.724E-10
     4.971E-10    5.214E-10    5.453E-10    5.688E-10    5.918E-10    6.144E-10    6.364E-10    6.580E-10    6.790E-10    6.995E-10
     7.194E-10    7.389E-10    7.579E-10    7.765E-10    7.947E-10    8.125E-10    8.300E-10    8.472E-10    8.641E-10    8.807E-10
     8.971E-10    9.133E-10    9.293E-10    9.452E-10    9.610E-10    9.767E-10    9.923E-10    1.008E-09    1.024E-09    1.039E-09
     1.055E-09    1.071E-09    1.087E-09    1.103E-09    1.119E-09    1.136E-09    1.152E-09    1.169E-09    1.187E-09    1.204E-09
     1.222E-09    1.240E-09    1.258E-09    1.277E-09    1.296E-09    1.315E-09    1.334E-09    1.354E-09    1.374E-09    1.394E-09
     1.414E-09    1.435E-09    1.456E-09    1.478E-09    1.499E-09    1.521E-09    1.543E-09    1.566E-09    1.589E-09    1.612E-09
     1.635E-09    1.659E-09    1.683E-09    1.708E-09    1.732E-09    1.757E-09    1.782E-09    1.808E-09    1.833E-09    1.859E-09
     1.885E-09    1.911E-09    1.937E-09    1.963E-09    1.988E-09    2.014E-09    2.040E-09    2.065E-09    2.090E-09    2.115E-09
     2.140E-09    2.164E-09    2.188E-09    2.212E-09    2.235E-09    2.257E-09    2.279E-09    2.301E-09    2.322E-09    2.342E-09
     2.362E-09    2.380E-09    2.398E-09    2.416E-09    2.432E-09    2.448E-09    2.462E-09    2.476E-09    2.488E-09    2.500E-09
     2.510E-09    2.519E-09    2.527E-09    2.533E-09    2.539E-09    2.543E-09    2.545E-09    2.546E-09    2.546E-09    2.543E-09
     2.540E-09    2.534E-09    2.527E-09    2.519E-09    2.508E-09    2.496E-09    2.481E-09    2.465E-09    2.447E-09    2.427E-09
     2.405E-09    2.380E-09    2.353E-09    2.325E-09    2.293E-09    2.259E-09    2.223E-09    2.184E-09    2.143E-09    2.098E-09
     2.051E-09    2.001E-09    1.948E-09    1.892E-09    1.833E-09    1.771E-09    1.705E-09    1.636E-09    1.564E-09    1.488E-09
     1.408E-09    1.325E-09    1.238E-09    1.147E-09    1.053E-09    9.541E-10    8.515E-10    7.448E-10    6.339E-10    5.193E-10
     4.012E-10    2.799E-10    1.560E-10    2.978E-11   -9.841E-11   -2.282E-10   -3.591E-10   -4.909E-10   -6.231E-10   -7.554E-10
    -8.873E-10   -1.019E-09   -1.149E-09   -1.277E-09   -1.404E-09   -1.529E-09   -1.651E-09   -1.770E-09   -1.886E-09   -1.998E-09
    -2.106E-09   -2.210E-09   -2.308E-09   -2.402E-09   -2.489E-09   -2.571E-09   -2.647E-09   -2.716E-09   -2.779E-09   -2.837E-09
    -2.889E-09   -2.935E-09   -2.976E-09   -3.012E-09   -3.043E-09   -3.069E-09   -3.090E-09   -3.107E-09   -3.120E-09   -3.128E-09
    -3.132E-09   -3.133E-09   -3.130E-09   -3.123E-09   -3.113E-09   -3.100E-09   -3.083E-09   -3.064E-09   -3.042E-09   -3.018E-09
    -2.991E-09   -2.962E-09   -2.932E-09   -2.899E-09   -2.864E-09   -2.828E-09   -2.791E-09   -2.752E-09   -2.712E-09   -2.671E-09
    -2.629E-09   -2.586E-09   -2.542E-09   -2.498E-09   -2.453E-09   -2.408E-09   -2.362E-09   -2.317E-09   -2.272E-09   -2.226E-09
    -2.181E-09   -2.137E-09   -2.092E-09   -2.049E-09   -2.006E-09   -1.964E-09   -1.924E-09   -1.884E-09   -1.845E-09   -1.808E-09
    -1.773E-09   -1.739E-09   -1.706E-09   -1.676E-09   -1.647E-09   -1.619E-09   -1.593E-09   -1.568E-09   -1.544E-09   -1.522E-09
    -1.501E-09   -1.482E-09   -1.463E-09   -1.446E-09   -1.429E-09   -1.413E-09   -1.399E-09   -1.385E-09   -1.372E-09   -1.360E-09
    -1.348E-09   -1.337E-09   -1.327E-09   -1.317E-09   -1.308E-09   -1.299E-09   -1.290E-09   -1.282E-09   -1.274E-09   -1.266E-09
    -1.258E-09   -1.251E-09   -1.243E-09   -1.236E-09   -1.229E-09   -1.222E-09   -1.215E-09   -1.207E-09   -1.200E-09   -1.193E-09
    -1.186E-09   -1.179E-09   -1.171E-09   -1.164E-09   -1.156E-09   -1.148E-09   -1.140E-09   -1.132E-09   -1.123E-09   -1.115E-09
    -1.106E-09   -1.096E-09   -1.087E-09   -1.077E-09   -1.067E-09   -1.056E-09   -1.045E-09   -1.033E-09   -1.021E-09   -1.009E-09
    -9.964E-10   -9.833E-10   -9.700E-10   -9.563E-10   -9.423E-10   -9.281E-10   -9.136E-10   -8.989E-10   -8.840E-10   -8.689E-10
    -8.537E-10   -8.383E-10   -8.228E-10   -8.073E-10   -7.916E-10   -7.760E-10   -7.603E-10   -7.445E-10   -7.289E-10   -7.132E-10
    -6.976E-10   -6.821E-10   -6.667E-10   -6.514E-10   -6.363E-10   -6.213E-10   -6.065E-10   -5.919E-10   -5.774E-10   -5.631E-10
    -5.489E-10   -5.348E-10   -5.208E-10   -5.070E-10   -4.932E-10   -4.796E-10   -4.660E-10   -4.526E-10   -4.392E-10   -4.258E-10
    -4.126E-10   -3.994E-10   -3.862E-10   -3.730E-10   -3.599E-10   -3.468E-10   -3.338E-10   -3.207E-10   -3.076E-10   -2.946E-10
    -2.815E-10   -2.683E-10   -2.552E-10
 Ala      Conc. = 1.14E-10
   4.39065E-11  8.20961E-11  1.16452E-10  1.46642E-10  1.75144E-10  2.02339E-10  2.24947E-10  2.39847E-10  2.56363E-10  2.76747E-10
   2.90191E-10  3.04772E-10  3.25438E-10  3.45321E-10  3.66142E-10  3.89113E-10  4.12992E-10  4.37235E-10  4.61567E-10  4.85827E-10
   5.09910E-10  5.33743E-10  5.57266E-10  5.80439E-10  6.03223E-10  6.25580E-10  6.47485E-10  6.68909E-10  6.89826E-10  7.10223E-10
   7.30122E-10  7.49547E-10  7.68527E-10  7.87088E-10  8.05258E-10  8.23064E-10  8.40535E-10  8.57699E-10  8.74583E-10  8.91217E-10
   9.07629E-10  9.23848E-10  9.39901E-10  9.55819E-10  9.71629E-10  9.87361E-10  1.00304E-09  1.01871E-09  1.03438E-09  1.05009E-09
   1.06586E-09  1.08173E-09  1.09773E-09  1.11387E-09  1.13021E-09  1.14675E-09  1.16354E-09  1.18058E-09  1.19790E-09  1.21547E-09
   1.23332E-09  1.25144E-09  1.26983E-09  1.28850E-09  1.30744E-09  1.32667E-09  1.34617E-09  1.36596E-09  1.38604E-09  1.40641E-09
   1.42708E-09  1.44804E-09  1.46930E-09  1.49086E-09  1.51273E-09  1.53490E-09  1.55740E-09  1.58020E-09  1.60334E-09  1.62680E-09
   1.65060E-09  1.67474E-09  1.69922E-09  1.72407E-09  1.74929E-09  1.77487E-09  1.80079E-09  1.82703E-09  1.85358E-09  1.88042E-09
   1.90757E-09  1.93503E-09  1.96285E-09  1.99110E-09  2.01993E-09  2.04956E-09  2.08041E-09  2.11333E-09  2.15017E-09  2.19641E-09
   2.26140E-09  2.33486E-09  2.42689E-09  2.55022E-09  2.67988E-09  2.78179E-09  2.83863E-09  2.86853E-09  2.87927E-09  2.85133E-09
   2.77299E-09  2.67580E-09  2.62338E-09  2.56798E-09  2.51166E-09  2.49937E-09  2.50020E-09  2.50566E-09  2.51292E-09  2.52071E-09
   2.52837E-09  2.53552E-09  2.54189E-09  2.54731E-09  2.55165E-09  2.55480E-09  2.55667E-09  2.55719E-09  2.55627E-09  2.55387E-09
   2.54992E-09  2.54436E-09  2.53714E-09  2.52820E-09  2.51750E-09  2.50497E-09  2.49059E-09  2.47428E-09  2.45601E-09  2.43573E-09
   2.41337E-09  2.38889E-09  2.36220E-09  2.33323E-09  2.30189E-09  2.26811E-09  2.23183E-09  2.19295E-09  2.15141E-09  2.10713E-09
   2.06005E-09  2.01006E-09  1.95713E-09  1.90115E-09  1.84207E-09  1.77981E-09  1.71431E-09  1.64549E-09  1.57329E-09  1.49767E-09
   1.41856E-09  1.33594E-09  1.24983E-09  1.16028E-09  1.06755E-09  9.72408E-10  8.78244E-10  7.93829E-10  7.14074E-10  6.43823E-10
   5.88093E-10  5.39449E-10  4.69660E-10  3.49000E-10  1.79472E-10 -1.33358E-11 -2.06321E-10 -3.96628E-10 -5.81226E-10 -7.28746E-10
  -8.66822E-10 -1.00134E-09 -1.13354E-09 -1.26362E-09 -1.39147E-09 -1.51686E-09 -1.63950E-09 -1.75907E-09 -1.87519E-09 -1.98753E-09
  -2.09572E-09 -2.19940E-09 -2.29819E-09 -2.39172E-09 -2.47961E-09 -2.56151E-09 -2.63713E-09 -2.70658E-09 -2.77003E-09 -2.82763E-09
  -2.87957E-09 -2.92600E-09 -2.96709E-09 -3.00301E-09 -3.03392E-09 -3.05998E-09 -3.08138E-09 -3.09826E-09 -3.11080E-09 -3.11915E-09
  -3.12350E-09 -3.12400E-09 -3.12082E-09 -3.11412E-09 -3.10407E-09 -3.09083E-09 -3.07458E-09 -3.05547E-09 -3.03367E-09 -3.00935E-09
  -2.98267E-09 -2.95380E-09 -2.92290E-09 -2.89014E-09 -2.85567E-09 -2.81961E-09 -2.78210E-09 -2.74325E-09 -2.70319E-09 -2.66204E-09
  -2.61992E-09 -2.57695E-09 -2.53327E-09 -2.48900E-09 -2.44424E-09 -2.39914E-09 -2.35381E-09 -2.30837E-09 -2.26295E-09 -2.21768E-09
  -2.17267E-09 -2.12805E-09 -2.08394E-09 -2.04047E-09 -1.99774E-09 -1.95590E-09 -1.91506E-09 -1.87535E-09 -1.83688E-09 -1.79980E-09
  -1.76419E-09 -1.73021E-09 -1.69790E-09 -1.66719E-09 -1.63805E-09 -1.61042E-09 -1.58424E-09 -1.55946E-09 -1.53602E-09 -1.51387E-09
  -1.49296E-09 -1.47322E-09 -1.45461E-09 -1.43707E-09 -1.42055E-09 -1.40499E-09 -1.39033E-09 -1.37654E-09 -1.36354E-09 -1.35128E-09
  -1.33971E-09 -1.32878E-09 -1.31842E-09 -1.30859E-09 -1.29924E-09 -1.29029E-09 -1.28172E-09 -1.27345E-09 -1.26543E-09 -1.25762E-09
  -1.24996E-09 -1.24245E-09 -1.23506E-09 -1.22776E-09 -1.22054E-09 -1.21337E-09 -1.20624E-09 -1.19911E-09 -1.19197E-09 -1.18480E-09
  -1.17757E-09 -1.17026E-09 -1.16286E-09 -1.15533E-09 -1.14766E-09 -1.13982E-09 -1.13180E-09 -1.12357E-09 -1.11511E-09 -1.10640E-09
  -1.09741E-09 -1.08813E-09 -1.07853E-09 -1.06860E-09 -1.05830E-09 -1.04762E-09 -1.03654E-09 -1.02503E-09 -1.01311E-09 -1.00079E-09
  -9.88103E-10 -9.75061E-10 -9.61691E-10 -9.48010E-10 -9.34044E-10 -9.19813E-10 -9.05340E-10 -8.90646E-10 -8.75754E-10 -8.60682E-10
  -8.45458E-10 -8.30097E-10 -8.14624E-10 -7.99064E-10 -7.83431E-10 -7.67755E-10 -7.52052E-10 -7.36345E-10 -7.20656E-10 -7.05010E-10
  -6.89421E-10 -6.73917E-10 -6.58517E-10 -6.43245E-10 -6.28121E-10 -6.13162E-10 -5.98369E-10 -5.83737E-10 -5.69255E-10 -5.54917E-10
  -5.40715E-10 -5.26640E-10 -5.12687E-10 -4.98845E-10 -4.85111E-10 -4.71472E-10 -4.57925E-10 -4.44459E-10 -4.31069E-10 -4.17745E-10
  -4.04480E-10 -3.91268E-10 -3.78099E-10 -3.64968E-10 -3.51865E-10 -3.38784E-10 -3.25717E-10 -3.12654E-10 -2.99590E-10 -2.86519E-10
  -2.73431E-10 -2.60320E-10 -2.47174E-10
 Asp      Conc. = 4.84E-10
   5.51583E-10  5.09705E-10  4.54373E-10  3.85289E-10  3.28209E-10  2.75318E-10  2.46850E-10  2.30635E-10  2.39494E-10  2.57718E-10
   2.80311E-10  3.05110E-10  3.31075E-10  3.57732E-10  3.84480E-10  4.11159E-10  4.37796E-10  4.64347E-10  4.90772E-10  5.17035E-10
   5.43110E-10  5.68982E-10  5.94636E-10  6.20074E-10  6.45301E-10  6.70328E-10  6.95185E-10  7.19913E-10  7.44572E-10  7.69263E-10
   7.94162E-10  8.19511E-10  8.45650E-10  8.73099E-10  9.02714E-10  9.36141E-10  9.76977E-10  1.02359E-09  1.08049E-09  1.14296E-09
   1.20728E-09  1.26384E-09  1.30336E-09  1.32817E-09  1.34681E-09  1.39763E-09  1.48900E-09  1.62909E-09  1.81082E-09  1.96100E-09
   2.03525E-09  2.00682E-09  1.92519E-09  1.83405E-09  1.74083E-09  1.65262E-09  1.55599E-09  1.51454E-09  1.47295E-09  1.42912E-09
   1.43152E-09  1.45177E-09  1.45696E-09  1.45626E-09  1.45754E-09  1.45282E-09  1.43798E-09  1.43763E-09  1.44479E-09  1.45608E-09
   1.46999E-09  1.48572E-09  1.50281E-09  1.52099E-09  1.54004E-09  1.55983E-09  1.58028E-09  1.60131E-09  1.62286E-09  1.64490E-09
   1.66739E-09  1.69032E-09  1.71366E-09  1.73741E-09  1.76153E-09  1.78602E-09  1.81081E-09  1.83587E-09  1.86115E-09  1.88660E-09
   1.91218E-09  1.93785E-09  1.96356E-09  1.98928E-09  2.01495E-09  2.04054E-09  2.06602E-09  2.09133E-09  2.11643E-09  2.14130E-09
   2.16588E-09  2.19013E-09  2.21402E-09  2.23751E-09  2.26055E-09  2.28311E-09  2.30515E-09  2.32662E-09  2.34749E-09  2.36772E-09
   2.38727E-09  2.40610E-09  2.42416E-09  2.44143E-09  2.45784E-09  2.47335E-09  2.48791E-09  2.50149E-09  2.51402E-09  2.52547E-09
   2.53579E-09  2.54492E-09  2.55283E-09  2.55946E-09  2.56477E-09  2.56872E-09  2.57125E-09  2.57232E-09  2.57188E-09  2.56989E-09
   2.56629E-09  2.56105E-09  2.55412E-09  2.54544E-09  2.53498E-09  2.52268E-09  2.50850E-09  2.49240E-09  2.47433E-09  2.45424E-09
   2.43207E-09  2.40778E-09  2.38129E-09  2.35251E-09  2.32138E-09  2.28783E-09  2.25178E-09  2.21315E-09  2.17189E-09  2.12790E-09
   2.08114E-09  2.03153E-09  1.97900E-09  1.92349E-09  1.86495E-09  1.80332E-09  1.73855E-09  1.67061E-09  1.59949E-09  1.52518E-09
   1.44775E-09  1.36730E-09  1.28411E-09  1.19867E-09  1.11213E-09  1.02743E-09  9.55324E-10  9.37334E-10  9.52714E-10  1.01693E-09
   1.15317E-09  1.33962E-09  1.46385E-09  1.38875E-09  1.10348E-09  7.08853E-10  3.10370E-10 -7.21526E-11 -4.41892E-10 -6.53443E-10
  -8.13943E-10 -9.59502E-10 -1.09814E-09 -1.23237E-09 -1.36306E-09 -1.49051E-09 -1.61467E-09 -1.73540E-09 -1.85243E-09 -1.96549E-09
  -2.07427E-09 -2.17843E-09 -2.27762E-09 -2.37148E-09 -2.45965E-09 -2.54178E-09 -2.61761E-09 -2.68723E-09 -2.75083E-09 -2.80857E-09
  -2.86062E-09 -2.90715E-09 -2.94833E-09 -2.98432E-09 -3.01530E-09 -3.04143E-09 -3.06288E-09 -3.07981E-09 -3.09239E-09 -3.10079E-09
  -3.10517E-09 -3.10570E-09 -3.10254E-09 -3.09587E-09 -3.08584E-09 -3.07263E-09 -3.05639E-09 -3.03730E-09 -3.01552E-09 -2.99121E-09
  -2.96454E-09 -2.93568E-09 -2.90479E-09 -2.87204E-09 -2.83758E-09 -2.80153E-09 -2.76403E-09 -2.72518E-09 -2.68513E-09 -2.64398E-09
