 LCModel (Version 6.3-1R) Copyright: S.W. Provencher.          Ref.: Magn. Reson. Med. 30:672-679 (1993).                
 onepulse 18x13_ftSpec_smooth_lcm
 26 lines in following concentration table = NCONC+1
    Conc.  %SD   /Cr    Metabolite                                         
 2.15E-11 999%   0.000 Ala                                                 
    0.000 999%   0.000 Asp                                                 
    0.000 999%   0.000 Cr                                                  
    0.000 999%   0.000 GABA                                                
    0.000 999%   0.000 Glc                                                 
 4.08E-09  10%   0.000 Gln                                                 
    0.000 999%   0.000 Glu                                                 
    0.000 999%   0.000 Glyc                                                
    0.000 999%   0.000 GPC                                                 
 4.71E-10  75%   0.000 GSH                                                 
 1.04E-09  22%   0.000 Ins                                                 
 1.71E-10 130%   0.000 Lac                                                 
 1.48E-10  95%   0.000 NAAG                                                
    0.000 999%   0.000 NAA                                                 
 6.11E-11 140%   0.000 PCh                                                 
    0.000 999%   0.000 PCr                                                 
    0.000 999%   0.000 PE                                                  
 4.83E-11 295%   0.000 Scyllo                                              
 5.64E-10 107%   0.000 Ser                                                 
 1.75E-09  26%   0.000 Tau                                                 
 6.11E-11 140%   0.000 GPC+PCh                                             
 1.48E-10  95%   0.000 NAA+NAAG                                            
 1.04E-09  22%   0.000 Ins+Glyc                                            
    0.000 999%   0.000 Cr+PCr                                              
 4.08E-09  10%   0.000 Glu+Gln                                             
   6 lines in following misc. output table
  FWHM = 0.123 ppm    S/N =   4                                            
  Data shift = 0.436 ppm                                                   
  Ph: -24 deg     -40.3 deg/ppm                                            
  alphaB,S = 1.3E+00,   1.3E+01                                            
    9 spline knots.   Ns = 5(1)                                            
  ( 6) 6 infls.   ( 5) 3 extrs.                                            
  363 points on ppm-axis = NY
      4.250000     4.238821     4.227641     4.216462     4.205282     4.194103     4.182923     4.171744     4.160564     4.149385
      4.138206     4.127026     4.115847     4.104667     4.093488     4.082308     4.071129     4.059949     4.048770     4.037591
      4.026411     4.015232     4.004052     3.992873     3.981693     3.970514     3.959334     3.948155     3.936975     3.925796
      3.914617     3.903437     3.892258     3.881078     3.869899     3.858719     3.847540     3.836360     3.825181     3.814002
      3.802822     3.791643     3.780463     3.769284     3.758104     3.746925     3.735745     3.724566     3.713387     3.702207
      3.691028     3.679848     3.668669     3.657489     3.646310     3.635130     3.623951     3.612772     3.601592     3.590413
      3.579233     3.568054     3.556874     3.545695     3.534515     3.523336     3.512156     3.500977     3.489798     3.478618
      3.467439     3.456259     3.445080     3.433900     3.422721     3.411541     3.400362     3.389183     3.378003     3.366824
      3.355644     3.344465     3.333285     3.322106     3.310926     3.299747     3.288568     3.277388     3.266209     3.255029
      3.243850     3.232670     3.221491     3.210311     3.199132     3.187953     3.176773     3.165594     3.154414     3.143235
      3.132055     3.120876     3.109696     3.098517     3.087337     3.076158     3.064979     3.053799     3.042620     3.031440
      3.020261     3.009081     2.997902     2.986722     2.975543     2.964364     2.953184     2.942005     2.930825     2.919646
      2.908466     2.897287     2.886107     2.874928     2.863749     2.852569     2.841390     2.830210     2.819031     2.807851
      2.796672     2.785492     2.774313     2.763134     2.751954     2.740775     2.729595     2.718416     2.707236     2.696057
      2.684877     2.673698     2.662519     2.651339     2.640160     2.628980     2.617801     2.606621     2.595442     2.584262
      2.573083     2.561903     2.550724     2.539545     2.528365     2.517186     2.506006     2.494827     2.483647     2.472468
      2.461288     2.450109     2.438930     2.427750     2.416571     2.405391     2.394212     2.383032     2.371853     2.360673
      2.349494     2.338315     2.327135     2.315956     2.304776     2.293597     2.282417     2.271238     2.260058     2.248879
      2.237700     2.226520     2.215341     2.204161     2.192982     2.181802     2.170623     2.159443     2.148264     2.137084
      2.125905     2.114726     2.103546     2.092367     2.081187     2.070008     2.058828     2.047649     2.036469     2.025290
      2.014111     2.002931     1.991752     1.980572     1.969393     1.958213     1.947034     1.935854     1.924675     1.913496
      1.902316     1.891137     1.879957     1.868778     1.857598     1.846419     1.835239     1.824060     1.812881     1.801701
      1.790522     1.779342     1.768163     1.756983     1.745804     1.734624     1.723445     1.712265     1.701086     1.689907
      1.678727     1.667548     1.656368     1.645189     1.634009     1.622830     1.611650     1.600471     1.589292     1.578112
      1.566933     1.555753     1.544574     1.533394     1.522215     1.511035     1.499856     1.488677     1.477497     1.466318
      1.455138     1.443959     1.432779     1.421600     1.410420     1.399241     1.388062     1.376882     1.365703     1.354523
      1.343344     1.332164     1.320985     1.309805     1.298626     1.287446     1.276267     1.265088     1.253908     1.242729
      1.231549     1.220370     1.209190     1.198011     1.186831     1.175652     1.164473     1.153293     1.142114     1.130934
      1.119755     1.108575     1.097396     1.086216     1.075037     1.063858     1.052678     1.041499     1.030319     1.019140
      1.007960     0.996781     0.985601     0.974422     0.963243     0.952063     0.940884     0.929704     0.918525     0.907345
      0.896166     0.884986     0.873807     0.862628     0.851448     0.840269     0.829089     0.817910     0.806730     0.795551
      0.784371     0.773192     0.762012     0.750833     0.739654     0.728474     0.717295     0.706115     0.694936     0.683756
      0.672577     0.661397     0.650218     0.639039     0.627859     0.616680     0.605500     0.594321     0.583141     0.571962
      0.560782     0.549603     0.538424     0.527244     0.516065     0.504885     0.493706     0.482526     0.471347     0.460167
      0.448988     0.437809     0.426629     0.415450     0.404270     0.393091     0.381911     0.370732     0.359552     0.348373
      0.337193     0.326014     0.314835     0.303655     0.292476     0.281296     0.270117     0.258937     0.247758     0.236578
      0.225399     0.214220     0.203040
 NY phased data points follow
   9.77650E-09  1.13927E-08  1.08336E-08  1.12138E-08  1.16025E-08  1.15893E-08  1.13769E-08  1.22350E-08  1.16523E-08  1.11403E-08
   1.00834E-08  1.04974E-08  1.00152E-08  9.94314E-09  9.88922E-09  1.08611E-08  1.07526E-08  1.12816E-08  1.11685E-08  1.09776E-08
   9.94839E-09  1.00822E-08  1.05305E-08  1.23443E-08  1.35340E-08  1.32967E-08  1.23331E-08  1.11115E-08  9.14032E-09  7.93495E-09
   7.67066E-09  7.94854E-09  7.17857E-09  7.04325E-09  6.74515E-09  7.06407E-09  6.82538E-09  6.39042E-09  5.31736E-09  5.11598E-09
   4.99504E-09  6.01074E-09  6.25357E-09  6.09128E-09  6.03216E-09  6.16892E-09  5.50369E-09  5.11692E-09  4.74155E-09  4.78114E-09
   5.24626E-09  5.80962E-09  6.40308E-09  7.42900E-09  9.54259E-09  1.34893E-08  1.50712E-08  1.49181E-08  1.23159E-08  1.05087E-08
   9.23421E-09  7.81748E-09  7.65823E-09  6.84974E-09  6.56078E-09  5.63345E-09  4.92447E-09  5.19936E-09  4.69822E-09  5.33487E-09
   6.87159E-09  8.91497E-09  1.33403E-08  1.56532E-08  1.50323E-08  1.33579E-08  1.25576E-08  1.08867E-08  1.08983E-08  1.05049E-08
   9.90939E-09  9.52254E-09  9.41482E-09  8.53912E-09  8.28095E-09  7.98324E-09  7.21854E-09  6.46522E-09  7.08560E-09  6.03851E-09
   5.96153E-09  5.81945E-09  5.90698E-09  5.01659E-09  6.22428E-09  5.83750E-09  6.09975E-09  5.03482E-09  5.68343E-09  5.17006E-09
   5.30473E-09  5.03077E-09  4.03586E-09  3.83039E-09  3.09065E-09  3.62365E-09  4.66431E-09  4.15570E-09  4.00742E-09  4.45246E-09
   5.11315E-09  4.87493E-09  5.24779E-09  5.37349E-09  6.06013E-09  4.78359E-09  4.24297E-09  3.77901E-09  3.94759E-09  3.16099E-09
   3.19236E-09  3.52854E-09  3.60650E-09  3.37907E-09  3.89980E-09  3.42527E-09  3.91085E-09  3.59379E-09  3.46687E-09  2.98415E-09
   2.71780E-09  2.76459E-09  3.88573E-09  4.57762E-09  5.48532E-09  4.95031E-09  4.73680E-09  4.23240E-09  5.48755E-09  5.11375E-09
   6.10972E-09  5.73185E-09  5.74834E-09  5.27031E-09  5.29150E-09  4.76199E-09  4.93044E-09  4.39540E-09  4.93074E-09  4.30238E-09
   4.74214E-09  4.25271E-09  4.05047E-09  4.29843E-09  4.54308E-09  4.29208E-09  4.11601E-09  3.13537E-09  3.56381E-09  2.12728E-09
   2.83592E-09  2.33914E-09  2.65098E-09  7.16797E-09  1.28657E-08  1.61433E-08  1.65454E-08  1.56281E-08  1.57114E-08  1.52938E-08
   1.45575E-08  1.33527E-08  1.34649E-08  1.31668E-08  1.28264E-08  1.24306E-08  1.27952E-08  1.14143E-08  1.10884E-08  1.10079E-08
   1.08552E-08  9.67466E-09  8.61798E-09  7.52971E-09  6.78960E-09  6.24079E-09  5.32918E-09  3.67649E-09  2.16674E-09  1.47046E-09
   6.05693E-10 -1.31816E-09 -1.96889E-09 -2.90965E-09 -3.56889E-09 -4.17964E-09 -4.42905E-09 -4.26633E-09 -4.36975E-09 -4.41179E-09
  -4.65038E-09 -4.06485E-09 -3.05293E-09 -2.39410E-09 -1.87271E-09 -1.51573E-09 -1.12893E-09 -8.50520E-10 -6.18182E-10 -5.68533E-10
  -3.58927E-10 -3.12281E-10 -6.89143E-10 -8.27754E-10 -6.94632E-10 -5.43071E-10 -7.17630E-10  1.88613E-10  6.25517E-10 -2.02695E-10
  -8.33251E-11 -1.94126E-11 -8.41258E-11 -5.05501E-12 -4.05017E-10 -2.08073E-10  1.94308E-11 -4.54106E-10 -1.30270E-10  4.67201E-12
   2.78896E-10  3.36604E-10  2.19068E-10 -5.96782E-10 -2.30507E-10  3.81317E-10  3.41989E-11 -7.94276E-10 -6.26341E-11 -6.86417E-10
  -3.71359E-10 -9.87321E-13 -7.84279E-10 -6.02878E-10 -1.29589E-10 -3.04726E-10  3.17540E-10  3.91710E-10  6.80536E-10  6.91617E-10
   8.43023E-10  7.45216E-10  9.92897E-10  4.94379E-10 -1.12273E-10  4.83918E-11 -5.22431E-10 -6.63449E-10 -1.09054E-09 -9.39094E-10
  -1.58227E-09 -1.52438E-09 -1.83584E-09 -1.25712E-09 -1.33500E-09 -5.55381E-10 -6.49229E-10 -4.60100E-10 -4.91147E-11  1.42865E-11
   2.24909E-10  4.44990E-10  2.30308E-10  5.17515E-10  1.14947E-09  9.00192E-10  6.74748E-10 -9.05697E-11  1.03058E-09  9.73971E-10
   8.21305E-10 -6.38739E-10  3.22092E-10  6.04527E-10  3.34260E-10 -4.51550E-10  2.87026E-10  6.30613E-10 -2.11674E-11  1.84440E-11
   1.33145E-10  1.06009E-10  3.50465E-11  4.12090E-11  3.36151E-11 -4.95344E-10 -3.80775E-10 -9.59037E-11 -5.68099E-10 -6.63158E-10
  -5.47206E-10 -5.34083E-10 -4.90711E-10  1.69905E-11 -2.45237E-10 -1.16095E-09 -5.42142E-10 -2.89590E-10 -1.22613E-09 -1.03324E-09
  -6.73081E-10 -6.22922E-10 -9.41559E-10 -7.59806E-10 -9.27886E-10 -8.82435E-10 -6.81640E-10 -1.57929E-09 -1.10517E-09 -1.14074E-09
  -1.06163E-09 -9.47941E-10 -1.49209E-09 -7.62909E-10 -7.78972E-10 -1.69472E-09 -8.99034E-10 -1.21261E-09 -1.00246E-09 -1.34260E-09
  -7.48517E-10 -1.51979E-09 -1.62947E-09 -1.17393E-09 -1.24238E-09 -1.37225E-09 -2.04481E-09 -1.24912E-09 -1.35227E-09 -1.13550E-09
  -1.75960E-09 -1.96429E-09 -1.60404E-09 -1.04740E-09 -1.96253E-09 -1.69761E-09 -1.62902E-09 -1.40590E-09 -1.99297E-09 -1.55928E-09
  -1.99659E-09 -1.75892E-09 -1.90415E-09 -1.71443E-09 -1.92763E-09 -1.04162E-09 -1.84126E-09 -1.79126E-09 -2.04164E-09 -1.74407E-09
  -1.33068E-09 -1.97261E-09 -1.19977E-09
 NY points of the fit to the data follow
   1.23199E-08  1.18839E-08  1.09646E-08  1.04501E-08  1.08168E-08  1.10132E-08  1.05848E-08  1.10139E-08  1.16031E-08  1.16233E-08
   1.05830E-08  9.52634E-09  9.72957E-09  1.02276E-08  1.06770E-08  1.10194E-08  1.13413E-08  1.21323E-08  1.16613E-08  1.01037E-08
   9.82052E-09  1.09505E-08  1.16758E-08  1.25061E-08  1.29305E-08  1.25688E-08  1.17396E-08  1.05931E-08  9.27864E-09  8.79902E-09
   8.78435E-09  8.49037E-09  8.01332E-09  7.67961E-09  7.20634E-09  6.52099E-09  6.01180E-09  5.70565E-09  5.46719E-09  5.22908E-09
   5.09735E-09  5.06710E-09  5.14037E-09  5.19739E-09  5.11508E-09  4.99284E-09  5.12761E-09  5.10464E-09  5.23418E-09  5.58747E-09
   6.24744E-09  7.19843E-09  8.92691E-09  1.05325E-08  1.03946E-08  1.17063E-08  1.33901E-08  1.29143E-08  1.17665E-08  1.15803E-08
   1.15373E-08  1.10130E-08  1.01277E-08  9.02475E-09  8.55893E-09  8.63630E-09  7.48364E-09  6.55716E-09  6.61986E-09  7.95721E-09
   8.89584E-09  8.73116E-09  1.02308E-08  1.16764E-08  1.15285E-08  1.18829E-08  1.24909E-08  1.23628E-08  1.19451E-08  1.14271E-08
   1.04428E-08  1.00456E-08  9.74366E-09  8.38186E-09  7.74790E-09  7.50876E-09  6.53222E-09  5.73525E-09  5.36780E-09  5.13089E-09
   4.95208E-09  4.82474E-09  4.72599E-09  4.65062E-09  4.58210E-09  4.52281E-09  4.47817E-09  4.44664E-09  4.42175E-09  4.40327E-09
   4.41520E-09  4.39660E-09  4.37224E-09  4.39360E-09  4.41393E-09  4.43884E-09  4.56141E-09  4.80124E-09  4.76434E-09  4.77365E-09
   4.92967E-09  4.93301E-09  4.82176E-09  4.71442E-09  4.66852E-09  4.66699E-09  4.62851E-09  4.50456E-09  4.38652E-09  4.41049E-09
   4.30046E-09  4.14276E-09  4.07698E-09  4.03607E-09  4.00432E-09  3.97669E-09  3.95111E-09  3.92656E-09  3.90248E-09  3.87853E-09
   3.85450E-09  3.83027E-09  3.80574E-09  3.78084E-09  3.75555E-09  3.72983E-09  3.70366E-09  3.67704E-09  3.64998E-09  3.62247E-09
   3.59452E-09  3.56615E-09  3.53738E-09  3.50825E-09  3.47879E-09  3.44905E-09  3.41909E-09  3.38899E-09  3.35882E-09  3.32873E-09
   3.29888E-09  3.26948E-09  3.24082E-09  3.21332E-09  3.18755E-09  3.16433E-09  3.14493E-09  3.13131E-09  3.12669E-09  3.13665E-09
   3.17166E-09  3.25351E-09  3.43486E-09  3.87694E-09  5.31364E-09  1.11945E-08  1.46458E-08  1.75210E-08  1.83612E-08  1.67359E-08
   1.45104E-08  1.29111E-08  1.21146E-08  1.21794E-08  1.29627E-08  1.28952E-08  1.05121E-08  8.81220E-09  5.66880E-09  3.80467E-09
   3.19695E-09  2.89228E-09  2.69721E-09  2.55443E-09  2.44087E-09  2.34540E-09  2.26196E-09  2.18693E-09  2.11802E-09  2.05374E-09
   1.99302E-09  1.93514E-09  1.87953E-09  1.82581E-09  1.77366E-09  1.72283E-09  1.67315E-09  1.62448E-09  1.57669E-09  1.52969E-09
   1.48342E-09  1.43780E-09  1.39278E-09  1.34835E-09  1.30444E-09  1.26105E-09  1.21815E-09  1.17574E-09  1.13378E-09  1.09228E-09
   1.05123E-09  1.01062E-09  9.70460E-10  9.30746E-10  8.91462E-10  8.52624E-10  8.14240E-10  7.76306E-10  7.38821E-10  7.01802E-10
   6.65252E-10  6.29176E-10  5.93580E-10  5.58471E-10  5.23852E-10  4.89751E-10  4.56154E-10  4.23076E-10  3.90538E-10  3.58540E-10
   3.27090E-10  2.96202E-10  2.65886E-10  2.36147E-10  2.07000E-10  1.78456E-10  1.50522E-10  1.23209E-10  9.65301E-11  7.05000E-11
   4.51190E-11  2.04067E-11 -3.62876E-12 -2.69942E-11 -4.97059E-11 -7.17801E-11 -9.32331E-11 -1.14079E-10 -1.34336E-10 -1.54019E-10
  -1.73145E-10 -1.91730E-10 -2.09788E-10 -2.27337E-10 -2.44392E-10 -2.60967E-10 -2.77082E-10 -2.92748E-10 -3.07984E-10 -3.22804E-10
  -3.37224E-10 -3.51262E-10 -3.64930E-10 -3.78244E-10 -3.91221E-10 -4.03877E-10 -4.16226E-10 -4.28285E-10 -4.40069E-10 -4.51592E-10
  -4.62873E-10 -4.73922E-10 -4.84761E-10 -4.95399E-10 -5.05856E-10 -5.16147E-10 -5.26286E-10 -5.36289E-10 -5.46170E-10 -5.55946E-10
  -5.65630E-10 -5.75245E-10 -5.84797E-10 -5.94305E-10 -6.03784E-10 -6.13252E-10 -6.22719E-10 -6.32204E-10 -6.41726E-10 -6.51295E-10
  -6.60926E-10 -6.70633E-10 -6.80438E-10 -6.90350E-10 -7.00388E-10 -7.10569E-10 -7.20903E-10 -7.31406E-10 -7.42094E-10 -7.52982E-10
  -7.64091E-10 -7.75434E-10 -7.87016E-10 -7.98854E-10 -8.10942E-10 -8.23272E-10 -8.35840E-10 -8.48639E-10 -8.61663E-10 -8.74907E-10
  -8.88364E-10 -9.02028E-10 -9.15893E-10 -9.29956E-10 -9.44208E-10 -9.58643E-10 -9.73256E-10 -9.88041E-10 -1.00299E-09 -1.01810E-09
  -1.03337E-09 -1.04878E-09 -1.06433E-09 -1.08003E-09 -1.09585E-09 -1.11179E-09 -1.12786E-09 -1.14403E-09 -1.16032E-09 -1.17670E-09
  -1.19318E-09 -1.20975E-09 -1.22640E-09 -1.24312E-09 -1.25992E-09 -1.27678E-09 -1.29370E-09 -1.31068E-09 -1.32770E-09 -1.34476E-09
  -1.36186E-09 -1.37899E-09 -1.39614E-09 -1.41331E-09 -1.43049E-09 -1.44767E-09 -1.46486E-09 -1.48204E-09 -1.49920E-09 -1.51635E-09
  -1.53347E-09 -1.55057E-09 -1.56763E-09 -1.58464E-09 -1.60161E-09 -1.61852E-09 -1.63538E-09 -1.65217E-09 -1.66889E-09 -1.68553E-09
  -1.70208E-09 -1.71855E-09 -1.73492E-09
 NY background values follow
     1.437E-09    1.457E-09    1.477E-09    1.496E-09    1.516E-09    1.536E-09    1.555E-09    1.575E-09    1.595E-09    1.614E-09
     1.634E-09    1.653E-09    1.673E-09    1.693E-09    1.712E-09    1.732E-09    1.751E-09    1.771E-09    1.790E-09    1.810E-09
     1.829E-09    1.849E-09    1.868E-09    1.888E-09    1.907E-09    1.926E-09    1.946E-09    1.965E-09    1.985E-09    2.004E-09
     2.023E-09    2.042E-09    2.062E-09    2.081E-09    2.100E-09    2.119E-09    2.138E-09    2.157E-09    2.176E-09    2.195E-09
     2.214E-09    2.233E-09    2.252E-09    2.271E-09    2.290E-09    2.309E-09    2.328E-09    2.346E-09    2.365E-09    2.384E-09
     2.402E-09    2.421E-09    2.440E-09    2.458E-09    2.476E-09    2.495E-09    2.513E-09    2.532E-09    2.550E-09    2.568E-09
     2.586E-09    2.604E-09    2.623E-09    2.641E-09    2.659E-09    2.676E-09    2.694E-09    2.712E-09    2.729E-09    2.746E-09
     2.763E-09    2.780E-09    2.797E-09    2.814E-09    2.830E-09    2.846E-09    2.862E-09    2.877E-09    2.892E-09    2.907E-09
     2.922E-09    2.936E-09    2.950E-09    2.964E-09    2.977E-09    2.990E-09    3.002E-09    3.014E-09    3.026E-09    3.037E-09
     3.048E-09    3.058E-09    3.068E-09    3.077E-09    3.086E-09    3.094E-09    3.101E-09    3.108E-09    3.115E-09    3.121E-09
     3.126E-09    3.131E-09    3.135E-09    3.138E-09    3.141E-09    3.143E-09    3.145E-09    3.146E-09    3.146E-09    3.145E-09
     3.143E-09    3.141E-09    3.138E-09    3.135E-09    3.130E-09    3.125E-09    3.118E-09    3.111E-09    3.103E-09    3.095E-09
     3.085E-09    3.075E-09    3.063E-09    3.051E-09    3.038E-09    3.023E-09    3.009E-09    2.993E-09    2.976E-09    2.959E-09
     2.941E-09    2.922E-09    2.902E-09    2.882E-09    2.860E-09    2.838E-09    2.816E-09    2.792E-09    2.768E-09    2.744E-09
     2.718E-09    2.692E-09    2.666E-09    2.638E-09    2.611E-09    2.582E-09    2.553E-09    2.524E-09    2.493E-09    2.463E-09
     2.432E-09    2.400E-09    2.368E-09    2.335E-09    2.302E-09    2.268E-09    2.234E-09    2.200E-09    2.165E-09    2.130E-09
     2.094E-09    2.058E-09    2.022E-09    1.985E-09    1.948E-09    1.911E-09    1.873E-09    1.835E-09    1.797E-09    1.759E-09
     1.720E-09    1.681E-09    1.642E-09    1.603E-09    1.563E-09    1.523E-09    1.484E-09    1.444E-09    1.403E-09    1.363E-09
     1.323E-09    1.282E-09    1.242E-09    1.201E-09    1.160E-09    1.119E-09    1.079E-09    1.038E-09    9.970E-10    9.562E-10
     9.154E-10    8.746E-10    8.339E-10    7.932E-10    7.526E-10    7.120E-10    6.716E-10    6.312E-10    5.910E-10    5.509E-10
     5.109E-10    4.711E-10    4.315E-10    3.920E-10    3.527E-10    3.136E-10    2.748E-10    2.361E-10    1.977E-10    1.596E-10
     1.217E-10    8.405E-11    4.672E-11    9.689E-12   -2.704E-11   -6.344E-11   -9.949E-11   -1.352E-10   -1.706E-10   -2.055E-10
    -2.401E-10   -2.743E-10   -3.081E-10   -3.415E-10   -3.744E-10   -4.069E-10   -4.389E-10   -4.705E-10   -5.015E-10   -5.321E-10
    -5.622E-10   -5.917E-10   -6.207E-10   -6.492E-10   -6.771E-10   -7.044E-10   -7.312E-10   -7.574E-10   -7.829E-10   -8.079E-10
    -8.322E-10   -8.558E-10   -8.789E-10   -9.012E-10   -9.230E-10   -9.441E-10   -9.646E-10   -9.845E-10   -1.004E-09   -1.023E-09
    -1.041E-09   -1.059E-09   -1.076E-09   -1.093E-09   -1.109E-09   -1.125E-09   -1.140E-09   -1.155E-09   -1.169E-09   -1.183E-09
    -1.197E-09   -1.210E-09   -1.223E-09   -1.236E-09   -1.248E-09   -1.260E-09   -1.271E-09   -1.283E-09   -1.294E-09   -1.305E-09
    -1.315E-09   -1.326E-09   -1.336E-09   -1.346E-09   -1.356E-09   -1.365E-09   -1.375E-09   -1.384E-09   -1.393E-09   -1.403E-09
    -1.412E-09   -1.421E-09   -1.430E-09   -1.438E-09   -1.447E-09   -1.456E-09   -1.465E-09   -1.474E-09   -1.483E-09   -1.492E-09
    -1.501E-09   -1.510E-09   -1.519E-09   -1.528E-09   -1.538E-09   -1.547E-09   -1.557E-09   -1.567E-09   -1.577E-09   -1.588E-09
    -1.598E-09   -1.609E-09   -1.620E-09   -1.631E-09   -1.643E-09   -1.654E-09   -1.666E-09   -1.679E-09   -1.691E-09   -1.704E-09
    -1.717E-09   -1.730E-09   -1.743E-09   -1.757E-09   -1.770E-09   -1.784E-09   -1.798E-09   -1.812E-09   -1.827E-09   -1.841E-09
    -1.856E-09   -1.871E-09   -1.886E-09   -1.901E-09   -1.916E-09   -1.932E-09   -1.947E-09   -1.963E-09   -1.978E-09   -1.994E-09
    -2.010E-09   -2.026E-09   -2.042E-09   -2.058E-09   -2.075E-09   -2.091E-09   -2.107E-09   -2.124E-09   -2.140E-09   -2.156E-09
    -2.173E-09   -2.190E-09   -2.206E-09   -2.223E-09   -2.239E-09   -2.256E-09   -2.272E-09   -2.289E-09   -2.306E-09   -2.322E-09
    -2.339E-09   -2.355E-09   -2.372E-09   -2.388E-09   -2.404E-09   -2.421E-09   -2.437E-09   -2.453E-09   -2.469E-09   -2.485E-09
    -2.501E-09   -2.517E-09   -2.533E-09
 Ala      Conc. = 2.15E-11
   1.45569E-09  1.47572E-09  1.49340E-09  1.51288E-09  1.53262E-09  1.55203E-09  1.57106E-09  1.58737E-09  1.60512E-09  1.62639E-09
   1.64367E-09  1.66010E-09  1.67980E-09  1.69864E-09  1.71684E-09  1.73563E-09  1.75468E-09  1.77387E-09  1.79313E-09  1.81244E-09
   1.83178E-09  1.85112E-09  1.87047E-09  1.88982E-09  1.90916E-09  1.92849E-09  1.94780E-09  1.96710E-09  1.98639E-09  2.00566E-09
   2.02490E-09  2.04413E-09  2.06333E-09  2.08251E-09  2.10166E-09  2.12079E-09  2.13989E-09  2.15896E-09  2.17800E-09  2.19702E-09
   2.21600E-09  2.23495E-09  2.25387E-09  2.27275E-09  2.29160E-09  2.31042E-09  2.32920E-09  2.34794E-09  2.36665E-09  2.38531E-09
   2.40394E-09  2.42253E-09  2.44108E-09  2.45959E-09  2.47805E-09  2.49647E-09  2.51485E-09  2.53318E-09  2.55147E-09  2.56971E-09
   2.58791E-09  2.60606E-09  2.62415E-09  2.64217E-09  2.66010E-09  2.67793E-09  2.69565E-09  2.71325E-09  2.73070E-09  2.74799E-09
   2.76511E-09  2.78205E-09  2.79879E-09  2.81532E-09  2.83162E-09  2.84768E-09  2.86348E-09  2.87902E-09  2.89427E-09  2.90923E-09
   2.92388E-09  2.93821E-09  2.95220E-09  2.96585E-09  2.97914E-09  2.99205E-09  3.00459E-09  3.01673E-09  3.02847E-09  3.03981E-09
   3.05074E-09  3.06128E-09  3.07143E-09  3.08123E-09  3.09074E-09  3.10009E-09  3.10955E-09  3.11978E-09  3.13261E-09  3.15541E-09
   3.19710E-09  3.19784E-09  3.18943E-09  3.22084E-09  3.23728E-09  3.22790E-09  3.21521E-09  3.21391E-09  3.21778E-09  3.21499E-09
   3.19794E-09  3.17782E-09  3.18363E-09  3.17688E-09  3.15055E-09  3.13755E-09  3.12792E-09  3.11894E-09  3.10982E-09  3.10020E-09
   3.08993E-09  3.07891E-09  3.06709E-09  3.05446E-09  3.04101E-09  3.02674E-09  3.01164E-09  2.99574E-09  2.97905E-09  2.96155E-09
   2.94328E-09  2.92425E-09  2.90445E-09  2.88391E-09  2.86264E-09  2.84065E-09  2.81795E-09  2.79455E-09  2.77048E-09  2.74574E-09
   2.72035E-09  2.69432E-09  2.66766E-09  2.64040E-09  2.61252E-09  2.58406E-09  2.55503E-09  2.52544E-09  2.49530E-09  2.46464E-09
   2.43346E-09  2.40177E-09  2.36959E-09  2.33694E-09  2.30382E-09  2.27026E-09  2.23627E-09  2.20186E-09  2.16706E-09  2.13189E-09
   2.09636E-09  2.06052E-09  2.02444E-09  1.98822E-09  1.95218E-09  1.91733E-09  1.88923E-09  1.88038E-09  1.84921E-09  1.80085E-09
   1.75373E-09  1.71235E-09  1.67073E-09  1.62755E-09  1.58731E-09  1.55236E-09  1.51775E-09  1.47212E-09  1.41446E-09  1.36948E-09
   1.32744E-09  1.28612E-09  1.24505E-09  1.20408E-09  1.16314E-09  1.12221E-09  1.08128E-09  1.04036E-09  9.99450E-10  9.58560E-10
   9.17691E-10  8.76864E-10  8.36081E-10  7.95362E-10  7.54712E-10  7.14138E-10  6.73662E-10  6.33292E-10  5.93035E-10  5.52912E-10
   5.12932E-10  4.73099E-10  4.33432E-10  3.93946E-10  3.54647E-10  3.15549E-10  2.76662E-10  2.38012E-10  1.99593E-10  1.61423E-10
   1.23516E-10  8.58882E-11  4.85474E-11  1.15096E-11 -2.52246E-11 -6.16326E-11 -9.76985E-11 -1.33417E-10 -1.68782E-10 -2.03768E-10
  -2.38365E-10 -2.72565E-10 -3.06355E-10 -3.39726E-10 -3.72668E-10 -4.05150E-10 -4.37182E-10 -4.68745E-10 -4.99816E-10 -5.30393E-10
  -5.60463E-10 -5.90012E-10 -6.19026E-10 -6.47500E-10 -6.75413E-10 -7.02755E-10 -7.29518E-10 -7.55689E-10 -7.81253E-10 -8.06194E-10
  -8.30509E-10 -8.54180E-10 -8.77196E-10 -8.99562E-10 -9.21296E-10 -9.42411E-10 -9.62922E-10 -9.82845E-10 -1.00219E-09 -1.02099E-09
  -1.03924E-09 -1.05696E-09 -1.07417E-09 -1.09088E-09 -1.10711E-09 -1.12288E-09 -1.13820E-09 -1.15307E-09 -1.16753E-09 -1.18159E-09
  -1.19525E-09 -1.20854E-09 -1.22147E-09 -1.23405E-09 -1.24631E-09 -1.25825E-09 -1.26989E-09 -1.28125E-09 -1.29234E-09 -1.30317E-09
  -1.31377E-09 -1.32415E-09 -1.33432E-09 -1.34430E-09 -1.35410E-09 -1.36374E-09 -1.37323E-09 -1.38259E-09 -1.39183E-09 -1.40097E-09
  -1.41003E-09 -1.41902E-09 -1.42795E-09 -1.43684E-09 -1.44571E-09 -1.45456E-09 -1.46342E-09 -1.47230E-09 -1.48122E-09 -1.49019E-09
  -1.49923E-09 -1.50834E-09 -1.51755E-09 -1.52687E-09 -1.53632E-09 -1.54592E-09 -1.55567E-09 -1.56559E-09 -1.57570E-09 -1.58601E-09
  -1.59654E-09 -1.60730E-09 -1.61831E-09 -1.62957E-09 -1.64109E-09 -1.65285E-09 -1.66484E-09 -1.67707E-09 -1.68953E-09 -1.70220E-09
  -1.71509E-09 -1.72819E-09 -1.74149E-09 -1.75499E-09 -1.76867E-09 -1.78254E-09 -1.79659E-09 -1.81081E-09 -1.82519E-09 -1.83973E-09
  -1.85443E-09 -1.86928E-09 -1.88427E-09 -1.89939E-09 -1.91465E-09 -1.93003E-09 -1.94552E-09 -1.96113E-09 -1.97684E-09 -1.99266E-09
  -2.00856E-09 -2.02456E-09 -2.04064E-09 -2.05679E-09 -2.07302E-09 -2.08930E-09 -2.10565E-09 -2.12205E-09 -2.13849E-09 -2.15497E-09
  -2.17149E-09 -2.18804E-09 -2.20460E-09 -2.22119E-09 -2.23778E-09 -2.25438E-09 -2.27098E-09 -2.28756E-09 -2.30414E-09 -2.32069E-09
  -2.33722E-09 -2.35372E-09 -2.37018E-09 -2.38659E-09 -2.40296E-09 -2.41927E-09 -2.43552E-09 -2.45170E-09 -2.46780E-09 -2.48383E-09
  -2.49977E-09 -2.51563E-09 -2.53138E-09
 Gln      Conc. = 4.08E-09
   6.70281E-09  6.78609E-09  6.48440E-09  6.12752E-09  5.91333E-09  5.62907E-09  5.31838E-09  5.21576E-09  4.22183E-09  3.90387E-09
   3.65812E-09  2.99638E-09  2.72751E-09  2.60358E-09  2.53792E-09  2.50121E-09  2.48236E-09  2.47542E-09  2.47620E-09  2.48197E-09
   2.49117E-09  2.50332E-09  2.51899E-09  2.53723E-09  2.55645E-09  2.57816E-09  2.60157E-09  2.62617E-09  2.65203E-09  2.67923E-09
   2.70783E-09  2.73795E-09  2.76970E-09  2.80325E-09  2.83878E-09  2.87647E-09  2.91647E-09  2.96035E-09  3.00781E-09  3.06023E-09
   3.11857E-09  3.18303E-09  3.25451E-09  3.33725E-09  3.43171E-09  3.54198E-09  3.68567E-09  3.86512E-09  4.08853E-09  4.40997E-09
   4.90562E-09  5.75896E-09  7.58731E-09  9.07136E-09  8.73537E-09  1.01616E-08  1.19095E-08  1.14265E-08  1.03122E-08  1.02273E-08
   1.02683E-08  9.85659E-09  8.99358E-09  7.88518E-09  7.57583E-09  7.70379E-09  6.46341E-09  5.57363E-09  5.65868E-09  6.79389E-09
   7.50530E-09  7.32612E-09  8.65195E-09  9.96375E-09  9.82463E-09  9.86254E-09  1.00125E-08  9.91331E-09  9.73428E-09  9.36995E-09
   8.54818E-09  8.29552E-09  8.12598E-09  6.93072E-09  6.26424E-09  5.99966E-09  5.32397E-09  4.86916E-09  4.59526E-09  4.41215E-09
   4.28607E-09  4.19248E-09  4.11537E-09  4.05443E-09  4.00634E-09  3.96569E-09  3.93203E-09  3.90471E-09  3.88154E-09  3.86093E-09
   3.84247E-09  3.82588E-09  3.81133E-09  3.79822E-09  3.78603E-09  3.77456E-09  3.76364E-09  3.75310E-09  3.74280E-09  3.73263E-09
   3.72247E-09  3.71223E-09  3.70182E-09  3.69117E-09  3.68021E-09  3.66889E-09  3.65714E-09  3.64491E-09  3.63216E-09  3.61885E-09
   3.60494E-09  3.59038E-09  3.57515E-09  3.55926E-09  3.54270E-09  3.52547E-09  3.50756E-09  3.48898E-09  3.46974E-09  3.44984E-09
   3.42928E-09  3.40807E-09  3.38622E-09  3.36375E-09  3.34065E-09  3.31694E-09  3.29264E-09  3.26776E-09  3.24232E-09  3.21633E-09
   3.18981E-09  3.16278E-09  3.13527E-09  3.10732E-09  3.07894E-09  3.05019E-09  3.02111E-09  2.99176E-09  2.96219E-09  2.93252E-09
   2.90286E-09  2.87336E-09  2.84422E-09  2.81575E-09  2.78833E-09  2.76256E-09  2.73935E-09  2.72013E-09  2.70727E-09  2.70503E-09
   2.72156E-09  2.77450E-09  2.90833E-09  3.26620E-09  4.53501E-09  1.00056E-08  1.19858E-08  1.03017E-08  8.49005E-09  7.85931E-09
   7.37509E-09  6.58781E-09  6.26452E-09  6.99654E-09  8.09389E-09  7.40632E-09  4.02340E-09  2.80032E-09  2.40160E-09  2.19876E-09
   2.06703E-09  1.96835E-09  1.88757E-09  1.81753E-09  1.75441E-09  1.69602E-09  1.64099E-09  1.58845E-09  1.53779E-09  1.48862E-09
   1.44062E-09  1.39358E-09  1.34735E-09  1.30180E-09  1.25685E-09  1.21241E-09  1.16844E-09  1.12490E-09  1.08174E-09  1.03897E-09
   9.96542E-10  9.54450E-10  9.12688E-10  8.71254E-10  8.30134E-10  7.89332E-10  7.48845E-10  7.08688E-10  6.68849E-10  6.29337E-10
   5.90157E-10  5.51321E-10  5.12831E-10  4.74700E-10  4.36921E-10  3.99513E-10  3.62491E-10  3.25856E-10  2.89613E-10  2.53782E-10
   2.18369E-10  1.83385E-10  1.48837E-10  1.14735E-10  8.10859E-11  4.79197E-11  1.52248E-11 -1.69819E-11 -4.86784E-11 -7.98620E-11
