 LCModel (Version 6.3-1R) Copyright: S.W. Provencher.          Ref.: Magn. Reson. Med. 30:672-679 (1993).                
 onepulse 18x12_ftSpec_smooth_lcm
 26 lines in following concentration table = NCONC+1
    Conc.  %SD /Cr+PCr  Metabolite                                         
    0.000 999%   0.000 Ala                                                 
    0.000 999%   0.000 Asp                                                 
 3.07E-12 999%   1.000 Cr                                                  
    0.000 999%   0.000 GABA                                                
    0.000 999%   0.000 Glc                                                 
 3.32E-09  16% 1.1E+03 Gln                                                 
    0.000 999%   0.000 Glu                                                 
    0.000 999%   0.000 Glyc                                                
    0.000 999%   0.000 GPC                                                 
 1.18E-09  45% 384.643 GSH                                                 
 1.67E-09  18% 543.287 Ins                                                 
    0.000 999%   0.000 Lac                                                 
 2.73E-10  58%  88.960 NAAG                                                
    0.000 999%   0.000 NAA                                                 
 1.24E-10 113%  40.354 PCh                                                 
    0.000 999%   0.000 PCr                                                 
 1.19E-09  82% 387.246 PE                                                  
 2.77E-10  67%  90.425 Scyllo                                              
    0.000 999%   0.000 Ser                                                 
 7.97E-10  89% 259.876 Tau                                                 
 1.24E-10 113%  40.354 GPC+PCh                                             
 2.73E-10  58%  88.960 NAA+NAAG                                            
 1.67E-09  18% 543.287 Ins+Glyc                                            
 3.07E-12 999%   1.000 Cr+PCr                                              
 3.32E-09  16% 1.1E+03 Glu+Gln                                             
   6 lines in following misc. output table
  FWHM = 0.123 ppm    S/N =   4                                            
  Data shift = 0.425 ppm                                                   
  Ph: -12 deg     -35.1 deg/ppm                                            
  alphaB,S = 4.6E-01,   1.3E+01                                            
   10 spline knots.   Ns = 5(1)                                            
  (12) 6 infls.   (11) 3 extrs.                                            
  363 points on ppm-axis = NY
      4.250000     4.238821     4.227641     4.216462     4.205282     4.194103     4.182923     4.171744     4.160564     4.149385
      4.138206     4.127026     4.115847     4.104667     4.093488     4.082308     4.071129     4.059949     4.048770     4.037591
      4.026411     4.015232     4.004052     3.992873     3.981693     3.970514     3.959334     3.948155     3.936975     3.925796
      3.914617     3.903437     3.892258     3.881078     3.869899     3.858719     3.847540     3.836360     3.825181     3.814002
      3.802822     3.791643     3.780463     3.769284     3.758104     3.746925     3.735745     3.724566     3.713387     3.702207
      3.691028     3.679848     3.668669     3.657489     3.646310     3.635130     3.623951     3.612772     3.601592     3.590413
      3.579233     3.568054     3.556874     3.545695     3.534515     3.523336     3.512156     3.500977     3.489798     3.478618
      3.467439     3.456259     3.445080     3.433900     3.422721     3.411541     3.400362     3.389183     3.378003     3.366824
      3.355644     3.344465     3.333285     3.322106     3.310926     3.299747     3.288568     3.277388     3.266209     3.255029
      3.243850     3.232670     3.221491     3.210311     3.199132     3.187953     3.176773     3.165594     3.154414     3.143235
      3.132055     3.120876     3.109696     3.098517     3.087337     3.076158     3.064979     3.053799     3.042620     3.031440
      3.020261     3.009081     2.997902     2.986722     2.975543     2.964364     2.953184     2.942005     2.930825     2.919646
      2.908466     2.897287     2.886107     2.874928     2.863749     2.852569     2.841390     2.830210     2.819031     2.807851
      2.796672     2.785492     2.774313     2.763134     2.751954     2.740775     2.729595     2.718416     2.707236     2.696057
      2.684877     2.673698     2.662519     2.651339     2.640160     2.628980     2.617801     2.606621     2.595442     2.584262
      2.573083     2.561903     2.550724     2.539545     2.528365     2.517186     2.506006     2.494827     2.483647     2.472468
      2.461288     2.450109     2.438930     2.427750     2.416571     2.405391     2.394212     2.383032     2.371853     2.360673
      2.349494     2.338315     2.327135     2.315956     2.304776     2.293597     2.282417     2.271238     2.260058     2.248879
      2.237700     2.226520     2.215341     2.204161     2.192982     2.181802     2.170623     2.159443     2.148264     2.137084
      2.125905     2.114726     2.103546     2.092367     2.081187     2.070008     2.058828     2.047649     2.036469     2.025290
      2.014111     2.002931     1.991752     1.980572     1.969393     1.958213     1.947034     1.935854     1.924675     1.913496
      1.902316     1.891137     1.879957     1.868778     1.857598     1.846419     1.835239     1.824060     1.812881     1.801701
      1.790522     1.779342     1.768163     1.756983     1.745804     1.734624     1.723445     1.712265     1.701086     1.689907
      1.678727     1.667548     1.656368     1.645189     1.634009     1.622830     1.611650     1.600471     1.589292     1.578112
      1.566933     1.555753     1.544574     1.533394     1.522215     1.511035     1.499856     1.488677     1.477497     1.466318
      1.455138     1.443959     1.432779     1.421600     1.410420     1.399241     1.388062     1.376882     1.365703     1.354523
      1.343344     1.332164     1.320985     1.309805     1.298626     1.287446     1.276267     1.265088     1.253908     1.242729
      1.231549     1.220370     1.209190     1.198011     1.186831     1.175652     1.164473     1.153293     1.142114     1.130934
      1.119755     1.108575     1.097396     1.086216     1.075037     1.063858     1.052678     1.041499     1.030319     1.019140
      1.007960     0.996781     0.985601     0.974422     0.963243     0.952063     0.940884     0.929704     0.918525     0.907345
      0.896166     0.884986     0.873807     0.862628     0.851448     0.840269     0.829089     0.817910     0.806730     0.795551
      0.784371     0.773192     0.762012     0.750833     0.739654     0.728474     0.717295     0.706115     0.694936     0.683756
      0.672577     0.661397     0.650218     0.639039     0.627859     0.616680     0.605500     0.594321     0.583141     0.571962
      0.560782     0.549603     0.538424     0.527244     0.516065     0.504885     0.493706     0.482526     0.471347     0.460167
      0.448988     0.437809     0.426629     0.415450     0.404270     0.393091     0.381911     0.370732     0.359552     0.348373
      0.337193     0.326014     0.314835     0.303655     0.292476     0.281296     0.270117     0.258937     0.247758     0.236578
      0.225399     0.214220     0.203040
 NY phased data points follow
   1.15005E-08  1.05947E-08  1.18564E-08  1.15414E-08  1.20336E-08  1.24601E-08  1.21916E-08  1.20914E-08  1.29367E-08  1.26171E-08
   1.20961E-08  1.11373E-08  1.15176E-08  1.07916E-08  1.09060E-08  1.10351E-08  1.15256E-08  1.13681E-08  1.17243E-08  1.19796E-08
   1.18630E-08  1.09338E-08  1.06471E-08  1.11470E-08  1.28985E-08  1.43374E-08  1.40796E-08  1.36207E-08  1.24938E-08  1.07030E-08
   9.50846E-09  8.88428E-09  8.98025E-09  8.45040E-09  8.12381E-09  8.10422E-09  8.17145E-09  7.77090E-09  7.24516E-09  6.45882E-09
   6.03555E-09  6.01148E-09  6.75546E-09  6.78650E-09  6.56079E-09  6.77142E-09  6.68150E-09  6.14051E-09  5.62798E-09  5.07641E-09
   5.04085E-09  5.65495E-09  6.13243E-09  6.87920E-09  7.58864E-09  9.87176E-09  1.31449E-08  1.50610E-08  1.54987E-08  1.33913E-08
   1.14088E-08  1.02725E-08  8.53190E-09  8.56664E-09  7.74345E-09  7.37167E-09  6.40009E-09  5.67531E-09  5.74419E-09  5.74928E-09
   5.79162E-09  7.32304E-09  9.30989E-09  1.39011E-08  1.61739E-08  1.58917E-08  1.42925E-08  1.40657E-08  1.21950E-08  1.24394E-08
   1.16604E-08  1.11026E-08  1.05604E-08  1.05451E-08  9.60904E-09  9.53007E-09  8.98069E-09  8.44910E-09  7.40586E-09  8.05719E-09
   6.87349E-09  7.00212E-09  6.75900E-09  6.69984E-09  5.88408E-09  7.06927E-09  6.74993E-09  6.88828E-09  5.52920E-09  6.41031E-09
   5.85426E-09  5.87797E-09  5.62124E-09  4.81662E-09  4.22772E-09  3.51225E-09  4.02005E-09  5.16909E-09  4.61067E-09  4.31489E-09
   4.84618E-09  5.60581E-09  5.09285E-09  5.68021E-09  5.72247E-09  6.50121E-09  5.23620E-09  4.80262E-09  4.30300E-09  4.33015E-09
   3.33263E-09  3.82548E-09  4.18316E-09  3.98094E-09  3.81901E-09  4.45991E-09  3.78564E-09  4.59280E-09  4.04346E-09  4.13341E-09
   3.54960E-09  3.66099E-09  3.23984E-09  4.83012E-09  5.31363E-09  6.28069E-09  5.90975E-09  5.57360E-09  5.03949E-09  6.21819E-09
   6.10198E-09  6.93796E-09  6.72627E-09  6.71446E-09  5.99646E-09  6.24589E-09  5.55844E-09  5.74699E-09  5.05758E-09  5.75485E-09
   5.28117E-09  5.67319E-09  4.91986E-09  5.03275E-09  4.83022E-09  5.20887E-09  5.05584E-09  5.06820E-09  3.83436E-09  4.39238E-09
   2.93913E-09  4.00583E-09  3.39837E-09  3.87836E-09  8.50177E-09  1.41123E-08  1.69757E-08  1.74824E-08  1.65922E-08  1.67069E-08
   1.62837E-08  1.52535E-08  1.40116E-08  1.39762E-08  1.35913E-08  1.32442E-08  1.26379E-08  1.27161E-08  1.09642E-08  1.08106E-08
   1.00723E-08  9.67494E-09  8.16558E-09  6.94300E-09  5.53599E-09  4.46177E-09  3.34772E-09  2.16418E-09  3.75054E-10 -1.21159E-09
  -2.23317E-09 -3.23622E-09 -5.25143E-09 -5.46414E-09 -6.43555E-09 -6.65168E-09 -7.35195E-09 -6.97986E-09 -6.81517E-09 -6.50983E-09
  -6.30606E-09 -6.01639E-09 -5.25124E-09 -3.98616E-09 -3.22887E-09 -2.27236E-09 -2.37355E-09 -1.57131E-09 -1.74604E-09 -1.24768E-09
  -1.42470E-09 -1.22857E-09 -1.22408E-09 -1.48312E-09 -1.74044E-09 -1.45135E-09 -1.29165E-09 -1.13921E-09 -3.85011E-10 -4.05610E-11
  -9.26214E-10 -7.24319E-10 -9.98571E-10 -8.09004E-10 -7.80344E-10 -1.12937E-09 -7.09344E-10 -6.41690E-10 -1.32475E-09 -5.39232E-10
  -5.54978E-10 -3.98263E-10 -2.13029E-10 -5.32620E-10 -1.19839E-09 -6.15079E-10 -4.95468E-10 -8.24515E-10 -1.53414E-09 -8.67960E-10
  -1.37498E-09 -7.21212E-10 -9.30152E-10 -1.18365E-09 -8.49993E-10 -5.95123E-10 -5.11453E-10 -7.18619E-11 -1.92425E-10  1.85434E-10
   5.13908E-11  4.92405E-10  2.21990E-11  4.61781E-10 -5.30512E-10 -8.80333E-10 -7.26730E-10 -1.24804E-09 -1.48779E-09 -1.93785E-09
  -1.77264E-09 -2.42610E-09 -2.13033E-09 -2.17702E-09 -1.75351E-09 -1.81370E-09 -9.53015E-10 -1.19148E-09 -5.36874E-10 -4.49112E-10
  -2.34499E-10 -5.59623E-11 -4.60565E-11 -8.98140E-11  1.17561E-10  5.86958E-10  5.07746E-10  1.19617E-11 -2.67071E-10  5.30697E-10
   2.27753E-10  1.62461E-10 -9.14416E-10 -5.63495E-11  1.60555E-10 -4.89664E-10 -8.93488E-10 -9.20733E-11  7.90451E-13 -7.19339E-10
  -3.17071E-10 -3.85646E-10 -5.22517E-10 -6.09638E-10 -8.22184E-10 -7.16677E-10 -1.30581E-09 -1.05536E-09 -9.73329E-10 -1.39622E-09
  -1.25052E-09 -1.11102E-09 -1.35976E-09 -1.29096E-09 -9.66721E-10 -1.22369E-09 -2.03192E-09 -1.25266E-09 -1.40569E-09 -2.04920E-09
  -1.75667E-09 -1.65634E-09 -1.60195E-09 -1.83942E-09 -1.64589E-09 -2.02482E-09 -1.76232E-09 -1.86459E-09 -2.50778E-09 -1.86701E-09
  -2.13172E-09 -1.98373E-09 -1.92881E-09 -2.45304E-09 -1.62910E-09 -2.13583E-09 -2.46699E-09 -1.99282E-09 -2.29819E-09 -2.17775E-09
  -2.13602E-09 -2.08611E-09 -2.69090E-09 -2.44698E-09 -2.12624E-09 -2.39266E-09 -2.52094E-09 -2.92107E-09 -2.26562E-09 -2.61316E-09
  -2.35756E-09 -2.96390E-09 -2.94608E-09 -2.69599E-09 -2.29441E-09 -3.23014E-09 -2.64084E-09 -2.72205E-09 -2.45915E-09 -2.98213E-09
  -2.59200E-09 -3.23711E-09 -2.76995E-09 -2.94792E-09 -2.57692E-09 -2.83404E-09 -2.34864E-09 -3.23885E-09 -2.77103E-09 -3.12820E-09
  -2.73523E-09 -2.74524E-09 -2.88298E-09
 NY points of the fit to the data follow
   1.17027E-08  1.20446E-08  1.21045E-08  1.13779E-08  1.11318E-08  1.22193E-08  1.22206E-08  1.20118E-08  1.36771E-08  1.30256E-08
   1.23071E-08  1.17376E-08  1.08142E-08  1.08808E-08  1.12169E-08  1.09056E-08  1.03261E-08  1.13048E-08  1.26252E-08  1.16863E-08
   1.06183E-08  1.09683E-08  1.19525E-08  1.28440E-08  1.33500E-08  1.36686E-08  1.35468E-08  1.28832E-08  1.17523E-08  1.04895E-08
   1.00266E-08  9.63654E-09  9.03296E-09  8.67989E-09  8.55018E-09  7.59184E-09  7.22470E-09  7.15010E-09  6.87014E-09  6.59806E-09
   6.46958E-09  6.35595E-09  6.35952E-09  6.36358E-09  6.03413E-09  5.53321E-09  5.60589E-09  5.23202E-09  5.18594E-09  5.47144E-09
   6.11506E-09  6.70658E-09  7.26926E-09  9.01375E-09  1.04068E-08  1.01779E-08  1.15698E-08  1.28625E-08  1.25434E-08  1.20422E-08
   1.20837E-08  1.15766E-08  1.10469E-08  1.05859E-08  9.23010E-09  8.45187E-09  8.71905E-09  7.68364E-09  6.86029E-09  7.37116E-09
   8.55076E-09  8.99952E-09  9.57663E-09  1.10319E-08  1.19838E-08  1.26763E-08  1.37657E-08  1.39558E-08  1.36444E-08  1.34504E-08
   1.29184E-08  1.18896E-08  1.13151E-08  1.07231E-08  9.62650E-09  8.96017E-09  8.17324E-09  7.01261E-09  6.47382E-09  6.15691E-09
   5.92417E-09  5.77777E-09  5.67118E-09  5.59079E-09  5.51806E-09  5.46067E-09  5.41683E-09  5.38549E-09  5.36257E-09  5.32874E-09
   5.30859E-09  5.30147E-09  5.29191E-09  5.28129E-09  5.27409E-09  5.26938E-09  5.26612E-09  5.26398E-09  5.26218E-09  5.26064E-09
   5.25916E-09  5.25756E-09  5.25569E-09  5.25341E-09  5.25060E-09  5.24714E-09  5.24295E-09  5.23794E-09  5.23203E-09  5.22515E-09
   5.21724E-09  5.20825E-09  5.19811E-09  5.18677E-09  5.17418E-09  5.16031E-09  5.14511E-09  5.12853E-09  5.11055E-09  5.09112E-09
   5.07021E-09  5.04780E-09  5.02385E-09  4.99834E-09  4.97123E-09  4.94252E-09  4.91218E-09  4.88019E-09  4.84654E-09  4.81123E-09
   4.77424E-09  4.73557E-09  4.69523E-09  4.65324E-09  4.60961E-09  4.56438E-09  4.51760E-09  4.46933E-09  4.41967E-09  4.36873E-09
   4.31667E-09  4.26371E-09  4.21015E-09  4.15639E-09  4.10298E-09  4.05070E-09  4.00071E-09  3.95474E-09  3.91552E-09  3.88727E-09
   3.87709E-09  3.89778E-09  3.97496E-09  4.16769E-09  4.64530E-09  6.10272E-09  1.17438E-08  1.81532E-08  1.91676E-08  1.78267E-08
   1.67893E-08  1.58132E-08  1.45991E-08  1.37020E-08  1.34120E-08  1.37734E-08  1.36325E-08  9.82169E-09  4.95317E-09  3.11991E-09
   2.46543E-09  2.10756E-09  1.86177E-09  1.66986E-09  1.50796E-09  1.36463E-09  1.23367E-09  1.11151E-09  9.95992E-10  8.85698E-10
   7.79713E-10  6.77443E-10  5.78449E-10  4.82494E-10  3.89357E-10  2.98944E-10  2.11182E-10  1.26056E-10  4.35376E-11 -3.63276E-11
  -1.13514E-10 -1.87978E-10 -2.59653E-10 -3.28484E-10 -3.94392E-10 -4.57307E-10 -5.17127E-10 -5.73804E-10 -6.27255E-10 -6.77573E-10
  -7.24839E-10 -7.69142E-10 -8.10561E-10 -8.49188E-10 -8.85097E-10 -9.18378E-10 -9.49105E-10 -9.77356E-10 -1.00322E-09 -1.02677E-09
  -1.04808E-09 -1.06723E-09 -1.08431E-09 -1.09938E-09 -1.11252E-09 -1.12382E-09 -1.13334E-09 -1.14116E-09 -1.14738E-09 -1.15204E-09
  -1.15523E-09 -1.15704E-09 -1.15752E-09 -1.15677E-09 -1.15485E-09 -1.15184E-09 -1.14782E-09 -1.14286E-09 -1.13703E-09 -1.13042E-09
  -1.12309E-09 -1.11512E-09 -1.10659E-09 -1.09756E-09 -1.08813E-09 -1.07835E-09 -1.06831E-09 -1.05809E-09 -1.04775E-09 -1.03736E-09
  -1.02701E-09 -1.01677E-09 -1.00672E-09 -9.96912E-10 -9.87458E-10 -9.78397E-10 -9.69826E-10 -9.61808E-10 -9.54425E-10 -9.47754E-10
  -9.41821E-10 -9.36629E-10 -9.32176E-10 -9.28453E-10 -9.25455E-10 -9.23181E-10 -9.21622E-10 -9.20776E-10 -9.20633E-10 -9.21194E-10
  -9.22452E-10 -9.24397E-10 -9.27032E-10 -9.30343E-10 -9.34328E-10 -9.38988E-10 -9.44310E-10 -9.50293E-10 -9.56927E-10 -9.64216E-10
  -9.72142E-10 -9.80714E-10 -9.89912E-10 -9.99739E-10 -1.01019E-09 -1.02127E-09 -1.03295E-09 -1.04524E-09 -1.05814E-09 -1.07163E-09
  -1.08572E-09 -1.10038E-09 -1.11563E-09 -1.13147E-09 -1.14787E-09 -1.16484E-09 -1.18236E-09 -1.20044E-09 -1.21907E-09 -1.23825E-09
  -1.25798E-09 -1.27822E-09 -1.29901E-09 -1.32031E-09 -1.34213E-09 -1.36447E-09 -1.38732E-09 -1.41067E-09 -1.43452E-09 -1.45885E-09
  -1.48368E-09 -1.50900E-09 -1.53478E-09 -1.56102E-09 -1.58770E-09 -1.61480E-09 -1.64232E-09 -1.67024E-09 -1.69854E-09 -1.72721E-09
  -1.75624E-09 -1.78562E-09 -1.81531E-09 -1.84533E-09 -1.87564E-09 -1.90624E-09 -1.93710E-09 -1.96823E-09 -1.99959E-09 -2.03118E-09
  -2.06299E-09 -2.09500E-09 -2.12718E-09 -2.15955E-09 -2.19206E-09 -2.22472E-09 -2.25751E-09 -2.29041E-09 -2.32341E-09 -2.35649E-09
  -2.38965E-09 -2.42286E-09 -2.45611E-09 -2.48940E-09 -2.52269E-09 -2.55598E-09 -2.58926E-09 -2.62251E-09 -2.65572E-09 -2.68886E-09
  -2.72194E-09 -2.75493E-09 -2.78782E-09 -2.82059E-09 -2.85323E-09 -2.88573E-09 -2.91808E-09 -2.95024E-09 -2.98223E-09 -3.01401E-09
  -3.04558E-09 -3.07692E-09 -3.10801E-09
 NY background values follow
    -7.667E-10   -7.093E-10   -6.519E-10   -5.946E-10   -5.373E-10   -4.800E-10   -4.228E-10   -3.656E-10   -3.084E-10   -2.514E-10
    -1.943E-10   -1.373E-10   -8.043E-11   -2.358E-11    3.320E-11    8.991E-11    1.465E-10    2.031E-10    2.595E-10    3.159E-10
     3.722E-10    4.284E-10    4.845E-10    5.404E-10    5.963E-10    6.521E-10    7.077E-10    7.632E-10    8.186E-10    8.739E-10
     9.291E-10    9.841E-10    1.039E-09    1.094E-09    1.148E-09    1.203E-09    1.257E-09    1.311E-09    1.365E-09    1.419E-09
     1.473E-09    1.526E-09    1.579E-09    1.632E-09    1.685E-09    1.738E-09    1.791E-09    1.843E-09    1.895E-09    1.947E-09
     1.999E-09    2.050E-09    2.102E-09    2.153E-09    2.204E-09    2.254E-09    2.305E-09    2.355E-09    2.404E-09    2.454E-09
     2.503E-09    2.552E-09    2.600E-09    2.648E-09    2.696E-09    2.743E-09    2.790E-09    2.836E-09    2.882E-09    2.927E-09
     2.972E-09    3.016E-09    3.060E-09    3.103E-09    3.146E-09    3.188E-09    3.229E-09    3.270E-09    3.311E-09    3.350E-09
     3.389E-09    3.427E-09    3.465E-09    3.502E-09    3.538E-09    3.573E-09    3.608E-09    3.642E-09    3.675E-09    3.707E-09
     3.738E-09    3.769E-09    3.798E-09    3.827E-09    3.855E-09    3.882E-09    3.908E-09    3.933E-09    3.957E-09    3.980E-09
     4.002E-09    4.024E-09    4.044E-09    4.063E-09    4.081E-09    4.098E-09    4.114E-09    4.128E-09    4.142E-09    4.154E-09
     4.165E-09    4.175E-09    4.184E-09    4.191E-09    4.197E-09    4.202E-09    4.205E-09    4.207E-09    4.208E-09    4.207E-09
     4.204E-09    4.201E-09    4.195E-09    4.188E-09    4.180E-09    4.170E-09    4.158E-09    4.144E-09    4.129E-09    4.113E-09
     4.094E-09    4.074E-09    4.052E-09    4.028E-09    4.003E-09    3.975E-09    3.946E-09    3.914E-09    3.881E-09    3.846E-09
     3.809E-09    3.770E-09    3.729E-09    3.685E-09    3.640E-09    3.593E-09    3.543E-09    3.492E-09    3.438E-09    3.382E-09
     3.323E-09    3.263E-09    3.200E-09    3.134E-09    3.067E-09    2.997E-09    2.925E-09    2.850E-09    2.773E-09    2.694E-09
     2.614E-09    2.531E-09    2.446E-09    2.360E-09    2.272E-09    2.183E-09    2.093E-09    2.001E-09    1.908E-09    1.814E-09
     1.719E-09    1.623E-09    1.527E-09    1.430E-09    1.332E-09    1.234E-09    1.136E-09    1.038E-09    9.392E-10    8.407E-10
     7.424E-10    6.443E-10    5.466E-10    4.494E-10    3.526E-10    2.566E-10    1.614E-10    6.695E-11   -2.644E-11   -1.187E-10
    -2.099E-10   -2.997E-10   -3.881E-10   -4.749E-10   -5.602E-10   -6.437E-10   -7.254E-10   -8.052E-10   -8.829E-10   -9.585E-10
    -1.032E-09   -1.103E-09   -1.171E-09   -1.237E-09   -1.300E-09   -1.361E-09   -1.418E-09   -1.473E-09   -1.524E-09   -1.573E-09
    -1.618E-09   -1.661E-09   -1.701E-09   -1.738E-09   -1.772E-09   -1.804E-09   -1.834E-09   -1.861E-09   -1.886E-09   -1.908E-09
    -1.928E-09   -1.947E-09   -1.963E-09   -1.977E-09   -1.989E-09   -2.000E-09   -2.008E-09   -2.015E-09   -2.021E-09   -2.025E-09
    -2.027E-09   -2.028E-09   -2.028E-09   -2.027E-09   -2.024E-09   -2.021E-09   -2.016E-09   -2.010E-09   -2.004E-09   -1.997E-09
    -1.989E-09   -1.980E-09   -1.971E-09   -1.962E-09   -1.952E-09   -1.942E-09   -1.931E-09   -1.920E-09   -1.910E-09   -1.899E-09
    -1.888E-09   -1.877E-09   -1.867E-09   -1.856E-09   -1.847E-09   -1.837E-09   -1.828E-09   -1.820E-09   -1.812E-09   -1.805E-09
    -1.798E-09   -1.793E-09   -1.788E-09   -1.784E-09   -1.780E-09   -1.778E-09   -1.776E-09   -1.775E-09   -1.774E-09   -1.774E-09
    -1.775E-09   -1.777E-09   -1.779E-09   -1.782E-09   -1.786E-09   -1.790E-09   -1.795E-09   -1.800E-09   -1.807E-09   -1.814E-09
    -1.821E-09   -1.829E-09   -1.838E-09   -1.848E-09   -1.858E-09   -1.869E-09   -1.880E-09   -1.892E-09   -1.904E-09   -1.918E-09
    -1.931E-09   -1.946E-09   -1.960E-09   -1.976E-09   -1.992E-09   -2.009E-09   -2.026E-09   -2.044E-09   -2.062E-09   -2.081E-09
    -2.100E-09   -2.120E-09   -2.140E-09   -2.161E-09   -2.183E-09   -2.205E-09   -2.227E-09   -2.250E-09   -2.274E-09   -2.298E-09
    -2.322E-09   -2.347E-09   -2.373E-09   -2.399E-09   -2.425E-09   -2.452E-09   -2.479E-09   -2.507E-09   -2.534E-09   -2.563E-09
    -2.591E-09   -2.621E-09   -2.650E-09   -2.680E-09   -2.709E-09   -2.740E-09   -2.770E-09   -2.801E-09   -2.832E-09   -2.863E-09
    -2.895E-09   -2.926E-09   -2.958E-09   -2.990E-09   -3.022E-09   -3.055E-09   -3.087E-09   -3.120E-09   -3.152E-09   -3.185E-09
    -3.218E-09   -3.250E-09   -3.283E-09   -3.316E-09   -3.349E-09   -3.382E-09   -3.415E-09   -3.448E-09   -3.481E-09   -3.513E-09
    -3.546E-09   -3.579E-09   -3.611E-09   -3.644E-09   -3.676E-09   -3.708E-09   -3.740E-09   -3.772E-09   -3.803E-09   -3.835E-09
    -3.866E-09   -3.897E-09   -3.927E-09
 Cr       Conc. = 3.07E-12
  -7.58351E-10 -7.00373E-10 -6.44131E-10 -5.91830E-10 -5.35875E-10 -4.79035E-10 -4.22001E-10 -3.64922E-10 -3.07849E-10 -2.50802E-10
  -1.93800E-10 -1.36846E-10 -7.99445E-11 -2.31078E-11  3.36640E-11  9.03671E-11  1.46989E-10  2.03541E-10  2.60003E-10  3.16387E-10
   3.72678E-10  4.28877E-10  4.84989E-10  5.41008E-10  5.96924E-10  6.52756E-10  7.08502E-10  7.64194E-10  8.19878E-10  8.75726E-10
   9.32376E-10  9.93587E-10  1.05569E-09  1.11079E-09  1.16382E-09  1.21738E-09  1.27081E-09  1.32375E-09  1.37692E-09  1.43057E-09
   1.48477E-09  1.53834E-09  1.58749E-09  1.63528E-09  1.68694E-09  1.73920E-09  1.79151E-09  1.84372E-09  1.89578E-09  1.94766E-09
   1.99936E-09  2.05087E-09  2.10217E-09  2.15325E-09  2.20410E-09  2.25470E-09  2.30503E-09  2.35508E-09  2.40483E-09  2.45426E-09
   2.50335E-09  2.55209E-09  2.60047E-09  2.64846E-09  2.69604E-09  2.74322E-09  2.78995E-09  2.83624E-09  2.88206E-09  2.92739E-09
   2.97223E-09  3.01654E-09  3.06033E-09  3.10356E-09  3.14623E-09  3.18832E-09  3.22980E-09  3.27067E-09  3.31091E-09  3.35050E-09
   3.38942E-09  3.42766E-09  3.46521E-09  3.50204E-09  3.53813E-09  3.57349E-09  3.60807E-09  3.64188E-09  3.67489E-09  3.70708E-09
   3.73845E-09  3.76896E-09  3.79862E-09  3.82739E-09  3.85527E-09  3.88224E-09  3.90828E-09  3.93337E-09  3.95751E-09  3.98066E-09
   4.00281E-09  4.02396E-09  4.04408E-09  4.06316E-09  4.08117E-09  4.09810E-09  4.11393E-09  4.12862E-09  4.14215E-09  4.15449E-09
   4.16562E-09  4.17552E-09  4.18416E-09  4.19150E-09  4.19754E-09  4.20223E-09  4.20556E-09  4.20750E-09  4.20803E-09  4.20711E-09
   4.20472E-09  4.20084E-09  4.19544E-09  4.18850E-09  4.17999E-09  4.16988E-09  4.15815E-09  4.14478E-09  4.12973E-09  4.11298E-09
   4.09451E-09  4.07428E-09  4.05229E-09  4.02849E-09  4.00287E-09  3.97538E-09  3.94603E-09  3.91477E-09  3.88158E-09  3.84644E-09
   3.80931E-09  3.77018E-09  3.72902E-09  3.68580E-09  3.64050E-09  3.59308E-09  3.54354E-09  3.49183E-09  3.43793E-09  3.38183E-09
   3.32348E-09  3.26288E-09  3.19999E-09  3.13478E-09  3.06723E-09  2.99731E-09  2.92503E-09  2.85044E-09  2.77365E-09  2.69478E-09
   2.61393E-09  2.53120E-09  2.44672E-09  2.36059E-09  2.27298E-09  2.18410E-09  2.09475E-09  2.00636E-09  1.91405E-09  1.81949E-09
   1.72422E-09  1.62829E-09  1.53143E-09  1.43405E-09  1.33639E-09  1.23858E-09  1.14063E-09  1.04155E-09  9.40615E-10  8.41554E-10
   7.43032E-10  6.44865E-10  5.47087E-10  4.49793E-10  3.53053E-10  2.57010E-10  1.61736E-10  6.73277E-11 -2.60771E-11 -1.18390E-10
  -2.09514E-10 -2.99321E-10 -3.87735E-10 -4.74608E-10 -5.59876E-10 -6.43413E-10 -7.25119E-10 -8.04873E-10 -8.82597E-10 -9.58158E-10
  -1.03146E-09 -1.10240E-09 -1.17087E-09 -1.23676E-09 -1.29997E-09 -1.36039E-09 -1.41791E-09 -1.47245E-09 -1.52390E-09 -1.57236E-09
  -1.61788E-09 -1.66054E-09 -1.70042E-09 -1.73759E-09 -1.77213E-09 -1.80410E-09 -1.83359E-09 -1.86066E-09 -1.88540E-09 -1.90787E-09
  -1.92815E-09 -1.94632E-09 -1.96245E-09 -1.97661E-09 -1.98889E-09 -1.99934E-09 -2.00804E-09 -2.01509E-09 -2.02054E-09 -2.02447E-09
  -2.02695E-09 -2.02806E-09 -2.02787E-09 -2.02646E-09 -2.02390E-09 -2.02028E-09 -2.01565E-09 -2.01009E-09 -2.00369E-09 -1.99651E-09
  -1.98863E-09 -1.98012E-09 -1.97105E-09 -1.96151E-09 -1.95156E-09 -1.94129E-09 -1.93076E-09 -1.92005E-09 -1.90923E-09 -1.89837E-09
  -1.88756E-09 -1.87687E-09 -1.86636E-09 -1.85612E-09 -1.84623E-09 -1.83673E-09 -1.82774E-09 -1.81930E-09 -1.81150E-09 -1.80441E-09
  -1.79807E-09 -1.79248E-09 -1.78762E-09 -1.78350E-09 -1.78012E-09 -1.77745E-09 -1.77551E-09 -1.77428E-09 -1.77376E-09 -1.77394E-09
  -1.77482E-09 -1.77639E-09 -1.77866E-09 -1.78160E-09 -1.78522E-09 -1.78952E-09 -1.79448E-09 -1.80010E-09 -1.80638E-09 -1.81331E-09
  -1.82088E-09 -1.82910E-09 -1.83795E-09 -1.84742E-09 -1.85753E-09 -1.86825E-09 -1.87959E-09 -1.89153E-09 -1.90408E-09 -1.91723E-09
  -1.93097E-09 -1.94530E-09 -1.96020E-09 -1.97569E-09 -1.99175E-09 -2.00837E-09 -2.02556E-09 -2.04330E-09 -2.06159E-09 -2.08043E-09
  -2.09981E-09 -2.11971E-09 -2.14015E-09 -2.16112E-09 -2.18260E-09 -2.20460E-09 -2.22710E-09 -2.25010E-09 -2.27361E-09 -2.29761E-09
  -2.32209E-09 -2.34707E-09 -2.37250E-09 -2.39840E-09 -2.42473E-09 -2.45149E-09 -2.47866E-09 -2.50623E-09 -2.53419E-09 -2.56251E-09
  -2.59119E-09 -2.62021E-09 -2.64956E-09 -2.67922E-09 -2.70918E-09 -2.73942E-09 -2.76993E-09 -2.80070E-09 -2.83171E-09 -2.86294E-09
  -2.89439E-09 -2.92603E-09 -2.95786E-09 -2.98986E-09 -3.02201E-09 -3.05430E-09 -3.08672E-09 -3.11925E-09 -3.15188E-09 -3.18459E-09
  -3.21737E-09 -3.25021E-09 -3.28309E-09 -3.31599E-09 -3.34890E-09 -3.38181E-09 -3.41471E-09 -3.44757E-09 -3.48039E-09 -3.51315E-09
  -3.54583E-09 -3.57843E-09 -3.61092E-09 -3.64329E-09 -3.67554E-09 -3.70763E-09 -3.73958E-09 -3.77134E-09 -3.80291E-09 -3.83428E-09
  -3.86544E-09 -3.89636E-09 -3.92704E-09
 Gln      Conc. = 3.32E-09
   3.06774E-09  3.56689E-09  3.76501E-09  3.64865E-09  3.52226E-09  3.45824E-09  3.18672E-09  2.80105E-09  2.81099E-09  2.01514E-09
   1.67619E-09  1.54028E-09  1.04775E-09  8.62460E-10  7.96035E-10  7.78078E-10  7.84810E-10  8.06822E-10  8.38714E-10  8.77091E-10
   9.20072E-10  9.66334E-10  1.01501E-09  1.06650E-09  1.12041E-09  1.17507E-09  1.23163E-09  1.28960E-09  1.34848E-09  1.40835E-09
   1.46923E-09  1.53116E-09  1.59423E-09  1.65853E-09  1.72415E-09  1.79124E-09  1.85995E-09  1.93042E-09  2.00368E-09  2.07954E-09
   2.15911E-09  2.24309E-09  2.33168E-09  2.42574E-09  2.52826E-09  2.63947E-09  2.76268E-09  2.90997E-09  3.08271E-09  3.28841E-09
   3.56519E-09  3.96299E-09  4.60787E-09  5.90769E-09  6.98411E-09  7.00706E-09  8.34139E-09  9.59400E-09  9.42627E-09  9.12466E-09
   9.30765E-09  9.15761E-09  8.79156E-09  8.33104E-09  7.39833E-09  6.78664E-09  6.86424E-09  5.94029E-09  5.14532E-09  5.18837E-09
   6.00540E-09  6.42951E-09  6.46038E-09  7.63541E-09  8.57960E-09  8.63189E-09  9.01816E-09  9.30368E-09  9.20131E-09  9.11754E-09
   9.01873E-09  8.30614E-09  7.90376E-09  7.80694E-09  6.86037E-09  6.23489E-09  6.02936E-09  5.50956E-09  5.16110E-09  4.96002E-09
   4.83143E-09  4.74831E-09  4.69259E-09  4.65037E-09  4.62062E-09  4.60109E-09  4.58739E-09  4.57884E-09  4.57487E-09  4.57381E-09
   4.57443E-09  4.57641E-09  4.57939E-09  4.58347E-09  4.58822E-09  4.59318E-09  4.59819E-09  4.60307E-09  4.60768E-09  4.61190E-09
   4.61561E-09  4.61871E-09  4.62110E-09  4.62271E-09  4.62346E-09  4.62327E-09  4.62209E-09  4.61985E-09  4.61651E-09  4.61201E-09
   4.60631E-09  4.59935E-09  4.59109E-09  4.58150E-09  4.57053E-09  4.55815E-09  4.54432E-09  4.52901E-09  4.51217E-09  4.49379E-09
   4.47383E-09  4.45225E-09  4.42904E-09  4.40415E-09  4.37758E-09  4.34928E-09  4.31924E-09  4.28743E-09  4.25384E-09  4.21844E-09
   4.18122E-09  4.14216E-09  4.10125E-09  4.05848E-09  4.01385E-09  3.96735E-09  3.91900E-09  3.86881E-09  3.81681E-09  3.76304E-09
   3.70755E-09  3.65044E-09  3.59183E-09  3.53189E-09  3.47086E-09  3.40910E-09  3.34715E-09  3.28587E-09  3.22665E-09  3.17163E-09
   3.12444E-09  3.09176E-09  3.08749E-09  3.14526E-09  3.36913E-09  4.23402E-09  7.80212E-09  8.83161E-09  8.19624E-09  7.63585E-09
   7.29500E-09  6.74804E-09  6.23874E-09  5.96181E-09  5.92133E-09  6.13400E-09  5.60682E-09  2.88960E-09  1.86733E-09  1.50043E-09
   1.28533E-09  1.12415E-09  9.87675E-10  8.64577E-10  7.49601E-10  6.40106E-10  5.34572E-10  4.32131E-10  3.32296E-10  2.34741E-10
   1.39280E-10  4.58336E-11 -4.56697E-11 -1.35194E-10 -2.22758E-10 -3.08299E-10 -3.91768E-10 -4.73085E-10 -5.52202E-10 -6.29013E-10
  -7.03443E-10 -7.75405E-10 -8.44802E-10 -9.11547E-10 -9.75538E-10 -1.03669E-09 -1.09487E-09 -1.15003E-09 -1.20206E-09 -1.25106E-09
  -1.29709E-09 -1.34023E-09 -1.38056E-09 -1.41815E-09 -1.45309E-09 -1.48545E-09 -1.51530E-09 -1.54271E-09 -1.56778E-09 -1.59058E-09
  -1.61116E-09 -1.62962E-09 -1.64603E-09 -1.66046E-09 -1.67299E-09 -1.68370E-09 -1.69265E-09 -1.69992E-09 -1.70561E-09 -1.70976E-09
