 LCModel (Version 6.3-1R) Copyright: S.W. Provencher.          Ref.: Magn. Reson. Med. 30:672-679 (1993).                
 onepulse 18x14_ftSpec_smooth_lcm
 26 lines in following concentration table = NCONC+1
    Conc.  %SD   /Cr    Metabolite                                         
 1.07E-10 149%   0.000 Ala                                                 
 5.63E-10  55%   0.000 Asp                                                 
    0.000 999%   0.000 Cr                                                  
 3.15E-09   8%   0.000 GABA                                                
 1.14E-09  30%   0.000 Glc                                                 
    0.000 999%   0.000 Gln                                                 
 9.90E-12 999%   0.000 Glu                                                 
 1.78E-10 105%   0.000 Glyc                                                
    0.000 999%   0.000 GPC                                                 
    0.000 999%   0.000 GSH                                                 
    0.000 999%   0.000 Ins                                                 
    0.000 999%   0.000 Lac                                                 
    0.000 999%   0.000 NAAG                                                
 1.12E-09  12%   0.000 NAA                                                 
 1.16E-10  37%   0.000 PCh                                                 
    0.000 999%   0.000 PCr                                                 
    0.000 999%   0.000 PE                                                  
 2.35E-12 999%   0.000 Scyllo                                              
    0.000 999%   0.000 Ser                                                 
    0.000 999%   0.000 Tau                                                 
 1.16E-10  37%   0.000 GPC+PCh                                             
 1.12E-09  12%   0.000 NAA+NAAG                                            
 1.78E-10 105%   0.000 Ins+Glyc                                            
    0.000 999%   0.000 Cr+PCr                                              
 9.90E-12 999%   0.000 Glu+Gln                                             
   6 lines in following misc. output table
  FWHM = 0.067 ppm    S/N =   5                                            
  Data shift = 0.347 ppm                                                   
  Ph:  84 deg      32.2 deg/ppm                                            
  alphaB,S = 1.6E-01,   7.6E+01                                            
   16 spline knots.   Ns = 5(1)                                            
  ( 7) 2 infls.   ( 3) 1 extrs.                                            
  363 points on ppm-axis = NY
      4.250000     4.238821     4.227641     4.216462     4.205282     4.194103     4.182923     4.171744     4.160564     4.149385
      4.138206     4.127026     4.115847     4.104667     4.093488     4.082308     4.071129     4.059949     4.048770     4.037591
      4.026411     4.015232     4.004052     3.992873     3.981693     3.970514     3.959334     3.948155     3.936975     3.925796
      3.914617     3.903437     3.892258     3.881078     3.869899     3.858719     3.847540     3.836360     3.825181     3.814002
      3.802822     3.791643     3.780463     3.769284     3.758104     3.746925     3.735745     3.724566     3.713387     3.702207
      3.691028     3.679848     3.668669     3.657489     3.646310     3.635130     3.623951     3.612772     3.601592     3.590413
      3.579233     3.568054     3.556874     3.545695     3.534515     3.523336     3.512156     3.500977     3.489798     3.478618
      3.467439     3.456259     3.445080     3.433900     3.422721     3.411541     3.400362     3.389183     3.378003     3.366824
      3.355644     3.344465     3.333285     3.322106     3.310926     3.299747     3.288568     3.277388     3.266209     3.255029
      3.243850     3.232670     3.221491     3.210311     3.199132     3.187953     3.176773     3.165594     3.154414     3.143235
      3.132055     3.120876     3.109696     3.098517     3.087337     3.076158     3.064979     3.053799     3.042620     3.031440
      3.020261     3.009081     2.997902     2.986722     2.975543     2.964364     2.953184     2.942005     2.930825     2.919646
      2.908466     2.897287     2.886107     2.874928     2.863749     2.852569     2.841390     2.830210     2.819031     2.807851
      2.796672     2.785492     2.774313     2.763134     2.751954     2.740775     2.729595     2.718416     2.707236     2.696057
      2.684877     2.673698     2.662519     2.651339     2.640160     2.628980     2.617801     2.606621     2.595442     2.584262
      2.573083     2.561903     2.550724     2.539545     2.528365     2.517186     2.506006     2.494827     2.483647     2.472468
      2.461288     2.450109     2.438930     2.427750     2.416571     2.405391     2.394212     2.383032     2.371853     2.360673
      2.349494     2.338315     2.327135     2.315956     2.304776     2.293597     2.282417     2.271238     2.260058     2.248879
      2.237700     2.226520     2.215341     2.204161     2.192982     2.181802     2.170623     2.159443     2.148264     2.137084
      2.125905     2.114726     2.103546     2.092367     2.081187     2.070008     2.058828     2.047649     2.036469     2.025290
      2.014111     2.002931     1.991752     1.980572     1.969393     1.958213     1.947034     1.935854     1.924675     1.913496
      1.902316     1.891137     1.879957     1.868778     1.857598     1.846419     1.835239     1.824060     1.812881     1.801701
      1.790522     1.779342     1.768163     1.756983     1.745804     1.734624     1.723445     1.712265     1.701086     1.689907
      1.678727     1.667548     1.656368     1.645189     1.634009     1.622830     1.611650     1.600471     1.589292     1.578112
      1.566933     1.555753     1.544574     1.533394     1.522215     1.511035     1.499856     1.488677     1.477497     1.466318
      1.455138     1.443959     1.432779     1.421600     1.410420     1.399241     1.388062     1.376882     1.365703     1.354523
      1.343344     1.332164     1.320985     1.309805     1.298626     1.287446     1.276267     1.265088     1.253908     1.242729
      1.231549     1.220370     1.209190     1.198011     1.186831     1.175652     1.164473     1.153293     1.142114     1.130934
      1.119755     1.108575     1.097396     1.086216     1.075037     1.063858     1.052678     1.041499     1.030319     1.019140
      1.007960     0.996781     0.985601     0.974422     0.963243     0.952063     0.940884     0.929704     0.918525     0.907345
      0.896166     0.884986     0.873807     0.862628     0.851448     0.840269     0.829089     0.817910     0.806730     0.795551
      0.784371     0.773192     0.762012     0.750833     0.739654     0.728474     0.717295     0.706115     0.694936     0.683756
      0.672577     0.661397     0.650218     0.639039     0.627859     0.616680     0.605500     0.594321     0.583141     0.571962
      0.560782     0.549603     0.538424     0.527244     0.516065     0.504885     0.493706     0.482526     0.471347     0.460167
      0.448988     0.437809     0.426629     0.415450     0.404270     0.393091     0.381911     0.370732     0.359552     0.348373
      0.337193     0.326014     0.314835     0.303655     0.292476     0.281296     0.270117     0.258937     0.247758     0.236578
      0.225399     0.214220     0.203040
 NY phased data points follow
   2.07546E-09  4.71765E-09  6.79755E-09  6.89949E-09  5.86884E-09  5.06002E-09  4.76580E-09  4.75087E-09  3.63518E-09  3.61017E-09
   4.39017E-09  3.82861E-09  4.28090E-09  4.88420E-09  4.91542E-09  5.58661E-09  6.49311E-09  6.59112E-09  6.02416E-09  5.85358E-09
   5.89235E-09  5.71982E-09  4.80185E-09  5.28427E-09  5.72174E-09  6.61114E-09  7.18991E-09  7.33648E-09  6.63810E-09  6.35861E-09
   6.02080E-09  6.83193E-09  8.98980E-09  1.07512E-08  1.13113E-08  1.14163E-08  1.05473E-08  8.78759E-09  7.94189E-09  8.28219E-09
   7.82305E-09  7.40241E-09  6.70367E-09  6.73565E-09  6.84790E-09  6.97711E-09  5.85697E-09  5.21109E-09  4.33302E-09  4.44416E-09
   5.08284E-09  5.20307E-09  4.84602E-09  5.24205E-09  4.52446E-09  4.11283E-09  3.59261E-09  3.22388E-09  2.80270E-09  2.95617E-09
   2.76890E-09  3.24841E-09  4.17787E-09  8.43822E-09  1.20248E-08  1.34942E-08  1.22094E-08  1.07886E-08  9.62354E-09  8.47636E-09
   7.92981E-09  7.11872E-09  6.56212E-09  5.66726E-09  4.59540E-09  4.45334E-09  3.21038E-09  3.31020E-09  4.38847E-09  5.85779E-09
   1.01048E-08  1.36928E-08  1.39931E-08  1.29555E-08  1.19517E-08  1.05604E-08  1.02284E-08  1.00565E-08  9.53189E-09  9.35492E-09
   9.19113E-09  8.44829E-09  7.83037E-09  7.79938E-09  6.88856E-09  6.24597E-09  6.57537E-09  5.81912E-09  5.31812E-09  5.34434E-09
   5.31085E-09  4.59337E-09  5.27296E-09  5.15042E-09  5.31036E-09  4.65356E-09  4.98524E-09  4.54742E-09  4.54319E-09  4.25761E-09
   2.98840E-09  3.22042E-09  2.49981E-09  3.17963E-09  3.77780E-09  3.68625E-09  3.57781E-09  3.93371E-09  4.25026E-09  4.45916E-09
   4.48464E-09  4.64642E-09  4.67624E-09  3.57947E-09  2.72971E-09  2.59055E-09  2.68940E-09  2.29062E-09  2.04826E-09  2.67069E-09
   2.64364E-09  2.69473E-09  2.83040E-09  2.82777E-09  2.81153E-09  2.72709E-09  2.30799E-09  2.00440E-09  1.78437E-09  2.98037E-09
   3.43003E-09  4.52490E-09  4.62690E-09  3.97798E-09  3.46588E-09  3.92518E-09  4.67064E-09  4.30969E-09  4.89798E-09  4.11741E-09
   4.06840E-09  3.78498E-09  3.42283E-09  3.36862E-09  3.26506E-09  3.21493E-09  3.47641E-09  2.93831E-09  3.39018E-09  3.20781E-09
   3.33344E-09  3.95146E-09  3.58914E-09  3.67014E-09  3.15334E-09  3.37176E-09  3.74685E-09  3.64398E-09  5.22676E-09  6.00440E-09
   9.39993E-09  1.44767E-08  1.69826E-08  1.53952E-08  1.18835E-08  9.73743E-09  8.21735E-09  6.85720E-09  5.36818E-09  4.21812E-09
   3.99307E-09  3.03031E-09  2.12866E-09  1.74675E-09  1.08023E-09 -6.34777E-10 -6.70624E-10 -1.11275E-09 -2.45629E-09 -3.78865E-09
  -4.53816E-09 -5.23292E-09 -5.30790E-09 -6.04681E-09 -7.22201E-09 -8.31301E-09 -8.22879E-09 -8.27554E-09 -8.99461E-09 -9.31514E-09
  -8.73014E-09 -8.58922E-09 -7.89059E-09 -7.37674E-09 -6.46094E-09 -5.64498E-09 -5.25962E-09 -4.72507E-09 -3.77873E-09 -2.60860E-09
  -1.84321E-09 -1.77586E-09 -1.33214E-09 -1.17716E-09 -1.11368E-09 -8.97963E-10 -1.35859E-09 -9.57950E-10 -1.14004E-09 -1.42847E-09
  -1.59582E-09 -1.16408E-09 -8.66972E-10 -1.12105E-09 -7.38965E-10 -9.27533E-11 -1.39814E-09 -1.16689E-09 -8.73515E-10 -8.65354E-10
  -1.24314E-09 -1.06016E-09 -1.27184E-09 -6.75830E-10 -1.02845E-09 -7.64213E-10 -7.27604E-10 -3.94654E-10 -8.88688E-10 -9.33767E-10
  -1.27703E-09 -8.91352E-10 -2.00012E-10 -8.01825E-10 -1.52175E-09 -5.83742E-10 -6.63620E-10 -8.61335E-10 -7.09271E-11 -8.86530E-10
  -6.04742E-10  5.00126E-10 -1.63357E-10  1.69454E-10  9.39428E-11 -3.38730E-10 -5.08142E-10 -9.33124E-10 -1.06230E-09 -1.01394E-09
  -1.45499E-09 -1.73757E-09 -1.31993E-09 -1.39530E-09 -1.08818E-09 -6.27262E-10 -4.84687E-10 -3.79837E-10  1.54027E-11  2.52633E-10
   9.43852E-10  9.91915E-10  8.41624E-10  8.29608E-10  4.24172E-10  6.32884E-10  2.43349E-10  2.13577E-10 -3.61001E-11 -4.01378E-10
  -2.83543E-10 -1.27611E-10 -1.39998E-09 -9.37608E-10 -1.13609E-09 -2.36894E-10 -8.72255E-10 -1.40014E-09 -1.74128E-09 -1.01005E-10
  -5.08387E-10 -9.72499E-10 -1.02095E-09 -2.54769E-10 -3.96081E-10 -1.01481E-09 -7.42968E-10 -4.74753E-10 -7.05137E-10 -5.47975E-10
  -4.93881E-10 -7.21474E-10 -7.53260E-10 -1.31538E-10 -2.33416E-10 -5.80164E-10 -3.26678E-10  1.29672E-10  2.27359E-10 -5.42705E-11
  -6.49931E-11 -5.35565E-10 -3.36725E-10  4.85417E-10 -2.82581E-11 -3.12894E-10  5.43380E-10  6.34950E-10 -6.35093E-12  2.03323E-10
   3.20239E-10  2.93812E-10  3.19885E-10  4.82368E-10  7.29415E-11  9.79821E-10  6.52965E-10  6.15712E-10  5.04588E-10  6.41425E-10
   8.59867E-10  3.07465E-10  2.89594E-10  1.38002E-09  3.41723E-10  8.17303E-10  4.22673E-10  1.10810E-09  9.80188E-11  1.27926E-09
   1.17280E-09  9.25344E-10  8.49992E-10  1.16557E-09  1.34973E-09  9.13779E-10  7.59649E-10  8.27132E-10  1.32774E-09  1.61186E-09
   8.64857E-10  7.63945E-10  1.47092E-09  1.22772E-09  1.14334E-09  1.28467E-09  1.62031E-09  1.21881E-09  1.26343E-09  1.24151E-09
   1.39925E-09  1.37073E-09  1.27108E-09
 NY points of the fit to the data follow
   4.66361E-09  5.02271E-09  5.29291E-09  5.43581E-09  5.38317E-09  5.15466E-09  4.82467E-09  4.48980E-09  4.25429E-09  4.11464E-09
   4.15106E-09  4.29880E-09  4.49228E-09  4.70482E-09  4.95523E-09  5.25568E-09  5.63794E-09  6.07641E-09  6.44164E-09  6.59298E-09
   6.54049E-09  6.25341E-09  5.82568E-09  5.47432E-09  5.30410E-09  5.35906E-09  5.70699E-09  6.27217E-09  6.83448E-09  7.31855E-09
   7.65453E-09  8.01166E-09  8.55429E-09  9.03301E-09  9.38173E-09  9.88452E-09  1.03209E-08  1.03484E-08  9.94520E-09  9.27315E-09
   8.50937E-09  7.68912E-09  6.53829E-09  5.56516E-09  5.13848E-09  4.78248E-09  4.50943E-09  4.50847E-09  4.57691E-09  4.61220E-09
   4.61607E-09  4.61624E-09  4.65678E-09  4.70536E-09  4.72571E-09  4.71877E-09  4.68216E-09  4.66217E-09  4.64345E-09  4.69340E-09
   4.92063E-09  5.38388E-09  6.03147E-09  6.80377E-09  7.85029E-09  8.91437E-09  9.73479E-09  1.03323E-08  1.06557E-08  1.05111E-08
   9.90058E-09  8.94191E-09  7.88169E-09  6.98494E-09  6.03380E-09  5.11038E-09  4.88083E-09  5.31014E-09  6.19343E-09  7.74050E-09
   9.70848E-09  1.15225E-08  1.26806E-08  1.29421E-08  1.24277E-08  1.15817E-08  1.06332E-08  9.51854E-09  8.44650E-09  8.14290E-09
   8.04765E-09  7.95848E-09  7.66780E-09  7.13179E-09  6.71330E-09  6.32563E-09  5.76128E-09  5.32127E-09  5.03848E-09  4.77251E-09
   4.59167E-09  4.49620E-09  4.45722E-09  4.46282E-09  4.48217E-09  4.49232E-09  4.48884E-09  4.46885E-09  4.42100E-09  4.33738E-09
   4.22768E-09  4.12250E-09  4.04955E-09  3.96831E-09  3.89130E-09  3.85258E-09  3.82665E-09  3.80597E-09  3.78779E-09  3.77079E-09
   3.75422E-09  3.73760E-09  3.72053E-09  3.70275E-09  3.68404E-09  3.66420E-09  3.64309E-09  3.62058E-09  3.59656E-09  3.57090E-09
   3.54352E-09  3.51430E-09  3.48317E-09  3.45003E-09  3.41481E-09  3.37742E-09  3.33781E-09  3.29590E-09  3.25161E-09  3.20489E-09
   3.15564E-09  3.10387E-09  3.04955E-09  2.99266E-09  2.93320E-09  2.87114E-09  2.80651E-09  2.73929E-09  2.66949E-09  2.59712E-09
   2.52224E-09  2.44488E-09  2.36512E-09  2.28307E-09  2.19887E-09  2.11273E-09  2.02497E-09  1.93602E-09  1.84658E-09  1.75766E-09
   1.67094E-09  1.58919E-09  1.51744E-09  1.46552E-09  1.45597E-09  1.55481E-09  2.05553E-09  3.43359E-09  5.70867E-09  8.73106E-09
   1.20337E-08  1.46768E-08  1.57428E-08  1.50138E-08  1.29804E-08  1.02661E-08  7.20191E-09  4.02579E-09  1.53493E-09  4.54006E-10
  -5.84275E-11 -3.97088E-10 -6.58580E-10 -8.77482E-10 -1.06939E-09 -1.24239E-09 -1.40098E-09 -1.54785E-09 -1.68458E-09 -1.81218E-09
  -1.93123E-09 -2.04204E-09 -2.14475E-09 -2.23935E-09 -2.32580E-09 -2.40393E-09 -2.47369E-09 -2.53538E-09 -2.58936E-09 -2.63598E-09
  -2.67555E-09 -2.70839E-09 -2.73478E-09 -2.75503E-09 -2.76940E-09 -2.77817E-09 -2.78162E-09 -2.78001E-09 -2.77359E-09 -2.76264E-09
  -2.74740E-09 -2.72813E-09 -2.70508E-09 -2.67851E-09 -2.64865E-09 -2.61578E-09 -2.58011E-09 -2.54192E-09 -2.50143E-09 -2.45890E-09
  -2.41456E-09 -2.36867E-09 -2.32146E-09 -2.27318E-09 -2.22403E-09 -2.17411E-09 -2.12352E-09 -2.07235E-09 -2.02069E-09 -1.96865E-09
  -1.91630E-09 -1.86376E-09 -1.81111E-09 -1.75845E-09 -1.70586E-09 -1.65345E-09 -1.60130E-09 -1.54951E-09 -1.49816E-09 -1.44737E-09
  -1.39721E-09 -1.34778E-09 -1.29917E-09 -1.25148E-09 -1.20478E-09 -1.15919E-09 -1.11479E-09 -1.07166E-09 -1.02992E-09 -9.89647E-10
  -9.50918E-10 -9.13856E-10 -8.78467E-10 -8.44709E-10 -8.12533E-10 -7.81889E-10 -7.52716E-10 -7.24968E-10 -6.98588E-10 -6.73524E-10
  -6.49726E-10 -6.27134E-10 -6.05704E-10 -5.85375E-10 -5.66100E-10 -5.47825E-10 -5.30485E-10 -5.14049E-10 -4.98453E-10 -4.83639E-10
  -4.69557E-10 -4.56160E-10 -4.43386E-10 -4.31185E-10 -4.19513E-10 -4.08298E-10 -3.97508E-10 -3.87077E-10 -3.76958E-10 -3.67092E-10
  -3.57438E-10 -3.47960E-10 -3.38618E-10 -3.29373E-10 -3.20193E-10 -3.11035E-10 -3.01866E-10 -2.92645E-10 -2.83336E-10 -2.73903E-10
  -2.64307E-10 -2.54510E-10 -2.44476E-10 -2.34166E-10 -2.23545E-10 -2.12573E-10 -2.01215E-10 -1.89431E-10 -1.77189E-10 -1.64442E-10
  -1.51163E-10 -1.37308E-10 -1.22840E-10 -1.07727E-10 -9.19270E-11 -7.54024E-11 -5.81192E-11 -4.00384E-11 -2.11708E-11 -1.54532E-12
   1.88081E-11  3.98584E-11  6.15746E-11  8.39290E-11  1.06889E-10  1.30424E-10  1.54505E-10  1.79101E-10  2.04180E-10  2.29715E-10
   2.55673E-10  2.82025E-10  3.08742E-10  3.35789E-10  3.63141E-10  3.90763E-10  4.18627E-10  4.46705E-10  4.74963E-10  5.03370E-10
   5.31901E-10  5.60521E-10  5.89203E-10  6.17913E-10  6.46622E-10  6.75307E-10  7.03956E-10  7.32572E-10  7.61156E-10  7.89709E-10
   8.18232E-10  8.46726E-10  8.75193E-10  9.03633E-10  9.32046E-10  9.60438E-10  9.88803E-10  1.01715E-09  1.04547E-09  1.07377E-09
   1.10205E-09  1.13032E-09  1.15857E-09  1.18680E-09  1.21501E-09  1.24321E-09  1.27140E-09  1.29958E-09  1.32775E-09  1.35591E-09
   1.38406E-09  1.41220E-09  1.44033E-09
 NY background values follow
     2.571E-10    2.825E-10    3.079E-10    3.333E-10    3.587E-10    3.842E-10    4.096E-10    4.351E-10    4.605E-10    4.858E-10
     5.111E-10    5.364E-10    5.615E-10    5.866E-10    6.115E-10    6.363E-10    6.610E-10    6.856E-10    7.100E-10    7.342E-10
     7.582E-10    7.821E-10    8.057E-10    8.291E-10    8.522E-10    8.752E-10    8.978E-10    9.202E-10    9.423E-10    9.641E-10
     9.856E-10    1.007E-09    1.028E-09    1.049E-09    1.070E-09    1.090E-09    1.111E-09    1.131E-09    1.152E-09    1.172E-09
     1.193E-09    1.213E-09    1.234E-09    1.254E-09    1.275E-09    1.296E-09    1.317E-09    1.338E-09    1.360E-09    1.382E-09
     1.404E-09    1.426E-09    1.449E-09    1.472E-09    1.496E-09    1.520E-09    1.544E-09    1.569E-09    1.595E-09    1.621E-09
     1.647E-09    1.674E-09    1.701E-09    1.728E-09    1.756E-09    1.784E-09    1.812E-09    1.840E-09    1.869E-09    1.898E-09
     1.927E-09    1.956E-09    1.985E-09    2.015E-09    2.044E-09    2.074E-09    2.103E-09    2.133E-09    2.162E-09    2.191E-09
     2.221E-09    2.250E-09    2.279E-09    2.308E-09    2.336E-09    2.365E-09    2.393E-09    2.421E-09    2.449E-09    2.476E-09
     2.503E-09    2.530E-09    2.556E-09    2.581E-09    2.606E-09    2.631E-09    2.655E-09    2.678E-09    2.700E-09    2.722E-09
     2.743E-09    2.764E-09    2.783E-09    2.802E-09    2.819E-09    2.836E-09    2.852E-09    2.867E-09    2.881E-09    2.894E-09
     2.905E-09    2.916E-09    2.925E-09    2.933E-09    2.940E-09    2.946E-09    2.950E-09    2.953E-09    2.954E-09    2.954E-09
     2.952E-09    2.948E-09    2.943E-09    2.936E-09    2.927E-09    2.916E-09    2.903E-09    2.889E-09    2.872E-09    2.853E-09
     2.832E-09    2.809E-09    2.784E-09    2.756E-09    2.726E-09    2.693E-09    2.658E-09    2.621E-09    2.580E-09    2.538E-09
     2.492E-09    2.444E-09    2.393E-09    2.339E-09    2.283E-09    2.224E-09    2.162E-09    2.097E-09    2.029E-09    1.959E-09
     1.885E-09    1.809E-09    1.730E-09    1.648E-09    1.563E-09    1.475E-09    1.384E-09    1.291E-09    1.194E-09    1.094E-09
     9.916E-10    8.859E-10    7.772E-10    6.654E-10    5.505E-10    4.326E-10    3.116E-10    1.875E-10    6.036E-11   -6.958E-11
    -2.019E-10   -3.362E-10   -4.722E-10   -6.094E-10   -7.474E-10   -8.860E-10   -1.025E-09   -1.163E-09   -1.301E-09   -1.437E-09
    -1.573E-09   -1.706E-09   -1.837E-09   -1.966E-09   -2.092E-09   -2.214E-09   -2.333E-09   -2.448E-09   -2.558E-09   -2.663E-09
    -2.764E-09   -2.858E-09   -2.947E-09   -3.029E-09   -3.104E-09   -3.173E-09   -3.234E-09   -3.288E-09   -3.334E-09   -3.375E-09
    -3.408E-09   -3.436E-09   -3.457E-09   -3.472E-09   -3.482E-09   -3.487E-09   -3.487E-09   -3.482E-09   -3.472E-09   -3.458E-09
    -3.440E-09   -3.417E-09   -3.392E-09   -3.363E-09   -3.330E-09   -3.295E-09   -3.257E-09   -3.217E-09   -3.175E-09   -3.130E-09
    -3.084E-09   -3.036E-09   -2.987E-09   -2.938E-09   -2.887E-09   -2.835E-09   -2.783E-09   -2.731E-09   -2.678E-09   -2.624E-09
    -2.571E-09   -2.517E-09   -2.463E-09   -2.409E-09   -2.355E-09   -2.302E-09   -2.249E-09   -2.196E-09   -2.143E-09   -2.092E-09
    -2.040E-09   -1.990E-09   -1.940E-09   -1.892E-09   -1.844E-09   -1.798E-09   -1.753E-09   -1.709E-09   -1.666E-09   -1.625E-09
    -1.585E-09   -1.547E-09   -1.511E-09   -1.477E-09   -1.444E-09   -1.412E-09   -1.383E-09   -1.354E-09   -1.327E-09   -1.301E-09
    -1.277E-09   -1.254E-09   -1.231E-09   -1.210E-09   -1.190E-09   -1.172E-09   -1.154E-09   -1.137E-09   -1.120E-09   -1.105E-09
    -1.090E-09   -1.076E-09   -1.063E-09   -1.050E-09   -1.038E-09   -1.026E-09   -1.015E-09   -1.004E-09   -9.929E-10   -9.825E-10
    -9.723E-10   -9.623E-10   -9.524E-10   -9.426E-10   -9.329E-10   -9.232E-10   -9.135E-10   -9.037E-10   -8.939E-10   -8.839E-10
    -8.738E-10   -8.635E-10   -8.530E-10   -8.422E-10   -8.310E-10   -8.195E-10   -8.077E-10   -7.954E-10   -7.827E-10   -7.694E-10
    -7.556E-10   -7.413E-10   -7.263E-10   -7.107E-10   -6.944E-10   -6.774E-10   -6.597E-10   -6.411E-10   -6.218E-10   -6.017E-10
    -5.808E-10   -5.593E-10   -5.371E-10   -5.143E-10   -4.908E-10   -4.668E-10   -4.423E-10   -4.172E-10   -3.917E-10   -3.656E-10
    -3.392E-10   -3.124E-10   -2.852E-10   -2.577E-10   -2.299E-10   -2.018E-10   -1.735E-10   -1.449E-10   -1.162E-10   -8.730E-11
    -5.831E-11   -2.922E-11   -6.871E-14    2.911E-11    5.829E-11    8.744E-11    1.166E-10    1.456E-10    1.747E-10    2.037E-10
     2.327E-10    2.617E-10    2.906E-10    3.195E-10    3.484E-10    3.773E-10    4.061E-10    4.349E-10    4.637E-10    4.925E-10
     5.213E-10    5.500E-10    5.787E-10    6.074E-10    6.361E-10    6.648E-10    6.935E-10    7.221E-10    7.508E-10    7.794E-10
     8.081E-10    8.367E-10    8.653E-10
 Ala      Conc. = 1.07E-10
   3.35951E-10  3.69990E-10  4.00945E-10  4.29784E-10  4.56431E-10  4.80206E-10  4.99980E-10  5.15074E-10  5.31484E-10  5.49365E-10
   5.62112E-10  5.76591E-10  5.95892E-10  6.14589E-10  6.34101E-10  6.55573E-10  6.77999E-10  7.00912E-10  7.24071E-10  7.47334E-10
   7.70608E-10  7.93827E-10  8.16944E-10  8.39921E-10  8.62728E-10  8.85338E-10  9.07728E-10  9.29878E-10  9.51770E-10  9.73394E-10
   9.94774E-10  1.01593E-09  1.03690E-09  1.05769E-09  1.07834E-09  1.09888E-09  1.11933E-09  1.13972E-09  1.16007E-09  1.18042E-09
   1.20079E-09  1.22121E-09  1.24170E-09  1.26230E-09  1.28303E-09  1.30392E-09  1.32501E-09  1.34631E-09  1.36785E-09  1.38966E-09
   1.41178E-09  1.43423E-09  1.45703E-09  1.48022E-09  1.50382E-09  1.52786E-09  1.55238E-09  1.57737E-09  1.60282E-09  1.62870E-09
   1.65499E-09  1.68167E-09  1.70871E-09  1.73608E-09  1.76377E-09  1.79174E-09  1.81998E-09  1.84846E-09  1.87715E-09  1.90604E-09
   1.93509E-09  1.96429E-09  1.99361E-09  2.02302E-09  2.05251E-09  2.08205E-09  2.11162E-09  2.14119E-09  2.17074E-09  2.20026E-09
   2.22971E-09  2.25909E-09  2.28836E-09  2.31751E-09  2.34652E-09  2.37538E-09  2.40405E-09  2.43252E-09  2.46077E-09  2.48879E-09
   2.51658E-09  2.54415E-09  2.57155E-09  2.59883E-09  2.62613E-09  2.65367E-09  2.68188E-09  2.71163E-09  2.74492E-09  2.78789E-09
   2.85345E-09  2.93430E-09  3.02798E-09  3.13719E-09  3.23972E-09  3.31822E-09  3.37182E-09  3.40024E-09  3.39400E-09  3.34649E-09
   3.26855E-09  3.19146E-09  3.14344E-09  3.08443E-09  3.02733E-09  3.00647E-09  2.99680E-09  2.99097E-09  2.98639E-09  2.98188E-09
   2.97682E-09  2.97080E-09  2.96357E-09  2.95494E-09  2.94476E-09  2.93292E-09  2.91931E-09  2.90384E-09  2.88644E-09  2.86703E-09
   2.84555E-09  2.82191E-09  2.79607E-09  2.76795E-09  2.73751E-09  2.70466E-09  2.66937E-09  2.63157E-09  2.59120E-09  2.54821E-09
   2.50253E-09  2.45414E-09  2.40304E-09  2.34920E-09  2.29260E-09  2.23323E-09  2.17108E-09  2.10613E-09  2.03836E-09  1.96776E-09
   1.89431E-09  1.81800E-09  1.73883E-09  1.65676E-09  1.57179E-09  1.48392E-09  1.39312E-09  1.29939E-09  1.20273E-09  1.10313E-09
   1.00061E-09  8.95185E-10  7.86937E-10  6.75962E-10  5.62591E-10  4.47704E-10  3.35088E-10  2.36034E-10  1.49672E-10  7.43463E-11
   3.55783E-12 -7.92803E-11 -1.91907E-10 -3.38712E-10 -5.09880E-10 -6.92974E-10 -8.81938E-10 -1.07396E-09 -1.25662E-09 -1.40742E-09
  -1.54876E-09 -1.68564E-09 -1.81913E-09 -1.94941E-09 -2.07633E-09 -2.19967E-09 -2.31914E-09 -2.43440E-09 -2.54509E-09 -2.65087E-09
  -2.75138E-09 -2.84625E-09 -2.93510E-09 -3.01756E-09 -3.09325E-09 -3.16182E-09 -3.22299E-09 -3.27694E-09 -3.32390E-09 -3.36412E-09
  -3.39784E-09 -3.42529E-09 -3.44671E-09 -3.46236E-09 -3.47245E-09 -3.47724E-09 -3.47697E-09 -3.47187E-09 -3.46217E-09 -3.44813E-09
  -3.42998E-09 -3.40796E-09 -3.38230E-09 -3.35325E-09 -3.32104E-09 -3.28591E-09 -3.24811E-09 -3.20787E-09 -3.16542E-09 -3.12101E-09
  -3.07487E-09 -3.02725E-09 -2.97838E-09 -2.92850E-09 -2.87780E-09 -2.82639E-09 -2.77436E-09 -2.72179E-09 -2.66879E-09 -2.61544E-09
  -2.56183E-09 -2.50806E-09 -2.45422E-09 -2.40040E-09 -2.34668E-09 -2.29317E-09 -2.23995E-09 -2.18712E-09 -2.13475E-09 -2.08296E-09
  -2.03183E-09 -1.98145E-09 -1.93192E-09 -1.88332E-09 -1.83574E-09 -1.78928E-09 -1.74402E-09 -1.70006E-09 -1.65750E-09 -1.61642E-09
  -1.57690E-09 -1.53906E-09 -1.50291E-09 -1.46840E-09 -1.43549E-09 -1.40412E-09 -1.37423E-09 -1.34578E-09 -1.31870E-09 -1.29295E-09
  -1.26848E-09 -1.24522E-09 -1.22314E-09 -1.20216E-09 -1.18224E-09 -1.16334E-09 -1.14537E-09 -1.12832E-09 -1.11211E-09 -1.09669E-09
  -1.08201E-09 -1.06803E-09 -1.05467E-09 -1.04189E-09 -1.02964E-09 -1.01786E-09 -1.00650E-09 -9.95514E-10 -9.84841E-10 -9.74424E-10
  -9.64226E-10 -9.54206E-10 -9.44328E-10 -9.34549E-10 -9.24840E-10 -9.15157E-10 -9.05466E-10 -8.95726E-10 -8.85902E-10 -8.75957E-10
  -8.65850E-10 -8.55548E-10 -8.45010E-10 -8.34199E-10 -8.23080E-10 -8.11612E-10 -7.99760E-10 -7.87484E-10 -7.74753E-10 -7.61518E-10
  -7.47754E-10 -7.33415E-10 -7.18465E-10 -7.02872E-10 -6.86593E-10 -6.69592E-10 -6.51833E-10 -6.33277E-10 -6.13937E-10 -5.93840E-10
  -5.73015E-10 -5.51496E-10 -5.29311E-10 -5.06489E-10 -4.83063E-10 -4.59062E-10 -4.34516E-10 -4.09455E-10 -3.83912E-10 -3.57913E-10
  -3.31494E-10 -3.04679E-10 -2.77501E-10 -2.49993E-10 -2.22180E-10 -1.94098E-10 -1.65773E-10 -1.37235E-10 -1.08516E-10 -7.96491E-11
  -5.06581E-11 -2.15776E-11  7.56397E-12  3.67346E-11  6.59045E-11  9.50495E-11  1.24160E-10  1.53237E-10  1.82282E-10  2.11297E-10
   2.40282E-10  2.69239E-10  2.98169E-10  3.27073E-10  3.55950E-10  3.84806E-10  4.13637E-10  4.42446E-10  4.71235E-10  5.00004E-10
   5.28756E-10  5.57489E-10  5.86207E-10  6.14909E-10  6.43598E-10  6.72272E-10  7.00936E-10  7.29589E-10  7.58233E-10  7.86866E-10
   8.15493E-10  8.44113E-10  8.72729E-10
 Asp      Conc. = 5.63E-10
   9.42184E-10  8.82216E-10  8.11862E-10  7.38396E-10  6.74324E-10  6.12627E-10  5.72230E-10  5.44960E-10  5.45326E-10  5.56701E-10
   5.73458E-10  5.93247E-10  6.14925E-10  6.37816E-10  6.61226E-10  6.84904E-10  7.08849E-10  7.32996E-10  7.57288E-10  7.81681E-10
   8.06141E-10  8.30647E-10  8.55187E-10  8.79761E-10  9.04377E-10  9.29053E-10  9.53825E-10  9.78745E-10  1.00389E-09  1.02937E-09
   1.05540E-09  1.08225E-09  1.11033E-09  1.14027E-09  1.17318E-09  1.21126E-09  1.25972E-09  1.31849E-09  1.39025E-09  1.46648E-09
   1.53554E-09  1.58677E-09  1.61827E-09  1.64732E-09  1.69451E-09  1.79761E-09  1.94823E-09  2.12108E-09  2.29526E-09  2.42167E-09
   2.48225E-09  2.47631E-09  2.42852E-09  2.34477E-09  2.23019E-09  2.11904E-09  2.02357E-09  1.99379E-09  1.96599E-09  1.93589E-09
   1.93667E-09  1.94871E-09  1.95297E-09  1.96030E-09  1.97063E-09  1.97030E-09  1.96001E-09  1.96451E-09  1.97717E-09  1.99440E-09
   2.01453E-09  2.03665E-09  2.06020E-09  2.08483E-09  2.11028E-09  2.13636E-09  2.16293E-09  2.18987E-09  2.21709E-09  2.24452E-09
   2.27208E-09  2.29973E-09  2.32740E-09  2.35506E-09  2.38265E-09  2.41014E-09  2.43748E-09  2.46461E-09  2.49150E-09  2.51810E-09
   2.54437E-09  2.57026E-09  2.59574E-09  2.62076E-09  2.64529E-09  2.66929E-09  2.69271E-09  2.71552E-09  2.73769E-09  2.75917E-09
   2.77992E-09  2.79991E-09  2.81911E-09  2.83747E-09  2.85495E-09  2.87152E-09  2.88716E-09  2.90180E-09  2.91543E-09  2.92800E-09
   2.93949E-09  2.94984E-09  2.95902E-09  2.96700E-09  2.97371E-09  2.97909E-09  2.98310E-09  2.98567E-09  2.98675E-09  2.98629E-09
   2.98424E-09  2.98052E-09  2.97511E-09  2.96792E-09  2.95892E-09  2.94804E-09  2.93524E-09  2.92045E-09  2.90363E-09  2.88471E-09
   2.86365E-09  2.84038E-09  2.81486E-09  2.78702E-09  2.75682E-09  2.72420E-09  2.68910E-09  2.65147E-09  2.61127E-09  2.56842E-09
   2.52287E-09  2.47461E-09  2.42363E-09  2.36990E-09  2.31342E-09  2.25417E-09  2.19213E-09  2.12730E-09  2.05966E-09  1.98921E-09
   1.91593E-09  1.83980E-09  1.76084E-09  1.67904E-09  1.59439E-09  1.50689E-09  1.41657E-09  1.32344E-09  1.22756E-09  1.12899E-09
   1.02784E-09  9.24310E-10  8.18785E-10  7.11920E-10  6.05215E-10  5.02516E-10  4.18100E-10  4.13129E-10  4.88602E-10  6.35795E-10
   8.25185E-10  9.73911E-10  9.82779E-10  8.15300E-10  5.14195E-10  1.45351E-10 -2.55663E-10 -6.77248E-10 -1.06840E-09 -1.29633E-09
  -1.46663E-09 -1.61863E-09 -1.76141E-09 -1.89795E-09 -2.02937E-09 -2.15609E-09 -2.27816E-09 -2.39550E-09 -2.50788E-09 -2.61505E-09
  -2.71673E-09 -2.81259E-09 -2.90230E-09 -2.98549E-09 -3.06183E-09 -3.13096E-09 -3.19264E-09 -3.24704E-09 -3.29440E-09 -3.33499E-09
  -3.36903E-09 -3.39679E-09 -3.41849E-09 -3.43438E-09 -3.44471E-09 -3.44972E-09 -3.44964E-09 -3.44472E-09 -3.43520E-09 -3.42132E-09
  -3.40332E-09 -3.38143E-09 -3.35591E-09 -3.32698E-09 -3.29489E-09 -3.25988E-09 -3.22218E-09 -3.18203E-09 -3.13968E-09 -3.09536E-09
  -3.04931E-09 -3.00177E-09 -2.95298E-09 -2.90317E-09 -2.85255E-09 -2.80120E-09 -2.74924E-09 -2.69673E-09 -2.64379E-09 -2.59050E-09
