 LCModel (Version 6.3-1R) Copyright: S.W. Provencher.          Ref.: Magn. Reson. Med. 30:672-679 (1993).                
 onepulse 18x19_ftSpec_smooth_lcm
 26 lines in following concentration table = NCONC+1
    Conc.  %SD   /Cr    Metabolite                                         
 1.01E-10 151%   0.000 Ala                                                 
 4.98E-10  59%   0.000 Asp                                                 
    0.000 999%   0.000 Cr                                                  
 2.69E-09  12%   0.000 GABA                                                
 1.34E-09  26%   0.000 Glc                                                 
    0.000 999%   0.000 Gln                                                 
 2.40E-10 134%   0.000 Glu                                                 
    0.000 999%   0.000 Glyc                                                
    0.000 999%   0.000 GPC                                                 
    0.000 999%   0.000 GSH                                                 
 1.63E-10  99%   0.000 Ins                                                 
    0.000 999%   0.000 Lac                                                 
    0.000 999%   0.000 NAAG                                                
 1.04E-09  14%   0.000 NAA                                                 
 1.00E-10  43%   0.000 PCh                                                 
    0.000 999%   0.000 PCr                                                 
    0.000 999%   0.000 PE                                                  
 8.71E-13 999%   0.000 Scyllo                                              
    0.000 999%   0.000 Ser                                                 
    0.000 999%   0.000 Tau                                                 
 1.00E-10  43%   0.000 GPC+PCh                                             
 1.04E-09  14%   0.000 NAA+NAAG                                            
 1.63E-10  99%   0.000 Ins+Glyc                                            
    0.000 999%   0.000 Cr+PCr                                              
 2.40E-10 134%   0.000 Glu+Gln                                             
   6 lines in following misc. output table
  FWHM = 0.067 ppm    S/N =   5                                            
  Data shift = 0.335 ppm                                                   
  Ph:  58 deg      31.4 deg/ppm                                            
  alphaB,S = 1.6E-01,   7.3E+01                                            
   16 spline knots.   Ns = 5(1)                                            
  ( 5) 2 infls.   ( 5) 1 extrs.                                            
  363 points on ppm-axis = NY
      4.250000     4.238821     4.227641     4.216462     4.205282     4.194103     4.182923     4.171744     4.160564     4.149385
      4.138206     4.127026     4.115847     4.104667     4.093488     4.082308     4.071129     4.059949     4.048770     4.037591
      4.026411     4.015232     4.004052     3.992873     3.981693     3.970514     3.959334     3.948155     3.936975     3.925796
      3.914617     3.903437     3.892258     3.881078     3.869899     3.858719     3.847540     3.836360     3.825181     3.814002
      3.802822     3.791643     3.780463     3.769284     3.758104     3.746925     3.735745     3.724566     3.713387     3.702207
      3.691028     3.679848     3.668669     3.657489     3.646310     3.635130     3.623951     3.612772     3.601592     3.590413
      3.579233     3.568054     3.556874     3.545695     3.534515     3.523336     3.512156     3.500977     3.489798     3.478618
      3.467439     3.456259     3.445080     3.433900     3.422721     3.411541     3.400362     3.389183     3.378003     3.366824
      3.355644     3.344465     3.333285     3.322106     3.310926     3.299747     3.288568     3.277388     3.266209     3.255029
      3.243850     3.232670     3.221491     3.210311     3.199132     3.187953     3.176773     3.165594     3.154414     3.143235
      3.132055     3.120876     3.109696     3.098517     3.087337     3.076158     3.064979     3.053799     3.042620     3.031440
      3.020261     3.009081     2.997902     2.986722     2.975543     2.964364     2.953184     2.942005     2.930825     2.919646
      2.908466     2.897287     2.886107     2.874928     2.863749     2.852569     2.841390     2.830210     2.819031     2.807851
      2.796672     2.785492     2.774313     2.763134     2.751954     2.740775     2.729595     2.718416     2.707236     2.696057
      2.684877     2.673698     2.662519     2.651339     2.640160     2.628980     2.617801     2.606621     2.595442     2.584262
      2.573083     2.561903     2.550724     2.539545     2.528365     2.517186     2.506006     2.494827     2.483647     2.472468
      2.461288     2.450109     2.438930     2.427750     2.416571     2.405391     2.394212     2.383032     2.371853     2.360673
      2.349494     2.338315     2.327135     2.315956     2.304776     2.293597     2.282417     2.271238     2.260058     2.248879
      2.237700     2.226520     2.215341     2.204161     2.192982     2.181802     2.170623     2.159443     2.148264     2.137084
      2.125905     2.114726     2.103546     2.092367     2.081187     2.070008     2.058828     2.047649     2.036469     2.025290
      2.014111     2.002931     1.991752     1.980572     1.969393     1.958213     1.947034     1.935854     1.924675     1.913496
      1.902316     1.891137     1.879957     1.868778     1.857598     1.846419     1.835239     1.824060     1.812881     1.801701
      1.790522     1.779342     1.768163     1.756983     1.745804     1.734624     1.723445     1.712265     1.701086     1.689907
      1.678727     1.667548     1.656368     1.645189     1.634009     1.622830     1.611650     1.600471     1.589292     1.578112
      1.566933     1.555753     1.544574     1.533394     1.522215     1.511035     1.499856     1.488677     1.477497     1.466318
      1.455138     1.443959     1.432779     1.421600     1.410420     1.399241     1.388062     1.376882     1.365703     1.354523
      1.343344     1.332164     1.320985     1.309805     1.298626     1.287446     1.276267     1.265088     1.253908     1.242729
      1.231549     1.220370     1.209190     1.198011     1.186831     1.175652     1.164473     1.153293     1.142114     1.130934
      1.119755     1.108575     1.097396     1.086216     1.075037     1.063858     1.052678     1.041499     1.030319     1.019140
      1.007960     0.996781     0.985601     0.974422     0.963243     0.952063     0.940884     0.929704     0.918525     0.907345
      0.896166     0.884986     0.873807     0.862628     0.851448     0.840269     0.829089     0.817910     0.806730     0.795551
      0.784371     0.773192     0.762012     0.750833     0.739654     0.728474     0.717295     0.706115     0.694936     0.683756
      0.672577     0.661397     0.650218     0.639039     0.627859     0.616680     0.605500     0.594321     0.583141     0.571962
      0.560782     0.549603     0.538424     0.527244     0.516065     0.504885     0.493706     0.482526     0.471347     0.460167
      0.448988     0.437809     0.426629     0.415450     0.404270     0.393091     0.381911     0.370732     0.359552     0.348373
      0.337193     0.326014     0.314835     0.303655     0.292476     0.281296     0.270117     0.258937     0.247758     0.236578
      0.225399     0.214220     0.203040
 NY phased data points follow
   8.23026E-11  3.34866E-09  4.45641E-09  6.98275E-09  7.02833E-09  6.27399E-09  4.93739E-09  4.69409E-09  3.13282E-09  3.30670E-09
   3.54847E-09  3.77009E-09  3.57242E-09  4.01390E-09  3.92932E-09  4.62094E-09  5.57056E-09  6.01114E-09  5.38138E-09  5.72819E-09
   5.18516E-09  6.20683E-09  5.66916E-09  4.49234E-09  4.66599E-09  5.56011E-09  5.96390E-09  6.44832E-09  5.93636E-09  6.50020E-09
   5.50547E-09  5.09148E-09  5.84342E-09  7.32716E-09  9.62031E-09  9.31073E-09  9.86097E-09  8.50282E-09  7.03480E-09  6.39852E-09
   5.55226E-09  5.78084E-09  4.89782E-09  5.64856E-09  4.57740E-09  4.78410E-09  5.30301E-09  4.36722E-09  3.94932E-09  2.88747E-09
   3.26877E-09  3.59452E-09  3.09666E-09  4.31286E-09  3.74598E-09  4.25962E-09  2.88219E-09  3.31314E-09  3.01005E-09  2.31282E-09
   2.74977E-09  3.79234E-09  3.94226E-09  5.06423E-09  7.89365E-09  1.04822E-08  1.14793E-08  1.06065E-08  8.66306E-09  7.27090E-09
   6.10053E-09  6.60964E-09  5.00454E-09  4.24684E-09  3.58292E-09  4.16346E-09  2.44497E-09  2.86842E-09  3.35172E-09  4.15076E-09
   6.21076E-09  1.03783E-08  1.28194E-08  1.24380E-08  1.13906E-08  9.62479E-09  8.58787E-09  8.61381E-09  6.95707E-09  6.61217E-09
   6.57671E-09  6.24704E-09  5.94420E-09  6.53827E-09  5.05068E-09  5.27731E-09  4.33123E-09  4.83303E-09  3.90222E-09  3.45643E-09
   3.87614E-09  3.40641E-09  4.37442E-09  2.98870E-09  3.97378E-09  3.63750E-09  3.63258E-09  3.73741E-09  3.57685E-09  3.71972E-09
   2.45314E-09  2.80605E-09  1.93186E-09  2.32273E-09  2.88321E-09  3.24080E-09  2.89285E-09  3.54357E-09  3.66607E-09  3.98199E-09
   3.92947E-09  3.89874E-09  2.99300E-09  3.82999E-09  2.53954E-09  2.09208E-09  1.42287E-09  1.98281E-09  1.82775E-09  2.20273E-09
   2.38076E-09  2.67623E-09  2.11794E-09  2.77410E-09  3.58893E-09  2.52179E-09  1.99952E-09  2.56862E-09  1.52108E-09  2.48476E-09
   2.99968E-09  3.45335E-09  4.17208E-09  4.38875E-09  2.77605E-09  3.14179E-09  3.48105E-09  3.87971E-09  4.66429E-09  3.85936E-09
   4.00564E-09  3.45479E-09  3.55256E-09  4.09774E-09  3.54390E-09  4.06176E-09  3.71408E-09  4.12223E-09  3.84308E-09  4.64322E-09
   4.55029E-09  4.56606E-09  4.48524E-09  4.78015E-09  4.94448E-09  5.47790E-09  5.81741E-09  5.95724E-09  6.51437E-09  8.63519E-09
   1.04251E-08  1.27951E-08  1.60735E-08  1.69236E-08  1.39380E-08  1.06762E-08  7.25487E-09  5.29042E-09  5.00403E-09  4.70818E-09
   3.20399E-09  2.98998E-09  2.58337E-09  2.34762E-09  1.66393E-09  2.22638E-09 -1.48910E-11  6.38586E-10 -5.96669E-10 -1.05563E-09
  -1.02817E-09 -1.41585E-09 -3.11469E-09 -3.30448E-09 -3.77769E-09 -4.58421E-09 -5.63911E-09 -5.99115E-09 -7.06185E-09 -7.83055E-09
  -8.15612E-09 -8.70922E-09 -8.85456E-09 -8.79539E-09 -9.51824E-09 -9.21119E-09 -9.09866E-09 -8.04445E-09 -7.98598E-09 -7.01867E-09
  -7.38110E-09 -5.20846E-09 -4.40891E-09 -3.74885E-09 -3.33994E-09 -2.15995E-09 -2.14515E-09 -1.86301E-09 -1.54718E-09 -1.20465E-09
  -2.09718E-09 -2.29208E-09 -1.81645E-09 -1.35902E-09 -2.62483E-09 -1.60648E-09 -1.58275E-09 -1.46204E-09 -1.44310E-09 -1.82528E-09
  -1.30632E-09 -1.80107E-09 -1.87252E-09 -1.68632E-09 -2.60283E-09 -1.40418E-09 -1.71335E-09 -1.34909E-09 -1.16232E-09 -2.07448E-09
  -8.74941E-10 -1.09690E-09 -1.60439E-09 -1.41356E-09 -2.08601E-09 -1.66093E-09 -1.49806E-09 -1.34759E-09 -1.78066E-09 -1.24874E-09
  -1.03929E-09 -6.86087E-10 -9.24323E-10 -8.46016E-10 -2.94965E-10 -1.69034E-09 -1.22271E-09 -1.18579E-09 -1.64026E-09 -9.54156E-10
  -1.51289E-09 -1.72932E-09 -2.45217E-09 -2.06395E-09 -1.93774E-09 -1.17845E-09 -1.40937E-09 -5.18433E-10 -4.89201E-10 -6.49420E-10
  -3.58439E-10 -3.42163E-10 -5.12407E-10  4.55277E-11 -4.66669E-11 -3.09221E-10 -6.25978E-10 -6.25757E-10 -1.34678E-09 -1.32121E-09
  -1.11503E-09 -1.94051E-09 -1.82202E-09 -7.92315E-10 -1.82808E-09 -1.38216E-09 -1.14227E-09 -1.30853E-09 -1.40013E-09 -1.05535E-09
  -1.28622E-09 -1.49601E-09 -1.45830E-09 -5.81282E-10 -8.08970E-10 -1.39627E-09 -9.25278E-10 -8.71149E-10 -1.19426E-09 -1.16737E-09
  -3.77209E-10 -6.62949E-10 -1.02424E-09 -8.12384E-10 -1.44049E-09 -6.78279E-10 -6.84080E-10 -7.49089E-10 -6.94706E-10 -6.69416E-10
  -1.09890E-09 -9.08417E-10 -2.74189E-10 -5.44543E-10 -3.10039E-10 -4.81911E-10 -6.72007E-10 -5.93061E-10 -6.48565E-10 -2.84967E-10
  -2.64697E-10 -6.32452E-10 -3.10569E-10 -8.53019E-10 -3.44536E-10  5.41907E-11 -8.05588E-10  1.74733E-10 -3.27121E-11  1.97002E-10
  -7.17146E-10 -5.50565E-11 -7.39378E-10 -1.28258E-10 -3.15291E-10 -1.17817E-10 -1.26172E-10 -7.03645E-10  1.25246E-10 -1.84338E-10
  -7.73638E-10 -4.69978E-10  3.11511E-10  3.03607E-11 -8.09351E-10 -2.00664E-10 -4.28384E-10 -4.78666E-10 -8.59803E-12 -4.42102E-10
   1.38976E-11 -2.13176E-10 -1.61611E-10 -1.52602E-10  4.81425E-11 -2.28069E-10 -3.83698E-10 -4.36294E-10 -3.98955E-10 -2.89195E-11
  -1.50970E-10 -4.49424E-10 -2.22995E-10
 NY points of the fit to the data follow
   3.57984E-09  4.11995E-09  4.62775E-09  5.01927E-09  5.19426E-09  5.12072E-09  4.83327E-09  4.42865E-09  4.07583E-09  3.78702E-09
   3.65086E-09  3.64619E-09  3.72978E-09  3.88256E-09  4.13513E-09  4.48150E-09  4.91087E-09  5.41740E-09  5.91953E-09  6.29395E-09
   6.45683E-09  6.28257E-09  5.79440E-09  5.25797E-09  4.84437E-09  4.64173E-09  4.74362E-09  5.17416E-09  5.74404E-09  6.24607E-09
   6.49127E-09  6.69604E-09  7.04101E-09  7.35553E-09  7.62335E-09  8.02639E-09  8.38042E-09  8.44305E-09  8.13598E-09  7.54983E-09
   6.85730E-09  6.08981E-09  5.14485E-09  4.39031E-09  3.93553E-09  3.55616E-09  3.33334E-09  3.32782E-09  3.41995E-09  3.50531E-09
   3.53540E-09  3.50277E-09  3.47257E-09  3.46110E-09  3.47396E-09  3.51219E-09  3.53960E-09  3.54312E-09  3.50736E-09  3.50659E-09
   3.68652E-09  4.16532E-09  4.80507E-09  5.53909E-09  6.54339E-09  7.51347E-09  8.24039E-09  8.75876E-09  9.02965E-09  8.91165E-09
   8.36576E-09  7.45426E-09  6.39246E-09  5.48858E-09  4.63427E-09  3.90707E-09  3.74598E-09  4.17784E-09  4.96838E-09  6.22826E-09
   7.80155E-09  9.47389E-09  1.09611E-08  1.16905E-08  1.13988E-08  1.04318E-08  9.21017E-09  7.98441E-09  6.95636E-09  6.58704E-09
   6.44230E-09  6.32232E-09  6.03747E-09  5.58379E-09  5.22884E-09  4.85228E-09  4.37663E-09  4.03317E-09  3.78424E-09  3.56181E-09
   3.42937E-09  3.35944E-09  3.33514E-09  3.35946E-09  3.40476E-09  3.44496E-09  3.46509E-09  3.46430E-09  3.44192E-09  3.39421E-09
   3.32267E-09  3.24500E-09  3.18929E-09  3.13305E-09  3.08781E-09  3.07756E-09  3.07987E-09  3.08797E-09  3.09928E-09  3.11256E-09
   3.12707E-09  3.14230E-09  3.15789E-09  3.17354E-09  3.18904E-09  3.20419E-09  3.21882E-09  3.23280E-09  3.24599E-09  3.25828E-09
   3.26955E-09  3.27969E-09  3.28861E-09  3.29620E-09  3.30238E-09  3.30705E-09  3.31013E-09  3.31155E-09  3.31124E-09  3.30910E-09
   3.30506E-09  3.29898E-09  3.29067E-09  3.27998E-09  3.26674E-09  3.25080E-09  3.23200E-09  3.21019E-09  3.18524E-09  3.15702E-09
   3.12543E-09  3.09039E-09  3.05185E-09  3.00978E-09  2.96424E-09  2.91532E-09  2.86328E-09  2.80850E-09  2.75165E-09  2.69381E-09
   2.63678E-09  2.58366E-09  2.54010E-09  2.51747E-09  2.54254E-09  2.69882E-09  3.35824E-09  4.78979E-09  6.81239E-09  9.28326E-09
   1.20581E-08  1.46329E-08  1.61550E-08  1.59432E-08  1.39827E-08  1.08783E-08  7.40829E-09  4.19528E-09  1.95105E-09  8.72135E-10
   3.52701E-10 -2.60536E-12 -2.88530E-10 -5.37455E-10 -7.63526E-10 -9.73836E-10 -1.17220E-09 -1.36074E-09 -1.54062E-09 -1.71249E-09
  -1.87659E-09 -2.03297E-09 -2.18150E-09 -2.32193E-09 -2.45398E-09 -2.57727E-09 -2.69156E-09 -2.79707E-09 -2.89408E-09 -2.98286E-09
  -3.06369E-09 -3.13679E-09 -3.20241E-09 -3.26079E-09 -3.31215E-09 -3.35670E-09 -3.39468E-09 -3.42628E-09 -3.45172E-09 -3.47121E-09
  -3.48496E-09 -3.49316E-09 -3.49603E-09 -3.49378E-09 -3.48658E-09 -3.47467E-09 -3.45822E-09 -3.43744E-09 -3.41252E-09 -3.38368E-09
  -3.35109E-09 -3.31497E-09 -3.27551E-09 -3.23290E-09 -3.18735E-09 -3.13905E-09 -3.08822E-09 -3.03506E-09 -2.97977E-09 -2.92256E-09
  -2.86363E-09 -2.80318E-09 -2.74143E-09 -2.67857E-09 -2.61480E-09 -2.55034E-09 -2.48539E-09 -2.42014E-09 -2.35480E-09 -2.28958E-09
  -2.22469E-09 -2.16031E-09 -2.09666E-09 -2.03394E-09 -1.97235E-09 -1.91210E-09 -1.85338E-09 -1.79640E-09 -1.74137E-09 -1.68850E-09
  -1.63796E-09 -1.58999E-09 -1.54464E-09 -1.50184E-09 -1.46150E-09 -1.42353E-09 -1.38782E-09 -1.35428E-09 -1.32283E-09 -1.29337E-09
  -1.26581E-09 -1.24005E-09 -1.21600E-09 -1.19356E-09 -1.17264E-09 -1.15316E-09 -1.13500E-09 -1.11810E-09 -1.10234E-09 -1.08763E-09
  -1.07388E-09 -1.06101E-09 -1.04890E-09 -1.03748E-09 -1.02665E-09 -1.01630E-09 -1.00636E-09 -9.96721E-10 -9.87301E-10 -9.77997E-10
  -9.68765E-10 -9.59591E-10 -9.50460E-10 -9.41359E-10 -9.32281E-10 -9.23207E-10 -9.14130E-10 -9.05032E-10 -8.95904E-10 -8.86734E-10
  -8.77507E-10 -8.68213E-10 -8.58837E-10 -8.49367E-10 -8.39793E-10 -8.30099E-10 -8.20276E-10 -8.10307E-10 -8.00187E-10 -7.89892E-10
  -7.79421E-10 -7.68754E-10 -7.57880E-10 -7.46792E-10 -7.35471E-10 -7.23905E-10 -7.12086E-10 -6.99995E-10 -6.87651E-10 -6.75073E-10
  -6.62286E-10 -6.49314E-10 -6.36180E-10 -6.22904E-10 -6.09514E-10 -5.96032E-10 -5.82481E-10 -5.68883E-10 -5.55266E-10 -5.41647E-10
  -5.28056E-10 -5.14511E-10 -5.01036E-10 -4.87660E-10 -4.74399E-10 -4.61284E-10 -4.48332E-10 -4.35567E-10 -4.23016E-10 -4.10703E-10
  -3.98645E-10 -3.86871E-10 -3.75401E-10 -3.64262E-10 -3.53477E-10 -3.43060E-10 -3.33010E-10 -3.23311E-10 -3.13943E-10 -3.04893E-10
  -2.96143E-10 -2.87675E-10 -2.79476E-10 -2.71526E-10 -2.63814E-10 -2.56316E-10 -2.49024E-10 -2.41917E-10 -2.34979E-10 -2.28193E-10
  -2.21543E-10 -2.15014E-10 -2.08589E-10 -2.02251E-10 -1.95984E-10 -1.89773E-10 -1.83599E-10 -1.77446E-10 -1.71299E-10 -1.65143E-10
  -1.58959E-10 -1.52734E-10 -1.46444E-10
 NY background values follow
    -7.282E-10   -6.964E-10   -6.647E-10   -6.330E-10   -6.014E-10   -5.698E-10   -5.384E-10   -5.072E-10   -4.761E-10   -4.452E-10
    -4.145E-10   -3.840E-10   -3.537E-10   -3.238E-10   -2.941E-10   -2.648E-10   -2.357E-10   -2.071E-10   -1.788E-10   -1.510E-10
    -1.235E-10   -9.654E-11   -7.002E-11   -4.399E-11   -1.848E-11    6.494E-12    3.091E-11    5.475E-11    7.798E-11    1.006E-10
     1.226E-10    1.441E-10    1.650E-10    1.854E-10    2.052E-10    2.246E-10    2.436E-10    2.621E-10    2.802E-10    2.980E-10
     3.153E-10    3.324E-10    3.491E-10    3.655E-10    3.817E-10    3.976E-10    4.133E-10    4.288E-10    4.441E-10    4.593E-10
     4.743E-10    4.893E-10    5.042E-10    5.190E-10    5.338E-10    5.485E-10    5.633E-10    5.782E-10    5.931E-10    6.081E-10
     6.232E-10    6.385E-10    6.540E-10    6.697E-10    6.857E-10    7.019E-10    7.185E-10    7.354E-10    7.526E-10    7.703E-10
     7.884E-10    8.070E-10    8.261E-10    8.456E-10    8.658E-10    8.865E-10    9.078E-10    9.298E-10    9.525E-10    9.759E-10
     1.000E-09    1.025E-09    1.050E-09    1.077E-09    1.104E-09    1.133E-09    1.162E-09    1.191E-09    1.222E-09    1.253E-09
     1.285E-09    1.317E-09    1.350E-09    1.384E-09    1.418E-09    1.452E-09    1.487E-09    1.522E-09    1.557E-09    1.593E-09
     1.629E-09    1.665E-09    1.701E-09    1.738E-09    1.774E-09    1.810E-09    1.847E-09    1.883E-09    1.919E-09    1.955E-09
     1.991E-09    2.026E-09    2.061E-09    2.096E-09    2.131E-09    2.165E-09    2.198E-09    2.231E-09    2.263E-09    2.294E-09
     2.325E-09    2.354E-09    2.383E-09    2.410E-09    2.437E-09    2.462E-09    2.486E-09    2.509E-09    2.531E-09    2.551E-09
     2.569E-09    2.586E-09    2.602E-09    2.615E-09    2.627E-09    2.637E-09    2.645E-09    2.651E-09    2.655E-09    2.657E-09
     2.657E-09    2.654E-09    2.649E-09    2.642E-09    2.631E-09    2.617E-09    2.600E-09    2.580E-09    2.556E-09    2.529E-09
     2.497E-09    2.462E-09    2.422E-09    2.377E-09    2.328E-09    2.275E-09    2.216E-09    2.152E-09    2.083E-09    2.008E-09
     1.927E-09    1.841E-09    1.749E-09    1.650E-09    1.545E-09    1.434E-09    1.315E-09    1.190E-09    1.058E-09    9.188E-10
     7.739E-10    6.235E-10    4.681E-10    3.083E-10    1.447E-10   -2.214E-11   -1.917E-10   -3.635E-10   -5.369E-10   -7.113E-10
    -8.862E-10   -1.061E-09   -1.235E-09   -1.409E-09   -1.580E-09   -1.749E-09   -1.915E-09   -2.078E-09   -2.237E-09   -2.392E-09
    -2.541E-09   -2.685E-09   -2.823E-09   -2.954E-09   -3.077E-09   -3.193E-09   -3.301E-09   -3.400E-09   -3.492E-09   -3.576E-09
    -3.652E-09   -3.721E-09   -3.782E-09   -3.837E-09   -3.885E-09   -3.927E-09   -3.962E-09   -3.990E-09   -4.013E-09   -4.030E-09
    -4.042E-09   -4.048E-09   -4.048E-09   -4.044E-09   -4.035E-09   -4.021E-09   -4.003E-09   -3.980E-09   -3.954E-09   -3.924E-09
    -3.889E-09   -3.852E-09   -3.811E-09   -3.767E-09   -3.720E-09   -3.670E-09   -3.618E-09   -3.564E-09   -3.508E-09   -3.449E-09
    -3.389E-09   -3.328E-09   -3.265E-09   -3.201E-09   -3.136E-09   -3.071E-09   -3.005E-09   -2.939E-09   -2.872E-09   -2.806E-09
    -2.740E-09   -2.675E-09   -2.611E-09   -2.547E-09   -2.485E-09   -2.424E-09   -2.364E-09   -2.306E-09   -2.251E-09   -2.197E-09
    -2.146E-09   -2.097E-09   -2.051E-09   -2.007E-09   -1.966E-09   -1.928E-09   -1.891E-09   -1.857E-09   -1.825E-09   -1.795E-09
    -1.767E-09   -1.740E-09   -1.716E-09   -1.693E-09   -1.671E-09   -1.651E-09   -1.632E-09   -1.615E-09   -1.599E-09   -1.583E-09
    -1.569E-09   -1.556E-09   -1.543E-09   -1.531E-09   -1.520E-09   -1.509E-09   -1.498E-09   -1.488E-09   -1.478E-09   -1.469E-09
    -1.459E-09   -1.449E-09   -1.439E-09   -1.430E-09   -1.420E-09   -1.411E-09   -1.401E-09   -1.392E-09   -1.382E-09   -1.372E-09
    -1.363E-09   -1.353E-09   -1.343E-09   -1.333E-09   -1.323E-09   -1.313E-09   -1.303E-09   -1.293E-09   -1.282E-09   -1.271E-09
    -1.260E-09   -1.249E-09   -1.238E-09   -1.227E-09   -1.215E-09   -1.203E-09   -1.191E-09   -1.178E-09   -1.165E-09   -1.152E-09
    -1.139E-09   -1.126E-09   -1.112E-09   -1.099E-09   -1.085E-09   -1.071E-09   -1.057E-09   -1.043E-09   -1.029E-09   -1.015E-09
    -1.001E-09   -9.873E-10   -9.735E-10   -9.598E-10   -9.461E-10   -9.327E-10   -9.193E-10   -9.062E-10   -8.933E-10   -8.806E-10
    -8.682E-10   -8.561E-10   -8.443E-10   -8.328E-10   -8.217E-10   -8.109E-10   -8.005E-10   -7.904E-10   -7.807E-10   -7.713E-10
    -7.622E-10   -7.534E-10   -7.449E-10   -7.366E-10   -7.286E-10   -7.207E-10   -7.131E-10   -7.056E-10   -6.984E-10   -6.912E-10
    -6.843E-10   -6.774E-10   -6.706E-10   -6.640E-10   -6.573E-10   -6.508E-10   -6.443E-10   -6.378E-10   -6.313E-10   -6.248E-10
    -6.183E-10   -6.118E-10   -6.051E-10
 Ala      Conc. = 1.01E-10
  -6.61690E-10 -6.20409E-10 -5.81744E-10 -5.45621E-10 -5.11842E-10 -4.80441E-10 -4.52352E-10 -4.29143E-10 -4.06485E-10 -3.82685E-10
  -3.62918E-10 -3.42583E-10 -3.18649E-10 -2.95101E-10 -2.70891E-10 -2.45066E-10 -2.18519E-10 -1.91694E-10 -1.64831E-10 -1.38081E-10
  -1.11548E-10 -8.53039E-11 -5.94146E-11 -3.39212E-11 -8.86470E-12  1.57099E-11  3.97774E-11  6.33074E-11  8.62680E-11  1.08643E-10
   1.30448E-10  1.51705E-10  1.72431E-10  1.92649E-10  2.12380E-10  2.31646E-10  2.50468E-10  2.68869E-10  2.86872E-10  3.04499E-10
   3.21772E-10  3.38716E-10  3.55350E-10  3.71701E-10  3.87787E-10  4.03638E-10  4.19272E-10  4.34711E-10  4.49985E-10  4.65111E-10
   4.80112E-10  4.95017E-10  5.09844E-10  5.24619E-10  5.39360E-10  5.54100E-10  5.68858E-10  5.83658E-10  5.98530E-10  6.13506E-10
   6.28615E-10  6.43887E-10  6.59354E-10  6.75045E-10  6.90990E-10  7.07220E-10  7.23766E-10  7.40657E-10  7.57925E-10  7.75599E-10
   7.93710E-10  8.12290E-10  8.31368E-10  8.50976E-10  8.71144E-10  8.91905E-10  9.13289E-10  9.35328E-10  9.58053E-10  9.81497E-10
   1.00569E-09  1.03067E-09  1.05647E-09  1.08312E-09  1.11066E-09  1.13910E-09  1.16839E-09  1.19851E-09  1.22944E-09  1.26115E-09
   1.29364E-09  1.32690E-09  1.36095E-09  1.39585E-09  1.43169E-09  1.46868E-09  1.50719E-09  1.54805E-09  1.59323E-09  1.64917E-09
   1.72831E-09  1.81429E-09  1.91032E-09  2.03069E-09  2.15463E-09  2.26041E-09  2.33601E-09  2.38281E-09  2.40185E-09  2.39060E-09
   2.35156E-09  2.30292E-09  2.27320E-09  2.24033E-09  2.21620E-09  2.22512E-09  2.24503E-09  2.26931E-09  2.29556E-09  2.32263E-09
   2.34992E-09  2.37701E-09  2.40364E-09  2.42962E-09  2.45478E-09  2.47900E-09  2.50215E-09  2.52414E-09  2.54488E-09  2.56427E-09
   2.58223E-09  2.59869E-09  2.61356E-09  2.62678E-09  2.63826E-09  2.64793E-09  2.65572E-09  2.66157E-09  2.66539E-09  2.66712E-09
   2.66668E-09  2.66392E-09  2.65867E-09  2.65075E-09  2.63998E-09  2.62619E-09  2.60919E-09  2.58880E-09  2.56486E-09  2.53719E-09
   2.50560E-09  2.46992E-09  2.42999E-09  2.38561E-09  2.33662E-09  2.28284E-09  2.22411E-09  2.16025E-09  2.09110E-09  2.01649E-09
   1.93628E-09  1.85034E-09  1.75857E-09  1.66094E-09  1.55762E-09  1.44943E-09  1.34050E-09  1.24182E-09  1.14507E-09  1.04929E-09
   9.54217E-10  8.53029E-10  7.30553E-10  5.72908E-10  3.79624E-10  1.62231E-10 -6.39881E-11 -2.88360E-10 -5.00874E-10 -6.87353E-10
  -8.67454E-10 -1.04522E-09 -1.22134E-09 -1.39574E-09 -1.56806E-09 -1.73790E-09 -1.90476E-09 -2.06813E-09 -2.22746E-09 -2.38225E-09
  -2.53194E-09 -2.67600E-09 -2.81386E-09 -2.94498E-09 -3.06880E-09 -3.18479E-09 -3.29254E-09 -3.39214E-09 -3.48379E-09 -3.56770E-09
  -3.64405E-09 -3.71303E-09 -3.77484E-09 -3.82968E-09 -3.87774E-09 -3.91920E-09 -3.95428E-09 -3.98316E-09 -4.00603E-09 -4.02309E-09
  -4.03454E-09 -4.04056E-09 -4.04135E-09 -4.03710E-09 -4.02801E-09 -4.01428E-09 -3.99609E-09 -3.97363E-09 -3.94711E-09 -3.91671E-09
  -3.88263E-09 -3.84507E-09 -3.80421E-09 -3.76025E-09 -3.71340E-09 -3.66384E-09 -3.61178E-09 -3.55742E-09 -3.50097E-09 -3.44263E-09
  -3.38261E-09 -3.32109E-09 -3.25830E-09 -3.19443E-09 -3.12967E-09 -3.06424E-09 -2.99834E-09 -2.93217E-09 -2.86592E-09 -2.79982E-09
  -2.73405E-09 -2.66882E-09 -2.60434E-09 -2.54081E-09 -2.47841E-09 -2.41737E-09 -2.35789E-09 -2.30015E-09 -2.24438E-09 -2.19077E-09
  -2.13951E-09 -2.09083E-09 -2.04479E-09 -2.00131E-09 -1.96029E-09 -1.92165E-09 -1.88529E-09 -1.85111E-09 -1.81903E-09 -1.78894E-09
  -1.76076E-09 -1.73439E-09 -1.70974E-09 -1.68670E-09 -1.66521E-09 -1.64515E-09 -1.62642E-09 -1.60895E-09 -1.59264E-09 -1.57738E-09
  -1.56309E-09 -1.54968E-09 -1.53705E-09 -1.52509E-09 -1.51375E-09 -1.50288E-09 -1.49244E-09 -1.48230E-09 -1.47238E-09 -1.46259E-09
  -1.45287E-09 -1.44321E-09 -1.43360E-09 -1.42403E-09 -1.41448E-09 -1.40495E-09 -1.39541E-09 -1.38586E-09 -1.37628E-09 -1.36666E-09
  -1.35699E-09 -1.34726E-09 -1.33744E-09 -1.32754E-09 -1.31754E-09 -1.30742E-09 -1.29717E-09 -1.28679E-09 -1.27625E-09 -1.26554E-09
  -1.25466E-09 -1.24359E-09 -1.23231E-09 -1.22082E-09 -1.20910E-09 -1.19714E-09 -1.18492E-09 -1.17244E-09 -1.15971E-09 -1.14674E-09
  -1.13357E-09 -1.12022E-09 -1.10670E-09 -1.09305E-09 -1.07929E-09 -1.06543E-09 -1.05151E-09 -1.03754E-09 -1.02355E-09 -1.00957E-09
  -9.95615E-10 -9.81707E-10 -9.67872E-10 -9.54137E-10 -9.40518E-10 -9.27047E-10 -9.13740E-10 -9.00622E-10 -8.87719E-10 -8.75056E-10
  -8.62648E-10 -8.50526E-10 -8.38709E-10 -8.27225E-10 -8.16095E-10 -8.05334E-10 -7.94942E-10 -7.84901E-10 -7.75193E-10 -7.65802E-10
  -7.56714E-10 -7.47909E-10 -7.39372E-10 -7.31087E-10 -7.23039E-10 -7.15207E-10 -7.07580E-10 -7.00139E-10 -6.92868E-10 -6.85750E-10
  -6.78768E-10 -6.71908E-10 -6.65151E-10 -6.58483E-10 -6.51885E-10 -6.45344E-10 -6.38841E-10 -6.32358E-10 -6.25882E-10 -6.19397E-10
  -6.12884E-10 -6.06329E-10 -5.99712E-10
 Asp      Conc. = 4.98E-10
  -1.18537E-10 -1.46952E-10 -1.87959E-10 -2.41298E-10 -2.93431E-10 -3.44447E-10 -3.75987E-10 -3.92985E-10 -3.87371E-10 -3.71958E-10
  -3.51412E-10 -3.27884E-10 -3.02573E-10 -2.76197E-10 -2.49395E-10 -2.22403E-10 -1.95283E-10 -1.68127E-10 -1.41016E-10 -1.14014E-10
  -8.71755E-11 -6.05387E-11 -3.41407E-11 -7.99641E-12  1.78819E-11  4.34832E-11  6.88254E-11  9.39335E-11  1.18850E-10  1.43660E-10
   1.68523E-10  1.93672E-10  2.19447E-10  2.46402E-10  2.75528E-10  3.08913E-10  3.51798E-10  4.01208E-10  4.61342E-10  5.23602E-10
   5.82500E-10  6.31865E-10  6.69434E-10  7.04434E-10  7.42801E-10  8.18545E-10  9.21616E-10  1.05155E-09  1.21374E-09  1.35975E-09
   1.44855E-09  1.45490E-09  1.39843E-09  1.30553E-09  1.20031E-09  1.11158E-09  1.03338E-09  9.91675E-10  9.45501E-10  9.00810E-10
   8.90413E-10  8.96958E-10  8.99776E-10  8.99865E-10  8.96001E-10  8.83519E-10  8.65919E-10  8.60886E-10  8.62998E-10  8.69388E-10
   8.78695E-10  8.90179E-10  9.03403E-10  9.18090E-10  9.34057E-10  9.51185E-10  9.69394E-10  9.88627E-10  1.00885E-09  1.03005E-09
   1.05220E-09  1.07532E-09  1.09939E-09  1.12444E-09  1.15047E-09  1.17745E-09  1.20535E-09  1.23410E-09  1.26365E-09  1.29396E-09
   1.32496E-09  1.35663E-09  1.38889E-09  1.42172E-09  1.45506E-09  1.48887E-09  1.52310E-09  1.55771E-09  1.59264E-09  1.62786E-09
   1.66333E-09  1.69899E-09  1.73480E-09  1.77073E-09  1.80671E-09  1.84272E-09  1.87872E-09  1.91464E-09  1.95046E-09  1.98612E-09
   2.02159E-09  2.05682E-09  2.09177E-09  2.12638E-09  2.16058E-09  2.19430E-09  2.22748E-09  2.26005E-09  2.29194E-09  2.32307E-09
   2.35339E-09  2.38283E-09  2.41131E-09  2.43877E-09  2.46514E-09  2.49035E-09  2.51434E-09  2.53704E-09  2.55837E-09  2.57828E-09
   2.59669E-09  2.61354E-09  2.62876E-09  2.64227E-09  2.65402E-09  2.66393E-09  2.67195E-09  2.67799E-09  2.68200E-09  2.68390E-09
   2.68362E-09  2.68102E-09  2.67593E-09  2.66816E-09  2.65754E-09  2.64390E-09  2.62706E-09  2.60685E-09  2.58310E-09  2.55563E-09
   2.52427E-09  2.48885E-09  2.44921E-09  2.40518E-09  2.35660E-09  2.30331E-09  2.24517E-09  2.18204E-09  2.11380E-09  2.04037E-09
   1.96169E-09  1.87782E-09  1.78897E-09  1.69566E-09  1.59927E-09  1.50376E-09  1.42517E-09  1.42464E-09  1.46423E-09  1.53451E-09
   1.63366E-09  1.73077E-09  1.75111E-09  1.61895E-09  1.32191E-09  9.10305E-10  4.58813E-10  2.06487E-11 -3.60930E-10 -6.04895E-10
  -8.07190E-10 -9.96609E-10 -1.17987E-09 -1.35904E-09 -1.53477E-09 -1.70714E-09 -1.87594E-09 -2.04084E-09 -2.20141E-09 -2.35721E-09
  -2.50774E-09 -2.65251E-09 -2.79098E-09 -2.92262E-09 -3.04690E-09 -3.16329E-09 -3.27139E-09 -3.37130E-09 -3.46324E-09 -3.54739E-09
  -3.62397E-09 -3.69315E-09 -3.75516E-09 -3.81017E-09 -3.85838E-09 -3.90000E-09 -3.93521E-09 -3.96422E-09 -3.98721E-09 -4.00438E-09
  -4.01593E-09 -4.02204E-09 -4.02292E-09 -4.01876E-09 -4.00975E-09 -3.99610E-09 -3.97798E-09 -3.95559E-09 -3.92914E-09 -3.89880E-09
  -3.86478E-09 -3.82727E-09 -3.78647E-09 -3.74257E-09 -3.69576E-09 -3.64625E-09 -3.59424E-09 -3.53993E-09 -3.48352E-09 -3.42523E-09
