 LCModel (Version 6.3-1R) Copyright: S.W. Provencher.          Ref.: Magn. Reson. Med. 30:672-679 (1993).                
 onepulse 18x20_ftSpec_smooth_lcm
 26 lines in following concentration table = NCONC+1
    Conc.  %SD   /Cr    Metabolite                                         
 1.05E-10 153%   0.000 Ala                                                 
 5.52E-10  60%   0.000 Asp                                                 
    0.000 999%   0.000 Cr                                                  
 2.77E-09  12%   0.000 GABA                                                
 1.42E-09  18%   0.000 Glc                                                 
    0.000 999%   0.000 Gln                                                 
 1.90E-10 183%   0.000 Glu                                                 
    0.000 999%   0.000 Glyc                                                
    0.000 999%   0.000 GPC                                                 
 1.16E-12 999%   0.000 GSH                                                 
 1.53E-10 121%   0.000 Ins                                                 
    0.000 999%   0.000 Lac                                                 
    0.000 999%   0.000 NAAG                                                
 1.09E-09  14%   0.000 NAA                                                 
 9.54E-11  47%   0.000 PCh                                                 
    0.000 999%   0.000 PCr                                                 
    0.000 999%   0.000 PE                                                  
    0.000 999%   0.000 Scyllo                                              
    0.000 999%   0.000 Ser                                                 
    0.000 999%   0.000 Tau                                                 
 9.54E-11  47%   0.000 GPC+PCh                                             
 1.09E-09  14%   0.000 NAA+NAAG                                            
 1.53E-10 121%   0.000 Ins+Glyc                                            
    0.000 999%   0.000 Cr+PCr                                              
 1.90E-10 183%   0.000 Glu+Gln                                             
   6 lines in following misc. output table
  FWHM = 0.067 ppm    S/N =   5                                            
  Data shift = 0.335 ppm                                                   
  Ph:  56 deg      30.0 deg/ppm                                            
  alphaB,S = 1.6E-01,   5.7E+01                                            
   16 spline knots.   Ns = 5(1)                                            
  ( 5) 2 infls.   ( 5) 1 extrs.                                            
  363 points on ppm-axis = NY
      4.250000     4.238821     4.227641     4.216462     4.205282     4.194103     4.182923     4.171744     4.160564     4.149385
      4.138206     4.127026     4.115847     4.104667     4.093488     4.082308     4.071129     4.059949     4.048770     4.037591
      4.026411     4.015232     4.004052     3.992873     3.981693     3.970514     3.959334     3.948155     3.936975     3.925796
      3.914617     3.903437     3.892258     3.881078     3.869899     3.858719     3.847540     3.836360     3.825181     3.814002
      3.802822     3.791643     3.780463     3.769284     3.758104     3.746925     3.735745     3.724566     3.713387     3.702207
      3.691028     3.679848     3.668669     3.657489     3.646310     3.635130     3.623951     3.612772     3.601592     3.590413
      3.579233     3.568054     3.556874     3.545695     3.534515     3.523336     3.512156     3.500977     3.489798     3.478618
      3.467439     3.456259     3.445080     3.433900     3.422721     3.411541     3.400362     3.389183     3.378003     3.366824
      3.355644     3.344465     3.333285     3.322106     3.310926     3.299747     3.288568     3.277388     3.266209     3.255029
      3.243850     3.232670     3.221491     3.210311     3.199132     3.187953     3.176773     3.165594     3.154414     3.143235
      3.132055     3.120876     3.109696     3.098517     3.087337     3.076158     3.064979     3.053799     3.042620     3.031440
      3.020261     3.009081     2.997902     2.986722     2.975543     2.964364     2.953184     2.942005     2.930825     2.919646
      2.908466     2.897287     2.886107     2.874928     2.863749     2.852569     2.841390     2.830210     2.819031     2.807851
      2.796672     2.785492     2.774313     2.763134     2.751954     2.740775     2.729595     2.718416     2.707236     2.696057
      2.684877     2.673698     2.662519     2.651339     2.640160     2.628980     2.617801     2.606621     2.595442     2.584262
      2.573083     2.561903     2.550724     2.539545     2.528365     2.517186     2.506006     2.494827     2.483647     2.472468
      2.461288     2.450109     2.438930     2.427750     2.416571     2.405391     2.394212     2.383032     2.371853     2.360673
      2.349494     2.338315     2.327135     2.315956     2.304776     2.293597     2.282417     2.271238     2.260058     2.248879
      2.237700     2.226520     2.215341     2.204161     2.192982     2.181802     2.170623     2.159443     2.148264     2.137084
      2.125905     2.114726     2.103546     2.092367     2.081187     2.070008     2.058828     2.047649     2.036469     2.025290
      2.014111     2.002931     1.991752     1.980572     1.969393     1.958213     1.947034     1.935854     1.924675     1.913496
      1.902316     1.891137     1.879957     1.868778     1.857598     1.846419     1.835239     1.824060     1.812881     1.801701
      1.790522     1.779342     1.768163     1.756983     1.745804     1.734624     1.723445     1.712265     1.701086     1.689907
      1.678727     1.667548     1.656368     1.645189     1.634009     1.622830     1.611650     1.600471     1.589292     1.578112
      1.566933     1.555753     1.544574     1.533394     1.522215     1.511035     1.499856     1.488677     1.477497     1.466318
      1.455138     1.443959     1.432779     1.421600     1.410420     1.399241     1.388062     1.376882     1.365703     1.354523
      1.343344     1.332164     1.320985     1.309805     1.298626     1.287446     1.276267     1.265088     1.253908     1.242729
      1.231549     1.220370     1.209190     1.198011     1.186831     1.175652     1.164473     1.153293     1.142114     1.130934
      1.119755     1.108575     1.097396     1.086216     1.075037     1.063858     1.052678     1.041499     1.030319     1.019140
      1.007960     0.996781     0.985601     0.974422     0.963243     0.952063     0.940884     0.929704     0.918525     0.907345
      0.896166     0.884986     0.873807     0.862628     0.851448     0.840269     0.829089     0.817910     0.806730     0.795551
      0.784371     0.773192     0.762012     0.750833     0.739654     0.728474     0.717295     0.706115     0.694936     0.683756
      0.672577     0.661397     0.650218     0.639039     0.627859     0.616680     0.605500     0.594321     0.583141     0.571962
      0.560782     0.549603     0.538424     0.527244     0.516065     0.504885     0.493706     0.482526     0.471347     0.460167
      0.448988     0.437809     0.426629     0.415450     0.404270     0.393091     0.381911     0.370732     0.359552     0.348373
      0.337193     0.326014     0.314835     0.303655     0.292476     0.281296     0.270117     0.258937     0.247758     0.236578
      0.225399     0.214220     0.203040
 NY phased data points follow
   2.35712E-09  5.76942E-09  6.60564E-09  9.70999E-09  8.71209E-09  8.22553E-09  6.64368E-09  6.21801E-09  4.67311E-09  5.06283E-09
   4.75466E-09  5.10621E-09  5.13718E-09  5.58753E-09  5.33375E-09  6.06879E-09  6.89276E-09  7.50994E-09  6.52160E-09  7.30262E-09
   6.39022E-09  7.16900E-09  6.69304E-09  5.86381E-09  5.73581E-09  6.53393E-09  6.56834E-09  7.47720E-09  6.82790E-09  7.81902E-09
   6.04693E-09  5.86132E-09  6.53460E-09  8.15017E-09  1.01251E-08  1.01702E-08  1.03583E-08  8.84574E-09  7.68338E-09  6.99310E-09
   5.80428E-09  6.01113E-09  5.39717E-09  6.00644E-09  4.74076E-09  5.09498E-09  5.74199E-09  4.65157E-09  3.93501E-09  3.12904E-09
   3.49735E-09  3.98788E-09  3.23244E-09  4.63529E-09  3.85195E-09  4.80536E-09  2.99104E-09  3.55536E-09  3.23907E-09  2.78306E-09
   3.29263E-09  4.48139E-09  4.32990E-09  5.68390E-09  7.95531E-09  1.02646E-08  1.13431E-08  1.07217E-08  8.67303E-09  7.61000E-09
   6.02840E-09  6.56072E-09  4.99727E-09  4.30986E-09  3.50991E-09  4.13667E-09  2.81876E-09  3.12892E-09  3.56629E-09  4.28501E-09
   6.37621E-09  1.08301E-08  1.30203E-08  1.28242E-08  1.17076E-08  9.95819E-09  8.67920E-09  8.39704E-09  7.12252E-09  6.75997E-09
   6.43763E-09  6.25252E-09  6.08544E-09  6.20724E-09  4.96950E-09  5.18429E-09  4.05099E-09  4.86859E-09  3.41823E-09  3.50284E-09
   3.58064E-09  3.28740E-09  4.25994E-09  2.88829E-09  3.84682E-09  3.44004E-09  3.24717E-09  3.61449E-09  3.25133E-09  3.51119E-09
   2.24684E-09  2.70298E-09  1.71970E-09  2.09911E-09  2.47440E-09  3.17573E-09  2.63475E-09  3.17582E-09  3.32350E-09  3.65785E-09
   3.35645E-09  3.62404E-09  2.87700E-09  3.46645E-09  2.42890E-09  2.05041E-09  1.17286E-09  1.72121E-09  1.50670E-09  2.05915E-09
   2.17586E-09  2.38439E-09  1.90754E-09  2.90625E-09  3.25247E-09  2.39973E-09  1.76885E-09  2.63717E-09  1.61450E-09  2.33931E-09
   2.91964E-09  3.37069E-09  4.04248E-09  4.21603E-09  2.86715E-09  3.30923E-09  3.44741E-09  3.66726E-09  4.40143E-09  4.05119E-09
   4.08465E-09  3.57765E-09  3.37211E-09  4.04506E-09  3.36287E-09  3.96671E-09  3.69723E-09  4.10569E-09  3.87920E-09  4.53127E-09
   4.18941E-09  4.28378E-09  4.27237E-09  4.85625E-09  4.81343E-09  5.32910E-09  5.89387E-09  5.96536E-09  6.64184E-09  8.52713E-09
   1.01600E-08  1.24818E-08  1.57544E-08  1.70204E-08  1.41852E-08  1.10236E-08  7.57322E-09  5.70963E-09  4.89826E-09  4.75633E-09
   3.36414E-09  3.02397E-09  2.38290E-09  2.45836E-09  1.63373E-09  2.01519E-09 -2.89632E-10  3.79800E-10 -7.90863E-10 -1.38600E-09
  -1.44835E-09 -1.70528E-09 -3.43395E-09 -3.70502E-09 -4.31348E-09 -5.07765E-09 -5.98300E-09 -6.52228E-09 -7.60240E-09 -8.29876E-09
  -8.51629E-09 -9.36963E-09 -9.48913E-09 -9.31711E-09 -1.00107E-08 -9.62427E-09 -9.44648E-09 -8.57004E-09 -8.26831E-09 -7.24873E-09
  -7.63858E-09 -5.77854E-09 -4.70258E-09 -4.24080E-09 -3.25704E-09 -2.22221E-09 -2.11757E-09 -1.87961E-09 -1.63874E-09 -1.00383E-09
  -1.97392E-09 -2.21656E-09 -1.92982E-09 -1.41387E-09 -2.44049E-09 -1.64341E-09 -1.63378E-09 -1.43594E-09 -1.51492E-09 -1.75657E-09
  -1.19405E-09 -1.93364E-09 -1.86079E-09 -1.55218E-09 -2.50996E-09 -1.68334E-09 -1.67872E-09 -1.24283E-09 -1.31678E-09 -1.86725E-09
  -1.14468E-09 -9.16737E-10 -1.65162E-09 -1.40890E-09 -2.06393E-09 -1.67216E-09 -1.48032E-09 -1.61535E-09 -1.49907E-09 -1.35251E-09
  -1.13368E-09 -6.24675E-10 -1.03770E-09 -1.01132E-09 -2.14707E-10 -1.51958E-09 -1.28862E-09 -1.12871E-09 -1.73584E-09 -8.27018E-10
  -1.43945E-09 -1.92840E-09 -2.13019E-09 -2.01966E-09 -1.94580E-09 -1.33182E-09 -1.48786E-09 -3.52491E-10 -6.00308E-10 -7.18458E-10
  -5.12993E-10 -3.48614E-10 -5.69510E-10 -1.05420E-10 -1.76816E-10 -2.98625E-10 -6.74283E-10 -4.02338E-10 -1.12800E-09 -1.21671E-09
  -9.55900E-10 -1.78822E-09 -1.95566E-09 -7.79004E-10 -1.71900E-09 -1.36771E-09 -1.17353E-09 -1.27157E-09 -1.58602E-09 -9.22962E-10
  -1.30963E-09 -1.55362E-09 -1.56474E-09 -4.45574E-10 -8.35911E-10 -1.25026E-09 -1.13776E-09 -9.78200E-10 -1.26455E-09 -1.17301E-09
  -4.11549E-10 -7.89083E-10 -1.07350E-09 -5.34006E-10 -1.64556E-09 -5.50709E-10 -4.35053E-10 -7.18107E-10 -5.73614E-10 -8.92142E-10
  -7.87498E-10 -1.01394E-09 -2.91799E-10 -4.56803E-10 -2.45825E-10 -5.96602E-10 -9.14479E-10 -5.81328E-10 -6.40976E-10 -2.31354E-10
  -4.86155E-10 -5.39580E-10 -3.66474E-10 -5.52875E-10 -5.30614E-10  8.43400E-11 -9.32963E-10 -3.01723E-12 -1.03237E-10  1.71042E-10
  -5.83640E-10 -4.98051E-11 -5.19387E-10 -3.22996E-10 -1.14467E-10 -2.90000E-10  2.69678E-10 -8.23350E-10  1.81624E-10  1.16579E-11
  -7.50763E-10 -7.09972E-10  2.63540E-10  1.59374E-10 -7.67607E-10 -1.01374E-10 -3.34819E-10 -6.64060E-10 -2.87193E-10 -3.95534E-10
  -5.96095E-11 -2.38522E-10 -2.56911E-10 -3.21235E-10 -8.47075E-11 -7.28187E-11 -4.57166E-10 -3.35114E-10 -6.11513E-10 -7.45439E-11
  -3.35199E-10 -4.61967E-10 -5.70656E-10
 NY points of the fit to the data follow
   5.76143E-09  6.24091E-09  6.67671E-09  6.99495E-09  7.08888E-09  6.92193E-09  6.52525E-09  6.01944E-09  5.60552E-09  5.25750E-09
   5.09280E-09  5.08216E-09  5.16746E-09  5.33392E-09  5.61670E-09  5.97285E-09  6.37272E-09  6.84324E-09  7.32236E-09  7.68356E-09
   7.83553E-09  7.61138E-09  7.03714E-09  6.42610E-09  5.92327E-09  5.60764E-09  5.61958E-09  6.03104E-09  6.62077E-09  7.11847E-09
   7.30780E-09  7.50291E-09  7.87133E-09  8.14319E-09  8.32571E-09  8.68678E-09  9.01609E-09  9.03466E-09  8.64944E-09  7.96727E-09
   7.22669E-09  6.46357E-09  5.46322E-09  4.66422E-09  4.22790E-09  3.84125E-09  3.59546E-09  3.60214E-09  3.73789E-09  3.86226E-09
   3.91639E-09  3.88119E-09  3.84146E-09  3.81221E-09  3.81603E-09  3.86720E-09  3.91045E-09  3.92870E-09  3.89078E-09  3.86961E-09
   4.05119E-09  4.55241E-09  5.16465E-09  5.84441E-09  6.86179E-09  7.78992E-09  8.42670E-09  8.89684E-09  9.16049E-09  9.04399E-09
   8.49029E-09  7.53922E-09  6.42628E-09  5.55954E-09  4.73011E-09  3.96573E-09  3.88482E-09  4.49466E-09  5.27132E-09  6.43887E-09
   7.94994E-09  9.67662E-09  1.13002E-08  1.20505E-08  1.16208E-08  1.04994E-08  9.18583E-09  7.87496E-09  6.70591E-09  6.35809E-09
   6.22052E-09  6.13624E-09  5.87059E-09  5.37527E-09  5.02078E-09  4.66630E-09  4.16421E-09  3.81038E-09  3.57165E-09  3.35080E-09
   3.22295E-09  3.15373E-09  3.13243E-09  3.16714E-09  3.22140E-09  3.26591E-09  3.28714E-09  3.28838E-09  3.27042E-09  3.22675E-09
   3.15363E-09  3.07088E-09  3.01801E-09  2.96255E-09  2.91463E-09  2.90644E-09  2.91148E-09  2.92222E-09  2.93599E-09  2.95148E-09
   2.96798E-09  2.98500E-09  3.00216E-09  3.01920E-09  3.03590E-09  3.05207E-09  3.06756E-09  3.08224E-09  3.09597E-09  3.10864E-09
   3.12014E-09  3.13037E-09  3.13923E-09  3.14661E-09  3.15243E-09  3.15660E-09  3.15904E-09  3.15967E-09  3.15842E-09  3.15521E-09
   3.14994E-09  3.14252E-09  3.13276E-09  3.12055E-09  3.10573E-09  3.08819E-09  3.06778E-09  3.04440E-09  3.01793E-09  2.98827E-09
   2.95538E-09  2.91919E-09  2.87970E-09  2.83694E-09  2.79100E-09  2.74207E-09  2.69045E-09  2.63663E-09  2.58142E-09  2.52605E-09
   2.47255E-09  2.42436E-09  2.38771E-09  2.37496E-09  2.41525E-09  2.59952E-09  3.33432E-09  4.80330E-09  6.66445E-09  8.88349E-09
   1.15703E-08  1.43325E-08  1.61917E-08  1.62483E-08  1.43842E-08  1.12624E-08  7.72237E-09  4.31287E-09  1.81674E-09  6.25527E-10
   8.49698E-11 -2.72632E-10 -5.55568E-10 -7.99695E-10 -1.02032E-09 -1.22498E-09 -1.41767E-09 -1.60060E-09 -1.77497E-09 -1.94142E-09
  -2.10021E-09 -2.25138E-09 -2.39479E-09 -2.53021E-09 -2.65735E-09 -2.77584E-09 -2.88542E-09 -2.98631E-09 -3.07879E-09 -3.16314E-09
  -3.23961E-09 -3.30843E-09 -3.36985E-09 -3.42410E-09 -3.47140E-09 -3.51197E-09 -3.54603E-09 -3.57378E-09 -3.59545E-09 -3.61123E-09
  -3.62134E-09 -3.62598E-09 -3.62535E-09 -3.61966E-09 -3.60912E-09 -3.59392E-09 -3.57426E-09 -3.55034E-09 -3.52237E-09 -3.49054E-09
  -3.45505E-09 -3.41610E-09 -3.37390E-09 -3.32863E-09 -3.28049E-09 -3.22970E-09 -3.17644E-09 -3.12092E-09 -3.06334E-09 -3.00390E-09
  -2.94279E-09 -2.88023E-09 -2.81641E-09 -2.75153E-09 -2.68578E-09 -2.61938E-09 -2.55251E-09 -2.48539E-09 -2.41819E-09 -2.35114E-09
  -2.28444E-09 -2.21826E-09 -2.15282E-09 -2.08832E-09 -2.02495E-09 -1.96292E-09 -1.90242E-09 -1.84365E-09 -1.78681E-09 -1.73212E-09
  -1.67973E-09 -1.62990E-09 -1.58266E-09 -1.53795E-09 -1.49567E-09 -1.45575E-09 -1.41809E-09 -1.38260E-09 -1.34918E-09 -1.31776E-09
  -1.28824E-09 -1.26053E-09 -1.23454E-09 -1.21018E-09 -1.18737E-09 -1.16601E-09 -1.14601E-09 -1.12729E-09 -1.10975E-09 -1.09330E-09
  -1.07786E-09 -1.06333E-09 -1.04963E-09 -1.03665E-09 -1.02434E-09 -1.01256E-09 -1.00127E-09 -9.90342E-10 -9.79708E-10 -9.69268E-10
  -9.58978E-10 -9.48825E-10 -9.38789E-10 -9.28857E-10 -9.19021E-10 -9.09258E-10 -8.99562E-10 -8.89911E-10 -8.80295E-10 -8.70703E-10
  -8.61114E-10 -8.51518E-10 -8.41900E-10 -8.32244E-10 -8.22540E-10 -8.12770E-10 -8.02921E-10 -7.92978E-10 -7.82933E-10 -7.72759E-10
  -7.62455E-10 -7.51999E-10 -7.41377E-10 -7.30582E-10 -7.19593E-10 -7.08396E-10 -6.96981E-10 -6.85329E-10 -6.73457E-10 -6.61386E-10
  -6.49142E-10 -6.36748E-10 -6.24231E-10 -6.11610E-10 -5.98913E-10 -5.86164E-10 -5.73387E-10 -5.60606E-10 -5.47847E-10 -5.35129E-10
  -5.22485E-10 -5.09930E-10 -4.97493E-10 -4.85201E-10 -4.73071E-10 -4.61135E-10 -4.49413E-10 -4.37928E-10 -4.26707E-10 -4.15777E-10
  -4.05154E-10 -3.94869E-10 -3.84943E-10 -3.75403E-10 -3.66274E-10 -3.57569E-10 -3.49287E-10 -3.41411E-10 -3.33920E-10 -3.26798E-10
  -3.20028E-10 -3.13589E-10 -3.07466E-10 -3.01640E-10 -2.96097E-10 -2.90812E-10 -2.85775E-10 -2.80963E-10 -2.76362E-10 -2.71951E-10
  -2.67713E-10 -2.63633E-10 -2.59689E-10 -2.55867E-10 -2.52148E-10 -2.48514E-10 -2.44948E-10 -2.41429E-10 -2.37943E-10 -2.34474E-10
  -2.31000E-10 -2.27507E-10 -2.23971E-10
 NY background values follow
     5.760E-10    5.808E-10    5.855E-10    5.902E-10    5.949E-10    5.995E-10    6.041E-10    6.086E-10    6.131E-10    6.175E-10
     6.219E-10    6.261E-10    6.303E-10    6.344E-10    6.384E-10    6.422E-10    6.460E-10    6.497E-10    6.532E-10    6.566E-10
     6.599E-10    6.630E-10    6.660E-10    6.688E-10    6.715E-10    6.740E-10    6.763E-10    6.784E-10    6.804E-10    6.821E-10
     6.838E-10    6.852E-10    6.866E-10    6.879E-10    6.891E-10    6.903E-10    6.914E-10    6.926E-10    6.939E-10    6.952E-10
     6.966E-10    6.981E-10    6.998E-10    7.017E-10    7.037E-10    7.060E-10    7.086E-10    7.114E-10    7.145E-10    7.179E-10
     7.217E-10    7.259E-10    7.305E-10    7.355E-10    7.410E-10    7.470E-10    7.534E-10    7.604E-10    7.680E-10    7.761E-10
     7.847E-10    7.939E-10    8.037E-10    8.140E-10    8.250E-10    8.365E-10    8.486E-10    8.614E-10    8.747E-10    8.887E-10
     9.033E-10    9.186E-10    9.345E-10    9.510E-10    9.683E-10    9.862E-10    1.005E-09    1.024E-09    1.044E-09    1.065E-09
     1.086E-09    1.108E-09    1.131E-09    1.154E-09    1.179E-09    1.204E-09    1.230E-09    1.256E-09    1.283E-09    1.311E-09
     1.339E-09    1.367E-09    1.396E-09    1.426E-09    1.456E-09    1.487E-09    1.517E-09    1.548E-09    1.580E-09    1.611E-09
     1.643E-09    1.675E-09    1.707E-09    1.739E-09    1.771E-09    1.804E-09    1.836E-09    1.868E-09    1.900E-09    1.932E-09
     1.964E-09    1.996E-09    2.027E-09    2.058E-09    2.089E-09    2.119E-09    2.149E-09    2.178E-09    2.207E-09    2.235E-09
     2.262E-09    2.288E-09    2.314E-09    2.338E-09    2.361E-09    2.383E-09    2.404E-09    2.423E-09    2.441E-09    2.457E-09
     2.472E-09    2.486E-09    2.497E-09    2.507E-09    2.515E-09    2.521E-09    2.526E-09    2.528E-09    2.528E-09    2.525E-09
     2.521E-09    2.513E-09    2.504E-09    2.491E-09    2.476E-09    2.458E-09    2.436E-09    2.411E-09    2.382E-09    2.350E-09
     2.314E-09    2.273E-09    2.229E-09    2.180E-09    2.127E-09    2.069E-09    2.006E-09    1.938E-09    1.864E-09    1.786E-09
     1.702E-09    1.612E-09    1.517E-09    1.415E-09    1.308E-09    1.194E-09    1.074E-09    9.466E-10    8.129E-10    6.729E-10
     5.271E-10    3.762E-10    2.205E-10    6.076E-11   -1.026E-10   -2.690E-10   -4.379E-10   -6.087E-10   -7.809E-10   -9.540E-10
    -1.127E-09   -1.301E-09   -1.473E-09   -1.644E-09   -1.813E-09   -1.980E-09   -2.144E-09   -2.305E-09   -2.461E-09   -2.613E-09
    -2.760E-09   -2.901E-09   -3.036E-09   -3.164E-09   -3.285E-09   -3.398E-09   -3.502E-09   -3.599E-09   -3.688E-09   -3.769E-09
    -3.842E-09   -3.908E-09   -3.967E-09   -4.019E-09   -4.065E-09   -4.103E-09   -4.136E-09   -4.162E-09   -4.182E-09   -4.196E-09
    -4.205E-09   -4.209E-09   -4.207E-09   -4.200E-09   -4.189E-09   -4.173E-09   -4.152E-09   -4.127E-09   -4.099E-09   -4.066E-09
    -4.030E-09   -3.990E-09   -3.948E-09   -3.902E-09   -3.853E-09   -3.802E-09   -3.748E-09   -3.692E-09   -3.634E-09   -3.574E-09
    -3.512E-09   -3.449E-09   -3.385E-09   -3.320E-09   -3.254E-09   -3.187E-09   -3.120E-09   -3.052E-09   -2.985E-09   -2.917E-09
    -2.850E-09   -2.784E-09   -2.718E-09   -2.653E-09   -2.590E-09   -2.527E-09   -2.466E-09   -2.407E-09   -2.350E-09   -2.295E-09
    -2.243E-09   -2.193E-09   -2.145E-09   -2.100E-09   -2.058E-09   -2.017E-09   -1.979E-09   -1.944E-09   -1.910E-09   -1.878E-09
    -1.849E-09   -1.821E-09   -1.795E-09   -1.770E-09   -1.747E-09   -1.725E-09   -1.705E-09   -1.686E-09   -1.668E-09   -1.652E-09
    -1.636E-09   -1.621E-09   -1.607E-09   -1.594E-09   -1.582E-09   -1.570E-09   -1.558E-09   -1.547E-09   -1.536E-09   -1.526E-09
    -1.515E-09   -1.505E-09   -1.495E-09   -1.484E-09   -1.474E-09   -1.464E-09   -1.454E-09   -1.445E-09   -1.435E-09   -1.425E-09
    -1.415E-09   -1.405E-09   -1.396E-09   -1.386E-09   -1.376E-09   -1.366E-09   -1.356E-09   -1.346E-09   -1.335E-09   -1.325E-09
    -1.314E-09   -1.304E-09   -1.293E-09   -1.282E-09   -1.271E-09   -1.259E-09   -1.248E-09   -1.236E-09   -1.224E-09   -1.212E-09
    -1.199E-09   -1.186E-09   -1.174E-09   -1.161E-09   -1.148E-09   -1.135E-09   -1.122E-09   -1.109E-09   -1.096E-09   -1.083E-09
    -1.070E-09   -1.057E-09   -1.045E-09   -1.032E-09   -1.020E-09   -1.008E-09   -9.957E-10   -9.840E-10   -9.725E-10   -9.614E-10
    -9.505E-10   -9.400E-10   -9.298E-10   -9.200E-10   -9.107E-10   -9.017E-10   -8.932E-10   -8.851E-10   -8.773E-10   -8.700E-10
    -8.629E-10   -8.562E-10   -8.499E-10   -8.438E-10   -8.380E-10   -8.324E-10   -8.271E-10   -8.221E-10   -8.172E-10   -8.125E-10
    -8.080E-10   -8.037E-10   -7.994E-10   -7.953E-10   -7.913E-10   -7.874E-10   -7.836E-10   -7.798E-10   -7.760E-10   -7.723E-10
    -7.685E-10   -7.647E-10   -7.609E-10
 Ala      Conc. = 1.05E-10
   6.52732E-10  6.66207E-10  6.76699E-10  6.84633E-10  6.90224E-10  6.93728E-10  6.93876E-10  6.88377E-10  6.83400E-10  6.80561E-10
   6.72722E-10  6.66214E-10  6.64265E-10  6.61756E-10  6.60311E-10  6.60883E-10  6.62440E-10  6.64517E-10  6.66874E-10  6.69374E-10
   6.71930E-10  6.74485E-10  6.76999E-10  6.79438E-10  6.81779E-10  6.84004E-10  6.86097E-10  6.88042E-10  6.89828E-10  6.91453E-10
   6.92936E-10  6.94299E-10  6.95565E-10  6.96760E-10  6.97907E-10  6.99030E-10  7.00155E-10  7.01307E-10  7.02509E-10  7.03787E-10
   7.05169E-10  7.06676E-10  7.08338E-10  7.10176E-10  7.12220E-10  7.14491E-10  7.17019E-10  7.19829E-10  7.22943E-10  7.26390E-10
   7.30196E-10  7.34384E-10  7.38984E-10  7.44018E-10  7.49520E-10  7.55502E-10  7.61997E-10  7.69028E-10  7.76599E-10  7.84721E-10
   7.93400E-10  8.02646E-10  8.12466E-10  8.22867E-10  8.33859E-10  8.45450E-10  8.57647E-10  8.70460E-10  8.83896E-10  8.97964E-10
   9.12672E-10  9.28031E-10  9.44047E-10  9.60731E-10  9.78089E-10  9.96136E-10  1.01488E-09  1.03432E-09  1.05448E-09  1.07537E-09
   1.09700E-09  1.11937E-09  1.14251E-09  1.16643E-09  1.19114E-09  1.21663E-09  1.24290E-09  1.26992E-09  1.29767E-09  1.32615E-09
   1.35537E-09  1.38533E-09  1.41608E-09  1.44770E-09  1.48032E-09  1.51420E-09  1.54978E-09  1.58802E-09  1.63119E-09  1.68664E-09
   1.76531E-09  1.84305E-09  1.93187E-09  2.05222E-09  2.17492E-09  2.27516E-09  2.34241E-09  2.38225E-09  2.39718E-09  2.38187E-09
   2.33359E-09  2.27260E-09  2.23880E-09  2.20010E-09  2.16701E-09  2.17196E-09  2.18882E-09  2.21023E-09  2.23362E-09  2.25783E-09
   2.28220E-09  2.30634E-09  2.32999E-09  2.35295E-09  2.37504E-09  2.39615E-09  2.41615E-09  2.43494E-09  2.45242E-09  2.46850E-09
   2.48309E-09  2.49611E-09  2.50748E-09  2.51710E-09  2.52491E-09  2.53083E-09  2.53477E-09  2.53666E-09  2.53642E-09  2.53398E-09
   2.52924E-09  2.52209E-09  2.51235E-09  2.49986E-09  2.48447E-09  2.46600E-09  2.44430E-09  2.41921E-09  2.39056E-09  2.35820E-09
   2.32196E-09  2.28168E-09  2.23721E-09  2.18839E-09  2.13505E-09  2.07704E-09  2.01421E-09  1.94640E-09  1.87347E-09  1.79527E-09
   1.71168E-09  1.62258E-09  1.52790E-09  1.42765E-09  1.32207E-09  1.21212E-09  1.10267E-09  1.00483E-09  9.04164E-10  8.02650E-10
   7.05119E-10  6.07002E-10  4.90431E-10  3.37034E-10  1.44604E-10 -7.37380E-11 -3.00647E-10 -5.27099E-10 -7.44121E-10 -9.30327E-10
  -1.10914E-09 -1.28525E-09 -1.45950E-09 -1.63186E-09 -1.80200E-09 -1.96954E-09 -2.13398E-09 -2.29484E-09 -2.45158E-09 -2.60369E-09
  -2.75065E-09 -2.89192E-09 -3.02695E-09 -3.15521E-09 -3.27617E-09 -3.38928E-09 -3.49415E-09 -3.59088E-09 -3.67968E-09 -3.76074E-09
  -3.83426E-09 -3.90042E-09 -3.95944E-09 -4.01151E-09 -4.05681E-09 -4.09555E-09 -4.12793E-09 -4.15414E-09 -4.17438E-09 -4.18883E-09
  -4.19771E-09 -4.20120E-09 -4.19950E-09 -4.19282E-09 -4.18133E-09 -4.16524E-09 -4.14474E-09 -4.12004E-09 -4.09132E-09 -4.05878E-09
  -4.02263E-09 -3.98304E-09 -3.94022E-09 -3.89437E-09 -3.84568E-09 -3.79436E-09 -3.74059E-09 -3.68458E-09 -3.62653E-09 -3.56664E-09
  -3.50510E-09 -3.44212E-09 -3.37789E-09 -3.31262E-09 -3.24649E-09 -3.17972E-09 -3.11250E-09 -3.04503E-09 -2.97749E-09 -2.91012E-09
  -2.84309E-09 -2.77660E-09 -2.71086E-09 -2.64607E-09 -2.58240E-09 -2.52009E-09 -2.45931E-09 -2.40026E-09 -2.34316E-09 -2.28820E-09
  -2.23556E-09 -2.18547E-09 -2.13798E-09 -2.09302E-09 -2.05050E-09 -2.01034E-09 -1.97244E-09 -1.93672E-09 -1.90307E-09 -1.87142E-09
  -1.84168E-09 -1.81374E-09 -1.78753E-09 -1.76295E-09 -1.73992E-09 -1.71835E-09 -1.69812E-09 -1.67919E-09 -1.66144E-09 -1.64479E-09
  -1.62913E-09 -1.61440E-09 -1.60049E-09 -1.58731E-09 -1.57479E-09 -1.56281E-09 -1.55130E-09 -1.54018E-09 -1.52934E-09 -1.51870E-09
  -1.50821E-09 -1.49785E-09 -1.48761E-09 -1.47748E-09 -1.46744E-09 -1.45748E-09 -1.44758E-09 -1.43773E-09 -1.42791E-09 -1.41812E-09
  -1.40833E-09 -1.39853E-09 -1.38871E-09 -1.37885E-09 -1.36895E-09 -1.35898E-09 -1.34892E-09 -1.33878E-09 -1.32853E-09 -1.31815E-09
  -1.30764E-09 -1.29698E-09 -1.28615E-09 -1.27515E-09 -1.26395E-09 -1.25255E-09 -1.24092E-09 -1.22906E-09 -1.21698E-09 -1.20470E-09
  -1.19224E-09 -1.17963E-09 -1.16690E-09 -1.15407E-09 -1.14116E-09 -1.12819E-09 -1.11519E-09 -1.10219E-09 -1.08922E-09 -1.07628E-09
  -1.06341E-09 -1.05063E-09 -1.03797E-09 -1.02545E-09 -1.01310E-09 -1.00093E-09 -9.88983E-10 -9.77267E-10 -9.65815E-10 -9.54652E-10
  -9.43795E-10 -9.33274E-10 -9.23111E-10 -9.13333E-10 -9.03964E-10 -8.95018E-10 -8.86494E-10 -8.78374E-10 -8.70637E-10 -8.63268E-10
  -8.56249E-10 -8.49560E-10 -8.43185E-10 -8.37107E-10 -8.31308E-10 -8.25767E-10 -8.20472E-10 -8.15401E-10 -8.10538E-10 -8.05864E-10
  -8.01361E-10 -7.97014E-10 -7.92802E-10 -7.88710E-10 -7.84718E-10 -7.80811E-10 -7.76969E-10 -7.73172E-10 -7.69407E-10 -7.65656E-10
  -7.61899E-10 -7.58120E-10 -7.54297E-10
 Asp      Conc. = 5.52E-10
   1.24944E-09  1.18157E-09  1.10065E-09  1.00777E-09  9.18194E-10  8.29525E-10  7.66155E-10  7.16400E-10  6.95363E-10  6.85735E-10
   6.81762E-10  6.80960E-10  6.82040E-10  6.84297E-10  6.87066E-10  6.90092E-10  6.93393E-10  6.96917E-10  7.00614E-10  7.04447E-10
   7.08393E-10  7.12436E-10  7.16577E-10  7.20818E-10  7.25177E-10  7.29682E-10  7.34374E-10  7.39311E-10  7.44576E-10  7.50294E-10
   7.56660E-10  7.63947E-10  7.72562E-10  7.83140E-10  7.96791E-10  8.15794E-10  8.45622E-10  8.80992E-10  9.27641E-10  9.75205E-10
   1.02138E-09  1.06194E-09  1.09367E-09  1.12438E-09  1.15022E-09  1.21386E-09  1.29536E-09  1.40734E-09  1.56965E-09  1.72072E-09
   1.80599E-09  1.79272E-09  1.70783E-09  1.58420E-09  1.45054E-09  1.34299E-09  1.23849E-09  1.18613E-09  1.12849E-09  1.06705E-09
   1.04634E-09  1.04985E-09  1.04719E-09  1.03990E-09  1.03133E-09  1.01366E-09  9.86513E-10  9.75207E-10  9.72774E-10  9.75450E-10
   9.81527E-10  9.90102E-10  1.00064E-09  1.01280E-09  1.02636E-09  1.04118E-09  1.05712E-09  1.07412E-09  1.09212E-09  1.11106E-09
   1.13093E-09  1.15169E-09  1.17332E-09  1.19583E-09  1.21917E-09  1.24335E-09  1.26830E-09  1.29399E-09  1.32037E-09  1.34739E-09
   1.37502E-09  1.40321E-09  1.43193E-09  1.46113E-09  1.49078E-09  1.52083E-09  1.55126E-09  1.58202E-09  1.61307E-09  1.64438E-09
   1.67591E-09  1.70762E-09  1.73948E-09  1.77145E-09  1.80349E-09  1.83557E-09  1.86766E-09  1.89971E-09  1.93169E-09  1.96356E-09
   1.99530E-09  2.02685E-09  2.05819E-09  2.08926E-09  2.11998E-09  2.15027E-09  2.18007E-09  2.20930E-09  2.23788E-09  2.26574E-09
   2.29280E-09  2.31898E-09  2.34423E-09  2.36845E-09  2.39157E-09  2.41353E-09  2.43424E-09  2.45363E-09  2.47163E-09  2.48817E-09
   2.50316E-09  2.51653E-09  2.52821E-09  2.53813E-09  2.54621E-09  2.55237E-09  2.55655E-09  2.55867E-09  2.55866E-09  2.55644E-09
   2.55192E-09  2.54499E-09  2.53548E-09  2.52323E-09  2.50808E-09  2.48987E-09  2.46845E-09  2.44366E-09  2.41534E-09  2.38333E-09
   2.34750E-09  2.30767E-09  2.26370E-09  2.21546E-09  2.16280E-09  2.10558E-09  2.04368E-09  1.97700E-09  1.90544E-09  1.82895E-09
   1.74753E-09  1.66129E-09  1.57051E-09  1.47584E-09  1.37890E-09  1.28411E-09  1.20887E-09  1.22502E-09  1.26208E-09  1.31687E-09
   1.41499E-09  1.54220E-09  1.61097E-09  1.51519E-09  1.22480E-09  7.96140E-10  3.21035E-10 -1.48169E-10 -5.79076E-10 -8.41645E-10
  -1.04715E-09 -1.23638E-09 -1.41827E-09 -1.59554E-09 -1.76906E-09 -1.93902E-09 -2.10526E-09 -2.26750E-09 -2.42532E-09 -2.57829E-09
  -2.72594E-09 -2.86778E-09 -3.00329E-09 -3.13194E-09 -3.25323E-09 -3.36663E-09 -3.47175E-09 -3.56869E-09 -3.65768E-09 -3.73890E-09
  -3.81255E-09 -3.87884E-09 -3.93797E-09 -3.99013E-09 -4.03553E-09 -4.07435E-09 -4.10680E-09 -4.13307E-09 -4.15337E-09 -4.16788E-09
  -4.17680E-09 -4.18034E-09 -4.17868E-09 -4.17202E-09 -4.16057E-09 -4.14451E-09 -4.12405E-09 -4.09937E-09 -4.07067E-09 -4.03816E-09
  -4.00202E-09 -3.96245E-09 -3.91966E-09 -3.87382E-09 -3.82515E-09 -3.77384E-09 -3.72009E-09 -3.66409E-09 -3.60605E-09 -3.54617E-09
