 LCModel (Version 6.3-1R) Copyright: S.W. Provencher.          Ref.: Magn. Reson. Med. 30:672-679 (1993).                
 onepulse 18x23_ftSpec_smooth_lcm
 26 lines in following concentration table = NCONC+1
    Conc.  %SD /Cr+PCr  Metabolite                                         
    0.000 999%   0.000 Ala                                                 
    0.000 999%   0.000 Asp                                                 
 9.02E-11 287%   1.000 Cr                                                  
 2.11E-09  27%  23.389 GABA                                                
 1.55E-09  22%  17.191 Glc                                                 
    0.000 999%   0.000 Gln                                                 
 4.56E-11 999%   0.505 Glu                                                 
    0.000 999%   0.000 Glyc                                                
 1.07E-10  52%   1.184 GPC                                                 
    0.000 999%   0.000 GSH                                                 
 4.21E-10  52%   4.668 Ins                                                 
    0.000 999%   0.000 Lac                                                 
    0.000 999%   0.000 NAAG                                                
 1.24E-09  14%  13.726 NAA                                                 
    0.000 999%   0.000 PCh                                                 
    0.000 999%   0.000 PCr                                                 
    0.000 999%   0.000 PE                                                  
    0.000 999%   0.000 Scyllo                                              
 1.80E-09  30%  19.902 Ser                                                 
    0.000 999%   0.000 Tau                                                 
 1.07E-10  52%   1.184 GPC+PCh                                             
 1.24E-09  14%  13.726 NAA+NAAG                                            
 4.21E-10  52%   4.668 Ins+Glyc                                            
 9.02E-11 287%   1.000 Cr+PCr                                              
 4.56E-11 999%   0.505 Glu+Gln                                             
   6 lines in following misc. output table
  FWHM = 0.067 ppm    S/N =   4                                            
  Data shift = 0.347 ppm                                                   
  Ph:  36 deg      14.1 deg/ppm                                            
  alphaB,S = 1.7E-01,   4.3E+01                                            
   16 spline knots.   Ns = 5(1)                                            
  ( 7) 2 infls.   ( 5) 1 extrs.                                            
  363 points on ppm-axis = NY
      4.250000     4.238821     4.227641     4.216462     4.205282     4.194103     4.182923     4.171744     4.160564     4.149385
      4.138206     4.127026     4.115847     4.104667     4.093488     4.082308     4.071129     4.059949     4.048770     4.037591
      4.026411     4.015232     4.004052     3.992873     3.981693     3.970514     3.959334     3.948155     3.936975     3.925796
      3.914617     3.903437     3.892258     3.881078     3.869899     3.858719     3.847540     3.836360     3.825181     3.814002
      3.802822     3.791643     3.780463     3.769284     3.758104     3.746925     3.735745     3.724566     3.713387     3.702207
      3.691028     3.679848     3.668669     3.657489     3.646310     3.635130     3.623951     3.612772     3.601592     3.590413
      3.579233     3.568054     3.556874     3.545695     3.534515     3.523336     3.512156     3.500977     3.489798     3.478618
      3.467439     3.456259     3.445080     3.433900     3.422721     3.411541     3.400362     3.389183     3.378003     3.366824
      3.355644     3.344465     3.333285     3.322106     3.310926     3.299747     3.288568     3.277388     3.266209     3.255029
      3.243850     3.232670     3.221491     3.210311     3.199132     3.187953     3.176773     3.165594     3.154414     3.143235
      3.132055     3.120876     3.109696     3.098517     3.087337     3.076158     3.064979     3.053799     3.042620     3.031440
      3.020261     3.009081     2.997902     2.986722     2.975543     2.964364     2.953184     2.942005     2.930825     2.919646
      2.908466     2.897287     2.886107     2.874928     2.863749     2.852569     2.841390     2.830210     2.819031     2.807851
      2.796672     2.785492     2.774313     2.763134     2.751954     2.740775     2.729595     2.718416     2.707236     2.696057
      2.684877     2.673698     2.662519     2.651339     2.640160     2.628980     2.617801     2.606621     2.595442     2.584262
      2.573083     2.561903     2.550724     2.539545     2.528365     2.517186     2.506006     2.494827     2.483647     2.472468
      2.461288     2.450109     2.438930     2.427750     2.416571     2.405391     2.394212     2.383032     2.371853     2.360673
      2.349494     2.338315     2.327135     2.315956     2.304776     2.293597     2.282417     2.271238     2.260058     2.248879
      2.237700     2.226520     2.215341     2.204161     2.192982     2.181802     2.170623     2.159443     2.148264     2.137084
      2.125905     2.114726     2.103546     2.092367     2.081187     2.070008     2.058828     2.047649     2.036469     2.025290
      2.014111     2.002931     1.991752     1.980572     1.969393     1.958213     1.947034     1.935854     1.924675     1.913496
      1.902316     1.891137     1.879957     1.868778     1.857598     1.846419     1.835239     1.824060     1.812881     1.801701
      1.790522     1.779342     1.768163     1.756983     1.745804     1.734624     1.723445     1.712265     1.701086     1.689907
      1.678727     1.667548     1.656368     1.645189     1.634009     1.622830     1.611650     1.600471     1.589292     1.578112
      1.566933     1.555753     1.544574     1.533394     1.522215     1.511035     1.499856     1.488677     1.477497     1.466318
      1.455138     1.443959     1.432779     1.421600     1.410420     1.399241     1.388062     1.376882     1.365703     1.354523
      1.343344     1.332164     1.320985     1.309805     1.298626     1.287446     1.276267     1.265088     1.253908     1.242729
      1.231549     1.220370     1.209190     1.198011     1.186831     1.175652     1.164473     1.153293     1.142114     1.130934
      1.119755     1.108575     1.097396     1.086216     1.075037     1.063858     1.052678     1.041499     1.030319     1.019140
      1.007960     0.996781     0.985601     0.974422     0.963243     0.952063     0.940884     0.929704     0.918525     0.907345
      0.896166     0.884986     0.873807     0.862628     0.851448     0.840269     0.829089     0.817910     0.806730     0.795551
      0.784371     0.773192     0.762012     0.750833     0.739654     0.728474     0.717295     0.706115     0.694936     0.683756
      0.672577     0.661397     0.650218     0.639039     0.627859     0.616680     0.605500     0.594321     0.583141     0.571962
      0.560782     0.549603     0.538424     0.527244     0.516065     0.504885     0.493706     0.482526     0.471347     0.460167
      0.448988     0.437809     0.426629     0.415450     0.404270     0.393091     0.381911     0.370732     0.359552     0.348373
      0.337193     0.326014     0.314835     0.303655     0.292476     0.281296     0.270117     0.258937     0.247758     0.236578
      0.225399     0.214220     0.203040
 NY phased data points follow
   1.60482E-08  1.68953E-08  1.71607E-08  1.43542E-08  1.34650E-08  1.12367E-08  1.01845E-08  1.03753E-08  9.88479E-09  1.00530E-08
   9.71927E-09  1.09153E-08  1.00561E-08  1.09513E-08  1.09351E-08  1.21088E-08  1.13806E-08  1.04571E-08  1.12270E-08  1.01274E-08
   9.14657E-09  9.61210E-09  9.05626E-09  9.28950E-09  8.63972E-09  9.37392E-09  9.78742E-09  9.57186E-09  8.86572E-09  7.95823E-09
   7.72465E-09  9.61835E-09  1.05001E-08  1.17110E-08  1.16106E-08  1.01610E-08  8.47873E-09  8.06402E-09  6.50989E-09  5.72243E-09
   5.88209E-09  5.95716E-09  5.10975E-09  5.40175E-09  5.08461E-09  5.61779E-09  4.56890E-09  4.36471E-09  3.71739E-09  4.25922E-09
   3.84249E-09  4.68452E-09  4.48438E-09  4.62404E-09  4.70160E-09  3.78443E-09  3.50662E-09  4.53881E-09  3.94147E-09  4.99826E-09
   5.09201E-09  5.59395E-09  7.02092E-09  9.07050E-09  1.02770E-08  1.13403E-08  9.57526E-09  8.22158E-09  7.04923E-09  5.14683E-09
   5.10020E-09  4.38056E-09  3.62166E-09  3.76617E-09  3.80722E-09  3.61964E-09  3.09886E-09  4.54404E-09  5.62518E-09  8.69225E-09
   1.24727E-08  1.44204E-08  1.32728E-08  1.21702E-08  1.01553E-08  8.32821E-09  7.13109E-09  7.08312E-09  6.38908E-09  5.95604E-09
   5.72018E-09  5.82191E-09  4.83760E-09  4.42141E-09  3.59592E-09  3.46042E-09  3.35467E-09  3.02094E-09  2.50120E-09  2.51705E-09
   2.11789E-09  3.14370E-09  2.45778E-09  3.36712E-09  2.39817E-09  2.59287E-09  2.78931E-09  2.25546E-09  2.27588E-09  1.27653E-09
   1.03473E-09  8.91239E-10  9.79980E-10  1.61713E-09  2.15342E-09  2.44647E-09  1.62085E-09  2.27188E-09  2.62439E-09  2.56811E-09
   2.27989E-09  2.87060E-09  2.34181E-09  1.83704E-09  1.32508E-09  7.96238E-10  8.83057E-10  9.53163E-10  1.19394E-09  1.55932E-09
   1.18731E-09  1.59851E-09  1.86820E-09  2.26498E-09  2.00016E-09  1.90781E-09  1.60187E-09  1.56032E-09  9.63036E-10  2.95576E-09
   2.41784E-09  4.18032E-09  4.26393E-09  3.44641E-09  2.95938E-09  3.45671E-09  3.44885E-09  4.01187E-09  4.08264E-09  3.92289E-09
   3.42719E-09  3.34600E-09  2.95681E-09  2.98302E-09  2.99018E-09  2.71118E-09  2.94793E-09  3.29084E-09  3.25614E-09  3.38457E-09
   3.23355E-09  3.65894E-09  3.61235E-09  3.79476E-09  3.77985E-09  4.36725E-09  4.64579E-09  5.17480E-09  5.80202E-09  8.05683E-09
   1.01630E-08  1.39333E-08  1.70446E-08  1.60545E-08  1.33873E-08  1.05322E-08  9.04784E-09  7.65982E-09  6.45745E-09  5.54848E-09
   4.97000E-09  4.12652E-09  4.15734E-09  2.60036E-09  2.65668E-09  1.30749E-09  3.47640E-10  6.71087E-10 -1.37425E-09 -1.84765E-09
  -2.59729E-09 -3.01787E-09 -4.74592E-09 -5.23293E-09 -6.90448E-09 -7.48694E-09 -7.85566E-09 -9.12743E-09 -9.93943E-09 -1.02901E-08
  -1.06870E-08 -1.09814E-08 -1.13006E-08 -1.06584E-08 -1.10541E-08 -9.67852E-09 -9.32759E-09 -8.49226E-09 -7.03452E-09 -6.56002E-09
  -5.90310E-09 -4.36310E-09 -3.51888E-09 -2.74222E-09 -1.48497E-09 -1.35366E-09 -1.03689E-09 -1.63620E-09 -6.91454E-10 -9.73557E-10
  -1.75865E-09 -1.34979E-09 -1.41785E-09 -1.64958E-09 -1.57906E-09 -8.23067E-10 -1.12419E-09 -8.83264E-10 -1.21340E-09 -6.31470E-10
  -1.37494E-09 -1.46283E-09 -7.89396E-10 -1.52525E-09 -1.56497E-09 -1.66549E-09 -1.09778E-09 -7.25593E-10 -5.18154E-10 -1.03678E-09
  -1.04253E-09 -6.52610E-10 -1.05518E-09 -9.12616E-10 -1.46449E-09 -9.46976E-10 -1.57711E-09 -1.04232E-09 -1.02276E-09 -1.14712E-09
  -5.89024E-10 -4.02334E-10 -8.38181E-10  8.89893E-11  1.96725E-10 -5.93914E-10 -2.23639E-10 -9.96747E-10 -9.24832E-10 -5.26749E-10
  -1.65051E-09 -1.35157E-09 -1.44467E-09 -1.49144E-09 -1.39139E-09 -1.63362E-09 -1.03002E-09 -7.57317E-10 -4.99856E-10 -6.57027E-10
  -1.96028E-10  1.88080E-10 -2.90847E-11  2.60937E-10  3.24546E-10 -1.70625E-10  3.14042E-10  1.89661E-10 -5.94451E-10  4.45678E-10
  -3.56526E-10 -4.24549E-10 -7.27915E-10 -5.01038E-10 -8.22611E-10 -9.98248E-10 -2.48461E-10 -1.15456E-09 -1.34777E-09 -1.00422E-09
  -7.25461E-10 -1.41919E-09 -1.25204E-09 -8.12023E-10 -5.68791E-10 -8.06156E-10 -9.76242E-10 -8.84508E-10 -7.72409E-10 -9.63569E-10
  -7.01294E-10 -1.53500E-09 -4.14177E-10 -8.99774E-10 -1.70839E-09 -1.97175E-10 -8.00810E-10 -4.57944E-10 -8.98702E-10 -7.11850E-10
  -4.35942E-10 -8.08259E-10 -5.03019E-10 -3.94797E-10  2.51742E-11 -7.33985E-10 -6.90300E-10 -4.61823E-10 -1.20408E-11 -3.84786E-10
  -8.89956E-10 -2.08129E-10 -7.17282E-11 -2.18302E-10 -3.78902E-10 -1.21832E-10 -8.73763E-10  8.01655E-11 -1.31289E-10 -6.90352E-11
  -5.59078E-10  1.02155E-10 -6.20277E-10  4.68106E-10 -5.72154E-11  3.53061E-10 -2.15785E-10 -9.56060E-11  9.33386E-11  3.90431E-10
  -2.91124E-10 -7.77960E-10  1.71311E-11 -1.06411E-10 -1.55736E-10  2.02718E-10  2.80950E-10 -3.35119E-10 -1.80493E-10 -2.66636E-10
   4.27531E-10  2.38574E-10  1.81830E-10 -2.67747E-10  1.62246E-11  7.56051E-11 -1.16829E-11  5.00562E-10  3.17650E-10  1.64193E-10
  -6.17218E-11  3.28366E-10  3.42169E-10
 NY points of the fit to the data follow
   1.72916E-08  1.61546E-08  1.48246E-08  1.37022E-08  1.28866E-08  1.19853E-08  1.09878E-08  1.03784E-08  1.01121E-08  9.94672E-09
   1.00457E-08  1.02235E-08  1.03996E-08  1.06353E-08  1.08353E-08  1.09468E-08  1.11298E-08  1.14022E-08  1.13781E-08  1.09534E-08
   1.03868E-08  9.70874E-09  9.05305E-09  8.73203E-09  8.57194E-09  8.50784E-09  8.70168E-09  9.07146E-09  9.35387E-09  9.42031E-09
   9.30399E-09  9.37481E-09  9.55546E-09  9.50582E-09  9.29850E-09  9.32691E-09  9.21734E-09  8.75967E-09  7.98107E-09  7.12966E-09
   6.52286E-09  5.87702E-09  4.92419E-09  4.46891E-09  4.45559E-09  4.29369E-09  4.19273E-09  4.21999E-09  4.26115E-09  4.27834E-09
   4.34780E-09  4.47588E-09  4.66269E-09  4.81819E-09  4.93196E-09  4.99154E-09  5.05100E-09  5.07721E-09  5.13109E-09  5.25247E-09
   5.53249E-09  5.93653E-09  6.34310E-09  6.78628E-09  7.51502E-09  8.03131E-09  8.24306E-09  8.33011E-09  8.19757E-09  7.77232E-09
   7.17649E-09  6.39179E-09  5.65028E-09  5.32636E-09  4.85356E-09  4.37989E-09  4.82524E-09  6.04252E-09  7.30156E-09  8.96801E-09
   1.07645E-08  1.20862E-08  1.24665E-08  1.17152E-08  1.03114E-08  9.13077E-09  8.19711E-09  6.85169E-09  5.14630E-09  4.75187E-09
   4.59524E-09  4.58066E-09  4.33906E-09  3.84908E-09  3.66058E-09  3.47294E-09  3.05682E-09  2.82800E-09  2.71162E-09  2.55981E-09
   2.45875E-09  2.40011E-09  2.36499E-09  2.34431E-09  2.33294E-09  2.32781E-09  2.32704E-09  2.32937E-09  2.33404E-09  2.34057E-09
   2.34829E-09  2.35702E-09  2.36654E-09  2.37662E-09  2.38710E-09  2.39784E-09  2.40854E-09  2.41905E-09  2.42927E-09  2.43905E-09
   2.44830E-09  2.45690E-09  2.46474E-09  2.47170E-09  2.47769E-09  2.48260E-09  2.48633E-09  2.48879E-09  2.48990E-09  2.48955E-09
   2.48764E-09  2.48410E-09  2.47882E-09  2.47172E-09  2.46270E-09  2.45167E-09  2.43856E-09  2.42327E-09  2.40572E-09  2.38580E-09
   2.36344E-09  2.33860E-09  2.31121E-09  2.28122E-09  2.24858E-09  2.21324E-09  2.17519E-09  2.13439E-09  2.09082E-09  2.04448E-09
   1.99538E-09  1.94354E-09  1.88906E-09  1.83203E-09  1.77262E-09  1.71108E-09  1.64781E-09  1.58334E-09  1.51856E-09  1.45477E-09
   1.39410E-09  1.34010E-09  1.29918E-09  1.28398E-09  1.32380E-09  1.50735E-09  2.22737E-09  3.86791E-09  6.33842E-09  9.35262E-09
   1.27124E-08  1.55833E-08  1.68890E-08  1.61992E-08  1.40708E-08  1.15166E-08  8.97035E-09  5.94873E-09  2.74601E-09  6.45988E-10
  -1.27469E-10 -5.61672E-10 -8.71279E-10 -1.11983E-09 -1.33287E-09 -1.52266E-09 -1.69572E-09 -1.85577E-09 -2.00503E-09 -2.14482E-09
  -2.27593E-09 -2.39881E-09 -2.51366E-09 -2.62053E-09 -2.71937E-09 -2.81005E-09 -2.89249E-09 -2.96697E-09 -3.03383E-09 -3.09337E-09
  -3.14586E-09 -3.19156E-09 -3.23074E-09 -3.26364E-09 -3.29049E-09 -3.31152E-09 -3.32695E-09 -3.33700E-09 -3.34188E-09 -3.34180E-09
  -3.33699E-09 -3.32762E-09 -3.31392E-09 -3.29609E-09 -3.27433E-09 -3.24883E-09 -3.21979E-09 -3.18742E-09 -3.15190E-09 -3.11343E-09
  -3.07221E-09 -3.02842E-09 -2.98227E-09 -2.93394E-09 -2.88361E-09 -2.83144E-09 -2.77759E-09 -2.72220E-09 -2.66543E-09 -2.60743E-09
  -2.54836E-09 -2.48835E-09 -2.42758E-09 -2.36617E-09 -2.30429E-09 -2.24208E-09 -2.17969E-09 -2.11727E-09 -2.05495E-09 -1.99291E-09
  -1.93128E-09 -1.87019E-09 -1.80981E-09 -1.75027E-09 -1.69171E-09 -1.63428E-09 -1.57812E-09 -1.52338E-09 -1.47019E-09 -1.41871E-09
  -1.36904E-09 -1.32137E-09 -1.27572E-09 -1.23205E-09 -1.19032E-09 -1.15047E-09 -1.11245E-09 -1.07622E-09 -1.04170E-09 -1.00886E-09
  -9.77650E-10 -9.47999E-10 -9.19872E-10 -8.93208E-10 -8.67964E-10 -8.44082E-10 -8.21501E-10 -8.00195E-10 -7.80101E-10 -7.61160E-10
  -7.43324E-10 -7.26554E-10 -7.10784E-10 -6.95970E-10 -6.82072E-10 -6.69017E-10 -6.56782E-10 -6.45299E-10 -6.34528E-10 -6.24411E-10
  -6.14911E-10 -6.05988E-10 -5.97603E-10 -5.89713E-10 -5.82289E-10 -5.75283E-10 -5.68665E-10 -5.62390E-10 -5.56423E-10 -5.50731E-10
  -5.45270E-10 -5.40005E-10 -5.34900E-10 -5.29917E-10 -5.25022E-10 -5.20175E-10 -5.15343E-10 -5.10487E-10 -5.05578E-10 -5.00568E-10
  -4.95436E-10 -4.90138E-10 -4.84640E-10 -4.78916E-10 -4.72921E-10 -4.66626E-10 -4.59998E-10 -4.53001E-10 -4.45637E-10 -4.37919E-10
  -4.29860E-10 -4.21476E-10 -4.12781E-10 -4.03785E-10 -3.94505E-10 -3.84955E-10 -3.75146E-10 -3.65095E-10 -3.54814E-10 -3.44314E-10
  -3.33614E-10 -3.22722E-10 -3.11652E-10 -3.00422E-10 -2.89038E-10 -2.77521E-10 -2.65878E-10 -2.54121E-10 -2.42267E-10 -2.30331E-10
  -2.18316E-10 -2.06242E-10 -1.94118E-10 -1.81961E-10 -1.69780E-10 -1.57584E-10 -1.45381E-10 -1.33176E-10 -1.20967E-10 -1.08759E-10
  -9.65555E-11 -8.43571E-11 -7.21677E-11 -5.99893E-11 -4.78277E-11 -3.56790E-11 -2.35534E-11 -1.14488E-11  6.30218E-13  1.26828E-11
   2.47068E-11  3.66966E-11  4.86527E-11  6.05709E-11  7.24498E-11  8.42850E-11  9.60761E-11  1.07822E-10  1.19517E-10  1.31159E-10
   1.42747E-10  1.54277E-10  1.65752E-10
 NY background values follow
     5.000E-09    4.960E-09    4.919E-09    4.879E-09    4.838E-09    4.797E-09    4.755E-09    4.714E-09    4.672E-09    4.630E-09
     4.588E-09    4.546E-09    4.504E-09    4.462E-09    4.419E-09    4.377E-09    4.334E-09    4.291E-09    4.248E-09    4.205E-09
     4.162E-09    4.119E-09    4.076E-09    4.033E-09    3.989E-09    3.946E-09    3.903E-09    3.859E-09    3.816E-09    3.773E-09
     3.730E-09    3.687E-09    3.643E-09    3.601E-09    3.558E-09    3.515E-09    3.473E-09    3.431E-09    3.389E-09    3.348E-09
     3.307E-09    3.266E-09    3.226E-09    3.186E-09    3.146E-09    3.107E-09    3.069E-09    3.031E-09    2.994E-09    2.958E-09
     2.922E-09    2.887E-09    2.852E-09    2.818E-09    2.786E-09    2.753E-09    2.722E-09    2.692E-09    2.662E-09    2.634E-09
     2.606E-09    2.579E-09    2.553E-09    2.528E-09    2.503E-09    2.479E-09    2.456E-09    2.434E-09    2.412E-09    2.392E-09
     2.372E-09    2.352E-09    2.333E-09    2.315E-09    2.298E-09    2.281E-09    2.265E-09    2.250E-09    2.235E-09    2.220E-09
     2.206E-09    2.193E-09    2.180E-09    2.168E-09    2.157E-09    2.145E-09    2.135E-09    2.124E-09    2.115E-09    2.105E-09
     2.096E-09    2.088E-09    2.080E-09    2.073E-09    2.066E-09    2.059E-09    2.053E-09    2.047E-09    2.041E-09    2.036E-09
     2.032E-09    2.027E-09    2.024E-09    2.020E-09    2.017E-09    2.014E-09    2.012E-09    2.010E-09    2.008E-09    2.006E-09
     2.005E-09    2.004E-09    2.004E-09    2.004E-09    2.003E-09    2.003E-09    2.003E-09    2.003E-09    2.002E-09    2.001E-09
     2.000E-09    1.998E-09    1.996E-09    1.993E-09    1.989E-09    1.984E-09    1.978E-09    1.971E-09    1.963E-09    1.954E-09
     1.943E-09    1.931E-09    1.917E-09    1.901E-09    1.884E-09    1.864E-09    1.843E-09    1.820E-09    1.794E-09    1.767E-09
     1.737E-09    1.704E-09    1.669E-09    1.632E-09    1.591E-09    1.548E-09    1.503E-09    1.454E-09    1.403E-09    1.348E-09
     1.290E-09    1.230E-09    1.166E-09    1.098E-09    1.028E-09    9.536E-10    8.760E-10    7.949E-10    7.101E-10    6.216E-10
     5.294E-10    4.333E-10    3.334E-10    2.294E-10    1.214E-10    9.264E-12   -1.070E-10   -2.276E-10   -3.524E-10   -4.811E-10
    -6.133E-10   -7.486E-10   -8.866E-10   -1.027E-09   -1.169E-09   -1.312E-09   -1.457E-09   -1.602E-09   -1.747E-09   -1.892E-09
    -2.036E-09   -2.179E-09   -2.321E-09   -2.461E-09   -2.598E-09   -2.732E-09   -2.864E-09   -2.991E-09   -3.115E-09   -3.234E-09
    -3.348E-09   -3.457E-09   -3.561E-09   -3.658E-09   -3.749E-09   -3.833E-09   -3.909E-09   -3.979E-09   -4.042E-09   -4.098E-09
    -4.147E-09   -4.190E-09   -4.227E-09   -4.258E-09   -4.283E-09   -4.303E-09   -4.317E-09   -4.327E-09   -4.331E-09   -4.330E-09
    -4.325E-09   -4.315E-09   -4.301E-09   -4.283E-09   -4.261E-09   -4.235E-09   -4.206E-09   -4.174E-09   -4.139E-09   -4.100E-09
    -4.059E-09   -4.016E-09   -3.970E-09   -3.922E-09   -3.872E-09   -3.820E-09   -3.766E-09   -3.711E-09   -3.654E-09   -3.597E-09
    -3.538E-09   -3.478E-09   -3.418E-09   -3.357E-09   -3.295E-09   -3.233E-09   -3.171E-09   -3.109E-09   -3.047E-09   -2.985E-09
    -2.923E-09   -2.863E-09   -2.802E-09   -2.743E-09   -2.685E-09   -2.627E-09   -2.571E-09   -2.517E-09   -2.464E-09   -2.412E-09
    -2.363E-09   -2.315E-09   -2.269E-09   -2.226E-09   -2.184E-09   -2.144E-09   -2.106E-09   -2.070E-09   -2.035E-09   -2.002E-09
    -1.971E-09   -1.941E-09   -1.913E-09   -1.886E-09   -1.861E-09   -1.837E-09   -1.814E-09   -1.792E-09   -1.772E-09   -1.753E-09
    -1.734E-09   -1.717E-09   -1.701E-09   -1.686E-09   -1.672E-09   -1.658E-09   -1.646E-09   -1.634E-09   -1.622E-09   -1.612E-09
    -1.602E-09   -1.592E-09   -1.584E-09   -1.575E-09   -1.567E-09   -1.559E-09   -1.552E-09   -1.545E-09   -1.539E-09   -1.532E-09
    -1.526E-09   -1.520E-09   -1.514E-09   -1.509E-09   -1.503E-09   -1.497E-09   -1.492E-09   -1.486E-09   -1.480E-09   -1.474E-09
    -1.468E-09   -1.462E-09   -1.456E-09   -1.449E-09   -1.442E-09   -1.435E-09   -1.427E-09   -1.419E-09   -1.411E-09   -1.402E-09
    -1.393E-09   -1.383E-09   -1.374E-09   -1.364E-09   -1.353E-09   -1.342E-09   -1.331E-09   -1.320E-09   -1.309E-09   -1.297E-09
    -1.285E-09   -1.273E-09   -1.261E-09   -1.248E-09   -1.235E-09   -1.222E-09   -1.209E-09   -1.196E-09   -1.183E-09   -1.170E-09
    -1.156E-09   -1.143E-09   -1.129E-09   -1.116E-09   -1.102E-09   -1.088E-09   -1.075E-09   -1.061E-09   -1.047E-09   -1.033E-09
    -1.020E-09   -1.006E-09   -9.920E-10   -9.782E-10   -9.644E-10   -9.506E-10   -9.368E-10   -9.230E-10   -9.093E-10   -8.955E-10
    -8.817E-10   -8.680E-10   -8.543E-10   -8.406E-10   -8.269E-10   -8.133E-10   -7.996E-10   -7.861E-10   -7.725E-10   -7.590E-10
    -7.455E-10   -7.321E-10   -7.187E-10
 Cr       Conc. = 9.02E-11
   5.16108E-09  5.05724E-09  4.94107E-09  4.84089E-09  4.80336E-09  4.77038E-09  4.73649E-09  4.70140E-09  4.66527E-09  4.62830E-09
   4.59068E-09  4.55255E-09  4.51402E-09  4.47516E-09  4.43606E-09  4.39679E-09  4.35740E-09  4.31799E-09  4.27860E-09  4.23930E-09
   4.20018E-09  4.16135E-09  4.12293E-09  4.08507E-09  4.04799E-09  4.01204E-09  3.97766E-09  3.94562E-09  3.91735E-09  3.89577E-09
   3.88871E-09  3.92423E-09  3.97686E-09  4.03612E-09  4.09874E-09  4.13056E-09  4.09044E-09  3.97197E-09  3.80726E-09  3.64551E-09
   3.50693E-09  3.36162E-09  3.19674E-09  3.11153E-09  3.07444E-09  3.04222E-09  3.01036E-09  2.97829E-09  2.94603E-09  2.91375E-09
   2.88159E-09  2.84966E-09  2.81810E-09  2.78698E-09  2.75644E-09  2.72644E-09  2.69711E-09  2.66850E-09  2.64062E-09  2.61346E-09
   2.58703E-09  2.56133E-09  2.53636E-09  2.51211E-09  2.48857E-09  2.46576E-09  2.44365E-09  2.42224E-09  2.40151E-09  2.38147E-09
   2.36208E-09  2.34337E-09  2.32529E-09  2.30785E-09  2.29103E-09  2.27483E-09  2.25922E-09  2.24420E-09  2.22974E-09  2.21586E-09
   2.20250E-09  2.18969E-09  2.17738E-09  2.16559E-09  2.15427E-09  2.14344E-09  2.13307E-09  2.12318E-09  2.11375E-09  2.10476E-09
   2.09624E-09  2.08815E-09  2.08050E-09  2.07327E-09  2.06648E-09  2.06009E-09  2.05412E-09  2.04855E-09  2.04337E-09  2.03860E-09
   2.03419E-09  2.03017E-09  2.02652E-09  2.02323E-09  2.02029E-09  2.01770E-09  2.01545E-09  2.01353E-09  2.01194E-09  2.01067E-09
   2.00972E-09  2.00906E-09  2.00869E-09  2.00856E-09  2.00857E-09  2.00862E-09  2.00864E-09  2.00850E-09  2.00813E-09  2.00742E-09
   2.00629E-09  2.00462E-09  2.00234E-09  1.99934E-09  1.99552E-09  1.99080E-09  1.98507E-09  1.97823E-09  1.97021E-09  1.96088E-09
   1.95016E-09  1.93795E-09  1.92416E-09  1.90868E-09  1.89142E-09  1.87229E-09  1.85118E-09  1.82801E-09  1.80267E-09  1.77506E-09
   1.74509E-09  1.71268E-09  1.67777E-09  1.64028E-09  1.60014E-09  1.55727E-09  1.51161E-09  1.46309E-09  1.41164E-09  1.35718E-09
   1.29965E-09  1.23897E-09  1.17508E-09  1.10792E-09  1.03740E-09  9.63476E-10  8.86075E-10  8.05132E-10  7.20596E-10  6.32408E-10
   5.40529E-10  4.44934E-10  3.45648E-10  2.42747E-10  1.36557E-10  2.81385E-11 -7.73271E-11 -1.70021E-10 -2.61145E-10 -3.48408E-10
  -4.34093E-10 -5.32729E-10 -6.58955E-10 -8.14132E-10 -9.86760E-10 -1.16048E-09 -1.33248E-09 -1.51596E-09 -1.70586E-09 -1.86343E-09
  -2.01281E-09 -2.15870E-09 -2.30202E-09 -2.44283E-09 -2.58094E-09 -2.71605E-09 -2.84782E-09 -2.97588E-09 -3.09982E-09 -3.21926E-09
  -3.33380E-09 -3.44304E-09 -3.54656E-09 -3.64396E-09 -3.73484E-09 -3.81878E-09 -3.89551E-09 -3.96514E-09 -4.02786E-09 -4.08386E-09
  -4.13334E-09 -4.17647E-09 -4.21346E-09 -4.24450E-09 -4.26977E-09 -4.28947E-09 -4.30378E-09 -4.31291E-09 -4.31703E-09 -4.31634E-09
  -4.31103E-09 -4.30129E-09 -4.28731E-09 -4.26928E-09 -4.24739E-09 -4.22184E-09 -4.19280E-09 -4.16048E-09 -4.12505E-09 -4.08671E-09
  -4.04565E-09 -4.00206E-09 -3.95611E-09 -3.90801E-09 -3.85793E-09 -3.80603E-09 -3.75244E-09 -3.69733E-09 -3.64084E-09 -3.58312E-09
  -3.52433E-09 -3.46461E-09 -3.40411E-09 -3.34298E-09 -3.28137E-09 -3.21942E-09 -3.15728E-09 -3.09511E-09 -3.03303E-09 -2.97121E-09
  -2.90979E-09 -2.84891E-09 -2.78871E-09 -2.72935E-09 -2.67095E-09 -2.61367E-09 -2.55764E-09 -2.50301E-09 -2.44992E-09 -2.39852E-09
  -2.34892E-09 -2.30129E-09 -2.25568E-09 -2.21202E-09 -2.17029E-09 -2.13043E-09 -2.09237E-09 -2.05607E-09 -2.02148E-09 -1.98855E-09
  -1.95722E-09 -1.92744E-09 -1.89917E-09 -1.87233E-09 -1.84690E-09 -1.82281E-09 -1.80001E-09 -1.77846E-09 -1.75810E-09 -1.73887E-09
  -1.72073E-09 -1.70364E-09 -1.68753E-09 -1.67236E-09 -1.65808E-09 -1.64462E-09 -1.63197E-09 -1.62005E-09 -1.60882E-09 -1.59823E-09
  -1.58823E-09 -1.57880E-09 -1.56988E-09 -1.56144E-09 -1.55344E-09 -1.54584E-09 -1.53861E-09 -1.53171E-09 -1.52510E-09 -1.51874E-09
  -1.51259E-09 -1.50662E-09 -1.50079E-09 -1.49507E-09 -1.48941E-09 -1.48379E-09 -1.47816E-09 -1.47249E-09 -1.46674E-09 -1.46088E-09
  -1.45488E-09 -1.44869E-09 -1.44229E-09 -1.43564E-09 -1.42870E-09 -1.42144E-09 -1.41383E-09 -1.40584E-09 -1.39746E-09 -1.38871E-09
  -1.37960E-09 -1.37015E-09 -1.36037E-09 -1.35027E-09 -1.33987E-09 -1.32918E-09 -1.31821E-09 -1.30699E-09 -1.29552E-09 -1.28381E-09
  -1.27189E-09 -1.25975E-09 -1.24742E-09 -1.23492E-09 -1.22224E-09 -1.20942E-09 -1.19645E-09 -1.18335E-09 -1.17014E-09 -1.15683E-09
  -1.14342E-09 -1.12994E-09 -1.11639E-09 -1.10280E-09 -1.08916E-09 -1.07549E-09 -1.06180E-09 -1.04809E-09 -1.03436E-09 -1.02061E-09
  -1.00686E-09 -9.93092E-10 -9.79319E-10 -9.65542E-10 -9.51766E-10 -9.37987E-10 -9.24216E-10 -9.10451E-10 -8.96695E-10 -8.82951E-10
  -8.69220E-10 -8.55509E-10 -8.41816E-10 -8.28146E-10 -8.14500E-10 -8.00883E-10 -7.87296E-10 -7.73739E-10 -7.60217E-10 -7.46735E-10
  -7.33292E-10 -7.19893E-10 -7.06534E-10
 GABA     Conc. = 2.11E-09
   5.75445E-09  5.72560E-09  5.69715E-09  5.66916E-09  5.64170E-09  5.61487E-09  5.58872E-09  5.56341E-09  5.53905E-09  5.51576E-09
   5.49374E-09  5.47321E-09  5.45438E-09  5.43754E-09  5.42302E-09  5.41111E-09  5.40237E-09  5.39740E-09  5.39679E-09  5.40163E-09
   5.41331E-09  5.43348E-09  5.46462E-09  5.51022E-09  5.57520E-09  5.66791E-09  5.80224E-09  6.00499E-09  6.33445E-09  6.71909E-09
   7.12354E-09  7.71382E-09  8.28645E-09  8.63116E-09  8.90542E-09  9.06986E-09  8.96636E-09  8.56565E-09  7.88500E-09  7.07945E-09
   6.47131E-09  5.81125E-09  4.83298E-09  4.25488E-09  4.04964E-09  3.70419E-09  3.45449E-09  3.38333E-09  3.36529E-09  3.36920E-09
   3.38468E-09  3.40783E-09  3.43823E-09  3.47658E-09  3.52429E-09  3.58418E-09  3.66061E-09  3.76025E-09  3.89462E-09  4.08394E-09
   4.37097E-09  4.81462E-09  5.25428E-09  5.77264E-09  6.47030E-09  6.94775E-09  7.17235E-09  7.30221E-09  7.21453E-09  6.84656E-09
   6.21892E-09  5.38511E-09  4.63243E-09  4.25928E-09  3.63351E-09  2.89070E-09  2.80144E-09  2.75795E-09  2.60982E-09  2.68366E-09
   2.80177E-09  2.96806E-09  3.31137E-09  3.64327E-09  3.91437E-09  4.28411E-09  4.63206E-09  4.87380E-09  5.04420E-09  5.02460E-09
   4.90135E-09  4.86125E-09  4.58180E-09  4.05288E-09  3.82676E-09  3.60406E-09  3.15570E-09  2.89701E-09  2.75297E-09  2.57549E-09
   2.45053E-09  2.36957E-09  2.31354E-09  2.27320E-09  2.24330E-09  2.22065E-09  2.20330E-09  2.18986E-09  2.17952E-09  2.17175E-09
   2.16579E-09  2.16144E-09  2.15842E-09  2.15646E-09  2.15536E-09  2.15495E-09  2.15492E-09  2.15508E-09  2.15530E-09  2.15541E-09
   2.15531E-09  2.15487E-09  2.15394E-09  2.15240E-09  2.15013E-09  2.14703E-09  2.14298E-09  2.13787E-09  2.13162E-09  2.12410E-09
   2.11521E-09  2.10487E-09  2.09295E-09  2.07936E-09  2.06402E-09  2.04681E-09  2.02764E-09  2.00642E-09  1.98305E-09  1.95743E-09
   1.92946E-09  1.89908E-09  1.86623E-09  1.83084E-09  1.79283E-09  1.75217E-09  1.70878E-09  1.66261E-09  1.61362E-09  1.56175E-09
   1.50698E-09  1.44927E-09  1.38861E-09  1.32500E-09  1.25848E-09  1.18909E-09  1.11697E-09  1.04229E-09  9.65385E-10  8.86762E-10
   8.07299E-10  7.28521E-10  6.53314E-10  5.87676E-10  5.46682E-10  5.81662E-10  9.42961E-10  1.52491E-09  2.25389E-09  3.14270E-09
   3.96911E-09  4.36546E-09  4.14627E-09  3.43298E-09  2.57035E-09  1.78393E-09  8.93829E-10 -2.90359E-10 -1.03551E-09 -1.36564E-09
  -1.59502E-09 -1.78636E-09 -1.95858E-09 -2.11914E-09 -2.27141E-09 -2.41705E-09 -2.55685E-09 -2.69116E-09 -2.82005E-09 -2.94347E-09
  -3.06123E-09 -3.17310E-09 -3.27879E-09 -3.37798E-09 -3.47035E-09 -3.55553E-09 -3.63330E-09 -3.70379E-09 -3.76723E-09 -3.82382E-09
  -3.87379E-09 -3.91733E-09 -3.95465E-09 -3.98595E-09 -4.01143E-09 -4.03128E-09 -4.04572E-09 -4.05492E-09 -4.05910E-09 -4.05843E-09
  -4.05313E-09 -4.04337E-09 -4.02936E-09 -4.01128E-09 -3.98934E-09 -3.96371E-09 -3.93459E-09 -3.90218E-09 -3.86666E-09 -3.82823E-09
  -3.78706E-09 -3.74336E-09 -3.69731E-09 -3.64910E-09 -3.59891E-09 -3.54690E-09 -3.49320E-09 -3.43798E-09 -3.38138E-09 -3.32356E-09
