 LCModel (Version 6.3-1R) Copyright: S.W. Provencher.          Ref.: Magn. Reson. Med. 30:672-679 (1993).                
 onepulse 18x28_ftSpec_smooth_lcm
 26 lines in following concentration table = NCONC+1
    Conc.  %SD /Cr+PCr  Metabolite                                         
    0.000 999%   0.000 Ala                                                 
 4.55E-10 298%   0.679 Asp                                                 
    0.000 999%   0.000 Cr                                                  
    0.000 999%   0.000 GABA                                                
    0.000 999%   0.000 Glc                                                 
 9.39E-11 999%   0.140 Gln                                                 
    0.000 999%   0.000 Glu                                                 
    0.000 999%   0.000 Glyc                                                
    0.000 999%   0.000 GPC                                                 
 1.62E-09  37%   2.419 GSH                                                 
 2.79E-09  15%   4.164 Ins                                                 
    0.000 999%   0.000 Lac                                                 
 2.40E-10 195%   0.358 NAAG                                                
 4.23E-10 144%   0.630 NAA                                                 
    0.000 999%   0.000 PCh                                                 
 6.71E-10  72%   1.000 PCr                                                 
 3.12E-09  29%   4.647 PE                                                  
 4.23E-10  51%   0.630 Scyllo                                              
 2.76E-09  95%   4.108 Ser                                                 
    0.000 999%   0.000 Tau                                                 
    0.000 999%   0.000 GPC+PCh                                             
 6.63E-10  58%   0.988 NAA+NAAG                                            
 2.79E-09  15%   4.164 Ins+Glyc                                            
 6.71E-10  72%   1.000 Cr+PCr                                              
 9.39E-11 999%   0.140 Glu+Gln                                             
   6 lines in following misc. output table
  FWHM = 0.101 ppm    S/N =   3                                            
  Data shift = 0.458 ppm                                                   
  Ph: 107 deg       5.6 deg/ppm                                            
  alphaB,S = 1.7E+00,   5.0E+01                                            
    9 spline knots.   Ns = 5(1)                                            
  (11) 6 infls.   (11) 5 extrs.                                            
  363 points on ppm-axis = NY
      4.250000     4.238821     4.227641     4.216462     4.205282     4.194103     4.182923     4.171744     4.160564     4.149385
      4.138206     4.127026     4.115847     4.104667     4.093488     4.082308     4.071129     4.059949     4.048770     4.037591
      4.026411     4.015232     4.004052     3.992873     3.981693     3.970514     3.959334     3.948155     3.936975     3.925796
      3.914617     3.903437     3.892258     3.881078     3.869899     3.858719     3.847540     3.836360     3.825181     3.814002
      3.802822     3.791643     3.780463     3.769284     3.758104     3.746925     3.735745     3.724566     3.713387     3.702207
      3.691028     3.679848     3.668669     3.657489     3.646310     3.635130     3.623951     3.612772     3.601592     3.590413
      3.579233     3.568054     3.556874     3.545695     3.534515     3.523336     3.512156     3.500977     3.489798     3.478618
      3.467439     3.456259     3.445080     3.433900     3.422721     3.411541     3.400362     3.389183     3.378003     3.366824
      3.355644     3.344465     3.333285     3.322106     3.310926     3.299747     3.288568     3.277388     3.266209     3.255029
      3.243850     3.232670     3.221491     3.210311     3.199132     3.187953     3.176773     3.165594     3.154414     3.143235
      3.132055     3.120876     3.109696     3.098517     3.087337     3.076158     3.064979     3.053799     3.042620     3.031440
      3.020261     3.009081     2.997902     2.986722     2.975543     2.964364     2.953184     2.942005     2.930825     2.919646
      2.908466     2.897287     2.886107     2.874928     2.863749     2.852569     2.841390     2.830210     2.819031     2.807851
      2.796672     2.785492     2.774313     2.763134     2.751954     2.740775     2.729595     2.718416     2.707236     2.696057
      2.684877     2.673698     2.662519     2.651339     2.640160     2.628980     2.617801     2.606621     2.595442     2.584262
      2.573083     2.561903     2.550724     2.539545     2.528365     2.517186     2.506006     2.494827     2.483647     2.472468
      2.461288     2.450109     2.438930     2.427750     2.416571     2.405391     2.394212     2.383032     2.371853     2.360673
      2.349494     2.338315     2.327135     2.315956     2.304776     2.293597     2.282417     2.271238     2.260058     2.248879
      2.237700     2.226520     2.215341     2.204161     2.192982     2.181802     2.170623     2.159443     2.148264     2.137084
      2.125905     2.114726     2.103546     2.092367     2.081187     2.070008     2.058828     2.047649     2.036469     2.025290
      2.014111     2.002931     1.991752     1.980572     1.969393     1.958213     1.947034     1.935854     1.924675     1.913496
      1.902316     1.891137     1.879957     1.868778     1.857598     1.846419     1.835239     1.824060     1.812881     1.801701
      1.790522     1.779342     1.768163     1.756983     1.745804     1.734624     1.723445     1.712265     1.701086     1.689907
      1.678727     1.667548     1.656368     1.645189     1.634009     1.622830     1.611650     1.600471     1.589292     1.578112
      1.566933     1.555753     1.544574     1.533394     1.522215     1.511035     1.499856     1.488677     1.477497     1.466318
      1.455138     1.443959     1.432779     1.421600     1.410420     1.399241     1.388062     1.376882     1.365703     1.354523
      1.343344     1.332164     1.320985     1.309805     1.298626     1.287446     1.276267     1.265088     1.253908     1.242729
      1.231549     1.220370     1.209190     1.198011     1.186831     1.175652     1.164473     1.153293     1.142114     1.130934
      1.119755     1.108575     1.097396     1.086216     1.075037     1.063858     1.052678     1.041499     1.030319     1.019140
      1.007960     0.996781     0.985601     0.974422     0.963243     0.952063     0.940884     0.929704     0.918525     0.907345
      0.896166     0.884986     0.873807     0.862628     0.851448     0.840269     0.829089     0.817910     0.806730     0.795551
      0.784371     0.773192     0.762012     0.750833     0.739654     0.728474     0.717295     0.706115     0.694936     0.683756
      0.672577     0.661397     0.650218     0.639039     0.627859     0.616680     0.605500     0.594321     0.583141     0.571962
      0.560782     0.549603     0.538424     0.527244     0.516065     0.504885     0.493706     0.482526     0.471347     0.460167
      0.448988     0.437809     0.426629     0.415450     0.404270     0.393091     0.381911     0.370732     0.359552     0.348373
      0.337193     0.326014     0.314835     0.303655     0.292476     0.281296     0.270117     0.258937     0.247758     0.236578
      0.225399     0.214220     0.203040
 NY phased data points follow
   1.35113E-08  1.43471E-08  1.41692E-08  1.50672E-08  1.47527E-08  1.57886E-08  1.57421E-08  1.52613E-08  1.51691E-08  1.53621E-08
   1.50838E-08  1.45985E-08  1.34952E-08  1.37110E-08  1.32318E-08  1.44635E-08  1.46876E-08  1.48701E-08  1.37221E-08  1.32305E-08
   1.23599E-08  1.37806E-08  1.46954E-08  1.69457E-08  1.69833E-08  1.69935E-08  1.59266E-08  1.45777E-08  1.38792E-08  1.38840E-08
   1.28404E-08  1.30367E-08  1.27470E-08  1.26527E-08  1.24904E-08  1.22423E-08  1.18623E-08  1.10963E-08  1.05805E-08  1.01819E-08
   9.97133E-09  1.01514E-08  1.02337E-08  1.06761E-08  9.84521E-09  9.56396E-09  8.69932E-09  8.88079E-09  8.49714E-09  8.84118E-09
   8.41798E-09  7.68940E-09  8.17523E-09  9.83223E-09  1.20390E-08  1.40920E-08  1.32207E-08  1.33081E-08  1.24697E-08  1.17587E-08
   1.09767E-08  1.05410E-08  9.69689E-09  9.04024E-09  8.50369E-09  8.03937E-09  7.11771E-09  6.04458E-09  5.05106E-09  7.17457E-09
   1.10292E-08  1.55975E-08  1.74177E-08  1.72581E-08  1.60542E-08  1.60438E-08  1.55378E-08  1.55044E-08  1.45997E-08  1.44152E-08
   1.47715E-08  1.48114E-08  1.40728E-08  1.37535E-08  1.31949E-08  1.35727E-08  1.26346E-08  1.26293E-08  1.19392E-08  1.15067E-08
   1.12974E-08  1.09802E-08  1.09405E-08  1.13260E-08  1.07974E-08  1.10115E-08  1.08523E-08  1.09763E-08  1.13060E-08  9.95830E-09
   9.46717E-09  8.91910E-09  7.83829E-09  8.05999E-09  8.18460E-09  8.35011E-09  8.16383E-09  7.92591E-09  8.19934E-09  7.90698E-09
   8.17310E-09  8.70126E-09  9.17936E-09  8.76759E-09  8.42236E-09  7.75826E-09  6.77606E-09  6.52477E-09  6.39831E-09  6.21380E-09
   6.36139E-09  5.98464E-09  5.81808E-09  5.84961E-09  5.92854E-09  5.71861E-09  5.68609E-09  5.15617E-09  4.12469E-09  4.61477E-09
   5.18249E-09  6.03177E-09  6.63210E-09  7.03972E-09  7.01843E-09  6.87522E-09  7.46956E-09  7.84764E-09  8.94862E-09  9.10057E-09
   9.18271E-09  9.30994E-09  9.69806E-09  9.22224E-09  8.70650E-09  8.92629E-09  9.31090E-09  8.90052E-09  9.26483E-09  9.16657E-09
   8.80275E-09  8.48194E-09  8.99233E-09  9.16770E-09  8.71206E-09  8.78806E-09  8.34808E-09  8.18903E-09  7.20041E-09  6.27574E-09
   5.62060E-09  8.07025E-09  1.40745E-08  1.86488E-08  2.15035E-08  2.17962E-08  2.21642E-08  2.27703E-08  2.29836E-08  2.27859E-08
   2.32149E-08  2.36299E-08  2.38427E-08  2.39598E-08  2.41334E-08  2.43457E-08  2.48081E-08  2.41480E-08  2.37492E-08  2.33455E-08
   2.20063E-08  2.17934E-08  2.01054E-08  1.80680E-08  1.62077E-08  1.37441E-08  1.08050E-08  7.95642E-09  5.02164E-09  1.63628E-09
  -9.67620E-10 -4.15763E-09 -6.61860E-09 -8.87652E-09 -1.07799E-08 -1.19192E-08 -1.26963E-08 -1.28211E-08 -1.25874E-08 -1.11291E-08
  -1.04792E-08 -8.46589E-09 -6.90313E-09 -5.56540E-09 -4.25706E-09 -2.88674E-09 -1.71883E-09 -1.63459E-09 -1.38879E-09 -1.58195E-09
  -2.01672E-09 -1.84079E-09 -1.98525E-09 -2.31516E-09 -2.03524E-09 -1.25692E-09 -9.46128E-10 -7.16313E-10 -6.94481E-10 -6.94210E-10
  -8.83346E-10 -8.65465E-10 -9.80839E-10 -1.48288E-09 -1.55802E-09 -1.21339E-09 -1.64878E-09 -7.27892E-10 -5.77572E-10 -3.13842E-10
  -3.07590E-10 -1.08200E-09 -8.82903E-10 -1.39074E-09 -9.65414E-10 -1.16091E-09 -1.16505E-09 -1.47766E-09 -1.40213E-09 -1.45196E-09
  -9.25088E-10 -1.06822E-09 -1.18761E-09 -9.23482E-10 -6.62125E-10 -4.84570E-10 -6.76656E-10 -2.63732E-10 -2.19380E-12 -1.71426E-10
  -3.16123E-10 -5.47076E-10 -2.97398E-10 -8.54257E-10 -9.33428E-10 -1.12574E-09 -1.55458E-09 -1.95902E-09 -2.35274E-09 -2.44339E-09
  -2.24410E-09 -2.21146E-09 -1.67712E-09 -1.61367E-09 -1.52920E-09 -1.73130E-09 -8.83577E-10 -7.77149E-10 -6.32583E-10 -7.04657E-10
  -1.33702E-10  3.27875E-11  8.09734E-11 -2.07569E-10 -3.88295E-11  2.39206E-10 -3.89027E-10  8.19280E-11 -1.75807E-10 -2.32932E-10
  -1.82551E-10 -6.03040E-10 -6.62402E-10 -7.74666E-10 -5.42324E-10 -3.94976E-10 -6.67449E-10 -7.38303E-10 -5.28404E-10 -1.27229E-09
  -1.34612E-09 -7.31880E-10 -1.11577E-09 -9.94503E-10 -1.34454E-09 -1.11662E-09 -1.05022E-09 -1.39072E-09 -9.57112E-10 -1.69951E-09
  -1.36723E-09 -1.59658E-09 -1.52015E-09 -1.98509E-09 -1.88486E-09 -1.59865E-09 -2.25880E-09 -1.86363E-09 -1.97859E-09 -1.84182E-09
  -2.29938E-09 -2.36512E-09 -1.76973E-09 -2.30360E-09 -2.30421E-09 -1.79780E-09 -1.89452E-09 -2.31169E-09 -2.57291E-09 -2.32762E-09
  -1.92629E-09 -2.25932E-09 -2.03367E-09 -2.81055E-09 -1.97163E-09 -2.52027E-09 -1.61987E-09 -2.41492E-09 -2.09633E-09 -2.46122E-09
  -2.41031E-09 -2.21587E-09 -2.54339E-09 -2.42604E-09 -2.30860E-09 -2.60621E-09 -2.43453E-09 -2.54358E-09 -2.55118E-09 -2.04072E-09
  -2.48554E-09 -2.68396E-09 -2.60802E-09 -2.34683E-09 -2.64997E-09 -2.56128E-09 -2.59356E-09 -2.72510E-09 -2.21596E-09 -2.56362E-09
  -2.55088E-09 -3.07790E-09 -2.42768E-09 -2.50330E-09 -2.43399E-09 -2.58347E-09 -2.56642E-09 -2.75320E-09 -2.13534E-09 -2.77614E-09
  -2.23615E-09 -2.37953E-09 -2.44155E-09
 NY points of the fit to the data follow
   1.70698E-08  1.50051E-08  1.42143E-08  1.42547E-08  1.46923E-08  1.49011E-08  1.47080E-08  1.45949E-08  1.47678E-08  1.48240E-08
   1.51540E-08  1.51153E-08  1.49508E-08  1.48099E-08  1.42556E-08  1.36995E-08  1.36239E-08  1.37650E-08  1.29411E-08  1.22411E-08
   1.29931E-08  1.46039E-08  1.57584E-08  1.66045E-08  1.70904E-08  1.72227E-08  1.64130E-08  1.49146E-08  1.35529E-08  1.31593E-08
   1.28250E-08  1.26379E-08  1.22550E-08  1.20444E-08  1.17556E-08  1.13604E-08  1.13505E-08  1.18026E-08  1.19201E-08  1.15634E-08
   1.07404E-08  9.61845E-09  8.71433E-09  8.51692E-09  8.32153E-09  8.15808E-09  8.19026E-09  8.17772E-09  8.71335E-09  9.44153E-09
   1.02191E-08  1.08184E-08  1.11093E-08  1.14233E-08  1.17528E-08  1.18564E-08  1.20039E-08  1.20323E-08  1.18190E-08  1.14123E-08
   1.10049E-08  1.06431E-08  1.04755E-08  1.03078E-08  1.00862E-08  1.01552E-08  1.03753E-08  1.05281E-08  1.08273E-08  1.13613E-08
   1.19561E-08  1.23699E-08  1.28838E-08  1.33772E-08  1.37538E-08  1.43120E-08  1.49594E-08  1.56672E-08  1.58446E-08  1.54524E-08
   1.47328E-08  1.41017E-08  1.35656E-08  1.29314E-08  1.23577E-08  1.15395E-08  1.03911E-08  9.40451E-09  8.80919E-09  8.83021E-09
   8.92093E-09  9.00890E-09  9.08144E-09  9.14480E-09  9.19493E-09  9.23801E-09  9.27352E-09  9.30045E-09  9.31999E-09  9.33438E-09
   9.35179E-09  9.36427E-09  9.36825E-09  9.36888E-09  9.36750E-09  9.36336E-09  9.35600E-09  9.34548E-09  9.33176E-09  9.31501E-09
   9.29541E-09  9.27297E-09  9.24787E-09  9.22012E-09  9.18988E-09  9.15718E-09  9.12214E-09  9.08479E-09  9.04522E-09  9.00357E-09
   8.95967E-09  8.91378E-09  8.86590E-09  8.81611E-09  8.76444E-09  8.71095E-09  8.65568E-09  8.59869E-09  8.54003E-09  8.47975E-09
   8.41789E-09  8.35450E-09  8.28960E-09  8.22327E-09  8.15552E-09  8.08643E-09  8.01599E-09  7.94428E-09  7.87136E-09  7.79723E-09
   7.72197E-09  7.64561E-09  7.56819E-09  7.48984E-09  7.41051E-09  7.33030E-09  7.24932E-09  7.16766E-09  7.08537E-09  7.00263E-09
   6.91960E-09  6.83639E-09  6.75332E-09  6.67073E-09  6.58899E-09  6.50871E-09  6.43080E-09  6.35646E-09  6.28751E-09  6.22695E-09
   6.17943E-09  6.15335E-09  6.16428E-09  6.24503E-09  6.47606E-09  7.11245E-09  9.38280E-09  1.60561E-08  2.21055E-08  2.52744E-08
   2.61237E-08  2.60709E-08  2.62266E-08  2.69644E-08  2.77637E-08  2.72465E-08  2.37817E-08  1.69641E-08  9.69950E-09  7.23196E-09
   6.21309E-09  5.63003E-09  5.23299E-09  4.93262E-09  4.68898E-09  4.48150E-09  4.29849E-09  4.13282E-09  3.97991E-09  3.83665E-09
   3.70090E-09  3.57112E-09  3.44617E-09  3.32523E-09  3.20764E-09  3.09288E-09  2.98061E-09  2.87050E-09  2.76230E-09  2.65583E-09
   2.55092E-09  2.44743E-09  2.34528E-09  2.24437E-09  2.14464E-09  2.04602E-09  1.94847E-09  1.85197E-09  1.75647E-09  1.66193E-09
   1.56836E-09  1.47575E-09  1.38407E-09  1.29332E-09  1.20348E-09  1.11455E-09  1.02657E-09  9.39493E-10  8.53325E-10  7.68092E-10
   6.83797E-10  6.00437E-10  5.18014E-10  4.36530E-10  3.55988E-10  2.76438E-10  1.97836E-10  1.20207E-10  4.35842E-11 -3.20466E-11
  -1.06675E-10 -1.80287E-10 -2.52871E-10 -3.24430E-10 -3.94943E-10 -4.64399E-10 -5.32800E-10 -6.00133E-10 -6.66388E-10 -7.31543E-10
  -7.95613E-10 -8.58573E-10 -9.20418E-10 -9.81149E-10 -1.04077E-09 -1.09929E-09 -1.15672E-09 -1.21305E-09 -1.26829E-09 -1.32246E-09
  -1.37554E-09 -1.42756E-09 -1.47852E-09 -1.52841E-09 -1.57724E-09 -1.62503E-09 -1.67177E-09 -1.71747E-09 -1.76214E-09 -1.80577E-09
  -1.84838E-09 -1.88996E-09 -1.93053E-09 -1.97009E-09 -2.00864E-09 -2.04618E-09 -2.08272E-09 -2.11826E-09 -2.15282E-09 -2.18638E-09
  -2.21897E-09 -2.25057E-09 -2.28119E-09 -2.31084E-09 -2.33952E-09 -2.36723E-09 -2.39399E-09 -2.41977E-09 -2.44461E-09 -2.46848E-09
  -2.49141E-09 -2.51339E-09 -2.53441E-09 -2.55450E-09 -2.57364E-09 -2.59184E-09 -2.60910E-09 -2.62542E-09 -2.64082E-09 -2.65528E-09
  -2.66880E-09 -2.68139E-09 -2.69305E-09 -2.70379E-09 -2.71359E-09 -2.72248E-09 -2.73043E-09 -2.73745E-09 -2.74354E-09 -2.74870E-09
  -2.75294E-09 -2.75626E-09 -2.75864E-09 -2.76008E-09 -2.76059E-09 -2.76014E-09 -2.75873E-09 -2.75636E-09 -2.75301E-09 -2.74867E-09
  -2.74334E-09 -2.73701E-09 -2.72967E-09 -2.72132E-09 -2.71195E-09 -2.70154E-09 -2.69009E-09 -2.67761E-09 -2.66406E-09 -2.64947E-09
  -2.63381E-09 -2.61707E-09 -2.59926E-09 -2.58037E-09 -2.56040E-09 -2.53932E-09 -2.51715E-09 -2.49387E-09 -2.46949E-09 -2.44399E-09
  -2.41737E-09 -2.38963E-09 -2.36077E-09 -2.33077E-09 -2.29964E-09 -2.26737E-09 -2.23395E-09 -2.19939E-09 -2.16369E-09 -2.12683E-09
  -2.08882E-09 -2.04965E-09 -2.00932E-09 -1.96783E-09 -1.92518E-09 -1.88136E-09 -1.83638E-09 -1.79023E-09 -1.74291E-09 -1.69443E-09
  -1.64477E-09 -1.59394E-09 -1.54194E-09 -1.48877E-09 -1.43443E-09 -1.37892E-09 -1.32224E-09 -1.26438E-09 -1.20536E-09 -1.14518E-09
  -1.08382E-09 -1.02130E-09 -9.57620E-10
 NY background values follow
     8.900E-09    8.999E-09    9.097E-09    9.192E-09    9.286E-09    9.378E-09    9.468E-09    9.556E-09    9.642E-09    9.727E-09
     9.809E-09    9.890E-09    9.969E-09    1.005E-08    1.012E-08    1.019E-08    1.027E-08    1.033E-08    1.040E-08    1.047E-08
     1.053E-08    1.059E-08    1.065E-08    1.071E-08    1.077E-08    1.082E-08    1.088E-08    1.093E-08    1.098E-08    1.102E-08
     1.107E-08    1.111E-08    1.116E-08    1.120E-08    1.123E-08    1.127E-08    1.131E-08    1.134E-08    1.137E-08    1.140E-08
     1.143E-08    1.145E-08    1.148E-08    1.150E-08    1.152E-08    1.154E-08    1.156E-08    1.157E-08    1.158E-08    1.160E-08
     1.161E-08    1.162E-08    1.162E-08    1.163E-08    1.163E-08    1.163E-08    1.163E-08    1.163E-08    1.163E-08    1.162E-08
     1.162E-08    1.161E-08    1.160E-08    1.159E-08    1.158E-08    1.156E-08    1.155E-08    1.153E-08    1.151E-08    1.149E-08
     1.147E-08    1.145E-08    1.142E-08    1.139E-08    1.137E-08    1.134E-08    1.130E-08    1.127E-08    1.124E-08    1.120E-08
     1.117E-08    1.113E-08    1.109E-08    1.105E-08    1.100E-08    1.096E-08    1.091E-08    1.087E-08    1.082E-08    1.077E-08
     1.072E-08    1.067E-08    1.061E-08    1.056E-08    1.050E-08    1.044E-08    1.039E-08    1.033E-08    1.026E-08    1.020E-08
     1.014E-08    1.007E-08    1.001E-08    9.940E-09    9.872E-09    9.802E-09    9.731E-09    9.659E-09    9.586E-09    9.511E-09
     9.436E-09    9.359E-09    9.282E-09    9.203E-09    9.123E-09    9.042E-09    8.961E-09    8.878E-09    8.794E-09    8.709E-09
     8.623E-09    8.536E-09    8.448E-09    8.359E-09    8.270E-09    8.179E-09    8.088E-09    7.995E-09    7.902E-09    7.808E-09
     7.713E-09    7.617E-09    7.521E-09    7.424E-09    7.326E-09    7.227E-09    7.128E-09    7.028E-09    6.927E-09    6.826E-09
     6.724E-09    6.622E-09    6.519E-09    6.415E-09    6.311E-09    6.207E-09    6.102E-09    5.996E-09    5.890E-09    5.784E-09
     5.677E-09    5.570E-09    5.462E-09    5.354E-09    5.246E-09    5.137E-09    5.029E-09    4.919E-09    4.810E-09    4.701E-09
     4.591E-09    4.481E-09    4.371E-09    4.261E-09    4.151E-09    4.040E-09    3.930E-09    3.819E-09    3.709E-09    3.598E-09
     3.488E-09    3.377E-09    3.267E-09    3.157E-09    3.046E-09    2.936E-09    2.826E-09    2.716E-09    2.607E-09    2.497E-09
     2.388E-09    2.279E-09    2.170E-09    2.062E-09    1.953E-09    1.846E-09    1.738E-09    1.631E-09    1.524E-09    1.418E-09
     1.312E-09    1.206E-09    1.101E-09    9.965E-10    8.924E-10    7.889E-10    6.858E-10    5.834E-10    4.815E-10    3.802E-10
     2.796E-10    1.795E-10    8.017E-11   -1.853E-11   -1.165E-10   -2.138E-10   -3.104E-10   -4.062E-10   -5.013E-10   -5.956E-10
    -6.891E-10   -7.817E-10   -8.736E-10   -9.646E-10   -1.055E-09   -1.144E-09   -1.232E-09   -1.320E-09   -1.406E-09   -1.492E-09
    -1.576E-09   -1.660E-09   -1.743E-09   -1.824E-09   -1.905E-09   -1.985E-09   -2.063E-09   -2.141E-09   -2.217E-09   -2.292E-09
    -2.367E-09   -2.440E-09   -2.512E-09   -2.583E-09   -2.652E-09   -2.721E-09   -2.788E-09   -2.854E-09   -2.920E-09   -2.983E-09
    -3.046E-09   -3.107E-09   -3.168E-09   -3.226E-09   -3.284E-09   -3.341E-09   -3.396E-09   -3.450E-09   -3.503E-09   -3.555E-09
    -3.605E-09   -3.654E-09   -3.702E-09   -3.749E-09   -3.795E-09   -3.840E-09   -3.883E-09   -3.925E-09   -3.966E-09   -4.006E-09
    -4.045E-09   -4.083E-09   -4.119E-09   -4.155E-09   -4.189E-09   -4.222E-09   -4.254E-09   -4.285E-09   -4.315E-09   -4.344E-09
    -4.371E-09   -4.398E-09   -4.423E-09   -4.448E-09   -4.471E-09   -4.493E-09   -4.514E-09   -4.534E-09   -4.553E-09   -4.571E-09
    -4.588E-09   -4.604E-09   -4.619E-09   -4.633E-09   -4.645E-09   -4.657E-09   -4.667E-09   -4.677E-09   -4.686E-09   -4.693E-09
    -4.699E-09   -4.705E-09   -4.709E-09   -4.713E-09   -4.715E-09   -4.716E-09   -4.717E-09   -4.716E-09   -4.714E-09   -4.711E-09
    -4.708E-09   -4.703E-09   -4.697E-09   -4.690E-09   -4.682E-09   -4.673E-09   -4.663E-09   -4.652E-09   -4.640E-09   -4.627E-09
    -4.613E-09   -4.598E-09   -4.581E-09   -4.564E-09   -4.545E-09   -4.525E-09   -4.505E-09   -4.483E-09   -4.460E-09   -4.435E-09
    -4.410E-09   -4.384E-09   -4.356E-09   -4.327E-09   -4.297E-09   -4.266E-09   -4.234E-09   -4.201E-09   -4.166E-09   -4.130E-09
    -4.093E-09   -4.055E-09   -4.016E-09   -3.975E-09   -3.933E-09   -3.890E-09   -3.846E-09   -3.801E-09   -3.754E-09   -3.707E-09
    -3.658E-09   -3.607E-09   -3.556E-09   -3.503E-09   -3.449E-09   -3.394E-09   -3.338E-09   -3.281E-09   -3.222E-09   -3.162E-09
    -3.101E-09   -3.039E-09   -2.975E-09   -2.910E-09   -2.844E-09   -2.777E-09   -2.709E-09   -2.639E-09   -2.568E-09   -2.496E-09
    -2.423E-09   -2.348E-09   -2.273E-09
 Asp      Conc. = 4.55E-10
   8.98730E-09  9.01980E-09  9.08262E-09  9.13437E-09  9.19508E-09  9.26282E-09  9.33545E-09  9.44485E-09  9.55600E-09  9.66220E-09
   9.76367E-09  9.86110E-09  9.95498E-09  1.00453E-08  1.01322E-08  1.02162E-08  1.02978E-08  1.03769E-08  1.04539E-08  1.05288E-08
   1.06016E-08  1.06726E-08  1.07418E-08  1.08093E-08  1.08752E-08  1.09397E-08  1.10028E-08  1.10647E-08  1.11257E-08  1.11859E-08
   1.12457E-08  1.13055E-08  1.13659E-08  1.14279E-08  1.14931E-08  1.15642E-08  1.16396E-08  1.17004E-08  1.17472E-08  1.17771E-08
   1.18083E-08  1.18591E-08  1.19488E-08  1.20402E-08  1.21486E-08  1.21921E-08  1.21516E-08  1.21037E-08  1.21278E-08  1.21549E-08
   1.21575E-08  1.21175E-08  1.20112E-08  1.18586E-08  1.17349E-08  1.16611E-08  1.16735E-08  1.16760E-08  1.16224E-08  1.15583E-08
   1.15436E-08  1.15293E-08  1.15195E-08  1.15254E-08  1.15123E-08  1.14775E-08  1.14477E-08  1.14297E-08  1.14139E-08  1.13978E-08
   1.13806E-08  1.13619E-08  1.13416E-08  1.13196E-08  1.12958E-08  1.12704E-08  1.12433E-08  1.12145E-08  1.11840E-08  1.11520E-08
   1.11182E-08  1.10829E-08  1.10460E-08  1.10076E-08  1.09676E-08  1.09261E-08  1.08832E-08  1.08387E-08  1.07927E-08  1.07453E-08
   1.06965E-08  1.06463E-08  1.05947E-08  1.05417E-08  1.04873E-08  1.04315E-08  1.03744E-08  1.03160E-08  1.02563E-08  1.01953E-08
   1.01330E-08  1.00694E-08  1.00046E-08  9.93848E-09  9.87117E-09  9.80265E-09  9.73290E-09  9.66199E-09  9.58993E-09  9.51667E-09
   9.44230E-09  9.36673E-09  9.29010E-09  9.21231E-09  9.13346E-09  9.05352E-09  8.97253E-09  8.89048E-09  8.80740E-09  8.72338E-09
   8.63820E-09  8.55208E-09  8.46496E-09  8.37691E-09  8.28790E-09  8.19798E-09  8.10714E-09  8.01542E-09  7.92284E-09  7.82941E-09
   7.73516E-09  7.64012E-09  7.54427E-09  7.44767E-09  7.35032E-09  7.25225E-09  7.15347E-09  7.05400E-09  6.95389E-09  6.85312E-09
   6.75175E-09  6.64977E-09  6.54720E-09  6.44412E-09  6.34046E-09  6.23628E-09  6.13161E-09  6.02650E-09  5.92090E-09  5.81491E-09
   5.70854E-09  5.60175E-09  5.49463E-09  5.38724E-09  5.27953E-09  5.17157E-09  5.06346E-09  4.95521E-09  4.84690E-09  4.73871E-09
   4.63074E-09  4.52338E-09  4.41717E-09  4.31335E-09  4.21486E-09  4.13121E-09  4.10937E-09  4.25223E-09  4.36472E-09  4.36955E-09
   4.29099E-09  4.18175E-09  4.08189E-09  4.00398E-09  3.92785E-09  3.80184E-09  3.56567E-09  3.20611E-09  2.83473E-09  2.64694E-09
   2.50606E-09  2.38005E-09  2.26073E-09  2.14510E-09  2.03175E-09  1.92002E-09  1.80950E-09  1.69996E-09  1.59125E-09  1.48329E-09
   1.37600E-09  1.26938E-09  1.16337E-09  1.05799E-09  9.53219E-10  8.49045E-10  7.45500E-10  6.42581E-10  5.40288E-10  4.38649E-10
   3.37670E-10  2.37346E-10  1.37709E-10  3.87798E-11 -5.94445E-11 -1.56940E-10 -2.53698E-10 -3.49672E-10 -4.44886E-10 -5.39314E-10
  -6.32935E-10 -7.25721E-10 -8.17672E-10 -9.08758E-10 -9.98995E-10 -1.08834E-09 -1.17677E-09 -1.26429E-09 -1.35090E-09 -1.43654E-09
  -1.52122E-09 -1.60492E-09 -1.68764E-09 -1.76935E-09 -1.85007E-09 -1.92972E-09 -2.00834E-09 -2.08592E-09 -2.16240E-09 -2.23781E-09
  -2.31212E-09 -2.38532E-09 -2.45739E-09 -2.52834E-09 -2.59814E-09 -2.66677E-09 -2.73425E-09 -2.80055E-09 -2.86567E-09 -2.92957E-09
  -2.99228E-09 -3.05376E-09 -3.11401E-09 -3.17304E-09 -3.23084E-09 -3.28743E-09 -3.34280E-09 -3.39696E-09 -3.44992E-09 -3.50169E-09
  -3.55226E-09 -3.60164E-09 -3.64984E-09 -3.69686E-09 -3.74271E-09 -3.78739E-09 -3.83092E-09 -3.87328E-09 -3.91449E-09 -3.95456E-09
  -3.99348E-09 -4.03126E-09 -4.06792E-09 -4.10344E-09 -4.13785E-09 -4.17113E-09 -4.20330E-09 -4.23437E-09 -4.26433E-09 -4.29319E-09
  -4.32095E-09 -4.34763E-09 -4.37321E-09 -4.39772E-09 -4.42114E-09 -4.44349E-09 -4.46477E-09 -4.48498E-09 -4.50413E-09 -4.52222E-09
  -4.53925E-09 -4.55523E-09 -4.57016E-09 -4.58404E-09 -4.59688E-09 -4.60868E-09 -4.61943E-09 -4.62915E-09 -4.63784E-09 -4.64550E-09
  -4.65212E-09 -4.65772E-09 -4.66229E-09 -4.66584E-09 -4.66836E-09 -4.66986E-09 -4.67035E-09 -4.66981E-09 -4.66825E-09 -4.66567E-09
  -4.66208E-09 -4.65748E-09 -4.65184E-09 -4.64520E-09 -4.63752E-09 -4.62881E-09 -4.61905E-09 -4.60824E-09 -4.59637E-09 -4.58343E-09
  -4.56942E-09 -4.55433E-09 -4.53815E-09 -4.52088E-09 -4.50251E-09 -4.48302E-09 -4.46243E-09 -4.44071E-09 -4.41787E-09 -4.39390E-09
  -4.36878E-09 -4.34253E-09 -4.31513E-09 -4.28658E-09 -4.25687E-09 -4.22600E-09 -4.19395E-09 -4.16074E-09 -4.12636E-09 -4.09079E-09
  -4.05405E-09 -4.01612E-09 -3.97700E-09 -3.93668E-09 -3.89517E-09 -3.85246E-09 -3.80855E-09 -3.76344E-09 -3.71712E-09 -3.66960E-09
  -3.62086E-09 -3.57092E-09 -3.51976E-09 -3.46739E-09 -3.41380E-09 -3.35900E-09 -3.30298E-09 -3.24574E-09 -3.18729E-09 -3.12762E-09
  -3.06674E-09 -3.00463E-09 -2.94132E-09 -2.87678E-09 -2.81104E-09 -2.74408E-09 -2.67591E-09 -2.60653E-09 -2.53594E-09 -2.46415E-09
  -2.39115E-09 -2.31695E-09 -2.24155E-09
 Gln      Conc. = 9.39E-11
   9.01965E-09  9.11815E-09  9.20956E-09  9.29335E-09  9.37148E-09  9.44576E-09  9.51751E-09  9.58839E-09  9.65928E-09  9.72443E-09
   9.79342E-09  9.87162E-09  9.94602E-09  1.00266E-08  1.01071E-08  1.01850E-08  1.02604E-08  1.03334E-08  1.04042E-08  1.04727E-08
   1.05392E-08  1.06036E-08  1.06660E-08  1.07264E-08  1.07850E-08  1.08416E-08  1.08963E-08  1.09491E-08  1.10001E-08  1.10492E-08
   1.10965E-08  1.11420E-08  1.11857E-08  1.12276E-08  1.12678E-08  1.13062E-08  1.13429E-08  1.13779E-08  1.14113E-08  1.14430E-08
   1.14730E-08  1.15015E-08  1.15285E-08  1.15539E-08  1.15779E-08  1.16006E-08  1.16219E-08  1.16421E-08  1.16615E-08  1.16801E-08
   1.16983E-08  1.17168E-08  1.17368E-08  1.17604E-08  1.17880E-08  1.18049E-08  1.18156E-08  1.18326E-08  1.18397E-08  1.18296E-08
   1.18145E-08  1.17927E-08  1.17621E-08  1.17235E-08  1.16808E-08  1.16405E-08  1.16059E-08  1.15652E-08  1.15298E-08  1.15129E-08
   1.15027E-08  1.14945E-08  1.14870E-08  1.14781E-08  1.14735E-08  1.14591E-08  1.14357E-08  1.14076E-08  1.13724E-08  1.13298E-08
   1.12794E-08  1.12197E-08  1.11594E-08  1.11007E-08  1.10347E-08  1.09690E-08  1.09140E-08  1.08564E-08  1.08001E-08  1.07484E-08
   1.06973E-08  1.06458E-08  1.05932E-08  1.05394E-08  1.04843E-08  1.04280E-08  1.03704E-08  1.03115E-08  1.02513E-08  1.01898E-08
   1.01270E-08  1.00630E-08  9.99771E-09  9.93117E-09  9.86343E-09  9.79448E-09  9.72429E-09  9.65296E-09  9.58047E-09  9.50679E-09
   9.43200E-09  9.35603E-09  9.27899E-09  9.20081E-09  9.12157E-09  9.04125E-09  8.95988E-09  8.87746E-09  8.79401E-09  8.70963E-09
   8.62410E-09  8.53764E-09  8.45019E-09  8.36180E-09  8.27247E-09  8.18223E-09  8.09108E-09  7.99905E-09  7.90618E-09  7.81246E-09
   7.71792E-09  7.62260E-09  7.52648E-09  7.42962E-09  7.33201E-09  7.23369E-09  7.13466E-09  7.03496E-09  6.93461E-09  6.83361E-09
   6.73202E-09  6.62981E-09  6.52703E-09  6.42374E-09  6.31988E-09  6.21549E-09  6.11062E-09  6.00530E-09  5.89950E-09  5.79329E-09
   5.68671E-09  5.57969E-09  5.47233E-09  5.36467E-09  5.25665E-09  5.14833E-09  5.03979E-09  4.93100E-09  4.82199E-09  4.71287E-09
   4.60359E-09  4.49432E-09  4.38516E-09  4.27638E-09  4.16857E-09  4.06362E-09  3.97078E-09  3.91288E-09  3.84914E-09  3.76302E-09
   3.65935E-09  3.54914E-09  3.44083E-09  3.33718E-09  3.23420E-09  3.12129E-09  2.98577E-09  2.82445E-09  2.65983E-09  2.53384E-09
   2.41806E-09  2.30556E-09  2.19466E-09  2.08476E-09  1.97556E-09  1.86695E-09  1.75886E-09  1.65125E-09  1.54412E-09  1.43746E-09
   1.33126E-09  1.22555E-09  1.12033E-09  1.01564E-09  9.11458E-10  8.07804E-10  7.04718E-10  6.02206E-10  5.00276E-10  3.98962E-10
   2.98276E-10  1.98218E-10  9.88220E-11  1.12329E-13 -9.79107E-11 -1.95222E-10 -2.91809E-10 -3.87625E-10 -4.82692E-10 -5.76983E-10
  -6.70476E-10 -7.63142E-10 -8.54979E-10 -9.45959E-10 -1.03609E-09 -1.12534E-09 -1.21368E-09 -1.30111E-09 -1.38763E-09 -1.47320E-09
  -1.55779E-09 -1.64142E-09 -1.72406E-09 -1.80570E-09 -1.88634E-09 -1.96592E-09 -2.04448E-09 -2.12199E-09 -2.19840E-09 -2.27374E-09
