 LCModel (Version 6.3-1R) Copyright: S.W. Provencher.          Ref.: Magn. Reson. Med. 30:672-679 (1993).                
 onepulse 18x24_ftSpec_smooth_lcm
 26 lines in following concentration table = NCONC+1
    Conc.  %SD /Cr+PCr  Metabolite                                         
    0.000 999%   0.000 Ala                                                 
    0.000 999%   0.000 Asp                                                 
 4.30E-10  44%   1.000 Cr                                                  
    0.000 999%   0.000 GABA                                                
    0.000 999%   0.000 Glc                                                 
 1.46E-09  49%   3.392 Gln                                                 
 6.46E-10  87%   1.500 Glu                                                 
    0.000 999%   0.000 Glyc                                                
    0.000 999%   0.000 GPC                                                 
    0.000 999%   0.000 GSH                                                 
 1.34E-09  18%   3.105 Ins                                                 
    0.000 999%   0.000 Lac                                                 
    0.000 999%   0.000 NAAG                                                
 8.03E-10  26%   1.866 NAA                                                 
 1.99E-10  32%   0.463 PCh                                                 
    0.000 999%   0.000 PCr                                                 
    0.000 999%   0.000 PE                                                  
 2.89E-10  32%   0.670 Scyllo                                              
 2.73E-09  17%   6.351 Ser                                                 
    0.000 999%   0.000 Tau                                                 
 1.99E-10  32%   0.463 GPC+PCh                                             
 8.03E-10  26%   1.866 NAA+NAAG                                            
 1.34E-09  18%   3.105 Ins+Glyc                                            
 4.30E-10  44%   1.000 Cr+PCr                                              
 2.11E-09  22%   4.892 Glu+Gln                                             
   6 lines in following misc. output table
  FWHM = 0.089 ppm    S/N =   4                                            
  Data shift = 0.347 ppm                                                   
  Ph: -42 deg     -23.0 deg/ppm                                            
  alphaB,S = 1.8E-01,   3.9E+01                                            
   16 spline knots.   Ns = 5(1)                                            
  ( 9) 4 infls.   ( 5) 1 extrs.                                            
  363 points on ppm-axis = NY
      4.250000     4.238821     4.227641     4.216462     4.205282     4.194103     4.182923     4.171744     4.160564     4.149385
      4.138206     4.127026     4.115847     4.104667     4.093488     4.082308     4.071129     4.059949     4.048770     4.037591
      4.026411     4.015232     4.004052     3.992873     3.981693     3.970514     3.959334     3.948155     3.936975     3.925796
      3.914617     3.903437     3.892258     3.881078     3.869899     3.858719     3.847540     3.836360     3.825181     3.814002
      3.802822     3.791643     3.780463     3.769284     3.758104     3.746925     3.735745     3.724566     3.713387     3.702207
      3.691028     3.679848     3.668669     3.657489     3.646310     3.635130     3.623951     3.612772     3.601592     3.590413
      3.579233     3.568054     3.556874     3.545695     3.534515     3.523336     3.512156     3.500977     3.489798     3.478618
      3.467439     3.456259     3.445080     3.433900     3.422721     3.411541     3.400362     3.389183     3.378003     3.366824
      3.355644     3.344465     3.333285     3.322106     3.310926     3.299747     3.288568     3.277388     3.266209     3.255029
      3.243850     3.232670     3.221491     3.210311     3.199132     3.187953     3.176773     3.165594     3.154414     3.143235
      3.132055     3.120876     3.109696     3.098517     3.087337     3.076158     3.064979     3.053799     3.042620     3.031440
      3.020261     3.009081     2.997902     2.986722     2.975543     2.964364     2.953184     2.942005     2.930825     2.919646
      2.908466     2.897287     2.886107     2.874928     2.863749     2.852569     2.841390     2.830210     2.819031     2.807851
      2.796672     2.785492     2.774313     2.763134     2.751954     2.740775     2.729595     2.718416     2.707236     2.696057
      2.684877     2.673698     2.662519     2.651339     2.640160     2.628980     2.617801     2.606621     2.595442     2.584262
      2.573083     2.561903     2.550724     2.539545     2.528365     2.517186     2.506006     2.494827     2.483647     2.472468
      2.461288     2.450109     2.438930     2.427750     2.416571     2.405391     2.394212     2.383032     2.371853     2.360673
      2.349494     2.338315     2.327135     2.315956     2.304776     2.293597     2.282417     2.271238     2.260058     2.248879
      2.237700     2.226520     2.215341     2.204161     2.192982     2.181802     2.170623     2.159443     2.148264     2.137084
      2.125905     2.114726     2.103546     2.092367     2.081187     2.070008     2.058828     2.047649     2.036469     2.025290
      2.014111     2.002931     1.991752     1.980572     1.969393     1.958213     1.947034     1.935854     1.924675     1.913496
      1.902316     1.891137     1.879957     1.868778     1.857598     1.846419     1.835239     1.824060     1.812881     1.801701
      1.790522     1.779342     1.768163     1.756983     1.745804     1.734624     1.723445     1.712265     1.701086     1.689907
      1.678727     1.667548     1.656368     1.645189     1.634009     1.622830     1.611650     1.600471     1.589292     1.578112
      1.566933     1.555753     1.544574     1.533394     1.522215     1.511035     1.499856     1.488677     1.477497     1.466318
      1.455138     1.443959     1.432779     1.421600     1.410420     1.399241     1.388062     1.376882     1.365703     1.354523
      1.343344     1.332164     1.320985     1.309805     1.298626     1.287446     1.276267     1.265088     1.253908     1.242729
      1.231549     1.220370     1.209190     1.198011     1.186831     1.175652     1.164473     1.153293     1.142114     1.130934
      1.119755     1.108575     1.097396     1.086216     1.075037     1.063858     1.052678     1.041499     1.030319     1.019140
      1.007960     0.996781     0.985601     0.974422     0.963243     0.952063     0.940884     0.929704     0.918525     0.907345
      0.896166     0.884986     0.873807     0.862628     0.851448     0.840269     0.829089     0.817910     0.806730     0.795551
      0.784371     0.773192     0.762012     0.750833     0.739654     0.728474     0.717295     0.706115     0.694936     0.683756
      0.672577     0.661397     0.650218     0.639039     0.627859     0.616680     0.605500     0.594321     0.583141     0.571962
      0.560782     0.549603     0.538424     0.527244     0.516065     0.504885     0.493706     0.482526     0.471347     0.460167
      0.448988     0.437809     0.426629     0.415450     0.404270     0.393091     0.381911     0.370732     0.359552     0.348373
      0.337193     0.326014     0.314835     0.303655     0.292476     0.281296     0.270117     0.258937     0.247758     0.236578
      0.225399     0.214220     0.203040
 NY phased data points follow
   1.74481E-08  1.66328E-08  1.49662E-08  1.15886E-08  1.08992E-08  8.47357E-09  8.73536E-09  8.72065E-09  8.88712E-09  8.91690E-09
   9.16701E-09  9.80077E-09  9.12216E-09  1.00624E-08  1.01693E-08  1.06241E-08  9.19877E-09  8.65481E-09  9.20555E-09  7.98526E-09
   7.27931E-09  7.32567E-09  7.19305E-09  7.56752E-09  7.29054E-09  8.09330E-09  8.11009E-09  7.21697E-09  6.49345E-09  6.16726E-09
   6.72454E-09  8.75190E-09  9.09867E-09  9.71611E-09  8.58835E-09  6.50112E-09  4.96069E-09  4.48458E-09  3.47275E-09  3.25298E-09
   3.82544E-09  3.65877E-09  2.79119E-09  3.60724E-09  3.14862E-09  3.47265E-09  2.64579E-09  2.63644E-09  2.40376E-09  2.76253E-09
   2.75067E-09  3.78928E-09  3.36821E-09  3.86136E-09  3.40330E-09  2.90096E-09  2.87293E-09  4.19547E-09  3.61442E-09  4.93671E-09
   4.87217E-09  5.59844E-09  7.25267E-09  9.31001E-09  9.95021E-09  9.96192E-09  7.34565E-09  6.32706E-09  4.64628E-09  3.42566E-09
   3.45696E-09  3.15709E-09  2.45225E-09  3.10610E-09  3.14437E-09  3.27330E-09  3.05610E-09  4.77677E-09  6.42453E-09  1.01257E-08
   1.31402E-08  1.40500E-08  1.16774E-08  1.00785E-08  8.03670E-09  6.52426E-09  5.38406E-09  5.48417E-09  4.53332E-09  4.48729E-09
   3.93833E-09  4.08190E-09  3.02690E-09  2.74688E-09  1.95805E-09  2.24641E-09  1.53226E-09  1.86548E-09  9.70392E-10  1.37610E-09
   7.36557E-10  1.83511E-09  1.61152E-09  2.58811E-09  9.88651E-10  1.90011E-09  1.36147E-09  1.56530E-09  1.01058E-09  1.97613E-10
  -9.00289E-11 -1.07100E-10  6.35926E-11  1.24053E-09  1.48388E-09  2.04907E-09  8.25515E-10  1.92501E-09  2.00472E-09  2.24732E-09
   1.77473E-09  2.62828E-09  1.55535E-09  1.32014E-09  5.26454E-10  4.65773E-10  2.21758E-10  6.70522E-10  7.97114E-10  1.15379E-09
   8.47050E-10  1.42128E-09  1.28607E-09  1.97325E-09  1.58202E-09  2.02066E-09  1.21745E-09  1.52260E-09  7.90639E-10  3.00804E-09
   2.41743E-09  4.21024E-09  4.37892E-09  3.67847E-09  2.97073E-09  3.76973E-09  3.48962E-09  4.31299E-09  4.07305E-09  3.92268E-09
   3.45289E-09  3.44091E-09  2.77747E-09  3.02957E-09  2.65132E-09  2.67839E-09  2.64607E-09  3.07842E-09  2.79289E-09  3.33723E-09
   2.93273E-09  3.59864E-09  3.20720E-09  3.59964E-09  3.26516E-09  3.92404E-09  3.92810E-09  4.82157E-09  4.95981E-09  7.17018E-09
   9.37254E-09  1.36955E-08  1.69890E-08  1.64993E-08  1.36947E-08  1.13733E-08  9.91490E-09  8.42872E-09  6.98964E-09  6.16421E-09
   5.29608E-09  4.85746E-09  4.62628E-09  3.08648E-09  2.51258E-09  1.88333E-09  4.14777E-10  7.41334E-10 -1.39050E-09 -2.18442E-09
  -3.39658E-09 -3.61131E-09 -5.57808E-09 -6.30556E-09 -8.02710E-09 -9.19429E-09 -9.46230E-09 -1.06787E-08 -1.17697E-08 -1.22556E-08
  -1.25483E-08 -1.25788E-08 -1.29691E-08 -1.22434E-08 -1.25202E-08 -1.10885E-08 -1.04031E-08 -9.42652E-09 -7.79737E-09 -6.90761E-09
  -6.27153E-09 -4.55330E-09 -3.63644E-09 -2.98044E-09 -1.83619E-09 -1.37944E-09 -9.05543E-10 -1.67588E-09 -8.81979E-10 -9.36649E-10
  -1.91260E-09 -1.38129E-09 -1.57029E-09 -1.69530E-09 -1.57323E-09 -8.40895E-10 -1.11725E-09 -9.16285E-10 -9.63600E-10 -6.68869E-10
  -1.22746E-09 -1.41122E-09 -8.90298E-10 -1.18139E-09 -1.42097E-09 -1.59201E-09 -1.38162E-09 -7.14380E-10 -4.74477E-10 -7.08099E-10
  -1.09873E-09 -5.04951E-10 -8.70536E-10 -6.99825E-10 -1.06074E-09 -1.04814E-09 -1.57097E-09 -1.02155E-09 -1.03783E-09 -1.10857E-09
  -7.64752E-10 -3.58706E-10 -7.88435E-10 -1.39188E-10  4.12304E-10 -1.53954E-11  2.20506E-10 -3.38690E-10 -7.24152E-10 -2.58305E-10
  -1.14245E-09 -1.15317E-09 -1.49949E-09 -1.45294E-09 -1.37497E-09 -1.63580E-09 -1.35252E-09 -1.26920E-09 -7.23735E-10 -8.44880E-10
  -7.72599E-10  4.36728E-11 -3.88777E-11  2.92064E-10  3.76586E-10  1.67787E-10  5.19440E-10  7.84919E-10 -5.19961E-10  7.23806E-10
   9.80456E-11  1.90046E-10 -1.97230E-10 -1.57394E-10 -9.14424E-11 -9.17671E-10  1.17606E-10 -4.23237E-10 -8.70487E-10 -9.54210E-10
  -4.84077E-10 -1.05222E-09 -1.13806E-09 -9.76782E-10 -6.42232E-10 -7.84826E-10 -8.20439E-10 -9.03278E-10 -6.00591E-10 -8.67098E-10
  -6.42731E-10 -1.56866E-09 -7.58325E-10 -5.98284E-10 -1.83014E-09 -8.25269E-10 -1.04568E-09 -1.02179E-09 -1.06344E-09 -1.20068E-09
  -9.78388E-10 -9.79847E-10 -8.63850E-10 -1.01116E-09 -6.64065E-10 -7.48365E-10 -1.11573E-09 -8.22514E-10 -6.37477E-10 -4.89475E-10
  -1.33747E-09 -7.09396E-10 -6.51964E-10 -4.65113E-10 -7.89248E-10 -2.91449E-10 -1.17641E-09 -6.74375E-10 -7.24276E-10 -3.31580E-10
  -1.00313E-09 -3.77876E-10 -1.18662E-09 -3.69925E-10 -3.64987E-10 -1.77967E-10 -2.99776E-10 -7.48895E-10 -4.69735E-10 -1.79694E-10
   3.41317E-11 -1.14644E-09 -6.95556E-10 -5.79000E-10 -5.92133E-10 -7.27933E-10 -1.26407E-10 -5.11258E-10 -4.48732E-10 -9.18434E-10
  -6.14494E-10 -2.21410E-10 -2.91998E-10 -5.41873E-10 -6.36835E-10 -3.58193E-10 -7.87251E-10 -2.66680E-10 -5.68953E-11 -1.07312E-10
  -4.99657E-10 -3.85705E-10 -3.76686E-11
 NY points of the fit to the data follow
   1.66613E-08  1.52137E-08  1.33827E-08  1.19664E-08  1.15416E-08  1.10871E-08  1.02531E-08  9.44431E-09  9.03656E-09  9.16578E-09
   9.38157E-09  9.55551E-09  9.89347E-09  1.01203E-08  1.01368E-08  9.56002E-09  8.66403E-09  8.40309E-09  8.21857E-09  7.60321E-09
   7.10440E-09  7.15424E-09  7.33796E-09  7.23712E-09  7.27023E-09  7.62169E-09  8.14619E-09  8.34683E-09  7.97978E-09  7.79158E-09
   7.57119E-09  7.38508E-09  7.22349E-09  6.98050E-09  6.51909E-09  5.82647E-09  5.62593E-09  5.34176E-09  4.96695E-09  4.63196E-09
   4.30828E-09  3.76325E-09  2.97899E-09  2.62231E-09  2.58395E-09  2.62193E-09  2.67790E-09  2.72676E-09  2.76951E-09  2.80145E-09
   2.86358E-09  2.96751E-09  3.12105E-09  3.28158E-09  3.47940E-09  3.76781E-09  4.12640E-09  4.54327E-09  5.09079E-09  5.64143E-09
   6.10689E-09  6.51548E-09  6.87938E-09  7.04047E-09  7.02412E-09  6.76213E-09  6.37130E-09  5.99766E-09  5.32706E-09  4.50195E-09
   4.11827E-09  3.92619E-09  3.62899E-09  3.57782E-09  3.83599E-09  4.28028E-09  4.95574E-09  6.11618E-09  7.41064E-09  8.74705E-09
   1.00379E-08  1.09834E-08  1.11034E-08  1.04723E-08  9.56696E-09  8.53267E-09  7.36583E-09  5.82929E-09  3.86932E-09  3.07936E-09
   2.70632E-09  2.49299E-09  2.34768E-09  2.24026E-09  2.16407E-09  2.10412E-09  2.05509E-09  2.01712E-09  1.98694E-09  1.96287E-09
   1.94357E-09  1.92797E-09  1.91554E-09  1.90582E-09  1.89839E-09  1.89305E-09  1.88943E-09  1.88733E-09  1.88664E-09  1.88721E-09
   1.88896E-09  1.89180E-09  1.89565E-09  1.90039E-09  1.90584E-09  1.91185E-09  1.91824E-09  1.92488E-09  1.93161E-09  1.93829E-09
   1.94479E-09  1.95096E-09  1.95667E-09  1.96179E-09  1.96619E-09  1.96974E-09  1.97233E-09  1.97382E-09  1.97409E-09  1.97302E-09
   1.97050E-09  1.96640E-09  1.96060E-09  1.95299E-09  1.94346E-09  1.93189E-09  1.91817E-09  1.90220E-09  1.88385E-09  1.86303E-09
   1.83964E-09  1.81364E-09  1.78503E-09  1.75379E-09  1.71993E-09  1.68345E-09  1.64437E-09  1.60271E-09  1.55850E-09  1.51180E-09
   1.46267E-09  1.41120E-09  1.35754E-09  1.30184E-09  1.24436E-09  1.18540E-09  1.12544E-09  1.06510E-09  1.00530E-09  9.47420E-10
   8.93556E-10  8.47104E-10  8.13890E-10  8.04798E-10  8.43075E-10  9.90350E-10  1.48790E-09  2.97776E-09  5.44184E-09  8.39901E-09
   1.16834E-08  1.47128E-08  1.64618E-08  1.63455E-08  1.49007E-08  1.31440E-08  1.11948E-08  8.00551E-09  3.50614E-09  4.51405E-10
  -5.02844E-10 -9.84865E-10 -1.30426E-09 -1.54846E-09 -1.75110E-09 -1.92771E-09 -2.08635E-09 -2.23151E-09 -2.36583E-09 -2.49087E-09
  -2.60759E-09 -2.71653E-09 -2.81799E-09 -2.91207E-09 -2.99878E-09 -3.07802E-09 -3.14976E-09 -3.21425E-09 -3.27180E-09 -3.32266E-09
  -3.36710E-09 -3.40535E-09 -3.43762E-09 -3.46413E-09 -3.48510E-09 -3.50070E-09 -3.51115E-09 -3.51662E-09 -3.51730E-09 -3.51337E-09
  -3.50503E-09 -3.49243E-09 -3.47576E-09 -3.45519E-09 -3.43090E-09 -3.40306E-09 -3.37184E-09 -3.33741E-09 -3.29994E-09 -3.25960E-09
  -3.21655E-09 -3.17097E-09 -3.12303E-09 -3.07288E-09 -3.02070E-09 -2.96663E-09 -2.91082E-09 -2.85340E-09 -2.79453E-09 -2.73435E-09
  -2.67301E-09 -2.61064E-09 -2.54741E-09 -2.48345E-09 -2.41889E-09 -2.35391E-09 -2.28862E-09 -2.22319E-09 -2.15773E-09 -2.09243E-09
  -2.02741E-09 -1.96280E-09 -1.89877E-09 -1.83546E-09 -1.77299E-09 -1.71153E-09 -1.65121E-09 -1.59217E-09 -1.53457E-09 -1.47855E-09
  -1.42423E-09 -1.37180E-09 -1.32129E-09 -1.27268E-09 -1.22596E-09 -1.18109E-09 -1.13803E-09 -1.09678E-09 -1.05728E-09 -1.01951E-09
  -9.83443E-10 -9.49044E-10 -9.16293E-10 -8.85150E-10 -8.55593E-10 -8.27588E-10 -8.01094E-10 -7.76107E-10 -7.52583E-10 -7.30486E-10
  -7.09789E-10 -6.90473E-10 -6.72492E-10 -6.55825E-10 -6.40449E-10 -6.26313E-10 -6.13411E-10 -6.01699E-10 -5.91154E-10 -5.81737E-10
  -5.73413E-10 -5.66136E-10 -5.59854E-10 -5.54515E-10 -5.50078E-10 -5.46486E-10 -5.43697E-10 -5.41656E-10 -5.40316E-10 -5.39631E-10
  -5.39548E-10 -5.40021E-10 -5.40998E-10 -5.42432E-10 -5.44275E-10 -5.46475E-10 -5.48985E-10 -5.51755E-10 -5.54741E-10 -5.57883E-10
  -5.61144E-10 -5.64467E-10 -5.67804E-10 -5.71113E-10 -5.74337E-10 -5.77430E-10 -5.80344E-10 -5.83028E-10 -5.85472E-10 -5.87673E-10
  -5.89636E-10 -5.91361E-10 -5.92852E-10 -5.94107E-10 -5.95131E-10 -5.95926E-10 -5.96492E-10 -5.96832E-10 -5.96948E-10 -5.96840E-10
  -5.96515E-10 -5.95968E-10 -5.95204E-10 -5.94227E-10 -5.93035E-10 -5.91634E-10 -5.90023E-10 -5.88203E-10 -5.86178E-10 -5.83952E-10
  -5.81520E-10 -5.78890E-10 -5.76061E-10 -5.73036E-10 -5.69818E-10 -5.66406E-10 -5.62809E-10 -5.59035E-10 -5.55091E-10 -5.50984E-10
  -5.46724E-10 -5.42318E-10 -5.37773E-10 -5.33097E-10 -5.28301E-10 -5.23387E-10 -5.18369E-10 -5.13251E-10 -5.08044E-10 -5.02752E-10
  -4.97383E-10 -4.91950E-10 -4.86455E-10 -4.80910E-10 -4.75320E-10 -4.69696E-10 -4.64043E-10 -4.58368E-10 -4.52682E-10 -4.46992E-10
  -4.41307E-10 -4.35633E-10 -4.29976E-10
 NY background values follow
     9.569E-10    9.579E-10    9.589E-10    9.600E-10    9.611E-10    9.623E-10    9.636E-10    9.648E-10    9.661E-10    9.674E-10
     9.688E-10    9.701E-10    9.714E-10    9.727E-10    9.740E-10    9.752E-10    9.764E-10    9.776E-10    9.787E-10    9.797E-10
     9.807E-10    9.816E-10    9.825E-10    9.832E-10    9.839E-10    9.844E-10    9.848E-10    9.852E-10    9.853E-10    9.854E-10
     9.853E-10    9.851E-10    9.848E-10    9.844E-10    9.839E-10    9.834E-10    9.827E-10    9.820E-10    9.811E-10    9.803E-10
     9.793E-10    9.784E-10    9.774E-10    9.763E-10    9.753E-10    9.742E-10    9.731E-10    9.720E-10    9.709E-10    9.698E-10
     9.687E-10    9.677E-10    9.667E-10    9.657E-10    9.648E-10    9.639E-10    9.631E-10    9.624E-10    9.617E-10    9.611E-10
     9.606E-10    9.602E-10    9.598E-10    9.595E-10    9.593E-10    9.593E-10    9.593E-10    9.594E-10    9.596E-10    9.599E-10
     9.603E-10    9.608E-10    9.614E-10    9.622E-10    9.630E-10    9.640E-10    9.652E-10    9.664E-10    9.678E-10    9.693E-10
     9.709E-10    9.727E-10    9.747E-10    9.768E-10    9.790E-10    9.814E-10    9.839E-10    9.867E-10    9.896E-10    9.927E-10
     9.960E-10    9.996E-10    1.003E-09    1.007E-09    1.012E-09    1.016E-09    1.021E-09    1.026E-09    1.031E-09    1.037E-09
     1.043E-09    1.049E-09    1.055E-09    1.062E-09    1.069E-09    1.077E-09    1.085E-09    1.093E-09    1.102E-09    1.111E-09
     1.120E-09    1.130E-09    1.141E-09    1.151E-09    1.162E-09    1.173E-09    1.184E-09    1.195E-09    1.206E-09    1.216E-09
     1.226E-09    1.235E-09    1.244E-09    1.251E-09    1.258E-09    1.264E-09    1.269E-09    1.272E-09    1.274E-09    1.275E-09
     1.274E-09    1.271E-09    1.266E-09    1.260E-09    1.251E-09    1.240E-09    1.227E-09    1.212E-09    1.194E-09    1.173E-09
     1.150E-09    1.123E-09    1.094E-09    1.062E-09    1.027E-09    9.895E-10    9.487E-10    9.050E-10    8.583E-10    8.085E-10
     7.557E-10    6.999E-10    6.409E-10    5.787E-10    5.135E-10    4.450E-10    3.733E-10    2.983E-10    2.201E-10    1.386E-10
     5.377E-11   -3.443E-11   -1.260E-10   -2.210E-10   -3.194E-10   -4.213E-10   -5.267E-10   -6.356E-10   -7.480E-10   -8.636E-10
    -9.820E-10   -1.103E-09   -1.226E-09   -1.351E-09   -1.477E-09   -1.604E-09   -1.732E-09   -1.860E-09   -1.988E-09   -2.116E-09
    -2.243E-09   -2.369E-09   -2.493E-09   -2.615E-09   -2.735E-09   -2.853E-09   -2.967E-09   -3.078E-09   -3.185E-09   -3.289E-09
    -3.388E-09   -3.482E-09   -3.571E-09   -3.654E-09   -3.731E-09   -3.803E-09   -3.867E-09   -3.926E-09   -3.978E-09   -4.024E-09
    -4.064E-09   -4.098E-09   -4.127E-09   -4.150E-09   -4.168E-09   -4.181E-09   -4.188E-09   -4.192E-09   -4.190E-09   -4.184E-09
    -4.174E-09   -4.159E-09   -4.141E-09   -4.119E-09   -4.093E-09   -4.064E-09   -4.031E-09   -3.996E-09   -3.957E-09   -3.916E-09
    -3.871E-09   -3.825E-09   -3.776E-09   -3.725E-09   -3.672E-09   -3.617E-09   -3.560E-09   -3.502E-09   -3.442E-09   -3.381E-09
    -3.319E-09   -3.256E-09   -3.192E-09   -3.128E-09   -3.063E-09   -2.997E-09   -2.931E-09   -2.865E-09   -2.799E-09   -2.733E-09
    -2.668E-09   -2.603E-09   -2.538E-09   -2.474E-09   -2.411E-09   -2.349E-09   -2.289E-09   -2.229E-09   -2.171E-09   -2.115E-09
    -2.060E-09   -2.007E-09   -1.956E-09   -1.907E-09   -1.860E-09   -1.815E-09   -1.771E-09   -1.730E-09   -1.690E-09   -1.652E-09
    -1.615E-09   -1.580E-09   -1.547E-09   -1.516E-09   -1.486E-09   -1.458E-09   -1.431E-09   -1.405E-09   -1.382E-09   -1.359E-09
    -1.338E-09   -1.319E-09   -1.300E-09   -1.283E-09   -1.268E-09   -1.253E-09   -1.240E-09   -1.228E-09   -1.217E-09   -1.207E-09
    -1.199E-09   -1.191E-09   -1.185E-09   -1.179E-09   -1.174E-09   -1.170E-09   -1.167E-09   -1.165E-09   -1.163E-09   -1.162E-09
    -1.162E-09   -1.162E-09   -1.163E-09   -1.164E-09   -1.165E-09   -1.167E-09   -1.170E-09   -1.172E-09   -1.175E-09   -1.178E-09
    -1.181E-09   -1.184E-09   -1.187E-09   -1.190E-09   -1.193E-09   -1.196E-09   -1.198E-09   -1.201E-09   -1.203E-09   -1.205E-09
    -1.206E-09   -1.208E-09   -1.209E-09   -1.210E-09   -1.211E-09   -1.211E-09   -1.212E-09   -1.212E-09   -1.211E-09   -1.211E-09
    -1.210E-09   -1.210E-09   -1.209E-09   -1.207E-09   -1.206E-09   -1.204E-09   -1.202E-09   -1.200E-09   -1.198E-09   -1.195E-09
    -1.193E-09   -1.190E-09   -1.187E-09   -1.183E-09   -1.180E-09   -1.176E-09   -1.172E-09   -1.168E-09   -1.164E-09   -1.160E-09
    -1.155E-09   -1.150E-09   -1.146E-09   -1.141E-09   -1.135E-09   -1.130E-09   -1.125E-09   -1.120E-09   -1.114E-09   -1.108E-09
    -1.103E-09   -1.097E-09   -1.091E-09   -1.085E-09   -1.079E-09   -1.074E-09   -1.068E-09   -1.062E-09   -1.056E-09   -1.050E-09
    -1.044E-09   -1.038E-09   -1.032E-09
 Cr       Conc. = 4.30E-10
   2.46428E-09  2.21721E-09  1.75947E-09  1.28133E-09  1.15739E-09  1.10948E-09  1.08522E-09  1.07120E-09  1.06252E-09  1.05698E-09
   1.05345E-09  1.05129E-09  1.05012E-09  1.04970E-09  1.04987E-09  1.05053E-09  1.05162E-09  1.05312E-09  1.05502E-09  1.05734E-09
   1.06015E-09  1.06352E-09  1.06763E-09  1.07268E-09  1.07904E-09  1.08728E-09  1.09838E-09  1.11413E-09  1.13821E-09  1.17972E-09
   1.26967E-09  1.56217E-09  1.99388E-09  2.50442E-09  3.07329E-09  3.59533E-09  3.87914E-09  3.83584E-09  3.58318E-09  3.31261E-09
   3.02378E-09  2.49045E-09  1.68546E-09  1.27883E-09  1.16244E-09  1.11115E-09  1.08280E-09  1.06494E-09  1.05269E-09  1.04377E-09
   1.03697E-09  1.03159E-09  1.02722E-09  1.02359E-09  1.02053E-09  1.01791E-09  1.01565E-09  1.01370E-09  1.01201E-09  1.01053E-09
   1.00926E-09  1.00817E-09  1.00725E-09  1.00648E-09  1.00585E-09  1.00537E-09  1.00503E-09  1.00482E-09  1.00475E-09  1.00480E-09
   1.00499E-09  1.00531E-09  1.00576E-09  1.00634E-09  1.00706E-09  1.00791E-09  1.00890E-09  1.01003E-09  1.01130E-09  1.01271E-09
   1.01427E-09  1.01597E-09  1.01783E-09  1.01984E-09  1.02200E-09  1.02433E-09  1.02683E-09  1.02950E-09  1.03237E-09  1.03544E-09
   1.03871E-09  1.04220E-09  1.04592E-09  1.04988E-09  1.05408E-09  1.05853E-09  1.06325E-09  1.06825E-09  1.07353E-09  1.07911E-09
   1.08498E-09  1.09118E-09  1.09769E-09  1.10454E-09  1.11172E-09  1.11926E-09  1.12717E-09  1.13544E-09  1.14409E-09  1.15313E-09
   1.16257E-09  1.17243E-09  1.18269E-09  1.19331E-09  1.20416E-09  1.21514E-09  1.22612E-09  1.23699E-09  1.24764E-09  1.25795E-09
   1.26780E-09  1.27708E-09  1.28568E-09  1.29348E-09  1.30036E-09  1.30621E-09  1.31091E-09  1.31436E-09  1.31642E-09  1.31700E-09
   1.31596E-09  1.31321E-09  1.30862E-09  1.30207E-09  1.29346E-09  1.28267E-09  1.26958E-09  1.25408E-09  1.23605E-09  1.21539E-09
   1.19196E-09  1.16575E-09  1.13670E-09  1.10480E-09  1.07002E-09  1.03234E-09  9.91728E-10  9.48163E-10  9.01621E-10  8.52078E-10
   7.99518E-10  7.43914E-10  6.85253E-10  6.23519E-10  5.58703E-10  4.90796E-10  4.19807E-10  3.45748E-10  2.68660E-10  1.88606E-10
   1.05711E-10  2.02003E-11 -6.74985E-11 -1.56526E-10 -2.44800E-10 -3.25898E-10 -3.68743E-10 -3.46597E-10 -2.99034E-10 -2.30841E-10
  -1.61740E-10 -1.45592E-10 -2.34687E-10 -4.18519E-10 -6.35309E-10 -8.49312E-10 -1.10934E-09 -1.47214E-09 -1.82005E-09 -2.00529E-09
  -2.15548E-09 -2.29355E-09 -2.42530E-09 -2.55266E-09 -2.67629E-09 -2.79638E-09 -2.91287E-09 -3.02558E-09 -3.13426E-09 -3.23863E-09
  -3.33839E-09 -3.43321E-09 -3.52275E-09 -3.60666E-09 -3.68461E-09 -3.75624E-09 -3.82131E-09 -3.87991E-09 -3.93222E-09 -3.97842E-09
  -4.01866E-09 -4.05311E-09 -4.08195E-09 -4.10533E-09 -4.12343E-09 -4.13640E-09 -4.14442E-09 -4.14765E-09 -4.14625E-09 -4.14040E-09
  -4.13024E-09 -4.11596E-09 -4.09771E-09 -4.07566E-09 -4.04997E-09 -4.02081E-09 -3.98834E-09 -3.95273E-09 -3.91413E-09 -3.87273E-09
  -3.82866E-09 -3.78212E-09 -3.73324E-09 -3.68221E-09 -3.62918E-09 -3.57430E-09 -3.51770E-09 -3.45952E-09 -3.39993E-09 -3.33905E-09
  -3.27703E-09 -3.21401E-09 -3.15015E-09 -3.08557E-09 -3.02043E-09 -2.95486E-09 -2.88902E-09 -2.82304E-09 -2.75706E-09 -2.69124E-09
  -2.62571E-09 -2.56061E-09 -2.49610E-09 -2.43232E-09 -2.36940E-09 -2.30749E-09 -2.24673E-09 -2.18726E-09 -2.12924E-09 -2.07281E-09
  -2.01809E-09 -1.96525E-09 -1.91435E-09 -1.86536E-09 -1.81826E-09 -1.77302E-09 -1.72960E-09 -1.68798E-09 -1.64813E-09 -1.61001E-09
  -1.57360E-09 -1.53886E-09 -1.50577E-09 -1.47430E-09 -1.44441E-09 -1.41608E-09 -1.38926E-09 -1.36396E-09 -1.34012E-09 -1.31771E-09
  -1.29671E-09 -1.27708E-09 -1.25880E-09 -1.24183E-09 -1.22616E-09 -1.21173E-09 -1.19853E-09 -1.18653E-09 -1.17570E-09 -1.16599E-09
  -1.15738E-09 -1.14982E-09 -1.14326E-09 -1.13764E-09 -1.13292E-09 -1.12906E-09 -1.12599E-09 -1.12368E-09 -1.12206E-09 -1.12111E-09
  -1.12075E-09 -1.12095E-09 -1.12166E-09 -1.12283E-09 -1.12440E-09 -1.12634E-09 -1.12858E-09 -1.13109E-09 -1.13381E-09 -1.13669E-09
  -1.13968E-09 -1.14274E-09 -1.14582E-09 -1.14887E-09 -1.15183E-09 -1.15466E-09 -1.15731E-09 -1.15974E-09 -1.16192E-09 -1.16386E-09
  -1.16556E-09 -1.16703E-09 -1.16826E-09 -1.16925E-09 -1.17002E-09 -1.17055E-09 -1.17086E-09 -1.17094E-09 -1.17079E-09 -1.17042E-09
  -1.16984E-09 -1.16903E-09 -1.16800E-09 -1.16676E-09 -1.16531E-09 -1.16364E-09 -1.16177E-09 -1.15969E-09 -1.15740E-09 -1.15491E-09
  -1.15221E-09 -1.14931E-09 -1.14622E-09 -1.14292E-09 -1.13944E-09 -1.13576E-09 -1.13189E-09 -1.12785E-09 -1.12363E-09 -1.11925E-09
  -1.11472E-09 -1.11004E-09 -1.10522E-09 -1.10027E-09 -1.09520E-09 -1.09000E-09 -1.08471E-09 -1.07931E-09 -1.07382E-09 -1.06825E-09
  -1.06260E-09 -1.05688E-09 -1.05110E-09 -1.04527E-09 -1.03939E-09 -1.03347E-09 -1.02753E-09 -1.02157E-09 -1.01559E-09 -1.00960E-09
  -1.00362E-09 -9.97651E-10 -9.91695E-10
 Gln      Conc. = 1.46E-09
   1.95511E-09  2.23537E-09  2.53589E-09  2.82922E-09  3.07825E-09  3.22995E-09  3.24407E-09  3.10985E-09  2.89126E-09  2.69256E-09
   2.36491E-09  1.97783E-09  1.80127E-09  1.55734E-09  1.41491E-09  1.34475E-09  1.30349E-09  1.27650E-09  1.25771E-09  1.24416E-09
   1.23419E-09  1.22678E-09  1.22122E-09  1.21712E-09  1.21437E-09  1.21281E-09  1.21181E-09  1.21141E-09  1.21169E-09  1.21229E-09
   1.21324E-09  1.21454E-09  1.21621E-09  1.21827E-09  1.22074E-09  1.22367E-09  1.22710E-09  1.23109E-09  1.23572E-09  1.24107E-09
   1.24730E-09  1.25454E-09  1.26307E-09  1.27315E-09  1.28509E-09  1.29932E-09  1.31636E-09  1.33666E-09  1.36149E-09  1.39263E-09
   1.43165E-09  1.48249E-09  1.55199E-09  1.65269E-09  1.81566E-09  2.08498E-09  2.39743E-09  2.77399E-09  3.26742E-09  3.74375E-09
   4.09923E-09  4.38259E-09  4.56904E-09  4.57920E-09  4.33821E-09  3.87811E-09  3.40389E-09  3.09286E-09  2.61319E-09  2.06880E-09
   1.86719E-09  1.84581E-09  1.83963E-09  1.97427E-09  2.22271E-09  2.59394E-09  2.97528E-09  3.32224E-09  3.61905E-09  3.83938E-09
   3.96953E-09  3.96748E-09  3.73655E-09  3.46401E-09  3.24371E-09  2.85509E-09  2.43168E-09  2.21737E-09  1.97409E-09  1.75828E-09
   1.63038E-09  1.54560E-09  1.48619E-09  1.44304E-09  1.40959E-09  1.38353E-09  1.36350E-09  1.34782E-09  1.33557E-09  1.32639E-09
   1.31960E-09  1.31464E-09  1.31130E-09  1.30942E-09  1.30890E-09  1.30967E-09  1.31148E-09  1.31425E-09  1.31792E-09  1.32244E-09
   1.32776E-09  1.33385E-09  1.34066E-09  1.34811E-09  1.35604E-09  1.36432E-09  1.37281E-09  1.38138E-09  1.38988E-09  1.39820E-09
   1.40620E-09  1.41375E-09  1.42073E-09  1.42702E-09  1.43249E-09  1.43702E-09  1.44049E-09  1.44277E-09  1.44375E-09  1.44330E-09
   1.44132E-09  1.43767E-09  1.43224E-09  1.42491E-09  1.41557E-09  1.40409E-09  1.39037E-09  1.37429E-09  1.35572E-09  1.33456E-09
   1.31069E-09  1.28407E-09  1.25467E-09  1.22247E-09  1.18744E-09  1.14956E-09  1.10881E-09  1.06516E-09  1.01861E-09  9.69142E-10
   9.16741E-10  8.61397E-10  8.03115E-10  7.41900E-10  6.77771E-10  6.10758E-10  5.40919E-10  4.68335E-10  3.93141E-10  3.15535E-10
   2.35839E-10  1.54573E-10  7.26277E-11 -8.39689E-12 -8.52369E-11 -1.50172E-10 -1.79032E-10 -5.41354E-11  2.83108E-10  7.12673E-10
   1.21661E-09  1.71785E-09  2.02833E-09  1.98654E-09  1.64575E-09  1.21399E-09  7.87382E-10  1.84410E-10 -7.54902E-10 -1.56690E-09
  -1.87616E-09 -2.07717E-09 -2.24159E-09 -2.38861E-09 -2.52522E-09 -2.65444E-09 -2.77764E-09 -2.89547E-09 -3.00816E-09 -3.11575E-09
  -3.21814E-09 -3.31514E-09 -3.40652E-09 -3.49200E-09 -3.57131E-09 -3.64412E-09 -3.71022E-09 -3.76974E-09 -3.82287E-09 -3.86980E-09
  -3.91070E-09 -3.94576E-09 -3.97514E-09 -3.99903E-09 -4.01758E-09 -4.03098E-09 -4.03940E-09 -4.04300E-09 -4.04194E-09 -4.03641E-09
  -4.02656E-09 -4.01256E-09 -3.99458E-09 -3.97279E-09 -3.94734E-09 -3.91841E-09 -3.88615E-09 -3.85075E-09 -3.81235E-09 -3.77113E-09
  -3.72725E-09 -3.68088E-09 -3.63218E-09 -3.58131E-09 -3.52843E-09 -3.47370E-09 -3.41724E-09 -3.35921E-09 -3.29975E-09 -3.23900E-09
