 LCModel (Version 6.3-1R) Copyright: S.W. Provencher.          Ref.: Magn. Reson. Med. 30:672-679 (1993).                
 onepulse 18x27_ftSpec_smooth_lcm
 26 lines in following concentration table = NCONC+1
    Conc.  %SD /Cr+PCr  Metabolite                                         
    0.000 999%   0.000 Ala                                                 
    0.000 999%   0.000 Asp                                                 
    0.000 999%   0.000 Cr                                                  
    0.000 999%   0.000 GABA                                                
 2.79E-10 357%   1.208 Glc                                                 
 1.61E-09  48%   6.970 Gln                                                 
    0.000 999%   0.000 Glu                                                 
    0.000 999%   0.000 Glyc                                                
 2.37E-10  49%   1.026 GPC                                                 
    0.000 999%   0.000 GSH                                                 
 1.72E-09  35%   7.474 Ins                                                 
    0.000 999%   0.000 Lac                                                 
 4.17E-10 108%   1.806 NAAG                                                
 3.35E-10 180%   1.453 NAA                                                 
    0.000 999%   0.000 PCh                                                 
 2.31E-10 140%   1.000 PCr                                                 
    0.000 999%   0.000 PE                                                  
 2.37E-10  98%   1.029 Scyllo                                              
 5.18E-09  24%  22.465 Ser                                                 
    0.000 999%   0.000 Tau                                                 
 2.37E-10  49%   1.026 GPC+PCh                                             
 7.52E-10  49%   3.260 NAA+NAAG                                            
 1.72E-09  35%   7.474 Ins+Glyc                                            
 2.31E-10 140%   1.000 Cr+PCr                                              
 1.61E-09  48%   6.970 Glu+Gln                                             
   6 lines in following misc. output table
  FWHM = 0.089 ppm    S/N =   3                                            
  Data shift = 0.369 ppm                                                   
  Ph: -46 deg     -39.9 deg/ppm                                            
  alphaB,S = 8.6E-01,   4.8E+01                                            
    8 spline knots.   Ns = 5(1)                                            
  ( 7) 2 infls.   ( 5) 1 extrs.                                            
  363 points on ppm-axis = NY
      4.250000     4.238821     4.227641     4.216462     4.205282     4.194103     4.182923     4.171744     4.160564     4.149385
      4.138206     4.127026     4.115847     4.104667     4.093488     4.082308     4.071129     4.059949     4.048770     4.037591
      4.026411     4.015232     4.004052     3.992873     3.981693     3.970514     3.959334     3.948155     3.936975     3.925796
      3.914617     3.903437     3.892258     3.881078     3.869899     3.858719     3.847540     3.836360     3.825181     3.814002
      3.802822     3.791643     3.780463     3.769284     3.758104     3.746925     3.735745     3.724566     3.713387     3.702207
      3.691028     3.679848     3.668669     3.657489     3.646310     3.635130     3.623951     3.612772     3.601592     3.590413
      3.579233     3.568054     3.556874     3.545695     3.534515     3.523336     3.512156     3.500977     3.489798     3.478618
      3.467439     3.456259     3.445080     3.433900     3.422721     3.411541     3.400362     3.389183     3.378003     3.366824
      3.355644     3.344465     3.333285     3.322106     3.310926     3.299747     3.288568     3.277388     3.266209     3.255029
      3.243850     3.232670     3.221491     3.210311     3.199132     3.187953     3.176773     3.165594     3.154414     3.143235
      3.132055     3.120876     3.109696     3.098517     3.087337     3.076158     3.064979     3.053799     3.042620     3.031440
      3.020261     3.009081     2.997902     2.986722     2.975543     2.964364     2.953184     2.942005     2.930825     2.919646
      2.908466     2.897287     2.886107     2.874928     2.863749     2.852569     2.841390     2.830210     2.819031     2.807851
      2.796672     2.785492     2.774313     2.763134     2.751954     2.740775     2.729595     2.718416     2.707236     2.696057
      2.684877     2.673698     2.662519     2.651339     2.640160     2.628980     2.617801     2.606621     2.595442     2.584262
      2.573083     2.561903     2.550724     2.539545     2.528365     2.517186     2.506006     2.494827     2.483647     2.472468
      2.461288     2.450109     2.438930     2.427750     2.416571     2.405391     2.394212     2.383032     2.371853     2.360673
      2.349494     2.338315     2.327135     2.315956     2.304776     2.293597     2.282417     2.271238     2.260058     2.248879
      2.237700     2.226520     2.215341     2.204161     2.192982     2.181802     2.170623     2.159443     2.148264     2.137084
      2.125905     2.114726     2.103546     2.092367     2.081187     2.070008     2.058828     2.047649     2.036469     2.025290
      2.014111     2.002931     1.991752     1.980572     1.969393     1.958213     1.947034     1.935854     1.924675     1.913496
      1.902316     1.891137     1.879957     1.868778     1.857598     1.846419     1.835239     1.824060     1.812881     1.801701
      1.790522     1.779342     1.768163     1.756983     1.745804     1.734624     1.723445     1.712265     1.701086     1.689907
      1.678727     1.667548     1.656368     1.645189     1.634009     1.622830     1.611650     1.600471     1.589292     1.578112
      1.566933     1.555753     1.544574     1.533394     1.522215     1.511035     1.499856     1.488677     1.477497     1.466318
      1.455138     1.443959     1.432779     1.421600     1.410420     1.399241     1.388062     1.376882     1.365703     1.354523
      1.343344     1.332164     1.320985     1.309805     1.298626     1.287446     1.276267     1.265088     1.253908     1.242729
      1.231549     1.220370     1.209190     1.198011     1.186831     1.175652     1.164473     1.153293     1.142114     1.130934
      1.119755     1.108575     1.097396     1.086216     1.075037     1.063858     1.052678     1.041499     1.030319     1.019140
      1.007960     0.996781     0.985601     0.974422     0.963243     0.952063     0.940884     0.929704     0.918525     0.907345
      0.896166     0.884986     0.873807     0.862628     0.851448     0.840269     0.829089     0.817910     0.806730     0.795551
      0.784371     0.773192     0.762012     0.750833     0.739654     0.728474     0.717295     0.706115     0.694936     0.683756
      0.672577     0.661397     0.650218     0.639039     0.627859     0.616680     0.605500     0.594321     0.583141     0.571962
      0.560782     0.549603     0.538424     0.527244     0.516065     0.504885     0.493706     0.482526     0.471347     0.460167
      0.448988     0.437809     0.426629     0.415450     0.404270     0.393091     0.381911     0.370732     0.359552     0.348373
      0.337193     0.326014     0.314835     0.303655     0.292476     0.281296     0.270117     0.258937     0.247758     0.236578
      0.225399     0.214220     0.203040
 NY phased data points follow
   1.78844E-08  1.83049E-08  1.57438E-08  1.58152E-08  1.39750E-08  1.41678E-08  1.26294E-08  1.34688E-08  1.23739E-08  1.37372E-08
   1.30298E-08  1.41886E-08  1.37274E-08  1.54400E-08  1.49238E-08  1.48599E-08  1.44383E-08  1.51597E-08  1.46267E-08  1.45722E-08
   1.27860E-08  1.34090E-08  1.26425E-08  1.43335E-08  1.45586E-08  1.49352E-08  1.33242E-08  1.32425E-08  1.16657E-08  1.35857E-08
   1.43167E-08  1.71128E-08  1.72162E-08  1.75179E-08  1.58866E-08  1.47789E-08  1.37508E-08  1.38325E-08  1.24362E-08  1.31907E-08
   1.22581E-08  1.25703E-08  1.19883E-08  1.19856E-08  1.12510E-08  1.06719E-08  9.95270E-09  9.79581E-09  9.24399E-09  9.71773E-09
   9.60349E-09  1.03457E-08  9.31954E-09  9.14496E-09  7.86804E-09  8.53085E-09  7.88927E-09  8.36263E-09  7.91548E-09  7.59319E-09
   7.68334E-09  1.03281E-08  1.25880E-08  1.48733E-08  1.35606E-08  1.39471E-08  1.21877E-08  1.17137E-08  1.04830E-08  1.05562E-08
   9.23740E-09  8.90844E-09  8.11170E-09  8.01569E-09  6.92985E-09  6.15498E-09  5.41489E-09  8.61908E-09  1.30164E-08  1.79868E-08
   1.86840E-08  1.80285E-08  1.63727E-08  1.63630E-08  1.52114E-08  1.52548E-08  1.40265E-08  1.42902E-08  1.39513E-08  1.40466E-08
   1.29594E-08  1.28055E-08  1.18604E-08  1.25353E-08  1.08455E-08  1.13083E-08  1.00584E-08  1.01303E-08  9.43613E-09  9.33587E-09
   9.17484E-09  1.00434E-08  9.02168E-09  9.66160E-09  9.02430E-09  9.36245E-09  9.08672E-09  7.83011E-09  7.10498E-09  6.73228E-09
   5.50492E-09  6.50972E-09  6.46930E-09  7.09763E-09  6.54350E-09  6.66651E-09  6.83855E-09  7.02774E-09  6.92179E-09  7.93017E-09
   7.63549E-09  7.26178E-09  6.56255E-09  5.96396E-09  4.97749E-09  5.12994E-09  4.97386E-09  5.27887E-09  5.07066E-09  5.12330E-09
   4.79000E-09  5.53956E-09  5.04537E-09  5.33693E-09  5.02233E-09  4.74564E-09  4.08929E-09  5.20996E-09  5.93644E-09  6.94536E-09
   7.48343E-09  7.92328E-09  7.28481E-09  7.70819E-09  7.89971E-09  8.76280E-09  9.31878E-09  9.00519E-09  8.84743E-09  9.05692E-09
   8.55431E-09  8.23576E-09  7.56820E-09  8.20870E-09  7.81062E-09  7.76899E-09  7.72707E-09  7.69957E-09  7.20989E-09  7.65320E-09
   7.92676E-09  7.94238E-09  7.28638E-09  7.67415E-09  7.16507E-09  7.42973E-09  7.03321E-09  7.53027E-09  8.81981E-09  1.45107E-08
   2.02585E-08  2.26631E-08  2.17220E-08  2.00095E-08  1.91563E-08  1.82020E-08  1.66247E-08  1.58945E-08  1.50663E-08  1.45402E-08
   1.36148E-08  1.28111E-08  1.15453E-08  1.07533E-08  9.36754E-09  7.56314E-09  6.19380E-09  4.12877E-09  1.98339E-09  6.00964E-10
  -2.56848E-09 -4.78322E-09 -7.45715E-09 -1.03021E-08 -1.27481E-08 -1.47739E-08 -1.71660E-08 -1.87752E-08 -1.98932E-08 -2.10131E-08
  -2.11346E-08 -2.06920E-08 -2.02060E-08 -1.87862E-08 -1.73342E-08 -1.53532E-08 -1.29062E-08 -1.06192E-08 -8.94752E-09 -6.31309E-09
  -5.10174E-09 -3.74178E-09 -3.08705E-09 -2.19180E-09 -2.13393E-09 -2.53279E-09 -2.56234E-09 -2.90639E-09 -3.34175E-09 -2.91786E-09
  -3.25657E-09 -2.91902E-09 -2.43365E-09 -1.78814E-09 -2.01827E-09 -2.06436E-09 -2.22368E-09 -1.88189E-09 -2.33744E-09 -2.17344E-09
  -2.51051E-09 -2.59804E-09 -2.26973E-09 -2.16859E-09 -2.29357E-09 -1.38986E-09 -1.75571E-09 -1.26720E-09 -2.24104E-09 -1.83694E-09
  -2.08228E-09 -1.94420E-09 -1.64298E-09 -1.97905E-09 -2.30613E-09 -2.08454E-09 -2.01987E-09 -1.51752E-09 -1.47434E-09 -1.50862E-09
  -1.40112E-09 -8.10324E-10 -8.08819E-10 -8.39456E-10 -8.62097E-10 -6.60265E-10 -1.16115E-09 -1.08967E-09 -1.78082E-09 -1.55478E-09
  -2.22088E-09 -2.25837E-09 -2.27614E-09 -2.46958E-09 -2.65405E-09 -2.50141E-09 -2.20779E-09 -1.60112E-09 -1.50243E-09 -8.48808E-10
  -7.67892E-10 -4.20742E-10 -7.17183E-10 -1.88136E-10  2.28700E-10  1.27759E-10 -3.29384E-10  1.06874E-10 -3.07704E-11 -3.20081E-10
  -6.57001E-10 -8.54322E-10 -5.59658E-10 -1.22661E-09 -9.35897E-10 -9.03587E-10 -1.36683E-09 -1.36577E-09 -1.54929E-09 -1.74965E-09
  -1.72761E-09 -1.41713E-09 -1.40122E-09 -1.74435E-09 -1.91369E-09 -1.66631E-09 -1.94162E-09 -2.14489E-09 -1.13796E-09 -1.93183E-09
  -1.86861E-09 -1.81018E-09 -2.08901E-09 -1.48573E-09 -2.21082E-09 -1.88979E-09 -2.19811E-09 -2.11252E-09 -2.09535E-09 -2.13724E-09
  -2.04809E-09 -2.14026E-09 -1.67709E-09 -2.02349E-09 -2.08338E-09 -1.53709E-09 -1.85601E-09 -1.68188E-09 -1.95093E-09 -1.22570E-09
  -1.73655E-09 -1.74911E-09 -1.33103E-09 -1.30143E-09 -2.01947E-09 -1.42584E-09 -1.69786E-09 -8.67664E-10 -1.72633E-09 -1.18910E-09
  -1.81000E-09 -9.82718E-10 -1.25644E-09 -1.18641E-09 -1.06119E-09 -1.62804E-09 -1.31835E-09 -1.43423E-09 -8.28583E-10 -1.52627E-09
  -1.28506E-09 -1.02109E-09 -1.21482E-09 -1.21177E-09 -1.05222E-09 -1.15368E-09 -7.49953E-10 -1.18565E-09 -1.39691E-09 -1.00828E-09
  -8.50801E-10 -1.06334E-09 -1.10518E-09 -6.86475E-10 -1.08761E-09 -5.14182E-10 -7.88467E-10 -9.11738E-10 -1.10658E-09 -5.95106E-10
  -4.97770E-10 -7.52069E-10 -7.56165E-10
 NY points of the fit to the data follow
   1.54552E-08  1.65488E-08  1.63882E-08  1.57202E-08  1.56537E-08  1.55787E-08  1.49276E-08  1.37908E-08  1.27116E-08  1.22590E-08
   1.23500E-08  1.28587E-08  1.36606E-08  1.45099E-08  1.52181E-08  1.55106E-08  1.54559E-08  1.53796E-08  1.50530E-08  1.41762E-08
   1.33261E-08  1.28272E-08  1.24762E-08  1.21349E-08  1.21683E-08  1.27364E-08  1.36769E-08  1.45996E-08  1.51145E-08  1.52198E-08
   1.54931E-08  1.57300E-08  1.58173E-08  1.55875E-08  1.49273E-08  1.40548E-08  1.34988E-08  1.31112E-08  1.28220E-08  1.25941E-08
   1.23652E-08  1.20477E-08  1.15762E-08  1.10517E-08  1.07106E-08  1.04537E-08  1.02332E-08  1.00289E-08  9.83367E-09  9.65851E-09
   9.49789E-09  9.35541E-09  9.22854E-09  9.10594E-09  9.03913E-09  9.12974E-09  9.30395E-09  9.58475E-09  1.00235E-08  1.05387E-08
   1.10352E-08  1.15078E-08  1.18975E-08  1.21562E-08  1.22142E-08  1.20423E-08  1.17456E-08  1.13680E-08  1.07913E-08  1.02535E-08
   9.91107E-09  9.69436E-09  9.59030E-09  9.61153E-09  9.73448E-09  9.98226E-09  1.05176E-08  1.14700E-08  1.27670E-08  1.41556E-08
   1.53918E-08  1.62844E-08  1.67736E-08  1.70810E-08  1.71482E-08  1.66862E-08  1.57177E-08  1.44353E-08  1.32657E-08  1.24486E-08
   1.19049E-08  1.14960E-08  1.11642E-08  1.08810E-08  1.06293E-08  1.04048E-08  1.02062E-08  1.00247E-08  9.85134E-09  9.68404E-09
   9.53212E-09  9.39410E-09  9.26076E-09  9.12996E-09  9.00582E-09  8.88761E-09  8.77410E-09  8.66443E-09  8.55773E-09  8.45353E-09
   8.35157E-09  8.25139E-09  8.15269E-09  8.05521E-09  7.95869E-09  7.86294E-09  7.76776E-09  7.67297E-09  7.57841E-09  7.48401E-09
   7.38952E-09  7.29494E-09  7.20011E-09  7.10495E-09  7.00937E-09  6.91328E-09  6.81658E-09  6.71928E-09  6.62124E-09  6.52243E-09
   6.42279E-09  6.32224E-09  6.22080E-09  6.11837E-09  6.01492E-09  5.91037E-09  5.80480E-09  5.69807E-09  5.59020E-09  5.48113E-09
   5.37089E-09  5.25943E-09  5.14677E-09  5.03284E-09  4.91772E-09  4.80138E-09  4.68387E-09  4.56529E-09  4.44577E-09  4.32546E-09
   4.20453E-09  4.08319E-09  3.96167E-09  3.84029E-09  3.71941E-09  3.59953E-09  3.48131E-09  3.36563E-09  3.25377E-09  3.14757E-09
   3.04986E-09  2.96531E-09  2.90195E-09  2.87516E-09  2.91853E-09  3.12298E-09  3.84690E-09  6.57997E-09  1.08821E-08  1.55875E-08
   1.96027E-08  2.21840E-08  2.32368E-08  2.31311E-08  2.21244E-08  1.99280E-08  1.59654E-08  1.02885E-08  4.64855E-09  2.28732E-09
   1.42398E-09  9.42194E-10  6.08482E-10  3.47919E-10  1.29089E-10 -6.34581E-11 -2.38174E-10 -4.00030E-10 -5.52229E-10 -6.96779E-10
  -8.35032E-10 -9.68001E-10 -1.09633E-09 -1.22051E-09 -1.34086E-09 -1.45767E-09 -1.57114E-09 -1.68133E-09 -1.78837E-09 -1.89235E-09
  -1.99328E-09 -2.09120E-09 -2.18609E-09 -2.27797E-09 -2.36684E-09 -2.45264E-09 -2.53538E-09 -2.61504E-09 -2.69159E-09 -2.76494E-09
  -2.83515E-09 -2.90211E-09 -2.96581E-09 -3.02621E-09 -3.08331E-09 -3.13700E-09 -3.18730E-09 -3.23417E-09 -3.27754E-09 -3.31751E-09
  -3.35411E-09 -3.38745E-09 -3.41759E-09 -3.44460E-09 -3.46855E-09 -3.48953E-09 -3.50761E-09 -3.52286E-09 -3.53536E-09 -3.54517E-09
  -3.55239E-09 -3.55707E-09 -3.55929E-09 -3.55913E-09 -3.55667E-09 -3.55196E-09 -3.54510E-09 -3.53615E-09 -3.52518E-09 -3.51227E-09
  -3.49748E-09 -3.48091E-09 -3.46260E-09 -3.44264E-09 -3.42110E-09 -3.39804E-09 -3.37354E-09 -3.34767E-09 -3.32050E-09 -3.29209E-09
  -3.26253E-09 -3.23186E-09 -3.20018E-09 -3.16751E-09 -3.13395E-09 -3.09957E-09 -3.06442E-09 -3.02857E-09 -2.99208E-09 -2.95501E-09
  -2.91742E-09 -2.87940E-09 -2.84097E-09 -2.80221E-09 -2.76318E-09 -2.72392E-09 -2.68452E-09 -2.64500E-09 -2.60543E-09 -2.56586E-09
  -2.52635E-09 -2.48694E-09 -2.44769E-09 -2.40864E-09 -2.36985E-09 -2.33136E-09 -2.29321E-09 -2.25546E-09 -2.21813E-09 -2.18128E-09
  -2.14495E-09 -2.10917E-09 -2.07399E-09 -2.03943E-09 -2.00554E-09 -1.97235E-09 -1.93989E-09 -1.90818E-09 -1.87728E-09 -1.84719E-09
  -1.81794E-09 -1.78955E-09 -1.76198E-09 -1.73523E-09 -1.70925E-09 -1.68405E-09 -1.65958E-09 -1.63584E-09 -1.61279E-09 -1.59042E-09
  -1.56871E-09 -1.54763E-09 -1.52717E-09 -1.50731E-09 -1.48802E-09 -1.46929E-09 -1.45111E-09 -1.43344E-09 -1.41627E-09 -1.39959E-09
  -1.38337E-09 -1.36759E-09 -1.35226E-09 -1.33733E-09 -1.32280E-09 -1.30865E-09 -1.29488E-09 -1.28145E-09 -1.26835E-09 -1.25558E-09
  -1.24312E-09 -1.23095E-09 -1.21906E-09 -1.20744E-09 -1.19608E-09 -1.18495E-09 -1.17406E-09 -1.16340E-09 -1.15294E-09 -1.14269E-09
  -1.13262E-09 -1.12274E-09 -1.11303E-09 -1.10348E-09 -1.09409E-09 -1.08486E-09 -1.07576E-09 -1.06680E-09 -1.05797E-09 -1.04926E-09
  -1.04068E-09 -1.03221E-09 -1.02386E-09 -1.01561E-09 -1.00747E-09 -9.99436E-10 -9.91500E-10 -9.83669E-10 -9.75934E-10 -9.68302E-10
  -9.60770E-10 -9.53338E-10 -9.46010E-10 -9.38785E-10 -9.31669E-10 -9.24660E-10 -9.17770E-10 -9.10995E-10 -9.04343E-10 -8.97820E-10
  -8.91428E-10 -8.85177E-10 -8.79076E-10
 NY background values follow
     3.503E-09    3.594E-09    3.684E-09    3.773E-09    3.861E-09    3.947E-09    4.032E-09    4.115E-09    4.197E-09    4.278E-09
     4.358E-09    4.436E-09    4.513E-09    4.588E-09    4.662E-09    4.735E-09    4.806E-09    4.877E-09    4.945E-09    5.013E-09
     5.079E-09    5.144E-09    5.207E-09    5.269E-09    5.330E-09    5.390E-09    5.448E-09    5.505E-09    5.560E-09    5.614E-09
     5.667E-09    5.719E-09    5.769E-09    5.818E-09    5.866E-09    5.912E-09    5.957E-09    6.001E-09    6.044E-09    6.085E-09
     6.125E-09    6.164E-09    6.202E-09    6.238E-09    6.273E-09    6.307E-09    6.340E-09    6.371E-09    6.402E-09    6.431E-09
     6.459E-09    6.485E-09    6.511E-09    6.535E-09    6.559E-09    6.581E-09    6.602E-09    6.622E-09    6.641E-09    6.658E-09
     6.675E-09    6.691E-09    6.705E-09    6.719E-09    6.731E-09    6.743E-09    6.753E-09    6.762E-09    6.771E-09    6.778E-09
     6.785E-09    6.791E-09    6.795E-09    6.799E-09    6.802E-09    6.804E-09    6.805E-09    6.805E-09    6.804E-09    6.802E-09
     6.799E-09    6.795E-09    6.790E-09    6.784E-09    6.778E-09    6.770E-09    6.761E-09    6.751E-09    6.740E-09    6.728E-09
     6.715E-09    6.701E-09    6.686E-09    6.669E-09    6.652E-09    6.633E-09    6.613E-09    6.592E-09    6.570E-09    6.547E-09
     6.522E-09    6.496E-09    6.469E-09    6.441E-09    6.411E-09    6.381E-09    6.348E-09    6.315E-09    6.280E-09    6.244E-09
     6.206E-09    6.167E-09    6.127E-09    6.085E-09    6.042E-09    5.997E-09    5.951E-09    5.904E-09    5.854E-09    5.804E-09
     5.752E-09    5.698E-09    5.643E-09    5.586E-09    5.527E-09    5.467E-09    5.405E-09    5.342E-09    5.277E-09    5.210E-09
     5.141E-09    5.071E-09    4.999E-09    4.926E-09    4.850E-09    4.773E-09    4.694E-09    4.613E-09    4.531E-09    4.446E-09
     4.360E-09    4.272E-09    4.182E-09    4.090E-09    3.996E-09    3.900E-09    3.802E-09    3.703E-09    3.602E-09    3.499E-09
     3.394E-09    3.288E-09    3.180E-09    3.071E-09    2.961E-09    2.849E-09    2.737E-09    2.623E-09    2.508E-09    2.392E-09
     2.276E-09    2.158E-09    2.040E-09    1.922E-09    1.802E-09    1.683E-09    1.563E-09    1.442E-09    1.322E-09    1.201E-09
     1.080E-09    9.598E-10    8.393E-10    7.189E-10    5.989E-10    4.792E-10    3.600E-10    2.414E-10    1.233E-10    5.921E-12
    -1.107E-10   -2.264E-10   -3.412E-10   -4.549E-10   -5.676E-10   -6.791E-10   -7.893E-10   -8.982E-10   -1.006E-09   -1.112E-09
    -1.216E-09   -1.319E-09   -1.420E-09   -1.519E-09   -1.617E-09   -1.712E-09   -1.806E-09   -1.897E-09   -1.986E-09   -2.073E-09
    -2.158E-09   -2.240E-09   -2.320E-09   -2.398E-09   -2.473E-09   -2.545E-09   -2.615E-09   -2.682E-09   -2.746E-09   -2.807E-09
    -2.865E-09   -2.921E-09   -2.973E-09   -3.022E-09   -3.069E-09   -3.112E-09   -3.151E-09   -3.188E-09   -3.221E-09   -3.251E-09
    -3.278E-09   -3.302E-09   -3.322E-09   -3.340E-09   -3.355E-09   -3.367E-09   -3.376E-09   -3.382E-09   -3.386E-09   -3.387E-09
    -3.386E-09   -3.382E-09   -3.376E-09   -3.368E-09   -3.357E-09   -3.345E-09   -3.330E-09   -3.313E-09   -3.294E-09   -3.274E-09
    -3.251E-09   -3.227E-09   -3.202E-09   -3.174E-09   -3.146E-09   -3.115E-09   -3.084E-09   -3.051E-09   -3.017E-09   -2.982E-09
    -2.945E-09   -2.908E-09   -2.870E-09   -2.830E-09   -2.790E-09   -2.750E-09   -2.708E-09   -2.666E-09   -2.623E-09   -2.580E-09
    -2.536E-09   -2.492E-09   -2.448E-09   -2.403E-09   -2.358E-09   -2.313E-09   -2.268E-09   -2.223E-09   -2.177E-09   -2.132E-09
    -2.087E-09   -2.042E-09   -1.998E-09   -1.953E-09   -1.909E-09   -1.865E-09   -1.822E-09   -1.779E-09   -1.736E-09   -1.695E-09
    -1.653E-09   -1.612E-09   -1.572E-09   -1.533E-09   -1.494E-09   -1.456E-09   -1.419E-09   -1.382E-09   -1.347E-09   -1.312E-09
    -1.278E-09   -1.246E-09   -1.213E-09   -1.182E-09   -1.152E-09   -1.122E-09   -1.094E-09   -1.066E-09   -1.038E-09   -1.012E-09
    -9.859E-10   -9.607E-10   -9.362E-10   -9.123E-10   -8.891E-10   -8.664E-10   -8.443E-10   -8.228E-10   -8.018E-10   -7.814E-10
    -7.614E-10   -7.419E-10   -7.229E-10   -7.044E-10   -6.863E-10   -6.686E-10   -6.513E-10   -6.344E-10   -6.178E-10   -6.017E-10
    -5.858E-10   -5.703E-10   -5.551E-10   -5.403E-10   -5.257E-10   -5.114E-10   -4.973E-10   -4.835E-10   -4.700E-10   -4.567E-10
    -4.436E-10   -4.308E-10   -4.181E-10   -4.056E-10   -3.934E-10   -3.813E-10   -3.694E-10   -3.577E-10   -3.461E-10   -3.347E-10
    -3.234E-10   -3.123E-10   -3.013E-10   -2.905E-10   -2.798E-10   -2.693E-10   -2.588E-10   -2.486E-10   -2.384E-10   -2.284E-10
    -2.185E-10   -2.087E-10   -1.991E-10   -1.896E-10   -1.803E-10   -1.711E-10   -1.620E-10   -1.531E-10   -1.443E-10   -1.357E-10
    -1.273E-10   -1.190E-10   -1.109E-10
 Glc      Conc. = 2.79E-10
   3.19447E-09  3.39112E-09  3.59077E-09  3.79503E-09  3.98286E-09  4.14749E-09  4.27382E-09  4.37227E-09  4.43050E-09  4.45040E-09
   4.47208E-09  4.49891E-09  4.53108E-09  4.58402E-09  4.67709E-09  4.81617E-09  5.00189E-09  5.22579E-09  5.45281E-09  5.66014E-09
   5.84925E-09  6.01321E-09  6.14100E-09  6.22662E-09  6.24903E-09  6.21825E-09  6.19494E-09  6.19908E-09  6.22556E-09  6.26334E-09
   6.29650E-09  6.32489E-09  6.35547E-09  6.37870E-09  6.39064E-09  6.40565E-09  6.42317E-09  6.43566E-09  6.44712E-09  6.46246E-09
   6.48060E-09  6.50031E-09  6.52105E-09  6.54231E-09  6.56384E-09  6.58538E-09  6.60678E-09  6.62786E-09  6.64854E-09  6.66874E-09
   6.68834E-09  6.70734E-09  6.72564E-09  6.74324E-09  6.76012E-09  6.77618E-09  6.79146E-09  6.80597E-09  6.81957E-09  6.83238E-09
   6.84435E-09  6.85544E-09  6.86570E-09  6.87508E-09  6.88363E-09  6.89130E-09  6.89812E-09  6.90406E-09  6.90916E-09  6.91343E-09
   6.91683E-09  6.91939E-09  6.92116E-09  6.92207E-09  6.92217E-09  6.92144E-09  6.91985E-09  6.91741E-09  6.91409E-09  6.90990E-09
   6.90479E-09  6.89878E-09  6.89185E-09  6.88398E-09  6.87517E-09  6.86539E-09  6.85463E-09  6.84289E-09  6.83015E-09  6.81639E-09
   6.80159E-09  6.78577E-09  6.76885E-09  6.75090E-09  6.73184E-09  6.71166E-09  6.69037E-09  6.66795E-09  6.64437E-09  6.61963E-09
   6.59370E-09  6.56657E-09  6.53823E-09  6.50867E-09  6.47783E-09  6.44574E-09  6.41236E-09  6.37771E-09  6.34174E-09  6.30438E-09
   6.26574E-09  6.22570E-09  6.18427E-09  6.14143E-09  6.09718E-09  6.05149E-09  6.00436E-09  5.95575E-09  5.90564E-09  5.85407E-09
   5.80092E-09  5.74627E-09  5.69004E-09  5.63226E-09  5.57288E-09  5.51189E-09  5.44925E-09  5.38501E-09  5.31909E-09  5.25150E-09
   5.18223E-09  5.11123E-09  5.03854E-09  4.96411E-09  4.88792E-09  4.80993E-09  4.73023E-09  4.64869E-09  4.56536E-09  4.48017E-09
   4.39317E-09  4.30432E-09  4.21361E-09  4.12100E-09  4.02652E-09  3.93013E-09  3.83186E-09  3.73177E-09  3.62992E-09  3.52641E-09
   3.42128E-09  3.31465E-09  3.20655E-09  3.09710E-09  2.98636E-09  2.87443E-09  2.76140E-09  2.64736E-09  2.53244E-09  2.41675E-09
   2.30043E-09  2.18373E-09  2.06692E-09  1.95058E-09  1.83587E-09  1.72602E-09  1.63543E-09  1.60857E-09  1.61782E-09  1.63072E-09
   1.61817E-09  1.56284E-09  1.46652E-09  1.34119E-09  1.19168E-09  1.00630E-09  7.69151E-10  4.88991E-10  2.27602E-10  6.90918E-11
  -6.38592E-11 -1.88438E-10 -3.08872E-10 -4.26577E-10 -5.42192E-10 -6.56001E-10 -7.68121E-10 -8.78563E-10 -9.87408E-10 -1.09459E-09
  -1.20005E-09 -1.30379E-09 -1.40573E-09 -1.50582E-09 -1.60396E-09 -1.70013E-09 -1.79427E-09 -1.88627E-09 -1.97608E-09 -2.06366E-09
  -2.14894E-09 -2.23184E-09 -2.31229E-09 -2.39024E-09 -2.46565E-09 -2.53840E-09 -2.60848E-09 -2.67581E-09 -2.74037E-09 -2.80202E-09
  -2.86080E-09 -2.91659E-09 -2.96935E-09 -3.01904E-09 -3.06564E-09 -3.10903E-09 -3.14920E-09 -3.18614E-09 -3.21974E-09 -3.25009E-09
  -3.27724E-09 -3.30128E-09 -3.32224E-09 -3.34022E-09 -3.35527E-09 -3.36748E-09 -3.37691E-09 -3.38362E-09 -3.38769E-09 -3.38919E-09
  -3.38820E-09 -3.38478E-09 -3.37900E-09 -3.37094E-09 -3.36067E-09 -3.34825E-09 -3.33376E-09 -3.31727E-09 -3.29886E-09 -3.27858E-09
  -3.25651E-09 -3.23274E-09 -3.20731E-09 -3.18031E-09 -3.15180E-09 -3.12185E-09 -3.09054E-09 -3.05793E-09 -3.02408E-09 -2.98907E-09
  -2.95298E-09 -2.91584E-09 -2.87776E-09 -2.83876E-09 -2.79892E-09 -2.75834E-09 -2.71705E-09 -2.67512E-09 -2.63261E-09 -2.58957E-09
  -2.54609E-09 -2.50222E-09 -2.45801E-09 -2.41353E-09 -2.36882E-09 -2.32395E-09 -2.27899E-09 -2.23395E-09 -2.18893E-09 -2.14397E-09
  -2.09911E-09 -2.05440E-09 -2.00991E-09 -1.96567E-09 -1.92174E-09 -1.87815E-09 -1.83496E-09 -1.79222E-09 -1.74994E-09 -1.70819E-09
  -1.66701E-09 -1.62643E-09 -1.58649E-09 -1.54722E-09 -1.50866E-09 -1.47085E-09 -1.43382E-09 -1.39758E-09 -1.36218E-09 -1.32765E-09
  -1.29400E-09 -1.26125E-09 -1.22937E-09 -1.19834E-09 -1.16814E-09 -1.13874E-09 -1.11013E-09 -1.08227E-09 -1.05516E-09 -1.02876E-09
  -1.00306E-09 -9.78040E-10 -9.53676E-10 -9.29946E-10 -9.06829E-10 -8.84309E-10 -8.62369E-10 -8.40987E-10 -8.20142E-10 -7.99817E-10
  -7.79997E-10 -7.60659E-10 -7.41794E-10 -7.23375E-10 -7.05393E-10 -6.87828E-10 -6.70667E-10 -6.53889E-10 -6.37485E-10 -6.21440E-10
  -6.05738E-10 -5.90359E-10 -5.75300E-10 -5.60545E-10 -5.46078E-10 -5.31884E-10 -5.17965E-10 -5.04297E-10 -4.90877E-10 -4.77685E-10
  -4.64723E-10 -4.51973E-10 -4.39427E-10 -4.27078E-10 -4.14922E-10 -4.02947E-10 -3.91148E-10 -3.79515E-10 -3.68050E-10 -3.56732E-10
  -3.45575E-10 -3.34560E-10 -3.23693E-10 -3.12966E-10 -3.02369E-10 -2.91916E-10 -2.81591E-10 -2.71401E-10 -2.61339E-10 -2.51410E-10
  -2.41612E-10 -2.31943E-10 -2.22409E-10 -2.13008E-10 -2.03746E-10 -1.94622E-10 -1.85645E-10 -1.76813E-10 -1.68133E-10 -1.59612E-10
  -1.51253E-10 -1.43062E-10 -1.35050E-10
 Gln      Conc. = 1.61E-09
   2.15892E-09  2.41709E-09  2.78292E-09  3.24790E-09  3.77045E-09  4.29697E-09  4.77103E-09  5.14728E-09  5.41493E-09  5.63156E-09
   5.67763E-09  5.59615E-09  5.54394E-09  5.40371E-09  5.30309E-09  5.24486E-09  5.21350E-09  5.19969E-09  5.19783E-09  5.20439E-09
   5.21696E-09  5.23384E-09  5.25384E-09  5.27611E-09  5.30012E-09  5.32541E-09  5.35127E-09  5.37746E-09  5.40371E-09  5.42960E-09
   5.45488E-09  5.47936E-09  5.50282E-09  5.52515E-09  5.54615E-09  5.56570E-09  5.58360E-09  5.59971E-09  5.61387E-09  5.62583E-09
   5.63548E-09  5.64257E-09  5.64698E-09  5.64848E-09  5.64681E-09  5.64164E-09  5.63264E-09  5.61894E-09  5.60026E-09  5.57663E-09
   5.54701E-09  5.51137E-09  5.47161E-09  5.43716E-09  5.46493E-09  5.64043E-09  5.89834E-09  6.25104E-09  6.76091E-09  7.37542E-09
   8.00821E-09  8.63085E-09  9.16321E-09  9.52187E-09  9.65459E-09  9.56690E-09  9.36586E-09  9.10182E-09  8.61207E-09  8.11610E-09
   7.77683E-09  7.53707E-09  7.39209E-09  7.39451E-09  7.55028E-09  7.86978E-09  8.26948E-09  8.71983E-09  9.18454E-09  9.61117E-09
   9.95634E-09  1.01606E-08  1.01674E-08  1.00981E-08  9.94920E-09  9.62195E-09  9.30032E-09  9.04419E-09  8.74784E-09  8.49658E-09
   8.30226E-09  8.14516E-09  8.01382E-09  7.90044E-09  7.79941E-09  7.70826E-09  7.62495E-09  7.54759E-09  7.47512E-09  7.40659E-09
   7.34103E-09  7.27770E-09  7.21616E-09  7.15611E-09  7.09720E-09  7.03916E-09  6.98165E-09  6.92450E-09  6.86749E-09  6.81041E-09
   6.75324E-09  6.69575E-09  6.63785E-09  6.57945E-09  6.52045E-09  6.46078E-09  6.40036E-09  6.33910E-09  6.27694E-09  6.21386E-09
   6.14972E-09  6.08456E-09  6.01826E-09  5.95082E-09  5.88219E-09  5.81230E-09  5.74110E-09  5.66864E-09  5.59480E-09  5.51958E-09
   5.44295E-09  5.36485E-09  5.28530E-09  5.20424E-09  5.12166E-09  5.03748E-09  4.95180E-09  4.86447E-09  4.77554E-09  4.68493E-09
   4.59269E-09  4.49877E-09  4.40316E-09  4.30581E-09  4.20676E-09  4.10597E-09  4.00346E-09  3.89929E-09  3.79354E-09  3.68630E-09
   3.57765E-09  3.46769E-09  3.35650E-09  3.24420E-09  3.13092E-09  3.01680E-09  2.90200E-09  2.78673E-09  2.67127E-09  2.55598E-09
   2.44137E-09  2.32828E-09  2.21809E-09  2.11342E-09  2.01994E-09  1.95314E-09  1.97511E-09  2.35519E-09  2.96631E-09  3.61998E-09
   4.14290E-09  4.42354E-09  4.46050E-09  4.32136E-09  4.04357E-09  3.56916E-09  2.80072E-09  1.75995E-09  7.61855E-10  3.59986E-10
   1.40934E-10 -2.73079E-11 -1.74386E-10 -3.10245E-10 -4.39180E-10 -5.63304E-10 -6.83743E-10 -8.01117E-10 -9.15889E-10 -1.02825E-09
  -1.13831E-09 -1.24620E-09 -1.35193E-09 -1.45552E-09 -1.55692E-09 -1.65614E-09 -1.75316E-09 -1.84789E-09 -1.94030E-09 -2.03038E-09
  -2.11805E-09 -2.20326E-09 -2.28593E-09 -2.36604E-09 -2.44353E-09 -2.51832E-09 -2.59037E-09 -2.65964E-09 -2.72607E-09 -2.78956E-09
  -2.85014E-09 -2.90769E-09 -2.96218E-09 -3.01356E-09 -3.06182E-09 -3.10683E-09 -3.14861E-09 -3.18712E-09 -3.22227E-09 -3.25414E-09
  -3.28279E-09 -3.30829E-09 -3.33071E-09 -3.35012E-09 -3.36658E-09 -3.38018E-09 -3.39097E-09 -3.39904E-09 -3.40444E-09 -3.40726E-09
