 LCModel (Version 6.3-1R) Copyright: S.W. Provencher.          Ref.: Magn. Reson. Med. 30:672-679 (1993).                
 onepulse 18x29_ftSpec_smooth_lcm
 26 lines in following concentration table = NCONC+1
    Conc.  %SD /Cr+PCr  Metabolite                                         
    0.000 999%   0.000 Ala                                                 
 1.63E-09  66%  45.104 Asp                                                 
    0.000 999%   0.000 Cr                                                  
 7.08E-10 109%  19.610 GABA                                                
    0.000 999%   0.000 Glc                                                 
 1.69E-09  55%  46.787 Gln                                                 
    0.000 999%   0.000 Glu                                                 
 5.35E-10 493%  14.823 Glyc                                                
    0.000 999%   0.000 GPC                                                 
 8.94E-10 105%  24.747 GSH                                                 
 1.65E-09 132%  45.772 Ins                                                 
    0.000 999%   0.000 Lac                                                 
 5.83E-10  51%  16.147 NAAG                                                
    0.000 999%   0.000 NAA                                                 
    0.000 999%   0.000 PCh                                                 
 3.61E-11 999%   1.000 PCr                                                 
 2.06E-09  67%  56.951 PE                                                  
 4.19E-10  92%  11.595 Scyllo                                              
 4.47E-10 267%  12.365 Ser                                                 
 4.15E-11 999%   1.149 Tau                                                 
    0.000 999%   0.000 GPC+PCh                                             
 5.83E-10  51%  16.147 NAA+NAAG                                            
 2.19E-09  34%  60.595 Ins+Glyc                                            
 3.61E-11 999%   1.000 Cr+PCr                                              
 1.69E-09  55%  46.787 Glu+Gln                                             
   6 lines in following misc. output table
  FWHM = 0.123 ppm    S/N =   3                                            
  Data shift = 0.414 ppm                                                   
  Ph: -35 deg     -45.4 deg/ppm                                            
  alphaB,S = 7.9E-01,   2.6E+01                                            
    8 spline knots.   Ns = 5(1)                                            
  (10) 4 infls.   ( 5) 3 extrs.                                            
  363 points on ppm-axis = NY
      4.250000     4.238821     4.227641     4.216462     4.205282     4.194103     4.182923     4.171744     4.160564     4.149385
      4.138206     4.127026     4.115847     4.104667     4.093488     4.082308     4.071129     4.059949     4.048770     4.037591
      4.026411     4.015232     4.004052     3.992873     3.981693     3.970514     3.959334     3.948155     3.936975     3.925796
      3.914617     3.903437     3.892258     3.881078     3.869899     3.858719     3.847540     3.836360     3.825181     3.814002
      3.802822     3.791643     3.780463     3.769284     3.758104     3.746925     3.735745     3.724566     3.713387     3.702207
      3.691028     3.679848     3.668669     3.657489     3.646310     3.635130     3.623951     3.612772     3.601592     3.590413
      3.579233     3.568054     3.556874     3.545695     3.534515     3.523336     3.512156     3.500977     3.489798     3.478618
      3.467439     3.456259     3.445080     3.433900     3.422721     3.411541     3.400362     3.389183     3.378003     3.366824
      3.355644     3.344465     3.333285     3.322106     3.310926     3.299747     3.288568     3.277388     3.266209     3.255029
      3.243850     3.232670     3.221491     3.210311     3.199132     3.187953     3.176773     3.165594     3.154414     3.143235
      3.132055     3.120876     3.109696     3.098517     3.087337     3.076158     3.064979     3.053799     3.042620     3.031440
      3.020261     3.009081     2.997902     2.986722     2.975543     2.964364     2.953184     2.942005     2.930825     2.919646
      2.908466     2.897287     2.886107     2.874928     2.863749     2.852569     2.841390     2.830210     2.819031     2.807851
      2.796672     2.785492     2.774313     2.763134     2.751954     2.740775     2.729595     2.718416     2.707236     2.696057
      2.684877     2.673698     2.662519     2.651339     2.640160     2.628980     2.617801     2.606621     2.595442     2.584262
      2.573083     2.561903     2.550724     2.539545     2.528365     2.517186     2.506006     2.494827     2.483647     2.472468
      2.461288     2.450109     2.438930     2.427750     2.416571     2.405391     2.394212     2.383032     2.371853     2.360673
      2.349494     2.338315     2.327135     2.315956     2.304776     2.293597     2.282417     2.271238     2.260058     2.248879
      2.237700     2.226520     2.215341     2.204161     2.192982     2.181802     2.170623     2.159443     2.148264     2.137084
      2.125905     2.114726     2.103546     2.092367     2.081187     2.070008     2.058828     2.047649     2.036469     2.025290
      2.014111     2.002931     1.991752     1.980572     1.969393     1.958213     1.947034     1.935854     1.924675     1.913496
      1.902316     1.891137     1.879957     1.868778     1.857598     1.846419     1.835239     1.824060     1.812881     1.801701
      1.790522     1.779342     1.768163     1.756983     1.745804     1.734624     1.723445     1.712265     1.701086     1.689907
      1.678727     1.667548     1.656368     1.645189     1.634009     1.622830     1.611650     1.600471     1.589292     1.578112
      1.566933     1.555753     1.544574     1.533394     1.522215     1.511035     1.499856     1.488677     1.477497     1.466318
      1.455138     1.443959     1.432779     1.421600     1.410420     1.399241     1.388062     1.376882     1.365703     1.354523
      1.343344     1.332164     1.320985     1.309805     1.298626     1.287446     1.276267     1.265088     1.253908     1.242729
      1.231549     1.220370     1.209190     1.198011     1.186831     1.175652     1.164473     1.153293     1.142114     1.130934
      1.119755     1.108575     1.097396     1.086216     1.075037     1.063858     1.052678     1.041499     1.030319     1.019140
      1.007960     0.996781     0.985601     0.974422     0.963243     0.952063     0.940884     0.929704     0.918525     0.907345
      0.896166     0.884986     0.873807     0.862628     0.851448     0.840269     0.829089     0.817910     0.806730     0.795551
      0.784371     0.773192     0.762012     0.750833     0.739654     0.728474     0.717295     0.706115     0.694936     0.683756
      0.672577     0.661397     0.650218     0.639039     0.627859     0.616680     0.605500     0.594321     0.583141     0.571962
      0.560782     0.549603     0.538424     0.527244     0.516065     0.504885     0.493706     0.482526     0.471347     0.460167
      0.448988     0.437809     0.426629     0.415450     0.404270     0.393091     0.381911     0.370732     0.359552     0.348373
      0.337193     0.326014     0.314835     0.303655     0.292476     0.281296     0.270117     0.258937     0.247758     0.236578
      0.225399     0.214220     0.203040
 NY phased data points follow
   7.90360E-09  7.66661E-09  8.05215E-09  8.27842E-09  8.76689E-09  9.10277E-09  9.54197E-09  9.72443E-09  9.58732E-09  1.00537E-08
   9.78567E-09  9.05410E-09  9.26950E-09  8.86547E-09  8.70865E-09  7.91381E-09  8.12226E-09  8.05152E-09  8.43280E-09  9.04925E-09
   9.07235E-09  8.73486E-09  8.12244E-09  7.83822E-09  8.55702E-09  9.66284E-09  1.05710E-08  1.10701E-08  1.00523E-08  9.43828E-09
   8.28399E-09  7.24235E-09  7.34288E-09  7.28365E-09  6.86275E-09  7.12253E-09  7.01435E-09  6.86791E-09  6.97344E-09  6.59422E-09
   6.46268E-09  5.87874E-09  5.87893E-09  5.76511E-09  6.17173E-09  6.33176E-09  6.67701E-09  6.57273E-09  6.03742E-09  6.05389E-09
   5.89900E-09  6.25421E-09  6.38752E-09  6.91057E-09  6.55468E-09  6.73068E-09  8.39095E-09  9.37850E-09  1.09339E-08  1.08810E-08
   9.48974E-09  9.13899E-09  8.52069E-09  7.61748E-09  7.27265E-09  6.86876E-09  6.49737E-09  6.20566E-09  6.38625E-09  6.19529E-09
   6.13787E-09  6.26529E-09  7.56389E-09  1.06743E-08  1.37194E-08  1.57135E-08  1.52054E-08  1.36985E-08  1.23382E-08  1.21070E-08
   1.14927E-08  1.12094E-08  1.02595E-08  1.02712E-08  1.05866E-08  1.00865E-08  9.29584E-09  9.03791E-09  8.84235E-09  8.76289E-09
   8.23661E-09  8.14612E-09  7.53724E-09  7.45219E-09  7.33087E-09  7.33864E-09  7.44026E-09  7.55793E-09  7.04315E-09  7.29981E-09
   6.98295E-09  7.34376E-09  7.01715E-09  5.85319E-09  5.82659E-09  5.25306E-09  4.94330E-09  5.42412E-09  5.50758E-09  5.74712E-09
   5.38494E-09  5.66351E-09  5.59992E-09  5.50741E-09  6.08936E-09  6.26079E-09  6.40361E-09  5.73955E-09  5.28279E-09  4.64101E-09
   4.02229E-09  4.34566E-09  4.25875E-09  4.37138E-09  4.52432E-09  4.28623E-09  4.45204E-09  4.29387E-09  4.63677E-09  4.53976E-09
   4.61048E-09  4.12042E-09  3.82516E-09  5.05324E-09  5.47102E-09  6.56396E-09  6.76395E-09  7.12977E-09  6.90510E-09  7.19940E-09
   7.87459E-09  8.28157E-09  9.03552E-09  9.13527E-09  8.92566E-09  9.03667E-09  9.35871E-09  8.65257E-09  8.45148E-09  8.82945E-09
   9.11762E-09  8.82529E-09  9.25724E-09  9.01690E-09  8.87264E-09  8.69399E-09  9.25450E-09  9.31684E-09  9.11092E-09  9.29032E-09
   9.04463E-09  9.25074E-09  8.41328E-09  8.55547E-09  9.38616E-09  1.28897E-08  1.74437E-08  2.01054E-08  2.12338E-08  2.05282E-08
   2.01728E-08  2.02384E-08  2.00589E-08  1.95437E-08  1.96088E-08  1.94414E-08  1.91098E-08  1.88513E-08  1.84111E-08  1.84899E-08
   1.80939E-08  1.69877E-08  1.59518E-08  1.50394E-08  1.33560E-08  1.25087E-08  1.01200E-08  8.01224E-09  5.71539E-09  3.43000E-09
   1.94602E-10 -2.11629E-09 -4.82355E-09 -7.33929E-09 -9.48229E-09 -1.16730E-08 -1.29738E-08 -1.44999E-08 -1.52259E-08 -1.53109E-08
  -1.50086E-08 -1.40381E-08 -1.32121E-08 -1.09734E-08 -1.00322E-08 -7.41802E-09 -6.17016E-09 -4.77670E-09 -3.64224E-09 -2.30350E-09
  -1.66634E-09 -1.74945E-09 -1.83578E-09 -2.22427E-09 -2.54519E-09 -2.24245E-09 -2.48067E-09 -2.61638E-09 -2.25595E-09 -1.35186E-09
  -1.23259E-09 -8.49910E-10 -8.43576E-10 -1.02906E-09 -1.47824E-09 -1.34898E-09 -1.79936E-09 -1.97346E-09 -2.05952E-09 -1.63203E-09
  -1.89329E-09 -5.70833E-10 -6.61913E-10 -4.19093E-10 -8.11594E-10 -1.57004E-09 -1.66446E-09 -1.75450E-09 -1.64411E-09 -1.82034E-09
  -1.73274E-09 -1.82504E-09 -1.55701E-09 -1.39398E-09 -1.02854E-09 -1.02916E-09 -1.08143E-09 -8.33485E-10 -9.14856E-10 -6.84225E-10
  -1.02970E-09 -5.06159E-10 -3.34503E-10 -6.89247E-10 -9.52663E-10 -1.04664E-09 -9.16835E-10 -1.17975E-09 -1.52364E-09 -1.50015E-09
  -1.99304E-09 -2.07293E-09 -2.52309E-09 -2.46468E-09 -2.29032E-09 -2.13837E-09 -1.52807E-09 -1.51452E-09 -1.56064E-09 -1.38034E-09
  -8.06171E-10 -7.55618E-10 -6.86617E-10 -6.84636E-10 -2.60617E-10  6.02570E-11 -1.35084E-10 -1.33591E-10 -2.01829E-10  2.97816E-10
  -6.10467E-10 -6.42643E-11 -5.44389E-10 -3.06691E-10 -4.68562E-10 -8.43456E-10 -8.03057E-10 -8.52483E-10 -8.98680E-10 -5.55586E-10
  -8.29469E-10 -7.54333E-10 -6.93667E-10 -1.16702E-09 -1.53556E-09 -1.11613E-09 -1.16733E-09 -1.19619E-09 -1.34954E-09 -1.29834E-09
  -1.37435E-09 -1.51087E-09 -1.12524E-09 -1.81622E-09 -1.46990E-09 -1.64993E-09 -1.60228E-09 -2.02315E-09 -1.89826E-09 -1.76286E-09
  -2.18274E-09 -1.76729E-09 -1.97934E-09 -1.60127E-09 -2.20434E-09 -2.44181E-09 -1.82325E-09 -2.25588E-09 -2.16343E-09 -1.87376E-09
  -1.73786E-09 -2.13437E-09 -2.58497E-09 -2.22214E-09 -1.93405E-09 -1.96642E-09 -1.95753E-09 -2.49496E-09 -2.06385E-09 -2.24221E-09
  -1.45074E-09 -2.32385E-09 -1.94048E-09 -2.12908E-09 -2.25168E-09 -2.06330E-09 -2.30956E-09 -2.19293E-09 -2.14292E-09 -2.42092E-09
  -2.33999E-09 -2.24424E-09 -2.40297E-09 -1.85217E-09 -2.35077E-09 -2.33192E-09 -2.35526E-09 -2.12635E-09 -2.30613E-09 -2.30159E-09
  -2.34879E-09 -2.37142E-09 -2.02795E-09 -2.36796E-09 -2.28874E-09 -2.75239E-09 -2.14997E-09 -2.16962E-09 -2.12427E-09 -2.12649E-09
  -2.09384E-09 -2.46222E-09 -1.72985E-09
 NY points of the fit to the data follow
   9.94030E-09  9.22705E-09  8.54380E-09  7.97270E-09  8.08506E-09  8.49985E-09  8.57391E-09  8.77235E-09  9.99646E-09  1.04750E-08
   1.00849E-08  9.61372E-09  9.07608E-09  8.92839E-09  8.67122E-09  8.25627E-09  8.31175E-09  9.02380E-09  9.29991E-09  8.03629E-09
   7.30053E-09  7.86698E-09  8.42751E-09  8.95320E-09  9.58870E-09  1.05788E-08  1.12385E-08  1.09713E-08  9.74970E-09  8.69581E-09
   8.41183E-09  7.84408E-09  7.25622E-09  7.17544E-09  7.03415E-09  6.71940E-09  6.54001E-09  6.63816E-09  6.70650E-09  6.57681E-09
   6.42848E-09  6.42904E-09  6.42036E-09  6.32272E-09  6.41530E-09  6.50023E-09  6.27192E-09  5.67496E-09  5.69358E-09  5.99106E-09
   6.48803E-09  6.99723E-09  7.26784E-09  7.49026E-09  7.93720E-09  8.14698E-09  8.33055E-09  9.08669E-09  9.56536E-09  9.30671E-09
   9.17752E-09  9.16406E-09  9.23669E-09  9.11791E-09  8.72955E-09  8.49357E-09  8.38866E-09  7.99662E-09  7.55129E-09  7.70271E-09
   8.15219E-09  8.54891E-09  9.01426E-09  9.42410E-09  1.00676E-08  1.09718E-08  1.21765E-08  1.30407E-08  1.32332E-08  1.30359E-08
   1.26894E-08  1.21661E-08  1.16814E-08  1.15433E-08  1.12764E-08  1.03674E-08  9.12927E-09  8.03716E-09  7.57516E-09  7.33687E-09
   7.14275E-09  7.03277E-09  6.98545E-09  6.83847E-09  6.65899E-09  6.62980E-09  6.53470E-09  6.38106E-09  6.32173E-09  6.25804E-09
   6.20365E-09  6.18458E-09  6.17146E-09  6.16486E-09  6.16910E-09  6.18049E-09  6.19634E-09  6.21526E-09  6.23579E-09  6.25757E-09
   6.27999E-09  6.30252E-09  6.32483E-09  6.34666E-09  6.36778E-09  6.38806E-09  6.40727E-09  6.42522E-09  6.44178E-09  6.45679E-09
   6.47019E-09  6.48186E-09  6.49173E-09  6.49967E-09  6.50564E-09  6.50954E-09  6.51131E-09  6.51087E-09  6.50818E-09  6.50316E-09
   6.49576E-09  6.48593E-09  6.47361E-09  6.45876E-09  6.44133E-09  6.42130E-09  6.39858E-09  6.37316E-09  6.34501E-09  6.31409E-09
   6.28039E-09  6.24387E-09  6.20452E-09  6.16234E-09  6.11730E-09  6.06944E-09  6.01880E-09  5.96556E-09  5.90988E-09  5.85200E-09
   5.79215E-09  5.73064E-09  5.66784E-09  5.60420E-09  5.54032E-09  5.47697E-09  5.41521E-09  5.35654E-09  5.30314E-09  5.25837E-09
   5.22765E-09  5.22032E-09  5.25390E-09  5.36521E-09  5.64568E-09  6.39015E-09  9.05640E-09  1.67158E-08  2.17471E-08  2.27990E-08
   2.19309E-08  2.08719E-08  2.02319E-08  2.02194E-08  2.08537E-08  2.13299E-08  1.97128E-08  1.41772E-08  6.83053E-09  4.79144E-09
   3.98550E-09  3.52812E-09  3.21175E-09  2.96544E-09  2.75872E-09  2.57647E-09  2.41039E-09  2.25559E-09  2.10899E-09  1.96861E-09
   1.83311E-09  1.70157E-09  1.57335E-09  1.44800E-09  1.32520E-09  1.20470E-09  1.08636E-09  9.70067E-10  8.55756E-10  7.43378E-10
   6.32924E-10  5.24391E-10  4.17796E-10  3.13164E-10  2.10534E-10  1.09950E-10  1.14606E-11 -8.48822E-11 -1.79020E-10 -2.70874E-10
  -3.60405E-10 -4.47526E-10 -5.32170E-10 -6.14269E-10 -6.93753E-10 -7.70534E-10 -8.44539E-10 -9.15708E-10 -9.83948E-10 -1.04930E-09
  -1.11180E-09 -1.17153E-09 -1.22852E-09 -1.28286E-09 -1.33456E-09 -1.38371E-09 -1.43035E-09 -1.47454E-09 -1.51633E-09 -1.55577E-09
  -1.59293E-09 -1.62785E-09 -1.66058E-09 -1.69118E-09 -1.71971E-09 -1.74620E-09 -1.77073E-09 -1.79333E-09 -1.81407E-09 -1.83299E-09
  -1.85014E-09 -1.86560E-09 -1.87938E-09 -1.89157E-09 -1.90218E-09 -1.91130E-09 -1.91897E-09 -1.92525E-09 -1.93018E-09 -1.93380E-09
  -1.93619E-09 -1.93737E-09 -1.93745E-09 -1.93640E-09 -1.93432E-09 -1.93127E-09 -1.92728E-09 -1.92240E-09 -1.91670E-09 -1.91020E-09
  -1.90299E-09 -1.89510E-09 -1.88659E-09 -1.87752E-09 -1.86790E-09 -1.85782E-09 -1.84734E-09 -1.83647E-09 -1.82529E-09 -1.81385E-09
  -1.80219E-09 -1.79037E-09 -1.77845E-09 -1.76644E-09 -1.75446E-09 -1.74250E-09 -1.73065E-09 -1.71894E-09 -1.70742E-09 -1.69615E-09
  -1.68519E-09 -1.67458E-09 -1.66438E-09 -1.65462E-09 -1.64537E-09 -1.63668E-09 -1.62861E-09 -1.62116E-09 -1.61445E-09 -1.60850E-09
  -1.60335E-09 -1.59905E-09 -1.59556E-09 -1.59288E-09 -1.59098E-09 -1.58986E-09 -1.58949E-09 -1.58985E-09 -1.59093E-09 -1.59271E-09
  -1.59518E-09 -1.59831E-09 -1.60210E-09 -1.60651E-09 -1.61155E-09 -1.61718E-09 -1.62339E-09 -1.63018E-09 -1.63751E-09 -1.64537E-09
  -1.65375E-09 -1.66262E-09 -1.67198E-09 -1.68179E-09 -1.69206E-09 -1.70275E-09 -1.71386E-09 -1.72536E-09 -1.73725E-09 -1.74949E-09
  -1.76208E-09 -1.77499E-09 -1.78821E-09 -1.80174E-09 -1.81553E-09 -1.82958E-09 -1.84388E-09 -1.85840E-09 -1.87313E-09 -1.88805E-09
  -1.90315E-09 -1.91841E-09 -1.93380E-09 -1.94931E-09 -1.96494E-09 -1.98065E-09 -1.99644E-09 -2.01228E-09 -2.02817E-09 -2.04406E-09
  -2.05997E-09 -2.07585E-09 -2.09172E-09 -2.10754E-09 -2.12328E-09 -2.13896E-09 -2.15452E-09 -2.16999E-09 -2.18531E-09 -2.20049E-09
  -2.21550E-09 -2.23033E-09 -2.24495E-09 -2.25936E-09 -2.27354E-09 -2.28746E-09 -2.30112E-09 -2.31449E-09 -2.32756E-09 -2.34031E-09
  -2.35272E-09 -2.36478E-09 -2.37648E-09
 NY background values follow
    -3.752E-09   -3.659E-09   -3.567E-09   -3.474E-09   -3.381E-09   -3.288E-09   -3.196E-09   -3.103E-09   -3.011E-09   -2.918E-09
    -2.826E-09   -2.734E-09   -2.642E-09   -2.549E-09   -2.458E-09   -2.366E-09   -2.274E-09   -2.182E-09   -2.091E-09   -1.999E-09
    -1.908E-09   -1.816E-09   -1.725E-09   -1.634E-09   -1.543E-09   -1.453E-09   -1.362E-09   -1.271E-09   -1.181E-09   -1.091E-09
    -1.001E-09   -9.106E-10   -8.208E-10   -7.311E-10   -6.416E-10   -5.523E-10   -4.630E-10   -3.740E-10   -2.852E-10   -1.965E-10
    -1.079E-10   -1.959E-11    6.856E-11    1.566E-10    2.443E-10    3.320E-10    4.193E-10    5.066E-10    5.936E-10    6.804E-10
     7.670E-10    8.534E-10    9.396E-10    1.026E-09    1.111E-09    1.197E-09    1.282E-09    1.367E-09    1.452E-09    1.537E-09
     1.621E-09    1.705E-09    1.789E-09    1.873E-09    1.956E-09    2.039E-09    2.122E-09    2.205E-09    2.287E-09    2.369E-09
     2.451E-09    2.532E-09    2.614E-09    2.695E-09    2.775E-09    2.855E-09    2.935E-09    3.015E-09    3.094E-09    3.172E-09
     3.250E-09    3.328E-09    3.404E-09    3.480E-09    3.556E-09    3.630E-09    3.704E-09    3.777E-09    3.848E-09    3.919E-09
     3.989E-09    4.058E-09    4.126E-09    4.193E-09    4.259E-09    4.323E-09    4.386E-09    4.448E-09    4.509E-09    4.568E-09
     4.626E-09    4.682E-09    4.737E-09    4.791E-09    4.843E-09    4.893E-09    4.941E-09    4.988E-09    5.033E-09    5.077E-09
     5.118E-09    5.158E-09    5.195E-09    5.231E-09    5.265E-09    5.297E-09    5.326E-09    5.354E-09    5.379E-09    5.402E-09
     5.423E-09    5.442E-09    5.458E-09    5.472E-09    5.483E-09    5.492E-09    5.499E-09    5.503E-09    5.504E-09    5.503E-09
     5.499E-09    5.492E-09    5.483E-09    5.471E-09    5.456E-09    5.438E-09    5.417E-09    5.393E-09    5.366E-09    5.337E-09
     5.304E-09    5.268E-09    5.228E-09    5.186E-09    5.140E-09    5.091E-09    5.039E-09    4.983E-09    4.924E-09    4.863E-09
     4.798E-09    4.730E-09    4.660E-09    4.586E-09    4.511E-09    4.432E-09    4.351E-09    4.268E-09    4.183E-09    4.095E-09
     4.005E-09    3.913E-09    3.819E-09    3.724E-09    3.626E-09    3.527E-09    3.426E-09    3.324E-09    3.220E-09    3.115E-09
     3.008E-09    2.901E-09    2.792E-09    2.683E-09    2.572E-09    2.461E-09    2.348E-09    2.236E-09    2.122E-09    2.008E-09
     1.894E-09    1.779E-09    1.664E-09    1.549E-09    1.434E-09    1.319E-09    1.204E-09    1.089E-09    9.747E-10    8.606E-10
     7.468E-10    6.336E-10    5.210E-10    4.092E-10    2.981E-10    1.878E-10    7.857E-11   -2.965E-11   -1.367E-10   -2.426E-10
    -3.472E-10   -4.504E-10   -5.521E-10   -6.522E-10   -7.507E-10   -8.475E-10   -9.425E-10   -1.036E-09   -1.127E-09   -1.216E-09
    -1.302E-09   -1.387E-09   -1.469E-09   -1.549E-09   -1.627E-09   -1.701E-09   -1.774E-09   -1.843E-09   -1.909E-09   -1.973E-09
    -2.034E-09   -2.092E-09   -2.148E-09   -2.201E-09   -2.251E-09   -2.299E-09   -2.344E-09   -2.387E-09   -2.428E-09   -2.466E-09
    -2.503E-09   -2.536E-09   -2.568E-09   -2.598E-09   -2.625E-09   -2.651E-09   -2.675E-09   -2.696E-09   -2.716E-09   -2.734E-09
    -2.751E-09   -2.765E-09   -2.778E-09   -2.790E-09   -2.800E-09   -2.808E-09   -2.815E-09   -2.821E-09   -2.825E-09   -2.828E-09
    -2.830E-09   -2.830E-09   -2.830E-09   -2.828E-09   -2.825E-09   -2.822E-09   -2.817E-09   -2.812E-09   -2.805E-09   -2.798E-09
    -2.790E-09   -2.782E-09   -2.773E-09   -2.763E-09   -2.753E-09   -2.743E-09   -2.732E-09   -2.720E-09   -2.709E-09   -2.697E-09
    -2.684E-09   -2.672E-09   -2.660E-09   -2.647E-09   -2.635E-09   -2.622E-09   -2.610E-09   -2.598E-09   -2.586E-09   -2.574E-09
    -2.563E-09   -2.552E-09   -2.541E-09   -2.531E-09   -2.521E-09   -2.512E-09   -2.503E-09   -2.496E-09   -2.488E-09   -2.482E-09
    -2.476E-09   -2.472E-09   -2.468E-09   -2.465E-09   -2.462E-09   -2.461E-09   -2.460E-09   -2.460E-09   -2.461E-09   -2.462E-09
    -2.464E-09   -2.467E-09   -2.470E-09   -2.474E-09   -2.479E-09   -2.484E-09   -2.490E-09   -2.496E-09   -2.503E-09   -2.511E-09
    -2.519E-09   -2.527E-09   -2.536E-09   -2.545E-09   -2.555E-09   -2.566E-09   -2.576E-09   -2.587E-09   -2.599E-09   -2.611E-09
    -2.623E-09   -2.635E-09   -2.648E-09   -2.661E-09   -2.675E-09   -2.688E-09   -2.702E-09   -2.716E-09   -2.731E-09   -2.745E-09
    -2.760E-09   -2.775E-09   -2.790E-09   -2.805E-09   -2.820E-09   -2.835E-09   -2.851E-09   -2.866E-09   -2.882E-09   -2.897E-09
    -2.912E-09   -2.928E-09   -2.943E-09   -2.959E-09   -2.974E-09   -2.989E-09   -3.004E-09   -3.020E-09   -3.034E-09   -3.049E-09
    -3.064E-09   -3.078E-09   -3.092E-09   -3.106E-09   -3.120E-09   -3.133E-09   -3.147E-09   -3.160E-09   -3.172E-09   -3.185E-09
    -3.196E-09   -3.208E-09   -3.219E-09
 Asp      Conc. = 1.63E-09
  -2.05202E-09 -2.22349E-09 -2.29742E-09 -2.40890E-09 -2.44798E-09 -2.56160E-09 -2.69063E-09 -2.77154E-09 -2.75853E-09 -2.71077E-09
  -2.64678E-09 -2.57334E-09 -2.49285E-09 -2.40688E-09 -2.31966E-09 -2.23142E-09 -2.14206E-09 -2.05176E-09 -1.96061E-09 -1.86873E-09
  -1.77615E-09 -1.68291E-09 -1.58899E-09 -1.49434E-09 -1.39886E-09 -1.30246E-09 -1.20492E-09 -1.10602E-09 -1.00536E-09 -9.02418E-10
  -7.96422E-10 -6.86154E-10 -5.69608E-10 -4.43235E-10 -2.99647E-10 -1.20458E-10  1.36837E-10  3.46332E-10  5.59975E-10  6.71665E-10
   7.26631E-10  8.15057E-10  1.06535E-09  1.49399E-09  2.07017E-09  2.66896E-09  2.82640E-09  2.68104E-09  2.83423E-09  3.05112E-09
   3.30502E-09  3.56127E-09  3.67873E-09  3.49835E-09  3.11193E-09  2.75375E-09  2.59909E-09  2.74851E-09  2.73925E-09  2.49894E-09
   2.42772E-09  2.39351E-09  2.35074E-09  2.42738E-09  2.54468E-09  2.58259E-09  2.54104E-09  2.55168E-09  2.58722E-09  2.63585E-09
   2.69234E-09  2.75396E-09  2.81908E-09  2.88675E-09  2.95624E-09  3.02705E-09  3.09879E-09  3.17117E-09  3.24395E-09  3.31695E-09
   3.39002E-09  3.46299E-09  3.53578E-09  3.60826E-09  3.68034E-09  3.75194E-09  3.82299E-09  3.89340E-09  3.96311E-09  4.03206E-09
   4.10019E-09  4.16743E-09  4.23374E-09  4.29904E-09  4.36330E-09  4.42647E-09  4.48848E-09  4.54929E-09  4.60885E-09  4.66711E-09
   4.72403E-09  4.77956E-09  4.83365E-09  4.88625E-09  4.93733E-09  4.98683E-09  5.03471E-09  5.08092E-09  5.12543E-09  5.16819E-09
   5.20914E-09  5.24825E-09  5.28549E-09  5.32079E-09  5.35412E-09  5.38543E-09  5.41469E-09  5.44184E-09  5.46685E-09  5.48966E-09
   5.51025E-09  5.52856E-09  5.54456E-09  5.55820E-09  5.56943E-09  5.57823E-09  5.58454E-09  5.58832E-09  5.58953E-09  5.58812E-09
   5.58407E-09  5.57732E-09  5.56783E-09  5.55556E-09  5.54047E-09  5.52254E-09  5.50168E-09  5.47789E-09  5.45112E-09  5.42133E-09
   5.38849E-09  5.35253E-09  5.31345E-09  5.27120E-09  5.22574E-09  5.17704E-09  5.12510E-09  5.07002E-09  5.01188E-09  4.95081E-09
   4.88691E-09  4.82029E-09  4.75110E-09  4.67946E-09  4.60555E-09  4.52955E-09  4.45171E-09  4.37231E-09  4.29177E-09  4.21068E-09
   4.12992E-09  4.05101E-09  3.97670E-09  3.91269E-09  3.87306E-09  3.90310E-09  4.22659E-09  5.30506E-09  5.98083E-09  6.05082E-09
   5.82859E-09  5.57666E-09  5.38764E-09  5.29328E-09  5.29621E-09  5.27339E-09  4.93016E-09  3.99035E-09  2.77864E-09  2.37270E-09
   2.15316E-09  1.98630E-09  1.84070E-09  1.70565E-09  1.57657E-09  1.45125E-09  1.32848E-09  1.20759E-09  1.08819E-09  9.70036E-10
   8.53012E-10  7.37035E-10  6.22090E-10  5.08176E-10  3.95324E-10  2.83559E-10  1.72932E-10  6.35096E-11 -4.46523E-11 -1.51495E-10
  -2.56937E-10 -3.60913E-10 -4.63347E-10 -5.64162E-10 -6.63278E-10 -7.60615E-10 -8.56095E-10 -9.49639E-10 -1.04117E-09 -1.13058E-09
  -1.21782E-09 -1.30279E-09 -1.38541E-09 -1.46560E-09 -1.54327E-09 -1.61834E-09 -1.69071E-09 -1.76033E-09 -1.82710E-09 -1.89104E-09
  -1.95219E-09 -2.01063E-09 -2.06639E-09 -2.11954E-09 -2.17009E-09 -2.21815E-09 -2.26374E-09 -2.30690E-09 -2.34771E-09 -2.38619E-09
  -2.42243E-09 -2.45645E-09 -2.48832E-09 -2.51808E-09 -2.54578E-09 -2.57149E-09 -2.59524E-09 -2.61709E-09 -2.63709E-09 -2.65530E-09
  -2.67175E-09 -2.68652E-09 -2.69964E-09 -2.71117E-09 -2.72115E-09 -2.72964E-09 -2.73670E-09 -2.74237E-09 -2.74671E-09 -2.74975E-09
  -2.75158E-09 -2.75220E-09 -2.75173E-09 -2.75014E-09 -2.74752E-09 -2.74395E-09 -2.73944E-09 -2.73406E-09 -2.72785E-09 -2.72086E-09
  -2.71316E-09 -2.70479E-09 -2.69581E-09 -2.68626E-09 -2.67618E-09 -2.66564E-09 -2.65471E-09 -2.64338E-09 -2.63176E-09 -2.61988E-09
  -2.60779E-09 -2.59553E-09 -2.58318E-09 -2.57075E-09 -2.55835E-09 -2.54597E-09 -2.53370E-09 -2.52158E-09 -2.50965E-09 -2.49798E-09
  -2.48662E-09 -2.47560E-09 -2.46501E-09 -2.45485E-09 -2.44521E-09 -2.43613E-09 -2.42767E-09 -2.41984E-09 -2.41274E-09 -2.40641E-09
  -2.40087E-09 -2.39619E-09 -2.39233E-09 -2.38927E-09 -2.38699E-09 -2.38550E-09 -2.38475E-09 -2.38474E-09 -2.38544E-09 -2.38685E-09
  -2.38895E-09 -2.39172E-09 -2.39513E-09 -2.39918E-09 -2.40385E-09 -2.40911E-09 -2.41497E-09 -2.42139E-09 -2.42835E-09 -2.43585E-09
  -2.44386E-09 -2.45237E-09 -2.46136E-09 -2.47081E-09 -2.48071E-09 -2.49104E-09 -2.50179E-09 -2.51292E-09 -2.52444E-09 -2.53632E-09
  -2.54855E-09 -2.56109E-09 -2.57395E-09 -2.58710E-09 -2.60053E-09 -2.61421E-09 -2.62814E-09 -2.64230E-09 -2.65666E-09 -2.67121E-09
  -2.68594E-09 -2.70083E-09 -2.71585E-09 -2.73099E-09 -2.74624E-09 -2.76158E-09 -2.77699E-09 -2.79246E-09 -2.80797E-09 -2.82348E-09
  -2.83901E-09 -2.85452E-09 -2.87000E-09 -2.88544E-09 -2.90079E-09 -2.91608E-09 -2.93126E-09 -2.94634E-09 -2.96127E-09 -2.97606E-09
  -2.99068E-09 -3.00511E-09 -3.01934E-09 -3.03335E-09 -3.04713E-09 -3.06065E-09 -3.07391E-09 -3.08687E-09 -3.09953E-09 -3.11188E-09
  -3.12388E-09 -3.13552E-09 -3.14681E-09
 GABA     Conc. = 7.08E-10
  -3.67753E-09 -3.58366E-09 -3.48978E-09 -3.39587E-09 -3.30192E-09 -3.20796E-09 -3.11393E-09 -3.01985E-09 -2.92570E-09 -2.83143E-09
  -2.73706E-09 -2.64255E-09 -2.54782E-09 -2.45292E-09 -2.35768E-09 -2.26209E-09 -2.16619E-09 -2.06969E-09 -1.97243E-09 -1.87438E-09
  -1.77513E-09 -1.67426E-09 -1.57122E-09 -1.46510E-09 -1.35446E-09 -1.23698E-09 -1.10787E-09 -9.57042E-10 -7.57151E-10 -4.34598E-10
  -2.27238E-10 -8.77237E-11  3.10148E-10  6.47813E-10  7.73110E-10  9.59956E-10  1.16362E-09  1.29317E-09  1.31975E-09  1.26462E-09
   1.20306E-09  1.25570E-09  1.14754E-09  8.93997E-10  8.93717E-10  9.14098E-10  8.04788E-10  7.88348E-10  8.25716E-10  8.85298E-10
   9.56772E-10  1.03525E-09  1.11869E-09  1.20640E-09  1.29803E-09  1.39373E-09  1.49442E-09  1.60190E-09  1.71980E-09  1.85541E-09
   2.02589E-09  2.28321E-09  2.59660E-09  2.76282E-09  2.98676E-09  3.34026E-09  3.52053E-09  3.59307E-09  3.70588E-09  3.81433E-09
   3.86050E-09  3.81949E-09  3.71711E-09  3.65782E-09  3.64586E-09  3.45840E-09  3.32679E-09  3.39888E-09  3.41044E-09  3.43608E-09
   3.56861E-09  3.64104E-09  3.74453E-09  4.00452E-09  4.17494E-09  4.27841E-09  4.48164E-09  4.66808E-09  4.79704E-09  4.90119E-09
   4.96019E-09  5.02864E-09  5.12184E-09  5.08211E-09  5.00713E-09  5.06752E-09  5.04334E-09  4.95031E-09  4.95216E-09  4.95770E-09
   4.94549E-09  4.95406E-09  4.97523E-09  5.00343E-09  5.03564E-09  5.06997E-09  5.10543E-09  5.14135E-09  5.17727E-09  5.21284E-09
   5.24765E-09  5.28137E-09  5.31384E-09  5.34492E-09  5.37451E-09  5.40256E-09  5.42893E-09  5.45348E-09  5.47613E-09  5.49680E-09
   5.51544E-09  5.53197E-09  5.54635E-09  5.55850E-09  5.56837E-09  5.57590E-09  5.58104E-09  5.58373E-09  5.58393E-09  5.58157E-09
   5.57663E-09  5.56904E-09  5.55876E-09  5.54575E-09  5.52995E-09  5.51135E-09  5.48985E-09  5.46543E-09  5.43806E-09  5.40768E-09
   5.37426E-09  5.33775E-09  5.29810E-09  5.25530E-09  5.20926E-09  5.15997E-09  5.10742E-09  5.05170E-09  4.99290E-09  4.93110E-09
   4.86640E-09  4.79891E-09  4.72872E-09  4.65595E-09  4.58071E-09  4.50313E-09  4.42337E-09  4.34160E-09  4.25805E-09  4.17301E-09
   4.08691E-09  4.00044E-09  3.91479E-09  3.83238E-09  3.75903E-09  3.71297E-09  3.78189E-09  4.19931E-09  4.44870E-09  4.42690E-09
   4.27033E-09  4.09765E-09  3.95134E-09  3.84573E-09  3.78389E-09  3.71534E-09  3.51247E-09  3.04649E-09  2.43831E-09  2.18993E-09
   2.02861E-09  1.89100E-09  1.76271E-09  1.63898E-09  1.51781E-09  1.39828E-09  1.27991E-09  1.16246E-09  1.04580E-09  9.29881E-10
   8.14702E-10  7.00270E-10  5.86633E-10  4.73837E-10  3.61950E-10  2.51024E-10  1.41131E-10  3.23558E-11 -7.52332E-11 -1.81565E-10
  -2.86552E-10 -3.90118E-10 -4.92182E-10 -5.92661E-10 -6.91473E-10 -7.88533E-10 -8.83759E-10 -9.77071E-10 -1.06839E-09 -1.15760E-09
  -1.24466E-09 -1.32946E-09 -1.41193E-09 -1.49197E-09 -1.56951E-09 -1.64445E-09 -1.71670E-09 -1.78621E-09 -1.85287E-09 -1.91671E-09
  -1.97778E-09 -2.03613E-09 -2.09181E-09 -2.14488E-09 -2.19536E-09 -2.24335E-09 -2.28887E-09 -2.33197E-09 -2.37272E-09 -2.41115E-09
