 LCModel (Version 6.3-1R) Copyright: S.W. Provencher.          Ref.: Magn. Reson. Med. 30:672-679 (1993).                
 onepulse 18x21_ftSpec_smooth_lcm
 26 lines in following concentration table = NCONC+1
    Conc.  %SD   /Cr    Metabolite                                         
 9.86E-11 174%   0.000 Ala                                                 
 5.36E-10  65%   0.000 Asp                                                 
    0.000 999%   0.000 Cr                                                  
 2.80E-09  12%   0.000 GABA                                                
 1.59E-09  17%   0.000 Glc                                                 
    0.000 999%   0.000 Gln                                                 
 1.10E-10 338%   0.000 Glu                                                 
    0.000 999%   0.000 Glyc                                                
    0.000 999%   0.000 GPC                                                 
 3.96E-11 481%   0.000 GSH                                                 
 1.82E-10 111%   0.000 Ins                                                 
    0.000 999%   0.000 Lac                                                 
    0.000 999%   0.000 NAAG                                                
 1.15E-09  14%   0.000 NAA                                                 
 1.02E-10  47%   0.000 PCh                                                 
    0.000 999%   0.000 PCr                                                 
    0.000 999%   0.000 PE                                                  
    0.000 999%   0.000 Scyllo                                              
    0.000 999%   0.000 Ser                                                 
    0.000 999%   0.000 Tau                                                 
 1.02E-10  47%   0.000 GPC+PCh                                             
 1.15E-09  14%   0.000 NAA+NAAG                                            
 1.82E-10 111%   0.000 Ins+Glyc                                            
    0.000 999%   0.000 Cr+PCr                                              
 1.10E-10 338%   0.000 Glu+Gln                                             
   6 lines in following misc. output table
  FWHM = 0.067 ppm    S/N =   5                                            
  Data shift = 0.335 ppm                                                   
  Ph:  53 deg      26.6 deg/ppm                                            
  alphaB,S = 1.6E-01,   7.5E+01                                            
   16 spline knots.   Ns = 5(1)                                            
  ( 5) 2 infls.   ( 5) 1 extrs.                                            
  363 points on ppm-axis = NY
      4.250000     4.238821     4.227641     4.216462     4.205282     4.194103     4.182923     4.171744     4.160564     4.149385
      4.138206     4.127026     4.115847     4.104667     4.093488     4.082308     4.071129     4.059949     4.048770     4.037591
      4.026411     4.015232     4.004052     3.992873     3.981693     3.970514     3.959334     3.948155     3.936975     3.925796
      3.914617     3.903437     3.892258     3.881078     3.869899     3.858719     3.847540     3.836360     3.825181     3.814002
      3.802822     3.791643     3.780463     3.769284     3.758104     3.746925     3.735745     3.724566     3.713387     3.702207
      3.691028     3.679848     3.668669     3.657489     3.646310     3.635130     3.623951     3.612772     3.601592     3.590413
      3.579233     3.568054     3.556874     3.545695     3.534515     3.523336     3.512156     3.500977     3.489798     3.478618
      3.467439     3.456259     3.445080     3.433900     3.422721     3.411541     3.400362     3.389183     3.378003     3.366824
      3.355644     3.344465     3.333285     3.322106     3.310926     3.299747     3.288568     3.277388     3.266209     3.255029
      3.243850     3.232670     3.221491     3.210311     3.199132     3.187953     3.176773     3.165594     3.154414     3.143235
      3.132055     3.120876     3.109696     3.098517     3.087337     3.076158     3.064979     3.053799     3.042620     3.031440
      3.020261     3.009081     2.997902     2.986722     2.975543     2.964364     2.953184     2.942005     2.930825     2.919646
      2.908466     2.897287     2.886107     2.874928     2.863749     2.852569     2.841390     2.830210     2.819031     2.807851
      2.796672     2.785492     2.774313     2.763134     2.751954     2.740775     2.729595     2.718416     2.707236     2.696057
      2.684877     2.673698     2.662519     2.651339     2.640160     2.628980     2.617801     2.606621     2.595442     2.584262
      2.573083     2.561903     2.550724     2.539545     2.528365     2.517186     2.506006     2.494827     2.483647     2.472468
      2.461288     2.450109     2.438930     2.427750     2.416571     2.405391     2.394212     2.383032     2.371853     2.360673
      2.349494     2.338315     2.327135     2.315956     2.304776     2.293597     2.282417     2.271238     2.260058     2.248879
      2.237700     2.226520     2.215341     2.204161     2.192982     2.181802     2.170623     2.159443     2.148264     2.137084
      2.125905     2.114726     2.103546     2.092367     2.081187     2.070008     2.058828     2.047649     2.036469     2.025290
      2.014111     2.002931     1.991752     1.980572     1.969393     1.958213     1.947034     1.935854     1.924675     1.913496
      1.902316     1.891137     1.879957     1.868778     1.857598     1.846419     1.835239     1.824060     1.812881     1.801701
      1.790522     1.779342     1.768163     1.756983     1.745804     1.734624     1.723445     1.712265     1.701086     1.689907
      1.678727     1.667548     1.656368     1.645189     1.634009     1.622830     1.611650     1.600471     1.589292     1.578112
      1.566933     1.555753     1.544574     1.533394     1.522215     1.511035     1.499856     1.488677     1.477497     1.466318
      1.455138     1.443959     1.432779     1.421600     1.410420     1.399241     1.388062     1.376882     1.365703     1.354523
      1.343344     1.332164     1.320985     1.309805     1.298626     1.287446     1.276267     1.265088     1.253908     1.242729
      1.231549     1.220370     1.209190     1.198011     1.186831     1.175652     1.164473     1.153293     1.142114     1.130934
      1.119755     1.108575     1.097396     1.086216     1.075037     1.063858     1.052678     1.041499     1.030319     1.019140
      1.007960     0.996781     0.985601     0.974422     0.963243     0.952063     0.940884     0.929704     0.918525     0.907345
      0.896166     0.884986     0.873807     0.862628     0.851448     0.840269     0.829089     0.817910     0.806730     0.795551
      0.784371     0.773192     0.762012     0.750833     0.739654     0.728474     0.717295     0.706115     0.694936     0.683756
      0.672577     0.661397     0.650218     0.639039     0.627859     0.616680     0.605500     0.594321     0.583141     0.571962
      0.560782     0.549603     0.538424     0.527244     0.516065     0.504885     0.493706     0.482526     0.471347     0.460167
      0.448988     0.437809     0.426629     0.415450     0.404270     0.393091     0.381911     0.370732     0.359552     0.348373
      0.337193     0.326014     0.314835     0.303655     0.292476     0.281296     0.270117     0.258937     0.247758     0.236578
      0.225399     0.214220     0.203040
 NY phased data points follow
   4.18391E-09  7.55075E-09  8.50296E-09  1.16382E-08  1.00397E-08  9.72164E-09  8.04648E-09  7.21999E-09  6.15300E-09  6.36345E-09
   5.84226E-09  5.96237E-09  6.43698E-09  6.68340E-09  6.55744E-09  7.08454E-09  7.96820E-09  8.65410E-09  7.46423E-09  8.53107E-09
   7.44581E-09  7.54815E-09  7.54778E-09  6.96548E-09  6.68834E-09  6.94196E-09  7.06950E-09  8.06908E-09  7.60871E-09  8.48537E-09
   6.57654E-09  6.23516E-09  7.07383E-09  8.63027E-09  1.03730E-08  1.08043E-08  1.05796E-08  9.16584E-09  8.32214E-09  7.45520E-09
   6.01369E-09  6.14550E-09  5.75653E-09  6.06993E-09  5.02353E-09  5.18302E-09  5.94516E-09  4.87861E-09  4.06084E-09  3.39310E-09
   3.72958E-09  4.09340E-09  3.44432E-09  4.66628E-09  3.85794E-09  4.89022E-09  3.10620E-09  3.45568E-09  3.37755E-09  3.02252E-09
   3.52592E-09  4.52156E-09  4.33925E-09  5.79653E-09  7.71258E-09  9.76093E-09  1.11182E-08  1.07146E-08  8.74724E-09  7.96829E-09
   5.98812E-09  6.36237E-09  4.99130E-09  4.30570E-09  3.49593E-09  4.00497E-09  3.08287E-09  2.97908E-09  3.61100E-09  4.25411E-09
   6.33655E-09  1.08647E-08  1.31868E-08  1.31529E-08  1.22637E-08  1.05018E-08  8.84115E-09  8.19924E-09  7.47073E-09  7.12696E-09
   6.48059E-09  6.49570E-09  6.38837E-09  6.06311E-09  5.10375E-09  5.08983E-09  3.99752E-09  4.87086E-09  3.37768E-09  3.51591E-09
   3.36670E-09  3.15330E-09  4.20969E-09  2.89478E-09  3.74673E-09  3.48748E-09  2.99747E-09  3.72739E-09  2.90320E-09  3.39081E-09
   2.10052E-09  2.45623E-09  1.69333E-09  1.91802E-09  2.07430E-09  3.00261E-09  2.53469E-09  2.78369E-09  2.89292E-09  3.34772E-09
   2.93606E-09  3.26094E-09  2.91856E-09  3.18765E-09  2.40417E-09  2.08787E-09  1.00846E-09  1.56249E-09  1.25466E-09  1.84416E-09
   1.98226E-09  1.98712E-09  1.78990E-09  2.79290E-09  2.92670E-09  2.36096E-09  1.68284E-09  2.42892E-09  1.65394E-09  1.89349E-09
   2.86116E-09  3.05608E-09  4.06669E-09  4.11401E-09  3.04981E-09  3.24148E-09  3.43466E-09  3.53543E-09  4.08431E-09  4.21101E-09
   4.07439E-09  3.66773E-09  3.29740E-09  3.76045E-09  3.22341E-09  3.74228E-09  3.45658E-09  3.89914E-09  3.84587E-09  4.27012E-09
   3.91347E-09  4.10535E-09  4.10939E-09  4.70098E-09  4.59418E-09  4.95644E-09  5.63631E-09  5.80367E-09  6.31533E-09  7.95814E-09
   9.65183E-09  1.19284E-08  1.52880E-08  1.74372E-08  1.51961E-08  1.22392E-08  8.87211E-09  7.16024E-09  5.89711E-09  5.58431E-09
   4.38568E-09  3.91081E-09  2.93996E-09  3.26140E-09  2.18445E-09  2.60781E-09  2.44712E-10  6.72645E-10 -7.39481E-11 -1.12701E-09
  -1.30665E-09 -1.47225E-09 -3.02199E-09 -3.59739E-09 -4.25609E-09 -5.28175E-09 -5.86865E-09 -6.55776E-09 -7.70062E-09 -8.40168E-09
  -8.63604E-09 -9.53131E-09 -9.95836E-09 -9.65468E-09 -1.00818E-08 -9.94761E-09 -9.37463E-09 -8.92127E-09 -8.32624E-09 -7.20343E-09
  -7.50943E-09 -6.12105E-09 -4.82794E-09 -4.36288E-09 -3.21361E-09 -2.13081E-09 -2.09089E-09 -1.79342E-09 -1.80047E-09 -7.97081E-10
  -1.70683E-09 -2.01965E-09 -1.94741E-09 -1.42801E-09 -2.22328E-09 -1.69156E-09 -1.42923E-09 -1.40422E-09 -1.42872E-09 -1.65150E-09
  -9.53985E-10 -1.95824E-09 -1.75662E-09 -1.32142E-09 -2.32184E-09 -1.80538E-09 -1.74018E-09 -1.09547E-09 -1.21839E-09 -1.41917E-09
  -1.50944E-09 -8.39933E-10 -1.47042E-09 -1.31743E-09 -1.83143E-09 -1.73483E-09 -1.26994E-09 -1.80539E-09 -1.31808E-09 -1.30328E-09
  -1.29283E-09 -5.60397E-10 -9.34232E-10 -1.10165E-09 -1.32385E-10 -1.08288E-09 -1.31339E-09 -8.81679E-10 -1.78581E-09 -8.13202E-10
  -1.26123E-09 -2.04406E-09 -1.76613E-09 -1.76837E-09 -1.94938E-09 -1.50859E-09 -1.67879E-09 -4.15937E-10 -5.96716E-10 -6.80311E-10
  -5.61125E-10 -2.53640E-10 -5.29193E-10 -2.77436E-10 -1.60935E-10 -2.41751E-10 -7.44119E-10 -1.68021E-10 -7.45638E-10 -9.72813E-10
  -6.75720E-10 -1.38072E-09 -1.87895E-09 -8.94906E-10 -1.46183E-09 -1.33318E-09 -1.18251E-09 -1.11550E-09 -1.77576E-09 -1.08350E-09
  -1.16572E-09 -1.38876E-09 -1.75139E-09 -6.21266E-10 -7.32682E-10 -1.01651E-09 -1.22187E-09 -1.11972E-09 -1.15383E-09 -1.19485E-09
  -5.87532E-10 -7.73504E-10 -1.36453E-09 -2.93822E-10 -1.64272E-09 -7.77734E-10 -9.23836E-11 -7.38670E-10 -4.26330E-10 -1.07366E-09
  -5.28012E-10 -9.87625E-10 -5.74506E-10 -2.43282E-10 -1.90610E-10 -5.14627E-10 -1.19750E-09 -5.39718E-10 -6.39409E-10 -8.39419E-11
  -7.27215E-10 -5.34257E-10 -3.82471E-10 -2.60921E-10 -6.53953E-10  3.44327E-11 -8.36983E-10 -2.73056E-10 -6.34087E-11 -7.42126E-11
  -4.78964E-10 -2.11961E-10 -1.72966E-10 -4.90208E-10  1.39190E-10 -4.35574E-10  4.00635E-10 -5.98087E-10 -4.26766E-11  1.79624E-10
  -4.87227E-10 -8.91413E-10 -9.35524E-11  3.45244E-10 -6.16486E-10 -9.23153E-11 -4.58681E-11 -6.44481E-10 -5.05787E-10 -3.03964E-10
  -6.01138E-11 -6.12873E-11 -3.26329E-10 -3.33912E-10 -3.95268E-10  1.72633E-10 -4.27700E-10 -7.79451E-11 -5.76080E-10 -1.55088E-10
  -4.06428E-10 -2.41397E-10 -6.41003E-10
 NY points of the fit to the data follow
   7.27369E-09  7.77174E-09  8.22462E-09  8.54325E-09  8.59769E-09  8.35373E-09  7.85922E-09  7.26295E-09  6.74360E-09  6.32063E-09
   6.14880E-09  6.15643E-09  6.26618E-09  6.46781E-09  6.77400E-09  7.15474E-09  7.60375E-09  8.10357E-09  8.55423E-09  8.85036E-09
   8.93115E-09  8.64880E-09  8.01897E-09  7.30779E-09  6.68790E-09  6.28757E-09  6.26711E-09  6.64072E-09  7.16768E-09  7.66965E-09
   7.90500E-09  8.03968E-09  8.30964E-09  8.52066E-09  8.66995E-09  9.01308E-09  9.32616E-09  9.34808E-09  9.01123E-09  8.39387E-09
   7.65134E-09  6.86009E-09  5.82934E-09  4.97187E-09  4.51870E-09  4.09573E-09  3.78102E-09  3.75320E-09  3.85815E-09  3.97237E-09
   4.04266E-09  4.04265E-09  4.02096E-09  3.99590E-09  3.99865E-09  4.04918E-09  4.11255E-09  4.15600E-09  4.12717E-09  4.09388E-09
   4.21788E-09  4.61616E-09  5.18829E-09  5.84499E-09  6.76456E-09  7.65734E-09  8.31443E-09  8.80079E-09  9.08070E-09  9.00604E-09
   8.54053E-09  7.69142E-09  6.65561E-09  5.75096E-09  4.87372E-09  4.10860E-09  3.99806E-09  4.53372E-09  5.35163E-09  6.60124E-09
   8.16752E-09  9.81282E-09  1.12795E-08  1.20778E-08  1.18756E-08  1.08898E-08  9.47875E-09  7.92662E-09  6.63790E-09  6.26120E-09
   6.15844E-09  6.08447E-09  5.84489E-09  5.39399E-09  5.03243E-09  4.67492E-09  4.17140E-09  3.79107E-09  3.54130E-09  3.30823E-09
   3.16012E-09  3.08331E-09  3.05553E-09  3.07579E-09  3.11679E-09  3.15565E-09  3.17859E-09  3.18053E-09  3.15877E-09  3.11116E-09
   3.04132E-09  2.96876E-09  2.91696E-09  2.85697E-09  2.80765E-09  2.79723E-09  2.79950E-09  2.80711E-09  2.81745E-09  2.82927E-09
   2.84189E-09  2.85485E-09  2.86780E-09  2.88048E-09  2.89269E-09  2.90424E-09  2.91500E-09  2.92483E-09  2.93363E-09  2.94126E-09
   2.94763E-09  2.95264E-09  2.95620E-09  2.95822E-09  2.95860E-09  2.95726E-09  2.95412E-09  2.94911E-09  2.94215E-09  2.93318E-09
   2.92210E-09  2.90882E-09  2.89323E-09  2.87523E-09  2.85471E-09  2.83159E-09  2.80578E-09  2.77718E-09  2.74573E-09  2.71135E-09
   2.67401E-09  2.63368E-09  2.59037E-09  2.54412E-09  2.49502E-09  2.44324E-09  2.38905E-09  2.33289E-09  2.27544E-09  2.21779E-09
   2.16167E-09  2.11004E-09  2.06819E-09  2.04650E-09  2.06866E-09  2.20435E-09  2.76277E-09  4.14485E-09  6.10791E-09  8.49016E-09
   1.12321E-08  1.39861E-08  1.60278E-08  1.65974E-08  1.53746E-08  1.26270E-08  8.98984E-09  5.20696E-09  2.28827E-09  9.43702E-10
   3.52262E-10 -2.43821E-11 -3.12523E-10 -5.54626E-10 -7.69063E-10 -9.65036E-10 -1.14755E-09 -1.31948E-09 -1.48250E-09 -1.63762E-09
  -1.78538E-09 -1.92605E-09 -2.05972E-09 -2.18632E-09 -2.30573E-09 -2.41772E-09 -2.52217E-09 -2.61926E-09 -2.70925E-09 -2.79236E-09
  -2.86881E-09 -2.93879E-09 -3.00248E-09 -3.06007E-09 -3.11173E-09 -3.15761E-09 -3.19788E-09 -3.23271E-09 -3.26223E-09 -3.28660E-09
  -3.30597E-09 -3.32048E-09 -3.33029E-09 -3.33553E-09 -3.33635E-09 -3.33289E-09 -3.32528E-09 -3.31367E-09 -3.29820E-09 -3.27900E-09
  -3.25622E-09 -3.22998E-09 -3.20044E-09 -3.16771E-09 -3.13196E-09 -3.09337E-09 -3.05212E-09 -3.00839E-09 -2.96238E-09 -2.91426E-09
  -2.86423E-09 -2.81246E-09 -2.75915E-09 -2.70447E-09 -2.64861E-09 -2.59175E-09 -2.53408E-09 -2.47578E-09 -2.41702E-09 -2.35801E-09
  -2.29892E-09 -2.23992E-09 -2.18122E-09 -2.12299E-09 -2.06541E-09 -2.00866E-09 -1.95292E-09 -1.89839E-09 -1.84524E-09 -1.79366E-09
  -1.74381E-09 -1.69591E-09 -1.65000E-09 -1.60606E-09 -1.56401E-09 -1.52381E-09 -1.48538E-09 -1.44868E-09 -1.41363E-09 -1.38019E-09
  -1.34830E-09 -1.31788E-09 -1.28890E-09 -1.26127E-09 -1.23495E-09 -1.20988E-09 -1.18599E-09 -1.16323E-09 -1.14155E-09 -1.12087E-09
  -1.10113E-09 -1.08229E-09 -1.06428E-09 -1.04703E-09 -1.03051E-09 -1.01463E-09 -9.99348E-10 -9.84600E-10 -9.70332E-10 -9.56474E-10
  -9.42995E-10 -9.29877E-10 -9.17096E-10 -9.04629E-10 -8.92467E-10 -8.80578E-10 -8.68952E-10 -8.57561E-10 -8.46389E-10 -8.35418E-10
  -8.24625E-10 -8.13992E-10 -8.03497E-10 -7.93121E-10 -7.82847E-10 -7.72651E-10 -7.62516E-10 -7.52420E-10 -7.42350E-10 -7.32272E-10
  -7.22182E-10 -7.12050E-10 -7.01857E-10 -6.91593E-10 -6.81227E-10 -6.70743E-10 -6.60124E-10 -6.49345E-10 -6.38417E-10 -6.27353E-10
  -6.16171E-10 -6.04888E-10 -5.93521E-10 -5.82083E-10 -5.70596E-10 -5.59073E-10 -5.47531E-10 -5.35987E-10 -5.24460E-10 -5.12962E-10
  -5.01516E-10 -4.90131E-10 -4.78826E-10 -4.67624E-10 -4.56532E-10 -4.45575E-10 -4.34764E-10 -4.24116E-10 -4.13650E-10 -4.03384E-10
  -3.93327E-10 -3.83503E-10 -3.73924E-10 -3.64610E-10 -3.55577E-10 -3.46833E-10 -3.38380E-10 -3.30205E-10 -3.22294E-10 -3.14637E-10
  -3.07222E-10 -3.00036E-10 -2.93067E-10 -2.86304E-10 -2.79738E-10 -2.73351E-10 -2.67138E-10 -2.61082E-10 -2.55175E-10 -2.49403E-10
  -2.43753E-10 -2.38218E-10 -2.32781E-10 -2.27434E-10 -2.22163E-10 -2.16959E-10 -2.11808E-10 -2.06696E-10 -2.01616E-10 -1.96555E-10
  -1.91502E-10 -1.86444E-10 -1.81366E-10
 NY background values follow
     1.201E-09    1.190E-09    1.180E-09    1.169E-09    1.159E-09    1.148E-09    1.138E-09    1.127E-09    1.117E-09    1.107E-09
     1.096E-09    1.086E-09    1.076E-09    1.066E-09    1.056E-09    1.046E-09    1.036E-09    1.026E-09    1.016E-09    1.007E-09
     9.970E-10    9.875E-10    9.782E-10    9.689E-10    9.598E-10    9.508E-10    9.419E-10    9.331E-10    9.245E-10    9.161E-10
     9.078E-10    8.997E-10    8.918E-10    8.841E-10    8.767E-10    8.696E-10    8.627E-10    8.562E-10    8.501E-10    8.443E-10
     8.389E-10    8.339E-10    8.294E-10    8.252E-10    8.216E-10    8.185E-10    8.159E-10    8.139E-10    8.124E-10    8.115E-10
     8.112E-10    8.115E-10    8.125E-10    8.142E-10    8.166E-10    8.197E-10    8.235E-10    8.281E-10    8.335E-10    8.395E-10
     8.464E-10    8.539E-10    8.622E-10    8.712E-10    8.809E-10    8.913E-10    9.024E-10    9.141E-10    9.266E-10    9.397E-10
     9.535E-10    9.679E-10    9.830E-10    9.987E-10    1.015E-09    1.032E-09    1.050E-09    1.068E-09    1.087E-09    1.106E-09
     1.126E-09    1.147E-09    1.168E-09    1.190E-09    1.212E-09    1.235E-09    1.258E-09    1.282E-09    1.306E-09    1.331E-09
     1.356E-09    1.382E-09    1.407E-09    1.433E-09    1.460E-09    1.486E-09    1.513E-09    1.540E-09    1.567E-09    1.594E-09
     1.622E-09    1.649E-09    1.676E-09    1.704E-09    1.731E-09    1.758E-09    1.785E-09    1.812E-09    1.839E-09    1.866E-09
     1.892E-09    1.918E-09    1.944E-09    1.970E-09    1.995E-09    2.019E-09    2.043E-09    2.067E-09    2.089E-09    2.111E-09
     2.132E-09    2.152E-09    2.172E-09    2.190E-09    2.207E-09    2.223E-09    2.237E-09    2.250E-09    2.262E-09    2.272E-09
     2.281E-09    2.288E-09    2.293E-09    2.297E-09    2.299E-09    2.299E-09    2.297E-09    2.292E-09    2.286E-09    2.278E-09
     2.267E-09    2.254E-09    2.238E-09    2.220E-09    2.199E-09    2.175E-09    2.148E-09    2.118E-09    2.085E-09    2.049E-09
     2.009E-09    1.966E-09    1.919E-09    1.868E-09    1.814E-09    1.755E-09    1.693E-09    1.626E-09    1.554E-09    1.479E-09
     1.398E-09    1.313E-09    1.223E-09    1.129E-09    1.029E-09    9.239E-10    8.137E-10    6.981E-10    5.770E-10    4.508E-10
     3.200E-10    1.849E-10    4.609E-11   -9.611E-11   -2.412E-10   -3.888E-10   -5.384E-10   -6.896E-10   -8.419E-10   -9.949E-10
    -1.148E-09   -1.301E-09   -1.454E-09   -1.605E-09   -1.755E-09   -1.903E-09   -2.049E-09   -2.192E-09   -2.331E-09   -2.467E-09
    -2.599E-09   -2.726E-09   -2.848E-09   -2.965E-09   -3.076E-09   -3.180E-09   -3.278E-09   -3.369E-09   -3.454E-09   -3.532E-09
    -3.605E-09   -3.671E-09   -3.731E-09   -3.785E-09   -3.834E-09   -3.878E-09   -3.915E-09   -3.948E-09   -3.975E-09   -3.998E-09
    -4.016E-09   -4.028E-09   -4.037E-09   -4.040E-09   -4.040E-09   -4.035E-09   -4.026E-09   -4.014E-09   -3.997E-09   -3.977E-09
    -3.953E-09   -3.926E-09   -3.896E-09   -3.862E-09   -3.826E-09   -3.786E-09   -3.744E-09   -3.700E-09   -3.653E-09   -3.605E-09
    -3.554E-09   -3.502E-09   -3.448E-09   -3.393E-09   -3.336E-09   -3.279E-09   -3.221E-09   -3.162E-09   -3.103E-09   -3.043E-09
    -2.984E-09   -2.924E-09   -2.865E-09   -2.807E-09   -2.749E-09   -2.692E-09   -2.636E-09   -2.581E-09   -2.527E-09   -2.475E-09
    -2.425E-09   -2.377E-09   -2.331E-09   -2.286E-09   -2.244E-09   -2.203E-09   -2.165E-09   -2.128E-09   -2.092E-09   -2.059E-09
    -2.026E-09   -1.996E-09   -1.966E-09   -1.939E-09   -1.912E-09   -1.887E-09   -1.862E-09   -1.839E-09   -1.817E-09   -1.796E-09
    -1.776E-09   -1.757E-09   -1.739E-09   -1.721E-09   -1.705E-09   -1.689E-09   -1.673E-09   -1.658E-09   -1.643E-09   -1.629E-09
    -1.615E-09   -1.602E-09   -1.589E-09   -1.576E-09   -1.564E-09   -1.552E-09   -1.540E-09   -1.528E-09   -1.517E-09   -1.505E-09
    -1.494E-09   -1.483E-09   -1.473E-09   -1.462E-09   -1.451E-09   -1.441E-09   -1.430E-09   -1.420E-09   -1.410E-09   -1.399E-09
    -1.389E-09   -1.378E-09   -1.368E-09   -1.357E-09   -1.347E-09   -1.336E-09   -1.325E-09   -1.314E-09   -1.303E-09   -1.291E-09
    -1.280E-09   -1.268E-09   -1.256E-09   -1.245E-09   -1.233E-09   -1.221E-09   -1.209E-09   -1.197E-09   -1.185E-09   -1.173E-09
    -1.162E-09   -1.150E-09   -1.138E-09   -1.127E-09   -1.115E-09   -1.104E-09   -1.093E-09   -1.082E-09   -1.071E-09   -1.060E-09
    -1.050E-09   -1.040E-09   -1.030E-09   -1.020E-09   -1.010E-09   -1.001E-09   -9.925E-10   -9.839E-10   -9.756E-10   -9.675E-10
    -9.597E-10   -9.521E-10   -9.447E-10   -9.376E-10   -9.306E-10   -9.238E-10   -9.171E-10   -9.107E-10   -9.043E-10   -8.981E-10
    -8.920E-10   -8.861E-10   -8.802E-10   -8.744E-10   -8.687E-10   -8.630E-10   -8.574E-10   -8.518E-10   -8.463E-10   -8.408E-10
    -8.353E-10   -8.297E-10   -8.242E-10
 Ala      Conc. = 9.86E-11
   1.27619E-09  1.27311E-09  1.26759E-09  1.25978E-09  1.24958E-09  1.23714E-09  1.22135E-09  1.20144E-09  1.18265E-09  1.16451E-09
   1.14220E-09  1.12244E-09  1.10661E-09  1.09017E-09  1.07514E-09  1.06223E-09  1.05043E-09  1.03928E-09  1.02858E-09  1.01820E-09
   1.00809E-09  9.98197E-10  9.88500E-10  9.78979E-10  9.69624E-10  9.60437E-10  9.51407E-10  9.42534E-10  9.33821E-10  9.25274E-10
   9.16911E-10  9.08748E-10  9.00809E-10  8.93114E-10  8.85682E-10  8.78536E-10  8.71697E-10  8.65186E-10  8.59025E-10  8.53233E-10
   8.47837E-10  8.42853E-10  8.38308E-10  8.34219E-10  8.30615E-10  8.27509E-10  8.24929E-10  8.22900E-10  8.21433E-10  8.20561E-10
   8.20303E-10  8.20677E-10  8.21711E-10  8.23424E-10  8.25849E-10  8.28987E-10  8.32869E-10  8.37514E-10  8.42912E-10  8.49056E-10
   8.55938E-10  8.63553E-10  8.71893E-10  8.80951E-10  8.90720E-10  9.01194E-10  9.12365E-10  9.24228E-10  9.36775E-10  9.49999E-10
   9.63894E-10  9.78454E-10  9.93673E-10  1.00955E-09  1.02606E-09  1.04322E-09  1.06102E-09  1.07944E-09  1.09849E-09  1.11816E-09
   1.13845E-09  1.15935E-09  1.18087E-09  1.20300E-09  1.22573E-09  1.24907E-09  1.27300E-09  1.29750E-09  1.32256E-09  1.34817E-09
   1.37435E-09  1.40111E-09  1.42850E-09  1.45659E-09  1.48551E-09  1.51549E-09  1.54696E-09  1.58076E-09  1.61888E-09  1.66752E-09
   1.73690E-09  1.81085E-09  1.89341E-09  1.99780E-09  2.10490E-09  2.19684E-09  2.26297E-09  2.30054E-09  2.30862E-09  2.28635E-09
   2.23842E-09  2.18486E-09  2.14950E-09  2.10377E-09  2.06681E-09  2.06717E-09  2.07901E-09  2.09513E-09  2.11305E-09  2.13163E-09
   2.15028E-09  2.16861E-09  2.18637E-09  2.20336E-09  2.21945E-09  2.23450E-09  2.24841E-09  2.26108E-09  2.27241E-09  2.28232E-09
   2.29073E-09  2.29755E-09  2.30271E-09  2.30612E-09  2.30773E-09  2.30743E-09  2.30518E-09  2.30088E-09  2.29448E-09  2.28588E-09
   2.27502E-09  2.26180E-09  2.24610E-09  2.22780E-09  2.20679E-09  2.18294E-09  2.15615E-09  2.12629E-09  2.09325E-09  2.05691E-09
   2.01717E-09  1.97389E-09  1.92697E-09  1.87630E-09  1.82176E-09  1.76324E-09  1.70062E-09  1.63380E-09  1.56268E-09  1.48715E-09
   1.40712E-09  1.32252E-09  1.23331E-09  1.13952E-09  1.04135E-09  9.39612E-10  8.38223E-10  7.47409E-10  6.58813E-10  5.71401E-10
   4.85669E-10  3.96658E-10  2.92569E-10  1.60945E-10 -2.58141E-12 -1.92482E-10 -3.97529E-10 -6.06138E-10 -8.02893E-10 -9.69306E-10
  -1.12818E-09 -1.28435E-09 -1.43877E-09 -1.59154E-09 -1.74243E-09 -1.89116E-09 -2.03736E-09 -2.18063E-09 -2.32055E-09 -2.45672E-09
  -2.58871E-09 -2.71609E-09 -2.83843E-09 -2.95528E-09 -3.06622E-09 -3.17081E-09 -3.26874E-09 -3.36006E-09 -3.44491E-09 -3.52342E-09
  -3.59573E-09 -3.66197E-09 -3.72228E-09 -3.77678E-09 -3.82562E-09 -3.86892E-09 -3.90682E-09 -3.93946E-09 -3.96696E-09 -3.98946E-09
  -4.00710E-09 -4.02000E-09 -4.02830E-09 -4.03214E-09 -4.03164E-09 -4.02694E-09 -4.01817E-09 -4.00547E-09 -3.98897E-09 -3.96880E-09
  -3.94509E-09 -3.91798E-09 -3.88760E-09 -3.85409E-09 -3.81759E-09 -3.77828E-09 -3.73635E-09 -3.69197E-09 -3.64533E-09 -3.59662E-09
  -3.54601E-09 -3.49369E-09 -3.43985E-09 -3.38465E-09 -3.32829E-09 -3.27096E-09 -3.21282E-09 -3.15407E-09 -3.09488E-09 -3.03545E-09
  -2.97595E-09 -2.91656E-09 -2.85746E-09 -2.79886E-09 -2.74090E-09 -2.68379E-09 -2.62770E-09 -2.57282E-09 -2.51933E-09 -2.46741E-09
  -2.41724E-09 -2.36901E-09 -2.32279E-09 -2.27852E-09 -2.23617E-09 -2.19566E-09 -2.15693E-09 -2.11993E-09 -2.08459E-09 -2.05086E-09
  -2.01867E-09 -1.98797E-09 -1.95869E-09 -1.93078E-09 -1.90419E-09 -1.87884E-09 -1.85466E-09 -1.83163E-09 -1.80967E-09 -1.78871E-09
  -1.76870E-09 -1.74958E-09 -1.73129E-09 -1.71377E-09 -1.69698E-09 -1.68082E-09 -1.66527E-09 -1.65024E-09 -1.63570E-09 -1.62156E-09
  -1.60781E-09 -1.59441E-09 -1.58136E-09 -1.56861E-09 -1.55617E-09 -1.54400E-09 -1.53209E-09 -1.52042E-09 -1.50896E-09 -1.49771E-09
  -1.48663E-09 -1.47571E-09 -1.46493E-09 -1.45426E-09 -1.44370E-09 -1.43321E-09 -1.42278E-09 -1.41239E-09 -1.40202E-09 -1.39164E-09
  -1.38125E-09 -1.37081E-09 -1.36032E-09 -1.34975E-09 -1.33907E-09 -1.32828E-09 -1.31734E-09 -1.30625E-09 -1.29500E-09 -1.28362E-09
  -1.27212E-09 -1.26051E-09 -1.24882E-09 -1.23705E-09 -1.22523E-09 -1.21338E-09 -1.20150E-09 -1.18962E-09 -1.17775E-09 -1.16591E-09
  -1.15412E-09 -1.14239E-09 -1.13074E-09 -1.11918E-09 -1.10773E-09 -1.09642E-09 -1.08525E-09 -1.07424E-09 -1.06341E-09 -1.05277E-09
  -1.04234E-09 -1.03215E-09 -1.02219E-09 -1.01250E-09 -1.00308E-09 -9.93955E-10 -9.85114E-10 -9.76549E-10 -9.68245E-10 -9.60191E-10
  -9.52377E-10 -9.44788E-10 -9.37415E-10 -9.30244E-10 -9.23267E-10 -9.16466E-10 -9.09836E-10 -9.03361E-10 -8.97030E-10 -8.90832E-10
  -8.84753E-10 -8.78784E-10 -8.72912E-10 -8.67126E-10 -8.61413E-10 -8.55763E-10 -8.50163E-10 -8.44600E-10 -8.39064E-10 -8.33545E-10
  -8.28029E-10 -8.22507E-10 -8.16960E-10
 Asp      Conc. = 5.36E-10
   1.84192E-09  1.75189E-09  1.65665E-09  1.55169E-09  1.45096E-09  1.35069E-09  1.27329E-09  1.21479E-09  1.18345E-09  1.16237E-09
   1.14630E-09  1.13306E-09  1.12156E-09  1.11111E-09  1.10108E-09  1.09135E-09  1.08197E-09  1.07292E-09  1.06419E-09  1.05575E-09
   1.04762E-09  1.03979E-09  1.03228E-09  1.02513E-09  1.01835E-09  1.01201E-09  1.00616E-09  1.00086E-09  9.96229E-10  9.92400E-10
   9.89571E-10  9.88015E-10  9.88138E-10  9.90567E-10  9.96383E-10  1.00776E-09  1.02968E-09  1.05818E-09  1.09718E-09  1.13748E-09
   1.17452E-09  1.20410E-09  1.22566E-09  1.24775E-09  1.27415E-09  1.33349E-09  1.41189E-09  1.51313E-09  1.65046E-09  1.77621E-09
   1.85171E-09  1.84433E-09  1.76398E-09  1.63430E-09  1.48949E-09  1.37017E-09  1.27492E-09  1.22775E-09  1.16747E-09  1.10373E-09
   1.08101E-09  1.07895E-09  1.07603E-09  1.07447E-09  1.06809E-09  1.04829E-09  1.02154E-09  1.01107E-09  1.00921E-09  1.01226E-09
   1.01857E-09  1.02725E-09  1.03778E-09  1.04984E-09  1.06319E-09  1.07768E-09  1.09319E-09  1.10963E-09  1.12694E-09  1.14506E-09
   1.16394E-09  1.18355E-09  1.20387E-09  1.22486E-09  1.24649E-09  1.26875E-09  1.29159E-09  1.31496E-09  1.33884E-09  1.36318E-09
   1.38795E-09  1.41311E-09  1.43863E-09  1.46447E-09  1.49060E-09  1.51699E-09  1.54360E-09  1.57040E-09  1.59736E-09  1.62444E-09
   1.65162E-09  1.67885E-09  1.70612E-09  1.73338E-09  1.76060E-09  1.78776E-09  1.81483E-09  1.84176E-09  1.86853E-09  1.89511E-09
   1.92147E-09  1.94757E-09  1.97339E-09  1.99886E-09  2.02392E-09  2.04849E-09  2.07250E-09  2.09589E-09  2.11858E-09  2.14050E-09
   2.16158E-09  2.18175E-09  2.20093E-09  2.21905E-09  2.23605E-09  2.25185E-09  2.26638E-09  2.27957E-09  2.29135E-09  2.30165E-09
   2.31039E-09  2.31751E-09  2.32293E-09  2.32659E-09  2.32841E-09  2.32832E-09  2.32626E-09  2.32214E-09  2.31591E-09  2.30748E-09
   2.29679E-09  2.28373E-09  2.26819E-09  2.25006E-09  2.22922E-09  2.20556E-09  2.17896E-09  2.14931E-09  2.11650E-09  2.08042E-09
   2.04095E-09  1.99799E-09  1.95144E-09  1.90118E-09  1.84713E-09  1.78918E-09  1.72725E-09  1.66128E-09  1.59120E-09  1.51700E-09
   1.43869E-09  1.35638E-09  1.27037E-09  1.18124E-09  1.09046E-09  1.00203E-09  9.31692E-10  9.42310E-10  9.93089E-10  1.07240E-09
   1.18230E-09  1.29915E-09  1.36044E-09  1.29383E-09  1.06660E-09  7.00780E-10  2.53826E-10 -2.13982E-10 -6.27512E-10 -8.69081E-10
  -1.05569E-09 -1.22599E-09 -1.38888E-09 -1.54723E-09 -1.70204E-09 -1.85364E-09 -2.00203E-09 -2.14700E-09 -2.28829E-09 -2.42556E-09
  -2.55846E-09 -2.68660E-09 -2.80958E-09 -2.92698E-09 -3.03839E-09 -3.14339E-09 -3.24168E-09 -3.33331E-09 -3.41844E-09 -3.49720E-09
  -3.56973E-09 -3.63617E-09 -3.69665E-09 -3.75132E-09 -3.80030E-09 -3.84374E-09 -3.88176E-09 -3.91451E-09 -3.94212E-09 -3.96471E-09
  -3.98244E-09 -3.99542E-09 -4.00379E-09 -4.00770E-09 -4.00726E-09 -4.00262E-09 -3.99391E-09 -3.98126E-09 -3.96481E-09 -3.94469E-09
  -3.92103E-09 -3.89396E-09 -3.86362E-09 -3.83014E-09 -3.79368E-09 -3.75440E-09 -3.71250E-09 -3.66815E-09 -3.62154E-09 -3.57286E-09
