 LCModel (Version 6.3-1R) Copyright: S.W. Provencher.          Ref.: Magn. Reson. Med. 30:672-679 (1993).                
 onepulse 18x22_ftSpec_smooth_lcm
 26 lines in following concentration table = NCONC+1
    Conc.  %SD /Cr+PCr  Metabolite                                         
 4.55E-11 422%   1.871 Ala                                                 
 2.25E-10 207%   9.232 Asp                                                 
    0.000 999%   0.000 Cr                                                  
 2.50E-09  37% 102.908 GABA                                                
 1.52E-09  21%  62.665 Glc                                                 
    0.000 999%   0.000 Gln                                                 
 8.86E-11 832%   3.642 Glu                                                 
 3.07E-10 411%  12.603 Glyc                                                
    0.000 999%   0.000 GPC                                                 
    0.000 999%   0.000 GSH                                                 
    0.000 999%   0.000 Ins                                                 
    0.000 999%   0.000 Lac                                                 
    0.000 999%   0.000 NAAG                                                
 1.23E-09  18%  50.653 NAA                                                 
 1.14E-10  66%   4.695 PCh                                                 
 2.43E-11 999%   1.000 PCr                                                 
    0.000 999%   0.000 PE                                                  
    0.000 999%   0.000 Scyllo                                              
 7.53E-10  77%  30.942 Ser                                                 
    0.000 999%   0.000 Tau                                                 
 1.14E-10  66%   4.695 GPC+PCh                                             
 1.23E-09  18%  50.653 NAA+NAAG                                            
 3.07E-10  92%  12.603 Ins+Glyc                                            
 2.43E-11 999%   1.000 Cr+PCr                                              
 8.86E-11 832%   3.642 Glu+Gln                                             
   6 lines in following misc. output table
  FWHM = 0.078 ppm    S/N =   4                                            
  Data shift = 0.347 ppm                                                   
  Ph:  43 deg      19.4 deg/ppm                                            
  alphaB,S = 1.6E-01,   1.0E+02                                            
   16 spline knots.   Ns = 5(1)                                            
  ( 7) 2 infls.   ( 5) 1 extrs.                                            
  363 points on ppm-axis = NY
      4.250000     4.238821     4.227641     4.216462     4.205282     4.194103     4.182923     4.171744     4.160564     4.149385
      4.138206     4.127026     4.115847     4.104667     4.093488     4.082308     4.071129     4.059949     4.048770     4.037591
      4.026411     4.015232     4.004052     3.992873     3.981693     3.970514     3.959334     3.948155     3.936975     3.925796
      3.914617     3.903437     3.892258     3.881078     3.869899     3.858719     3.847540     3.836360     3.825181     3.814002
      3.802822     3.791643     3.780463     3.769284     3.758104     3.746925     3.735745     3.724566     3.713387     3.702207
      3.691028     3.679848     3.668669     3.657489     3.646310     3.635130     3.623951     3.612772     3.601592     3.590413
      3.579233     3.568054     3.556874     3.545695     3.534515     3.523336     3.512156     3.500977     3.489798     3.478618
      3.467439     3.456259     3.445080     3.433900     3.422721     3.411541     3.400362     3.389183     3.378003     3.366824
      3.355644     3.344465     3.333285     3.322106     3.310926     3.299747     3.288568     3.277388     3.266209     3.255029
      3.243850     3.232670     3.221491     3.210311     3.199132     3.187953     3.176773     3.165594     3.154414     3.143235
      3.132055     3.120876     3.109696     3.098517     3.087337     3.076158     3.064979     3.053799     3.042620     3.031440
      3.020261     3.009081     2.997902     2.986722     2.975543     2.964364     2.953184     2.942005     2.930825     2.919646
      2.908466     2.897287     2.886107     2.874928     2.863749     2.852569     2.841390     2.830210     2.819031     2.807851
      2.796672     2.785492     2.774313     2.763134     2.751954     2.740775     2.729595     2.718416     2.707236     2.696057
      2.684877     2.673698     2.662519     2.651339     2.640160     2.628980     2.617801     2.606621     2.595442     2.584262
      2.573083     2.561903     2.550724     2.539545     2.528365     2.517186     2.506006     2.494827     2.483647     2.472468
      2.461288     2.450109     2.438930     2.427750     2.416571     2.405391     2.394212     2.383032     2.371853     2.360673
      2.349494     2.338315     2.327135     2.315956     2.304776     2.293597     2.282417     2.271238     2.260058     2.248879
      2.237700     2.226520     2.215341     2.204161     2.192982     2.181802     2.170623     2.159443     2.148264     2.137084
      2.125905     2.114726     2.103546     2.092367     2.081187     2.070008     2.058828     2.047649     2.036469     2.025290
      2.014111     2.002931     1.991752     1.980572     1.969393     1.958213     1.947034     1.935854     1.924675     1.913496
      1.902316     1.891137     1.879957     1.868778     1.857598     1.846419     1.835239     1.824060     1.812881     1.801701
      1.790522     1.779342     1.768163     1.756983     1.745804     1.734624     1.723445     1.712265     1.701086     1.689907
      1.678727     1.667548     1.656368     1.645189     1.634009     1.622830     1.611650     1.600471     1.589292     1.578112
      1.566933     1.555753     1.544574     1.533394     1.522215     1.511035     1.499856     1.488677     1.477497     1.466318
      1.455138     1.443959     1.432779     1.421600     1.410420     1.399241     1.388062     1.376882     1.365703     1.354523
      1.343344     1.332164     1.320985     1.309805     1.298626     1.287446     1.276267     1.265088     1.253908     1.242729
      1.231549     1.220370     1.209190     1.198011     1.186831     1.175652     1.164473     1.153293     1.142114     1.130934
      1.119755     1.108575     1.097396     1.086216     1.075037     1.063858     1.052678     1.041499     1.030319     1.019140
      1.007960     0.996781     0.985601     0.974422     0.963243     0.952063     0.940884     0.929704     0.918525     0.907345
      0.896166     0.884986     0.873807     0.862628     0.851448     0.840269     0.829089     0.817910     0.806730     0.795551
      0.784371     0.773192     0.762012     0.750833     0.739654     0.728474     0.717295     0.706115     0.694936     0.683756
      0.672577     0.661397     0.650218     0.639039     0.627859     0.616680     0.605500     0.594321     0.583141     0.571962
      0.560782     0.549603     0.538424     0.527244     0.516065     0.504885     0.493706     0.482526     0.471347     0.460167
      0.448988     0.437809     0.426629     0.415450     0.404270     0.393091     0.381911     0.370732     0.359552     0.348373
      0.337193     0.326014     0.314835     0.303655     0.292476     0.281296     0.270117     0.258937     0.247758     0.236578
      0.225399     0.214220     0.203040
 NY phased data points follow
   7.87242E-09  9.23391E-09  1.21110E-08  1.06521E-08  1.02849E-08  8.80256E-09  7.39797E-09  7.07768E-09  6.77761E-09  6.57925E-09
   6.17819E-09  7.15767E-09  6.97579E-09  7.25128E-09  7.51011E-09  8.58484E-09  9.22261E-09  8.02667E-09  9.11995E-09  8.33163E-09
   7.56031E-09  8.02054E-09  7.56128E-09  7.45848E-09  7.08307E-09  7.36068E-09  8.25524E-09  8.17431E-09  8.48016E-09  7.04469E-09
   6.28315E-09  7.42752E-09  8.77333E-09  1.04337E-08  1.12234E-08  1.08013E-08  9.43232E-09  8.95716E-09  7.81396E-09  6.37377E-09
   6.31812E-09  6.21367E-09  5.96279E-09  5.49497E-09  5.28653E-09  6.06228E-09  5.12326E-09  4.48258E-09  3.72293E-09  4.03902E-09
   4.00039E-09  3.87777E-09  4.53978E-09  3.99890E-09  4.75282E-09  3.40832E-09  3.17029E-09  3.61131E-09  3.09906E-09  3.64987E-09
   4.20655E-09  4.19745E-09  5.52797E-09  7.42483E-09  9.22882E-09  1.09103E-08  1.05181E-08  8.86874E-09  8.23123E-09  6.08355E-09
   6.09556E-09  5.06167E-09  4.22912E-09  3.70939E-09  3.85077E-09  3.32471E-09  2.66527E-09  3.53429E-09  4.15881E-09  6.34513E-09
   1.06893E-08  1.34333E-08  1.34430E-08  1.28770E-08  1.11875E-08  9.32164E-09  8.28117E-09  7.93819E-09  7.56541E-09  6.82717E-09
   6.81031E-09  6.85293E-09  6.17903E-09  5.48044E-09  5.04307E-09  4.25071E-09  4.77997E-09  3.77069E-09  3.56289E-09  3.40020E-09
   3.05733E-09  4.14296E-09  3.07959E-09  3.79663E-09  3.52456E-09  3.03034E-09  3.80628E-09  2.83252E-09  3.26244E-09  2.10012E-09
   2.07172E-09  1.65949E-09  1.71789E-09  1.90931E-09  2.73387E-09  2.65224E-09  2.38294E-09  2.61495E-09  3.12326E-09  2.81809E-09
   2.86028E-09  3.03346E-09  2.99606E-09  2.33517E-09  2.01959E-09  1.01918E-09  1.38548E-09  1.16903E-09  1.56766E-09  1.86076E-09
   1.59516E-09  1.71549E-09  2.44045E-09  2.63126E-09  2.29298E-09  1.78096E-09  2.04602E-09  1.64748E-09  1.35136E-09  2.86778E-09
   2.66854E-09  4.12744E-09  4.17216E-09  3.24878E-09  3.09081E-09  3.37386E-09  3.50929E-09  3.92505E-09  4.20708E-09  4.00720E-09
   3.59126E-09  3.31418E-09  3.35852E-09  3.07006E-09  3.41001E-09  3.04038E-09  3.44994E-09  3.62346E-09  3.83853E-09  3.61338E-09
   3.75036E-09  3.89673E-09  4.23932E-09  4.21766E-09  4.43243E-09  5.06756E-09  5.38401E-09  5.75851E-09  7.00446E-09  8.98222E-09
   1.11520E-08  1.46058E-08  1.73106E-08  1.56159E-08  1.27962E-08  9.55448E-09  8.00034E-09  6.58965E-09  5.80870E-09  4.78598E-09
   4.27237E-09  3.17364E-09  3.43403E-09  2.05007E-09  2.43649E-09  3.23574E-10  1.62406E-10 -2.21049E-11 -1.64228E-09 -1.94231E-09
  -2.28748E-09 -3.35028E-09 -4.49916E-09 -5.04724E-09 -6.46048E-09 -6.80592E-09 -7.42910E-09 -8.64686E-09 -9.29207E-09 -9.54918E-09
  -1.01771E-08 -1.06470E-08 -1.05049E-08 -1.02795E-08 -1.04585E-08 -9.29177E-09 -9.04017E-09 -8.18729E-09 -6.87807E-09 -6.83316E-09
  -5.82114E-09 -4.38440E-09 -3.74155E-09 -2.72743E-09 -1.60070E-09 -1.67207E-09 -1.39417E-09 -1.71028E-09 -6.55021E-10 -1.36407E-09
  -1.83327E-09 -1.67590E-09 -1.44918E-09 -1.94251E-09 -1.65142E-09 -1.09078E-09 -1.30764E-09 -1.20586E-09 -1.52668E-09 -7.62810E-10
  -1.83822E-09 -1.61530E-09 -1.10610E-09 -2.06723E-09 -1.75779E-09 -1.74322E-09 -9.94661E-10 -9.95367E-10 -9.37623E-10 -1.51844E-09
  -9.71944E-10 -1.15723E-09 -1.28039E-09 -1.46408E-09 -1.73527E-09 -1.05859E-09 -1.79581E-09 -1.15661E-09 -1.16913E-09 -1.24993E-09
  -5.33910E-10 -7.08706E-10 -9.97417E-10  9.08835E-13 -6.37764E-10 -1.20942E-09 -7.08438E-10 -1.64354E-09 -9.31023E-10 -1.07860E-09
  -2.09220E-09 -1.50894E-09 -1.57491E-09 -1.69980E-09 -1.49391E-09 -1.61175E-09 -5.72770E-10 -5.08882E-10 -5.37010E-10 -4.87210E-10
  -5.59909E-11 -2.04044E-10 -2.66419E-10 -1.15120E-11 -1.17173E-10 -6.68220E-10 -3.58884E-11 -5.00269E-10 -8.08236E-10 -2.99117E-10
  -1.11283E-09 -1.41263E-09 -1.06188E-09 -1.12710E-09 -1.32991E-09 -1.09783E-09 -8.97619E-10 -1.75647E-09 -1.33343E-09 -1.02444E-09
  -1.12552E-09 -1.69177E-09 -8.92944E-10 -6.20842E-10 -7.50321E-10 -1.07343E-09 -1.11650E-09 -9.37416E-10 -1.01786E-09 -7.28737E-10
  -7.09782E-10 -1.42462E-09 -1.50588E-10 -1.38765E-09 -9.69678E-10  1.76595E-10 -6.74685E-10 -2.42472E-10 -1.00103E-09 -3.06889E-10
  -6.46589E-10 -6.64348E-10 -1.34269E-10 -9.93748E-12 -2.08334E-10 -1.09449E-09 -4.22582E-10 -3.80903E-10  1.21095E-10 -6.78260E-10
  -5.22030E-10 -1.13885E-10 -1.07906E-11 -4.59074E-10 -4.19626E-11 -4.66148E-10 -3.74521E-10  2.70654E-10 -1.23266E-10 -2.74992E-10
  -2.77546E-10  1.25665E-10 -3.75893E-10  4.91168E-10 -2.85906E-10  4.09266E-10 -3.82774E-10  5.37731E-11  1.46347E-10 -3.74819E-11
  -8.66209E-10 -2.46953E-10  3.26947E-10 -2.36123E-10 -2.76183E-11  3.09185E-10 -3.51740E-10 -4.28525E-10 -1.43774E-10  1.31362E-10
   3.10637E-10 -1.24712E-10 -1.46673E-10 -4.24052E-10  2.71331E-10 -1.47732E-10  1.66769E-10 -3.63821E-11 -6.03975E-11 -2.29968E-10
  -3.61774E-11 -1.26975E-10 -4.58144E-11
 NY points of the fit to the data follow
   9.81899E-09  9.85218E-09  9.79363E-09  9.65210E-09  9.29605E-09  8.70312E-09  7.98753E-09  7.32614E-09  6.89898E-09  6.64967E-09
   6.65184E-09  6.81431E-09  7.03384E-09  7.27171E-09  7.56920E-09  7.94459E-09  8.36896E-09  8.78560E-09  9.07010E-09  9.10670E-09
   8.95529E-09  8.54708E-09  7.93564E-09  7.37428E-09  7.01955E-09  6.86560E-09  6.95786E-09  7.30137E-09  7.71803E-09  8.09735E-09
   8.27625E-09  8.42504E-09  8.71429E-09  8.92891E-09  9.03024E-09  9.21483E-09  9.34975E-09  9.19756E-09  8.72839E-09  8.04890E-09
   7.31027E-09  6.53070E-09  5.61963E-09  4.94649E-09  4.61937E-09  4.32904E-09  4.11245E-09  4.03881E-09  4.01014E-09  3.98101E-09
   3.97134E-09  3.98959E-09  4.05836E-09  4.13102E-09  4.17772E-09  4.19412E-09  4.20062E-09  4.19345E-09  4.19371E-09  4.24599E-09
   4.43838E-09  4.86718E-09  5.43807E-09  6.06255E-09  6.92118E-09  7.73388E-09  8.28141E-09  8.60250E-09  8.66659E-09  8.39353E-09
   7.82212E-09  7.00008E-09  6.10549E-09  5.36103E-09  4.62991E-09  4.03749E-09  4.05771E-09  4.88997E-09  6.23989E-09  8.04457E-09
   9.92265E-09  1.14278E-08  1.23232E-08  1.24033E-08  1.16766E-08  1.05353E-08  9.23115E-09  7.83225E-09  6.62828E-09  6.22819E-09
   6.04520E-09  5.88848E-09  5.58367E-09  5.13997E-09  4.80409E-09  4.45945E-09  4.02151E-09  3.70579E-09  3.48392E-09  3.27850E-09
   3.14132E-09  3.05818E-09  3.00848E-09  2.98652E-09  2.97746E-09  2.97045E-09  2.95992E-09  2.94295E-09  2.91776E-09  2.88363E-09
   2.84329E-09  2.80669E-09  2.78302E-09  2.75866E-09  2.73902E-09  2.73511E-09  2.73690E-09  2.74138E-09  2.74738E-09  2.75427E-09
   2.76168E-09  2.76929E-09  2.77686E-09  2.78418E-09  2.79110E-09  2.79743E-09  2.80306E-09  2.80784E-09  2.81167E-09  2.81442E-09
   2.81597E-09  2.81623E-09  2.81508E-09  2.81243E-09  2.80818E-09  2.80224E-09  2.79451E-09  2.78491E-09  2.77336E-09  2.75976E-09
   2.74404E-09  2.72610E-09  2.70585E-09  2.68320E-09  2.65806E-09  2.63035E-09  2.60000E-09  2.56695E-09  2.53115E-09  2.49256E-09
   2.45119E-09  2.40705E-09  2.36020E-09  2.31074E-09  2.25886E-09  2.20483E-09  2.14909E-09  2.09226E-09  2.03534E-09  1.97983E-09
   1.92814E-09  1.88432E-09  1.85558E-09  1.85609E-09  1.91832E-09  2.13878E-09  2.93596E-09  4.79994E-09  7.52332E-09  1.06080E-08
   1.35153E-08  1.56030E-08  1.63149E-08  1.54619E-08  1.33062E-08  1.03576E-08  7.06943E-09  3.84262E-09  1.40541E-09  2.21347E-10
  -3.01614E-10 -6.40367E-10 -9.04429E-10 -1.12959E-09 -1.33106E-09 -1.51636E-09 -1.68949E-09 -1.85268E-09 -2.00719E-09 -2.15371E-09
  -2.29255E-09 -2.42381E-09 -2.54742E-09 -2.66320E-09 -2.77091E-09 -2.87025E-09 -2.96102E-09 -3.04345E-09 -3.11784E-09 -3.18449E-09
  -3.24366E-09 -3.29562E-09 -3.34061E-09 -3.37889E-09 -3.41071E-09 -3.43628E-09 -3.45585E-09 -3.46965E-09 -3.47790E-09 -3.48084E-09
  -3.47868E-09 -3.47164E-09 -3.45996E-09 -3.44385E-09 -3.42352E-09 -3.39920E-09 -3.37111E-09 -3.33945E-09 -3.30446E-09 -3.26635E-09
  -3.22532E-09 -3.18160E-09 -3.13540E-09 -3.08694E-09 -3.03641E-09 -2.98398E-09 -2.92981E-09 -2.87404E-09 -2.81684E-09 -2.75837E-09
  -2.69878E-09 -2.63823E-09 -2.57688E-09 -2.51489E-09 -2.45239E-09 -2.38957E-09 -2.32657E-09 -2.26355E-09 -2.20065E-09 -2.13806E-09
  -2.07592E-09 -2.01438E-09 -1.95360E-09 -1.89374E-09 -1.83494E-09 -1.77738E-09 -1.72120E-09 -1.66656E-09 -1.61362E-09 -1.56253E-09
  -1.51345E-09 -1.46654E-09 -1.42185E-09 -1.37932E-09 -1.33888E-09 -1.30047E-09 -1.26400E-09 -1.22941E-09 -1.19663E-09 -1.16558E-09
  -1.13620E-09 -1.10841E-09 -1.08215E-09 -1.05734E-09 -1.03391E-09 -1.01179E-09 -9.90896E-10 -9.71185E-10 -9.52570E-10 -9.34974E-10
  -9.18329E-10 -9.02574E-10 -8.87623E-10 -8.73411E-10 -8.59878E-10 -8.46929E-10 -8.34518E-10 -8.22558E-10 -8.10986E-10 -7.99724E-10
  -7.88733E-10 -7.77993E-10 -7.67484E-10 -7.57183E-10 -7.47078E-10 -7.37142E-10 -7.27362E-10 -7.17712E-10 -7.08176E-10 -6.98736E-10
  -6.89370E-10 -6.80059E-10 -6.70783E-10 -6.61523E-10 -6.52261E-10 -6.42975E-10 -6.33647E-10 -6.24257E-10 -6.14789E-10 -6.05214E-10
  -5.95524E-10 -5.85691E-10 -5.75698E-10 -5.65530E-10 -5.55163E-10 -5.44576E-10 -5.33754E-10 -5.22674E-10 -5.11346E-10 -4.99788E-10
  -4.88020E-10 -4.76060E-10 -4.63929E-10 -4.51644E-10 -4.39226E-10 -4.26695E-10 -4.14069E-10 -4.01368E-10 -3.88612E-10 -3.75817E-10
  -3.63009E-10 -3.50200E-10 -3.37413E-10 -3.24670E-10 -3.11984E-10 -2.99382E-10 -2.86877E-10 -2.74490E-10 -2.62242E-10 -2.50153E-10
  -2.38238E-10 -2.26521E-10 -2.15017E-10 -2.03751E-10 -1.92739E-10 -1.81996E-10 -1.71519E-10 -1.61299E-10 -1.51321E-10 -1.41573E-10
  -1.32045E-10 -1.22724E-10 -1.13597E-10 -1.04654E-10 -9.58844E-11 -8.72712E-11 -7.88088E-11 -7.04814E-11 -6.22784E-11 -5.41870E-11
  -4.61947E-11 -3.82923E-11 -3.04655E-11 -2.27037E-11 -1.49943E-11 -7.32647E-12  3.12639E-13  7.93621E-12  1.55541E-11  2.31772E-11
   3.08190E-11  3.84905E-11  4.62073E-11
 NY background values follow
     2.038E-09    2.023E-09    2.008E-09    1.993E-09    1.978E-09    1.963E-09    1.948E-09    1.934E-09    1.919E-09    1.904E-09
     1.890E-09    1.875E-09    1.860E-09    1.846E-09    1.831E-09    1.817E-09    1.802E-09    1.787E-09    1.773E-09    1.758E-09
     1.744E-09    1.729E-09    1.715E-09    1.700E-09    1.685E-09    1.671E-09    1.656E-09    1.641E-09    1.627E-09    1.612E-09
     1.597E-09    1.582E-09    1.568E-09    1.553E-09    1.539E-09    1.524E-09    1.510E-09    1.496E-09    1.482E-09    1.468E-09
     1.455E-09    1.442E-09    1.429E-09    1.416E-09    1.404E-09    1.392E-09    1.381E-09    1.370E-09    1.359E-09    1.349E-09
     1.340E-09    1.330E-09    1.322E-09    1.314E-09    1.306E-09    1.300E-09    1.293E-09    1.288E-09    1.283E-09    1.279E-09
     1.275E-09    1.272E-09    1.270E-09    1.268E-09    1.267E-09    1.267E-09    1.267E-09    1.268E-09    1.270E-09    1.272E-09
     1.275E-09    1.279E-09    1.283E-09    1.288E-09    1.293E-09    1.299E-09    1.306E-09    1.313E-09    1.321E-09    1.330E-09
     1.339E-09    1.349E-09    1.360E-09    1.371E-09    1.383E-09    1.395E-09    1.408E-09    1.422E-09    1.436E-09    1.451E-09
     1.466E-09    1.482E-09    1.498E-09    1.514E-09    1.531E-09    1.549E-09    1.566E-09    1.584E-09    1.603E-09    1.621E-09
     1.640E-09    1.659E-09    1.679E-09    1.698E-09    1.718E-09    1.738E-09    1.758E-09    1.778E-09    1.798E-09    1.818E-09
     1.838E-09    1.858E-09    1.878E-09    1.898E-09    1.918E-09    1.938E-09    1.957E-09    1.976E-09    1.994E-09    2.011E-09
     2.028E-09    2.045E-09    2.060E-09    2.074E-09    2.088E-09    2.100E-09    2.111E-09    2.121E-09    2.129E-09    2.136E-09
     2.141E-09    2.145E-09    2.147E-09    2.147E-09    2.146E-09    2.142E-09    2.136E-09    2.129E-09    2.119E-09    2.106E-09
     2.092E-09    2.074E-09    2.054E-09    2.032E-09    2.007E-09    1.978E-09    1.947E-09    1.912E-09    1.874E-09    1.833E-09
     1.788E-09    1.740E-09    1.688E-09    1.632E-09    1.572E-09    1.508E-09    1.440E-09    1.368E-09    1.291E-09    1.209E-09
     1.124E-09    1.033E-09    9.374E-10    8.370E-10    7.315E-10    6.208E-10    5.048E-10    3.834E-10    2.566E-10    1.247E-10
    -1.173E-11   -1.523E-10   -2.965E-10   -4.438E-10   -5.938E-10   -7.459E-10   -8.997E-10   -1.055E-09   -1.210E-09   -1.366E-09
    -1.522E-09   -1.677E-09   -1.830E-09   -1.982E-09   -2.132E-09   -2.279E-09   -2.423E-09   -2.563E-09   -2.699E-09   -2.831E-09
    -2.957E-09   -3.078E-09   -3.193E-09   -3.301E-09   -3.402E-09   -3.495E-09   -3.581E-09   -3.659E-09   -3.729E-09   -3.792E-09
    -3.848E-09   -3.897E-09   -3.939E-09   -3.975E-09   -4.004E-09   -4.028E-09   -4.046E-09   -4.058E-09   -4.064E-09   -4.065E-09
    -4.062E-09   -4.053E-09   -4.040E-09   -4.023E-09   -4.002E-09   -3.976E-09   -3.947E-09   -3.914E-09   -3.878E-09   -3.839E-09
    -3.797E-09   -3.753E-09   -3.706E-09   -3.657E-09   -3.605E-09   -3.552E-09   -3.497E-09   -3.441E-09   -3.383E-09   -3.324E-09
    -3.264E-09   -3.203E-09   -3.141E-09   -3.078E-09   -3.015E-09   -2.952E-09   -2.888E-09   -2.825E-09   -2.762E-09   -2.699E-09
    -2.636E-09   -2.574E-09   -2.513E-09   -2.452E-09   -2.393E-09   -2.335E-09   -2.279E-09   -2.224E-09   -2.170E-09   -2.119E-09
    -2.069E-09   -2.022E-09   -1.977E-09   -1.934E-09   -1.893E-09   -1.855E-09   -1.818E-09   -1.783E-09   -1.750E-09   -1.718E-09
    -1.689E-09   -1.661E-09   -1.634E-09   -1.609E-09   -1.585E-09   -1.563E-09   -1.542E-09   -1.522E-09   -1.503E-09   -1.485E-09
    -1.468E-09   -1.452E-09   -1.437E-09   -1.422E-09   -1.408E-09   -1.395E-09   -1.382E-09   -1.370E-09   -1.358E-09   -1.347E-09
    -1.336E-09   -1.325E-09   -1.314E-09   -1.303E-09   -1.293E-09   -1.283E-09   -1.273E-09   -1.263E-09   -1.253E-09   -1.243E-09
    -1.234E-09   -1.224E-09   -1.214E-09   -1.205E-09   -1.195E-09   -1.186E-09   -1.176E-09   -1.167E-09   -1.157E-09   -1.147E-09
    -1.137E-09   -1.127E-09   -1.117E-09   -1.106E-09   -1.096E-09   -1.085E-09   -1.074E-09   -1.063E-09   -1.051E-09   -1.039E-09
    -1.027E-09   -1.015E-09   -1.003E-09   -9.901E-10   -9.775E-10   -9.647E-10   -9.518E-10   -9.389E-10   -9.259E-10   -9.128E-10
    -8.998E-10   -8.867E-10   -8.737E-10   -8.607E-10   -8.478E-10   -8.349E-10   -8.221E-10   -8.095E-10   -7.970E-10   -7.847E-10
    -7.725E-10   -7.605E-10   -7.488E-10   -7.373E-10   -7.260E-10   -7.150E-10   -7.043E-10   -6.938E-10   -6.836E-10   -6.736E-10
    -6.638E-10   -6.542E-10   -6.448E-10   -6.356E-10   -6.266E-10   -6.177E-10   -6.090E-10   -6.004E-10   -5.919E-10   -5.836E-10
    -5.753E-10   -5.671E-10   -5.591E-10   -5.510E-10   -5.430E-10   -5.351E-10   -5.272E-10   -5.193E-10   -5.114E-10   -5.035E-10
    -4.956E-10   -4.876E-10   -4.796E-10
 Ala      Conc. = 4.55E-11
   2.07115E-09  2.05978E-09  2.04723E-09  2.03366E-09  2.01897E-09  2.00326E-09  1.98612E-09  1.96716E-09  1.94857E-09  1.93055E-09
   1.91086E-09  1.89191E-09  1.87478E-09  1.85755E-09  1.84075E-09  1.82478E-09  1.80925E-09  1.79399E-09  1.77889E-09  1.76391E-09
   1.74901E-09  1.73415E-09  1.71934E-09  1.70455E-09  1.68976E-09  1.67499E-09  1.66020E-09  1.64541E-09  1.63060E-09  1.61578E-09
   1.60096E-09  1.58618E-09  1.57145E-09  1.55679E-09  1.54224E-09  1.52781E-09  1.51353E-09  1.49942E-09  1.48551E-09  1.47182E-09
   1.45838E-09  1.44521E-09  1.43233E-09  1.41977E-09  1.40756E-09  1.39571E-09  1.38425E-09  1.37322E-09  1.36262E-09  1.35249E-09
   1.34285E-09  1.33372E-09  1.32514E-09  1.31712E-09  1.30970E-09  1.30288E-09  1.29669E-09  1.29116E-09  1.28628E-09  1.28206E-09
   1.27849E-09  1.27558E-09  1.27331E-09  1.27169E-09  1.27073E-09  1.27042E-09  1.27075E-09  1.27173E-09  1.27336E-09  1.27564E-09
   1.27856E-09  1.28213E-09  1.28635E-09  1.29121E-09  1.29672E-09  1.30288E-09  1.30968E-09  1.31712E-09  1.32522E-09  1.33396E-09
   1.34334E-09  1.35338E-09  1.36406E-09  1.37540E-09  1.38739E-09  1.40003E-09  1.41330E-09  1.42718E-09  1.44166E-09  1.45672E-09
   1.47237E-09  1.48859E-09  1.50540E-09  1.52283E-09  1.54094E-09  1.55983E-09  1.57972E-09  1.60106E-09  1.62492E-09  1.65479E-09
   1.69729E-09  1.74414E-09  1.79311E-09  1.84870E-09  1.90228E-09  1.94692E-09  1.97965E-09  1.99941E-09  2.00580E-09  1.99908E-09
   1.98288E-09  1.96760E-09  1.96281E-09  1.95524E-09  1.95059E-09  1.96011E-09  1.97406E-09  1.98960E-09  2.00566E-09  2.02174E-09
   2.03754E-09  2.05282E-09  2.06743E-09  2.08124E-09  2.09412E-09  2.10597E-09  2.11667E-09  2.12614E-09  2.13428E-09  2.14100E-09
   2.14620E-09  2.14979E-09  2.15169E-09  2.15181E-09  2.15006E-09  2.14635E-09  2.14060E-09  2.13272E-09  2.12262E-09  2.11022E-09
   2.09543E-09  2.07814E-09  2.05825E-09  2.03565E-09  2.01021E-09  1.98183E-09  1.95040E-09  1.91581E-09  1.87793E-09  1.83667E-09
   1.79192E-09  1.74355E-09  1.69147E-09  1.63555E-09  1.57570E-09  1.51179E-09  1.44373E-09  1.37140E-09  1.29471E-09  1.21354E-09
   1.12781E-09  1.03741E-09  9.42310E-10  8.42449E-10  7.37926E-10  6.29167E-10  5.18379E-10  4.11575E-10  3.05038E-10  1.95874E-10
   8.10394E-11 -4.37161E-11 -1.82105E-10 -3.34933E-10 -4.99552E-10 -6.71449E-10 -8.47029E-10 -1.02366E-09 -1.19604E-09 -1.35690E-09
  -1.51461E-09 -1.67063E-09 -1.82500E-09 -1.97744E-09 -2.12753E-09 -2.27485E-09 -2.41894E-09 -2.55933E-09 -2.69554E-09 -2.82711E-09
  -2.95354E-09 -3.07436E-09 -3.18910E-09 -3.29724E-09 -3.39833E-09 -3.49188E-09 -3.57754E-09 -3.65543E-09 -3.72579E-09 -3.78880E-09
  -3.84470E-09 -3.89368E-09 -3.93597E-09 -3.97177E-09 -4.00130E-09 -4.02478E-09 -4.04240E-09 -4.05440E-09 -4.06097E-09 -4.06234E-09
  -4.05871E-09 -4.05030E-09 -4.03732E-09 -4.01999E-09 -3.99850E-09 -3.97309E-09 -3.94396E-09 -3.91132E-09 -3.87538E-09 -3.83637E-09
  -3.79448E-09 -3.74994E-09 -3.70295E-09 -3.65373E-09 -3.60248E-09 -3.54935E-09 -3.49450E-09 -3.43808E-09 -3.38025E-09 -3.32117E-09
  -3.26100E-09 -3.19988E-09 -3.13797E-09 -3.07544E-09 -3.01242E-09 -2.94909E-09 -2.88559E-09 -2.82209E-09 -2.75872E-09 -2.69567E-09
  -2.63308E-09 -2.57110E-09 -2.50989E-09 -2.44961E-09 -2.39040E-09 -2.33244E-09 -2.27586E-09 -2.22083E-09 -2.16751E-09 -2.11605E-09
  -2.06660E-09 -2.01933E-09 -1.97428E-09 -1.93140E-09 -1.89062E-09 -1.85186E-09 -1.81506E-09 -1.78014E-09 -1.74703E-09 -1.71566E-09
  -1.68597E-09 -1.65786E-09 -1.63129E-09 -1.60617E-09 -1.58244E-09 -1.56002E-09 -1.53883E-09 -1.51882E-09 -1.49991E-09 -1.48203E-09
  -1.46510E-09 -1.44906E-09 -1.43382E-09 -1.41933E-09 -1.40552E-09 -1.39230E-09 -1.37962E-09 -1.36738E-09 -1.35554E-09 -1.34401E-09
  -1.33276E-09 -1.32175E-09 -1.31098E-09 -1.30042E-09 -1.29005E-09 -1.27986E-09 -1.26982E-09 -1.25991E-09 -1.25012E-09 -1.24043E-09
  -1.23081E-09 -1.22124E-09 -1.21172E-09 -1.20221E-09 -1.19269E-09 -1.18316E-09 -1.17358E-09 -1.16394E-09 -1.15423E-09 -1.14441E-09
  -1.13447E-09 -1.12439E-09 -1.11415E-09 -1.10374E-09 -1.09313E-09 -1.08230E-09 -1.07123E-09 -1.05990E-09 -1.04833E-09 -1.03653E-09
  -1.02452E-09 -1.01232E-09 -9.99941E-10 -9.87412E-10 -9.74751E-10 -9.61976E-10 -9.49106E-10 -9.36160E-10 -9.23160E-10 -9.10121E-10
  -8.97068E-10 -8.84015E-10 -8.70983E-10 -8.57994E-10 -8.45063E-10 -8.32214E-10 -8.19463E-10 -8.06828E-10 -7.94333E-10 -7.81997E-10
  -7.69833E-10 -7.57866E-10 -7.46114E-10 -7.34597E-10 -7.23335E-10 -7.12339E-10 -7.01611E-10 -6.91137E-10 -6.80905E-10 -6.70904E-10
  -6.61121E-10 -6.51543E-10 -6.42161E-10 -6.32960E-10 -6.23932E-10 -6.15060E-10 -6.06337E-10 -5.97748E-10 -5.89283E-10 -5.80928E-10
  -5.72672E-10 -5.64504E-10 -5.56411E-10 -5.48381E-10 -5.40403E-10 -5.32466E-10 -5.24556E-10 -5.16660E-10 -5.08769E-10 -5.00871E-10
  -4.92953E-10 -4.85004E-10 -4.77008E-10
 Asp      Conc. = 2.25E-10
   2.29809E-09  2.24815E-09  2.19696E-09  2.14330E-09  2.09433E-09  2.04699E-09  2.00717E-09  1.97491E-09  1.95143E-09  1.93163E-09
   1.91376E-09  1.89704E-09  1.88106E-09  1.86556E-09  1.85029E-09  1.83520E-09  1.82028E-09  1.80551E-09  1.79087E-09  1.77633E-09
   1.76189E-09  1.74754E-09  1.73329E-09  1.71913E-09  1.70506E-09  1.69112E-09  1.67730E-09  1.66364E-09  1.65017E-09  1.63695E-09
   1.62408E-09  1.61170E-09  1.60003E-09  1.58938E-09  1.58033E-09  1.57410E-09  1.57359E-09  1.57673E-09  1.58450E-09  1.59127E-09
   1.59301E-09  1.58791E-09  1.57929E-09  1.57532E-09  1.58405E-09  1.61509E-09  1.65574E-09  1.69559E-09  1.73564E-09  1.75979E-09
   1.76269E-09  1.74220E-09  1.70288E-09  1.64826E-09  1.58568E-09  1.52780E-09  1.48204E-09  1.45567E-09  1.42796E-09  1.39996E-09
   1.38608E-09  1.37617E-09  1.36508E-09  1.35645E-09  1.34765E-09  1.33551E-09  1.32221E-09  1.31472E-09  1.31054E-09  1.30853E-09
   1.30812E-09  1.30903E-09  1.31106E-09  1.31409E-09  1.31804E-09  1.32286E-09  1.32849E-09  1.33490E-09  1.34206E-09  1.34997E-09
   1.35859E-09  1.36793E-09  1.37795E-09  1.38867E-09  1.40005E-09  1.41211E-09  1.42480E-09  1.43809E-09  1.45196E-09  1.46638E-09
   1.48133E-09  1.49677E-09  1.51268E-09  1.52903E-09  1.54581E-09  1.56297E-09  1.58050E-09  1.59838E-09  1.61657E-09  1.63506E-09
   1.65381E-09  1.67281E-09  1.69203E-09  1.71143E-09  1.73101E-09  1.75072E-09  1.77056E-09  1.79049E-09  1.81050E-09  1.83054E-09
   1.85062E-09  1.87068E-09  1.89071E-09  1.91066E-09  1.93043E-09  1.94994E-09  1.96910E-09  1.98783E-09  2.00605E-09  2.02366E-09
   2.04059E-09  2.05674E-09  2.07204E-09  2.08639E-09  2.09971E-09  2.11192E-09  2.12294E-09  2.13266E-09  2.14102E-09  2.14792E-09
   2.15329E-09  2.15703E-09  2.15905E-09  2.15929E-09  2.15764E-09  2.15403E-09  2.14836E-09  2.14057E-09  2.13055E-09  2.11823E-09
   2.10350E-09  2.08629E-09  2.06648E-09  2.04395E-09  2.01859E-09  1.99029E-09  1.95895E-09  1.92444E-09  1.88668E-09  1.84553E-09
   1.80090E-09  1.75268E-09  1.70076E-09  1.64504E-09  1.58541E-09  1.52178E-09  1.45405E-09  1.38212E-09  1.30593E-09  1.22541E-09
   1.14052E-09  1.05126E-09  9.57767E-10  8.60305E-10  7.59684E-10  6.58265E-10  5.66049E-10  5.15004E-10  4.87660E-10  4.68129E-10
   4.39675E-10  3.79435E-10  2.66561E-10  9.42586E-11 -1.26932E-10 -3.76544E-10 -6.38240E-10 -9.01238E-10 -1.14241E-09 -1.32442E-09
  -1.49049E-09 -1.65094E-09 -1.80805E-09 -1.96231E-09 -2.11371E-09 -2.26199E-09 -2.40682E-09 -2.54780E-09 -2.68448E-09 -2.81642E-09
  -2.94317E-09 -3.06426E-09 -3.17922E-09 -3.28756E-09 -3.38882E-09 -3.48251E-09 -3.56830E-09 -3.64631E-09 -3.71676E-09 -3.77987E-09
  -3.83584E-09 -3.88490E-09 -3.92725E-09 -3.96311E-09 -3.99270E-09 -4.01622E-09 -4.03390E-09 -4.04594E-09 -4.05255E-09 -4.05395E-09
  -4.05036E-09 -4.04198E-09 -4.02903E-09 -4.01172E-09 -3.99026E-09 -3.96488E-09 -3.93577E-09 -3.90315E-09 -3.86723E-09 -3.82824E-09
  -3.78637E-09 -3.74184E-09 -3.69487E-09 -3.64567E-09 -3.59443E-09 -3.54132E-09 -3.48648E-09 -3.43008E-09 -3.37226E-09 -3.31320E-09
