 LCModel (Version 6.3-1R) Copyright: S.W. Provencher.          Ref.: Magn. Reson. Med. 30:672-679 (1993).                
 onepulse 18x26_ftSpec_smooth_lcm
 26 lines in following concentration table = NCONC+1
    Conc.  %SD /Cr+PCr  Metabolite                                         
    0.000 999%   0.000 Ala                                                 
 1.03E-10 786%   0.265 Asp                                                 
 3.89E-10  70%   1.000 Cr                                                  
    0.000 999%   0.000 GABA                                                
    0.000 999%   0.000 Glc                                                 
 2.69E-09  36%   6.926 Gln                                                 
    0.000 999%   0.000 Glu                                                 
 1.67E-09  22%   4.288 Glyc                                                
    0.000 999%   0.000 GPC                                                 
    0.000 999%   0.000 GSH                                                 
    0.000 999%   0.000 Ins                                                 
    0.000 999%   0.000 Lac                                                 
 3.01E-10 148%   0.773 NAAG                                                
 3.32E-10 166%   0.853 NAA                                                 
 2.95E-10  32%   0.758 PCh                                                 
    0.000 999%   0.000 PCr                                                 
    0.000 999%   0.000 PE                                                  
 3.65E-10  36%   0.939 Scyllo                                              
 2.61E-09  29%   6.719 Ser                                                 
    0.000 999%   0.000 Tau                                                 
 2.95E-10  32%   0.758 GPC+PCh                                             
 6.33E-10  47%   1.627 NAA+NAAG                                            
 1.67E-09  22%   4.288 Ins+Glyc                                            
 3.89E-10  70%   1.000 Cr+PCr                                              
 2.69E-09  25%   6.926 Glu+Gln                                             
   6 lines in following misc. output table
  FWHM = 0.078 ppm    S/N =   3                                            
  Data shift = 0.347 ppm                                                   
  Ph: -63 deg     -39.1 deg/ppm                                            
  alphaB,S = 1.9E-01,   4.4E+01                                            
   16 spline knots.   Ns = 5(1)                                            
  (10) 2 infls.   (11) 1 extrs.                                            
  363 points on ppm-axis = NY
      4.250000     4.238821     4.227641     4.216462     4.205282     4.194103     4.182923     4.171744     4.160564     4.149385
      4.138206     4.127026     4.115847     4.104667     4.093488     4.082308     4.071129     4.059949     4.048770     4.037591
      4.026411     4.015232     4.004052     3.992873     3.981693     3.970514     3.959334     3.948155     3.936975     3.925796
      3.914617     3.903437     3.892258     3.881078     3.869899     3.858719     3.847540     3.836360     3.825181     3.814002
      3.802822     3.791643     3.780463     3.769284     3.758104     3.746925     3.735745     3.724566     3.713387     3.702207
      3.691028     3.679848     3.668669     3.657489     3.646310     3.635130     3.623951     3.612772     3.601592     3.590413
      3.579233     3.568054     3.556874     3.545695     3.534515     3.523336     3.512156     3.500977     3.489798     3.478618
      3.467439     3.456259     3.445080     3.433900     3.422721     3.411541     3.400362     3.389183     3.378003     3.366824
      3.355644     3.344465     3.333285     3.322106     3.310926     3.299747     3.288568     3.277388     3.266209     3.255029
      3.243850     3.232670     3.221491     3.210311     3.199132     3.187953     3.176773     3.165594     3.154414     3.143235
      3.132055     3.120876     3.109696     3.098517     3.087337     3.076158     3.064979     3.053799     3.042620     3.031440
      3.020261     3.009081     2.997902     2.986722     2.975543     2.964364     2.953184     2.942005     2.930825     2.919646
      2.908466     2.897287     2.886107     2.874928     2.863749     2.852569     2.841390     2.830210     2.819031     2.807851
      2.796672     2.785492     2.774313     2.763134     2.751954     2.740775     2.729595     2.718416     2.707236     2.696057
      2.684877     2.673698     2.662519     2.651339     2.640160     2.628980     2.617801     2.606621     2.595442     2.584262
      2.573083     2.561903     2.550724     2.539545     2.528365     2.517186     2.506006     2.494827     2.483647     2.472468
      2.461288     2.450109     2.438930     2.427750     2.416571     2.405391     2.394212     2.383032     2.371853     2.360673
      2.349494     2.338315     2.327135     2.315956     2.304776     2.293597     2.282417     2.271238     2.260058     2.248879
      2.237700     2.226520     2.215341     2.204161     2.192982     2.181802     2.170623     2.159443     2.148264     2.137084
      2.125905     2.114726     2.103546     2.092367     2.081187     2.070008     2.058828     2.047649     2.036469     2.025290
      2.014111     2.002931     1.991752     1.980572     1.969393     1.958213     1.947034     1.935854     1.924675     1.913496
      1.902316     1.891137     1.879957     1.868778     1.857598     1.846419     1.835239     1.824060     1.812881     1.801701
      1.790522     1.779342     1.768163     1.756983     1.745804     1.734624     1.723445     1.712265     1.701086     1.689907
      1.678727     1.667548     1.656368     1.645189     1.634009     1.622830     1.611650     1.600471     1.589292     1.578112
      1.566933     1.555753     1.544574     1.533394     1.522215     1.511035     1.499856     1.488677     1.477497     1.466318
      1.455138     1.443959     1.432779     1.421600     1.410420     1.399241     1.388062     1.376882     1.365703     1.354523
      1.343344     1.332164     1.320985     1.309805     1.298626     1.287446     1.276267     1.265088     1.253908     1.242729
      1.231549     1.220370     1.209190     1.198011     1.186831     1.175652     1.164473     1.153293     1.142114     1.130934
      1.119755     1.108575     1.097396     1.086216     1.075037     1.063858     1.052678     1.041499     1.030319     1.019140
      1.007960     0.996781     0.985601     0.974422     0.963243     0.952063     0.940884     0.929704     0.918525     0.907345
      0.896166     0.884986     0.873807     0.862628     0.851448     0.840269     0.829089     0.817910     0.806730     0.795551
      0.784371     0.773192     0.762012     0.750833     0.739654     0.728474     0.717295     0.706115     0.694936     0.683756
      0.672577     0.661397     0.650218     0.639039     0.627859     0.616680     0.605500     0.594321     0.583141     0.571962
      0.560782     0.549603     0.538424     0.527244     0.516065     0.504885     0.493706     0.482526     0.471347     0.460167
      0.448988     0.437809     0.426629     0.415450     0.404270     0.393091     0.381911     0.370732     0.359552     0.348373
      0.337193     0.326014     0.314835     0.303655     0.292476     0.281296     0.270117     0.258937     0.247758     0.236578
      0.225399     0.214220     0.203040
 NY phased data points follow
   1.44806E-08  1.18836E-08  9.46798E-09  6.51077E-09  5.89874E-09  4.71967E-09  5.04982E-09  5.04187E-09  5.68146E-09  5.80643E-09
   6.35172E-09  6.73756E-09  6.54811E-09  7.06217E-09  7.34578E-09  7.20864E-09  5.82492E-09  5.72058E-09  5.86161E-09  5.47257E-09
   4.81578E-09  4.05549E-09  4.39529E-09  5.17664E-09  5.58262E-09  6.42602E-09  5.68297E-09  4.47027E-09  4.12063E-09  4.20282E-09
   5.21144E-09  7.24328E-09  7.44993E-09  7.69156E-09  5.52535E-09  3.91984E-09  1.96501E-09  1.79279E-09  1.63680E-09  1.56494E-09
   1.83661E-09  2.16262E-09  1.25030E-09  2.12420E-09  1.35730E-09  1.69872E-09  9.60667E-10  1.13474E-09  1.20042E-09  1.49808E-09
   1.89291E-09  2.65207E-09  2.77856E-09  2.90226E-09  2.15482E-09  2.09227E-09  2.23576E-09  3.49327E-09  3.14889E-09  4.27165E-09
   4.33649E-09  4.90778E-09  6.98716E-09  9.36321E-09  9.91753E-09  8.86860E-09  6.44098E-09  5.64658E-09  3.59331E-09  3.47851E-09
   2.96703E-09  3.36604E-09  2.26502E-09  3.07636E-09  2.93979E-09  3.59383E-09  3.32284E-09  4.51470E-09  6.75498E-09  1.14136E-08
   1.44027E-08  1.50375E-08  1.16667E-08  9.54674E-09  7.65527E-09  7.04457E-09  5.72547E-09  5.84097E-09  4.73795E-09  5.12316E-09
   4.26654E-09  4.30391E-09  3.21460E-09  3.12872E-09  2.57929E-09  2.92345E-09  1.46755E-09  2.43832E-09  1.07020E-09  1.97933E-09
   9.57499E-10  1.87326E-09  2.02627E-09  2.94132E-09  1.41519E-09  2.61150E-09  1.42799E-09  2.30326E-09  1.19607E-09  4.86735E-10
   1.36216E-10  1.22563E-10 -1.01564E-10  1.73929E-09  1.56161E-09  2.51792E-09  1.37362E-09  2.36480E-09  2.34288E-09  2.79573E-09
   2.49692E-09  3.56483E-09  2.27939E-09  2.22952E-09  1.21100E-09  1.14153E-09  5.06539E-10  1.29083E-09  1.31339E-09  1.82308E-09
   1.51653E-09  2.03448E-09  1.77711E-09  2.77624E-09  1.93531E-09  2.91636E-09  2.03262E-09  2.42288E-09  1.88422E-09  3.76793E-09
   4.01033E-09  5.21873E-09  5.56662E-09  5.43128E-09  4.52530E-09  5.43042E-09  5.21879E-09  6.31692E-09  6.07594E-09  5.67227E-09
   5.45602E-09  5.47988E-09  4.67257E-09  4.73992E-09  4.07311E-09  4.75959E-09  4.11471E-09  4.55272E-09  4.17228E-09  4.65771E-09
   4.25602E-09  5.11130E-09  4.83031E-09  5.08736E-09  4.36566E-09  5.14963E-09  4.62827E-09  5.52786E-09  5.47088E-09  6.75814E-09
   8.92415E-09  1.47958E-08  1.90850E-08  1.98005E-08  1.70956E-08  1.52604E-08  1.40350E-08  1.25418E-08  1.07986E-08  1.02473E-08
   9.00644E-09  8.69328E-09  7.94145E-09  7.00618E-09  5.55929E-09  5.11532E-09  3.49882E-09  2.56905E-09  1.06318E-09 -6.49105E-10
  -2.41417E-09 -3.38740E-09 -5.86559E-09 -7.40420E-09 -9.58760E-09 -1.18488E-08 -1.32026E-08 -1.46022E-08 -1.64450E-08 -1.74306E-08
  -1.81325E-08 -1.86341E-08 -1.85918E-08 -1.78762E-08 -1.76879E-08 -1.62787E-08 -1.50533E-08 -1.34077E-08 -1.12202E-08 -9.47119E-09
  -8.18903E-09 -5.88852E-09 -4.77378E-09 -3.72002E-09 -3.04351E-09 -2.30453E-09 -1.80554E-09 -2.34873E-09 -2.02027E-09 -2.14785E-09
  -2.83288E-09 -2.42623E-09 -2.69776E-09 -2.55896E-09 -2.22198E-09 -1.54358E-09 -1.69709E-09 -1.83412E-09 -1.70304E-09 -1.26978E-09
  -1.78074E-09 -1.80240E-09 -1.88703E-09 -1.98104E-09 -1.84503E-09 -1.93410E-09 -2.11220E-09 -1.35557E-09 -1.27634E-09 -9.69817E-10
  -1.71112E-09 -1.29682E-09 -1.41368E-09 -1.42272E-09 -1.07686E-09 -1.56220E-09 -2.09358E-09 -1.82785E-09 -1.77223E-09 -1.48115E-09
  -1.44222E-09 -1.24757E-09 -1.28267E-09 -7.99344E-10 -4.83978E-10 -4.98121E-10 -2.11254E-10 -2.45570E-10 -6.42444E-10 -4.41121E-10
  -1.10087E-09 -1.07752E-09 -1.76864E-09 -1.92809E-09 -1.84112E-09 -2.22059E-09 -2.26391E-09 -2.49915E-09 -2.11207E-09 -1.79673E-09
  -1.86278E-09 -1.29073E-09 -1.03714E-09 -6.79412E-10 -7.36530E-10 -6.04620E-10  1.43640E-11  3.78899E-10 -4.01647E-10  9.88149E-11
   2.38510E-10 -1.34052E-10 -1.04657E-10 -6.46444E-10  3.04250E-11 -1.02723E-09 -3.97871E-10 -4.53587E-10 -5.60680E-10 -1.04050E-09
  -7.97581E-10 -1.29974E-09 -1.32121E-09 -1.26732E-09 -9.35690E-10 -1.40835E-09 -1.37741E-09 -1.49457E-09 -1.24659E-09 -1.86269E-09
  -7.36255E-10 -1.68109E-09 -1.60411E-09 -1.29909E-09 -1.95193E-09 -1.47199E-09 -1.76263E-09 -1.93042E-09 -1.92518E-09 -2.03417E-09
  -2.10512E-09 -2.28783E-09 -1.98374E-09 -2.21920E-09 -2.02291E-09 -1.99119E-09 -2.42806E-09 -2.01395E-09 -2.07127E-09 -1.96368E-09
  -2.35878E-09 -2.02335E-09 -1.99098E-09 -2.33046E-09 -2.06189E-09 -1.73299E-09 -2.38463E-09 -2.11215E-09 -2.35480E-09 -1.85607E-09
  -2.13763E-09 -2.15981E-09 -2.26489E-09 -2.43822E-09 -1.70183E-09 -2.44856E-09 -1.42402E-09 -2.38176E-09 -2.10041E-09 -2.53099E-09
  -1.43501E-09 -2.28632E-09 -2.38967E-09 -2.23394E-09 -1.95931E-09 -2.50808E-09 -2.07440E-09 -2.40484E-09 -1.86090E-09 -2.17708E-09
  -2.49355E-09 -2.45046E-09 -2.03062E-09 -2.37336E-09 -2.47677E-09 -2.26640E-09 -2.31939E-09 -2.49447E-09 -1.85411E-09 -2.25930E-09
  -2.19825E-09 -2.63267E-09 -1.82295E-09
 NY points of the fit to the data follow
   1.25387E-08  1.09671E-08  9.23816E-09  8.21530E-09  7.93072E-09  7.29270E-09  6.23119E-09  5.29655E-09  4.82094E-09  4.88799E-09
   5.15366E-09  5.56759E-09  6.47953E-09  7.07447E-09  7.35566E-09  7.29247E-09  6.97014E-09  6.52745E-09  5.57388E-09  4.08050E-09
   3.29410E-09  3.80401E-09  4.41251E-09  4.88114E-09  5.44599E-09  5.99153E-09  6.38347E-09  6.36057E-09  5.92710E-09  5.92409E-09
   5.99876E-09  5.97206E-09  5.82402E-09  5.20588E-09  3.93950E-09  2.71961E-09  2.70222E-09  2.78524E-09  2.77683E-09  2.68521E-09
   2.46034E-09  1.96827E-09  1.26229E-09  8.46812E-10  8.22515E-10  8.88235E-10  9.82817E-10  1.08376E-09  1.19878E-09  1.31411E-09
   1.44165E-09  1.58413E-09  1.76044E-09  1.95732E-09  2.24956E-09  2.69603E-09  3.23434E-09  3.88212E-09  4.72622E-09  5.57348E-09
   6.32646E-09  6.99850E-09  7.55300E-09  7.80202E-09  7.58967E-09  6.92383E-09  6.13781E-09  5.49901E-09  4.56847E-09  3.56791E-09
   3.24284E-09  3.21656E-09  3.22264E-09  3.51850E-09  4.05132E-09  4.85675E-09  5.82555E-09  6.95432E-09  8.16006E-09  9.34651E-09
   1.03871E-08  1.10120E-08  1.09675E-08  1.06000E-08  1.00220E-08  8.79285E-09  7.06570E-09  5.52966E-09  4.18263E-09  3.44629E-09
   3.07635E-09  2.85758E-09  2.71130E-09  2.61101E-09  2.53040E-09  2.47028E-09  2.43044E-09  2.40277E-09  2.37912E-09  2.35734E-09
   2.35152E-09  2.35401E-09  2.35542E-09  2.35869E-09  2.36700E-09  2.37917E-09  2.39387E-09  2.41051E-09  2.42849E-09  2.44772E-09
   2.46797E-09  2.48908E-09  2.51089E-09  2.53320E-09  2.55580E-09  2.57848E-09  2.60106E-09  2.62337E-09  2.64523E-09  2.66648E-09
   2.68697E-09  2.70656E-09  2.72509E-09  2.74242E-09  2.75843E-09  2.77297E-09  2.78591E-09  2.79713E-09  2.80650E-09  2.81389E-09
   2.81918E-09  2.82225E-09  2.82298E-09  2.82125E-09  2.81696E-09  2.80997E-09  2.80018E-09  2.78749E-09  2.77178E-09  2.75294E-09
   2.73089E-09  2.70557E-09  2.67698E-09  2.64510E-09  2.60993E-09  2.57146E-09  2.52971E-09  2.48470E-09  2.43645E-09  2.38501E-09
   2.33045E-09  2.27287E-09  2.21240E-09  2.14921E-09  2.08356E-09  2.01576E-09  1.94629E-09  1.87577E-09  1.80514E-09  1.73574E-09
   1.66963E-09  1.61005E-09  1.56249E-09  1.53689E-09  1.55374E-09  1.66443E-09  2.05296E-09  3.39272E-09  5.59092E-09  8.35304E-09
   1.16881E-08  1.51822E-08  1.78765E-08  1.90806E-08  1.89438E-08  1.78388E-08  1.53515E-08  1.06369E-08  4.54897E-09  1.03454E-09
  -8.94840E-11 -6.63873E-10 -1.04667E-09 -1.34110E-09 -1.58720E-09 -1.80353E-09 -1.99968E-09 -2.18101E-09 -2.35061E-09 -2.51038E-09
  -2.66142E-09 -2.80441E-09 -2.93969E-09 -3.06739E-09 -3.18754E-09 -3.30004E-09 -3.40483E-09 -3.50215E-09 -3.59228E-09 -3.67544E-09
  -3.75186E-09 -3.82172E-09 -3.88522E-09 -3.94252E-09 -3.99380E-09 -4.03920E-09 -4.07887E-09 -4.11297E-09 -4.14164E-09 -4.16501E-09
  -4.18322E-09 -4.19641E-09 -4.20471E-09 -4.20824E-09 -4.20715E-09 -4.20155E-09 -4.19157E-09 -4.17735E-09 -4.15900E-09 -4.13666E-09
  -4.11043E-09 -4.08046E-09 -4.04686E-09 -4.00975E-09 -3.96929E-09 -3.92565E-09 -3.87902E-09 -3.82958E-09 -3.77752E-09 -3.72304E-09
  -3.66632E-09 -3.60753E-09 -3.54689E-09 -3.48456E-09 -3.42073E-09 -3.35559E-09 -3.28933E-09 -3.22214E-09 -3.15417E-09 -3.08566E-09
  -3.01677E-09 -2.94768E-09 -2.87858E-09 -2.80967E-09 -2.74111E-09 -2.67310E-09 -2.60583E-09 -2.53947E-09 -2.47422E-09 -2.41027E-09
  -2.34777E-09 -2.28696E-09 -2.22791E-09 -2.17062E-09 -2.11510E-09 -2.06135E-09 -2.00936E-09 -1.95913E-09 -1.91064E-09 -1.86391E-09
  -1.81893E-09 -1.77569E-09 -1.73419E-09 -1.69442E-09 -1.65639E-09 -1.62009E-09 -1.58549E-09 -1.55264E-09 -1.52151E-09 -1.49208E-09
  -1.46436E-09 -1.43835E-09 -1.41404E-09 -1.39143E-09 -1.37053E-09 -1.35130E-09 -1.33377E-09 -1.31792E-09 -1.30376E-09 -1.29127E-09
  -1.28043E-09 -1.27120E-09 -1.26353E-09 -1.25736E-09 -1.25267E-09 -1.24940E-09 -1.24751E-09 -1.24694E-09 -1.24766E-09 -1.24962E-09
  -1.25277E-09 -1.25707E-09 -1.26246E-09 -1.26891E-09 -1.27638E-09 -1.28480E-09 -1.29414E-09 -1.30435E-09 -1.31540E-09 -1.32721E-09
  -1.33976E-09 -1.35300E-09 -1.36688E-09 -1.38136E-09 -1.39639E-09 -1.41192E-09 -1.42792E-09 -1.44432E-09 -1.46111E-09 -1.47826E-09
  -1.49575E-09 -1.51356E-09 -1.53167E-09 -1.55005E-09 -1.56869E-09 -1.58756E-09 -1.60664E-09 -1.62592E-09 -1.64536E-09 -1.66495E-09
  -1.68467E-09 -1.70449E-09 -1.72439E-09 -1.74436E-09 -1.76436E-09 -1.78439E-09 -1.80441E-09 -1.82441E-09 -1.84436E-09 -1.86425E-09
  -1.88404E-09 -1.90373E-09 -1.92328E-09 -1.94269E-09 -1.96192E-09 -1.98095E-09 -1.99979E-09 -2.01845E-09 -2.03694E-09 -2.05525E-09
  -2.07342E-09 -2.09143E-09 -2.10931E-09 -2.12705E-09 -2.14468E-09 -2.16219E-09 -2.17960E-09 -2.19691E-09 -2.21414E-09 -2.23128E-09
  -2.24836E-09 -2.26538E-09 -2.28235E-09 -2.29928E-09 -2.31617E-09 -2.33304E-09 -2.34989E-09 -2.36673E-09 -2.38357E-09 -2.40043E-09
  -2.41730E-09 -2.43421E-09 -2.45115E-09
 NY background values follow
    -2.752E-09   -2.708E-09   -2.665E-09   -2.622E-09   -2.578E-09   -2.535E-09   -2.492E-09   -2.448E-09   -2.405E-09   -2.362E-09
    -2.318E-09   -2.275E-09   -2.232E-09   -2.189E-09   -2.146E-09   -2.102E-09   -2.059E-09   -2.016E-09   -1.973E-09   -1.931E-09
    -1.888E-09   -1.845E-09   -1.803E-09   -1.760E-09   -1.718E-09   -1.675E-09   -1.633E-09   -1.591E-09   -1.549E-09   -1.508E-09
    -1.466E-09   -1.425E-09   -1.383E-09   -1.342E-09   -1.301E-09   -1.260E-09   -1.219E-09   -1.178E-09   -1.138E-09   -1.097E-09
    -1.056E-09   -1.016E-09   -9.754E-10   -9.351E-10   -8.948E-10   -8.546E-10   -8.144E-10   -7.742E-10   -7.341E-10   -6.940E-10
    -6.540E-10   -6.139E-10   -5.739E-10   -5.339E-10   -4.939E-10   -4.539E-10   -4.139E-10   -3.739E-10   -3.339E-10   -2.939E-10
    -2.539E-10   -2.139E-10   -1.739E-10   -1.340E-10   -9.410E-11   -5.426E-11   -1.447E-11    2.527E-11    6.493E-11    1.045E-10
     1.440E-10    1.835E-10    2.228E-10    2.621E-10    3.012E-10    3.402E-10    3.791E-10    4.179E-10    4.565E-10    4.951E-10
     5.334E-10    5.716E-10    6.097E-10    6.476E-10    6.853E-10    7.228E-10    7.602E-10    7.974E-10    8.344E-10    8.711E-10
     9.077E-10    9.441E-10    9.803E-10    1.016E-09    1.052E-09    1.088E-09    1.123E-09    1.158E-09    1.193E-09    1.228E-09
     1.262E-09    1.296E-09    1.330E-09    1.364E-09    1.397E-09    1.430E-09    1.463E-09    1.496E-09    1.528E-09    1.560E-09
     1.592E-09    1.624E-09    1.655E-09    1.686E-09    1.716E-09    1.746E-09    1.775E-09    1.804E-09    1.831E-09    1.857E-09
     1.882E-09    1.906E-09    1.929E-09    1.950E-09    1.969E-09    1.987E-09    2.003E-09    2.017E-09    2.028E-09    2.038E-09
     2.045E-09    2.050E-09    2.052E-09    2.052E-09    2.049E-09    2.043E-09    2.034E-09    2.022E-09    2.006E-09    1.988E-09
     1.965E-09    1.940E-09    1.911E-09    1.878E-09    1.841E-09    1.801E-09    1.757E-09    1.710E-09    1.659E-09    1.604E-09
     1.545E-09    1.482E-09    1.415E-09    1.345E-09    1.270E-09    1.191E-09    1.109E-09    1.022E-09    9.310E-10    8.359E-10
     7.367E-10    6.332E-10    5.255E-10    4.134E-10    2.970E-10    1.763E-10    5.110E-11   -7.852E-11   -2.126E-10   -3.507E-10
    -4.926E-10   -6.378E-10   -7.858E-10   -9.364E-10   -1.089E-09   -1.244E-09   -1.399E-09   -1.556E-09   -1.713E-09   -1.870E-09
    -2.027E-09   -2.183E-09   -2.338E-09   -2.492E-09   -2.644E-09   -2.793E-09   -2.940E-09   -3.083E-09   -3.223E-09   -3.359E-09
    -3.491E-09   -3.618E-09   -3.740E-09   -3.856E-09   -3.967E-09   -4.071E-09   -4.168E-09   -4.259E-09   -4.344E-09   -4.422E-09
    -4.494E-09   -4.559E-09   -4.619E-09   -4.673E-09   -4.721E-09   -4.764E-09   -4.801E-09   -4.833E-09   -4.859E-09   -4.881E-09
    -4.897E-09   -4.909E-09   -4.915E-09   -4.917E-09   -4.915E-09   -4.908E-09   -4.897E-09   -4.881E-09   -4.862E-09   -4.838E-09
    -4.811E-09   -4.780E-09   -4.745E-09   -4.707E-09   -4.666E-09   -4.622E-09   -4.574E-09   -4.524E-09   -4.471E-09   -4.416E-09
    -4.359E-09   -4.299E-09   -4.238E-09   -4.175E-09   -4.111E-09   -4.045E-09   -3.978E-09   -3.910E-09   -3.842E-09   -3.773E-09
    -3.703E-09   -3.634E-09   -3.564E-09   -3.495E-09   -3.426E-09   -3.357E-09   -3.290E-09   -3.223E-09   -3.157E-09   -3.093E-09
    -3.030E-09   -2.969E-09   -2.909E-09   -2.851E-09   -2.796E-09   -2.741E-09   -2.689E-09   -2.638E-09   -2.590E-09   -2.542E-09
    -2.497E-09   -2.454E-09   -2.412E-09   -2.372E-09   -2.333E-09   -2.297E-09   -2.262E-09   -2.228E-09   -2.197E-09   -2.167E-09
    -2.139E-09   -2.113E-09   -2.088E-09   -2.065E-09   -2.044E-09   -2.025E-09   -2.007E-09   -1.991E-09   -1.976E-09   -1.963E-09
    -1.952E-09   -1.943E-09   -1.935E-09   -1.928E-09   -1.923E-09   -1.920E-09   -1.918E-09   -1.917E-09   -1.917E-09   -1.919E-09
    -1.922E-09   -1.926E-09   -1.931E-09   -1.937E-09   -1.944E-09   -1.952E-09   -1.961E-09   -1.971E-09   -1.982E-09   -1.993E-09
    -2.006E-09   -2.019E-09   -2.032E-09   -2.047E-09   -2.061E-09   -2.077E-09   -2.092E-09   -2.108E-09   -2.125E-09   -2.142E-09
    -2.159E-09   -2.176E-09   -2.194E-09   -2.212E-09   -2.231E-09   -2.249E-09   -2.268E-09   -2.287E-09   -2.306E-09   -2.326E-09
    -2.345E-09   -2.365E-09   -2.384E-09   -2.404E-09   -2.424E-09   -2.443E-09   -2.463E-09   -2.483E-09   -2.502E-09   -2.522E-09
    -2.541E-09   -2.561E-09   -2.580E-09   -2.599E-09   -2.618E-09   -2.637E-09   -2.655E-09   -2.674E-09   -2.692E-09   -2.710E-09
    -2.728E-09   -2.746E-09   -2.763E-09   -2.781E-09   -2.798E-09   -2.815E-09   -2.832E-09   -2.849E-09   -2.866E-09   -2.883E-09
    -2.900E-09   -2.916E-09   -2.933E-09   -2.950E-09   -2.966E-09   -2.983E-09   -2.999E-09   -3.016E-09   -3.032E-09   -3.049E-09
    -3.065E-09   -3.082E-09   -3.099E-09
 Asp      Conc. = 1.03E-10
  -2.62295E-09 -2.59553E-09 -2.56609E-09 -2.53981E-09 -2.51011E-09 -2.48413E-09 -2.45703E-09 -2.42576E-09 -2.38808E-09 -2.34793E-09
  -2.30663E-09 -2.26466E-09 -2.22223E-09 -2.17948E-09 -2.13669E-09 -2.09386E-09 -2.05100E-09 -2.00814E-09 -1.96529E-09 -1.92246E-09
  -1.87966E-09 -1.83690E-09 -1.79420E-09 -1.75155E-09 -1.70895E-09 -1.66642E-09 -1.62394E-09 -1.58152E-09 -1.53913E-09 -1.49678E-09
  -1.45443E-09 -1.41201E-09 -1.36946E-09 -1.32667E-09 -1.28342E-09 -1.23929E-09 -1.19326E-09 -1.14626E-09 -1.09738E-09 -1.04830E-09
  -1.00004E-09 -9.53480E-10 -9.07978E-10 -8.61989E-10 -8.13057E-10 -7.58992E-10 -7.03915E-10 -6.47566E-10 -5.84934E-10 -5.26040E-10
  -4.69698E-10 -4.20968E-10 -3.81581E-10 -3.56680E-10 -3.45211E-10 -3.37534E-10 -3.19053E-10 -2.82474E-10 -2.53242E-10 -2.32251E-10
  -1.99575E-10 -1.65097E-10 -1.31555E-10 -9.22681E-11 -5.19483E-11 -1.68122E-11  1.42557E-11  4.89126E-11  8.52658E-11  1.22493E-10
   1.60222E-10  1.98248E-10  2.36456E-10  2.74764E-10  3.13122E-10  3.51483E-10  3.89821E-10  4.28111E-10  4.66331E-10  5.04460E-10
   5.42494E-10  5.80406E-10  6.18199E-10  6.55846E-10  6.93352E-10  7.30696E-10  7.67877E-10  8.04888E-10  8.41724E-10  8.78379E-10
   9.14847E-10  9.51125E-10  9.87206E-10  1.02309E-09  1.05876E-09  1.09422E-09  1.12947E-09  1.16450E-09  1.19931E-09  1.23389E-09
   1.26823E-09  1.30234E-09  1.33621E-09  1.36983E-09  1.40320E-09  1.43632E-09  1.46918E-09  1.50178E-09  1.53411E-09  1.56617E-09
   1.59796E-09  1.62947E-09  1.66069E-09  1.69156E-09  1.72196E-09  1.75177E-09  1.78088E-09  1.80918E-09  1.83655E-09  1.86287E-09
   1.88803E-09  1.91192E-09  1.93442E-09  1.95541E-09  1.97479E-09  1.99243E-09  2.00822E-09  2.02205E-09  2.03379E-09  2.04335E-09
   2.05059E-09  2.05541E-09  2.05770E-09  2.05732E-09  2.05418E-09  2.04816E-09  2.03914E-09  2.02700E-09  2.01164E-09  1.99294E-09
   1.97078E-09  1.94511E-09  1.91589E-09  1.88310E-09  1.84668E-09  1.80661E-09  1.76286E-09  1.71538E-09  1.66414E-09  1.60910E-09
   1.55024E-09  1.48751E-09  1.42089E-09  1.35033E-09  1.27581E-09  1.19730E-09  1.11476E-09  1.02817E-09  9.37508E-10  8.42747E-10
   7.43883E-10  6.40923E-10  5.33917E-10  4.22958E-10  3.08345E-10  1.90924E-10  7.44225E-11 -3.12750E-11 -1.34234E-10 -2.34254E-10
  -3.31238E-10 -4.33313E-10 -5.53277E-10 -6.95210E-10 -8.52917E-10 -1.02333E-09 -1.21650E-09 -1.44048E-09 -1.66891E-09 -1.84553E-09
  -2.00960E-09 -2.16939E-09 -2.32662E-09 -2.48159E-09 -2.63421E-09 -2.78427E-09 -2.93144E-09 -3.07538E-09 -3.21570E-09 -3.35204E-09
  -3.48401E-09 -3.61123E-09 -3.73330E-09 -3.84980E-09 -3.96036E-09 -4.06457E-09 -4.16215E-09 -4.25314E-09 -4.33766E-09 -4.41585E-09
  -4.48782E-09 -4.55368E-09 -4.61357E-09 -4.66760E-09 -4.71588E-09 -4.75855E-09 -4.79572E-09 -4.82751E-09 -4.85404E-09 -4.87543E-09
  -4.89180E-09 -4.90327E-09 -4.90995E-09 -4.91198E-09 -4.90947E-09 -4.90254E-09 -4.89130E-09 -4.87589E-09 -4.85641E-09 -4.83299E-09
  -4.80575E-09 -4.77480E-09 -4.74028E-09 -4.70228E-09 -4.66097E-09 -4.61652E-09 -4.56910E-09 -4.51891E-09 -4.46613E-09 -4.41095E-09
  -4.35356E-09 -4.29412E-09 -4.23285E-09 -4.16991E-09 -4.10548E-09 -4.03977E-09 -3.97295E-09 -3.90522E-09 -3.83673E-09 -3.76770E-09
  -3.69831E-09 -3.62872E-09 -3.55915E-09 -3.48977E-09 -3.42075E-09 -3.35229E-09 -3.28457E-09 -3.21778E-09 -3.15211E-09 -3.08775E-09
  -3.02485E-09 -2.96363E-09 -2.90419E-09 -2.84651E-09 -2.79061E-09 -2.73649E-09 -2.68412E-09 -2.63353E-09 -2.58468E-09 -2.53759E-09
  -2.49226E-09 -2.44867E-09 -2.40683E-09 -2.36672E-09 -2.32835E-09 -2.29172E-09 -2.25679E-09 -2.22361E-09 -2.19216E-09 -2.16241E-09
  -2.13437E-09 -2.10805E-09 -2.08343E-09 -2.06051E-09 -2.03929E-09 -2.01976E-09 -2.00193E-09 -1.98578E-09 -1.97132E-09 -1.95853E-09
  -1.94739E-09 -1.93787E-09 -1.92990E-09 -1.92344E-09 -1.91846E-09 -1.91490E-09 -1.91272E-09 -1.91186E-09 -1.91229E-09 -1.91396E-09
  -1.91683E-09 -1.92084E-09 -1.92595E-09 -1.93212E-09 -1.93930E-09 -1.94744E-09 -1.95650E-09 -1.96643E-09 -1.97720E-09 -1.98873E-09
  -2.00100E-09 -2.01396E-09 -2.02756E-09 -2.04176E-09 -2.05651E-09 -2.07176E-09 -2.08748E-09 -2.10360E-09 -2.12010E-09 -2.13698E-09
  -2.15419E-09 -2.17172E-09 -2.18954E-09 -2.20765E-09 -2.22600E-09 -2.24460E-09 -2.26340E-09 -2.28239E-09 -2.30155E-09 -2.32086E-09
  -2.34029E-09 -2.35983E-09 -2.37945E-09 -2.39913E-09 -2.41885E-09 -2.43859E-09 -2.45832E-09 -2.47803E-09 -2.49770E-09 -2.51730E-09
  -2.53680E-09 -2.55620E-09 -2.57546E-09 -2.59457E-09 -2.61350E-09 -2.63224E-09 -2.65078E-09 -2.66915E-09 -2.68734E-09 -2.70536E-09
  -2.72322E-09 -2.74093E-09 -2.75851E-09 -2.77595E-09 -2.79327E-09 -2.81047E-09 -2.82757E-09 -2.84458E-09 -2.86149E-09 -2.87833E-09
  -2.89509E-09 -2.91180E-09 -2.92845E-09 -2.94506E-09 -2.96163E-09 -2.97818E-09 -2.99471E-09 -3.01123E-09 -3.02774E-09 -3.04427E-09
  -3.06082E-09 -3.07739E-09 -3.09400E-09
 Cr       Conc. = 3.89E-10
  -1.08905E-09 -1.32747E-09 -1.79074E-09 -2.28405E-09 -2.38735E-09 -2.39792E-09 -2.38154E-09 -2.35400E-09 -2.32083E-09 -2.28443E-09
  -2.24602E-09 -2.20627E-09 -2.16560E-09 -2.12424E-09 -2.08237E-09 -2.04007E-09 -1.99743E-09 -1.95448E-09 -1.91123E-09 -1.86768E-09
  -1.82379E-09 -1.77950E-09 -1.73472E-09 -1.68928E-09 -1.64294E-09 -1.59532E-09 -1.54575E-09 -1.49305E-09 -1.43489E-09 -1.36572E-09
  -1.26810E-09 -1.05634E-09 -7.18995E-10 -3.07986E-10  1.80943E-10  7.06606E-10  1.14675E-09  1.39481E-09  1.45696E-09  1.39126E-09
   1.16229E-09  6.47031E-10 -1.04231E-10 -5.82594E-10 -6.83429E-10 -7.02683E-10 -6.94353E-10 -6.73685E-10 -6.46506E-10 -6.15533E-10
  -5.82175E-10 -5.47216E-10 -5.11158E-10 -4.74301E-10 -4.36875E-10 -3.98969E-10 -3.60706E-10 -3.22171E-10 -2.83415E-10 -2.44488E-10
  -2.05429E-10 -1.66270E-10 -1.27037E-10 -8.77507E-11 -4.84331E-11 -9.10264E-12  3.02296E-11  6.95484E-11  1.08840E-10  1.48095E-10
   1.87302E-10  2.26447E-10  2.65527E-10  3.04526E-10  3.43441E-10  3.82258E-10  4.20971E-10  4.59575E-10  4.98058E-10  5.36410E-10
   5.74634E-10  6.12707E-10  6.50640E-10  6.88406E-10  7.26015E-10  7.63449E-10  8.00708E-10  8.37787E-10  8.74682E-10  9.11389E-10
   9.47901E-10  9.84218E-10  1.02033E-09  1.05624E-09  1.09194E-09  1.12743E-09  1.16270E-09  1.19775E-09  1.23257E-09  1.26716E-09
   1.30151E-09  1.33563E-09  1.36950E-09  1.40313E-09  1.43651E-09  1.46963E-09  1.50250E-09  1.53510E-09  1.56743E-09  1.59950E-09
   1.63129E-09  1.66279E-09  1.69402E-09  1.72489E-09  1.75528E-09  1.78509E-09  1.81421E-09  1.84250E-09  1.86987E-09  1.89619E-09
   1.92136E-09  1.94524E-09  1.96774E-09  1.98874E-09  2.00812E-09  2.02576E-09  2.04155E-09  2.05538E-09  2.06713E-09  2.07669E-09
   2.08394E-09  2.08877E-09  2.09106E-09  2.09070E-09  2.08757E-09  2.08156E-09  2.07255E-09  2.06043E-09  2.04509E-09  2.02641E-09
   2.00428E-09  1.97865E-09  1.94947E-09  1.91672E-09  1.88035E-09  1.84034E-09  1.79665E-09  1.74925E-09  1.69810E-09  1.64317E-09
   1.58443E-09  1.52185E-09  1.45541E-09  1.38507E-09  1.31081E-09  1.23260E-09  1.15046E-09  1.06435E-09  9.74300E-10  8.80334E-10
   7.82524E-10  6.81005E-10  5.76051E-10  4.68187E-10  3.58681E-10  2.51171E-10  1.61775E-10  1.23386E-10  1.06931E-10  1.12909E-10
   1.38899E-10  1.51920E-10  1.04610E-10 -1.66934E-11 -1.89974E-10 -4.07956E-10 -7.10148E-10 -1.12140E-09 -1.53322E-09 -1.75839E-09
  -1.94130E-09 -2.11086E-09 -2.27396E-09 -2.43282E-09 -2.58819E-09 -2.74026E-09 -2.88897E-09 -3.03411E-09 -3.17541E-09 -3.31254E-09
  -3.44517E-09 -3.57293E-09 -3.69547E-09 -3.81237E-09 -3.92328E-09 -4.02780E-09 -4.12565E-09 -4.21688E-09 -4.30162E-09 -4.38000E-09
  -4.45214E-09 -4.51816E-09 -4.57819E-09 -4.63234E-09 -4.68075E-09 -4.72353E-09 -4.76080E-09 -4.79268E-09 -4.81930E-09 -4.84077E-09
  -4.85721E-09 -4.86876E-09 -4.87551E-09 -4.87760E-09 -4.87515E-09 -4.86827E-09 -4.85709E-09 -4.84173E-09 -4.82230E-09 -4.79893E-09
  -4.77173E-09 -4.74083E-09 -4.70634E-09 -4.66838E-09 -4.62711E-09 -4.58269E-09 -4.53531E-09 -4.48515E-09 -4.43240E-09 -4.37725E-09
