 LCModel (Version 6.3-1R) Copyright: S.W. Provencher.          Ref.: Magn. Reson. Med. 30:672-679 (1993).                
 onepulse 18x25_ftSpec_smooth_lcm
 26 lines in following concentration table = NCONC+1
    Conc.  %SD /Cr+PCr  Metabolite                                         
    0.000 999%   0.000 Ala                                                 
 1.84E-12 999% 4.6E-03 Asp                                                 
 4.02E-10  59%   1.000 Cr                                                  
    0.000 999%   0.000 GABA                                                
    0.000 999%   0.000 Glc                                                 
 2.27E-09  37%   5.640 Gln                                                 
 5.74E-11 999%   0.143 Glu                                                 
    0.000 999%   0.000 Glyc                                                
    0.000 999%   0.000 GPC                                                 
    0.000 999%   0.000 GSH                                                 
 1.43E-09  20%   3.558 Ins                                                 
    0.000 999%   0.000 Lac                                                 
 2.20E-10 175%   0.548 NAAG                                                
 5.07E-10  95%   1.260 NAA                                                 
 2.26E-10  34%   0.562 PCh                                                 
    0.000 999%   0.000 PCr                                                 
    0.000 999%   0.000 PE                                                  
 3.24E-10  34%   0.807 Scyllo                                              
 2.83E-09  23%   7.050 Ser                                                 
    0.000 999%   0.000 Tau                                                 
 2.26E-10  34%   0.562 GPC+PCh                                             
 7.27E-10  34%   1.808 NAA+NAAG                                            
 1.43E-09  20%   3.558 Ins+Glyc                                            
 4.02E-10  59%   1.000 Cr+PCr                                              
 2.32E-09  23%   5.782 Glu+Gln                                             
   6 lines in following misc. output table
  FWHM = 0.078 ppm    S/N =   3                                            
  Data shift = 0.347 ppm                                                   
  Ph: -56 deg     -32.7 deg/ppm                                            
  alphaB,S = 1.7E-01,   4.1E+01                                            
   16 spline knots.   Ns = 5(1)                                            
  (10) 2 infls.   (11) 1 extrs.                                            
  363 points on ppm-axis = NY
      4.250000     4.238821     4.227641     4.216462     4.205282     4.194103     4.182923     4.171744     4.160564     4.149385
      4.138206     4.127026     4.115847     4.104667     4.093488     4.082308     4.071129     4.059949     4.048770     4.037591
      4.026411     4.015232     4.004052     3.992873     3.981693     3.970514     3.959334     3.948155     3.936975     3.925796
      3.914617     3.903437     3.892258     3.881078     3.869899     3.858719     3.847540     3.836360     3.825181     3.814002
      3.802822     3.791643     3.780463     3.769284     3.758104     3.746925     3.735745     3.724566     3.713387     3.702207
      3.691028     3.679848     3.668669     3.657489     3.646310     3.635130     3.623951     3.612772     3.601592     3.590413
      3.579233     3.568054     3.556874     3.545695     3.534515     3.523336     3.512156     3.500977     3.489798     3.478618
      3.467439     3.456259     3.445080     3.433900     3.422721     3.411541     3.400362     3.389183     3.378003     3.366824
      3.355644     3.344465     3.333285     3.322106     3.310926     3.299747     3.288568     3.277388     3.266209     3.255029
      3.243850     3.232670     3.221491     3.210311     3.199132     3.187953     3.176773     3.165594     3.154414     3.143235
      3.132055     3.120876     3.109696     3.098517     3.087337     3.076158     3.064979     3.053799     3.042620     3.031440
      3.020261     3.009081     2.997902     2.986722     2.975543     2.964364     2.953184     2.942005     2.930825     2.919646
      2.908466     2.897287     2.886107     2.874928     2.863749     2.852569     2.841390     2.830210     2.819031     2.807851
      2.796672     2.785492     2.774313     2.763134     2.751954     2.740775     2.729595     2.718416     2.707236     2.696057
      2.684877     2.673698     2.662519     2.651339     2.640160     2.628980     2.617801     2.606621     2.595442     2.584262
      2.573083     2.561903     2.550724     2.539545     2.528365     2.517186     2.506006     2.494827     2.483647     2.472468
      2.461288     2.450109     2.438930     2.427750     2.416571     2.405391     2.394212     2.383032     2.371853     2.360673
      2.349494     2.338315     2.327135     2.315956     2.304776     2.293597     2.282417     2.271238     2.260058     2.248879
      2.237700     2.226520     2.215341     2.204161     2.192982     2.181802     2.170623     2.159443     2.148264     2.137084
      2.125905     2.114726     2.103546     2.092367     2.081187     2.070008     2.058828     2.047649     2.036469     2.025290
      2.014111     2.002931     1.991752     1.980572     1.969393     1.958213     1.947034     1.935854     1.924675     1.913496
      1.902316     1.891137     1.879957     1.868778     1.857598     1.846419     1.835239     1.824060     1.812881     1.801701
      1.790522     1.779342     1.768163     1.756983     1.745804     1.734624     1.723445     1.712265     1.701086     1.689907
      1.678727     1.667548     1.656368     1.645189     1.634009     1.622830     1.611650     1.600471     1.589292     1.578112
      1.566933     1.555753     1.544574     1.533394     1.522215     1.511035     1.499856     1.488677     1.477497     1.466318
      1.455138     1.443959     1.432779     1.421600     1.410420     1.399241     1.388062     1.376882     1.365703     1.354523
      1.343344     1.332164     1.320985     1.309805     1.298626     1.287446     1.276267     1.265088     1.253908     1.242729
      1.231549     1.220370     1.209190     1.198011     1.186831     1.175652     1.164473     1.153293     1.142114     1.130934
      1.119755     1.108575     1.097396     1.086216     1.075037     1.063858     1.052678     1.041499     1.030319     1.019140
      1.007960     0.996781     0.985601     0.974422     0.963243     0.952063     0.940884     0.929704     0.918525     0.907345
      0.896166     0.884986     0.873807     0.862628     0.851448     0.840269     0.829089     0.817910     0.806730     0.795551
      0.784371     0.773192     0.762012     0.750833     0.739654     0.728474     0.717295     0.706115     0.694936     0.683756
      0.672577     0.661397     0.650218     0.639039     0.627859     0.616680     0.605500     0.594321     0.583141     0.571962
      0.560782     0.549603     0.538424     0.527244     0.516065     0.504885     0.493706     0.482526     0.471347     0.460167
      0.448988     0.437809     0.426629     0.415450     0.404270     0.393091     0.381911     0.370732     0.359552     0.348373
      0.337193     0.326014     0.314835     0.303655     0.292476     0.281296     0.270117     0.258937     0.247758     0.236578
      0.225399     0.214220     0.203040
 NY phased data points follow
   1.60928E-08  1.41907E-08  1.20925E-08  8.81109E-09  8.27371E-09  6.28248E-09  6.82106E-09  6.72778E-09  7.27528E-09  7.22735E-09
   7.71868E-09  8.09412E-09  7.72025E-09  8.44055E-09  8.78199E-09  8.73716E-09  7.34622E-09  6.99594E-09  7.37302E-09  6.58334E-09
   5.86079E-09  5.43132E-09  5.62837E-09  6.23848E-09  6.33805E-09  7.14798E-09  6.77080E-09  5.55065E-09  5.08295E-09  5.02002E-09
   5.86416E-09  7.89848E-09  8.11077E-09  8.50791E-09  6.80930E-09  4.84094E-09  3.13011E-09  2.76694E-09  2.29555E-09  2.19507E-09
   2.75506E-09  2.67532E-09  1.73724E-09  2.70755E-09  2.04463E-09  2.37013E-09  1.63234E-09  1.70824E-09  1.67797E-09  1.91149E-09
   2.19321E-09  3.10321E-09  2.93161E-09  3.32245E-09  2.61576E-09  2.39392E-09  2.43031E-09  3.79998E-09  3.26437E-09  4.55529E-09
   4.57546E-09  5.15756E-09  7.09438E-09  9.34801E-09  9.88214E-09  9.31039E-09  6.68640E-09  5.79064E-09  3.83783E-09  3.22457E-09
   3.01093E-09  3.14198E-09  2.14610E-09  2.97082E-09  2.90828E-09  3.34526E-09  3.07527E-09  4.57550E-09  6.57051E-09  1.07869E-08
   1.36693E-08  1.43884E-08  1.13885E-08  9.57044E-09  7.63312E-09  6.59725E-09  5.33657E-09  5.52870E-09  4.41904E-09  4.63421E-09
   3.79841E-09  3.99329E-09  2.89533E-09  2.72461E-09  2.03691E-09  2.43271E-09  1.20786E-09  2.00924E-09  7.62370E-10  1.51624E-09
   5.21501E-10  1.63667E-09  1.69127E-09  2.72041E-09  9.26617E-10  2.13819E-09  1.12305E-09  1.85015E-09  9.11878E-10  1.85201E-10
  -1.85856E-10 -2.05371E-10 -2.23672E-10  1.42272E-09  1.40489E-09  2.26887E-09  9.04004E-10  2.09350E-09  2.04117E-09  2.50204E-09
   2.02255E-09  3.05763E-09  1.71752E-09  1.67203E-09  6.49208E-10  7.14144E-10  1.72337E-10  8.78804E-10  9.29186E-10  1.32922E-09
   1.02811E-09  1.65174E-09  1.32200E-09  2.24707E-09  1.55809E-09  2.47741E-09  1.41260E-09  1.91538E-09  1.12609E-09  3.25711E-09
   3.01030E-09  4.53264E-09  4.89614E-09  4.42135E-09  3.55396E-09  4.52203E-09  4.15547E-09  5.18214E-09  4.83565E-09  4.58157E-09
   4.25004E-09  4.23120E-09  3.43838E-09  3.68968E-09  3.05373E-09  3.44305E-09  3.04755E-09  3.54352E-09  3.08723E-09  3.80662E-09
   3.34944E-09  4.15858E-09  3.64802E-09  4.07691E-09  3.43803E-09  4.21550E-09  3.84583E-09  4.91828E-09  4.85870E-09  6.60355E-09
   8.88795E-09  1.40115E-08  1.77873E-08  1.79628E-08  1.50758E-08  1.31945E-08  1.18342E-08  1.02403E-08  8.63557E-09  7.96470E-09
   6.74753E-09  6.51124E-09  6.04204E-09  4.76866E-09  3.56186E-09  3.24980E-09  1.57481E-09  1.42980E-09 -4.60087E-10 -1.72778E-09
  -3.29131E-09 -3.82358E-09 -5.92256E-09 -7.07881E-09 -8.94628E-09 -1.07551E-08 -1.13892E-08 -1.25999E-08 -1.40821E-08 -1.47891E-08
  -1.52477E-08 -1.53407E-08 -1.55005E-08 -1.47872E-08 -1.48765E-08 -1.34583E-08 -1.24554E-08 -1.11708E-08 -9.27649E-09 -7.98138E-09
  -7.09863E-09 -5.09751E-09 -4.12857E-09 -3.37093E-09 -2.51784E-09 -1.86717E-09 -1.25055E-09 -1.98492E-09 -1.37874E-09 -1.38748E-09
  -2.30557E-09 -1.82556E-09 -2.05529E-09 -2.07228E-09 -1.84349E-09 -1.14003E-09 -1.37001E-09 -1.35927E-09 -1.15572E-09 -8.60677E-10
  -1.43232E-09 -1.55468E-09 -1.36474E-09 -1.39202E-09 -1.52776E-09 -1.71049E-09 -1.76730E-09 -1.01215E-09 -7.78591E-10 -7.65478E-10
  -1.35376E-09 -7.92674E-10 -1.00899E-09 -9.11576E-10 -9.08115E-10 -1.29625E-09 -1.84806E-09 -1.34127E-09 -1.32461E-09 -1.23961E-09
  -1.12698E-09 -6.90888E-10 -9.50080E-10 -4.81876E-10  3.19869E-12 -6.65484E-11  2.32195E-10 -1.00279E-10 -5.80148E-10 -2.73554E-10
  -1.00467E-09 -1.04531E-09 -1.70875E-09 -1.65345E-09 -1.60831E-09 -1.88222E-09 -1.77862E-09 -1.90466E-09 -1.34859E-09 -1.20082E-09
  -1.38318E-09 -5.77213E-10 -4.62851E-10 -8.28968E-11 -8.69419E-11 -2.67618E-11  3.72670E-10  8.50112E-10 -4.51207E-10  5.27238E-10
   2.15068E-10  1.27089E-10 -4.62042E-11 -3.11767E-10  1.46478E-10 -9.67679E-10 -4.65284E-11 -2.76904E-10 -5.48732E-10 -9.79601E-10
  -5.83008E-10 -1.09059E-09 -1.13896E-09 -1.08392E-09 -8.19165E-10 -1.11719E-09 -1.02991E-09 -1.16095E-09 -8.65654E-10 -1.16004E-09
  -5.50936E-10 -1.68176E-09 -1.15174E-09 -8.41330E-10 -1.79458E-09 -1.25155E-09 -1.42156E-09 -1.55676E-09 -1.52424E-09 -1.59645E-09
  -1.71151E-09 -1.62577E-09 -1.36955E-09 -1.57635E-09 -1.46684E-09 -1.35162E-09 -1.75987E-09 -1.39283E-09 -1.41405E-09 -1.16850E-09
  -1.86257E-09 -1.40525E-09 -1.42166E-09 -1.38513E-09 -1.40159E-09 -1.00795E-09 -1.69202E-09 -1.38768E-09 -1.60811E-09 -1.05000E-09
  -1.63305E-09 -1.23435E-09 -1.77449E-09 -1.48888E-09 -1.08767E-09 -1.32477E-09 -7.60370E-10 -1.59586E-09 -1.35892E-09 -1.36496E-09
  -5.08849E-10 -1.68579E-09 -1.58759E-09 -1.38421E-09 -1.24388E-09 -1.71978E-09 -1.18126E-09 -1.38229E-09 -1.06172E-09 -1.55533E-09
  -1.72032E-09 -1.33215E-09 -1.18165E-09 -1.49821E-09 -1.56656E-09 -1.28707E-09 -1.59556E-09 -1.48342E-09 -1.00169E-09 -1.16755E-09
  -1.29216E-09 -1.54826E-09 -9.26754E-10
 NY points of the fit to the data follow
   1.44352E-08  1.28811E-08  1.10993E-08  9.88623E-09  9.60613E-09  9.19922E-09  8.38021E-09  7.62818E-09  7.30112E-09  7.43901E-09
   7.67564E-09  7.75820E-09  8.18140E-09  8.53025E-09  8.57955E-09  8.05620E-09  7.24234E-09  6.97835E-09  6.61187E-09  5.80597E-09
   5.31532E-09  5.50419E-09  5.85403E-09  5.92233E-09  6.09665E-09  6.50861E-09  6.97570E-09  7.09514E-09  6.76006E-09  6.72191E-09
   6.67688E-09  6.51771E-09  6.24222E-09  5.74057E-09  4.96275E-09  4.09346E-09  3.94471E-09  3.82700E-09  3.62412E-09  3.38908E-09
   3.09243E-09  2.57970E-09  1.87164E-09  1.47511E-09  1.43822E-09  1.48222E-09  1.55102E-09  1.62082E-09  1.69518E-09  1.76937E-09
   1.86352E-09  1.98467E-09  2.14919E-09  2.33542E-09  2.60312E-09  3.01137E-09  3.50405E-09  4.05929E-09  4.79777E-09  5.54248E-09
   6.16459E-09  6.67306E-09  7.08168E-09  7.23946E-09  7.03862E-09  6.45204E-09  5.74095E-09  5.17981E-09  4.43419E-09  3.54893E-09
   3.22806E-09  3.19683E-09  3.18355E-09  3.38967E-09  3.81661E-09  4.50571E-09  5.37623E-09  6.49946E-09  7.72445E-09  8.96979E-09
   1.01192E-08  1.08737E-08  1.08909E-08  1.04062E-08  9.71476E-09  8.58947E-09  7.01077E-09  5.43215E-09  3.90355E-09  3.14492E-09
   2.77735E-09  2.56048E-09  2.41451E-09  2.31172E-09  2.22960E-09  2.16577E-09  2.11957E-09  2.08524E-09  2.05563E-09  2.02824E-09
   2.01322E-09  2.00544E-09  1.99802E-09  1.99273E-09  1.99167E-09  1.99401E-09  1.99876E-09  2.00549E-09  2.01375E-09  2.02346E-09
   2.03446E-09  2.04660E-09  2.05979E-09  2.07385E-09  2.08856E-09  2.10374E-09  2.11920E-09  2.13476E-09  2.15026E-09  2.16553E-09
   2.18042E-09  2.19477E-09  2.20843E-09  2.22126E-09  2.23312E-09  2.24387E-09  2.25336E-09  2.26146E-09  2.26804E-09  2.27297E-09
   2.27612E-09  2.27735E-09  2.27653E-09  2.27355E-09  2.26828E-09  2.26059E-09  2.25037E-09  2.23749E-09  2.22183E-09  2.20329E-09
   2.18175E-09  2.15716E-09  2.12952E-09  2.09879E-09  2.06498E-09  2.02808E-09  1.98808E-09  1.94501E-09  1.89888E-09  1.84974E-09
   1.79764E-09  1.74267E-09  1.68493E-09  1.62460E-09  1.56188E-09  1.49708E-09  1.43062E-09  1.36309E-09  1.29536E-09  1.22868E-09
   1.16499E-09  1.10736E-09  1.06098E-09  1.03535E-09  1.05006E-09  1.15433E-09  1.52462E-09  2.76361E-09  4.98412E-09  7.73711E-09
   1.10004E-08  1.43792E-08  1.68743E-08  1.76554E-08  1.69180E-08  1.54305E-08  1.32512E-08  9.52367E-09  4.37363E-09  7.35007E-10
  -3.92835E-10 -9.51570E-10 -1.31860E-09 -1.59836E-09 -1.83051E-09 -2.03319E-09 -2.21575E-09 -2.38334E-09 -2.53898E-09 -2.68447E-09
  -2.82087E-09 -2.94881E-09 -3.06860E-09 -3.18037E-09 -3.28412E-09 -3.37973E-09 -3.46715E-09 -3.54665E-09 -3.61854E-09 -3.68310E-09
  -3.74060E-09 -3.79126E-09 -3.83532E-09 -3.87300E-09 -3.90450E-09 -3.93002E-09 -3.94977E-09 -3.96392E-09 -3.97266E-09 -3.97619E-09
  -3.97468E-09 -3.96830E-09 -3.95724E-09 -3.94167E-09 -3.92176E-09 -3.89769E-09 -3.86963E-09 -3.83775E-09 -3.80221E-09 -3.76319E-09
  -3.72085E-09 -3.67537E-09 -3.62690E-09 -3.57563E-09 -3.52171E-09 -3.46533E-09 -3.40665E-09 -3.34584E-09 -3.28310E-09 -3.21858E-09
  -3.15247E-09 -3.08492E-09 -3.01614E-09 -2.94628E-09 -2.87550E-09 -2.80400E-09 -2.73194E-09 -2.65951E-09 -2.58684E-09 -2.51415E-09
  -2.44160E-09 -2.36935E-09 -2.29758E-09 -2.22647E-09 -2.15617E-09 -2.08688E-09 -2.01875E-09 -1.95196E-09 -1.88670E-09 -1.82312E-09
  -1.76139E-09 -1.70171E-09 -1.64414E-09 -1.58868E-09 -1.53530E-09 -1.48399E-09 -1.43471E-09 -1.38745E-09 -1.34219E-09 -1.29889E-09
  -1.25755E-09 -1.21814E-09 -1.18063E-09 -1.14500E-09 -1.11123E-09 -1.07930E-09 -1.04917E-09 -1.02084E-09 -9.94289E-10 -9.69476E-10
  -9.46381E-10 -9.24997E-10 -9.05282E-10 -8.87222E-10 -8.70805E-10 -8.55982E-10 -8.42760E-10 -8.31098E-10 -8.20981E-10 -8.12378E-10
  -8.05254E-10 -7.99559E-10 -7.95236E-10 -7.92229E-10 -7.90492E-10 -7.89963E-10 -7.90596E-10 -7.92330E-10 -7.95114E-10 -7.98898E-10
  -8.03625E-10 -8.09241E-10 -8.15693E-10 -8.22928E-10 -8.30893E-10 -8.39531E-10 -8.48792E-10 -8.58620E-10 -8.68966E-10 -8.79765E-10
  -8.90978E-10 -9.02540E-10 -9.14400E-10 -9.26512E-10 -9.38813E-10 -9.51253E-10 -9.63780E-10 -9.76336E-10 -9.88902E-10 -1.00147E-09
  -1.01402E-09 -1.02655E-09 -1.03905E-09 -1.05150E-09 -1.06390E-09 -1.07624E-09 -1.08851E-09 -1.10070E-09 -1.11279E-09 -1.12478E-09
  -1.13666E-09 -1.14842E-09 -1.16004E-09 -1.17153E-09 -1.18285E-09 -1.19402E-09 -1.20502E-09 -1.21583E-09 -1.22645E-09 -1.23687E-09
  -1.24708E-09 -1.25706E-09 -1.26681E-09 -1.27632E-09 -1.28558E-09 -1.29458E-09 -1.30332E-09 -1.31182E-09 -1.32009E-09 -1.32814E-09
  -1.33598E-09 -1.34362E-09 -1.35107E-09 -1.35835E-09 -1.36547E-09 -1.37243E-09 -1.37926E-09 -1.38595E-09 -1.39253E-09 -1.39900E-09
  -1.40537E-09 -1.41166E-09 -1.41788E-09 -1.42404E-09 -1.43014E-09 -1.43621E-09 -1.44225E-09 -1.44827E-09 -1.45428E-09 -1.46031E-09
  -1.46635E-09 -1.47243E-09 -1.47854E-09
 NY background values follow
    -1.938E-09   -1.899E-09   -1.859E-09   -1.820E-09   -1.780E-09   -1.741E-09   -1.701E-09   -1.661E-09   -1.622E-09   -1.582E-09
    -1.542E-09   -1.503E-09   -1.463E-09   -1.424E-09   -1.385E-09   -1.345E-09   -1.306E-09   -1.267E-09   -1.228E-09   -1.190E-09
    -1.151E-09   -1.113E-09   -1.075E-09   -1.037E-09   -9.998E-10   -9.626E-10   -9.256E-10   -8.889E-10   -8.525E-10   -8.165E-10
    -7.808E-10   -7.454E-10   -7.103E-10   -6.756E-10   -6.412E-10   -6.072E-10   -5.735E-10   -5.401E-10   -5.071E-10   -4.744E-10
    -4.421E-10   -4.101E-10   -3.785E-10   -3.472E-10   -3.162E-10   -2.857E-10   -2.554E-10   -2.255E-10   -1.960E-10   -1.669E-10
    -1.381E-10   -1.096E-10   -8.155E-11   -5.383E-11   -2.650E-11    4.839E-13    2.710E-11    5.334E-11    7.923E-11    1.048E-10
     1.300E-10    1.548E-10    1.794E-10    2.036E-10    2.276E-10    2.512E-10    2.746E-10    2.977E-10    3.205E-10    3.431E-10
     3.655E-10    3.876E-10    4.095E-10    4.311E-10    4.526E-10    4.738E-10    4.949E-10    5.158E-10    5.366E-10    5.571E-10
     5.776E-10    5.979E-10    6.180E-10    6.381E-10    6.580E-10    6.778E-10    6.976E-10    7.172E-10    7.368E-10    7.564E-10
     7.759E-10    7.954E-10    8.148E-10    8.343E-10    8.537E-10    8.732E-10    8.927E-10    9.122E-10    9.318E-10    9.514E-10
     9.712E-10    9.910E-10    1.011E-09    1.031E-09    1.051E-09    1.071E-09    1.092E-09    1.112E-09    1.133E-09    1.154E-09
     1.175E-09    1.196E-09    1.218E-09    1.239E-09    1.261E-09    1.282E-09    1.304E-09    1.325E-09    1.345E-09    1.365E-09
     1.384E-09    1.402E-09    1.420E-09    1.436E-09    1.451E-09    1.464E-09    1.477E-09    1.487E-09    1.496E-09    1.503E-09
     1.508E-09    1.511E-09    1.512E-09    1.510E-09    1.506E-09    1.499E-09    1.490E-09    1.478E-09    1.463E-09    1.445E-09
     1.423E-09    1.398E-09    1.370E-09    1.339E-09    1.305E-09    1.266E-09    1.225E-09    1.180E-09    1.131E-09    1.079E-09
     1.024E-09    9.644E-10    9.014E-10    8.347E-10    7.643E-10    6.902E-10    6.122E-10    5.303E-10    4.446E-10    3.549E-10
     2.613E-10    1.637E-10    6.209E-11   -4.363E-11   -1.534E-10   -2.674E-10   -3.856E-10   -5.079E-10   -6.345E-10   -7.649E-10
    -8.988E-10   -1.036E-09   -1.175E-09   -1.317E-09   -1.461E-09   -1.606E-09   -1.752E-09   -1.899E-09   -2.046E-09   -2.192E-09
    -2.338E-09   -2.483E-09   -2.626E-09   -2.768E-09   -2.907E-09   -3.044E-09   -3.177E-09   -3.307E-09   -3.433E-09   -3.555E-09
    -3.672E-09   -3.783E-09   -3.890E-09   -3.990E-09   -4.083E-09   -4.170E-09   -4.250E-09   -4.323E-09   -4.389E-09   -4.448E-09
    -4.501E-09   -4.547E-09   -4.588E-09   -4.622E-09   -4.650E-09   -4.672E-09   -4.690E-09   -4.701E-09   -4.708E-09   -4.709E-09
    -4.705E-09   -4.697E-09   -4.684E-09   -4.667E-09   -4.645E-09   -4.620E-09   -4.590E-09   -4.557E-09   -4.520E-09   -4.480E-09
    -4.437E-09   -4.390E-09   -4.341E-09   -4.288E-09   -4.234E-09   -4.176E-09   -4.117E-09   -4.055E-09   -3.991E-09   -3.926E-09
    -3.859E-09   -3.791E-09   -3.721E-09   -3.651E-09   -3.580E-09   -3.507E-09   -3.435E-09   -3.362E-09   -3.288E-09   -3.215E-09
    -3.142E-09   -3.069E-09   -2.997E-09   -2.925E-09   -2.854E-09   -2.785E-09   -2.716E-09   -2.649E-09   -2.583E-09   -2.519E-09
    -2.457E-09   -2.397E-09   -2.339E-09   -2.283E-09   -2.229E-09   -2.177E-09   -2.127E-09   -2.080E-09   -2.034E-09   -1.990E-09
    -1.949E-09   -1.909E-09   -1.871E-09   -1.835E-09   -1.801E-09   -1.769E-09   -1.738E-09   -1.709E-09   -1.683E-09   -1.657E-09
    -1.634E-09   -1.612E-09   -1.592E-09   -1.574E-09   -1.557E-09   -1.542E-09   -1.528E-09   -1.516E-09   -1.506E-09   -1.497E-09
    -1.489E-09   -1.483E-09   -1.479E-09   -1.475E-09   -1.473E-09   -1.473E-09   -1.473E-09   -1.474E-09   -1.477E-09   -1.480E-09
    -1.485E-09   -1.490E-09   -1.496E-09   -1.503E-09   -1.511E-09   -1.519E-09   -1.528E-09   -1.538E-09   -1.548E-09   -1.558E-09
    -1.569E-09   -1.580E-09   -1.592E-09   -1.604E-09   -1.616E-09   -1.628E-09   -1.640E-09   -1.652E-09   -1.665E-09   -1.677E-09
    -1.689E-09   -1.701E-09   -1.713E-09   -1.726E-09   -1.738E-09   -1.750E-09   -1.762E-09   -1.774E-09   -1.785E-09   -1.797E-09
    -1.809E-09   -1.820E-09   -1.831E-09   -1.843E-09   -1.854E-09   -1.865E-09   -1.875E-09   -1.886E-09   -1.896E-09   -1.906E-09
    -1.916E-09   -1.926E-09   -1.935E-09   -1.944E-09   -1.953E-09   -1.962E-09   -1.971E-09   -1.979E-09   -1.987E-09   -1.994E-09
    -2.002E-09   -2.009E-09   -2.016E-09   -2.023E-09   -2.030E-09   -2.037E-09   -2.043E-09   -2.050E-09   -2.056E-09   -2.062E-09
    -2.068E-09   -2.074E-09   -2.080E-09   -2.086E-09   -2.092E-09   -2.097E-09   -2.103E-09   -2.109E-09   -2.114E-09   -2.120E-09
    -2.126E-09   -2.131E-09   -2.137E-09
 Asp      Conc. = 1.84E-12
  -1.93559E-09 -1.89660E-09 -1.85747E-09 -1.81831E-09 -1.77900E-09 -1.73970E-09 -1.70034E-09 -1.66090E-09 -1.62135E-09 -1.58176E-09
  -1.54219E-09 -1.50265E-09 -1.46317E-09 -1.42375E-09 -1.38442E-09 -1.34520E-09 -1.30610E-09 -1.26715E-09 -1.22835E-09 -1.18971E-09
  -1.15127E-09 -1.11302E-09 -1.07500E-09 -1.03721E-09 -9.99668E-10 -9.62400E-10 -9.25410E-10 -8.88712E-10 -8.52330E-10 -8.16274E-10
  -7.80547E-10 -7.45145E-10 -7.10073E-10 -6.75328E-10 -6.40907E-10 -6.06805E-10 -5.73004E-10 -5.39527E-10 -5.06352E-10 -4.73519E-10
  -4.41055E-10 -4.08971E-10 -3.77261E-10 -3.45883E-10 -3.14785E-10 -2.83912E-10 -2.53368E-10 -2.23172E-10 -1.93239E-10 -1.63788E-10
  -1.34789E-10 -1.06270E-10 -7.82357E-11 -5.07707E-11 -2.39122E-11  2.50629E-12  2.87286E-11  5.49032E-11  8.06172E-11  1.05847E-10
   1.30938E-10  1.55718E-10  1.80146E-10  2.04361E-10  2.28305E-10  2.51877E-10  2.75101E-10  2.98114E-10  3.20894E-10  3.43437E-10
   3.65748E-10  3.87829E-10  4.09693E-10  4.31343E-10  4.52793E-10  4.74047E-10  4.95117E-10  5.16012E-10  5.36741E-10  5.57311E-10
   5.77737E-10  5.98021E-10  6.18181E-10  6.38217E-10  6.58147E-10  6.77976E-10  6.97717E-10  7.17381E-10  7.36980E-10  7.56526E-10
   7.76029E-10  7.95502E-10  8.14956E-10  8.34402E-10  8.53851E-10  8.73316E-10  8.92808E-10  9.12338E-10  9.31918E-10  9.51559E-10
   9.71273E-10  9.91071E-10  1.01097E-09  1.03097E-09  1.05109E-09  1.07134E-09  1.09173E-09  1.11227E-09  1.13298E-09  1.15387E-09
   1.17494E-09  1.19622E-09  1.21769E-09  1.23931E-09  1.26094E-09  1.28246E-09  1.30376E-09  1.32469E-09  1.34514E-09  1.36499E-09
   1.38412E-09  1.40239E-09  1.41969E-09  1.43589E-09  1.45086E-09  1.46449E-09  1.47665E-09  1.48722E-09  1.49607E-09  1.50307E-09
   1.50811E-09  1.51107E-09  1.51181E-09  1.51021E-09  1.50615E-09  1.49951E-09  1.49016E-09  1.47799E-09  1.46285E-09  1.44464E-09
   1.42322E-09  1.39855E-09  1.37059E-09  1.33929E-09  1.30462E-09  1.26654E-09  1.22502E-09  1.18001E-09  1.13150E-09  1.07942E-09
   1.02375E-09  9.64458E-10  9.01498E-10  8.34836E-10  7.64437E-10  6.90260E-10  6.12272E-10  5.30434E-10  4.44713E-10  3.55067E-10
   2.61463E-10  1.63863E-10  6.22397E-11 -4.34539E-11 -1.53239E-10 -2.67139E-10 -3.85113E-10 -5.07001E-10 -6.32958E-10 -7.62668E-10
  -8.95738E-10 -1.03194E-09 -1.17114E-09 -1.31300E-09 -1.45693E-09 -1.60236E-09 -1.74904E-09 -1.89678E-09 -2.04480E-09 -2.19173E-09
  -2.33781E-09 -2.48277E-09 -2.62624E-09 -2.76783E-09 -2.90711E-09 -3.04368E-09 -3.17714E-09 -3.30708E-09 -3.43308E-09 -3.55472E-09
  -3.67161E-09 -3.78334E-09 -3.88949E-09 -3.98963E-09 -4.08338E-09 -4.17031E-09 -4.25014E-09 -4.32295E-09 -4.38890E-09 -4.44816E-09
  -4.50090E-09 -4.54728E-09 -4.58745E-09 -4.62158E-09 -4.64985E-09 -4.67240E-09 -4.68940E-09 -4.70103E-09 -4.70743E-09 -4.70878E-09
  -4.70524E-09 -4.69696E-09 -4.68412E-09 -4.66688E-09 -4.64540E-09 -4.61985E-09 -4.59038E-09 -4.55716E-09 -4.52036E-09 -4.48014E-09
  -4.43666E-09 -4.39009E-09 -4.34058E-09 -4.28831E-09 -4.23344E-09 -4.17614E-09 -4.11658E-09 -4.05492E-09 -3.99136E-09 -3.92606E-09
  -3.85918E-09 -3.79091E-09 -3.72141E-09 -3.65086E-09 -3.57941E-09 -3.50727E-09 -3.43458E-09 -3.36153E-09 -3.28827E-09 -3.21500E-09
  -3.14188E-09 -3.06908E-09 -2.99677E-09 -2.92513E-09 -2.85432E-09 -2.78452E-09 -2.71590E-09 -2.64863E-09 -2.58289E-09 -2.51885E-09
  -2.45666E-09 -2.39653E-09 -2.33852E-09 -2.28262E-09 -2.22882E-09 -2.17709E-09 -2.12740E-09 -2.07973E-09 -2.03407E-09 -1.99038E-09
  -1.94865E-09 -1.90885E-09 -1.87096E-09 -1.83495E-09 -1.80081E-09 -1.76851E-09 -1.73802E-09 -1.70933E-09 -1.68242E-09 -1.65726E-09
  -1.63381E-09 -1.61208E-09 -1.59203E-09 -1.57363E-09 -1.55687E-09 -1.54171E-09 -1.52816E-09 -1.51617E-09 -1.50572E-09 -1.49679E-09
  -1.48935E-09 -1.48333E-09 -1.47869E-09 -1.47536E-09 -1.47331E-09 -1.47247E-09 -1.47279E-09 -1.47421E-09 -1.47668E-09 -1.48016E-09
  -1.48458E-09 -1.48989E-09 -1.49603E-09 -1.50296E-09 -1.51062E-09 -1.51896E-09 -1.52792E-09 -1.53744E-09 -1.54749E-09 -1.55799E-09
  -1.56890E-09 -1.58016E-09 -1.59172E-09 -1.60354E-09 -1.61554E-09 -1.62768E-09 -1.63991E-09 -1.65217E-09 -1.66444E-09 -1.67671E-09
  -1.68896E-09 -1.70119E-09 -1.71339E-09 -1.72555E-09 -1.73766E-09 -1.74970E-09 -1.76167E-09 -1.77356E-09 -1.78535E-09 -1.79705E-09
  -1.80863E-09 -1.82009E-09 -1.83141E-09 -1.84259E-09 -1.85362E-09 -1.86449E-09 -1.87518E-09 -1.88569E-09 -1.89601E-09 -1.90613E-09
  -1.91603E-09 -1.92571E-09 -1.93516E-09 -1.94436E-09 -1.95331E-09 -1.96200E-09 -1.97043E-09 -1.97862E-09 -1.98658E-09 -1.99431E-09
  -2.00184E-09 -2.00917E-09 -2.01631E-09 -2.02327E-09 -2.03007E-09 -2.03672E-09 -2.04322E-09 -2.04959E-09 -2.05585E-09 -2.06199E-09
  -2.06804E-09 -2.07400E-09 -2.07989E-09 -2.08572E-09 -2.09149E-09 -2.09723E-09 -2.10293E-09 -2.10862E-09 -2.11429E-09 -2.11998E-09
  -2.12568E-09 -2.13141E-09 -2.13718E-09
 Cr       Conc. = 4.02E-10
  -3.60052E-10 -5.90590E-10 -1.02507E-09 -1.49217E-09 -1.58927E-09 -1.60105E-09 -1.58749E-09 -1.56328E-09 -1.53363E-09 -1.50083E-09
  -1.46608E-09 -1.43001E-09 -1.39305E-09 -1.35544E-09 -1.31734E-09 -1.27887E-09 -1.24010E-09 -1.20107E-09 -1.16181E-09 -1.12230E-09
  -1.08252E-09 -1.04240E-09 -1.00184E-09 -9.60670E-10 -9.18606E-10 -8.75224E-10 -8.29755E-10 -7.80831E-10 -7.25691E-10 -6.57694E-10
  -5.55376E-10 -3.11834E-10  6.60451E-11  5.19350E-10  1.04932E-09  1.59572E-09  2.00334E-09  2.15257E-09  2.08405E-09  1.91910E-09
   1.65701E-09  1.15475E-09  4.26228E-10 -1.50544E-11 -1.14305E-10 -1.39250E-10 -1.38957E-10 -1.27461E-10 -1.10179E-10 -8.96496E-11
  -6.71988E-11 -4.35749E-11 -1.92552E-11  5.46804E-12  3.03776E-11  5.53680E-11  8.03235E-11  1.05167E-10  1.29862E-10  1.54377E-10
   1.78691E-10  2.02789E-10  2.26662E-10  2.50305E-10  2.73714E-10  2.96889E-10  3.19832E-10  3.42547E-10  3.65035E-10  3.87303E-10
   4.09357E-10  4.31200E-10  4.52842E-10  4.74287E-10  4.95546E-10  5.16623E-10  5.37527E-10  5.58268E-10  5.78854E-10  5.99289E-10
   6.19589E-10  6.39755E-10  6.59804E-10  6.79736E-10  6.99568E-10  7.19304E-10  7.38957E-10  7.58538E-10  7.78058E-10  7.97529E-10
   8.16962E-10  8.36367E-10  8.55756E-10  8.75141E-10  8.94532E-10  9.13941E-10  9.33380E-10  9.52859E-10  9.72391E-10  9.91985E-10
   1.01165E-09  1.03141E-09  1.05126E-09  1.07123E-09  1.09131E-09  1.11152E-09  1.13188E-09  1.15239E-09  1.17307E-09  1.19392E-09
   1.21497E-09  1.23621E-09  1.25767E-09  1.27926E-09  1.30086E-09  1.32236E-09  1.34363E-09  1.36454E-09  1.38498E-09  1.40481E-09
   1.42392E-09  1.44217E-09  1.45946E-09  1.47564E-09  1.49061E-09  1.50423E-09  1.51638E-09  1.52694E-09  1.53578E-09  1.54278E-09
   1.54782E-09  1.55078E-09  1.55152E-09  1.54993E-09  1.54588E-09  1.53925E-09  1.52992E-09  1.51776E-09  1.50265E-09  1.48447E-09
   1.46309E-09  1.43846E-09  1.41054E-09  1.37930E-09  1.34470E-09  1.30670E-09  1.26528E-09  1.22039E-09  1.17200E-09  1.12007E-09
   1.06459E-09  1.00551E-09  9.42807E-10  8.76455E-10  8.06430E-10  7.32713E-10  6.55294E-10  5.74169E-10  4.89355E-10  4.00889E-10
   3.08854E-10  2.13408E-10  1.14870E-10  1.38651E-11 -8.80978E-11 -1.86574E-10 -2.61286E-10 -2.77540E-10 -2.71215E-10 -2.41591E-10
  -1.95429E-10 -1.74366E-10 -2.34928E-10 -3.86582E-10 -5.88519E-10 -8.13893E-10 -1.10037E-09 -1.48577E-09 -1.87115E-09 -2.08110E-09
  -2.25181E-09 -2.40960E-09 -2.56084E-09 -2.70759E-09 -2.85052E-09 -2.98979E-09 -3.12531E-09 -3.25687E-09 -3.38417E-09 -3.50688E-09
  -3.62466E-09 -3.73713E-09 -3.84391E-09 -3.94461E-09 -4.03883E-09 -4.12618E-09 -4.20637E-09 -4.27950E-09 -4.34575E-09 -4.40527E-09
  -4.45824E-09 -4.50483E-09 -4.54520E-09 -4.57951E-09 -4.60794E-09 -4.63064E-09 -4.64778E-09 -4.65953E-09 -4.66606E-09 -4.66752E-09
  -4.66408E-09 -4.65590E-09 -4.64315E-09 -4.62600E-09 -4.60460E-09 -4.57912E-09 -4.54972E-09 -4.51658E-09 -4.47984E-09 -4.43968E-09
  -4.39626E-09 -4.34975E-09 -4.30029E-09 -4.24807E-09 -4.19325E-09 -4.13600E-09 -4.07648E-09 -4.01487E-09 -3.95135E-09 -3.88609E-09
