 LCModel (Version 6.3-1R) Copyright: S.W. Provencher.          Ref.: Magn. Reson. Med. 30:672-679 (1993).                
 onepulse 18x30_ftSpec_smooth_lcm
 26 lines in following concentration table = NCONC+1
    Conc.  %SD /Cr+PCr  Metabolite                                         
    0.000 999%   0.000 Ala                                                 
    0.000 999%   0.000 Asp                                                 
    0.000 999%   0.000 Cr                                                  
    0.000 999%   0.000 GABA                                                
 5.61E-11 999%   0.290 Glc                                                 
 6.67E-10  90%   3.446 Gln                                                 
    0.000 999%   0.000 Glu                                                 
    0.000 999%   0.000 Glyc                                                
 1.14E-10  76%   0.589 GPC                                                 
    0.000 999%   0.000 GSH                                                 
 1.23E-09  37%   6.349 Ins                                                 
    0.000 999%   0.000 Lac                                                 
 1.33E-10 255%   0.690 NAAG                                                
 3.68E-10 123%   1.903 NAA                                                 
    0.000 999%   0.000 PCh                                                 
 1.94E-10 123%   1.000 PCr                                                 
    0.000 999%   0.000 PE                                                  
 1.51E-10 116%   0.782 Scyllo                                              
 3.96E-09  24%  20.474 Ser                                                 
    0.000 999%   0.000 Tau                                                 
 1.14E-10  76%   0.589 GPC+PCh                                             
 5.02E-10  55%   2.592 NAA+NAAG                                            
 1.23E-09  37%   6.349 Ins+Glyc                                            
 1.94E-10 123%   1.000 Cr+PCr                                              
 6.67E-10  90%   3.446 Glu+Gln                                             
   6 lines in following misc. output table
  FWHM = 0.089 ppm    S/N =   2                                            
  Data shift = 0.358 ppm                                                   
  Ph: -53 deg     -41.2 deg/ppm                                            
  alphaB,S = 7.3E-01,   4.4E+01                                            
    8 spline knots.   Ns = 5(1)                                            
  ( 5) 2 infls.   ( 5) 1 extrs.                                            
  363 points on ppm-axis = NY
      4.250000     4.238821     4.227641     4.216462     4.205282     4.194103     4.182923     4.171744     4.160564     4.149385
      4.138206     4.127026     4.115847     4.104667     4.093488     4.082308     4.071129     4.059949     4.048770     4.037591
      4.026411     4.015232     4.004052     3.992873     3.981693     3.970514     3.959334     3.948155     3.936975     3.925796
      3.914617     3.903437     3.892258     3.881078     3.869899     3.858719     3.847540     3.836360     3.825181     3.814002
      3.802822     3.791643     3.780463     3.769284     3.758104     3.746925     3.735745     3.724566     3.713387     3.702207
      3.691028     3.679848     3.668669     3.657489     3.646310     3.635130     3.623951     3.612772     3.601592     3.590413
      3.579233     3.568054     3.556874     3.545695     3.534515     3.523336     3.512156     3.500977     3.489798     3.478618
      3.467439     3.456259     3.445080     3.433900     3.422721     3.411541     3.400362     3.389183     3.378003     3.366824
      3.355644     3.344465     3.333285     3.322106     3.310926     3.299747     3.288568     3.277388     3.266209     3.255029
      3.243850     3.232670     3.221491     3.210311     3.199132     3.187953     3.176773     3.165594     3.154414     3.143235
      3.132055     3.120876     3.109696     3.098517     3.087337     3.076158     3.064979     3.053799     3.042620     3.031440
      3.020261     3.009081     2.997902     2.986722     2.975543     2.964364     2.953184     2.942005     2.930825     2.919646
      2.908466     2.897287     2.886107     2.874928     2.863749     2.852569     2.841390     2.830210     2.819031     2.807851
      2.796672     2.785492     2.774313     2.763134     2.751954     2.740775     2.729595     2.718416     2.707236     2.696057
      2.684877     2.673698     2.662519     2.651339     2.640160     2.628980     2.617801     2.606621     2.595442     2.584262
      2.573083     2.561903     2.550724     2.539545     2.528365     2.517186     2.506006     2.494827     2.483647     2.472468
      2.461288     2.450109     2.438930     2.427750     2.416571     2.405391     2.394212     2.383032     2.371853     2.360673
      2.349494     2.338315     2.327135     2.315956     2.304776     2.293597     2.282417     2.271238     2.260058     2.248879
      2.237700     2.226520     2.215341     2.204161     2.192982     2.181802     2.170623     2.159443     2.148264     2.137084
      2.125905     2.114726     2.103546     2.092367     2.081187     2.070008     2.058828     2.047649     2.036469     2.025290
      2.014111     2.002931     1.991752     1.980572     1.969393     1.958213     1.947034     1.935854     1.924675     1.913496
      1.902316     1.891137     1.879957     1.868778     1.857598     1.846419     1.835239     1.824060     1.812881     1.801701
      1.790522     1.779342     1.768163     1.756983     1.745804     1.734624     1.723445     1.712265     1.701086     1.689907
      1.678727     1.667548     1.656368     1.645189     1.634009     1.622830     1.611650     1.600471     1.589292     1.578112
      1.566933     1.555753     1.544574     1.533394     1.522215     1.511035     1.499856     1.488677     1.477497     1.466318
      1.455138     1.443959     1.432779     1.421600     1.410420     1.399241     1.388062     1.376882     1.365703     1.354523
      1.343344     1.332164     1.320985     1.309805     1.298626     1.287446     1.276267     1.265088     1.253908     1.242729
      1.231549     1.220370     1.209190     1.198011     1.186831     1.175652     1.164473     1.153293     1.142114     1.130934
      1.119755     1.108575     1.097396     1.086216     1.075037     1.063858     1.052678     1.041499     1.030319     1.019140
      1.007960     0.996781     0.985601     0.974422     0.963243     0.952063     0.940884     0.929704     0.918525     0.907345
      0.896166     0.884986     0.873807     0.862628     0.851448     0.840269     0.829089     0.817910     0.806730     0.795551
      0.784371     0.773192     0.762012     0.750833     0.739654     0.728474     0.717295     0.706115     0.694936     0.683756
      0.672577     0.661397     0.650218     0.639039     0.627859     0.616680     0.605500     0.594321     0.583141     0.571962
      0.560782     0.549603     0.538424     0.527244     0.516065     0.504885     0.493706     0.482526     0.471347     0.460167
      0.448988     0.437809     0.426629     0.415450     0.404270     0.393091     0.381911     0.370732     0.359552     0.348373
      0.337193     0.326014     0.314835     0.303655     0.292476     0.281296     0.270117     0.258937     0.247758     0.236578
      0.225399     0.214220     0.203040
 NY phased data points follow
   9.86218E-09  9.78979E-09  9.98872E-09  8.75148E-09  8.71982E-09  8.44799E-09  7.69551E-09  7.67203E-09  7.56655E-09  7.60744E-09
   7.73606E-09  8.00188E-09  8.42146E-09  8.38569E-09  8.60716E-09  9.25019E-09  8.98354E-09  9.00690E-09  9.00799E-09  8.92796E-09
   8.53807E-09  8.28809E-09  8.27898E-09  7.91478E-09  8.31195E-09  8.46612E-09  8.65413E-09  8.41386E-09  7.80465E-09  7.70435E-09
   8.20638E-09  8.85543E-09  9.82370E-09  9.90543E-09  9.85725E-09  9.72486E-09  8.86553E-09  8.45697E-09  8.58042E-09  8.25280E-09
   8.15187E-09  8.19555E-09  7.85137E-09  8.02694E-09  7.82642E-09  7.69942E-09  7.46456E-09  7.01180E-09  6.84549E-09  6.63122E-09
   6.79889E-09  6.75699E-09  7.04208E-09  6.47882E-09  6.46054E-09  6.11366E-09  6.07031E-09  6.03221E-09  6.25711E-09  6.15788E-09
   5.55300E-09  6.52073E-09  7.01435E-09  8.02649E-09  8.96487E-09  8.38500E-09  8.09543E-09  8.16910E-09  7.40624E-09  6.94528E-09
   6.73343E-09  6.21636E-09  5.74630E-09  5.60428E-09  5.46134E-09  4.96854E-09  4.88122E-09  5.06435E-09  6.82295E-09  8.71063E-09
   1.09027E-08  1.14700E-08  1.11780E-08  1.03017E-08  1.02244E-08  9.91849E-09  9.88893E-09  9.28796E-09  9.04442E-09  9.38907E-09
   9.29230E-09  8.59867E-09  8.42938E-09  8.31656E-09  8.14024E-09  7.97056E-09  7.82148E-09  7.37467E-09  7.23520E-09  6.99385E-09
   6.97265E-09  6.94027E-09  7.13982E-09  6.62351E-09  6.71180E-09  6.43435E-09  6.65193E-09  6.67210E-09  5.79767E-09  5.71350E-09
   5.21355E-09  4.83922E-09  4.99918E-09  4.95725E-09  5.13092E-09  4.70396E-09  4.96810E-09  4.70740E-09  4.59908E-09  5.07533E-09
   5.03052E-09  5.18042E-09  4.72953E-09  4.22978E-09  3.77350E-09  3.15039E-09  3.47942E-09  3.30174E-09  3.41385E-09  3.43233E-09
   3.27452E-09  3.38787E-09  3.02440E-09  3.33798E-09  3.36633E-09  3.38167E-09  3.06031E-09  2.85513E-09  3.86369E-09  3.95779E-09
   4.93363E-09  5.04235E-09  5.37927E-09  5.07162E-09  5.45100E-09  5.96380E-09  6.27046E-09  6.85739E-09  7.03867E-09  6.67829E-09
   6.90094E-09  7.13147E-09  6.58790E-09  6.49330E-09  6.82023E-09  6.97224E-09  6.81167E-09  7.11484E-09  6.90139E-09  6.91182E-09
   6.77367E-09  7.14156E-09  7.23677E-09  7.08272E-09  7.26665E-09  7.20342E-09  7.47064E-09  6.91716E-09  7.58403E-09  8.69877E-09
   1.13094E-08  1.37129E-08  1.48682E-08  1.48359E-08  1.37963E-08  1.31762E-08  1.29228E-08  1.24946E-08  1.18233E-08  1.14665E-08
   1.07414E-08  1.02302E-08  9.57787E-09  8.80955E-09  8.58485E-09  7.44958E-09  6.11117E-09  4.74677E-09  3.56208E-09  1.78959E-09
   4.45836E-10 -1.87713E-09 -3.63687E-09 -5.64224E-09 -7.50843E-09 -1.00036E-08 -1.10850E-08 -1.29211E-08 -1.39030E-08 -1.50393E-08
  -1.54607E-08 -1.54773E-08 -1.56380E-08 -1.47960E-08 -1.38242E-08 -1.22763E-08 -1.08111E-08 -9.30152E-09 -7.11022E-09 -6.09160E-09
  -3.79633E-09 -3.48747E-09 -2.34336E-09 -1.91969E-09 -1.24706E-09 -1.56140E-09 -1.90911E-09 -2.33114E-09 -2.66123E-09 -2.66031E-09
  -2.38909E-09 -2.64392E-09 -2.41193E-09 -1.89330E-09 -1.32122E-09 -1.51203E-09 -1.28772E-09 -1.64190E-09 -2.11704E-09 -2.43681E-09
  -2.40803E-09 -2.76207E-09 -2.46314E-09 -2.35859E-09 -1.92810E-09 -1.73841E-09 -8.36389E-10 -1.68960E-09 -1.61407E-09 -2.68401E-09
  -2.77590E-09 -2.77742E-09 -2.34322E-09 -2.60652E-09 -2.28737E-09 -2.22162E-09 -1.80504E-09 -1.50532E-09 -1.32187E-09 -1.38916E-09
  -1.34469E-09 -1.49398E-09 -1.49327E-09 -1.75405E-09 -1.58776E-09 -1.81894E-09 -1.28089E-09 -1.84850E-09 -2.09020E-09 -2.19978E-09
  -2.02604E-09 -2.08256E-09 -2.21993E-09 -2.41422E-09 -2.15975E-09 -2.39437E-09 -1.97487E-09 -2.20044E-09 -1.50555E-09 -1.50827E-09
  -8.27694E-10 -7.93423E-10 -8.96607E-10 -7.66528E-10 -4.28464E-10 -5.53465E-10 -5.67217E-10 -7.35390E-10 -5.63393E-10 -3.89940E-10
  -7.34496E-10 -9.37118E-10 -1.06351E-09 -1.06004E-09 -1.36725E-09 -1.77004E-09 -1.31285E-09 -1.86175E-09 -1.33910E-09 -2.15383E-09
  -1.67933E-09 -1.86654E-09 -1.74328E-09 -1.83055E-09 -1.48692E-09 -2.01609E-09 -1.61968E-09 -2.20454E-09 -2.18649E-09 -2.33120E-09
  -1.70784E-09 -2.08232E-09 -1.86719E-09 -2.21985E-09 -1.98600E-09 -2.24036E-09 -1.73580E-09 -2.23803E-09 -1.94383E-09 -2.01837E-09
  -1.98454E-09 -2.14166E-09 -1.95594E-09 -1.82821E-09 -1.82090E-09 -1.69605E-09 -1.64480E-09 -1.69381E-09 -1.64872E-09 -2.40950E-09
  -1.40621E-09 -1.71602E-09 -1.52101E-09 -1.48731E-09 -1.36996E-09 -1.68241E-09 -1.84857E-09 -1.59724E-09 -1.04476E-09 -1.38820E-09
  -1.29134E-09 -1.75716E-09 -1.20892E-09 -1.43851E-09 -8.95943E-10 -1.68619E-09 -1.50447E-09 -1.27315E-09 -1.52301E-09 -1.32441E-09
  -1.39372E-09 -1.40425E-09 -1.23582E-09 -1.47315E-09 -1.30084E-09 -1.07860E-09 -1.16210E-09 -1.05676E-09 -1.18168E-09 -1.30468E-09
  -8.82324E-10 -1.19939E-09 -8.83945E-10 -1.29183E-09 -8.41733E-10 -1.10795E-09 -6.78723E-10 -1.17234E-09 -7.34256E-10 -1.06042E-09
  -4.05933E-10 -6.80695E-10 -6.78906E-10
 NY points of the fit to the data follow
   8.38847E-09  9.64802E-09  9.83177E-09  9.39388E-09  9.43728E-09  9.56338E-09  9.20872E-09  8.29403E-09  7.33196E-09  6.86644E-09
   6.80292E-09  7.06383E-09  7.54696E-09  8.19814E-09  8.87089E-09  9.30127E-09  9.46246E-09  9.59774E-09  9.55615E-09  9.02427E-09
   8.36925E-09  7.91989E-09  7.64016E-09  7.41407E-09  7.42456E-09  7.73749E-09  8.22679E-09  8.68436E-09  8.90300E-09  8.88215E-09
   9.02836E-09  9.19451E-09  9.33446E-09  9.34199E-09  9.13994E-09  8.78016E-09  8.55463E-09  8.43603E-09  8.38913E-09  8.38018E-09
   8.35445E-09  8.23001E-09  7.93569E-09  7.54736E-09  7.30416E-09  7.13892E-09  7.01033E-09  6.89792E-09  6.79328E-09  6.70638E-09
   6.63045E-09  6.56737E-09  6.51470E-09  6.45974E-09  6.42408E-09  6.45582E-09  6.51839E-09  6.64251E-09  6.84615E-09  7.07070E-09
   7.26670E-09  7.44687E-09  7.60006E-09  7.71934E-09  7.77865E-09  7.74502E-09  7.64248E-09  7.47108E-09  7.19670E-09  6.93316E-09
   6.75579E-09  6.62947E-09  6.53359E-09  6.45422E-09  6.41788E-09  6.43285E-09  6.54932E-09  6.92876E-09  7.56590E-09  8.31136E-09
   9.05190E-09  9.69856E-09  1.02045E-08  1.06355E-08  1.09413E-08  1.09707E-08  1.06743E-08  1.00253E-08  9.20725E-09  8.62022E-09
   8.26729E-09  8.01732E-09  7.82370E-09  7.66468E-09  7.52796E-09  7.40816E-09  7.30284E-09  7.20777E-09  7.11879E-09  7.03427E-09
   6.95666E-09  6.88539E-09  6.81698E-09  6.75021E-09  6.68632E-09  6.62494E-09  6.56552E-09  6.50765E-09  6.45091E-09  6.39504E-09
   6.33989E-09  6.28521E-09  6.23084E-09  6.17662E-09  6.12242E-09  6.06811E-09  6.01361E-09  5.95878E-09  5.90352E-09  5.84782E-09
   5.79149E-09  5.73455E-09  5.67688E-09  5.61845E-09  5.55918E-09  5.49902E-09  5.43789E-09  5.37580E-09  5.31266E-09  5.24842E-09
   5.18307E-09  5.11652E-09  5.04879E-09  4.97980E-09  4.90953E-09  4.83791E-09  4.76499E-09  4.69065E-09  4.61492E-09  4.53771E-09
   4.45906E-09  4.37890E-09  4.29724E-09  4.21401E-09  4.12925E-09  4.04290E-09  3.95500E-09  3.86558E-09  3.77471E-09  3.68249E-09
   3.58898E-09  3.49431E-09  3.39856E-09  3.30191E-09  3.20453E-09  3.10665E-09  3.00859E-09  2.91078E-09  2.81387E-09  2.71878E-09
   2.62699E-09  2.54102E-09  2.46531E-09  2.40876E-09  2.39155E-09  2.47112E-09  2.88837E-09  4.67308E-09  7.38418E-09  1.01502E-08
   1.25228E-08  1.43074E-08  1.54528E-08  1.59726E-08  1.58034E-08  1.46712E-08  1.21771E-08  8.31780E-09  4.26932E-09  2.36197E-09
   1.65128E-09  1.24861E-09  9.66132E-10  7.43540E-10  5.55417E-10  3.89169E-10  2.37844E-10  9.73179E-11 -3.50939E-11 -1.61089E-10
  -2.81824E-10 -3.98169E-10 -5.10685E-10 -6.19810E-10 -7.25824E-10 -8.28985E-10 -9.29474E-10 -1.02736E-09 -1.12276E-09 -1.21575E-09
  -1.30636E-09 -1.39461E-09 -1.48050E-09 -1.56405E-09 -1.64527E-09 -1.72410E-09 -1.80056E-09 -1.87462E-09 -1.94627E-09 -2.01544E-09
  -2.08217E-09 -2.14637E-09 -2.20803E-09 -2.26712E-09 -2.32363E-09 -2.37748E-09 -2.42868E-09 -2.47719E-09 -2.52297E-09 -2.56607E-09
  -2.60652E-09 -2.64441E-09 -2.67976E-09 -2.71265E-09 -2.74312E-09 -2.77122E-09 -2.79702E-09 -2.82056E-09 -2.84191E-09 -2.86110E-09
  -2.87820E-09 -2.89326E-09 -2.90634E-09 -2.91749E-09 -2.92676E-09 -2.93421E-09 -2.93989E-09 -2.94384E-09 -2.94614E-09 -2.94683E-09
  -2.94596E-09 -2.94359E-09 -2.93977E-09 -2.93455E-09 -2.92798E-09 -2.92011E-09 -2.91100E-09 -2.90071E-09 -2.88927E-09 -2.87674E-09
  -2.86318E-09 -2.84861E-09 -2.83312E-09 -2.81673E-09 -2.79949E-09 -2.78147E-09 -2.76269E-09 -2.74322E-09 -2.72309E-09 -2.70234E-09
  -2.68104E-09 -2.65922E-09 -2.63693E-09 -2.61420E-09 -2.59109E-09 -2.56762E-09 -2.54386E-09 -2.51982E-09 -2.49556E-09 -2.47112E-09
  -2.44652E-09 -2.42180E-09 -2.39702E-09 -2.37218E-09 -2.34735E-09 -2.32253E-09 -2.29778E-09 -2.27312E-09 -2.24857E-09 -2.22418E-09
  -2.19997E-09 -2.17596E-09 -2.15219E-09 -2.12867E-09 -2.10544E-09 -2.08251E-09 -2.05991E-09 -2.03765E-09 -2.01576E-09 -1.99426E-09
  -1.97316E-09 -1.95246E-09 -1.93216E-09 -1.91223E-09 -1.89265E-09 -1.87341E-09 -1.85449E-09 -1.83589E-09 -1.81757E-09 -1.79952E-09
  -1.78174E-09 -1.76420E-09 -1.74689E-09 -1.72979E-09 -1.71289E-09 -1.69618E-09 -1.67964E-09 -1.66325E-09 -1.64701E-09 -1.63090E-09
  -1.61490E-09 -1.59901E-09 -1.58322E-09 -1.56749E-09 -1.55184E-09 -1.53625E-09 -1.52070E-09 -1.50518E-09 -1.48968E-09 -1.47420E-09
  -1.45872E-09 -1.44323E-09 -1.42773E-09 -1.41220E-09 -1.39664E-09 -1.38104E-09 -1.36538E-09 -1.34967E-09 -1.33390E-09 -1.31805E-09
  -1.30213E-09 -1.28612E-09 -1.27002E-09 -1.25383E-09 -1.23754E-09 -1.22114E-09 -1.20464E-09 -1.18802E-09 -1.17129E-09 -1.15444E-09
  -1.13748E-09 -1.12038E-09 -1.10317E-09 -1.08583E-09 -1.06836E-09 -1.05077E-09 -1.03305E-09 -1.01521E-09 -9.97236E-10 -9.79142E-10
  -9.60927E-10 -9.42591E-10 -9.24138E-10 -9.05570E-10 -8.86892E-10 -8.68106E-10 -8.49220E-10 -8.30234E-10 -8.11156E-10 -7.91991E-10
  -7.72744E-10 -7.53422E-10 -7.34034E-10
 NY background values follow
     1.088E-09    1.179E-09    1.268E-09    1.357E-09    1.445E-09    1.532E-09    1.618E-09    1.703E-09    1.786E-09    1.869E-09
     1.951E-09    2.031E-09    2.111E-09    2.189E-09    2.267E-09    2.343E-09    2.418E-09    2.492E-09    2.565E-09    2.637E-09
     2.708E-09    2.778E-09    2.846E-09    2.914E-09    2.980E-09    3.045E-09    3.110E-09    3.173E-09    3.235E-09    3.296E-09
     3.355E-09    3.414E-09    3.472E-09    3.528E-09    3.584E-09    3.638E-09    3.691E-09    3.744E-09    3.795E-09    3.845E-09
     3.894E-09    3.942E-09    3.989E-09    4.034E-09    4.079E-09    4.123E-09    4.166E-09    4.207E-09    4.248E-09    4.288E-09
     4.326E-09    4.364E-09    4.401E-09    4.436E-09    4.471E-09    4.505E-09    4.538E-09    4.570E-09    4.601E-09    4.631E-09
     4.660E-09    4.688E-09    4.715E-09    4.742E-09    4.767E-09    4.792E-09    4.816E-09    4.839E-09    4.861E-09    4.883E-09
     4.903E-09    4.923E-09    4.942E-09    4.960E-09    4.978E-09    4.995E-09    5.011E-09    5.026E-09    5.041E-09    5.054E-09
     5.067E-09    5.079E-09    5.091E-09    5.101E-09    5.111E-09    5.120E-09    5.128E-09    5.135E-09    5.141E-09    5.146E-09
     5.151E-09    5.154E-09    5.157E-09    5.159E-09    5.159E-09    5.159E-09    5.158E-09    5.156E-09    5.152E-09    5.148E-09
     5.143E-09    5.136E-09    5.129E-09    5.121E-09    5.111E-09    5.100E-09    5.088E-09    5.075E-09    5.061E-09    5.046E-09
     5.029E-09    5.011E-09    4.992E-09    4.971E-09    4.950E-09    4.927E-09    4.902E-09    4.877E-09    4.850E-09    4.821E-09
     4.792E-09    4.760E-09    4.728E-09    4.694E-09    4.658E-09    4.621E-09    4.582E-09    4.542E-09    4.500E-09    4.457E-09
     4.412E-09    4.366E-09    4.318E-09    4.268E-09    4.217E-09    4.164E-09    4.109E-09    4.052E-09    3.994E-09    3.934E-09
     3.872E-09    3.809E-09    3.743E-09    3.676E-09    3.607E-09    3.537E-09    3.464E-09    3.389E-09    3.313E-09    3.235E-09
     3.156E-09    3.075E-09    2.992E-09    2.908E-09    2.823E-09    2.736E-09    2.648E-09    2.559E-09    2.469E-09    2.378E-09
     2.285E-09    2.192E-09    2.098E-09    2.003E-09    1.907E-09    1.810E-09    1.713E-09    1.616E-09    1.518E-09    1.419E-09
     1.321E-09    1.222E-09    1.122E-09    1.023E-09    9.235E-10    8.241E-10    7.248E-10    6.256E-10    5.266E-10    4.279E-10
     3.296E-10    2.317E-10    1.343E-10    3.745E-11   -5.876E-11   -1.543E-10   -2.490E-10   -3.429E-10   -4.359E-10   -5.279E-10
    -6.189E-10   -7.088E-10   -7.975E-10   -8.850E-10   -9.712E-10   -1.056E-09   -1.139E-09   -1.221E-09   -1.302E-09   -1.381E-09
    -1.458E-09   -1.533E-09   -1.607E-09   -1.678E-09   -1.748E-09   -1.816E-09   -1.882E-09   -1.946E-09   -2.008E-09   -2.067E-09
    -2.125E-09   -2.180E-09   -2.232E-09   -2.283E-09   -2.331E-09   -2.377E-09   -2.420E-09   -2.460E-09   -2.498E-09   -2.534E-09
    -2.567E-09   -2.597E-09   -2.625E-09   -2.651E-09   -2.675E-09   -2.696E-09   -2.715E-09   -2.732E-09   -2.747E-09   -2.759E-09
    -2.770E-09   -2.779E-09   -2.786E-09   -2.791E-09   -2.794E-09   -2.796E-09   -2.796E-09   -2.794E-09   -2.791E-09   -2.786E-09
    -2.779E-09   -2.771E-09   -2.762E-09   -2.752E-09   -2.740E-09   -2.727E-09   -2.712E-09   -2.697E-09   -2.681E-09   -2.663E-09
    -2.645E-09   -2.625E-09   -2.605E-09   -2.584E-09   -2.562E-09   -2.539E-09   -2.516E-09   -2.492E-09   -2.467E-09   -2.442E-09
    -2.416E-09   -2.390E-09   -2.363E-09   -2.336E-09   -2.309E-09   -2.281E-09   -2.254E-09   -2.225E-09   -2.197E-09   -2.169E-09
    -2.140E-09   -2.112E-09   -2.083E-09   -2.054E-09   -2.026E-09   -1.997E-09   -1.969E-09   -1.940E-09   -1.912E-09   -1.884E-09
    -1.856E-09   -1.829E-09   -1.802E-09   -1.775E-09   -1.748E-09   -1.722E-09   -1.696E-09   -1.670E-09   -1.645E-09   -1.620E-09
    -1.596E-09   -1.572E-09   -1.549E-09   -1.526E-09   -1.503E-09   -1.481E-09   -1.459E-09   -1.437E-09   -1.416E-09   -1.395E-09
    -1.375E-09   -1.354E-09   -1.334E-09   -1.314E-09   -1.295E-09   -1.275E-09   -1.256E-09   -1.237E-09   -1.218E-09   -1.199E-09
    -1.181E-09   -1.162E-09   -1.144E-09   -1.126E-09   -1.108E-09   -1.090E-09   -1.072E-09   -1.054E-09   -1.036E-09   -1.018E-09
    -1.001E-09   -9.830E-10   -9.653E-10   -9.476E-10   -9.299E-10   -9.121E-10   -8.944E-10   -8.766E-10   -8.588E-10   -8.409E-10
    -8.230E-10   -8.050E-10   -7.870E-10   -7.688E-10   -7.507E-10   -7.324E-10   -7.141E-10   -6.956E-10   -6.771E-10   -6.585E-10
    -6.398E-10   -6.210E-10   -6.021E-10   -5.831E-10   -5.640E-10   -5.448E-10   -5.255E-10   -5.061E-10   -4.866E-10   -4.670E-10
    -4.473E-10   -4.275E-10   -4.076E-10   -3.876E-10   -3.675E-10   -3.474E-10   -3.272E-10   -3.068E-10   -2.865E-10   -2.660E-10
    -2.455E-10   -2.250E-10   -2.044E-10
 Glc      Conc. = 5.61E-11
   1.00041E-09  1.10950E-09  1.21919E-09  1.33097E-09  1.44086E-09  1.54716E-09  1.64546E-09  1.73687E-09  1.81869E-09  1.89019E-09
   1.96018E-09  2.02988E-09  2.09906E-09  2.17100E-09  2.25033E-09  2.33759E-09  2.43200E-09  2.53286E-09  2.63491E-09  2.73507E-09
   2.83429E-09  2.92977E-09  3.01765E-09  3.09602E-09  3.15963E-09  3.20915E-09  3.25726E-09  3.30970E-09  3.36611E-09  3.42437E-09
   3.48095E-09  3.53564E-09  3.59017E-09  3.64254E-09  3.69149E-09  3.73998E-09  3.78815E-09  3.83434E-09  3.87923E-09  3.92399E-09
   3.96849E-09  4.01249E-09  4.05590E-09  4.09861E-09  4.14058E-09  4.18176E-09  4.22214E-09  4.26167E-09  4.30034E-09  4.33815E-09
   4.37507E-09  4.41113E-09  4.44628E-09  4.48055E-09  4.51395E-09  4.54644E-09  4.57805E-09  4.60882E-09  4.63865E-09  4.66764E-09
   4.69578E-09  4.72304E-09  4.74947E-09  4.77504E-09  4.79981E-09  4.82374E-09  4.84686E-09  4.86916E-09  4.89068E-09  4.91143E-09
   4.93139E-09  4.95059E-09  4.96907E-09  4.98679E-09  5.00379E-09  5.02004E-09  5.03555E-09  5.05031E-09  5.06430E-09  5.07753E-09
   5.08997E-09  5.10163E-09  5.11248E-09  5.12253E-09  5.13177E-09  5.14017E-09  5.14773E-09  5.15444E-09  5.16029E-09  5.16526E-09
   5.16934E-09  5.17253E-09  5.17478E-09  5.17613E-09  5.17652E-09  5.17594E-09  5.17440E-09  5.17187E-09  5.16833E-09  5.16378E-09
   5.15818E-09  5.15154E-09  5.14383E-09  5.13504E-09  5.12513E-09  5.11411E-09  5.10195E-09  5.08865E-09  5.07417E-09  5.05847E-09
   5.04160E-09  5.02348E-09  5.00411E-09  4.98348E-09  4.96156E-09  4.93834E-09  4.91381E-09  4.88794E-09  4.86069E-09  4.83210E-09
   4.80207E-09  4.77065E-09  4.73778E-09  4.70346E-09  4.66767E-09  4.63038E-09  4.59156E-09  4.55124E-09  4.50936E-09  4.46591E-09
   4.42088E-09  4.37422E-09  4.32596E-09  4.27605E-09  4.22449E-09  4.17121E-09  4.11629E-09  4.05963E-09  4.00125E-09  3.94110E-09
   3.87920E-09  3.81552E-09  3.75005E-09  3.68274E-09  3.61363E-09  3.54267E-09  3.46986E-09  3.39527E-09  3.31895E-09  3.24094E-09
   3.16132E-09  3.08013E-09  2.99744E-09  2.91331E-09  2.82779E-09  2.74095E-09  2.65287E-09  2.56358E-09  2.47319E-09  2.38174E-09
   2.28931E-09  2.19600E-09  2.10190E-09  2.00717E-09  1.91208E-09  1.81733E-09  1.72609E-09  1.64811E-09  1.57474E-09  1.49975E-09
   1.42044E-09  1.33569E-09  1.24543E-09  1.14987E-09  1.04818E-09  9.37562E-10  8.14742E-10  6.81536E-10  5.51455E-10  4.43493E-10
   3.41347E-10  2.41332E-10  1.42539E-10  4.47248E-11 -5.22220E-11 -1.48320E-10 -2.43541E-10 -3.37820E-10 -4.31169E-10 -5.23505E-10
  -6.14748E-10 -7.04886E-10 -7.93830E-10 -8.81534E-10 -9.67906E-10 -1.05291E-09 -1.13651E-09 -1.21859E-09 -1.29910E-09 -1.37803E-09
  -1.45528E-09 -1.53079E-09 -1.60451E-09 -1.67639E-09 -1.74638E-09 -1.81440E-09 -1.88041E-09 -1.94437E-09 -2.00622E-09 -2.06588E-09
  -2.12336E-09 -2.17855E-09 -2.23143E-09 -2.28196E-09 -2.33010E-09 -2.37577E-09 -2.41896E-09 -2.45964E-09 -2.49773E-09 -2.53330E-09
  -2.56636E-09 -2.59699E-09 -2.62522E-09 -2.65110E-09 -2.67467E-09 -2.69600E-09 -2.71514E-09 -2.73211E-09 -2.74699E-09 -2.75982E-09
  -2.77065E-09 -2.77953E-09 -2.78651E-09 -2.79165E-09 -2.79499E-09 -2.79659E-09 -2.79650E-09 -2.79477E-09 -2.79145E-09 -2.78658E-09
  -2.78023E-09 -2.77245E-09 -2.76329E-09 -2.75279E-09 -2.74100E-09 -2.72798E-09 -2.71378E-09 -2.69846E-09 -2.68205E-09 -2.66460E-09
  -2.64618E-09 -2.62681E-09 -2.60657E-09 -2.58548E-09 -2.56360E-09 -2.54098E-09 -2.51767E-09 -2.49370E-09 -2.46913E-09 -2.44399E-09
  -2.41834E-09 -2.39222E-09 -2.36568E-09 -2.33875E-09 -2.31147E-09 -2.28389E-09 -2.25605E-09 -2.22798E-09 -2.19974E-09 -2.17135E-09
  -2.14284E-09 -2.11427E-09 -2.08566E-09 -2.05705E-09 -2.02847E-09 -1.99996E-09 -1.97155E-09 -1.94326E-09 -1.91513E-09 -1.88719E-09
  -1.85947E-09 -1.83199E-09 -1.80479E-09 -1.77787E-09 -1.75127E-09 -1.72501E-09 -1.69912E-09 -1.67360E-09 -1.64849E-09 -1.62380E-09
  -1.59954E-09 -1.57573E-09 -1.55234E-09 -1.52935E-09 -1.50675E-09 -1.48453E-09 -1.46266E-09 -1.44113E-09 -1.41992E-09 -1.39901E-09
  -1.37840E-09 -1.35807E-09 -1.33799E-09 -1.31816E-09 -1.29856E-09 -1.27917E-09 -1.25999E-09 -1.24099E-09 -1.22216E-09 -1.20350E-09
  -1.18498E-09 -1.16659E-09 -1.14833E-09 -1.13017E-09 -1.11211E-09 -1.09414E-09 -1.07624E-09 -1.05839E-09 -1.04060E-09 -1.02286E-09
  -1.00514E-09 -9.87438E-10 -9.69752E-10 -9.52069E-10 -9.34377E-10 -9.16667E-10 -8.98940E-10 -8.81180E-10 -8.63384E-10 -8.45539E-10
  -8.27646E-10 -8.09695E-10 -7.91678E-10 -7.73593E-10 -7.55436E-10 -7.37200E-10 -7.18882E-10 -7.00477E-10 -6.81984E-10 -6.63394E-10
  -6.44713E-10 -6.25932E-10 -6.07054E-10 -5.88076E-10 -5.68991E-10 -5.49811E-10 -5.30525E-10 -5.11141E-10 -4.91653E-10 -4.72067E-10
  -4.52383E-10 -4.32603E-10 -4.12730E-10 -3.92765E-10 -3.72715E-10 -3.52580E-10 -3.32368E-10 -3.12080E-10 -2.91722E-10 -2.71302E-10
  -2.50823E-10 -2.30292E-10 -2.09717E-10
 Gln      Conc. = 6.67E-10
   4.48460E-10  5.90771E-10  7.76203E-10  1.00390E-09  1.26005E-09  1.52664E-09  1.78151E-09  2.00293E-09  2.18352E-09  2.34811E-09
   2.43556E-09  2.47122E-09  2.51111E-09  2.50616E-09  2.51470E-09  2.53833E-09  2.57166E-09  2.61126E-09  2.65502E-09  2.70156E-09
   2.74991E-09  2.79942E-09  2.84959E-09  2.90009E-09  2.95069E-09  3.00124E-09  3.05142E-09  3.10116E-09  3.15033E-09  3.19875E-09
   3.24633E-09  3.29298E-09  3.33860E-09  3.38314E-09  3.42651E-09  3.46868E-09  3.50952E-09  3.54899E-09  3.58700E-09  3.62345E-09
   3.65828E-09  3.69135E-09  3.72261E-09  3.75193E-09  3.77915E-09  3.80410E-09  3.82660E-09  3.84618E-09  3.86267E-09  3.87597E-09
   3.88529E-09  3.89037E-09  3.89162E-09  3.89281E-09  3.92309E-09  4.01453E-09  4.12361E-09  4.27302E-09  4.49872E-09  4.76917E-09
   5.04693E-09  5.32968E-09  5.58893E-09  5.78681E-09  5.89179E-09  5.89991E-09  5.86133E-09  5.78878E-09  5.60647E-09  5.42131E-09
   5.29266E-09  5.20238E-09  5.15210E-09  5.15128E-09  5.21672E-09  5.35476E-09  5.52502E-09  5.72117E-09  5.93106E-09  6.13418E-09
   6.31111E-09  6.43005E-09  6.46667E-09  6.47514E-09  6.44357E-09  6.32737E-09  6.21579E-09  6.12402E-09  6.01110E-09  5.91721E-09
   5.84537E-09  5.78819E-09  5.74119E-09  5.70117E-09  5.66580E-09  5.63412E-09  5.60529E-09  5.57849E-09  5.55327E-09  5.52923E-09
   5.50594E-09  5.48307E-09  5.46043E-09  5.43790E-09  5.41530E-09  5.39250E-09  5.36936E-09  5.34580E-09  5.32170E-09  5.29695E-09
   5.27156E-09  5.24540E-09  5.21842E-09  5.19056E-09  5.16179E-09  5.13205E-09  5.10130E-09  5.06950E-09  5.03658E-09  5.00256E-09
   4.96733E-09  4.93092E-09  4.89326E-09  4.85434E-09  4.81411E-09  4.77255E-09  4.72960E-09  4.68530E-09  4.63957E-09  4.59240E-09
   4.54376E-09  4.49361E-09  4.44196E-09  4.38877E-09  4.33400E-09  4.27763E-09  4.21969E-09  4.16009E-09  4.09884E-09  4.03590E-09
   3.97128E-09  3.90495E-09  3.83689E-09  3.76705E-09  3.69546E-09  3.62209E-09  3.54692E-09  3.47003E-09  3.39144E-09  3.31124E-09
   3.22946E-09  3.14618E-09  3.06145E-09  2.97535E-09  2.88794E-09  2.79929E-09  2.70950E-09  2.61865E-09  2.52688E-09  2.43433E-09
   2.34118E-09  2.24778E-09  2.15464E-09  2.06280E-09  1.97460E-09  1.89707E-09  1.86234E-09  1.99182E-09  2.18631E-09  2.36849E-09
   2.50370E-09  2.57712E-09  2.58681E-09  2.53494E-09  2.41206E-09  2.18504E-09  1.81290E-09  1.31035E-09  8.28854E-10  6.11551E-10
   4.66071E-10  3.42478E-10  2.28589E-10  1.20121E-10  1.51483E-11 -8.72862E-11 -1.87692E-10 -2.86333E-10 -3.83437E-10 -4.79064E-10
  -5.73236E-10 -6.66014E-10 -7.57365E-10 -8.47283E-10 -9.35708E-10 -1.02263E-09 -1.10803E-09 -1.19181E-09 -1.27393E-09 -1.35439E-09
  -1.43311E-09 -1.51003E-09 -1.58510E-09 -1.65828E-09 -1.72953E-09 -1.79876E-09 -1.86595E-09 -1.93105E-09 -1.99401E-09 -2.05475E-09
  -2.11328E-09 -2.16950E-09 -2.22339E-09 -2.27490E-09 -2.32400E-09 -2.37061E-09 -2.41472E-09 -2.45630E-09 -2.49528E-09 -2.53171E-09
  -2.56563E-09 -2.59710E-09 -2.62615E-09 -2.65284E-09 -2.67721E-09 -2.69932E-09 -2.71923E-09 -2.73696E-09 -2.75259E-09 -2.76615E-09
