 LCModel (Version 6.3-1R) Copyright: S.W. Provencher.          Ref.: Magn. Reson. Med. 30:672-679 (1993).                
 onepulse 18x4_ftSpec_smooth_lcm
 26 lines in following concentration table = NCONC+1
    Conc.  %SD /Cr+PCr  Metabolite                                         
 7.11E-11 422%   0.548 Ala                                                 
 2.00E-09  28%  15.410 Asp                                                 
    0.000 999%   0.000 Cr                                                  
 1.14E-09  47%   8.820 GABA                                                
 1.02E-10 804%   0.788 Glc                                                 
    0.000 999%   0.000 Gln                                                 
    0.000 999%   0.000 Glu                                                 
    0.000 999%   0.000 Glyc                                                
 4.56E-11 243%   0.351 GPC                                                 
    0.000 999%   0.000 GSH                                                 
 7.49E-10  60%   5.770 Ins                                                 
    0.000 999%   0.000 Lac                                                 
    0.000 999%   0.000 NAAG                                                
    0.000 999%   0.000 NAA                                                 
    0.000 999%   0.000 PCh                                                 
 1.30E-10 221%   1.000 PCr                                                 
    0.000 999%   0.000 PE                                                  
 1.31E-10 158%   1.009 Scyllo                                              
    0.000 999%   0.000 Ser                                                 
 3.10E-10 238%   2.385 Tau                                                 
 4.56E-11 243%   0.351 GPC+PCh                                             
    0.000 999%   0.000 NAA+NAAG                                            
 7.49E-10  60%   5.770 Ins+Glyc                                            
 1.30E-10 221%   1.000 Cr+PCr                                              
    0.000 999%   0.000 Glu+Gln                                             
   6 lines in following misc. output table
  FWHM = 0.123 ppm    S/N =   2                                            
  Data shift = 0.291 ppm                                                   
  Ph: 106 deg       9.1 deg/ppm                                            
  alphaB,S = 1.1E+00,   6.0E+00                                            
    8 spline knots.   Ns = 5(1)                                            
   2 inflections.     1 extrema                                            
  363 points on ppm-axis = NY
      4.250000     4.238821     4.227641     4.216462     4.205282     4.194103     4.182923     4.171744     4.160564     4.149385
      4.138206     4.127026     4.115847     4.104667     4.093488     4.082308     4.071129     4.059949     4.048770     4.037591
      4.026411     4.015232     4.004052     3.992873     3.981693     3.970514     3.959334     3.948155     3.936975     3.925796
      3.914617     3.903437     3.892258     3.881078     3.869899     3.858719     3.847540     3.836360     3.825181     3.814002
      3.802822     3.791643     3.780463     3.769284     3.758104     3.746925     3.735745     3.724566     3.713387     3.702207
      3.691028     3.679848     3.668669     3.657489     3.646310     3.635130     3.623951     3.612772     3.601592     3.590413
      3.579233     3.568054     3.556874     3.545695     3.534515     3.523336     3.512156     3.500977     3.489798     3.478618
      3.467439     3.456259     3.445080     3.433900     3.422721     3.411541     3.400362     3.389183     3.378003     3.366824
      3.355644     3.344465     3.333285     3.322106     3.310926     3.299747     3.288568     3.277388     3.266209     3.255029
      3.243850     3.232670     3.221491     3.210311     3.199132     3.187953     3.176773     3.165594     3.154414     3.143235
      3.132055     3.120876     3.109696     3.098517     3.087337     3.076158     3.064979     3.053799     3.042620     3.031440
      3.020261     3.009081     2.997902     2.986722     2.975543     2.964364     2.953184     2.942005     2.930825     2.919646
      2.908466     2.897287     2.886107     2.874928     2.863749     2.852569     2.841390     2.830210     2.819031     2.807851
      2.796672     2.785492     2.774313     2.763134     2.751954     2.740775     2.729595     2.718416     2.707236     2.696057
      2.684877     2.673698     2.662519     2.651339     2.640160     2.628980     2.617801     2.606621     2.595442     2.584262
      2.573083     2.561903     2.550724     2.539545     2.528365     2.517186     2.506006     2.494827     2.483647     2.472468
      2.461288     2.450109     2.438930     2.427750     2.416571     2.405391     2.394212     2.383032     2.371853     2.360673
      2.349494     2.338315     2.327135     2.315956     2.304776     2.293597     2.282417     2.271238     2.260058     2.248879
      2.237700     2.226520     2.215341     2.204161     2.192982     2.181802     2.170623     2.159443     2.148264     2.137084
      2.125905     2.114726     2.103546     2.092367     2.081187     2.070008     2.058828     2.047649     2.036469     2.025290
      2.014111     2.002931     1.991752     1.980572     1.969393     1.958213     1.947034     1.935854     1.924675     1.913496
      1.902316     1.891137     1.879957     1.868778     1.857598     1.846419     1.835239     1.824060     1.812881     1.801701
      1.790522     1.779342     1.768163     1.756983     1.745804     1.734624     1.723445     1.712265     1.701086     1.689907
      1.678727     1.667548     1.656368     1.645189     1.634009     1.622830     1.611650     1.600471     1.589292     1.578112
      1.566933     1.555753     1.544574     1.533394     1.522215     1.511035     1.499856     1.488677     1.477497     1.466318
      1.455138     1.443959     1.432779     1.421600     1.410420     1.399241     1.388062     1.376882     1.365703     1.354523
      1.343344     1.332164     1.320985     1.309805     1.298626     1.287446     1.276267     1.265088     1.253908     1.242729
      1.231549     1.220370     1.209190     1.198011     1.186831     1.175652     1.164473     1.153293     1.142114     1.130934
      1.119755     1.108575     1.097396     1.086216     1.075037     1.063858     1.052678     1.041499     1.030319     1.019140
      1.007960     0.996781     0.985601     0.974422     0.963243     0.952063     0.940884     0.929704     0.918525     0.907345
      0.896166     0.884986     0.873807     0.862628     0.851448     0.840269     0.829089     0.817910     0.806730     0.795551
      0.784371     0.773192     0.762012     0.750833     0.739654     0.728474     0.717295     0.706115     0.694936     0.683756
      0.672577     0.661397     0.650218     0.639039     0.627859     0.616680     0.605500     0.594321     0.583141     0.571962
      0.560782     0.549603     0.538424     0.527244     0.516065     0.504885     0.493706     0.482526     0.471347     0.460167
      0.448988     0.437809     0.426629     0.415450     0.404270     0.393091     0.381911     0.370732     0.359552     0.348373
      0.337193     0.326014     0.314835     0.303655     0.292476     0.281296     0.270117     0.258937     0.247758     0.236578
      0.225399     0.214220     0.203040
 NY phased data points follow
   6.17765E-09  9.81976E-09  6.85888E-09  1.10934E-08  8.86800E-09  1.29261E-08  1.01070E-08  1.30310E-08  9.06105E-09  1.18272E-08
   8.55579E-09  1.14226E-08  7.77534E-09  1.10998E-08  8.38856E-09  1.16385E-08  8.01945E-09  1.15361E-08  8.57287E-09  1.19268E-08
   9.02253E-09  1.21446E-08  9.01479E-09  1.18433E-08  8.62831E-09  1.16345E-08  8.08472E-09  1.11943E-08  8.20539E-09  1.12669E-08
   8.87661E-09  1.13956E-08  8.43436E-09  1.10656E-08  8.51205E-09  1.11022E-08  9.16028E-09  1.21655E-08  1.01508E-08  1.23494E-08
   9.18146E-09  1.18483E-08  8.76005E-09  1.08836E-08  8.66392E-09  1.08052E-08  8.40525E-09  1.07220E-08  8.24465E-09  1.06101E-08
   7.67861E-09  1.02917E-08  7.39846E-09  9.97390E-09  7.68771E-09  9.53294E-09  7.32047E-09  9.78325E-09  7.67416E-09  9.46186E-09
   7.15830E-09  8.84567E-09  6.90714E-09  9.13707E-09  7.02058E-09  9.50484E-09  7.60444E-09  1.04159E-08  9.06567E-09  1.14813E-08
   1.01645E-08  1.17471E-08  9.52801E-09  1.11236E-08  9.01118E-09  1.03837E-08  8.02625E-09  9.61442E-09  7.65254E-09  8.93252E-09
   6.59233E-09  8.70650E-09  6.72594E-09  9.38000E-09  8.79184E-09  1.16602E-08  1.07102E-08  1.27103E-08  1.11069E-08  1.24548E-08
   1.06838E-08  1.13738E-08  9.82986E-09  1.11645E-08  9.75953E-09  1.08014E-08  9.47603E-09  1.03735E-08  8.74848E-09  9.97582E-09
   8.05989E-09  9.78631E-09  7.46749E-09  8.92737E-09  6.98367E-09  8.67961E-09  7.01905E-09  8.26000E-09  6.69761E-09  7.86043E-09
   6.53267E-09  8.24951E-09  6.49296E-09  7.92476E-09  6.09008E-09  7.24456E-09  5.74001E-09  7.32338E-09  5.71751E-09  7.36699E-09
   5.64262E-09  7.22280E-09  5.91678E-09  7.27066E-09  5.50935E-09  7.14728E-09  6.00504E-09  7.18871E-09  5.82795E-09  6.54908E-09
   5.30935E-09  6.68190E-09  5.38717E-09  6.41637E-09  5.04960E-09  6.84132E-09  5.93263E-09  7.15805E-09  5.77456E-09  7.54234E-09
   6.67145E-09  7.58613E-09  6.48979E-09  7.29108E-09  6.64775E-09  8.37446E-09  7.50563E-09  8.37766E-09  7.56573E-09  8.73411E-09
   8.16328E-09  9.59704E-09  8.27954E-09  9.32154E-09  8.35876E-09  9.97142E-09  8.46661E-09  9.33905E-09  8.41645E-09  8.94141E-09
   7.81631E-09  8.82121E-09  8.51312E-09  9.22609E-09  8.12585E-09  8.98070E-09  7.84639E-09  9.22481E-09  8.08250E-09  8.92763E-09
   7.64602E-09  8.90472E-09  7.32061E-09  7.86753E-09  7.10364E-09  8.39795E-09  9.42245E-09  1.20237E-08  1.18472E-08  1.19133E-08
   1.05762E-08  1.08772E-08  9.32132E-09  8.81202E-09  6.86098E-09  6.40679E-09  4.37474E-09  3.20474E-09  8.37777E-10  2.06586E-11
  -2.78605E-09 -4.11425E-09 -6.42722E-09 -7.54168E-09 -9.28484E-09 -1.06561E-08 -1.18130E-08 -1.17119E-08 -1.26309E-08 -1.16135E-08
  -1.23537E-08 -1.14935E-08 -1.09392E-08 -8.99877E-09 -8.87473E-09 -6.78750E-09 -5.88602E-09 -4.11994E-09 -3.88843E-09 -2.99141E-09
  -3.12035E-09 -2.36089E-09 -2.60588E-09 -2.17242E-09 -3.02434E-09 -2.94676E-09 -2.92044E-09 -2.84260E-09 -2.87480E-09 -2.42608E-09
  -2.64581E-09 -1.91684E-09 -2.33766E-09 -1.58083E-09 -2.52512E-09 -1.87333E-09 -2.91410E-09 -2.02765E-09 -1.91229E-09 -1.18516E-09
  -1.50233E-09 -1.33006E-09 -1.52537E-09 -1.59446E-09 -1.27124E-09 -1.06319E-09 -1.23979E-09 -1.14518E-09 -1.30296E-09 -1.17397E-09
  -1.58509E-09 -1.75489E-09 -1.72686E-09 -1.77381E-09 -2.00772E-09 -2.10590E-09 -2.27717E-09 -2.21207E-09 -1.88358E-09 -1.81626E-09
  -2.18102E-09 -1.97205E-09 -2.23346E-09 -2.07056E-09 -2.48691E-09 -2.91359E-09 -2.59248E-09 -3.20654E-09 -3.18921E-09 -3.35014E-09
  -3.07071E-09 -3.56606E-09 -3.74162E-09 -4.18868E-09 -4.17463E-09 -4.03610E-09 -4.16777E-09 -4.43783E-09 -4.99123E-09 -4.69361E-09
  -4.54547E-09 -4.55133E-09 -4.44029E-09 -4.35878E-09 -4.22171E-09 -4.38208E-09 -3.32020E-09 -3.93860E-09 -3.93473E-09 -3.45237E-09
  -3.21057E-09 -3.56617E-09 -3.11978E-09 -3.38165E-09 -3.20837E-09 -3.26547E-09 -3.37322E-09 -3.17002E-09 -2.71407E-09 -3.06147E-09
  -3.31777E-09 -3.35265E-09 -2.83463E-09 -3.34375E-09 -2.83570E-09 -3.76036E-09 -3.47679E-09 -3.66095E-09 -3.41461E-09 -4.01659E-09
  -3.90245E-09 -4.07047E-09 -3.94107E-09 -4.24866E-09 -4.09273E-09 -4.62289E-09 -4.23633E-09 -4.42090E-09 -4.25758E-09 -5.03736E-09
  -4.32152E-09 -5.17045E-09 -4.28957E-09 -4.74095E-09 -4.86151E-09 -5.63022E-09 -4.82448E-09 -4.83786E-09 -4.90522E-09 -5.56256E-09
  -5.28249E-09 -5.63577E-09 -5.07000E-09 -5.50447E-09 -5.24040E-09 -5.70240E-09 -5.49008E-09 -6.08821E-09 -5.08127E-09 -5.97335E-09
  -5.75020E-09 -6.08984E-09 -5.00735E-09 -6.46177E-09 -5.70381E-09 -6.31071E-09 -5.62654E-09 -6.19996E-09 -5.65816E-09 -6.37626E-09
  -5.95534E-09 -6.95484E-09 -6.08133E-09 -6.52375E-09 -5.72464E-09 -6.80765E-09 -5.98537E-09 -6.73696E-09 -6.12184E-09 -7.14310E-09
  -6.30502E-09 -7.12396E-09 -6.27567E-09 -7.43625E-09 -6.08965E-09 -7.17664E-09 -6.73268E-09 -7.69280E-09 -6.55148E-09 -7.14210E-09
  -6.53055E-09 -7.05872E-09 -6.85347E-09
 NY points of the fit to the data follow
   9.56849E-09  8.97885E-09  8.68190E-09  8.96472E-09  9.63094E-09  9.50265E-09  9.65721E-09  9.95212E-09  1.04333E-08  1.04228E-08
   1.02344E-08  1.02242E-08  1.05436E-08  1.08601E-08  1.06092E-08  1.01635E-08  1.07642E-08  1.12715E-08  1.01107E-08  9.21918E-09
   9.32982E-09  9.88462E-09  9.98194E-09  1.01128E-08  1.00412E-08  1.02009E-08  1.03204E-08  1.01041E-08  9.42738E-09  9.96332E-09
   1.02215E-08  1.06772E-08  1.08579E-08  1.03975E-08  9.71405E-09  9.92656E-09  1.01147E-08  1.02246E-08  1.02909E-08  1.00387E-08
   9.79133E-09  1.02423E-08  9.70612E-09  9.12043E-09  9.83462E-09  1.06212E-08  9.65296E-09  9.23977E-09  9.36268E-09  9.43771E-09
   9.60667E-09  1.00277E-08  1.03230E-08  1.02363E-08  9.60971E-09  9.25780E-09  8.20369E-09  8.90693E-09  9.40801E-09  9.14286E-09
   9.08873E-09  9.48609E-09  9.56406E-09  9.47200E-09  1.00968E-08  1.05023E-08  9.93350E-09  9.75069E-09  9.83768E-09  9.86473E-09
   9.83526E-09  9.64357E-09  9.19657E-09  9.02631E-09  9.33919E-09  8.68127E-09  8.10408E-09  8.55739E-09  8.64952E-09  8.59834E-09
   8.77385E-09  8.79184E-09  9.02899E-09  9.40662E-09  9.37046E-09  9.42228E-09  9.66818E-09  9.69247E-09  9.71417E-09  9.79452E-09
   9.60752E-09  9.48251E-09  9.78214E-09  9.51802E-09  8.92954E-09  9.20574E-09  9.16735E-09  8.65176E-09  8.64448E-09  8.68351E-09
   8.56549E-09  8.46915E-09  8.45140E-09  8.45895E-09  8.42619E-09  8.38092E-09  8.35028E-09  8.33249E-09  8.31990E-09  8.27636E-09
   8.16153E-09  8.06570E-09  8.09273E-09  8.01067E-09  7.87234E-09  7.82382E-09  7.78649E-09  7.74935E-09  7.71044E-09  7.66943E-09
   7.62610E-09  7.58073E-09  7.53328E-09  7.48385E-09  7.43249E-09  7.37928E-09  7.32422E-09  7.26745E-09  7.20897E-09  7.14883E-09
   7.08708E-09  7.02372E-09  6.95887E-09  6.89254E-09  6.82477E-09  6.75553E-09  6.68504E-09  6.61316E-09  6.54004E-09  6.46566E-09
   6.39016E-09  6.31358E-09  6.23600E-09  6.15742E-09  6.07800E-09  5.99782E-09  5.91701E-09  5.83574E-09  5.75421E-09  5.67266E-09
   5.59133E-09  5.51056E-09  5.43071E-09  5.35228E-09  5.27585E-09  5.20217E-09  5.13225E-09  5.06740E-09  5.00951E-09  4.96124E-09
   4.92662E-09  4.91218E-09  4.92907E-09  4.99871E-09  5.16840E-09  5.56954E-09  6.72486E-09  9.85033E-09  1.04342E-08  9.92987E-09
   9.17402E-09  8.93390E-09  8.37721E-09  8.12449E-09  8.16900E-09  9.48966E-09  1.13468E-08  1.08212E-08  4.63682E-09  2.07666E-09
   1.53859E-09  1.32925E-09  1.20137E-09  1.09878E-09  1.00446E-09  9.12415E-10  8.20434E-10  7.27755E-10  6.34040E-10  5.39371E-10
   4.43921E-10  3.47767E-10  2.51141E-10  1.54184E-10  5.71280E-11 -3.99392E-11 -1.36904E-10 -2.33536E-10 -3.29761E-10 -4.25513E-10
  -5.20648E-10 -6.15071E-10 -7.08670E-10 -8.01387E-10 -8.93163E-10 -9.83846E-10 -1.07342E-09 -1.16181E-09 -1.24895E-09 -1.33470E-09
  -1.41913E-09 -1.50207E-09 -1.58349E-09 -1.66334E-09 -1.74160E-09 -1.81813E-09 -1.89294E-09 -1.96599E-09 -2.03715E-09 -2.10652E-09
  -2.17406E-09 -2.23985E-09 -2.30388E-09 -2.36620E-09 -2.42681E-09 -2.48578E-09 -2.54312E-09 -2.59886E-09 -2.65304E-09 -2.70569E-09
  -2.75685E-09 -2.80654E-09 -2.85480E-09 -2.90167E-09 -2.94718E-09 -2.99136E-09 -3.03426E-09 -3.07591E-09 -3.11634E-09 -3.15559E-09
  -3.19369E-09 -3.23070E-09 -3.26663E-09 -3.30153E-09 -3.33543E-09 -3.36838E-09 -3.40040E-09 -3.43154E-09 -3.46184E-09 -3.49133E-09
  -3.52005E-09 -3.54803E-09 -3.57533E-09 -3.60195E-09 -3.62794E-09 -3.65337E-09 -3.67824E-09 -3.70260E-09 -3.72649E-09 -3.74993E-09
  -3.77297E-09 -3.79565E-09 -3.81800E-09 -3.84006E-09 -3.86185E-09 -3.88342E-09 -3.90482E-09 -3.92603E-09 -3.94714E-09 -3.96817E-09
  -3.98913E-09 -4.01008E-09 -4.03104E-09 -4.05204E-09 -4.07313E-09 -4.09432E-09 -4.11565E-09 -4.13716E-09 -4.15885E-09 -4.18078E-09
  -4.20298E-09 -4.22546E-09 -4.24827E-09 -4.27141E-09 -4.29492E-09 -4.31884E-09 -4.34319E-09 -4.36796E-09 -4.39322E-09 -4.41898E-09
  -4.44525E-09 -4.47206E-09 -4.49935E-09 -4.52712E-09 -4.55531E-09 -4.58392E-09 -4.61289E-09 -4.64222E-09 -4.67186E-09 -4.70179E-09
  -4.73198E-09 -4.76240E-09 -4.79302E-09 -4.82381E-09 -4.85475E-09 -4.88579E-09 -4.91693E-09 -4.94812E-09 -4.97935E-09 -5.01057E-09
  -5.04176E-09 -5.07290E-09 -5.10396E-09 -5.13491E-09 -5.16572E-09 -5.19636E-09 -5.22682E-09 -5.25705E-09 -5.28704E-09 -5.31676E-09
  -5.34619E-09 -5.37528E-09 -5.40403E-09 -5.43241E-09 -5.46039E-09 -5.48793E-09 -5.51504E-09 -5.54167E-09 -5.56780E-09 -5.59341E-09
  -5.61848E-09 -5.64297E-09 -5.66687E-09 -5.69016E-09 -5.71282E-09 -5.73481E-09 -5.75613E-09 -5.77674E-09 -5.79664E-09 -5.81577E-09
  -5.83416E-09 -5.85175E-09 -5.86854E-09 -5.88451E-09 -5.89963E-09 -5.91390E-09 -5.92727E-09 -5.93976E-09 -5.95133E-09 -5.96196E-09
  -5.97165E-09 -5.98037E-09 -5.98810E-09 -5.99484E-09 -6.00057E-09 -6.00526E-09 -6.00892E-09 -6.01151E-09 -6.01304E-09 -6.01349E-09
  -6.01284E-09 -6.01108E-09 -6.00820E-09
 NY background values follow
     5.920E-09    6.021E-09    6.121E-09    6.220E-09    6.317E-09    6.413E-09    6.507E-09    6.600E-09    6.691E-09    6.781E-09
     6.869E-09    6.956E-09    7.041E-09    7.125E-09    7.207E-09    7.288E-09    7.368E-09    7.446E-09    7.522E-09    7.597E-09
     7.671E-09    7.743E-09    7.813E-09    7.882E-09    7.950E-09    8.016E-09    8.081E-09    8.144E-09    8.205E-09    8.266E-09
     8.324E-09    8.382E-09    8.437E-09    8.492E-09    8.544E-09    8.596E-09    8.646E-09    8.694E-09    8.741E-09    8.786E-09
     8.830E-09    8.873E-09    8.914E-09    8.954E-09    8.992E-09    9.028E-09    9.064E-09    9.097E-09    9.130E-09    9.161E-09
     9.190E-09    9.218E-09    9.245E-09    9.270E-09    9.293E-09    9.316E-09    9.336E-09    9.356E-09    9.374E-09    9.390E-09
     9.405E-09    9.419E-09    9.431E-09    9.442E-09    9.452E-09    9.460E-09    9.466E-09    9.472E-09    9.476E-09    9.478E-09
     9.479E-09    9.479E-09    9.477E-09    9.474E-09    9.470E-09    9.464E-09    9.457E-09    9.448E-09    9.438E-09    9.427E-09
     9.414E-09    9.400E-09    9.385E-09    9.368E-09    9.350E-09    9.331E-09    9.310E-09    9.288E-09    9.264E-09    9.239E-09
     9.213E-09    9.185E-09    9.156E-09    9.125E-09    9.094E-09    9.060E-09    9.026E-09    8.990E-09    8.953E-09    8.914E-09
     8.874E-09    8.832E-09    8.790E-09    8.745E-09    8.700E-09    8.653E-09    8.604E-09    8.555E-09    8.504E-09    8.451E-09
     8.397E-09    8.342E-09    8.286E-09    8.228E-09    8.168E-09    8.108E-09    8.046E-09    7.982E-09    7.917E-09    7.851E-09
     7.784E-09    7.715E-09    7.644E-09    7.573E-09    7.500E-09    7.425E-09    7.349E-09    7.272E-09    7.194E-09    7.114E-09
     7.033E-09    6.950E-09    6.866E-09    6.781E-09    6.694E-09    6.606E-09    6.516E-09    6.425E-09    6.333E-09    6.240E-09
     6.145E-09    6.049E-09    5.951E-09    5.852E-09    5.752E-09    5.650E-09    5.547E-09    5.443E-09    5.338E-09    5.231E-09
     5.123E-09    5.014E-09    4.904E-09    4.793E-09    4.681E-09    4.567E-09    4.453E-09    4.339E-09    4.223E-09    4.106E-09
     3.989E-09    3.871E-09    3.753E-09    3.634E-09    3.514E-09    3.394E-09    3.273E-09    3.152E-09    3.031E-09    2.909E-09
     2.787E-09    2.665E-09    2.543E-09    2.420E-09    2.298E-09    2.175E-09    2.053E-09    1.930E-09    1.808E-09    1.686E-09
     1.564E-09    1.443E-09    1.321E-09    1.200E-09    1.080E-09    9.599E-10    8.404E-10    7.216E-10    6.034E-10    4.858E-10
     3.690E-10    2.529E-10    1.377E-10    2.327E-11   -9.016E-11   -2.026E-10   -3.141E-10   -4.245E-10   -5.337E-10   -6.419E-10
    -7.488E-10   -8.544E-10   -9.587E-10   -1.062E-09   -1.163E-09   -1.263E-09   -1.362E-09   -1.459E-09   -1.555E-09   -1.648E-09
    -1.741E-09   -1.831E-09   -1.920E-09   -2.007E-09   -2.092E-09   -2.175E-09   -2.256E-09   -2.335E-09   -2.412E-09   -2.487E-09
    -2.561E-09   -2.632E-09   -2.701E-09   -2.769E-09   -2.834E-09   -2.898E-09   -2.960E-09   -3.021E-09   -3.079E-09   -3.136E-09
    -3.192E-09   -3.246E-09   -3.298E-09   -3.349E-09   -3.398E-09   -3.446E-09   -3.492E-09   -3.538E-09   -3.582E-09   -3.624E-09
    -3.665E-09   -3.706E-09   -3.745E-09   -3.783E-09   -3.819E-09   -3.855E-09   -3.890E-09   -3.924E-09   -3.957E-09   -3.989E-09
    -4.020E-09   -4.050E-09   -4.080E-09   -4.109E-09   -4.137E-09   -4.165E-09   -4.192E-09   -4.218E-09   -4.244E-09   -4.269E-09
    -4.294E-09   -4.319E-09   -4.343E-09   -4.366E-09   -4.390E-09   -4.413E-09   -4.436E-09   -4.459E-09   -4.481E-09   -4.503E-09
    -4.526E-09   -4.548E-09   -4.570E-09   -4.592E-09   -4.614E-09   -4.636E-09   -4.659E-09   -4.681E-09   -4.704E-09   -4.727E-09
    -4.750E-09   -4.773E-09   -4.796E-09   -4.820E-09   -4.844E-09   -4.869E-09   -4.894E-09   -4.919E-09   -4.945E-09   -4.971E-09
    -4.997E-09   -5.025E-09   -5.052E-09   -5.080E-09   -5.108E-09   -5.137E-09   -5.166E-09   -5.196E-09   -5.225E-09   -5.255E-09
    -5.286E-09   -5.316E-09   -5.346E-09   -5.377E-09   -5.408E-09   -5.439E-09   -5.470E-09   -5.500E-09   -5.531E-09   -5.562E-09
    -5.593E-09   -5.624E-09   -5.654E-09   -5.685E-09   -5.715E-09   -5.745E-09   -5.775E-09   -5.805E-09   -5.834E-09   -5.863E-09
    -5.892E-09   -5.920E-09   -5.948E-09   -5.976E-09   -6.003E-09   -6.029E-09   -6.056E-09   -6.081E-09   -6.106E-09   -6.131E-09
    -6.155E-09   -6.178E-09   -6.201E-09   -6.223E-09   -6.245E-09   -6.266E-09   -6.286E-09   -6.305E-09   -6.324E-09   -6.342E-09
    -6.359E-09   -6.375E-09   -6.391E-09   -6.405E-09   -6.419E-09   -6.432E-09   -6.444E-09   -6.455E-09   -6.465E-09   -6.474E-09
    -6.482E-09   -6.489E-09   -6.495E-09   -6.500E-09   -6.504E-09   -6.507E-09   -6.509E-09   -6.510E-09   -6.510E-09   -6.509E-09
    -6.506E-09   -6.503E-09   -6.498E-09
 Ala      Conc. = 7.11E-11
   5.97017E-09  6.06324E-09  6.16184E-09  6.25508E-09  6.34640E-09  6.44512E-09  6.52698E-09  6.59715E-09  6.70505E-09  6.79678E-09
   6.85491E-09  6.94694E-09  7.04076E-09  7.11643E-09  7.19800E-09  7.28048E-09  7.36173E-09  7.44141E-09  7.51945E-09  7.59584E-09
   7.67060E-09  7.74377E-09  7.81535E-09  7.88537E-09  7.95381E-09  8.02073E-09  8.08610E-09  8.14996E-09  8.21230E-09  8.27311E-09
   8.33243E-09  8.39024E-09  8.44654E-09  8.50135E-09  8.55466E-09  8.60652E-09  8.65685E-09  8.70570E-09  8.75311E-09  8.79899E-09
   8.84343E-09  8.88638E-09  8.92789E-09  8.96789E-09  9.00646E-09  9.04355E-09  9.07922E-09  9.11339E-09  9.14612E-09  9.17743E-09
   9.20726E-09  9.23568E-09  9.26263E-09  9.28815E-09  9.31228E-09  9.33493E-09  9.35617E-09  9.37605E-09  9.39439E-09  9.41139E-09
   9.42700E-09  9.44115E-09  9.45393E-09  9.46530E-09  9.47532E-09  9.48392E-09  9.49116E-09  9.49699E-09  9.50146E-09  9.50459E-09
   9.50633E-09  9.50672E-09  9.50582E-09  9.50352E-09  9.49992E-09  9.49500E-09  9.48875E-09  9.48120E-09  9.47234E-09  9.46219E-09
   9.45074E-09  9.43801E-09  9.42402E-09  9.40877E-09  9.39232E-09  9.37465E-09  9.35579E-09  9.33581E-09  9.31473E-09  9.29262E-09
   9.26954E-09  9.24565E-09  9.22104E-09  9.19601E-09  9.17083E-09  9.14606E-09  9.12272E-09  9.10269E-09  9.09044E-09  9.09824E-09
   9.09292E-09  9.02760E-09  9.00630E-09  8.99673E-09  8.94069E-09  8.86985E-09  8.81264E-09  8.76798E-09  8.72854E-09  8.65819E-09
   8.51672E-09  8.39521E-09  8.39725E-09  8.29089E-09  8.12895E-09  8.05712E-09  7.99687E-09  7.93739E-09  7.87665E-09  7.81429E-09
   7.75009E-09  7.68419E-09  7.61656E-09  7.54730E-09  7.47643E-09  7.40396E-09  7.32990E-09  7.25439E-09  7.17734E-09  7.09881E-09
   7.01882E-09  6.93734E-09  6.85445E-09  6.77013E-09  6.68438E-09  6.59716E-09  6.50863E-09  6.41864E-09  6.32727E-09  6.23448E-09
   6.14034E-09  6.04482E-09  5.94793E-09  5.84964E-09  5.75002E-09  5.64904E-09  5.54671E-09  5.44309E-09  5.33821E-09  5.23213E-09
   5.12488E-09  5.01652E-09  4.90709E-09  4.79664E-09  4.68523E-09  4.57291E-09  4.45974E-09  4.34578E-09  4.23113E-09  4.11587E-09
   4.00007E-09  3.88396E-09  3.76772E-09  3.65183E-09  3.53725E-09  3.42677E-09  3.33280E-09  3.26170E-09  3.14038E-09  3.01142E-09
   2.88070E-09  2.75790E-09  2.62833E-09  2.50568E-09  2.38902E-09  2.29435E-09  2.19995E-09  2.05190E-09  1.82735E-09  1.68770E-09
   1.56230E-09  1.44000E-09  1.31877E-09  1.19822E-09  1.07817E-09  9.58609E-10  8.39569E-10  7.21144E-10  6.03265E-10  4.86041E-10
   3.69567E-10  2.53803E-10  1.38852E-10  2.47371E-11 -8.84254E-11 -2.00649E-10 -3.11909E-10 -4.22056E-10 -5.31088E-10 -6.39000E-10
  -7.45705E-10 -8.51156E-10 -9.55287E-10 -1.05808E-09 -1.15950E-09 -1.25943E-09 -1.35789E-09 -1.45482E-09 -1.55019E-09 -1.64387E-09
  -1.73595E-09 -1.82626E-09 -1.91481E-09 -2.00156E-09 -2.08649E-09 -2.16948E-09 -2.25054E-09 -2.32965E-09 -2.40671E-09 -2.48178E-09
  -2.55487E-09 -2.62603E-09 -2.69529E-09 -2.76269E-09 -2.82824E-09 -2.89202E-09 -2.95403E-09 -3.01432E-09 -3.07292E-09 -3.12987E-09
  -3.18522E-09 -3.23899E-09 -3.29122E-09 -3.34196E-09 -3.39123E-09 -3.43909E-09 -3.48556E-09 -3.53068E-09 -3.57450E-09 -3.61704E-09
  -3.65836E-09 -3.69849E-09 -3.73747E-09 -3.77533E-09 -3.81212E-09 -3.84787E-09 -3.88263E-09 -3.91643E-09 -3.94931E-09 -3.98131E-09
  -4.01248E-09 -4.04282E-09 -4.07244E-09 -4.10129E-09 -4.12946E-09 -4.15701E-09 -4.18393E-09 -4.21028E-09 -4.23609E-09 -4.26139E-09
  -4.28624E-09 -4.31067E-09 -4.33472E-09 -4.35842E-09 -4.38179E-09 -4.40488E-09 -4.42775E-09 -4.45039E-09 -4.47286E-09 -4.49520E-09
  -4.51743E-09 -4.53959E-09 -4.56172E-09 -4.58382E-09 -4.60598E-09 -4.62819E-09 -4.65049E-09 -4.67292E-09 -4.69549E-09 -4.71825E-09
  -4.74123E-09 -4.76445E-09 -4.78795E-09 -4.81174E-09 -4.83586E-09 -4.86034E-09 -4.88521E-09 -4.91046E-09 -4.93616E-09 -4.96232E-09
  -4.98895E-09 -5.01607E-09 -5.04364E-09 -5.07164E-09 -5.10003E-09 -5.12879E-09 -5.15788E-09 -5.18729E-09 -5.21697E-09 -5.24691E-09
  -5.27707E-09 -5.30741E-09 -5.33793E-09 -5.36858E-09 -5.39933E-09 -5.43017E-09 -5.46106E-09 -5.49197E-09 -5.52287E-09 -5.55374E-09
  -5.58455E-09 -5.61526E-09 -5.64587E-09 -5.67633E-09 -5.70662E-09 -5.73671E-09 -5.76658E-09 -5.79620E-09 -5.82554E-09 -5.85458E-09
  -5.88330E-09 -5.91165E-09 -5.93963E-09 -5.96720E-09 -5.99435E-09 -6.02103E-09 -6.04724E-09 -6.07295E-09 -6.09813E-09 -6.12276E-09
  -6.14682E-09 -6.17028E-09 -6.19312E-09 -6.21531E-09 -6.23685E-09 -6.25769E-09 -6.27783E-09 -6.29724E-09 -6.31591E-09 -6.33379E-09
  -6.35089E-09 -6.36717E-09 -6.38264E-09 -6.39724E-09 -6.41098E-09 -6.42383E-09 -6.43578E-09 -6.44680E-09 -6.45689E-09 -6.46601E-09
  -6.47417E-09 -6.48133E-09 -6.48749E-09 -6.49262E-09 -6.49672E-09 -6.49977E-09 -6.50175E-09 -6.50265E-09 -6.50247E-09 -6.50117E-09
  -6.49876E-09 -6.49522E-09 -6.49054E-09
 Asp      Conc. = 2.00E-09
   6.72591E-09  6.26971E-09  6.15668E-09  6.05156E-09  6.22217E-09  6.03018E-09  6.04399E-09  5.85593E-09  6.07690E-09  6.30442E-09
   6.50804E-09  6.69105E-09  6.86064E-09  7.02340E-09  7.17389E-09  7.31284E-09  7.44547E-09  7.57314E-09  7.69672E-09  7.81692E-09
   7.93436E-09  8.04956E-09  8.16303E-09  8.27526E-09  8.38671E-09  8.49791E-09  8.60940E-09  8.72183E-09  8.83592E-09  8.95260E-09
   9.07305E-09  9.19883E-09  9.33210E-09  9.47615E-09  9.63604E-09  9.82026E-09  1.00364E-08  1.01372E-08  1.02725E-08  1.02419E-08
   1.03103E-08  1.04728E-08  1.08215E-08  1.13000E-08  1.15566E-08  1.19530E-08  1.14186E-08  1.09361E-08  1.08771E-08  1.07722E-08
   1.07749E-08  1.10431E-08  1.11949E-08  1.09704E-08  1.02090E-08  9.72268E-09  8.53037E-09  9.08722E-09  9.42686E-09  8.97311E-09
   8.68544E-09  8.77226E-09  8.65480E-09  8.64216E-09  8.97118E-09  9.17887E-09  8.87787E-09  8.80968E-09  8.81933E-09  8.84730E-09
   8.87921E-09  8.91055E-09  8.93975E-09  8.96609E-09  8.98946E-09  9.00983E-09  9.02725E-09  9.04185E-09  9.05371E-09  9.06296E-09
   9.06968E-09  9.07398E-09  9.07595E-09  9.07565E-09  9.07318E-09  9.06859E-09  9.06193E-09  9.05327E-09  9.04266E-09  9.03012E-09
   9.01569E-09  8.99945E-09  8.98136E-09  8.96154E-09  8.93994E-09  8.91660E-09  8.89157E-09  8.86486E-09  8.83647E-09  8.80645E-09
   8.77479E-09  8.74152E-09  8.70664E-09  8.67020E-09  8.63216E-09  8.59257E-09  8.55141E-09  8.50875E-09  8.46455E-09  8.41878E-09
   8.37157E-09  8.32282E-09  8.27256E-09  8.22082E-09  8.16759E-09  8.11290E-09  8.05676E-09  7.99915E-09  7.94007E-09  7.87961E-09
   7.81764E-09  7.75429E-09  7.68949E-09  7.62329E-09  7.55570E-09  7.48668E-09  7.41624E-09  7.34448E-09  7.27131E-09  7.19678E-09
   7.12090E-09  7.04364E-09  6.96508E-09  6.88519E-09  6.80399E-09  6.72144E-09  6.63769E-09  6.55262E-09  6.46632E-09  6.37875E-09
   6.29000E-09  6.20007E-09  6.10899E-09  6.01673E-09  5.92342E-09  5.82906E-09  5.73370E-09  5.63744E-09  5.54038E-09  5.44265E-09
   5.34436E-09  5.24570E-09  5.14681E-09  5.04794E-09  4.94932E-09  4.85132E-09  4.75435E-09  4.65895E-09  4.56592E-09  4.47631E-09
   4.39169E-09  4.31459E-09  4.24914E-09  4.20301E-09  4.19224E-09  4.25745E-09  4.53840E-09  5.68299E-09  6.15821E-09  5.91547E-09
   5.52463E-09  5.30812E-09  5.03638E-09  4.81263E-09  4.70521E-09  5.04223E-09  5.76603E-09  5.87184E-09  3.61490E-09  1.92989E-09
   1.55379E-09  1.37686E-09  1.24690E-09  1.13142E-09  1.02088E-09  9.12038E-10  8.03705E-10  6.95504E-10  5.87207E-10  4.78890E-10
   3.70675E-10  2.62567E-10  1.54725E-10  4.72225E-11 -5.97748E-11 -1.66235E-10 -2.72096E-10 -3.77173E-10 -4.81432E-10 -5.84841E-10
  -6.87288E-10 -7.88705E-10 -8.89007E-10 -9.88154E-10 -1.08611E-09 -1.18274E-09 -1.27804E-09 -1.37195E-09 -1.46442E-09 -1.55533E-09
  -1.64474E-09 -1.73249E-09 -1.81858E-09 -1.90296E-09 -1.98561E-09 -2.06639E-09 -2.14533E-09 -2.22239E-09 -2.29746E-09 -2.37061E-09
  -2.44185E-09 -2.51122E-09 -2.57874E-09 -2.64446E-09 -2.70838E-09 -2.77058E-09 -2.83106E-09 -2.88986E-09 -2.94702E-09 -3.00256E-09
  -3.05655E-09 -3.10900E-09 -3.15995E-09 -3.20944E-09 -3.25751E-09 -3.30418E-09 -3.34952E-09 -3.39353E-09 -3.43627E-09 -3.47776E-09
