 LCModel (Version 6.3-1R) Copyright: S.W. Provencher.          Ref.: Magn. Reson. Med. 30:672-679 (1993).                
 onepulse 18x5_ftSpec_smooth_lcm
 26 lines in following concentration table = NCONC+1
    Conc.  %SD /Cr+PCr  Metabolite                                         
 3.33E-10  99%   1.627 Ala                                                 
 4.00E-09  15%  19.584 Asp                                                 
    0.000 999%   0.000 Cr                                                  
 2.14E-09  28%  10.455 GABA                                                
 1.18E-09  57%   5.780 Glc                                                 
    0.000 999%   0.000 Gln                                                 
    0.000 999%   0.000 Glu                                                 
    0.000 999%   0.000 Glyc                                                
 8.71E-11 794%   0.426 GPC                                                 
    0.000 999%   0.000 GSH                                                 
 8.68E-10  51%   4.246 Ins                                                 
    0.000 999%   0.000 Lac                                                 
    0.000 999%   0.000 NAAG                                                
    0.000 999%   0.000 NAA                                                 
 2.59E-11 999%   0.127 PCh                                                 
 2.04E-10 151%   1.000 PCr                                                 
    0.000 999%   0.000 PE                                                  
 2.23E-10  79%   1.092 Scyllo                                              
    0.000 999%   0.000 Ser                                                 
    0.000 999%   0.000 Tau                                                 
 1.13E-10  81%   0.552 GPC+PCh                                             
    0.000 999%   0.000 NAA+NAAG                                            
 8.68E-10  51%   4.246 Ins+Glyc                                            
 2.04E-10 151%   1.000 Cr+PCr                                              
    0.000 999%   0.000 Glu+Gln                                             
   6 lines in following misc. output table
  FWHM = 0.078 ppm    S/N =   3                                            
  Data shift = 0.358 ppm                                                   
  Ph:-172 deg      29.1 deg/ppm                                            
  alphaB,S = 1.2E+00,   9.9E+00                                            
    9 spline knots.   Ns = 5(1)                                            
  ( 9) 5 infls.   ( 9) 5 extrs.                                            
  363 points on ppm-axis = NY
      4.250000     4.238821     4.227641     4.216462     4.205282     4.194103     4.182923     4.171744     4.160564     4.149385
      4.138206     4.127026     4.115847     4.104667     4.093488     4.082308     4.071129     4.059949     4.048770     4.037591
      4.026411     4.015232     4.004052     3.992873     3.981693     3.970514     3.959334     3.948155     3.936975     3.925796
      3.914617     3.903437     3.892258     3.881078     3.869899     3.858719     3.847540     3.836360     3.825181     3.814002
      3.802822     3.791643     3.780463     3.769284     3.758104     3.746925     3.735745     3.724566     3.713387     3.702207
      3.691028     3.679848     3.668669     3.657489     3.646310     3.635130     3.623951     3.612772     3.601592     3.590413
      3.579233     3.568054     3.556874     3.545695     3.534515     3.523336     3.512156     3.500977     3.489798     3.478618
      3.467439     3.456259     3.445080     3.433900     3.422721     3.411541     3.400362     3.389183     3.378003     3.366824
      3.355644     3.344465     3.333285     3.322106     3.310926     3.299747     3.288568     3.277388     3.266209     3.255029
      3.243850     3.232670     3.221491     3.210311     3.199132     3.187953     3.176773     3.165594     3.154414     3.143235
      3.132055     3.120876     3.109696     3.098517     3.087337     3.076158     3.064979     3.053799     3.042620     3.031440
      3.020261     3.009081     2.997902     2.986722     2.975543     2.964364     2.953184     2.942005     2.930825     2.919646
      2.908466     2.897287     2.886107     2.874928     2.863749     2.852569     2.841390     2.830210     2.819031     2.807851
      2.796672     2.785492     2.774313     2.763134     2.751954     2.740775     2.729595     2.718416     2.707236     2.696057
      2.684877     2.673698     2.662519     2.651339     2.640160     2.628980     2.617801     2.606621     2.595442     2.584262
      2.573083     2.561903     2.550724     2.539545     2.528365     2.517186     2.506006     2.494827     2.483647     2.472468
      2.461288     2.450109     2.438930     2.427750     2.416571     2.405391     2.394212     2.383032     2.371853     2.360673
      2.349494     2.338315     2.327135     2.315956     2.304776     2.293597     2.282417     2.271238     2.260058     2.248879
      2.237700     2.226520     2.215341     2.204161     2.192982     2.181802     2.170623     2.159443     2.148264     2.137084
      2.125905     2.114726     2.103546     2.092367     2.081187     2.070008     2.058828     2.047649     2.036469     2.025290
      2.014111     2.002931     1.991752     1.980572     1.969393     1.958213     1.947034     1.935854     1.924675     1.913496
      1.902316     1.891137     1.879957     1.868778     1.857598     1.846419     1.835239     1.824060     1.812881     1.801701
      1.790522     1.779342     1.768163     1.756983     1.745804     1.734624     1.723445     1.712265     1.701086     1.689907
      1.678727     1.667548     1.656368     1.645189     1.634009     1.622830     1.611650     1.600471     1.589292     1.578112
      1.566933     1.555753     1.544574     1.533394     1.522215     1.511035     1.499856     1.488677     1.477497     1.466318
      1.455138     1.443959     1.432779     1.421600     1.410420     1.399241     1.388062     1.376882     1.365703     1.354523
      1.343344     1.332164     1.320985     1.309805     1.298626     1.287446     1.276267     1.265088     1.253908     1.242729
      1.231549     1.220370     1.209190     1.198011     1.186831     1.175652     1.164473     1.153293     1.142114     1.130934
      1.119755     1.108575     1.097396     1.086216     1.075037     1.063858     1.052678     1.041499     1.030319     1.019140
      1.007960     0.996781     0.985601     0.974422     0.963243     0.952063     0.940884     0.929704     0.918525     0.907345
      0.896166     0.884986     0.873807     0.862628     0.851448     0.840269     0.829089     0.817910     0.806730     0.795551
      0.784371     0.773192     0.762012     0.750833     0.739654     0.728474     0.717295     0.706115     0.694936     0.683756
      0.672577     0.661397     0.650218     0.639039     0.627859     0.616680     0.605500     0.594321     0.583141     0.571962
      0.560782     0.549603     0.538424     0.527244     0.516065     0.504885     0.493706     0.482526     0.471347     0.460167
      0.448988     0.437809     0.426629     0.415450     0.404270     0.393091     0.381911     0.370732     0.359552     0.348373
      0.337193     0.326014     0.314835     0.303655     0.292476     0.281296     0.270117     0.258937     0.247758     0.236578
      0.225399     0.214220     0.203040
 NY phased data points follow
   8.39568E-09  1.23990E-08  9.62468E-09  1.20604E-08  9.22815E-09  1.19408E-08  8.32281E-09  1.05950E-08  8.01758E-09  1.11490E-08
   7.93235E-09  1.04141E-08  8.10913E-09  1.06615E-08  8.93659E-09  1.17318E-08  9.54279E-09  1.17904E-08  9.33404E-09  1.18558E-08
   9.38741E-09  1.09888E-08  8.91665E-09  1.05736E-08  9.38205E-09  1.13665E-08  9.39741E-09  1.09318E-08  9.09150E-09  1.03146E-08
   8.90540E-09  1.12474E-08  1.07155E-08  1.33705E-08  1.13009E-08  1.32548E-08  1.14376E-08  1.22855E-08  1.07922E-08  1.24465E-08
   1.06123E-08  1.21910E-08  1.03909E-08  1.21284E-08  1.03370E-08  1.16913E-08  9.94387E-09  1.08169E-08  9.94142E-09  1.05656E-08
   8.99083E-09  1.03466E-08  9.47421E-09  1.03296E-08  8.93913E-09  9.32263E-09  7.66044E-09  8.84074E-09  7.12057E-09  8.20132E-09
   6.92368E-09  8.14277E-09  8.20720E-09  1.00475E-08  1.03120E-08  1.23275E-08  1.12911E-08  1.23363E-08  1.13052E-08  1.20351E-08
   1.07956E-08  1.12111E-08  9.67880E-09  1.02744E-08  8.06131E-09  8.62271E-09  6.64509E-09  7.08689E-09  6.96561E-09  9.26043E-09
   1.04948E-08  1.24870E-08  1.27173E-08  1.37489E-08  1.37676E-08  1.39433E-08  1.30432E-08  1.38009E-08  1.32070E-08  1.38957E-08
   1.33523E-08  1.41363E-08  1.30795E-08  1.39647E-08  1.24270E-08  1.37047E-08  1.22858E-08  1.27359E-08  1.14109E-08  1.20417E-08
   1.13218E-08  1.18075E-08  1.10451E-08  1.12874E-08  1.02496E-08  1.15504E-08  1.06149E-08  1.13580E-08  1.02789E-08  1.05977E-08
   9.27261E-09  1.01318E-08  8.95554E-09  9.95771E-09  8.91125E-09  9.61730E-09  9.05306E-09  9.90110E-09  8.89105E-09  9.35724E-09
   9.12428E-09  9.63776E-09  9.34296E-09  9.16577E-09  8.34936E-09  8.73507E-09  8.07172E-09  8.27265E-09  7.30209E-09  7.85453E-09
   7.81222E-09  8.56381E-09  7.59981E-09  8.49254E-09  8.66409E-09  9.04659E-09  8.44357E-09  8.32604E-09  8.16486E-09  9.04520E-09
   9.38492E-09  9.91727E-09  9.70492E-09  1.01729E-08  1.02144E-08  1.15255E-08  1.09929E-08  1.16443E-08  1.12314E-08  1.25609E-08
   1.22764E-08  1.23946E-08  1.23559E-08  1.23842E-08  1.18249E-08  1.19277E-08  1.21644E-08  1.29434E-08  1.22559E-08  1.27554E-08
   1.19596E-08  1.30774E-08  1.26042E-08  1.30042E-08  1.23653E-08  1.30096E-08  1.25589E-08  1.17500E-08  1.12474E-08  1.10998E-08
   1.29517E-08  1.63983E-08  1.89414E-08  1.98618E-08  1.99556E-08  2.05159E-08  2.05286E-08  2.01176E-08  1.91160E-08  1.85515E-08
   1.75096E-08  1.60229E-08  1.38238E-08  1.24847E-08  1.01929E-08  7.60520E-09  4.95337E-09  2.33217E-09  1.70157E-10 -3.05509E-09
  -5.29638E-09 -6.90252E-09 -8.88776E-09 -9.34126E-09 -1.05786E-08 -1.13578E-08 -1.15366E-08 -1.06447E-08 -1.02203E-08 -9.08160E-09
  -7.66132E-09 -6.09106E-09 -5.16962E-09 -4.37741E-09 -3.76358E-09 -3.13271E-09 -2.66792E-09 -2.28215E-09 -2.58550E-09 -2.90557E-09
  -2.37907E-09 -2.84238E-09 -2.80249E-09 -2.63083E-09 -2.76213E-09 -2.17680E-09 -2.38088E-09 -1.76781E-09 -2.45016E-09 -2.04050E-09
  -2.77467E-09 -2.76671E-09 -2.08197E-09 -1.76536E-09 -1.50674E-09 -1.87849E-09 -1.58949E-09 -2.26746E-09 -1.71938E-09 -1.73158E-09
  -1.47352E-09 -1.82068E-09 -1.29605E-09 -1.53925E-09 -1.56936E-09 -2.02093E-09 -1.60106E-09 -1.76475E-09 -1.81640E-09 -2.18323E-09
  -2.14047E-09 -2.43012E-09 -1.93732E-09 -1.99544E-09 -2.10489E-09 -2.25448E-09 -2.09026E-09 -1.93834E-09 -2.07122E-09 -2.70873E-09
  -1.84832E-09 -2.44465E-09 -2.21342E-09 -2.55157E-09 -2.01422E-09 -2.59797E-09 -2.61690E-09 -3.24340E-09 -3.26337E-09 -3.34223E-09
  -3.46824E-09 -3.70767E-09 -4.37519E-09 -4.53511E-09 -4.32094E-09 -4.67401E-09 -4.41355E-09 -4.55346E-09 -4.13940E-09 -4.69340E-09
  -3.24105E-09 -3.93599E-09 -4.10207E-09 -3.45957E-09 -3.02385E-09 -3.51574E-09 -2.86721E-09 -2.97480E-09 -2.84479E-09 -2.82755E-09
  -3.00642E-09 -2.93914E-09 -2.14686E-09 -2.44174E-09 -2.78281E-09 -2.93671E-09 -2.26394E-09 -2.70689E-09 -2.12459E-09 -3.19498E-09
  -3.11291E-09 -3.14893E-09 -2.97570E-09 -3.36824E-09 -3.53135E-09 -3.60742E-09 -3.63957E-09 -3.89443E-09 -3.76873E-09 -4.28814E-09
  -3.90486E-09 -4.25534E-09 -4.05556E-09 -4.98055E-09 -3.98064E-09 -5.04814E-09 -4.31044E-09 -4.67367E-09 -4.92550E-09 -5.65514E-09
  -4.94195E-09 -4.96970E-09 -5.07640E-09 -5.68134E-09 -5.62404E-09 -5.67361E-09 -5.42557E-09 -5.74430E-09 -5.58616E-09 -5.96598E-09
  -5.71049E-09 -6.33472E-09 -5.51371E-09 -6.46297E-09 -6.10254E-09 -6.57827E-09 -5.47793E-09 -6.99939E-09 -6.37969E-09 -6.77676E-09
  -6.24596E-09 -6.80033E-09 -6.37935E-09 -6.97187E-09 -6.63573E-09 -7.66676E-09 -6.76253E-09 -7.05126E-09 -6.46600E-09 -7.45345E-09
  -6.69719E-09 -7.52187E-09 -7.06251E-09 -7.79655E-09 -7.23977E-09 -7.78582E-09 -7.12865E-09 -8.34416E-09 -7.08115E-09 -7.96369E-09
  -7.61405E-09 -8.54334E-09 -7.59410E-09 -8.00520E-09 -7.65093E-09 -7.95700E-09 -7.91758E-09 -8.77512E-09 -8.21735E-09 -8.69835E-09
  -7.91131E-09 -8.94913E-09 -7.90754E-09
 NY points of the fit to the data follow
   1.16126E-08  1.01964E-08  9.16165E-09  9.55064E-09  9.56607E-09  8.93485E-09  8.87741E-09  8.63652E-09  8.82856E-09  9.10732E-09
   9.40681E-09  1.00659E-08  1.09536E-08  1.13757E-08  1.09410E-08  1.03384E-08  1.09978E-08  1.13988E-08  9.99705E-09  9.40850E-09
   9.89341E-09  1.05547E-08  1.06509E-08  1.04133E-08  9.61695E-09  9.46045E-09  9.99355E-09  9.97441E-09  9.12592E-09  9.90555E-09
   1.05011E-08  1.11600E-08  1.17308E-08  1.13027E-08  1.02290E-08  1.12006E-08  1.20659E-08  1.22712E-08  1.21064E-08  1.17907E-08
   1.12954E-08  1.13081E-08  1.06785E-08  9.73345E-09  9.85887E-09  1.11803E-08  1.04502E-08  1.00068E-08  1.05670E-08  1.16013E-08
   1.17605E-08  1.20478E-08  1.23790E-08  1.21468E-08  1.09952E-08  1.01795E-08  8.26549E-09  8.83110E-09  9.87726E-09  9.95790E-09
   9.35301E-09  1.00355E-08  1.05058E-08  1.02829E-08  1.12519E-08  1.24447E-08  1.19263E-08  1.15908E-08  1.19772E-08  1.22275E-08
   1.21122E-08  1.16134E-08  1.08671E-08  1.01775E-08  1.05668E-08  9.84695E-09  8.33826E-09  9.04101E-09  9.52203E-09  9.32126E-09
   9.67619E-09  9.85974E-09  1.02245E-08  1.09731E-08  1.11730E-08  1.12719E-08  1.18319E-08  1.21691E-08  1.23050E-08  1.25436E-08
   1.25012E-08  1.23132E-08  1.26488E-08  1.24939E-08  1.14848E-08  1.16161E-08  1.18009E-08  1.09995E-08  1.08435E-08  1.10747E-08
   1.09376E-08  1.07890E-08  1.09632E-08  1.11734E-08  1.12019E-08  1.11899E-08  1.12420E-08  1.13339E-08  1.13326E-08  1.11248E-08
   1.06846E-08  1.04410E-08  1.05570E-08  1.02197E-08  9.84478E-09  9.81490E-09  9.82544E-09  9.83707E-09  9.84338E-09  9.84350E-09
   9.83734E-09  9.82561E-09  9.80874E-09  9.78711E-09  9.76104E-09  9.73091E-09  9.69694E-09  9.65935E-09  9.61841E-09  9.57431E-09
   9.52719E-09  9.47725E-09  9.42462E-09  9.36950E-09  9.31197E-09  9.25222E-09  9.19036E-09  9.12653E-09  9.06091E-09  8.99360E-09
   8.92480E-09  8.85464E-09  8.78332E-09  8.71106E-09  8.63794E-09  8.56423E-09  8.49020E-09  8.41615E-09  8.34234E-09  8.26917E-09
   8.19707E-09  8.12644E-09  8.05794E-09  7.99234E-09  7.93042E-09  7.87334E-09  7.82262E-09  7.78010E-09  7.74837E-09  7.73114E-09
   7.73365E-09  7.76424E-09  7.83649E-09  7.97533E-09  8.23294E-09  8.74637E-09  1.00286E-08  1.30488E-08  1.46966E-08  1.42008E-08
   1.49992E-08  1.73964E-08  1.96553E-08  2.04421E-08  2.05483E-08  2.13348E-08  2.23884E-08  2.04760E-08  1.19791E-08  4.58558E-09
   3.20756E-09  2.83255E-09  2.67564E-09  2.58092E-09  2.50482E-09  2.43284E-09  2.35975E-09  2.28369E-09  2.20418E-09  2.12130E-09
   2.03529E-09  1.94653E-09  1.85534E-09  1.76209E-09  1.66705E-09  1.57049E-09  1.47269E-09  1.37384E-09  1.27413E-09  1.17375E-09
   1.07284E-09  9.71521E-10  8.69934E-10  7.68200E-10  6.66395E-10  5.64622E-10  4.62956E-10  3.61520E-10  2.60325E-10  1.59452E-10
   5.89667E-11 -4.10527E-11 -1.40575E-10 -2.39532E-10 -3.37927E-10 -4.35674E-10 -5.32719E-10 -6.29051E-10 -7.24649E-10 -8.19436E-10
  -9.13385E-10 -1.00647E-09 -1.09868E-09 -1.18998E-09 -1.28035E-09 -1.36970E-09 -1.45809E-09 -1.54546E-09 -1.63176E-09 -1.71700E-09
  -1.80116E-09 -1.88419E-09 -1.96609E-09 -2.04686E-09 -2.12644E-09 -2.20483E-09 -2.28203E-09 -2.35801E-09 -2.43275E-09 -2.50623E-09
  -2.57845E-09 -2.64938E-09 -2.71902E-09 -2.78738E-09 -2.85448E-09 -2.92035E-09 -2.98501E-09 -3.04850E-09 -3.11083E-09 -3.17203E-09
  -3.23213E-09 -3.29117E-09 -3.34915E-09 -3.40612E-09 -3.46210E-09 -3.51712E-09 -3.57120E-09 -3.62437E-09 -3.67666E-09 -3.72810E-09
  -3.77871E-09 -3.82853E-09 -3.87757E-09 -3.92587E-09 -3.97345E-09 -4.02034E-09 -4.06656E-09 -4.11215E-09 -4.15712E-09 -4.20151E-09
  -4.24534E-09 -4.28864E-09 -4.33143E-09 -4.37373E-09 -4.41558E-09 -4.45699E-09 -4.49799E-09 -4.53860E-09 -4.57885E-09 -4.61876E-09
  -4.65835E-09 -4.69765E-09 -4.73668E-09 -4.77545E-09 -4.81398E-09 -4.85232E-09 -4.89045E-09 -4.92841E-09 -4.96623E-09 -5.00391E-09
  -5.04147E-09 -5.07893E-09 -5.11631E-09 -5.15362E-09 -5.19089E-09 -5.22812E-09 -5.26533E-09 -5.30253E-09 -5.33973E-09 -5.37696E-09
  -5.41421E-09 -5.45152E-09 -5.48886E-09 -5.52625E-09 -5.56365E-09 -5.60102E-09 -5.63831E-09 -5.67550E-09 -5.71255E-09 -5.74941E-09
  -5.78606E-09 -5.82245E-09 -5.85854E-09 -5.89431E-09 -5.92971E-09 -5.96471E-09 -5.99927E-09 -6.03336E-09 -6.06694E-09 -6.09998E-09
  -6.13245E-09 -6.16430E-09 -6.19551E-09 -6.22605E-09 -6.25587E-09 -6.28495E-09 -6.31325E-09 -6.34075E-09 -6.36742E-09 -6.39321E-09
  -6.41810E-09 -6.44207E-09 -6.46507E-09 -6.48709E-09 -6.50810E-09 -6.52805E-09 -6.54693E-09 -6.56471E-09 -6.58137E-09 -6.59687E-09
  -6.61120E-09 -6.62431E-09 -6.63620E-09 -6.64683E-09 -6.65619E-09 -6.66425E-09 -6.67098E-09 -6.67636E-09 -6.68038E-09 -6.68301E-09
  -6.68423E-09 -6.68402E-09 -6.68237E-09 -6.67925E-09 -6.67464E-09 -6.66852E-09 -6.66090E-09 -6.65173E-09 -6.64102E-09 -6.62874E-09
  -6.61488E-09 -6.59943E-09 -6.58236E-09
 NY background values follow
     4.123E-09    4.294E-09    4.462E-09    4.629E-09    4.794E-09    4.957E-09    5.118E-09    5.278E-09    5.435E-09    5.590E-09
     5.743E-09    5.895E-09    6.044E-09    6.191E-09    6.336E-09    6.480E-09    6.621E-09    6.760E-09    6.898E-09    7.033E-09
     7.167E-09    7.298E-09    7.427E-09    7.555E-09    7.680E-09    7.803E-09    7.925E-09    8.044E-09    8.161E-09    8.276E-09
     8.390E-09    8.501E-09    8.610E-09    8.717E-09    8.823E-09    8.926E-09    9.027E-09    9.126E-09    9.223E-09    9.319E-09
     9.412E-09    9.503E-09    9.592E-09    9.679E-09    9.764E-09    9.848E-09    9.929E-09    1.001E-08    1.009E-08    1.016E-08
     1.023E-08    1.031E-08    1.037E-08    1.044E-08    1.051E-08    1.057E-08    1.063E-08    1.069E-08    1.075E-08    1.081E-08
     1.086E-08    1.091E-08    1.096E-08    1.101E-08    1.106E-08    1.110E-08    1.114E-08    1.118E-08    1.122E-08    1.126E-08
     1.129E-08    1.133E-08    1.136E-08    1.139E-08    1.141E-08    1.144E-08    1.146E-08    1.148E-08    1.150E-08    1.152E-08
     1.153E-08    1.155E-08    1.156E-08    1.157E-08    1.157E-08    1.158E-08    1.158E-08    1.158E-08    1.158E-08    1.158E-08
     1.157E-08    1.156E-08    1.156E-08    1.154E-08    1.153E-08    1.151E-08    1.150E-08    1.148E-08    1.146E-08    1.143E-08
     1.141E-08    1.138E-08    1.135E-08    1.131E-08    1.128E-08    1.124E-08    1.120E-08    1.116E-08    1.112E-08    1.107E-08
     1.102E-08    1.097E-08    1.092E-08    1.087E-08    1.081E-08    1.075E-08    1.069E-08    1.063E-08    1.056E-08    1.049E-08
     1.042E-08    1.035E-08    1.027E-08    1.020E-08    1.012E-08    1.004E-08    9.951E-09    9.865E-09    9.777E-09    9.687E-09
     9.595E-09    9.500E-09    9.404E-09    9.306E-09    9.206E-09    9.104E-09    9.000E-09    8.895E-09    8.787E-09    8.678E-09
     8.568E-09    8.456E-09    8.342E-09    8.227E-09    8.110E-09    7.991E-09    7.872E-09    7.751E-09    7.628E-09    7.505E-09
     7.380E-09    7.254E-09    7.127E-09    6.999E-09    6.870E-09    6.739E-09    6.608E-09    6.476E-09    6.343E-09    6.210E-09
     6.075E-09    5.940E-09    5.804E-09    5.668E-09    5.531E-09    5.394E-09    5.256E-09    5.118E-09    4.979E-09    4.840E-09
     4.701E-09    4.562E-09    4.422E-09    4.283E-09    4.143E-09    4.004E-09    3.864E-09    3.725E-09    3.586E-09    3.447E-09
     3.309E-09    3.170E-09    3.032E-09    2.895E-09    2.758E-09    2.621E-09    2.485E-09    2.350E-09    2.215E-09    2.080E-09
     1.946E-09    1.813E-09    1.680E-09    1.548E-09    1.417E-09    1.286E-09    1.156E-09    1.027E-09    8.989E-10    7.714E-10
     6.446E-10    5.187E-10    3.937E-10    2.695E-10    1.462E-10    2.386E-11   -9.756E-11   -2.180E-10   -3.374E-10   -4.559E-10
    -5.734E-10   -6.898E-10   -8.051E-10   -9.193E-10   -1.033E-09   -1.145E-09   -1.255E-09   -1.365E-09   -1.474E-09   -1.581E-09
    -1.688E-09   -1.793E-09   -1.896E-09   -1.999E-09   -2.100E-09   -2.200E-09   -2.299E-09   -2.396E-09   -2.492E-09   -2.587E-09
    -2.680E-09   -2.772E-09   -2.863E-09   -2.952E-09   -3.040E-09   -3.127E-09   -3.212E-09   -3.295E-09   -3.378E-09   -3.458E-09
    -3.538E-09   -3.615E-09   -3.692E-09   -3.767E-09   -3.840E-09   -3.912E-09   -3.983E-09   -4.052E-09   -4.120E-09   -4.186E-09
    -4.252E-09   -4.316E-09   -4.379E-09   -4.441E-09   -4.502E-09   -4.561E-09   -4.620E-09   -4.677E-09   -4.734E-09   -4.789E-09
    -4.844E-09   -4.897E-09   -4.950E-09   -5.002E-09   -5.052E-09   -5.103E-09   -5.152E-09   -5.201E-09   -5.248E-09   -5.295E-09
    -5.342E-09   -5.388E-09   -5.433E-09   -5.478E-09   -5.522E-09   -5.565E-09   -5.608E-09   -5.651E-09   -5.693E-09   -5.734E-09
    -5.775E-09   -5.816E-09   -5.856E-09   -5.896E-09   -5.936E-09   -5.975E-09   -6.014E-09   -6.053E-09   -6.092E-09   -6.130E-09
    -6.168E-09   -6.206E-09   -6.244E-09   -6.282E-09   -6.319E-09   -6.356E-09   -6.394E-09   -6.431E-09   -6.468E-09   -6.505E-09
    -6.542E-09   -6.579E-09   -6.615E-09   -6.652E-09   -6.689E-09   -6.726E-09   -6.762E-09   -6.798E-09   -6.834E-09   -6.870E-09
    -6.906E-09   -6.941E-09   -6.976E-09   -7.010E-09   -7.044E-09   -7.078E-09   -7.111E-09   -7.143E-09   -7.175E-09   -7.206E-09
    -7.237E-09   -7.267E-09   -7.296E-09   -7.324E-09   -7.352E-09   -7.379E-09   -7.405E-09   -7.430E-09   -7.454E-09   -7.477E-09
    -7.500E-09   -7.521E-09   -7.541E-09   -7.561E-09   -7.579E-09   -7.596E-09   -7.612E-09   -7.627E-09   -7.640E-09   -7.653E-09
    -7.664E-09   -7.674E-09   -7.682E-09   -7.690E-09   -7.696E-09   -7.700E-09   -7.703E-09   -7.705E-09   -7.706E-09   -7.704E-09
    -7.702E-09   -7.698E-09   -7.692E-09   -7.685E-09   -7.677E-09   -7.667E-09   -7.655E-09   -7.642E-09   -7.627E-09   -7.611E-09
    -7.592E-09   -7.573E-09   -7.551E-09
 Ala      Conc. = 3.33E-10
   4.35640E-09  4.49110E-09  4.65090E-09  4.80009E-09  4.93963E-09  5.09325E-09  5.18771E-09  5.26304E-09  5.48597E-09  5.61941E-09
   5.64923E-09  5.83587E-09  6.01219E-09  6.12571E-09  6.27428E-09  6.42854E-09  6.58076E-09  6.72987E-09  6.87585E-09  7.01883E-09
   7.15895E-09  7.29637E-09  7.43119E-09  7.56351E-09  7.69342E-09  7.82098E-09  7.94619E-09  8.06915E-09  8.18989E-09  8.30840E-09
   8.42475E-09  8.53892E-09  8.65094E-09  8.76087E-09  8.86867E-09  8.97436E-09  9.07799E-09  9.17954E-09  9.27903E-09  9.37647E-09
   9.47184E-09  9.56519E-09  9.65651E-09  9.74583E-09  9.83310E-09  9.91841E-09  1.00017E-08  1.00830E-08  1.01623E-08  1.02397E-08
   1.03151E-08  1.03885E-08  1.04600E-08  1.05296E-08  1.05972E-08  1.06629E-08  1.07267E-08  1.07886E-08  1.08486E-08  1.09068E-08
   1.09631E-08  1.10175E-08  1.10701E-08  1.11208E-08  1.11697E-08  1.12167E-08  1.12619E-08  1.13053E-08  1.13469E-08  1.13866E-08
   1.14246E-08  1.14607E-08  1.14951E-08  1.15276E-08  1.15585E-08  1.15875E-08  1.16149E-08  1.16405E-08  1.16644E-08  1.16867E-08
   1.17074E-08  1.17265E-08  1.17440E-08  1.17602E-08  1.17749E-08  1.17883E-08  1.18005E-08  1.18117E-08  1.18221E-08  1.18318E-08
   1.18412E-08  1.18508E-08  1.18610E-08  1.18727E-08  1.18871E-08  1.19061E-08  1.19330E-08  1.19741E-08  1.20435E-08  1.21780E-08
   1.22265E-08  1.21552E-08  1.23190E-08  1.24876E-08  1.24614E-08  1.23897E-08  1.23808E-08  1.24117E-08  1.23499E-08  1.20826E-08
   1.15838E-08  1.12837E-08  1.13449E-08  1.09544E-08  1.05280E-08  1.04477E-08  1.04087E-08  1.03721E-08  1.03314E-08  1.02857E-08
   1.02348E-08  1.01792E-08  1.01193E-08  1.00554E-08  9.98783E-09  9.91686E-09  9.84268E-09  9.76547E-09  9.68541E-09  9.60262E-09
   9.51722E-09  9.42932E-09  9.33900E-09  9.24638E-09  9.15152E-09  9.05451E-09  8.95540E-09  8.85428E-09  8.75122E-09  8.64627E-09
   8.53951E-09  8.43098E-09  8.32075E-09  8.20893E-09  8.09549E-09  7.98051E-09  7.86408E-09  7.74628E-09  7.62711E-09  7.50670E-09
   7.38511E-09  7.26233E-09  7.13851E-09  7.01376E-09  6.88806E-09  6.76155E-09  6.63440E-09  6.50669E-09  6.37856E-09  6.25031E-09
   6.12211E-09  5.99453E-09  5.86824E-09  5.74465E-09  5.62684E-09  5.52399E-09  5.47692E-09  5.47169E-09  5.31023E-09  5.17767E-09
   5.11834E-09  5.08908E-09  5.00464E-09  4.87130E-09  4.75029E-09  4.66828E-09  4.54256E-09  4.19411E-09  3.64349E-09  3.43913E-09
   3.28856E-09  3.14899E-09  3.01273E-09  2.87776E-09  2.74339E-09  2.60942E-09  2.47582E-09  2.34255E-09  2.20966E-09  2.07719E-09
   1.94515E-09  1.81361E-09  1.68258E-09  1.55213E-09  1.42226E-09  1.29299E-09  1.16439E-09  1.03648E-09  9.09265E-10  7.82804E-10
   6.57113E-10  5.32191E-10  4.08088E-10  2.84839E-10  1.62440E-10  4.09283E-11 -7.96836E-11 -1.99327E-10 -3.18041E-10 -4.35788E-10
  -5.52541E-10 -6.68260E-10 -7.82946E-10 -8.96562E-10 -1.00914E-09 -1.12061E-09 -1.23094E-09 -1.34016E-09 -1.44825E-09 -1.55515E-09
  -1.66086E-09 -1.76537E-09 -1.86866E-09 -1.97074E-09 -2.07158E-09 -2.17112E-09 -2.26941E-09 -2.36641E-09 -2.46207E-09 -2.55643E-09
  -2.64944E-09 -2.74111E-09 -2.83141E-09 -2.92035E-09 -3.00789E-09 -3.09402E-09 -3.17876E-09 -3.26207E-09 -3.34396E-09 -3.42438E-09
  -3.50336E-09 -3.58088E-09 -3.65692E-09 -3.73151E-09 -3.80467E-09 -3.87642E-09 -3.94682E-09 -4.01586E-09 -4.08360E-09 -4.15006E-09
  -4.21527E-09 -4.27926E-09 -4.34205E-09 -4.40369E-09 -4.46419E-09 -4.52359E-09 -4.58192E-09 -4.63921E-09 -4.69548E-09 -4.75077E-09
  -4.80510E-09 -4.85851E-09 -4.91102E-09 -4.96267E-09 -5.01348E-09 -5.06347E-09 -5.11268E-09 -5.16114E-09 -5.20888E-09 -5.25591E-09
  -5.30227E-09 -5.34799E-09 -5.39309E-09 -5.43760E-09 -5.48154E-09 -5.52494E-09 -5.56783E-09 -5.61022E-09 -5.65215E-09 -5.69364E-09
  -5.73471E-09 -5.77540E-09 -5.81570E-09 -5.85566E-09 -5.89529E-09 -5.93461E-09 -5.97365E-09 -6.01242E-09 -6.05095E-09 -6.08926E-09
  -6.12736E-09 -6.16526E-09 -6.20300E-09 -6.24059E-09 -6.27803E-09 -6.31537E-09 -6.35259E-09 -6.38972E-09 -6.42676E-09 -6.46375E-09
  -6.50069E-09 -6.53759E-09 -6.57445E-09 -6.61128E-09 -6.64804E-09 -6.68468E-09 -6.72118E-09 -6.75750E-09 -6.79360E-09 -6.82944E-09
  -6.86498E-09 -6.90020E-09 -6.93504E-09 -6.96949E-09 -7.00349E-09 -7.03703E-09 -7.07005E-09 -7.10254E-09 -7.13444E-09 -7.16574E-09
  -7.19639E-09 -7.22636E-09 -7.25562E-09 -7.28414E-09 -7.31188E-09 -7.33881E-09 -7.36490E-09 -7.39012E-09 -7.41444E-09 -7.43783E-09
  -7.46026E-09 -7.48170E-09 -7.50211E-09 -7.52147E-09 -7.53976E-09 -7.55694E-09 -7.57299E-09 -7.58788E-09 -7.60159E-09 -7.61408E-09
  -7.62534E-09 -7.63534E-09 -7.64405E-09 -7.65145E-09 -7.65752E-09 -7.66223E-09 -7.66557E-09 -7.66750E-09 -7.66802E-09 -7.66709E-09
  -7.66471E-09 -7.66084E-09 -7.65547E-09 -7.64859E-09 -7.64017E-09 -7.63020E-09 -7.61867E-09 -7.60555E-09 -7.59083E-09 -7.57450E-09
  -7.55654E-09 -7.53694E-09 -7.51569E-09
 Asp      Conc. = 4.00E-09
   5.94378E-09  5.03994E-09  4.17004E-09  4.16371E-09  3.92941E-09  3.67993E-09  3.78035E-09  3.28256E-09  3.74599E-09  4.26117E-09
   4.70881E-09  5.09972E-09  5.45146E-09  5.77856E-09  6.08465E-09  6.35998E-09  6.62034E-09  6.86947E-09  7.10954E-09  7.34225E-09
   7.56902E-09  7.79106E-09  8.00946E-09  8.22522E-09  8.43930E-09  8.65266E-09  8.86625E-09  9.08118E-09  9.29869E-09  9.52013E-09
   9.74730E-09  9.98233E-09  1.02282E-08  1.04888E-08  1.07700E-08  1.10806E-08  1.14310E-08  1.17446E-08  1.19514E-08  1.21771E-08
   1.24279E-08  1.28161E-08  1.32498E-08  1.37855E-08  1.39070E-08  1.44772E-08  1.40732E-08  1.36887E-08  1.38715E-08  1.45247E-08
   1.43367E-08  1.43094E-08  1.43517E-08  1.38477E-08  1.24355E-08  1.13660E-08  9.19873E-09  9.50469E-09  1.02767E-08  1.00553E-08
   9.10152E-09  9.35920E-09  9.38130E-09  9.18688E-09  9.71145E-09  1.00957E-08  9.77356E-09  9.57957E-09  9.63321E-09  9.73754E-09
   9.85158E-09  9.96395E-09  1.00710E-08  1.01716E-08  1.02656E-08  1.03532E-08  1.04346E-08  1.05102E-08  1.05802E-08  1.06452E-08
   1.07053E-08  1.07607E-08  1.08118E-08  1.08587E-08  1.09016E-08  1.09407E-08  1.09761E-08  1.10079E-08  1.10362E-08  1.10613E-08
   1.10830E-08  1.11016E-08  1.11172E-08  1.11296E-08  1.11391E-08  1.11457E-08  1.11494E-08  1.11502E-08  1.11483E-08  1.11436E-08
   1.11362E-08  1.11261E-08  1.11133E-08  1.10979E-08  1.10798E-08  1.10592E-08  1.10359E-08  1.10101E-08  1.09817E-08  1.09508E-08
   1.09174E-08  1.08814E-08  1.08429E-08  1.08019E-08  1.07585E-08  1.07125E-08  1.06641E-08  1.06132E-08  1.05599E-08  1.05042E-08
   1.04459E-08  1.03852E-08  1.03221E-08  1.02566E-08  1.01888E-08  1.01187E-08  1.00463E-08  9.97176E-09  9.89507E-09  9.81627E-09
   9.73542E-09  9.65260E-09  9.56781E-09  9.48115E-09  9.39266E-09  9.30241E-09  9.21043E-09  9.11682E-09  9.02165E-09  8.92497E-09
   8.82688E-09  8.72743E-09  8.62672E-09  8.52491E-09  8.42197E-09  8.31806E-09  8.21333E-09  8.10792E-09  8.00191E-09  7.89554E-09
   7.78901E-09  7.68243E-09  7.57617E-09  7.47055E-09  7.36585E-09  7.26259E-09  7.16141E-09  7.06303E-09  6.96846E-09  6.87917E-09
   6.79706E-09  6.72526E-09  6.66851E-09  6.63515E-09  6.64122E-09  6.72348E-09  6.99108E-09  7.91384E-09  9.35132E-09  8.96501E-09
   8.89673E-09  9.69167E-09  1.08543E-08  1.13775E-08  1.13203E-08  1.13965E-08  1.19249E-08  1.19390E-08  9.34427E-09  4.33058E-09
   3.33880E-09  3.02783E-09  2.85819E-09  2.72887E-09  2.61257E-09  2.50028E-09  2.38871E-09  2.27659E-09  2.16354E-09  2.04950E-09
   1.93450E-09  1.81873E-09  1.70230E-09  1.58539E-09  1.46812E-09  1.35061E-09  1.23299E-09  1.11538E-09  9.97839E-10  8.80491E-10
   7.63401E-10  6.46616E-10  5.30226E-10  4.14301E-10  2.98870E-10  1.83996E-10  6.97170E-11 -4.38744E-11 -1.56796E-10 -2.68994E-10
  -3.80426E-10 -4.91036E-10 -6.00811E-10 -7.09701E-10 -8.17723E-10 -9.24809E-10 -1.03092E-09 -1.13605E-09 -1.24020E-09 -1.34329E-09
  -1.44532E-09 -1.54627E-09 -1.64611E-09 -1.74485E-09 -1.84246E-09 -1.93886E-09 -2.03411E-09 -2.12817E-09 -2.22098E-09 -2.31257E-09
  -2.40290E-09 -2.49196E-09 -2.57972E-09 -2.66620E-09 -2.75136E-09 -2.83518E-09 -2.91766E-09 -2.99879E-09 -3.07856E-09 -3.15692E-09
