 LCModel (Version 6.3-1R) Copyright: S.W. Provencher.          Ref.: Magn. Reson. Med. 30:672-679 (1993).                
 onepulse 18x6_ftSpec_smooth_lcm
 26 lines in following concentration table = NCONC+1
    Conc.  %SD /Cr+PCr  Metabolite                                         
 6.18E-10  52%   4.033 Ala                                                 
 5.63E-09  10%  36.739 Asp                                                 
    0.000 999%   0.000 Cr                                                  
 2.92E-09  20%  19.037 GABA                                                
 8.89E-10  84%   5.797 Glc                                                 
    0.000 999%   0.000 Gln                                                 
    0.000 999%   0.000 Glu                                                 
    0.000 999%   0.000 Glyc                                                
    0.000 999%   0.000 GPC                                                 
    0.000 999%   0.000 GSH                                                 
 1.06E-09  41%   6.883 Ins                                                 
    0.000 999%   0.000 Lac                                                 
    0.000 999%   0.000 NAAG                                                
 4.85E-11 483%   0.316 NAA                                                 
 1.25E-10  69%   0.812 PCh                                                 
 1.53E-10 200%   1.000 PCr                                                 
    0.000 999%   0.000 PE                                                  
 2.90E-10  61%   1.889 Scyllo                                              
    0.000 999%   0.000 Ser                                                 
    0.000 999%   0.000 Tau                                                 
 1.25E-10  69%   0.812 GPC+PCh                                             
 4.85E-11 483%   0.316 NAA+NAAG                                            
 1.06E-09  41%   6.883 Ins+Glyc                                            
 1.53E-10 200%   1.000 Cr+PCr                                              
    0.000 999%   0.000 Glu+Gln                                             
   6 lines in following misc. output table
  FWHM = 0.101 ppm    S/N =   3                                            
  Data shift = 0.391 ppm                                                   
  Ph:-136 deg      41.3 deg/ppm                                            
  alphaB,S = 2.8E-01,   4.2E+01                                            
   13 spline knots.   Ns = 5(1)                                            
  ( 9) 3 infls.   ( 9) 3 extrs.                                            
  363 points on ppm-axis = NY
      4.250000     4.238821     4.227641     4.216462     4.205282     4.194103     4.182923     4.171744     4.160564     4.149385
      4.138206     4.127026     4.115847     4.104667     4.093488     4.082308     4.071129     4.059949     4.048770     4.037591
      4.026411     4.015232     4.004052     3.992873     3.981693     3.970514     3.959334     3.948155     3.936975     3.925796
      3.914617     3.903437     3.892258     3.881078     3.869899     3.858719     3.847540     3.836360     3.825181     3.814002
      3.802822     3.791643     3.780463     3.769284     3.758104     3.746925     3.735745     3.724566     3.713387     3.702207
      3.691028     3.679848     3.668669     3.657489     3.646310     3.635130     3.623951     3.612772     3.601592     3.590413
      3.579233     3.568054     3.556874     3.545695     3.534515     3.523336     3.512156     3.500977     3.489798     3.478618
      3.467439     3.456259     3.445080     3.433900     3.422721     3.411541     3.400362     3.389183     3.378003     3.366824
      3.355644     3.344465     3.333285     3.322106     3.310926     3.299747     3.288568     3.277388     3.266209     3.255029
      3.243850     3.232670     3.221491     3.210311     3.199132     3.187953     3.176773     3.165594     3.154414     3.143235
      3.132055     3.120876     3.109696     3.098517     3.087337     3.076158     3.064979     3.053799     3.042620     3.031440
      3.020261     3.009081     2.997902     2.986722     2.975543     2.964364     2.953184     2.942005     2.930825     2.919646
      2.908466     2.897287     2.886107     2.874928     2.863749     2.852569     2.841390     2.830210     2.819031     2.807851
      2.796672     2.785492     2.774313     2.763134     2.751954     2.740775     2.729595     2.718416     2.707236     2.696057
      2.684877     2.673698     2.662519     2.651339     2.640160     2.628980     2.617801     2.606621     2.595442     2.584262
      2.573083     2.561903     2.550724     2.539545     2.528365     2.517186     2.506006     2.494827     2.483647     2.472468
      2.461288     2.450109     2.438930     2.427750     2.416571     2.405391     2.394212     2.383032     2.371853     2.360673
      2.349494     2.338315     2.327135     2.315956     2.304776     2.293597     2.282417     2.271238     2.260058     2.248879
      2.237700     2.226520     2.215341     2.204161     2.192982     2.181802     2.170623     2.159443     2.148264     2.137084
      2.125905     2.114726     2.103546     2.092367     2.081187     2.070008     2.058828     2.047649     2.036469     2.025290
      2.014111     2.002931     1.991752     1.980572     1.969393     1.958213     1.947034     1.935854     1.924675     1.913496
      1.902316     1.891137     1.879957     1.868778     1.857598     1.846419     1.835239     1.824060     1.812881     1.801701
      1.790522     1.779342     1.768163     1.756983     1.745804     1.734624     1.723445     1.712265     1.701086     1.689907
      1.678727     1.667548     1.656368     1.645189     1.634009     1.622830     1.611650     1.600471     1.589292     1.578112
      1.566933     1.555753     1.544574     1.533394     1.522215     1.511035     1.499856     1.488677     1.477497     1.466318
      1.455138     1.443959     1.432779     1.421600     1.410420     1.399241     1.388062     1.376882     1.365703     1.354523
      1.343344     1.332164     1.320985     1.309805     1.298626     1.287446     1.276267     1.265088     1.253908     1.242729
      1.231549     1.220370     1.209190     1.198011     1.186831     1.175652     1.164473     1.153293     1.142114     1.130934
      1.119755     1.108575     1.097396     1.086216     1.075037     1.063858     1.052678     1.041499     1.030319     1.019140
      1.007960     0.996781     0.985601     0.974422     0.963243     0.952063     0.940884     0.929704     0.918525     0.907345
      0.896166     0.884986     0.873807     0.862628     0.851448     0.840269     0.829089     0.817910     0.806730     0.795551
      0.784371     0.773192     0.762012     0.750833     0.739654     0.728474     0.717295     0.706115     0.694936     0.683756
      0.672577     0.661397     0.650218     0.639039     0.627859     0.616680     0.605500     0.594321     0.583141     0.571962
      0.560782     0.549603     0.538424     0.527244     0.516065     0.504885     0.493706     0.482526     0.471347     0.460167
      0.448988     0.437809     0.426629     0.415450     0.404270     0.393091     0.381911     0.370732     0.359552     0.348373
      0.337193     0.326014     0.314835     0.303655     0.292476     0.281296     0.270117     0.258937     0.247758     0.236578
      0.225399     0.214220     0.203040
 NY phased data points follow
   6.15643E-09  4.99752E-09  6.60952E-09  4.48702E-09  5.15311E-09  3.76085E-09  5.52162E-09  3.78234E-09  4.76853E-09  3.92599E-09
   4.87194E-09  4.53485E-09  6.52434E-09  5.80482E-09  6.77968E-09  5.62736E-09  6.95085E-09  6.21754E-09  6.45471E-09  5.62845E-09
   5.94676E-09  5.79466E-09  6.82796E-09  6.24026E-09  6.88163E-09  6.00207E-09  5.88965E-09  5.34983E-09  6.60349E-09  7.23506E-09
   9.56175E-09  8.88128E-09  1.02355E-08  9.56415E-09  9.52327E-09  8.73010E-09  9.81320E-09  8.99008E-09  9.60601E-09  8.80665E-09
   9.47287E-09  9.01830E-09  9.43400E-09  8.66818E-09  8.52183E-09  8.53478E-09  8.37035E-09  7.30995E-09  7.97212E-09  7.95115E-09
   8.08025E-09  7.44295E-09  7.08653E-09  5.83934E-09  6.17591E-09  4.99603E-09  5.13521E-09  4.33097E-09  4.43181E-09  5.05874E-09
   6.66077E-09  7.52017E-09  9.76274E-09  9.74222E-09  1.02813E-08  1.01194E-08  1.00074E-08  9.84926E-09  9.84298E-09  8.49046E-09
   8.53263E-09  6.79617E-09  6.62837E-09  4.75149E-09  4.00898E-09  3.68591E-09  5.29320E-09  7.87225E-09  9.92999E-09  1.09844E-08
   1.17902E-08  1.26771E-08  1.27739E-08  1.24282E-08  1.28568E-08  1.26805E-08  1.30936E-08  1.30801E-08  1.35634E-08  1.32833E-08
   1.36945E-08  1.28428E-08  1.34981E-08  1.27682E-08  1.26158E-08  1.18827E-08  1.19030E-08  1.15885E-08  1.16554E-08  1.15216E-08
   1.13477E-08  1.05739E-08  1.15894E-08  1.11566E-08  1.14146E-08  1.07814E-08  1.08686E-08  9.61422E-09  9.90034E-09  8.97897E-09
   9.68970E-09  9.05913E-09  9.27960E-09  9.15399E-09  9.73272E-09  9.31022E-09  9.27515E-09  9.35915E-09  9.48992E-09  9.82874E-09
   9.26211E-09  8.82895E-09  8.65647E-09  8.27762E-09  7.96494E-09  7.44196E-09  7.37504E-09  7.46482E-09  8.14022E-09  7.43104E-09
   7.95558E-09  8.31693E-09  8.60528E-09  8.19713E-09  7.57347E-09  7.93209E-09  8.00902E-09  8.80350E-09  9.49155E-09  9.64737E-09
   9.75144E-09  9.98776E-09  1.11810E-08  1.08923E-08  1.13760E-08  1.12830E-08  1.23292E-08  1.24904E-08  1.24378E-08  1.26065E-08
   1.25065E-08  1.21856E-08  1.20485E-08  1.21865E-08  1.29972E-08  1.23170E-08  1.26258E-08  1.19510E-08  1.28981E-08  1.26208E-08
   1.26724E-08  1.23364E-08  1.24719E-08  1.24613E-08  1.12660E-08  1.05692E-08  9.65663E-09  1.17100E-08  1.56582E-08  1.93947E-08
   2.10263E-08  2.16693E-08  2.23413E-08  2.30563E-08  2.28009E-08  2.21494E-08  2.16488E-08  2.10068E-08  1.97027E-08  1.76261E-08
   1.62427E-08  1.44688E-08  1.17912E-08  9.05457E-09  6.24348E-09  3.94793E-09  1.41100E-10 -2.34389E-09 -4.64182E-09 -7.03130E-09
  -8.17727E-09 -9.84311E-09 -1.11562E-08 -1.19097E-08 -1.18347E-08 -1.13616E-08 -1.05601E-08 -9.35695E-09 -7.89097E-09 -7.14292E-09
  -6.20238E-09 -5.35877E-09 -4.54135E-09 -3.88504E-09 -3.27392E-09 -3.42504E-09 -3.38451E-09 -2.64730E-09 -3.21508E-09 -3.37290E-09
  -3.10409E-09 -3.35974E-09 -2.80823E-09 -2.97213E-09 -2.47488E-09 -3.07880E-09 -2.64388E-09 -3.12631E-09 -3.32368E-09 -2.53463E-09
  -2.39393E-09 -2.13262E-09 -2.49528E-09 -2.33853E-09 -2.93927E-09 -2.63370E-09 -2.52107E-09 -2.31886E-09 -2.77297E-09 -1.88771E-09
  -2.36480E-09 -2.45067E-09 -2.67326E-09 -2.30486E-09 -2.28934E-09 -2.45219E-09 -2.75472E-09 -2.74592E-09 -3.06975E-09 -2.77508E-09
  -2.72459E-09 -3.00968E-09 -3.25952E-09 -3.03094E-09 -2.61592E-09 -2.96442E-09 -3.08453E-09 -2.29762E-09 -2.50300E-09 -2.36491E-09
  -2.56166E-09 -2.14528E-09 -2.51309E-09 -2.61178E-09 -2.99605E-09 -3.11490E-09 -3.20262E-09 -3.68983E-09 -3.60498E-09 -4.41741E-09
  -4.59514E-09 -4.65111E-09 -4.85029E-09 -4.77573E-09 -4.75142E-09 -4.38161E-09 -4.81780E-09 -3.50968E-09 -4.11307E-09 -4.38182E-09
  -3.36575E-09 -3.08674E-09 -3.44757E-09 -2.91974E-09 -2.65612E-09 -2.74960E-09 -2.55537E-09 -2.92623E-09 -2.71947E-09 -2.10202E-09
  -2.15604E-09 -2.71243E-09 -2.74666E-09 -2.24829E-09 -2.36629E-09 -2.10445E-09 -3.10429E-09 -3.25874E-09 -3.03252E-09 -3.16533E-09
  -3.10461E-09 -3.66766E-09 -3.43611E-09 -3.80696E-09 -3.75034E-09 -3.90588E-09 -4.02920E-09 -3.96447E-09 -4.19540E-09 -4.31207E-09
  -4.85819E-09 -3.99988E-09 -4.90990E-09 -4.62372E-09 -4.79376E-09 -5.25583E-09 -5.46741E-09 -5.14075E-09 -5.07396E-09 -5.42526E-09
  -5.64185E-09 -5.97663E-09 -5.35378E-09 -5.75173E-09 -5.76915E-09 -5.89930E-09 -5.88349E-09 -5.82882E-09 -6.04736E-09 -5.84516E-09
  -6.51756E-09 -6.20539E-09 -6.43857E-09 -5.79525E-09 -7.00847E-09 -6.64193E-09 -6.50835E-09 -6.48265E-09 -6.74578E-09 -6.68024E-09
  -6.83995E-09 -6.77765E-09 -7.43052E-09 -6.71125E-09 -6.65341E-09 -6.70053E-09 -7.17137E-09 -6.78487E-09 -7.47836E-09 -7.32976E-09
  -7.35642E-09 -7.37646E-09 -7.27992E-09 -7.18821E-09 -8.11044E-09 -7.25826E-09 -7.60078E-09 -7.42318E-09 -7.99222E-09 -7.51970E-09
  -7.65654E-09 -7.68198E-09 -7.64452E-09 -7.81559E-09 -8.23386E-09 -8.16747E-09 -8.08559E-09 -7.80237E-09 -8.18662E-09 -7.54921E-09
  -8.05653E-09 -8.41683E-09 -7.81942E-09
 NY points of the fit to the data follow
   6.39288E-09  5.20174E-09  4.29835E-09  4.01989E-09  4.16778E-09  3.97230E-09  3.69401E-09  3.85071E-09  4.07943E-09  4.75588E-09
   5.15751E-09  5.58841E-09  6.02652E-09  6.21830E-09  6.17440E-09  6.14012E-09  6.32465E-09  6.19915E-09  5.69427E-09  5.65681E-09
   5.97657E-09  6.25236E-09  6.40766E-09  6.69964E-09  6.90528E-09  6.89970E-09  6.58493E-09  6.04455E-09  6.03767E-09  7.29771E-09
   8.20685E-09  8.67248E-09  8.99240E-09  8.94150E-09  8.67214E-09  9.13318E-09  9.56613E-09  9.74227E-09  9.58535E-09  9.09042E-09
   8.44061E-09  7.86890E-09  7.06612E-09  6.71358E-09  7.80207E-09  8.85805E-09  9.39909E-09  9.52991E-09  9.29768E-09  9.26197E-09
   9.83581E-09  1.04960E-08  1.07696E-08  1.03352E-08  9.01501E-09  7.23087E-09  6.09108E-09  5.63282E-09  6.91421E-09  7.61132E-09
   7.48642E-09  7.58465E-09  8.51319E-09  9.04399E-09  9.59957E-09  1.05989E-08  1.08078E-08  1.03150E-08  1.00932E-08  9.92862E-09
   9.54009E-09  8.86547E-09  8.09945E-09  7.60337E-09  7.41075E-09  6.60326E-09  6.18498E-09  7.04038E-09  7.44097E-09  7.57943E-09
   8.19115E-09  8.75870E-09  9.27967E-09  1.00088E-08  1.06066E-08  1.09500E-08  1.13304E-08  1.16486E-08  1.18291E-08  1.19473E-08
   1.18599E-08  1.17941E-08  1.18084E-08  1.13394E-08  1.07514E-08  1.08232E-08  1.06601E-08  1.01839E-08  1.02781E-08  1.05997E-08
   1.07511E-08  1.08649E-08  1.10915E-08  1.13531E-08  1.15241E-08  1.15880E-08  1.15667E-08  1.14418E-08  1.11538E-08  1.07063E-08
   1.02781E-08  1.01500E-08  9.96049E-09  9.48079E-09  9.31026E-09  9.40242E-09  9.51305E-09  9.61421E-09  9.70285E-09  9.77966E-09
   9.84591E-09  9.90277E-09  9.95121E-09  9.99189E-09  1.00254E-08  1.00523E-08  1.00729E-08  1.00875E-08  1.00965E-08  1.01000E-08
   1.00981E-08  1.00912E-08  1.00792E-08  1.00623E-08  1.00407E-08  1.00143E-08  9.98348E-09  9.94803E-09  9.90820E-09  9.86402E-09
   9.81565E-09  9.76316E-09  9.70668E-09  9.64629E-09  9.58225E-09  9.51465E-09  9.44380E-09  9.37014E-09  9.29418E-09  9.21647E-09
   9.13767E-09  9.05854E-09  8.97998E-09  8.90305E-09  8.82909E-09  8.75966E-09  8.69684E-09  8.64322E-09  8.60233E-09  8.57894E-09
   8.57992E-09  8.61535E-09  8.70139E-09  8.86557E-09  9.16127E-09  9.71321E-09  1.09250E-08  1.35513E-08  1.69650E-08  2.04881E-08
   2.26723E-08  2.34916E-08  2.36123E-08  2.37249E-08  2.41075E-08  2.42718E-08  2.29194E-08  1.86399E-08  1.19277E-08  6.02973E-09
   2.06065E-09  1.30405E-09  1.06980E-09  9.44625E-10  8.45193E-10  7.48834E-10  6.48748E-10  5.43207E-10  4.32190E-10  3.16320E-10
   1.96375E-10  7.31671E-11 -5.25673E-11 -1.80155E-10 -3.08974E-10 -4.38495E-10 -5.68226E-10 -6.97740E-10 -8.26639E-10 -9.54571E-10
  -1.08122E-09 -1.20628E-09 -1.32947E-09 -1.45054E-09 -1.56928E-09 -1.68543E-09 -1.79881E-09 -1.90922E-09 -2.01645E-09 -2.12035E-09
  -2.22075E-09 -2.31747E-09 -2.41035E-09 -2.49928E-09 -2.58409E-09 -2.66466E-09 -2.74084E-09 -2.81251E-09 -2.87954E-09 -2.94203E-09
  -3.00011E-09 -3.05390E-09 -3.10358E-09 -3.14927E-09 -3.19113E-09 -3.22931E-09 -3.26397E-09 -3.29526E-09 -3.32333E-09 -3.34836E-09
  -3.37050E-09 -3.38991E-09 -3.40675E-09 -3.42119E-09 -3.43339E-09 -3.44353E-09 -3.45175E-09 -3.45824E-09 -3.46315E-09 -3.46665E-09
  -3.46891E-09 -3.47010E-09 -3.47037E-09 -3.46989E-09 -3.46883E-09 -3.46736E-09 -3.46563E-09 -3.46381E-09 -3.46206E-09 -3.46054E-09
  -3.45940E-09 -3.45881E-09 -3.45892E-09 -3.45989E-09 -3.46187E-09 -3.46492E-09 -3.46909E-09 -3.47439E-09 -3.48083E-09 -3.48845E-09
  -3.49727E-09 -3.50729E-09 -3.51855E-09 -3.53105E-09 -3.54483E-09 -3.55987E-09 -3.57622E-09 -3.59389E-09 -3.61287E-09 -3.63320E-09
  -3.65488E-09 -3.67791E-09 -3.70232E-09 -3.72812E-09 -3.75529E-09 -3.78388E-09 -3.81387E-09 -3.84526E-09 -3.87806E-09 -3.91227E-09
  -3.94792E-09 -3.98497E-09 -4.02344E-09 -4.06332E-09 -4.10463E-09 -4.14734E-09 -4.19146E-09 -4.23698E-09 -4.28389E-09 -4.33219E-09
  -4.38185E-09 -4.43285E-09 -4.48511E-09 -4.53854E-09 -4.59306E-09 -4.64859E-09 -4.70506E-09 -4.76238E-09 -4.82048E-09 -4.87926E-09
  -4.93867E-09 -4.99861E-09 -5.05900E-09 -5.11977E-09 -5.18085E-09 -5.24214E-09 -5.30358E-09 -5.36509E-09 -5.42660E-09 -5.48802E-09
  -5.54928E-09 -5.61032E-09 -5.67104E-09 -5.73138E-09 -5.79126E-09 -5.85063E-09 -5.90939E-09 -5.96749E-09 -6.02485E-09 -6.08140E-09
  -6.13708E-09 -6.19180E-09 -6.24551E-09 -6.29815E-09 -6.34964E-09 -6.39993E-09 -6.44893E-09 -6.49661E-09 -6.54288E-09 -6.58772E-09
  -6.63104E-09 -6.67280E-09 -6.71294E-09 -6.75141E-09 -6.78815E-09 -6.82312E-09 -6.85626E-09 -6.88752E-09 -6.91686E-09 -6.94421E-09
  -6.96955E-09 -6.99281E-09 -7.01396E-09 -7.03295E-09 -7.04974E-09 -7.06428E-09 -7.07654E-09 -7.08647E-09 -7.09403E-09 -7.09920E-09
  -7.10193E-09 -7.10217E-09 -7.09991E-09 -7.09510E-09 -7.08773E-09 -7.07774E-09 -7.06513E-09 -7.04984E-09 -7.03187E-09 -7.01118E-09
  -6.98775E-09 -6.96155E-09 -6.93257E-09
 NY background values follow
    -2.402E-10   -5.012E-11    1.387E-10    3.263E-10    5.127E-10    6.977E-10    8.815E-10    1.064E-09    1.245E-09    1.425E-09
     1.603E-09    1.781E-09    1.956E-09    2.131E-09    2.304E-09    2.476E-09    2.646E-09    2.815E-09    2.983E-09    3.149E-09
     3.314E-09    3.477E-09    3.639E-09    3.800E-09    3.959E-09    4.116E-09    4.273E-09    4.428E-09    4.581E-09    4.733E-09
     4.884E-09    5.033E-09    5.181E-09    5.327E-09    5.472E-09    5.616E-09    5.758E-09    5.899E-09    6.038E-09    6.176E-09
     6.313E-09    6.448E-09    6.582E-09    6.714E-09    6.845E-09    6.974E-09    7.101E-09    7.228E-09    7.352E-09    7.475E-09
     7.597E-09    7.717E-09    7.835E-09    7.951E-09    8.066E-09    8.180E-09    8.291E-09    8.401E-09    8.509E-09    8.615E-09
     8.719E-09    8.822E-09    8.923E-09    9.021E-09    9.118E-09    9.213E-09    9.306E-09    9.396E-09    9.485E-09    9.572E-09
     9.656E-09    9.738E-09    9.818E-09    9.896E-09    9.971E-09    1.004E-08    1.012E-08    1.018E-08    1.025E-08    1.031E-08
     1.038E-08    1.043E-08    1.049E-08    1.055E-08    1.060E-08    1.065E-08    1.070E-08    1.074E-08    1.078E-08    1.082E-08
     1.086E-08    1.090E-08    1.093E-08    1.096E-08    1.099E-08    1.101E-08    1.104E-08    1.106E-08    1.108E-08    1.109E-08
     1.111E-08    1.112E-08    1.113E-08    1.113E-08    1.114E-08    1.114E-08    1.114E-08    1.114E-08    1.113E-08    1.112E-08
     1.111E-08    1.110E-08    1.109E-08    1.107E-08    1.105E-08    1.103E-08    1.100E-08    1.098E-08    1.095E-08    1.091E-08
     1.088E-08    1.084E-08    1.079E-08    1.075E-08    1.070E-08    1.065E-08    1.059E-08    1.053E-08    1.047E-08    1.041E-08
     1.034E-08    1.027E-08    1.019E-08    1.011E-08    1.002E-08    9.935E-09    9.843E-09    9.747E-09    9.646E-09    9.541E-09
     9.432E-09    9.319E-09    9.200E-09    9.078E-09    8.951E-09    8.819E-09    8.682E-09    8.541E-09    8.395E-09    8.245E-09
     8.090E-09    7.932E-09    7.769E-09    7.603E-09    7.433E-09    7.260E-09    7.083E-09    6.903E-09    6.719E-09    6.533E-09
     6.344E-09    6.153E-09    5.959E-09    5.763E-09    5.564E-09    5.364E-09    5.162E-09    4.959E-09    4.753E-09    4.547E-09
     4.340E-09    4.132E-09    3.923E-09    3.713E-09    3.503E-09    3.293E-09    3.083E-09    2.873E-09    2.664E-09    2.455E-09
     2.247E-09    2.040E-09    1.834E-09    1.629E-09    1.426E-09    1.224E-09    1.024E-09    8.254E-10    6.289E-10    4.344E-10
     2.420E-10    5.186E-11   -1.359E-10   -3.211E-10   -5.038E-10   -6.836E-10   -8.607E-10   -1.035E-09   -1.206E-09   -1.373E-09
    -1.538E-09   -1.699E-09   -1.856E-09   -2.010E-09   -2.160E-09   -2.306E-09   -2.448E-09   -2.586E-09   -2.719E-09   -2.849E-09
    -2.973E-09   -3.094E-09   -3.209E-09   -3.320E-09   -3.426E-09   -3.528E-09   -3.624E-09   -3.715E-09   -3.800E-09   -3.881E-09
    -3.956E-09   -4.027E-09   -4.093E-09   -4.155E-09   -4.212E-09   -4.266E-09   -4.315E-09   -4.361E-09   -4.403E-09   -4.441E-09
    -4.476E-09   -4.508E-09   -4.538E-09   -4.564E-09   -4.588E-09   -4.610E-09   -4.629E-09   -4.646E-09   -4.662E-09   -4.675E-09
    -4.687E-09   -4.698E-09   -4.708E-09   -4.716E-09   -4.724E-09   -4.731E-09   -4.738E-09   -4.744E-09   -4.750E-09   -4.756E-09
    -4.762E-09   -4.769E-09   -4.776E-09   -4.784E-09   -4.792E-09   -4.801E-09   -4.812E-09   -4.823E-09   -4.835E-09   -4.848E-09
    -4.862E-09   -4.877E-09   -4.893E-09   -4.911E-09   -4.929E-09   -4.948E-09   -4.969E-09   -4.990E-09   -5.013E-09   -5.037E-09
    -5.062E-09   -5.089E-09   -5.116E-09   -5.145E-09   -5.175E-09   -5.206E-09   -5.239E-09   -5.272E-09   -5.307E-09   -5.343E-09
    -5.381E-09   -5.420E-09   -5.460E-09   -5.501E-09   -5.544E-09   -5.588E-09   -5.633E-09   -5.679E-09   -5.727E-09   -5.776E-09
    -5.826E-09   -5.877E-09   -5.929E-09   -5.983E-09   -6.037E-09   -6.093E-09   -6.149E-09   -6.206E-09   -6.263E-09   -6.321E-09
    -6.380E-09   -6.439E-09   -6.498E-09   -6.558E-09   -6.617E-09   -6.677E-09   -6.737E-09   -6.797E-09   -6.857E-09   -6.916E-09
    -6.975E-09   -7.034E-09   -7.093E-09   -7.151E-09   -7.208E-09   -7.265E-09   -7.321E-09   -7.376E-09   -7.431E-09   -7.485E-09
    -7.537E-09   -7.589E-09   -7.639E-09   -7.688E-09   -7.736E-09   -7.783E-09   -7.829E-09   -7.872E-09   -7.915E-09   -7.956E-09
    -7.995E-09   -8.033E-09   -8.069E-09   -8.103E-09   -8.135E-09   -8.166E-09   -8.194E-09   -8.221E-09   -8.245E-09   -8.268E-09
    -8.288E-09   -8.307E-09   -8.323E-09   -8.337E-09   -8.348E-09   -8.357E-09   -8.364E-09   -8.369E-09   -8.371E-09   -8.370E-09
    -8.367E-09   -8.362E-09   -8.354E-09   -8.343E-09   -8.330E-09   -8.314E-09   -8.295E-09   -8.273E-09   -8.249E-09   -8.222E-09
    -8.192E-09   -8.160E-09   -8.124E-09
 Ala      Conc. = 6.18E-10
   1.18140E-10  2.53861E-10  3.88572E-10  5.24020E-10  6.59391E-10  7.81722E-10  8.65836E-10  1.00262E-09  1.20780E-09  1.30617E-09
   1.41632E-09  1.64685E-09  1.82976E-09  1.98742E-09  2.18159E-09  2.37718E-09  2.56887E-09  2.75642E-09  2.94021E-09  3.12068E-09
   3.29816E-09  3.47294E-09  3.64524E-09  3.81523E-09  3.98306E-09  4.14882E-09  4.31265E-09  4.47457E-09  4.63467E-09  4.79301E-09
   4.94964E-09  5.10456E-09  5.25785E-09  5.40952E-09  5.55961E-09  5.70815E-09  5.85514E-09  6.00062E-09  6.14459E-09  6.28704E-09
   6.42802E-09  6.56748E-09  6.70545E-09  6.84190E-09  6.97685E-09  7.11029E-09  7.24221E-09  7.37260E-09  7.50145E-09  7.62874E-09
   7.75448E-09  7.87865E-09  8.00122E-09  8.12219E-09  8.24153E-09  8.35926E-09  8.47535E-09  8.58975E-09  8.70247E-09  8.81352E-09
   8.92284E-09  9.03041E-09  9.13624E-09  9.24031E-09  9.34260E-09  9.44308E-09  9.54176E-09  9.63860E-09  9.73359E-09  9.82674E-09
   9.91804E-09  1.00074E-08  1.00949E-08  1.01806E-08  1.02644E-08  1.03463E-08  1.04265E-08  1.05049E-08  1.05816E-08  1.06567E-08
   1.07302E-08  1.08023E-08  1.08731E-08  1.09427E-08  1.10113E-08  1.10790E-08  1.11463E-08  1.12133E-08  1.12805E-08  1.13484E-08
   1.14177E-08  1.14893E-08  1.15645E-08  1.16450E-08  1.17335E-08  1.18338E-08  1.19528E-08  1.21026E-08  1.23087E-08  1.26306E-08
   1.29091E-08  1.30310E-08  1.31936E-08  1.33675E-08  1.34430E-08  1.34103E-08  1.32937E-08  1.30757E-08  1.26968E-08  1.21609E-08
   1.16471E-08  1.14370E-08  1.11683E-08  1.06120E-08  1.03672E-08  1.03871E-08  1.04272E-08  1.04599E-08  1.04820E-08  1.04939E-08
   1.04969E-08  1.04918E-08  1.04796E-08  1.04609E-08  1.04361E-08  1.04057E-08  1.03699E-08  1.03290E-08  1.02832E-08  1.02325E-08
   1.01771E-08  1.01171E-08  1.00525E-08  9.98325E-09  9.90949E-09  9.83114E-09  9.74829E-09  9.66080E-09  9.56878E-09  9.47209E-09
   9.37078E-09  9.26478E-09  9.15404E-09  9.03851E-09  8.91826E-09  8.79314E-09  8.66320E-09  8.52857E-09  8.38943E-09  8.24594E-09
   8.09828E-09  7.94664E-09  7.79120E-09  7.63219E-09  7.46985E-09  7.30441E-09  7.13618E-09  6.96548E-09  6.79275E-09  6.61847E-09
   6.44341E-09  6.26850E-09  6.09541E-09  5.92695E-09  5.76911E-09  5.63797E-09  5.59686E-09  5.64916E-09  5.64114E-09  5.53055E-09
   5.34707E-09  5.14039E-09  4.94722E-09  4.78039E-09  4.61114E-09  4.34923E-09  3.88399E-09  3.22195E-09  2.65456E-09  2.39645E-09
   2.18394E-09  1.98136E-09  1.78192E-09  1.58397E-09  1.38709E-09  1.19126E-09  9.96597E-10  8.03262E-10  6.11401E-10  4.21198E-10
   2.32808E-10  4.64061E-11 -1.37867E-10 -3.19868E-10 -4.99438E-10 -6.76447E-10 -8.50753E-10 -1.02223E-09 -1.19073E-09 -1.35613E-09
  -1.51832E-09 -1.67717E-09 -1.83253E-09 -1.98430E-09 -2.13237E-09 -2.27660E-09 -2.41689E-09 -2.55313E-09 -2.68518E-09 -2.81297E-09
  -2.93637E-09 -3.05526E-09 -3.16954E-09 -3.27912E-09 -3.38390E-09 -3.48378E-09 -3.57863E-09 -3.66839E-09 -3.75294E-09 -3.83241E-09
  -3.90696E-09 -3.97673E-09 -4.04190E-09 -4.10265E-09 -4.15912E-09 -4.21149E-09 -4.25994E-09 -4.30463E-09 -4.34572E-09 -4.38341E-09
  -4.41785E-09 -4.44923E-09 -4.47771E-09 -4.50346E-09 -4.52666E-09 -4.54749E-09 -4.56612E-09 -4.58272E-09 -4.59746E-09 -4.61052E-09
  -4.62207E-09 -4.63229E-09 -4.64134E-09 -4.64938E-09 -4.65661E-09 -4.66319E-09 -4.66926E-09 -4.67503E-09 -4.68063E-09 -4.68624E-09
  -4.69202E-09 -4.69814E-09 -4.70475E-09 -4.71202E-09 -4.72008E-09 -4.72903E-09 -4.73889E-09 -4.74970E-09 -4.76146E-09 -4.77421E-09
  -4.78797E-09 -4.80276E-09 -4.81861E-09 -4.83553E-09 -4.85354E-09 -4.87265E-09 -4.89291E-09 -4.91430E-09 -4.93686E-09 -4.96059E-09
  -4.98552E-09 -5.01165E-09 -5.03899E-09 -5.06756E-09 -5.09737E-09 -5.12843E-09 -5.16075E-09 -5.19432E-09 -5.22915E-09 -5.26525E-09
  -5.30265E-09 -5.34131E-09 -5.38125E-09 -5.42246E-09 -5.46497E-09 -5.50873E-09 -5.55378E-09 -5.60010E-09 -5.64766E-09 -5.69650E-09
  -5.74657E-09 -5.79785E-09 -5.85026E-09 -5.90371E-09 -5.95814E-09 -6.01346E-09 -6.06959E-09 -6.12646E-09 -6.18398E-09 -6.24207E-09
  -6.30067E-09 -6.35968E-09 -6.41904E-09 -6.47866E-09 -6.53848E-09 -6.59840E-09 -6.65836E-09 -6.71827E-09 -6.77809E-09 -6.83770E-09
  -6.89705E-09 -6.95607E-09 -7.01468E-09 -7.07279E-09 -7.13035E-09 -7.18730E-09 -7.24354E-09 -7.29901E-09 -7.35365E-09 -7.40738E-09
  -7.46015E-09 -7.51186E-09 -7.56247E-09 -7.61192E-09 -7.66011E-09 -7.70702E-09 -7.75256E-09 -7.79667E-09 -7.83930E-09 -7.88040E-09
  -7.91989E-09 -7.95774E-09 -7.99389E-09 -8.02827E-09 -8.06086E-09 -8.09158E-09 -8.12039E-09 -8.14724E-09 -8.17208E-09 -8.19487E-09
  -8.21555E-09 -8.23409E-09 -8.25044E-09 -8.26455E-09 -8.27638E-09 -8.28589E-09 -8.29305E-09 -8.29780E-09 -8.30012E-09 -8.29997E-09
  -8.29730E-09 -8.29209E-09 -8.28430E-09 -8.27390E-09 -8.26086E-09 -8.24515E-09 -8.22674E-09 -8.20559E-09 -8.18170E-09 -8.15502E-09
  -8.12554E-09 -8.09323E-09 -8.05808E-09
 Asp      Conc. = 5.63E-09
   1.22037E-09  1.25835E-10 -8.53551E-10 -1.33661E-09 -1.39962E-09 -1.57698E-09 -1.74906E-09 -1.65754E-09 -1.54851E-09 -8.05511E-10
  -1.35853E-10  4.33335E-10  9.31990E-10  1.38232E-09  1.79611E-09  2.17586E-09  2.52583E-09  2.85902E-09  3.17930E-09  3.48940E-09
   3.79151E-09  4.08753E-09  4.37909E-09  4.66766E-09  4.95461E-09  5.24128E-09  5.52904E-09  5.81931E-09  6.11365E-09  6.41386E-09
   6.72203E-09  7.04069E-09  7.37310E-09  7.72344E-09  8.09746E-09  8.50328E-09  8.95270E-09  9.45937E-09  9.95561E-09  1.03581E-08
   1.06064E-08  1.07600E-08  1.09927E-08  1.14511E-08  1.22400E-08  1.29319E-08  1.36156E-08  1.34855E-08  1.27241E-08  1.21986E-08
   1.23354E-08  1.26034E-08  1.25185E-08  1.17471E-08  1.00974E-08  7.98397E-09  6.50717E-09  5.70464E-09  6.62435E-09  6.92352E-09
   6.33467E-09  5.86493E-09  6.13006E-09  6.29457E-09  6.56620E-09  7.07181E-09  7.15591E-09  6.88570E-09  6.91019E-09  7.10241E-09
   7.32076E-09  7.53700E-09  7.74401E-09  7.94013E-09  8.12532E-09  8.30013E-09  8.46526E-09  8.62145E-09  8.76934E-09  8.90955E-09
   9.04259E-09  9.16894E-09  9.28901E-09  9.40317E-09  9.51173E-09  9.61497E-09  9.71314E-09  9.80645E-09  9.89515E-09  9.97937E-09
   1.00593E-08  1.01350E-08  1.02067E-08  1.02745E-08  1.03385E-08  1.03988E-08  1.04555E-08  1.05086E-08  1.05583E-08  1.06046E-08
   1.06475E-08  1.06873E-08  1.07238E-08  1.07572E-08  1.07875E-08  1.08148E-08  1.08390E-08  1.08604E-08  1.08789E-08  1.08944E-08
   1.09072E-08  1.09171E-08  1.09241E-08  1.09282E-08  1.09294E-08  1.09276E-08  1.09227E-08  1.09148E-08  1.09039E-08  1.08897E-08
   1.08725E-08  1.08520E-08  1.08283E-08  1.08012E-08  1.07708E-08  1.07370E-08  1.06998E-08  1.06591E-08  1.06149E-08  1.05671E-08
   1.05156E-08  1.04606E-08  1.04018E-08  1.03392E-08  1.02728E-08  1.02026E-08  1.01285E-08  1.00505E-08  9.96856E-09  9.88263E-09
   9.79272E-09  9.69879E-09  9.60082E-09  9.49879E-09  9.39281E-09  9.28279E-09  9.16886E-09  9.05123E-09  8.93019E-09  8.80602E-09
   8.67906E-09  8.54969E-09  8.41833E-09  8.28547E-09  8.15170E-09  8.01770E-09  7.88431E-09  7.75258E-09  7.62385E-09  7.49983E-09
   7.38293E-09  7.27639E-09  7.18512E-09  7.11661E-09  7.08350E-09  7.10904E-09  7.24301E-09  7.61983E-09  8.75779E-09  1.08875E-08
   1.25526E-08  1.32941E-08  1.33464E-08  1.31608E-08  1.30861E-08  1.32595E-08  1.34619E-08  1.29044E-08  1.05444E-08  6.27119E-09
   2.51642E-09  1.75237E-09  1.46300E-09  1.27304E-09  1.10971E-09  9.53396E-10  7.97973E-10  6.41589E-10  4.83833E-10  3.24887E-10
   1.65104E-10  4.91563E-12 -1.55278E-10 -3.15089E-10 -4.74147E-10 -6.32132E-10 -7.88736E-10 -9.43689E-10 -1.09673E-09 -1.24762E-09
  -1.39616E-09 -1.54213E-09 -1.68531E-09 -1.82555E-09 -1.96268E-09 -2.09651E-09 -2.22689E-09 -2.35369E-09 -2.47672E-09 -2.59587E-09
  -2.71101E-09 -2.82197E-09 -2.92864E-09 -3.03092E-09 -3.12866E-09 -3.22178E-09 -3.31011E-09 -3.39359E-09 -3.47208E-09 -3.54570E-09
  -3.61460E-09 -3.67891E-09 -3.73881E-09 -3.79445E-09 -3.84598E-09 -3.89357E-09 -3.93739E-09 -3.97759E-09 -4.01435E-09 -4.04782E-09
  -4.07818E-09 -4.10560E-09 -4.13024E-09 -4.15227E-09 -4.17186E-09 -4.18919E-09 -4.20442E-09 -4.21773E-09 -4.22928E-09 -4.23924E-09
