 LCModel (Version 6.3-1R) Copyright: S.W. Provencher.          Ref.: Magn. Reson. Med. 30:672-679 (1993).                
 onepulse 18x7_ftSpec_smooth_lcm
 26 lines in following concentration table = NCONC+1
    Conc.  %SD /Cr+PCr  Metabolite                                         
    0.000 999%   0.000 Ala                                                 
 7.25E-10  79%   7.566 Asp                                                 
    0.000 999%   0.000 Cr                                                  
 3.35E-10 153%   3.494 GABA                                                
    0.000 999%   0.000 Glc                                                 
 2.20E-09  26%  22.935 Gln                                                 
    0.000 999%   0.000 Glu                                                 
    0.000 999%   0.000 Glyc                                                
    0.000 999%   0.000 GPC                                                 
 1.36E-09  37%  14.181 GSH                                                 
 2.26E-09  19%  23.585 Ins                                                 
    0.000 999%   0.000 Lac                                                 
 4.43E-10  41%   4.627 NAAG                                                
    0.000 999%   0.000 NAA                                                 
    0.000 999%   0.000 PCh                                                 
 9.58E-11 328%   1.000 PCr                                                 
 2.29E-09  30%  23.909 PE                                                  
 4.98E-10  52%   5.202 Scyllo                                              
    0.000 999%   0.000 Ser                                                 
 1.20E-10 714%   1.251 Tau                                                 
    0.000 999%   0.000 GPC+PCh                                             
 4.43E-10  41%   4.627 NAA+NAAG                                            
 2.26E-09  19%  23.585 Ins+Glyc                                            
 9.58E-11 328%   1.000 Cr+PCr                                              
 2.20E-09  26%  22.935 Glu+Gln                                             
   6 lines in following misc. output table
  FWHM = 0.123 ppm    S/N =   4                                            
  Data shift = 0.414 ppm                                                   
  Ph: -22 deg     -53.5 deg/ppm                                            
  alphaB,S = 1.7E-01,   3.5E+01                                            
   12 spline knots.   Ns = 5(1)                                            
  (12) 4 infls.   (11) 3 extrs.                                            
  363 points on ppm-axis = NY
      4.250000     4.238821     4.227641     4.216462     4.205282     4.194103     4.182923     4.171744     4.160564     4.149385
      4.138206     4.127026     4.115847     4.104667     4.093488     4.082308     4.071129     4.059949     4.048770     4.037591
      4.026411     4.015232     4.004052     3.992873     3.981693     3.970514     3.959334     3.948155     3.936975     3.925796
      3.914617     3.903437     3.892258     3.881078     3.869899     3.858719     3.847540     3.836360     3.825181     3.814002
      3.802822     3.791643     3.780463     3.769284     3.758104     3.746925     3.735745     3.724566     3.713387     3.702207
      3.691028     3.679848     3.668669     3.657489     3.646310     3.635130     3.623951     3.612772     3.601592     3.590413
      3.579233     3.568054     3.556874     3.545695     3.534515     3.523336     3.512156     3.500977     3.489798     3.478618
      3.467439     3.456259     3.445080     3.433900     3.422721     3.411541     3.400362     3.389183     3.378003     3.366824
      3.355644     3.344465     3.333285     3.322106     3.310926     3.299747     3.288568     3.277388     3.266209     3.255029
      3.243850     3.232670     3.221491     3.210311     3.199132     3.187953     3.176773     3.165594     3.154414     3.143235
      3.132055     3.120876     3.109696     3.098517     3.087337     3.076158     3.064979     3.053799     3.042620     3.031440
      3.020261     3.009081     2.997902     2.986722     2.975543     2.964364     2.953184     2.942005     2.930825     2.919646
      2.908466     2.897287     2.886107     2.874928     2.863749     2.852569     2.841390     2.830210     2.819031     2.807851
      2.796672     2.785492     2.774313     2.763134     2.751954     2.740775     2.729595     2.718416     2.707236     2.696057
      2.684877     2.673698     2.662519     2.651339     2.640160     2.628980     2.617801     2.606621     2.595442     2.584262
      2.573083     2.561903     2.550724     2.539545     2.528365     2.517186     2.506006     2.494827     2.483647     2.472468
      2.461288     2.450109     2.438930     2.427750     2.416571     2.405391     2.394212     2.383032     2.371853     2.360673
      2.349494     2.338315     2.327135     2.315956     2.304776     2.293597     2.282417     2.271238     2.260058     2.248879
      2.237700     2.226520     2.215341     2.204161     2.192982     2.181802     2.170623     2.159443     2.148264     2.137084
      2.125905     2.114726     2.103546     2.092367     2.081187     2.070008     2.058828     2.047649     2.036469     2.025290
      2.014111     2.002931     1.991752     1.980572     1.969393     1.958213     1.947034     1.935854     1.924675     1.913496
      1.902316     1.891137     1.879957     1.868778     1.857598     1.846419     1.835239     1.824060     1.812881     1.801701
      1.790522     1.779342     1.768163     1.756983     1.745804     1.734624     1.723445     1.712265     1.701086     1.689907
      1.678727     1.667548     1.656368     1.645189     1.634009     1.622830     1.611650     1.600471     1.589292     1.578112
      1.566933     1.555753     1.544574     1.533394     1.522215     1.511035     1.499856     1.488677     1.477497     1.466318
      1.455138     1.443959     1.432779     1.421600     1.410420     1.399241     1.388062     1.376882     1.365703     1.354523
      1.343344     1.332164     1.320985     1.309805     1.298626     1.287446     1.276267     1.265088     1.253908     1.242729
      1.231549     1.220370     1.209190     1.198011     1.186831     1.175652     1.164473     1.153293     1.142114     1.130934
      1.119755     1.108575     1.097396     1.086216     1.075037     1.063858     1.052678     1.041499     1.030319     1.019140
      1.007960     0.996781     0.985601     0.974422     0.963243     0.952063     0.940884     0.929704     0.918525     0.907345
      0.896166     0.884986     0.873807     0.862628     0.851448     0.840269     0.829089     0.817910     0.806730     0.795551
      0.784371     0.773192     0.762012     0.750833     0.739654     0.728474     0.717295     0.706115     0.694936     0.683756
      0.672577     0.661397     0.650218     0.639039     0.627859     0.616680     0.605500     0.594321     0.583141     0.571962
      0.560782     0.549603     0.538424     0.527244     0.516065     0.504885     0.493706     0.482526     0.471347     0.460167
      0.448988     0.437809     0.426629     0.415450     0.404270     0.393091     0.381911     0.370732     0.359552     0.348373
      0.337193     0.326014     0.314835     0.303655     0.292476     0.281296     0.270117     0.258937     0.247758     0.236578
      0.225399     0.214220     0.203040
 NY phased data points follow
   1.22449E-08  1.09141E-08  1.23172E-08  1.19250E-08  1.29770E-08  1.19527E-08  1.38963E-08  1.27470E-08  1.42607E-08  1.37844E-08
   1.45529E-08  1.25926E-08  1.34836E-08  1.23561E-08  1.36647E-08  1.18688E-08  1.30932E-08  1.20076E-08  1.33194E-08  1.28547E-08
   1.38136E-08  1.27744E-08  1.33884E-08  1.21523E-08  1.36049E-08  1.41200E-08  1.55664E-08  1.56574E-08  1.54268E-08  1.38855E-08
   1.41188E-08  1.19432E-08  1.23471E-08  1.17911E-08  1.26142E-08  1.10778E-08  1.18973E-08  1.06868E-08  1.15842E-08  1.03696E-08
   1.09237E-08  9.47043E-09  1.05045E-08  9.58771E-09  9.58102E-09  9.29486E-09  1.06227E-08  9.51139E-09  9.69119E-09  8.76690E-09
   8.86730E-09  8.49145E-09  9.47019E-09  9.04722E-09  1.04259E-08  1.02233E-08  1.23051E-08  1.35288E-08  1.51647E-08  1.51817E-08
   1.60544E-08  1.38205E-08  1.39972E-08  1.22791E-08  1.20930E-08  1.16203E-08  1.07893E-08  9.60158E-09  9.69289E-09  8.67907E-09
   9.47840E-09  8.27063E-09  1.04363E-08  1.14770E-08  1.57704E-08  1.73937E-08  1.81684E-08  1.71171E-08  1.74594E-08  1.65260E-08
   1.60946E-08  1.52155E-08  1.53518E-08  1.45341E-08  1.48722E-08  1.41800E-08  1.43477E-08  1.36360E-08  1.34302E-08  1.26261E-08
   1.26464E-08  1.13697E-08  1.14461E-08  1.08411E-08  1.09917E-08  1.04139E-08  1.07000E-08  1.05127E-08  1.01661E-08  9.95278E-09
   1.07797E-08  9.86738E-09  9.80373E-09  9.21901E-09  9.16314E-09  7.89589E-09  8.32517E-09  7.77884E-09  8.96022E-09  8.10456E-09
   8.75597E-09  8.63346E-09  9.36918E-09  8.56470E-09  8.95694E-09  8.65572E-09  9.17349E-09  8.92747E-09  8.32901E-09  7.87420E-09
   7.75748E-09  7.32525E-09  7.09835E-09  7.07829E-09  7.12191E-09  7.32646E-09  8.08091E-09  7.47819E-09  8.24980E-09  8.10262E-09
   8.59552E-09  7.86858E-09  7.70915E-09  8.28716E-09  8.19751E-09  9.36870E-09  1.00699E-08  1.02434E-08  1.01175E-08  1.04651E-08
   1.13058E-08  1.09367E-08  1.12545E-08  1.13417E-08  1.20468E-08  1.18750E-08  1.18105E-08  1.17973E-08  1.14885E-08  1.11765E-08
   1.11212E-08  1.11948E-08  1.16617E-08  1.07317E-08  1.10763E-08  1.04494E-08  1.12341E-08  1.09334E-08  1.08440E-08  1.04588E-08
   1.03785E-08  1.02003E-08  9.33324E-09  8.47111E-09  7.55142E-09  1.01702E-08  1.45772E-08  1.86398E-08  2.03979E-08  2.10418E-08
   2.14727E-08  2.25631E-08  2.22021E-08  2.18623E-08  2.13312E-08  2.11515E-08  2.02358E-08  1.88183E-08  1.76747E-08  1.68096E-08
   1.47344E-08  1.26683E-08  1.04303E-08  8.70979E-09  5.12191E-09  3.01250E-09  6.79348E-10 -1.56107E-09 -3.13491E-09 -5.03326E-09
  -6.75124E-09 -8.03375E-09 -9.11485E-09 -9.10293E-09 -9.04936E-09 -8.49132E-09 -7.61648E-09 -7.29273E-09 -6.64807E-09 -5.64556E-09
  -4.90705E-09 -4.04654E-09 -3.36625E-09 -2.97941E-09 -2.83017E-09 -1.55658E-09 -1.92104E-09 -2.20253E-09 -1.86730E-09 -1.95697E-09
  -1.86433E-09 -1.60535E-09 -1.55080E-09 -1.58408E-09 -1.71840E-09 -1.33800E-09 -2.12082E-09 -1.02948E-09 -1.28278E-09 -6.90934E-10
  -9.64377E-10 -7.30434E-10 -1.38576E-09 -1.21585E-09 -1.25752E-09 -6.89640E-10 -1.59730E-09 -3.35236E-10 -6.74704E-10 -9.06407E-10
  -1.03609E-09 -7.06136E-10 -6.14288E-10 -3.27691E-10 -7.35947E-10 -5.32674E-10 -1.02078E-09 -9.83154E-10 -6.89923E-10 -8.93296E-10
  -1.59156E-09 -1.52933E-09 -1.12236E-09 -1.20260E-09 -1.52086E-09 -6.58693E-10 -6.43669E-10 -2.13226E-10 -5.81846E-10  2.78247E-11
   4.31956E-11  2.19055E-10  1.76914E-10  2.49678E-10  4.24685E-10 -1.02739E-11 -1.04109E-10 -1.39179E-10 -1.03431E-09 -9.59937E-10
  -1.58163E-09 -1.41754E-09 -2.26903E-09 -1.51367E-09 -2.47490E-09 -1.77197E-09 -1.74983E-09 -2.39362E-09 -2.23981E-09 -1.14876E-09
  -1.60796E-09 -1.41736E-09 -9.88393E-10 -6.37234E-10 -5.51323E-10 -3.24337E-10 -7.25544E-10 -4.81432E-11  1.41603E-10  6.36634E-10
  -2.36301E-10  4.71007E-10  5.28588E-10  1.39958E-09  1.16693E-09  6.92334E-10  8.25524E-10  8.03121E-10  1.01933E-09  1.11156E-09
   8.18448E-10  1.26178E-09  8.08101E-10  1.21471E-09  9.11436E-10  1.41744E-09  1.02492E-09  1.58042E-09  6.99778E-10  1.38710E-09
   1.45482E-09  1.21197E-09  1.33925E-09  1.24599E-09  9.31465E-10  1.01634E-09  1.09640E-09  1.28178E-09  1.07696E-09  8.27676E-10
   5.40972E-10  1.56874E-09  6.86193E-10  1.17144E-09  4.92287E-10  1.20752E-09  6.44727E-10  1.55007E-09  7.78567E-10  1.07806E-09
   5.79379E-10  1.34602E-09  1.21862E-09  6.37437E-10  6.18657E-10  1.24790E-09  7.55773E-10  1.08382E-09  6.44445E-10  1.26644E-09
   6.33887E-10  5.56907E-10  8.32991E-10  1.39340E-09  8.95072E-10  1.42468E-09  1.31743E-09  9.29639E-10  7.93797E-10  1.20653E-09
   5.89806E-10  1.72451E-09  1.11443E-09  8.54108E-10  6.53418E-10  1.06891E-09  1.03922E-09  1.08340E-09  1.01853E-09  1.16006E-09
   9.52933E-10  1.29634E-09  1.18449E-09  1.17341E-09  6.78110E-10  9.42319E-10  5.83803E-10  7.51707E-10  1.05806E-09  1.04737E-09
   9.07823E-11  8.33477E-10  7.24766E-10
 NY points of the fit to the data follow
   1.18688E-08  1.22113E-08  1.22542E-08  1.20908E-08  1.19253E-08  1.27047E-08  1.33902E-08  1.35460E-08  1.39999E-08  1.40466E-08
   1.36057E-08  1.35425E-08  1.31300E-08  1.31360E-08  1.31654E-08  1.26747E-08  1.20543E-08  1.26852E-08  1.37584E-08  1.31162E-08
   1.19940E-08  1.18530E-08  1.26250E-08  1.32715E-08  1.39745E-08  1.49583E-08  1.60137E-08  1.61606E-08  1.50158E-08  1.35812E-08
   1.32749E-08  1.29744E-08  1.23509E-08  1.16774E-08  1.16530E-08  1.12922E-08  1.10126E-08  1.08465E-08  1.09016E-08  1.08645E-08
   1.07847E-08  1.07113E-08  1.05411E-08  1.02550E-08  9.88785E-09  9.41413E-09  9.13219E-09  8.50537E-09  8.23394E-09  8.34574E-09
   8.73284E-09  9.24733E-09  9.61016E-09  1.00920E-08  1.10078E-08  1.16964E-08  1.21315E-08  1.30386E-08  1.38283E-08  1.39629E-08
   1.39547E-08  1.38976E-08  1.38427E-08  1.35882E-08  1.28436E-08  1.21368E-08  1.18656E-08  1.13778E-08  1.06163E-08  1.05045E-08
   1.09119E-08  1.13231E-08  1.19116E-08  1.25773E-08  1.34477E-08  1.44742E-08  1.56966E-08  1.67014E-08  1.72365E-08  1.73983E-08
   1.72024E-08  1.66882E-08  1.61350E-08  1.56759E-08  1.51392E-08  1.41617E-08  1.29403E-08  1.17787E-08  1.11348E-08  1.07593E-08
   1.04839E-08  1.02958E-08  1.01707E-08  1.00221E-08  9.86357E-09  9.78565E-09  9.69257E-09  9.57765E-09  9.50866E-09  9.43987E-09
   9.38366E-09  9.35139E-09  9.32397E-09  9.30067E-09  9.28638E-09  9.27896E-09  9.27652E-09  9.27810E-09  9.28264E-09  9.28990E-09
   9.29952E-09  9.31116E-09  9.32463E-09  9.33974E-09  9.35638E-09  9.37446E-09  9.39390E-09  9.41460E-09  9.43651E-09  9.45960E-09
   9.48384E-09  9.50923E-09  9.53563E-09  9.56270E-09  9.59009E-09  9.61749E-09  9.64454E-09  9.67092E-09  9.69631E-09  9.72038E-09
   9.74282E-09  9.76329E-09  9.78149E-09  9.79710E-09  9.80981E-09  9.81930E-09  9.82529E-09  9.82742E-09  9.82541E-09  9.81896E-09
   9.80775E-09  9.79149E-09  9.76987E-09  9.74259E-09  9.70934E-09  9.66985E-09  9.62382E-09  9.57095E-09  9.51100E-09  9.44368E-09
   9.36873E-09  9.28594E-09  9.19512E-09  9.09609E-09  8.98879E-09  8.87320E-09  8.74951E-09  8.61810E-09  8.47976E-09  8.33599E-09
   8.18955E-09  8.04547E-09  7.91416E-09  7.81843E-09  7.81462E-09  8.08017E-09  9.46051E-09  1.50597E-08  2.02800E-08  2.27433E-08
   2.32767E-08  2.30590E-08  2.25797E-08  2.22499E-08  2.23844E-08  2.26184E-08  2.14292E-08  1.69153E-08  9.81521E-09  6.60298E-09
   5.32038E-09  4.54354E-09  3.96518E-09  3.48601E-09  3.06454E-09  2.68049E-09  2.32288E-09  1.98537E-09  1.66413E-09  1.35681E-09
   1.06195E-09  7.78677E-10  5.06527E-10  2.45243E-10 -5.16021E-12 -2.44559E-10 -4.72794E-10 -6.89506E-10 -8.94384E-10 -1.08706E-09
  -1.26703E-09 -1.43390E-09 -1.58726E-09 -1.72740E-09 -1.85475E-09 -1.96977E-09 -2.07290E-09 -2.16457E-09 -2.24520E-09 -2.31521E-09
  -2.37500E-09 -2.42498E-09 -2.46557E-09 -2.49716E-09 -2.52013E-09 -2.53491E-09 -2.54186E-09 -2.54139E-09 -2.53389E-09 -2.51973E-09
  -2.49932E-09 -2.47304E-09 -2.44128E-09 -2.40441E-09 -2.36281E-09 -2.31689E-09 -2.26700E-09 -2.21356E-09 -2.15691E-09 -2.09744E-09
  -2.03556E-09 -1.97163E-09 -1.90604E-09 -1.83913E-09 -1.77134E-09 -1.70299E-09 -1.63451E-09 -1.56623E-09 -1.49857E-09 -1.43189E-09
  -1.36657E-09 -1.30297E-09 -1.24148E-09 -1.18218E-09 -1.12501E-09 -1.06990E-09 -1.01679E-09 -9.65590E-10 -9.16253E-10 -8.68699E-10
  -8.22864E-10 -7.78688E-10 -7.36074E-10 -6.94981E-10 -6.55324E-10 -6.17060E-10 -5.80085E-10 -5.44343E-10 -5.09775E-10 -4.76292E-10
  -4.43856E-10 -4.12366E-10 -3.81759E-10 -3.51989E-10 -3.22957E-10 -2.94608E-10 -2.66864E-10 -2.39675E-10 -2.12954E-10 -1.86633E-10
  -1.60648E-10 -1.34918E-10 -1.09386E-10 -8.39867E-11 -5.86395E-11 -3.32623E-11 -7.81275E-12  1.78005E-11  4.36384E-11  6.97741E-11
   9.62597E-11  1.23198E-10  1.50628E-10  1.78578E-10  2.06997E-10  2.35837E-10  2.65045E-10  2.94570E-10  3.24363E-10  3.54371E-10
   3.84544E-10  4.14833E-10  4.45184E-10  4.75551E-10  5.05876E-10  5.36115E-10  5.66212E-10  5.96122E-10  6.25790E-10  6.55170E-10
   6.84203E-10  7.12847E-10  7.41047E-10  7.68752E-10  7.95911E-10  8.22477E-10  8.48395E-10  8.73619E-10  8.98091E-10  9.21766E-10
   9.44591E-10  9.66520E-10  9.87495E-10  1.00747E-09  1.02640E-09  1.04421E-09  1.06088E-09  1.07634E-09  1.09055E-09  1.10345E-09
   1.11500E-09  1.12514E-09  1.13382E-09  1.14103E-09  1.14680E-09  1.15120E-09  1.15426E-09  1.15604E-09  1.15660E-09  1.15598E-09
   1.15424E-09  1.15143E-09  1.14760E-09  1.14280E-09  1.13709E-09  1.13051E-09  1.12312E-09  1.11498E-09  1.10612E-09  1.09661E-09
   1.08649E-09  1.07583E-09  1.06465E-09  1.05304E-09  1.04102E-09  1.02866E-09  1.01601E-09  1.00311E-09  9.90030E-10  9.76806E-10
   9.63500E-10  9.50158E-10  9.36836E-10  9.23580E-10  9.10450E-10  8.97492E-10  8.84762E-10  8.72307E-10  8.60181E-10  8.48439E-10
   8.37129E-10  8.26304E-10  8.16018E-10
 NY background values follow
    -1.388E-09   -1.281E-09   -1.175E-09   -1.068E-09   -9.622E-10   -8.563E-10   -7.506E-10   -6.450E-10   -5.397E-10   -4.345E-10
    -3.295E-10   -2.247E-10   -1.200E-10   -1.553E-11    8.878E-11    1.929E-10    2.969E-10    4.007E-10    5.043E-10    6.078E-10
     7.111E-10    8.142E-10    9.172E-10    1.020E-09    1.123E-09    1.225E-09    1.328E-09    1.430E-09    1.532E-09    1.634E-09
     1.736E-09    1.837E-09    1.939E-09    2.040E-09    2.141E-09    2.242E-09    2.343E-09    2.444E-09    2.545E-09    2.645E-09
     2.746E-09    2.846E-09    2.946E-09    3.046E-09    3.145E-09    3.245E-09    3.344E-09    3.443E-09    3.541E-09    3.639E-09
     3.736E-09    3.833E-09    3.929E-09    4.025E-09    4.120E-09    4.215E-09    4.309E-09    4.402E-09    4.494E-09    4.586E-09
     4.677E-09    4.766E-09    4.855E-09    4.943E-09    5.030E-09    5.116E-09    5.201E-09    5.285E-09    5.367E-09    5.449E-09
     5.529E-09    5.608E-09    5.685E-09    5.762E-09    5.837E-09    5.910E-09    5.982E-09    6.053E-09    6.122E-09    6.189E-09
     6.255E-09    6.319E-09    6.382E-09    6.443E-09    6.502E-09    6.560E-09    6.617E-09    6.672E-09    6.726E-09    6.778E-09
     6.830E-09    6.880E-09    6.929E-09    6.978E-09    7.025E-09    7.071E-09    7.116E-09    7.161E-09    7.205E-09    7.248E-09
     7.290E-09    7.332E-09    7.373E-09    7.413E-09    7.454E-09    7.493E-09    7.533E-09    7.572E-09    7.611E-09    7.650E-09
     7.688E-09    7.727E-09    7.765E-09    7.804E-09    7.842E-09    7.881E-09    7.920E-09    7.959E-09    7.998E-09    8.038E-09
     8.078E-09    8.119E-09    8.160E-09    8.201E-09    8.242E-09    8.282E-09    8.322E-09    8.361E-09    8.398E-09    8.433E-09
     8.467E-09    8.498E-09    8.527E-09    8.553E-09    8.576E-09    8.596E-09    8.611E-09    8.623E-09    8.631E-09    8.634E-09
     8.632E-09    8.624E-09    8.612E-09    8.594E-09    8.569E-09    8.538E-09    8.501E-09    8.457E-09    8.405E-09    8.346E-09
     8.279E-09    8.205E-09    8.121E-09    8.029E-09    7.928E-09    7.818E-09    7.698E-09    7.569E-09    7.429E-09    7.279E-09
     7.118E-09    6.946E-09    6.762E-09    6.569E-09    6.365E-09    6.152E-09    5.930E-09    5.699E-09    5.461E-09    5.216E-09
     4.965E-09    4.708E-09    4.445E-09    4.178E-09    3.907E-09    3.632E-09    3.355E-09    3.075E-09    2.794E-09    2.511E-09
     2.228E-09    1.946E-09    1.663E-09    1.383E-09    1.104E-09    8.277E-10    5.546E-10    2.852E-10    2.015E-11   -2.400E-10
    -4.946E-10   -7.431E-10   -9.848E-10   -1.219E-09   -1.446E-09   -1.664E-09   -1.873E-09   -2.072E-09   -2.261E-09   -2.438E-09
    -2.605E-09   -2.759E-09   -2.901E-09   -3.030E-09   -3.147E-09   -3.253E-09   -3.347E-09   -3.430E-09   -3.502E-09   -3.565E-09
    -3.617E-09   -3.660E-09   -3.694E-09   -3.720E-09   -3.737E-09   -3.746E-09   -3.747E-09   -3.741E-09   -3.729E-09   -3.710E-09
    -3.684E-09   -3.654E-09   -3.617E-09   -3.576E-09   -3.530E-09   -3.480E-09   -3.427E-09   -3.369E-09   -3.309E-09   -3.246E-09
    -3.181E-09   -3.113E-09   -3.044E-09   -2.974E-09   -2.903E-09   -2.832E-09   -2.760E-09   -2.689E-09   -2.619E-09   -2.549E-09
    -2.481E-09   -2.415E-09   -2.351E-09   -2.289E-09   -2.229E-09   -2.172E-09   -2.116E-09   -2.062E-09   -2.011E-09   -1.961E-09
    -1.913E-09   -1.866E-09   -1.822E-09   -1.778E-09   -1.737E-09   -1.696E-09   -1.657E-09   -1.620E-09   -1.583E-09   -1.548E-09
    -1.513E-09   -1.480E-09   -1.447E-09   -1.416E-09   -1.385E-09   -1.355E-09   -1.325E-09   -1.296E-09   -1.268E-09   -1.240E-09
    -1.212E-09   -1.185E-09   -1.158E-09   -1.130E-09   -1.104E-09   -1.077E-09   -1.050E-09   -1.022E-09   -9.950E-10   -9.674E-10
    -9.394E-10   -9.109E-10   -8.820E-10   -8.526E-10   -8.228E-10   -7.925E-10   -7.619E-10   -7.310E-10   -6.998E-10   -6.684E-10
    -6.369E-10   -6.053E-10   -5.736E-10   -5.419E-10   -5.102E-10   -4.787E-10   -4.473E-10   -4.161E-10   -3.852E-10   -3.546E-10
    -3.243E-10   -2.944E-10   -2.650E-10   -2.360E-10   -2.077E-10   -1.799E-10   -1.528E-10   -1.264E-10   -1.007E-10   -7.589E-11
    -5.191E-11   -2.883E-11   -6.709E-12    1.440E-11    3.446E-11    5.340E-11    7.118E-11    8.775E-11    1.031E-10    1.171E-10
     1.297E-10    1.409E-10    1.507E-10    1.590E-10    1.658E-10    1.713E-10    1.754E-10    1.782E-10    1.798E-10    1.802E-10
     1.795E-10    1.777E-10    1.749E-10    1.712E-10    1.665E-10    1.609E-10    1.545E-10    1.474E-10    1.395E-10    1.310E-10
     1.219E-10    1.122E-10    1.020E-10    9.136E-11    8.033E-11    6.894E-11    5.726E-11    4.533E-11    3.321E-11    2.095E-11
     8.603E-12   -3.781E-12   -1.615E-11   -2.845E-11   -4.063E-11   -5.265E-11   -6.443E-11   -7.594E-11   -8.713E-11   -9.793E-11
    -1.083E-10   -1.182E-10   -1.275E-10
 Asp      Conc. = 7.25E-10
  -5.93244E-10 -5.94470E-10 -5.65785E-10 -5.49730E-10 -5.03170E-10 -4.91595E-10 -4.81999E-10 -4.62824E-10 -4.00687E-10 -3.21563E-10
  -2.34198E-10 -1.42018E-10 -4.63309E-11  5.21173E-11  1.51473E-10  2.51377E-10  3.51834E-10  4.52731E-10  5.53985E-10  6.55525E-10
   7.57294E-10  8.59282E-10  9.61457E-10  1.06382E-09  1.16640E-09  1.26923E-09  1.37235E-09  1.47586E-09  1.57987E-09  1.68457E-09
   1.79026E-09  1.89735E-09  2.00658E-09  2.11930E-09  2.23831E-09  2.37076E-09  2.53588E-09  2.68939E-09  2.85061E-09  2.97422E-09
   3.06921E-09  3.16539E-09  3.31219E-09  3.53725E-09  3.82322E-09  4.15617E-09  4.34063E-09  4.39306E-09  4.53424E-09  4.69387E-09
   4.87301E-09  5.05550E-09  5.19060E-09  5.19999E-09  5.09877E-09  4.99696E-09  4.95671E-09  5.06768E-09  5.12643E-09  5.08390E-09
   5.10267E-09  5.13890E-09  5.16856E-09  5.24497E-09  5.34456E-09  5.41340E-09  5.44062E-09  5.48870E-09  5.54710E-09  5.61065E-09
   5.67692E-09  5.74461E-09  5.81293E-09  5.88137E-09  5.94955E-09  6.01722E-09  6.08414E-09  6.15016E-09  6.21516E-09  6.27899E-09
   6.34157E-09  6.40281E-09  6.46268E-09  6.52120E-09  6.57840E-09  6.63429E-09  6.68893E-09  6.74234E-09  6.79456E-09  6.84564E-09
   6.89561E-09  6.94452E-09  6.99242E-09  7.03934E-09  7.08534E-09  7.13047E-09  7.17477E-09  7.21828E-09  7.26107E-09  7.30318E-09
   7.34466E-09  7.38556E-09  7.42593E-09  7.46582E-09  7.50529E-09  7.54438E-09  7.58314E-09  7.62163E-09  7.65991E-09  7.69801E-09
   7.73600E-09  7.77392E-09  7.81183E-09  7.84979E-09  7.88783E-09  7.92602E-09  7.96441E-09  8.00305E-09  8.04199E-09  8.08129E-09
   8.12099E-09  8.16115E-09  8.20170E-09  8.24235E-09  8.28281E-09  8.32280E-09  8.36201E-09  8.40015E-09  8.43693E-09  8.47207E-09
   8.50526E-09  8.53620E-09  8.56462E-09  8.59021E-09  8.61267E-09  8.63173E-09  8.64709E-09  8.65844E-09  8.66549E-09  8.66797E-09
   8.66557E-09  8.65799E-09  8.64496E-09  8.62615E-09  8.60130E-09  8.57010E-09  8.53227E-09  8.48749E-09  8.43551E-09  8.37600E-09
   8.30868E-09  8.23327E-09  8.14948E-09  8.05701E-09  7.95560E-09  7.84497E-09  7.72485E-09  7.59499E-09  7.45517E-09  7.30522E-09
   7.14510E-09  6.97485E-09  6.79521E-09  6.60841E-09  6.41961E-09  6.24476E-09  6.16460E-09  6.40055E-09  6.52829E-09  6.44087E-09
   6.22717E-09  5.96759E-09  5.68934E-09  5.42329E-09  5.18925E-09  4.94960E-09  4.58081E-09  3.95178E-09  3.17295E-09  2.74195E-09
   2.40099E-09  2.08738E-09  1.78609E-09  1.49217E-09  1.20375E-09  9.20128E-10  6.41187E-10  3.67080E-10  9.81031E-11 -1.65321E-10
  -4.22737E-10 -6.73651E-10 -9.17520E-10 -1.15384E-09 -1.38202E-09 -1.60148E-09 -1.81171E-09 -2.01206E-09 -2.20198E-09 -2.38093E-09
  -2.54823E-09 -2.70337E-09 -2.84582E-09 -2.97578E-09 -3.09361E-09 -3.19968E-09 -3.29438E-09 -3.37811E-09 -3.45121E-09 -3.51409E-09
  -3.56710E-09 -3.61063E-09 -3.64506E-09 -3.67076E-09 -3.68811E-09 -3.69749E-09 -3.69926E-09 -3.69380E-09 -3.68151E-09 -3.66274E-09
  -3.63787E-09 -3.60729E-09 -3.57136E-09 -3.53047E-09 -3.48496E-09 -3.43527E-09 -3.38170E-09 -3.32469E-09 -3.26459E-09 -3.20175E-09
  -3.13659E-09 -3.06946E-09 -3.00076E-09 -2.93081E-09 -2.86006E-09 -2.78881E-09 -2.71752E-09 -2.64647E-09 -2.57611E-09 -2.50678E-09
  -2.43888E-09 -2.37275E-09 -2.30877E-09 -2.24704E-09 -2.18748E-09 -2.13003E-09 -2.07462E-09 -2.02117E-09 -1.96962E-09 -1.91989E-09
  -1.87192E-09 -1.82564E-09 -1.78096E-09 -1.73784E-09 -1.69618E-09 -1.65595E-09 -1.61703E-09 -1.57938E-09 -1.54294E-09 -1.50760E-09
  -1.47334E-09 -1.44005E-09 -1.40767E-09 -1.37615E-09 -1.34539E-09 -1.31534E-09 -1.28591E-09 -1.25707E-09 -1.22871E-09 -1.20077E-09
  -1.17319E-09 -1.14588E-09 -1.11879E-09 -1.09185E-09 -1.06497E-09 -1.03809E-09 -1.01115E-09 -9.84067E-10 -9.56773E-10 -9.29196E-10
  -9.01285E-10 -8.72936E-10 -8.44111E-10 -8.14779E-10 -7.84992E-10 -7.54797E-10 -7.24247E-10 -6.93394E-10 -6.62285E-10 -6.30973E-10
  -5.99507E-10 -5.67937E-10 -5.36316E-10 -5.04691E-10 -4.73117E-10 -4.41640E-10 -4.10316E-10 -3.79189E-10 -3.48313E-10 -3.17736E-10
  -2.87514E-10 -2.57692E-10 -2.28321E-10 -1.99454E-10 -1.71143E-10 -1.43432E-10 -1.16379E-10 -9.00272E-11 -6.44341E-11 -3.96467E-11
  -1.57164E-11  7.31108E-12  2.93762E-11  5.04327E-11  7.04386E-11  8.93234E-11  1.07056E-10  1.23580E-10  1.38838E-10  1.52785E-10
   1.65371E-10  1.76550E-10  1.86260E-10  1.94489E-10  2.01280E-10  2.06683E-10  2.10752E-10  2.13537E-10  2.15091E-10  2.15466E-10
   2.14713E-10  2.12887E-10  2.10034E-10  2.06213E-10  2.01471E-10  1.95860E-10  1.89434E-10  1.82245E-10  1.74345E-10  1.65783E-10
   1.56615E-10  1.46890E-10  1.36659E-10  1.25980E-10  1.14899E-10  1.03470E-10  9.17449E-11  7.97751E-11  6.76157E-11  5.53122E-11
   4.29233E-11  3.04970E-11  1.80876E-11  5.74223E-12 -6.47887E-12 -1.85312E-11 -3.03570E-11 -4.19092E-11 -5.31359E-11 -6.39792E-11
  -7.43918E-11 -8.43214E-11 -9.37140E-11
 GABA     Conc. = 3.35E-10
  -1.37495E-09 -1.26827E-09 -1.16176E-09 -1.05544E-09 -9.49274E-10 -8.43282E-10 -7.37451E-10 -6.31773E-10 -5.26249E-10 -4.20860E-10
  -3.15597E-10 -2.10464E-10 -1.05425E-10 -4.90679E-13  1.04400E-10  2.09240E-10  3.14018E-10  4.18833E-10  5.23754E-10  6.28784E-10
   7.34061E-10  8.39765E-10  9.46076E-10  1.05335E-09  1.16212E-09  1.27333E-09  1.38883E-09  1.51275E-09  1.65657E-09  1.85480E-09
   2.01666E-09  2.14933E-09  2.38610E-09  2.61172E-09  2.75400E-09  2.91672E-09  3.08626E-09  3.22192E-09  3.30980E-09  3.35675E-09
   3.39279E-09  3.47755E-09  3.49133E-09  3.43027E-09  3.47935E-09  3.54440E-09  3.54971E-09  3.59365E-09  3.66294E-09  3.74312E-09
   3.82907E-09  3.91834E-09  4.00975E-09  4.10279E-09  4.19718E-09  4.29281E-09  4.38996E-09  4.48926E-09  4.59206E-09  4.70131E-09
   4.82410E-09  4.98314E-09  5.17419E-09  5.31103E-09  5.46706E-09  5.68248E-09  5.83337E-09  5.93415E-09  6.04585E-09  6.15036E-09
   6.22212E-09  6.25094E-09  6.24643E-09  6.25505E-09  6.28698E-09  6.23542E-09  6.19831E-09  6.25747E-09  6.29149E-09  6.32494E-09
   6.40656E-09  6.46720E-09  6.53728E-09  6.67366E-09  6.77998E-09  6.85695E-09  6.97426E-09  7.08777E-09  7.17666E-09  7.25358E-09
   7.30769E-09  7.36224E-09  7.42877E-09  7.43366E-09  7.41547E-09  7.45896E-09  7.46584E-09  7.43695E-09  7.45032E-09  7.46684E-09
   7.47472E-09  7.49192E-09  7.51524E-09  7.54226E-09  7.57163E-09  7.60252E-09  7.63450E-09  7.66732E-09  7.70080E-09  7.73485E-09
   7.76936E-09  7.80422E-09  7.83942E-09  7.87496E-09  7.91085E-09  7.94716E-09  7.98387E-09  8.02101E-09  8.05858E-09  8.09665E-09
   8.13522E-09  8.17436E-09  8.21399E-09  8.25379E-09  8.29348E-09  8.33276E-09  8.37133E-09  8.40888E-09  8.44512E-09  8.47976E-09
   8.51250E-09  8.54302E-09  8.57106E-09  8.59631E-09  8.61846E-09  8.63723E-09  8.65234E-09  8.66346E-09  8.67030E-09  8.67260E-09
   8.67003E-09  8.66232E-09  8.64917E-09  8.63027E-09  8.60534E-09  8.57408E-09  8.53620E-09  8.49139E-09  8.43940E-09  8.37990E-09
   8.31259E-09  8.23720E-09  8.15345E-09  8.06101E-09  7.95963E-09  7.84901E-09  7.72887E-09  7.59893E-09  7.45894E-09  7.30864E-09
   7.14790E-09  6.97653E-09  6.79484E-09  6.60410E-09  6.40695E-09  6.21085E-09  6.05176E-09  6.03732E-09  5.97026E-09  5.79918E-09
   5.56537E-09  5.30688E-09  5.03674E-09  4.76957E-09  4.51526E-09  4.25738E-09  3.93933E-09  3.49940E-09  2.98513E-09  2.63252E-09
   2.32245E-09  2.02529E-09  1.73427E-09  1.44738E-09  1.16407E-09  8.84352E-10  6.08477E-10  3.36843E-10  6.99019E-11 -1.91818E-10
  -4.47786E-10 -6.97458E-10 -9.40248E-10 -1.17562E-09 -1.40297E-09 -1.62169E-09 -1.83126E-09 -2.03101E-09 -2.22040E-09 -2.39886E-09
  -2.56572E-09 -2.72045E-09 -2.86253E-09 -2.99215E-09 -3.10966E-09 -3.21544E-09 -3.30987E-09 -3.39334E-09 -3.46621E-09 -3.52886E-09
  -3.58167E-09 -3.62500E-09 -3.65925E-09 -3.68478E-09 -3.70196E-09 -3.71119E-09 -3.71281E-09 -3.70722E-09 -3.69480E-09 -3.67590E-09
  -3.65092E-09 -3.62022E-09 -3.58419E-09 -3.54319E-09 -3.49759E-09 -3.44780E-09 -3.39414E-09 -3.33705E-09 -3.27686E-09 -3.21394E-09
  -3.14870E-09 -3.08151E-09 -3.01273E-09 -2.94272E-09 -2.87190E-09 -2.80059E-09 -2.72923E-09 -2.65812E-09 -2.58771E-09 -2.51833E-09
