 LCModel (Version 6.3-1R) Copyright: S.W. Provencher.          Ref.: Magn. Reson. Med. 30:672-679 (1993).                
 onepulse 18x8_ftSpec_smooth_lcm
 26 lines in following concentration table = NCONC+1
    Conc.  %SD /Cr+PCr  Metabolite                                         
    0.000 999%   0.000 Ala                                                 
    0.000 999%   0.000 Asp                                                 
    0.000 999%   0.000 Cr                                                  
 3.46E-10 195%   0.790 GABA                                                
    0.000 999%   0.000 Glc                                                 
 2.16E-09  27%   4.945 Gln                                                 
    0.000 999%   0.000 Glu                                                 
    0.000 999%   0.000 Glyc                                                
 7.35E-11 450%   0.168 GPC                                                 
    0.000 999%   0.000 GSH                                                 
 1.33E-09  28%   3.033 Ins                                                 
    0.000 999%   0.000 Lac                                                 
 1.30E-10 261%   0.297 NAAG                                                
 5.64E-10  85%   1.290 NAA                                                 
    0.000 999%   0.000 PCh                                                 
 4.37E-10  74%   1.000 PCr                                                 
 6.63E-10 373%   1.516 PE                                                  
    0.000 999%   0.000 Scyllo                                              
 2.74E-09  58%   6.263 Ser                                                 
 9.81E-10  75%   2.242 Tau                                                 
 7.35E-11 450%   0.168 GPC+PCh                                             
 6.94E-10  41%   1.587 NAA+NAAG                                            
 1.33E-09  28%   3.033 Ins+Glyc                                            
 4.37E-10  74%   1.000 Cr+PCr                                              
 2.16E-09  27%   4.945 Glu+Gln                                             
   6 lines in following misc. output table
  FWHM = 0.101 ppm    S/N =   3                                            
  Data shift = 0.391 ppm                                                   
  Ph:  16 deg     -27.9 deg/ppm                                            
  alphaB,S = 3.5E-01,   5.1E+01                                            
   11 spline knots.   Ns = 5(1)                                            
  ( 9) 4 infls.   ( 7) 3 extrs.                                            
  363 points on ppm-axis = NY
      4.250000     4.238821     4.227641     4.216462     4.205282     4.194103     4.182923     4.171744     4.160564     4.149385
      4.138206     4.127026     4.115847     4.104667     4.093488     4.082308     4.071129     4.059949     4.048770     4.037591
      4.026411     4.015232     4.004052     3.992873     3.981693     3.970514     3.959334     3.948155     3.936975     3.925796
      3.914617     3.903437     3.892258     3.881078     3.869899     3.858719     3.847540     3.836360     3.825181     3.814002
      3.802822     3.791643     3.780463     3.769284     3.758104     3.746925     3.735745     3.724566     3.713387     3.702207
      3.691028     3.679848     3.668669     3.657489     3.646310     3.635130     3.623951     3.612772     3.601592     3.590413
      3.579233     3.568054     3.556874     3.545695     3.534515     3.523336     3.512156     3.500977     3.489798     3.478618
      3.467439     3.456259     3.445080     3.433900     3.422721     3.411541     3.400362     3.389183     3.378003     3.366824
      3.355644     3.344465     3.333285     3.322106     3.310926     3.299747     3.288568     3.277388     3.266209     3.255029
      3.243850     3.232670     3.221491     3.210311     3.199132     3.187953     3.176773     3.165594     3.154414     3.143235
      3.132055     3.120876     3.109696     3.098517     3.087337     3.076158     3.064979     3.053799     3.042620     3.031440
      3.020261     3.009081     2.997902     2.986722     2.975543     2.964364     2.953184     2.942005     2.930825     2.919646
      2.908466     2.897287     2.886107     2.874928     2.863749     2.852569     2.841390     2.830210     2.819031     2.807851
      2.796672     2.785492     2.774313     2.763134     2.751954     2.740775     2.729595     2.718416     2.707236     2.696057
      2.684877     2.673698     2.662519     2.651339     2.640160     2.628980     2.617801     2.606621     2.595442     2.584262
      2.573083     2.561903     2.550724     2.539545     2.528365     2.517186     2.506006     2.494827     2.483647     2.472468
      2.461288     2.450109     2.438930     2.427750     2.416571     2.405391     2.394212     2.383032     2.371853     2.360673
      2.349494     2.338315     2.327135     2.315956     2.304776     2.293597     2.282417     2.271238     2.260058     2.248879
      2.237700     2.226520     2.215341     2.204161     2.192982     2.181802     2.170623     2.159443     2.148264     2.137084
      2.125905     2.114726     2.103546     2.092367     2.081187     2.070008     2.058828     2.047649     2.036469     2.025290
      2.014111     2.002931     1.991752     1.980572     1.969393     1.958213     1.947034     1.935854     1.924675     1.913496
      1.902316     1.891137     1.879957     1.868778     1.857598     1.846419     1.835239     1.824060     1.812881     1.801701
      1.790522     1.779342     1.768163     1.756983     1.745804     1.734624     1.723445     1.712265     1.701086     1.689907
      1.678727     1.667548     1.656368     1.645189     1.634009     1.622830     1.611650     1.600471     1.589292     1.578112
      1.566933     1.555753     1.544574     1.533394     1.522215     1.511035     1.499856     1.488677     1.477497     1.466318
      1.455138     1.443959     1.432779     1.421600     1.410420     1.399241     1.388062     1.376882     1.365703     1.354523
      1.343344     1.332164     1.320985     1.309805     1.298626     1.287446     1.276267     1.265088     1.253908     1.242729
      1.231549     1.220370     1.209190     1.198011     1.186831     1.175652     1.164473     1.153293     1.142114     1.130934
      1.119755     1.108575     1.097396     1.086216     1.075037     1.063858     1.052678     1.041499     1.030319     1.019140
      1.007960     0.996781     0.985601     0.974422     0.963243     0.952063     0.940884     0.929704     0.918525     0.907345
      0.896166     0.884986     0.873807     0.862628     0.851448     0.840269     0.829089     0.817910     0.806730     0.795551
      0.784371     0.773192     0.762012     0.750833     0.739654     0.728474     0.717295     0.706115     0.694936     0.683756
      0.672577     0.661397     0.650218     0.639039     0.627859     0.616680     0.605500     0.594321     0.583141     0.571962
      0.560782     0.549603     0.538424     0.527244     0.516065     0.504885     0.493706     0.482526     0.471347     0.460167
      0.448988     0.437809     0.426629     0.415450     0.404270     0.393091     0.381911     0.370732     0.359552     0.348373
      0.337193     0.326014     0.314835     0.303655     0.292476     0.281296     0.270117     0.258937     0.247758     0.236578
      0.225399     0.214220     0.203040
 NY phased data points follow
   4.18333E-09  4.71157E-09  4.55466E-09  4.11416E-09  3.35574E-09  3.11281E-09  3.28239E-09  2.95276E-09  3.10649E-09  3.76586E-09
   3.60810E-09  4.24646E-09  5.22043E-09  5.82507E-09  5.43811E-09  5.65716E-09  5.68101E-09  5.95269E-09  5.50462E-09  6.04917E-09
   5.24178E-09  5.56573E-09  5.79969E-09  6.58796E-09  6.40057E-09  6.38242E-09  4.99239E-09  5.65076E-09  6.33171E-09  7.94881E-09
   9.46406E-09  9.89238E-09  1.06685E-08  1.05818E-08  9.73871E-09  9.31383E-09  9.94502E-09  9.79344E-09  9.54017E-09  9.63324E-09
   9.48394E-09  9.40850E-09  9.29735E-09  9.03978E-09  8.36760E-09  8.78309E-09  7.77875E-09  7.15085E-09  7.49761E-09  7.92696E-09
   7.23083E-09  7.07392E-09  6.20342E-09  5.21461E-09  4.82000E-09  4.31850E-09  4.17846E-09  3.72050E-09  3.67031E-09  4.93186E-09
   6.94180E-09  8.56248E-09  1.06627E-08  1.11882E-08  1.08643E-08  1.10604E-08  9.75685E-09  1.01488E-08  9.66715E-09  8.48553E-09
   7.73338E-09  6.32259E-09  6.22628E-09  4.27636E-09  3.70587E-09  3.43300E-09  5.61866E-09  9.78767E-09  1.19006E-08  1.28125E-08
   1.34542E-08  1.40488E-08  1.39530E-08  1.40688E-08  1.38891E-08  1.39826E-08  1.38778E-08  1.41738E-08  1.39700E-08  1.43481E-08
   1.38601E-08  1.39918E-08  1.35331E-08  1.28229E-08  1.21921E-08  1.24230E-08  1.19156E-08  1.16518E-08  1.12145E-08  1.16954E-08
   1.12060E-08  1.08704E-08  1.13298E-08  1.12336E-08  1.04768E-08  1.04223E-08  1.02004E-08  9.15939E-09  8.48997E-09  8.15646E-09
   8.67830E-09  8.63380E-09  8.29351E-09  8.73746E-09  9.07795E-09  8.91596E-09  8.65309E-09  8.85126E-09  9.11063E-09  9.45584E-09
   8.49975E-09  8.26467E-09  7.69288E-09  7.42277E-09  6.68788E-09  7.13537E-09  6.62451E-09  6.65585E-09  7.26691E-09  7.02496E-09
   7.28856E-09  7.16161E-09  7.47678E-09  7.22254E-09  6.65017E-09  7.17713E-09  6.83726E-09  8.16722E-09  8.82770E-09  9.50106E-09
   9.11471E-09  9.37341E-09  9.97507E-09  1.01161E-08  1.00547E-08  1.05858E-08  1.08325E-08  1.07603E-08  1.06018E-08  1.07107E-08
   1.00893E-08  9.87551E-09  9.92516E-09  1.00484E-08  9.95848E-09  9.04403E-09  9.43257E-09  8.81919E-09  9.17764E-09  9.16876E-09
   8.90566E-09  8.33941E-09  8.14009E-09  7.68632E-09  7.40444E-09  6.40041E-09  5.98342E-09  9.59325E-09  1.46142E-08  1.83313E-08
   1.95046E-08  1.94414E-08  1.92967E-08  1.98418E-08  1.85937E-08  1.77791E-08  1.65409E-08  1.59465E-08  1.44420E-08  1.28113E-08
   1.11991E-08  9.82613E-09  7.48252E-09  5.15777E-09  2.97883E-09  6.85712E-10 -2.80051E-09 -4.60342E-09 -6.84213E-09 -8.65001E-09
  -1.01419E-08 -1.18478E-08 -1.28991E-08 -1.38319E-08 -1.42796E-08 -1.37852E-08 -1.32964E-08 -1.23682E-08 -1.13545E-08 -1.10017E-08
  -9.52736E-09 -8.36844E-09 -7.25371E-09 -6.53750E-09 -5.58515E-09 -5.17915E-09 -4.37991E-09 -3.55638E-09 -4.10682E-09 -4.29376E-09
  -3.65767E-09 -4.09582E-09 -3.81660E-09 -3.79013E-09 -3.69739E-09 -3.85302E-09 -3.69840E-09 -3.59553E-09 -3.49462E-09 -2.71802E-09
  -3.24030E-09 -2.72589E-09 -2.97522E-09 -3.30345E-09 -3.59848E-09 -3.36624E-09 -2.94200E-09 -3.08851E-09 -3.22464E-09 -2.18967E-09
  -3.27534E-09 -3.27350E-09 -2.85818E-09 -2.79041E-09 -2.67005E-09 -2.66329E-09 -3.16150E-09 -3.11122E-09 -3.49503E-09 -3.10510E-09
  -3.04506E-09 -3.82955E-09 -3.66114E-09 -3.04990E-09 -2.62932E-09 -3.04908E-09 -2.18500E-09 -2.06884E-09 -1.98698E-09 -2.28122E-09
  -2.28559E-09 -1.93837E-09 -2.24722E-09 -2.26317E-09 -2.41738E-09 -2.68096E-09 -2.87769E-09 -3.85363E-09 -3.43196E-09 -4.31208E-09
  -4.10513E-09 -4.25060E-09 -3.82322E-09 -4.32621E-09 -3.65837E-09 -3.37909E-09 -3.42441E-09 -2.77363E-09 -2.88201E-09 -2.57202E-09
  -1.49572E-09 -1.48542E-09 -1.97032E-09 -1.23886E-09 -1.23889E-09 -1.34078E-09 -1.36460E-09 -1.67472E-09 -1.36072E-09 -1.60075E-09
  -1.37723E-09 -2.06342E-09 -2.08240E-09 -1.50491E-09 -1.84134E-09 -2.08495E-09 -2.99089E-09 -2.65500E-09 -2.89569E-09 -2.83372E-09
  -2.73969E-09 -3.10761E-09 -2.93119E-09 -3.13883E-09 -3.40447E-09 -3.21423E-09 -3.37179E-09 -3.65301E-09 -3.47337E-09 -3.90990E-09
  -3.81206E-09 -3.60399E-09 -4.24696E-09 -4.17964E-09 -4.19515E-09 -4.37407E-09 -4.15485E-09 -4.28992E-09 -4.08349E-09 -4.58402E-09
  -4.36023E-09 -4.64077E-09 -3.59129E-09 -4.58975E-09 -4.49606E-09 -4.50264E-09 -4.14732E-09 -4.41777E-09 -4.02771E-09 -4.42175E-09
  -4.53355E-09 -4.30671E-09 -4.12847E-09 -4.22302E-09 -4.72199E-09 -4.34645E-09 -3.65719E-09 -4.42064E-09 -4.16614E-09 -4.17306E-09
  -3.94569E-09 -4.27919E-09 -4.10833E-09 -3.55770E-09 -3.77072E-09 -4.22934E-09 -3.90716E-09 -4.20341E-09 -4.46542E-09 -3.99420E-09
  -3.60455E-09 -4.13507E-09 -3.41679E-09 -4.11202E-09 -4.28513E-09 -3.87009E-09 -3.31580E-09 -3.40006E-09 -3.46876E-09 -3.57080E-09
  -3.54188E-09 -3.40599E-09 -3.42798E-09 -3.35454E-09 -3.50487E-09 -3.38565E-09 -3.09149E-09 -2.97148E-09 -2.76529E-09 -2.62392E-09
  -2.83398E-09 -2.90291E-09 -2.14263E-09
 NY points of the fit to the data follow
   3.89461E-09  4.74737E-09  4.68042E-09  4.20156E-09  4.11244E-09  4.22438E-09  4.10649E-09  3.61362E-09  3.06884E-09  2.98032E-09
   3.28053E-09  3.55767E-09  4.00466E-09  4.45862E-09  5.01450E-09  5.53970E-09  5.97720E-09  6.65982E-09  7.09238E-09  6.72058E-09
   5.96200E-09  5.33986E-09  5.04104E-09  4.99638E-09  5.24080E-09  5.67644E-09  6.30548E-09  6.98760E-09  7.68205E-09  8.42059E-09
   9.05335E-09  9.34881E-09  9.66102E-09  9.93648E-09  1.00867E-08  9.98496E-09  9.77259E-09  9.57513E-09  9.54323E-09  9.62191E-09
   9.70969E-09  9.64332E-09  9.16923E-09  8.29164E-09  7.71710E-09  7.34231E-09  7.00659E-09  6.68376E-09  6.38936E-09  6.14810E-09
   5.94692E-09  5.78262E-09  5.63938E-09  5.48360E-09  5.34992E-09  5.45758E-09  5.71511E-09  6.04339E-09  6.65420E-09  7.46641E-09
   8.20537E-09  8.88279E-09  9.52450E-09  1.00805E-08  1.04562E-08  1.06070E-08  1.05474E-08  1.04024E-08  9.95173E-09  9.27444E-09
   8.80862E-09  8.49431E-09  8.22900E-09  8.06446E-09  8.01311E-09  8.12860E-09  8.42057E-09  9.26306E-09  1.06123E-08  1.20657E-08
   1.33832E-08  1.43888E-08  1.49702E-08  1.54359E-08  1.58968E-08  1.59854E-08  1.56281E-08  1.48974E-08  1.37358E-08  1.27983E-08
   1.22437E-08  1.18662E-08  1.16033E-08  1.13666E-08  1.11358E-08  1.09712E-08  1.08171E-08  1.06450E-08  1.05080E-08  1.03894E-08
   1.02756E-08  1.01786E-08  1.00942E-08  1.00187E-08  9.95203E-09  9.89254E-09  9.83867E-09  9.78929E-09  9.74340E-09  9.70027E-09
   9.65924E-09  9.61965E-09  9.58102E-09  9.54285E-09  9.50475E-09  9.46636E-09  9.42732E-09  9.38728E-09  9.34592E-09  9.30295E-09
   9.25810E-09  9.21112E-09  9.16174E-09  9.10971E-09  9.05484E-09  8.99686E-09  8.93557E-09  8.87077E-09  8.80223E-09  8.72974E-09
   8.65313E-09  8.57219E-09  8.48675E-09  8.39660E-09  8.30155E-09  8.20146E-09  8.09611E-09  7.98541E-09  7.86946E-09  7.74835E-09
   7.62218E-09  7.49109E-09  7.35518E-09  7.21455E-09  7.06937E-09  6.91974E-09  6.76583E-09  6.60776E-09  6.44569E-09  6.27978E-09
   6.11023E-09  5.93718E-09  5.76086E-09  5.58151E-09  5.39938E-09  5.21483E-09  5.02828E-09  4.84029E-09  4.65170E-09  4.46372E-09
   4.27841E-09  4.09917E-09  3.93257E-09  3.79225E-09  3.71128E-09  3.79038E-09  4.48659E-09  7.96944E-09  1.27358E-08  1.67641E-08
   1.91819E-08  2.02053E-08  2.05078E-08  2.05634E-08  2.03145E-08  1.92018E-08  1.63375E-08  1.12898E-08  5.60904E-09  3.30433E-09
   2.34926E-09  1.76901E-09  1.34450E-09  1.00125E-09  7.06722E-10  4.44371E-10  2.04862E-10 -1.75376E-11 -2.26457E-10 -4.24396E-10
  -6.13041E-10 -7.93667E-10 -9.67119E-10 -1.13412E-09 -1.29517E-09 -1.45065E-09 -1.60087E-09 -1.74608E-09 -1.88646E-09 -2.02217E-09
  -2.15332E-09 -2.28002E-09 -2.40233E-09 -2.52032E-09 -2.63405E-09 -2.74356E-09 -2.84887E-09 -2.95003E-09 -3.04704E-09 -3.13992E-09
  -3.22869E-09 -3.31336E-09 -3.39396E-09 -3.47049E-09 -3.54291E-09 -3.61129E-09 -3.67560E-09 -3.73587E-09 -3.79208E-09 -3.84424E-09
  -3.89239E-09 -3.93649E-09 -3.97656E-09 -4.01264E-09 -4.04473E-09 -4.07278E-09 -4.09688E-09 -4.11703E-09 -4.13332E-09 -4.14594E-09
  -4.15506E-09 -4.16084E-09 -4.16345E-09 -4.16305E-09 -4.15982E-09 -4.15390E-09 -4.14547E-09 -4.13469E-09 -4.12171E-09 -4.10670E-09
  -4.08981E-09 -4.07119E-09 -4.05101E-09 -4.02940E-09 -4.00653E-09 -3.98253E-09 -3.95756E-09 -3.93176E-09 -3.90528E-09 -3.87824E-09
  -3.85080E-09 -3.82308E-09 -3.79522E-09 -3.76735E-09 -3.73960E-09 -3.71209E-09 -3.68494E-09 -3.65828E-09 -3.63222E-09 -3.60688E-09
  -3.58236E-09 -3.55877E-09 -3.53623E-09 -3.51482E-09 -3.49466E-09 -3.47582E-09 -3.45841E-09 -3.44251E-09 -3.42820E-09 -3.41557E-09
  -3.40470E-09 -3.39564E-09 -3.38848E-09 -3.38319E-09 -3.37970E-09 -3.37790E-09 -3.37772E-09 -3.37907E-09 -3.38184E-09 -3.38595E-09
  -3.39133E-09 -3.39787E-09 -3.40550E-09 -3.41412E-09 -3.42366E-09 -3.43402E-09 -3.44513E-09 -3.45691E-09 -3.46926E-09 -3.48211E-09
  -3.49538E-09 -3.50899E-09 -3.52286E-09 -3.53693E-09 -3.55110E-09 -3.56530E-09 -3.57947E-09 -3.59353E-09 -3.60740E-09 -3.62102E-09
  -3.63433E-09 -3.64724E-09 -3.65970E-09 -3.67164E-09 -3.68300E-09 -3.69372E-09 -3.70373E-09 -3.71298E-09 -3.72141E-09 -3.72897E-09
  -3.73559E-09 -3.74123E-09 -3.74583E-09 -3.74936E-09 -3.75175E-09 -3.75295E-09 -3.75294E-09 -3.75165E-09 -3.74908E-09 -3.74518E-09
  -3.73995E-09 -3.73337E-09 -3.72543E-09 -3.71610E-09 -3.70537E-09 -3.69324E-09 -3.67968E-09 -3.66468E-09 -3.64823E-09 -3.63031E-09
  -3.61092E-09 -3.59003E-09 -3.56765E-09 -3.54375E-09 -3.51833E-09 -3.49137E-09 -3.46288E-09 -3.43283E-09 -3.40122E-09 -3.36804E-09
  -3.33328E-09 -3.29693E-09 -3.25900E-09 -3.21946E-09 -3.17832E-09 -3.13557E-09 -3.09120E-09 -3.04521E-09 -2.99760E-09 -2.94836E-09
  -2.89749E-09 -2.84498E-09 -2.79084E-09 -2.73506E-09 -2.67764E-09 -2.61858E-09 -2.55788E-09 -2.49554E-09 -2.43156E-09 -2.36595E-09
  -2.29869E-09 -2.22981E-09 -2.15929E-09
 NY background values follow
     5.411E-10    6.045E-10    6.681E-10    7.317E-10    7.956E-10    8.596E-10    9.237E-10    9.880E-10    1.052E-09    1.117E-09
     1.182E-09    1.246E-09    1.311E-09    1.376E-09    1.441E-09    1.506E-09    1.572E-09    1.637E-09    1.703E-09    1.768E-09
     1.834E-09    1.899E-09    1.965E-09    2.031E-09    2.097E-09    2.163E-09    2.229E-09    2.295E-09    2.361E-09    2.427E-09
     2.493E-09    2.559E-09    2.626E-09    2.692E-09    2.758E-09    2.824E-09    2.891E-09    2.957E-09    3.023E-09    3.090E-09
     3.156E-09    3.222E-09    3.288E-09    3.355E-09    3.421E-09    3.487E-09    3.554E-09    3.620E-09    3.686E-09    3.752E-09
     3.818E-09    3.884E-09    3.950E-09    4.016E-09    4.082E-09    4.148E-09    4.213E-09    4.279E-09    4.345E-09    4.410E-09
     4.475E-09    4.541E-09    4.606E-09    4.671E-09    4.736E-09    4.801E-09    4.865E-09    4.930E-09    4.994E-09    5.058E-09
     5.122E-09    5.186E-09    5.250E-09    5.313E-09    5.377E-09    5.440E-09    5.503E-09    5.565E-09    5.628E-09    5.690E-09
     5.752E-09    5.814E-09    5.875E-09    5.937E-09    5.998E-09    6.059E-09    6.119E-09    6.179E-09    6.239E-09    6.299E-09
     6.358E-09    6.417E-09    6.476E-09    6.534E-09    6.592E-09    6.649E-09    6.705E-09    6.761E-09    6.815E-09    6.869E-09
     6.921E-09    6.972E-09    7.022E-09    7.070E-09    7.116E-09    7.161E-09    7.204E-09    7.245E-09    7.284E-09    7.321E-09
     7.355E-09    7.387E-09    7.417E-09    7.444E-09    7.467E-09    7.488E-09    7.506E-09    7.521E-09    7.532E-09    7.539E-09
     7.543E-09    7.544E-09    7.540E-09    7.532E-09    7.520E-09    7.504E-09    7.483E-09    7.458E-09    7.428E-09    7.393E-09
     7.353E-09    7.307E-09    7.257E-09    7.201E-09    7.139E-09    7.072E-09    6.999E-09    6.920E-09    6.835E-09    6.744E-09
     6.648E-09    6.547E-09    6.440E-09    6.328E-09    6.212E-09    6.090E-09    5.964E-09    5.834E-09    5.699E-09    5.560E-09
     5.417E-09    5.271E-09    5.120E-09    4.967E-09    4.810E-09    4.651E-09    4.488E-09    4.323E-09    4.156E-09    3.986E-09
     3.814E-09    3.640E-09    3.465E-09    3.288E-09    3.111E-09    2.932E-09    2.752E-09    2.572E-09    2.391E-09    2.210E-09
     2.029E-09    1.849E-09    1.669E-09    1.489E-09    1.311E-09    1.133E-09    9.570E-10    7.824E-10    6.095E-10    4.386E-10
     2.698E-10    1.033E-10   -6.055E-11   -2.218E-10   -3.803E-10   -5.362E-10   -6.892E-10   -8.394E-10   -9.867E-10   -1.131E-09
    -1.272E-09   -1.411E-09   -1.546E-09   -1.678E-09   -1.807E-09   -1.933E-09   -2.055E-09   -2.175E-09   -2.291E-09   -2.403E-09
    -2.512E-09   -2.618E-09   -2.721E-09   -2.819E-09   -2.915E-09   -3.006E-09   -3.095E-09   -3.179E-09   -3.260E-09   -3.338E-09
    -3.411E-09   -3.481E-09   -3.548E-09   -3.610E-09   -3.669E-09   -3.724E-09   -3.776E-09   -3.823E-09   -3.867E-09   -3.907E-09
    -3.943E-09   -3.976E-09   -4.004E-09   -4.029E-09   -4.050E-09   -4.067E-09   -4.081E-09   -4.090E-09   -4.096E-09   -4.099E-09
    -4.098E-09   -4.094E-09   -4.086E-09   -4.076E-09   -4.064E-09   -4.049E-09   -4.031E-09   -4.011E-09   -3.989E-09   -3.965E-09
    -3.940E-09   -3.913E-09   -3.884E-09   -3.854E-09   -3.823E-09   -3.791E-09   -3.758E-09   -3.724E-09   -3.690E-09   -3.655E-09
    -3.620E-09   -3.584E-09   -3.549E-09   -3.514E-09   -3.479E-09   -3.444E-09   -3.410E-09   -3.376E-09   -3.343E-09   -3.311E-09
    -3.279E-09   -3.249E-09   -3.220E-09   -3.192E-09   -3.165E-09   -3.140E-09   -3.116E-09   -3.094E-09   -3.073E-09   -3.054E-09
    -3.037E-09   -3.022E-09   -3.009E-09   -2.998E-09   -2.988E-09   -2.981E-09   -2.975E-09   -2.970E-09   -2.967E-09   -2.966E-09
    -2.966E-09   -2.967E-09   -2.969E-09   -2.972E-09   -2.977E-09   -2.982E-09   -2.988E-09   -2.994E-09   -3.002E-09   -3.009E-09
    -3.018E-09   -3.026E-09   -3.035E-09   -3.045E-09   -3.054E-09   -3.064E-09   -3.073E-09   -3.083E-09   -3.092E-09   -3.101E-09
    -3.110E-09   -3.118E-09   -3.126E-09   -3.134E-09   -3.141E-09   -3.148E-09   -3.153E-09   -3.158E-09   -3.163E-09   -3.166E-09
    -3.169E-09   -3.171E-09   -3.171E-09   -3.171E-09   -3.169E-09   -3.167E-09   -3.163E-09   -3.158E-09   -3.152E-09   -3.144E-09
    -3.136E-09   -3.125E-09   -3.114E-09   -3.101E-09   -3.087E-09   -3.071E-09   -3.055E-09   -3.036E-09   -3.017E-09   -2.995E-09
    -2.973E-09   -2.949E-09   -2.923E-09   -2.896E-09   -2.868E-09   -2.838E-09   -2.807E-09   -2.774E-09   -2.739E-09   -2.703E-09
    -2.665E-09   -2.626E-09   -2.586E-09   -2.543E-09   -2.500E-09   -2.454E-09   -2.407E-09   -2.359E-09   -2.309E-09   -2.257E-09
    -2.204E-09   -2.149E-09   -2.092E-09   -2.034E-09   -1.974E-09   -1.913E-09   -1.850E-09   -1.786E-09   -1.719E-09   -1.652E-09
    -1.582E-09   -1.511E-09   -1.439E-09
 GABA     Conc. = 3.46E-10
   3.67335E-10  4.27508E-10  4.87690E-10  5.47864E-10  6.08010E-10  6.68109E-10  7.28137E-10  7.88070E-10  8.47878E-10  9.07532E-10
   9.66999E-10  1.02623E-09  1.08520E-09  1.14386E-09  1.20213E-09  1.25999E-09  1.31732E-09  1.37403E-09  1.43001E-09  1.48512E-09
   1.53917E-09  1.59197E-09  1.64323E-09  1.69259E-09  1.73962E-09  1.78371E-09  1.82412E-09  1.86015E-09  1.89299E-09  1.94668E-09
   2.03383E-09  2.11241E-09  2.21020E-09  2.36854E-09  2.54790E-09  2.73082E-09  2.92615E-09  3.12651E-09  3.31499E-09  3.47073E-09
   3.58788E-09  3.69848E-09  3.78566E-09  3.78926E-09  3.79084E-09  3.82710E-09  3.83281E-09  3.82737E-09  3.83901E-09  3.86182E-09
   3.89184E-09  3.92672E-09  3.96485E-09  4.00517E-09  4.04688E-09  4.08932E-09  4.13191E-09  4.17418E-09  4.21576E-09  4.25672E-09
   4.29858E-09  4.35267E-09  4.45733E-09  4.57465E-09  4.68279E-09  4.84790E-09  5.04290E-09  5.22301E-09  5.39496E-09  5.55698E-09
   5.69982E-09  5.80676E-09  5.86625E-09  5.89889E-09  5.94359E-09  5.92441E-09  5.86429E-09  5.87687E-09  5.88899E-09  5.87774E-09
   5.90356E-09  5.94206E-09  5.97507E-09  6.04718E-09  6.14397E-09  6.23288E-09  6.33883E-09  6.46243E-09  6.58820E-09  6.71083E-09
   6.81496E-09  6.91169E-09  7.01740E-09  7.08119E-09  7.10559E-09  7.16203E-09  7.20047E-09  7.19925E-09  7.21752E-09  7.24187E-09
   7.25735E-09  7.27715E-09  7.30133E-09  7.32828E-09  7.35684E-09  7.38609E-09  7.41539E-09  7.44427E-09  7.47236E-09  7.49936E-09
   7.52494E-09  7.54881E-09  7.57073E-09  7.59049E-09  7.60791E-09  7.62281E-09  7.63503E-09  7.64435E-09  7.65060E-09  7.65362E-09
   7.65325E-09  7.64932E-09  7.64170E-09  7.63019E-09  7.61468E-09  7.59499E-09  7.57098E-09  7.54250E-09  7.50939E-09  7.47149E-09
   7.42868E-09  7.38079E-09  7.32770E-09  7.26924E-09  7.20526E-09  7.13567E-09  7.06026E-09  6.97899E-09  6.89199E-09  6.79938E-09
   6.70129E-09  6.59788E-09  6.48929E-09  6.37565E-09  6.25713E-09  6.13387E-09  6.00606E-09  5.87383E-09  5.73737E-09  5.59683E-09
   5.45241E-09  5.30426E-09  5.15257E-09  4.99753E-09  4.83930E-09  4.67810E-09  4.51412E-09  4.34756E-09  4.17863E-09  4.00754E-09
   3.83461E-09  3.66010E-09  3.48447E-09  3.30845E-09  3.13363E-09  2.96474E-09  2.82516E-09  2.79625E-09  2.80137E-09  2.76956E-09
   2.67609E-09  2.53427E-09  2.37022E-09  2.19944E-09  2.01657E-09  1.79828E-09  1.51131E-09  1.14614E-09  7.75965E-10  5.43450E-10
   3.48929E-10  1.68009E-10 -5.39464E-12 -1.73494E-10 -3.37298E-10 -4.97314E-10 -6.53792E-10 -8.06922E-10 -9.56747E-10 -1.10334E-09
  -1.24669E-09 -1.38684E-09 -1.52372E-09 -1.65737E-09 -1.78774E-09 -1.91482E-09 -2.03857E-09 -2.15897E-09 -2.27598E-09 -2.38959E-09
  -2.49976E-09 -2.60646E-09 -2.70967E-09 -2.80935E-09 -2.90548E-09 -2.99804E-09 -3.08701E-09 -3.17236E-09 -3.25406E-09 -3.33210E-09
  -3.40645E-09 -3.47709E-09 -3.54403E-09 -3.60725E-09 -3.66668E-09 -3.72237E-09 -3.77428E-09 -3.82242E-09 -3.86676E-09 -3.90728E-09
  -3.94403E-09 -3.97694E-09 -4.00604E-09 -4.03134E-09 -4.05284E-09 -4.07048E-09 -4.08436E-09 -4.09444E-09 -4.10084E-09 -4.10372E-09
  -4.10324E-09 -4.09957E-09 -4.09287E-09 -4.08330E-09 -4.07103E-09 -4.05620E-09 -4.03898E-09 -4.01952E-09 -3.99799E-09 -3.97454E-09
  -3.94932E-09 -3.92248E-09 -3.89417E-09 -3.86455E-09 -3.83376E-09 -3.80195E-09 -3.76926E-09 -3.73583E-09 -3.70181E-09 -3.66733E-09
  -3.63252E-09 -3.59753E-09 -3.56248E-09 -3.52750E-09 -3.49272E-09 -3.45826E-09 -3.42425E-09 -3.39079E-09 -3.35802E-09 -3.32603E-09
  -3.29494E-09 -3.26486E-09 -3.23589E-09 -3.20812E-09 -3.18166E-09 -3.15660E-09 -3.13304E-09 -3.11104E-09 -3.09071E-09 -3.07212E-09
  -3.05534E-09 -3.04045E-09 -3.02751E-09 -3.01651E-09 -3.00736E-09 -2.99997E-09 -2.99425E-09 -2.99011E-09 -2.98745E-09 -2.98620E-09
  -2.98626E-09 -2.98754E-09 -2.98997E-09 -2.99344E-09 -2.99789E-09 -3.00320E-09 -3.00932E-09 -3.01615E-09 -3.02361E-09 -3.03163E-09
  -3.04011E-09 -3.04898E-09 -3.05816E-09 -3.06758E-09 -3.07715E-09 -3.08681E-09 -3.09648E-09 -3.10609E-09 -3.11555E-09 -3.12482E-09
  -3.13381E-09 -3.14245E-09 -3.15069E-09 -3.15845E-09 -3.16568E-09 -3.17231E-09 -3.17827E-09 -3.18352E-09 -3.18799E-09 -3.19163E-09
  -3.19438E-09 -3.19618E-09 -3.19699E-09 -3.19677E-09 -3.19545E-09 -3.19299E-09 -3.18935E-09 -3.18448E-09 -3.17835E-09 -3.17095E-09
  -3.16226E-09 -3.15225E-09 -3.14091E-09 -3.12824E-09 -3.11420E-09 -3.09879E-09 -3.08200E-09 -3.06380E-09 -3.04420E-09 -3.02316E-09
  -3.00068E-09 -2.97675E-09 -2.95136E-09 -2.92449E-09 -2.89613E-09 -2.86627E-09 -2.83491E-09 -2.80204E-09 -2.76764E-09 -2.73170E-09
  -2.69422E-09 -2.65519E-09 -2.61460E-09 -2.57245E-09 -2.52873E-09 -2.48344E-09 -2.43656E-09 -2.38809E-09 -2.33804E-09 -2.28639E-09
  -2.23314E-09 -2.17830E-09 -2.12185E-09 -2.06379E-09 -2.00413E-09 -1.94287E-09 -1.87999E-09 -1.81552E-09 -1.74943E-09 -1.68174E-09
  -1.61244E-09 -1.54155E-09 -1.46905E-09
 Gln      Conc. = 2.16E-09
  -1.63960E-09 -1.35888E-09 -9.54174E-10 -4.31371E-10  1.59145E-10  7.67424E-10  1.34737E-09  1.84730E-09  2.24127E-09  2.58916E-09
   2.76599E-09  2.64146E-09  2.60195E-09  2.44389E-09  2.27502E-09  2.16033E-09  2.08369E-09  2.03280E-09  2.00012E-09  1.98080E-09
   1.97158E-09  1.97013E-09  1.97471E-09  1.98408E-09  1.99744E-09  2.01433E-09  2.03377E-09  2.05526E-09  2.07865E-09  2.10328E-09
   2.12876E-09  2.15479E-09  2.18108E-09  2.20737E-09  2.23342E-09  2.25897E-09  2.28377E-09  2.30755E-09  2.33000E-09  2.35076E-09
   2.36955E-09  2.38596E-09  2.39972E-09  2.41047E-09  2.41757E-09  2.42039E-09  2.41826E-09  2.40944E-09  2.39296E-09  2.36904E-09
   2.33485E-09  2.28797E-09  2.22877E-09  2.16561E-09  2.16296E-09  2.41565E-09  2.79548E-09  3.18689E-09  3.82677E-09  4.69268E-09
   5.55088E-09  6.38836E-09  7.15945E-09  7.78861E-09  8.18206E-09  8.27085E-09  8.15169E-09  8.02670E-09  7.60548E-09  6.96113E-09
   6.50401E-09  6.21035E-09  6.02876E-09  6.03550E-09  6.18455E-09  6.60171E-09  7.14714E-09  7.74391E-09  8.37526E-09  8.98866E-09
   9.54924E-09  9.99396E-09  1.01694E-08  1.02204E-08  1.02470E-08  1.00248E-08  9.67640E-09  9.45959E-09  9.17250E-09  8.89030E-09
   8.68815E-09  8.54035E-09  8.43097E-09  8.34926E-09  8.28643E-09  8.23840E-09  8.20245E-09  8.17593E-09  8.15710E-09  8.14471E-09
   8.13729E-09  8.13356E-09  8.13281E-09  8.13441E-09  8.13790E-09  8.14281E-09  8.14856E-09  8.15474E-09  8.16098E-09  8.16695E-09
   8.17233E-09  8.17684E-09  8.18023E-09  8.18223E-09  8.18259E-09  8.18109E-09  8.17753E-09  8.17168E-09  8.16332E-09  8.15227E-09
   8.13833E-09  8.12131E-09  8.10104E-09  8.07731E-09  8.04998E-09  8.01884E-09  7.98373E-09  7.94450E-09  7.90095E-09  7.85292E-09
   7.80026E-09  7.74280E-09  7.68039E-09  7.61285E-09  7.54003E-09  7.46180E-09  7.37797E-09  7.28849E-09  7.19345E-09  7.09299E-09
   6.98721E-09  6.87628E-09  6.76031E-09  6.63945E-09  6.51385E-09  6.38365E-09  6.24902E-09  6.11011E-09  5.96709E-09  5.82012E-09
   5.66939E-09  5.51505E-09  5.35732E-09  5.19639E-09  5.03245E-09  4.86575E-09  4.69653E-09  4.52507E-09  4.35174E-09  4.17694E-09
   4.00135E-09  3.82584E-09  3.65203E-09  3.48297E-09  3.32552E-09  3.19901E-09  3.18186E-09  3.73292E-09  4.64840E-09  5.45403E-09
   5.91124E-09  6.03813E-09  5.97932E-09  5.85361E-09  5.66650E-09  5.30731E-09  4.58165E-09  3.36432E-09  1.92736E-09  1.16303E-09
   7.92230E-10  5.23793E-10  2.97005E-10  9.23153E-11 -9.85241E-11 -2.79594E-10 -4.53122E-10 -6.20482E-10 -7.82473E-10 -9.39673E-10
  -1.09242E-09 -1.24100E-09 -1.38555E-09 -1.52622E-09 -1.66309E-09 -1.79622E-09 -1.92564E-09 -2.05138E-09 -2.17345E-09 -2.29187E-09
  -2.40663E-09 -2.51772E-09 -2.62515E-09 -2.72889E-09 -2.82893E-09 -2.92528E-09 -3.01792E-09 -3.10682E-09 -3.19199E-09 -3.27339E-09
  -3.35101E-09 -3.42486E-09 -3.49492E-09 -3.56119E-09 -3.62361E-09 -3.68222E-09 -3.73699E-09 -3.78794E-09 -3.83503E-09 -3.87825E-09
  -3.91766E-09 -3.95318E-09 -3.98483E-09 -4.01266E-09 -4.03664E-09 -4.05672E-09 -4.07300E-09 -4.08545E-09 -4.09418E-09 -4.09935E-09
  -4.10114E-09 -4.09971E-09 -4.09521E-09 -4.08782E-09 -4.07769E-09 -4.06498E-09 -4.04985E-09 -4.03246E-09 -4.01296E-09 -3.99152E-09
