 LCModel (Version 6.3-1R) Copyright: S.W. Provencher.          Ref.: Magn. Reson. Med. 30:672-679 (1993).                
 onepulse 18x9_ftSpec_smooth_lcm
 26 lines in following concentration table = NCONC+1
    Conc.  %SD /Cr+PCr  Metabolite                                         
 7.79E-10  39%   1.970 Ala                                                 
 5.96E-09   9%  15.065 Asp                                                 
 3.96E-10  87%   1.000 Cr                                                  
 1.70E-09  33%   4.286 GABA                                                
 2.65E-09  18%   6.700 Glc                                                 
    0.000 999%   0.000 Gln                                                 
    0.000 999%   0.000 Glu                                                 
    0.000 999%   0.000 Glyc                                                
 1.06E-12 999% 2.7E-03 GPC                                                 
    0.000 999%   0.000 GSH                                                 
 9.50E-10  44%   2.401 Ins                                                 
 2.12E-10 148%   0.536 Lac                                                 
    0.000 999%   0.000 NAAG                                                
    0.000 999%   0.000 NAA                                                 
    0.000 999%   0.000 PCh                                                 
    0.000 999%   0.000 PCr                                                 
    0.000 999%   0.000 PE                                                  
    0.000 999%   0.000 Scyllo                                              
    0.000 999%   0.000 Ser                                                 
    0.000 999%   0.000 Tau                                                 
 1.06E-12 999% 2.7E-03 GPC+PCh                                             
    0.000 999%   0.000 NAA+NAAG                                            
 9.50E-10  44%   2.401 Ins+Glyc                                            
 3.96E-10  87%   1.000 Cr+PCr                                              
    0.000 999%   0.000 Glu+Gln                                             
   6 lines in following misc. output table
  FWHM = 0.123 ppm    S/N =   4                                            
  Data shift = 0.447 ppm                                                   
  Ph: -38 deg      87.3 deg/ppm                                            
  alphaB,S = 3.4E-01,   1.3E+01                                            
   10 spline knots.   Ns = 5(1)                                            
  (10) 6 infls.   ( 9) 5 extrs.                                            
  363 points on ppm-axis = NY
      4.250000     4.238821     4.227641     4.216462     4.205282     4.194103     4.182923     4.171744     4.160564     4.149385
      4.138206     4.127026     4.115847     4.104667     4.093488     4.082308     4.071129     4.059949     4.048770     4.037591
      4.026411     4.015232     4.004052     3.992873     3.981693     3.970514     3.959334     3.948155     3.936975     3.925796
      3.914617     3.903437     3.892258     3.881078     3.869899     3.858719     3.847540     3.836360     3.825181     3.814002
      3.802822     3.791643     3.780463     3.769284     3.758104     3.746925     3.735745     3.724566     3.713387     3.702207
      3.691028     3.679848     3.668669     3.657489     3.646310     3.635130     3.623951     3.612772     3.601592     3.590413
      3.579233     3.568054     3.556874     3.545695     3.534515     3.523336     3.512156     3.500977     3.489798     3.478618
      3.467439     3.456259     3.445080     3.433900     3.422721     3.411541     3.400362     3.389183     3.378003     3.366824
      3.355644     3.344465     3.333285     3.322106     3.310926     3.299747     3.288568     3.277388     3.266209     3.255029
      3.243850     3.232670     3.221491     3.210311     3.199132     3.187953     3.176773     3.165594     3.154414     3.143235
      3.132055     3.120876     3.109696     3.098517     3.087337     3.076158     3.064979     3.053799     3.042620     3.031440
      3.020261     3.009081     2.997902     2.986722     2.975543     2.964364     2.953184     2.942005     2.930825     2.919646
      2.908466     2.897287     2.886107     2.874928     2.863749     2.852569     2.841390     2.830210     2.819031     2.807851
      2.796672     2.785492     2.774313     2.763134     2.751954     2.740775     2.729595     2.718416     2.707236     2.696057
      2.684877     2.673698     2.662519     2.651339     2.640160     2.628980     2.617801     2.606621     2.595442     2.584262
      2.573083     2.561903     2.550724     2.539545     2.528365     2.517186     2.506006     2.494827     2.483647     2.472468
      2.461288     2.450109     2.438930     2.427750     2.416571     2.405391     2.394212     2.383032     2.371853     2.360673
      2.349494     2.338315     2.327135     2.315956     2.304776     2.293597     2.282417     2.271238     2.260058     2.248879
      2.237700     2.226520     2.215341     2.204161     2.192982     2.181802     2.170623     2.159443     2.148264     2.137084
      2.125905     2.114726     2.103546     2.092367     2.081187     2.070008     2.058828     2.047649     2.036469     2.025290
      2.014111     2.002931     1.991752     1.980572     1.969393     1.958213     1.947034     1.935854     1.924675     1.913496
      1.902316     1.891137     1.879957     1.868778     1.857598     1.846419     1.835239     1.824060     1.812881     1.801701
      1.790522     1.779342     1.768163     1.756983     1.745804     1.734624     1.723445     1.712265     1.701086     1.689907
      1.678727     1.667548     1.656368     1.645189     1.634009     1.622830     1.611650     1.600471     1.589292     1.578112
      1.566933     1.555753     1.544574     1.533394     1.522215     1.511035     1.499856     1.488677     1.477497     1.466318
      1.455138     1.443959     1.432779     1.421600     1.410420     1.399241     1.388062     1.376882     1.365703     1.354523
      1.343344     1.332164     1.320985     1.309805     1.298626     1.287446     1.276267     1.265088     1.253908     1.242729
      1.231549     1.220370     1.209190     1.198011     1.186831     1.175652     1.164473     1.153293     1.142114     1.130934
      1.119755     1.108575     1.097396     1.086216     1.075037     1.063858     1.052678     1.041499     1.030319     1.019140
      1.007960     0.996781     0.985601     0.974422     0.963243     0.952063     0.940884     0.929704     0.918525     0.907345
      0.896166     0.884986     0.873807     0.862628     0.851448     0.840269     0.829089     0.817910     0.806730     0.795551
      0.784371     0.773192     0.762012     0.750833     0.739654     0.728474     0.717295     0.706115     0.694936     0.683756
      0.672577     0.661397     0.650218     0.639039     0.627859     0.616680     0.605500     0.594321     0.583141     0.571962
      0.560782     0.549603     0.538424     0.527244     0.516065     0.504885     0.493706     0.482526     0.471347     0.460167
      0.448988     0.437809     0.426629     0.415450     0.404270     0.393091     0.381911     0.370732     0.359552     0.348373
      0.337193     0.326014     0.314835     0.303655     0.292476     0.281296     0.270117     0.258937     0.247758     0.236578
      0.225399     0.214220     0.203040
 NY phased data points follow
  -1.05737E-08 -1.11149E-08 -1.08149E-08 -1.20518E-08 -1.20294E-08 -1.25512E-08 -1.29488E-08 -1.39468E-08 -1.34629E-08 -1.33099E-08
  -1.32545E-08 -1.32627E-08 -1.27531E-08 -1.34239E-08 -1.31044E-08 -1.28507E-08 -1.30608E-08 -1.39856E-08 -1.38209E-08 -1.36568E-08
  -1.29813E-08 -1.26874E-08 -1.42085E-08 -1.55008E-08 -1.64166E-08 -1.66673E-08 -1.61187E-08 -1.55939E-08 -1.41510E-08 -1.30985E-08
  -1.28883E-08 -1.32518E-08 -1.20476E-08 -1.21863E-08 -1.16864E-08 -1.13608E-08 -1.05450E-08 -1.06340E-08 -9.56527E-09 -9.60487E-09
  -9.17888E-09 -8.45766E-09 -8.55086E-09 -9.29420E-09 -8.58204E-09 -8.12137E-09 -7.83824E-09 -7.04856E-09 -7.04083E-09 -7.68765E-09
  -8.11177E-09 -8.89940E-09 -9.36167E-09 -1.14236E-08 -1.32476E-08 -1.48064E-08 -1.47367E-08 -1.40466E-08 -1.16343E-08 -1.07099E-08
  -9.16157E-09 -8.48427E-09 -8.30334E-09 -7.04668E-09 -6.50595E-09 -6.00998E-09 -6.45392E-09 -6.89216E-09 -6.80261E-09 -9.28182E-09
  -1.14119E-08 -1.55103E-08 -1.55472E-08 -1.39856E-08 -1.21086E-08 -1.13143E-08 -9.36164E-09 -8.91809E-09 -7.32976E-09 -7.06174E-09
  -5.97216E-09 -5.81980E-09 -4.70121E-09 -4.41566E-09 -3.30652E-09 -2.81450E-09 -1.88805E-09 -1.18557E-09 -5.31787E-10 -1.12234E-09
  -4.61840E-10 -4.63527E-11  2.35147E-10 -1.32048E-10  2.91931E-10  9.70797E-10  1.07623E-09  8.97037E-10  2.10771E-09  2.00201E-09
   2.21098E-09  2.70527E-09  3.04140E-09  2.30053E-09  1.64146E-09  1.23978E-09  1.88114E-09  1.42899E-09  1.27787E-09  1.68815E-09
   2.16640E-09  1.84467E-09  2.02913E-09  2.27490E-09  3.65624E-09  3.56311E-09  3.64649E-09  3.52907E-09  3.35783E-09  2.37129E-09
   2.63084E-09  2.72113E-09  1.84202E-09  2.31718E-09  2.22697E-09  2.33915E-09  2.33132E-09  2.21398E-09  2.57797E-09  1.86572E-09
   1.72151E-09  8.66750E-10  1.49476E-09  1.91706E-09  3.18627E-09  3.44117E-09  3.29904E-09  3.53185E-09  4.38817E-09  4.46898E-09
   5.12707E-09  5.94331E-09  6.15863E-09  6.36188E-09  6.85755E-09  6.79368E-09  6.30600E-09  6.62109E-09  7.10959E-09  7.43558E-09
   6.57582E-09  6.94381E-09  6.74900E-09  6.36905E-09  6.79060E-09  7.04139E-09  6.38702E-09  6.02830E-09  5.28908E-09  4.80830E-09
   3.82246E-09  1.01111E-09  2.06994E-09  6.50942E-09  1.17251E-08  1.48199E-08  1.67667E-08  1.75354E-08  1.96297E-08  1.99190E-08
   2.02922E-08  2.00262E-08  2.05435E-08  2.04427E-08  2.01146E-08  1.95493E-08  1.89445E-08  1.80448E-08  1.66460E-08  1.52400E-08
   1.36516E-08  1.08413E-08  8.61032E-09  6.43034E-09  4.01109E-09  1.95080E-09 -5.40156E-10 -2.59922E-09 -4.68169E-09 -6.50477E-09
  -7.80337E-09 -8.57129E-09 -9.05847E-09 -8.88440E-09 -9.58278E-09 -8.79261E-09 -8.10561E-09 -7.24553E-09 -6.79964E-09 -5.91998E-09
  -5.22361E-09 -4.39017E-09 -3.32434E-09 -3.17067E-09 -3.61170E-09 -2.79874E-09 -3.21926E-09 -3.14057E-09 -3.09162E-09 -3.08298E-09
  -3.04410E-09 -3.30311E-09 -3.14487E-09 -2.95115E-09 -2.21089E-09 -2.72329E-09 -2.07979E-09 -2.16112E-09 -2.71633E-09 -3.05170E-09
  -2.94693E-09 -2.47127E-09 -2.59386E-09 -2.73395E-09 -1.82064E-09 -2.71026E-09 -3.04861E-09 -2.12579E-09 -2.40035E-09 -2.12799E-09
  -2.05014E-09 -2.68504E-09 -2.71095E-09 -2.80844E-09 -2.66620E-09 -2.61250E-09 -3.45714E-09 -2.96594E-09 -2.46310E-09 -1.96569E-09
  -2.53679E-09 -1.53629E-09 -1.57059E-09 -1.36498E-09 -1.73804E-09 -1.63437E-09 -1.39283E-09 -1.66377E-09 -1.64832E-09 -1.77108E-09
  -2.23486E-09 -2.25443E-09 -3.45554E-09 -2.81398E-09 -3.65940E-09 -3.14539E-09 -3.34616E-09 -2.76347E-09 -3.40521E-09 -2.30537E-09
  -2.15619E-09 -1.90467E-09 -1.62285E-09 -1.04565E-09 -9.46393E-10  1.49450E-10 -2.50957E-10 -5.60275E-10  1.18431E-10 -2.65470E-10
  -3.04433E-10 -4.24445E-10 -6.36552E-10 -4.07317E-10 -1.04432E-09 -6.07429E-10 -1.44482E-09 -1.03213E-09 -9.04073E-10 -1.26094E-09
  -1.82569E-09 -1.89970E-09 -1.84448E-09 -2.04395E-09 -1.74508E-09 -1.64242E-09 -1.93846E-09 -1.75396E-09 -2.00452E-09 -2.35628E-09
  -1.83257E-09 -2.36258E-09 -2.07419E-09 -1.99337E-09 -2.25487E-09 -1.91589E-09 -2.01588E-09 -2.23331E-09 -1.88983E-09 -1.87014E-09
  -1.82286E-09 -1.58116E-09 -1.53784E-09 -1.47175E-09 -1.61841E-09 -1.22742E-09 -1.19653E-09 -4.59930E-10 -1.44576E-09 -8.11264E-10
  -7.07217E-10 -3.84279E-10 -6.34840E-10  8.71663E-11 -4.30375E-10 -7.33529E-11  1.79886E-10  3.18914E-10  1.53531E-10  3.14103E-10
   8.14017E-10  1.17978E-09  3.01724E-10  1.21896E-09  1.01624E-09  1.32609E-09  1.02012E-09  1.91330E-09  1.58133E-09  1.47284E-09
   1.58850E-09  1.99258E-09  1.49498E-09  2.27205E-09  2.54712E-09  2.49947E-09  2.35019E-09  3.01927E-09  2.22494E-09  2.98012E-09
   3.24310E-09  3.83244E-09  3.12006E-09  3.76331E-09  3.15226E-09  3.95096E-09  3.59662E-09  4.02556E-09  3.78158E-09  4.27911E-09
   4.25320E-09  4.66786E-09  4.41444E-09  4.77780E-09  4.56639E-09  4.87875E-09  4.91272E-09  5.30731E-09  4.86179E-09  5.26326E-09
   4.84152E-09  4.91568E-09  5.28203E-09
 NY points of the fit to the data follow
  -9.41251E-09 -1.06727E-08 -1.19849E-08 -1.29138E-08 -1.29010E-08 -1.27354E-08 -1.40912E-08 -1.39611E-08 -1.31278E-08 -1.38554E-08
  -1.44152E-08 -1.41309E-08 -1.34613E-08 -1.24559E-08 -1.13081E-08 -1.12502E-08 -1.16186E-08 -1.18338E-08 -1.27534E-08 -1.38655E-08
  -1.39106E-08 -1.38384E-08 -1.42983E-08 -1.44796E-08 -1.46044E-08 -1.56578E-08 -1.65698E-08 -1.62502E-08 -1.54906E-08 -1.43997E-08
  -1.38592E-08 -1.26973E-08 -1.13750E-08 -1.13428E-08 -1.13817E-08 -1.06833E-08 -1.01290E-08 -9.90915E-09 -1.03629E-08 -1.08888E-08
  -1.08479E-08 -9.76966E-09 -9.48178E-09 -1.01389E-08 -7.85447E-09 -8.13166E-09 -9.55309E-09 -9.14248E-09 -8.32818E-09 -8.27504E-09
  -8.09178E-09 -7.64962E-09 -8.00003E-09 -9.17280E-09 -9.44248E-09 -1.17754E-08 -1.14105E-08 -1.04942E-08 -1.06541E-08 -1.11050E-08
  -1.04850E-08 -9.89692E-09 -9.92941E-09 -9.32234E-09 -7.83783E-09 -7.89207E-09 -8.30330E-09 -8.06750E-09 -7.74665E-09 -7.57588E-09
  -7.47345E-09 -7.60473E-09 -7.99454E-09 -7.74369E-09 -7.45833E-09 -8.16558E-09 -8.09176E-09 -7.53746E-09 -7.36579E-09 -6.93157E-09
  -6.51893E-09 -6.26762E-09 -5.49047E-09 -4.75751E-09 -4.58702E-09 -4.03807E-09 -3.36093E-09 -3.05997E-09 -2.65195E-09 -2.28511E-09
  -2.21672E-09 -1.92593E-09 -1.45720E-09 -1.64266E-09 -1.69799E-09 -1.16652E-09 -1.11061E-09 -1.10154E-09 -6.00716E-10  1.66810E-10
   7.14875E-10  6.73946E-10  1.28226E-09  2.10679E-09  2.35652E-09  2.45236E-09  2.68841E-09  3.02388E-09  3.19377E-09  3.29628E-09
   2.86184E-09  2.50896E-09  2.88202E-09  2.55265E-09  2.04154E-09  2.05884E-09  2.14500E-09  2.11860E-09  2.08344E-09  2.29227E-09
   2.29912E-09  2.26877E-09  2.37762E-09  2.51214E-09  2.65097E-09  2.78821E-09  2.92175E-09  3.05057E-09  3.17432E-09  3.29273E-09
   3.40565E-09  3.51301E-09  3.61479E-09  3.71100E-09  3.80156E-09  3.88651E-09  3.96583E-09  4.03954E-09  4.10764E-09  4.17014E-09
   4.22712E-09  4.27861E-09  4.32461E-09  4.36520E-09  4.40050E-09  4.43054E-09  4.45549E-09  4.47547E-09  4.49073E-09  4.50143E-09
   4.50800E-09  4.51078E-09  4.51026E-09  4.50724E-09  4.50261E-09  4.49772E-09  4.49423E-09  4.49505E-09  4.50418E-09  4.52777E-09
   4.57559E-09  4.66448E-09  4.82625E-09  5.12927E-09  5.75176E-09  7.32373E-09  1.30516E-08  1.98746E-08  2.17020E-08  2.08396E-08
   2.07377E-08  2.13304E-08  2.15058E-08  2.08170E-08  1.99984E-08  2.03929E-08  2.08453E-08  1.57835E-08  7.63700E-09  3.55523E-09
   2.32156E-09  1.73929E-09  1.37063E-09  1.09502E-09  8.67207E-10  6.66761E-10  4.83310E-10  3.11155E-10  1.46994E-10 -1.11685E-11
  -1.64558E-10 -3.13916E-10 -4.59706E-10 -6.02173E-10 -7.41447E-10 -8.77549E-10 -1.01046E-09 -1.14007E-09 -1.26629E-09 -1.38897E-09
  -1.50795E-09 -1.62306E-09 -1.73410E-09 -1.84090E-09 -1.94325E-09 -2.04095E-09 -2.13379E-09 -2.22157E-09 -2.30415E-09 -2.38162E-09
  -2.45411E-09 -2.52171E-09 -2.58456E-09 -2.64277E-09 -2.69645E-09 -2.74573E-09 -2.79071E-09 -2.83151E-09 -2.86824E-09 -2.90102E-09
  -2.92995E-09 -2.95517E-09 -2.97677E-09 -2.99488E-09 -3.00960E-09 -3.02105E-09 -3.02933E-09 -3.03458E-09 -3.03692E-09 -3.03642E-09
  -3.03322E-09 -3.02744E-09 -3.01918E-09 -3.00856E-09 -2.99569E-09 -2.98069E-09 -2.96368E-09 -2.94475E-09 -2.92402E-09 -2.90162E-09
  -2.87764E-09 -2.85219E-09 -2.82541E-09 -2.79740E-09 -2.76826E-09 -2.73810E-09 -2.70706E-09 -2.67524E-09 -2.64272E-09 -2.60963E-09
  -2.57609E-09 -2.54221E-09 -2.50809E-09 -2.47383E-09 -2.43957E-09 -2.40538E-09 -2.37139E-09 -2.33770E-09 -2.30443E-09 -2.27168E-09
  -2.23947E-09 -2.20775E-09 -2.17647E-09 -2.14556E-09 -2.11496E-09 -2.08463E-09 -2.05449E-09 -2.02449E-09 -1.99458E-09 -1.96469E-09
  -1.93477E-09 -1.90476E-09 -1.87461E-09 -1.84425E-09 -1.81363E-09 -1.78270E-09 -1.75140E-09 -1.71968E-09 -1.68748E-09 -1.65475E-09
  -1.62142E-09 -1.58746E-09 -1.55280E-09 -1.51739E-09 -1.48119E-09 -1.44414E-09 -1.40617E-09 -1.36725E-09 -1.32734E-09 -1.28637E-09
  -1.24429E-09 -1.20105E-09 -1.15660E-09 -1.11091E-09 -1.06391E-09 -1.01557E-09 -9.65831E-10 -9.14646E-10 -8.61970E-10 -8.07768E-10
  -7.51990E-10 -6.94567E-10 -6.35494E-10 -5.74699E-10 -5.12147E-10 -4.47810E-10 -3.81630E-10 -3.13555E-10 -2.43579E-10 -1.71623E-10
  -9.76765E-11 -2.17082E-11  5.62742E-11  1.36187E-10  2.17958E-10  3.01514E-10  3.86785E-10  4.73700E-10  5.62189E-10  6.52181E-10
   7.43603E-10  8.36395E-10  9.30480E-10  1.02579E-09  1.12226E-09  1.21981E-09  1.31839E-09  1.41791E-09  1.51833E-09  1.61956E-09
   1.72154E-09  1.82421E-09  1.92751E-09  2.03135E-09  2.13569E-09  2.24045E-09  2.34557E-09  2.45098E-09  2.55664E-09  2.66246E-09
   2.76839E-09  2.87437E-09  2.98033E-09  3.08622E-09  3.19198E-09  3.29753E-09  3.40283E-09  3.50782E-09  3.61243E-09  3.71662E-09
   3.82031E-09  3.92346E-09  4.02600E-09  4.12789E-09  4.22907E-09  4.32948E-09  4.42906E-09  4.52778E-09  4.62556E-09  4.72237E-09
   4.81814E-09  4.91283E-09  5.00638E-09
 NY background values follow
    -2.516E-08   -2.500E-08   -2.484E-08   -2.467E-08   -2.450E-08   -2.433E-08   -2.416E-08   -2.398E-08   -2.380E-08   -2.363E-08
    -2.345E-08   -2.327E-08   -2.308E-08   -2.290E-08   -2.271E-08   -2.252E-08   -2.233E-08   -2.214E-08   -2.195E-08   -2.175E-08
    -2.155E-08   -2.136E-08   -2.115E-08   -2.095E-08   -2.075E-08   -2.054E-08   -2.033E-08   -2.012E-08   -1.991E-08   -1.970E-08
    -1.949E-08   -1.927E-08   -1.905E-08   -1.883E-08   -1.861E-08   -1.839E-08   -1.816E-08   -1.793E-08   -1.770E-08   -1.747E-08
    -1.724E-08   -1.701E-08   -1.677E-08   -1.653E-08   -1.629E-08   -1.605E-08   -1.581E-08   -1.556E-08   -1.532E-08   -1.507E-08
    -1.482E-08   -1.457E-08   -1.431E-08   -1.406E-08   -1.380E-08   -1.354E-08   -1.328E-08   -1.302E-08   -1.276E-08   -1.249E-08
    -1.223E-08   -1.196E-08   -1.170E-08   -1.143E-08   -1.116E-08   -1.089E-08   -1.062E-08   -1.035E-08   -1.008E-08   -9.811E-09
    -9.540E-09   -9.270E-09   -9.000E-09   -8.730E-09   -8.460E-09   -8.191E-09   -7.923E-09   -7.655E-09   -7.388E-09   -7.122E-09
    -6.857E-09   -6.593E-09   -6.331E-09   -6.069E-09   -5.809E-09   -5.551E-09   -5.295E-09   -5.040E-09   -4.787E-09   -4.536E-09
    -4.288E-09   -4.041E-09   -3.797E-09   -3.556E-09   -3.317E-09   -3.080E-09   -2.847E-09   -2.617E-09   -2.389E-09   -2.165E-09
    -1.944E-09   -1.727E-09   -1.513E-09   -1.303E-09   -1.096E-09   -8.933E-10   -6.945E-10   -4.997E-10   -3.089E-10   -1.222E-10
     6.042E-11    2.388E-10    4.130E-10    5.828E-10    7.483E-10    9.095E-10    1.066E-09    1.218E-09    1.366E-09    1.509E-09
     1.647E-09    1.780E-09    1.909E-09    2.033E-09    2.152E-09    2.266E-09    2.375E-09    2.479E-09    2.578E-09    2.672E-09
     2.761E-09    2.844E-09    2.922E-09    2.995E-09    3.062E-09    3.124E-09    3.180E-09    3.231E-09    3.276E-09    3.316E-09
     3.349E-09    3.378E-09    3.400E-09    3.417E-09    3.427E-09    3.432E-09    3.431E-09    3.424E-09    3.410E-09    3.391E-09
     3.366E-09    3.334E-09    3.296E-09    3.252E-09    3.202E-09    3.145E-09    3.082E-09    3.012E-09    2.937E-09    2.856E-09
     2.769E-09    2.677E-09    2.580E-09    2.478E-09    2.372E-09    2.261E-09    2.145E-09    2.026E-09    1.903E-09    1.777E-09
     1.647E-09    1.514E-09    1.378E-09    1.239E-09    1.098E-09    9.550E-10    8.098E-10    6.629E-10    5.146E-10    3.649E-10
     2.142E-10    6.265E-11   -8.948E-11   -2.420E-10   -3.946E-10   -5.471E-10   -6.993E-10   -8.510E-10   -1.002E-09   -1.152E-09
    -1.300E-09   -1.447E-09   -1.593E-09   -1.736E-09   -1.878E-09   -2.017E-09   -2.153E-09   -2.287E-09   -2.417E-09   -2.544E-09
    -2.668E-09   -2.788E-09   -2.904E-09   -3.015E-09   -3.123E-09   -3.225E-09   -3.323E-09   -3.416E-09   -3.503E-09   -3.586E-09
    -3.663E-09   -3.735E-09   -3.803E-09   -3.865E-09   -3.923E-09   -3.977E-09   -4.026E-09   -4.071E-09   -4.112E-09   -4.149E-09
    -4.182E-09   -4.211E-09   -4.237E-09   -4.259E-09   -4.277E-09   -4.292E-09   -4.304E-09   -4.313E-09   -4.318E-09   -4.321E-09
    -4.321E-09   -4.319E-09   -4.314E-09   -4.306E-09   -4.296E-09   -4.284E-09   -4.270E-09   -4.253E-09   -4.235E-09   -4.216E-09
    -4.194E-09   -4.171E-09   -4.147E-09   -4.121E-09   -4.094E-09   -4.066E-09   -4.037E-09   -4.008E-09   -3.977E-09   -3.946E-09
    -3.914E-09   -3.882E-09   -3.850E-09   -3.817E-09   -3.785E-09   -3.752E-09   -3.720E-09   -3.688E-09   -3.656E-09   -3.624E-09
    -3.593E-09   -3.563E-09   -3.533E-09   -3.503E-09   -3.474E-09   -3.444E-09   -3.415E-09   -3.386E-09   -3.357E-09   -3.328E-09
    -3.299E-09   -3.270E-09   -3.240E-09   -3.210E-09   -3.180E-09   -3.150E-09   -3.119E-09   -3.088E-09   -3.056E-09   -3.024E-09
    -2.991E-09   -2.957E-09   -2.923E-09   -2.887E-09   -2.851E-09   -2.814E-09   -2.776E-09   -2.738E-09   -2.698E-09   -2.657E-09
    -2.614E-09   -2.571E-09   -2.526E-09   -2.480E-09   -2.433E-09   -2.384E-09   -2.334E-09   -2.283E-09   -2.229E-09   -2.175E-09
    -2.118E-09   -2.060E-09   -2.001E-09   -1.939E-09   -1.876E-09   -1.811E-09   -1.744E-09   -1.675E-09   -1.604E-09   -1.531E-09
    -1.457E-09   -1.380E-09   -1.301E-09   -1.220E-09   -1.137E-09   -1.052E-09   -9.657E-10   -8.776E-10   -7.879E-10   -6.966E-10
    -6.039E-10   -5.098E-10   -4.143E-10   -3.176E-10   -2.197E-10   -1.207E-10   -2.064E-11    8.042E-11    1.824E-10    2.852E-10
     3.889E-10    4.932E-10    5.982E-10    7.038E-10    8.099E-10    9.164E-10    1.023E-09    1.131E-09    1.238E-09    1.346E-09
     1.454E-09    1.562E-09    1.670E-09    1.778E-09    1.886E-09    1.993E-09    2.101E-09    2.208E-09    2.315E-09    2.421E-09
     2.527E-09    2.632E-09    2.737E-09    2.842E-09    2.945E-09    3.048E-09    3.150E-09    3.251E-09    3.351E-09    3.451E-09
     3.549E-09    3.646E-09    3.742E-09
 Ala      Conc. = 7.79E-10
  -2.44406E-08 -2.43705E-08 -2.41967E-08 -2.40643E-08 -2.39603E-08 -2.37780E-08 -2.36918E-08 -2.37270E-08 -2.34865E-08 -2.32843E-08
  -2.33322E-08 -2.31701E-08 -2.29480E-08 -2.28268E-08 -2.26655E-08 -2.24824E-08 -2.22912E-08 -2.20958E-08 -2.18979E-08 -2.16978E-08
  -2.14959E-08 -2.12924E-08 -2.10873E-08 -2.08806E-08 -2.06724E-08 -2.04626E-08 -2.02512E-08 -2.00382E-08 -1.98236E-08 -1.96074E-08
  -1.93894E-08 -1.91700E-08 -1.89488E-08 -1.87259E-08 -1.85013E-08 -1.82751E-08 -1.80472E-08 -1.78175E-08 -1.75861E-08 -1.73532E-08
  -1.71183E-08 -1.68816E-08 -1.66433E-08 -1.64033E-08 -1.61614E-08 -1.59179E-08 -1.56724E-08 -1.54253E-08 -1.51764E-08 -1.49258E-08
  -1.46732E-08 -1.44188E-08 -1.41626E-08 -1.39047E-08 -1.36451E-08 -1.33838E-08 -1.31211E-08 -1.28569E-08 -1.25914E-08 -1.23246E-08
  -1.20567E-08 -1.17877E-08 -1.15177E-08 -1.12468E-08 -1.09752E-08 -1.07029E-08 -1.04299E-08 -1.01564E-08 -9.88252E-09 -9.60829E-09
  -9.33380E-09 -9.05913E-09 -8.78438E-09 -8.50963E-09 -8.23495E-09 -7.96040E-09 -7.68608E-09 -7.41206E-09 -7.13827E-09 -6.86493E-09
  -6.59199E-09 -6.31950E-09 -6.04737E-09 -5.77572E-09 -5.50447E-09 -5.23343E-09 -4.96256E-09 -4.69157E-09 -4.42023E-09 -4.14810E-09
  -3.87446E-09 -3.59852E-09 -3.31865E-09 -3.03292E-09 -2.73772E-09 -2.42689E-09 -2.08907E-09 -1.69946E-09 -1.19210E-09 -3.43813E-10
   3.12341E-10  3.11548E-10  9.24354E-10  1.72954E-09  1.93714E-09  1.95641E-09  2.02900E-09  2.17559E-09  2.36703E-09  2.33245E-09
   1.71863E-09  1.34322E-09  1.73876E-09  1.41763E-09  9.01475E-10  8.99256E-10  1.00449E-09  1.13955E-09  1.28337E-09  1.42837E-09
   1.57138E-09  1.71084E-09  1.84599E-09  1.97637E-09  2.10176E-09  2.22197E-09  2.33697E-09  2.44660E-09  2.55087E-09  2.64973E-09
   2.74314E-09  2.83104E-09  2.91340E-09  2.99024E-09  3.06148E-09  3.12710E-09  3.18705E-09  3.24134E-09  3.28988E-09  3.33265E-09
   3.36965E-09  3.40085E-09  3.42616E-09  3.44558E-09  3.45912E-09  3.46668E-09  3.46827E-09  3.46383E-09  3.45338E-09  3.43683E-09
   3.41426E-09  3.38559E-09  3.35078E-09  3.30993E-09  3.26301E-09  3.21011E-09  3.15119E-09  3.08670E-09  3.01706E-09  2.94284E-09
   2.86484E-09  2.78430E-09  2.70339E-09  2.62653E-09  2.56485E-09  2.55659E-09  2.80633E-09  3.22951E-09  3.13030E-09  2.92223E-09
   2.81035E-09  2.73677E-09  2.61924E-09  2.43895E-09  2.24679E-09  2.14808E-09  2.07440E-09  1.61297E-09  8.24559E-10  5.32724E-10
   3.34264E-10  1.61043E-10 -2.65547E-12 -1.61926E-10 -3.18756E-10 -4.73974E-10 -6.27924E-10 -7.80705E-10 -9.32279E-10 -1.08255E-09
  -1.23137E-09 -1.37856E-09 -1.52395E-09 -1.66732E-09 -1.80847E-09 -1.94719E-09 -2.08327E-09 -2.21647E-09 -2.34659E-09 -2.47341E-09
  -2.59669E-09 -2.71621E-09 -2.83175E-09 -2.94310E-09 -3.05002E-09 -3.15230E-09 -3.24969E-09 -3.34201E-09 -3.42909E-09 -3.51102E-09
  -3.58791E-09 -3.65987E-09 -3.72701E-09 -3.78944E-09 -3.84729E-09 -3.90066E-09 -3.94966E-09 -3.99440E-09 -4.03501E-09 -4.07160E-09
  -4.10427E-09 -4.13314E-09 -4.15833E-09 -4.17995E-09 -4.19812E-09 -4.21294E-09 -4.22452E-09 -4.23300E-09 -4.23850E-09 -4.24109E-09
  -4.24090E-09 -4.23808E-09 -4.23269E-09 -4.22489E-09 -4.21477E-09 -4.20245E-09 -4.18805E-09 -4.17167E-09 -4.15343E-09 -4.13345E-09
  -4.11183E-09 -4.08868E-09 -4.06414E-09 -4.03830E-09 -4.01127E-09 -3.98318E-09 -3.95413E-09 -3.92425E-09 -3.89361E-09 -3.86234E-09
  -3.83057E-09 -3.79841E-09 -3.76594E-09 -3.73328E-09 -3.70057E-09 -3.66787E-09 -3.63532E-09 -3.60302E-09 -3.57108E-09 -3.53962E-09
  -3.50864E-09 -3.47810E-09 -3.44795E-09 -3.41812E-09 -3.38856E-09 -3.35920E-09 -3.33000E-09 -3.30089E-09 -3.27181E-09 -3.24271E-09
  -3.21353E-09 -3.18422E-09 -3.15472E-09 -3.12496E-09 -3.09490E-09 -3.06449E-09 -3.03366E-09 -3.00237E-09 -2.97054E-09 -2.93815E-09
  -2.90512E-09 -2.87141E-09 -2.83696E-09 -2.80171E-09 -2.76564E-09 -2.72867E-09 -2.69074E-09 -2.65182E-09 -2.61187E-09 -2.57082E-09
  -2.52861E-09 -2.48521E-09 -2.44056E-09 -2.39464E-09 -2.34736E-09 -2.29870E-09 -2.24860E-09 -2.19702E-09 -2.14391E-09 -2.08924E-09
  -2.03296E-09 -1.97499E-09 -1.91533E-09 -1.85392E-09 -1.79071E-09 -1.72568E-09 -1.65877E-09 -1.58993E-09 -1.51916E-09 -1.44637E-09
  -1.37155E-09 -1.29468E-09 -1.21575E-09 -1.13487E-09 -1.05209E-09 -9.67487E-10 -8.81139E-10 -7.93112E-10 -7.03480E-10 -6.12309E-10
  -5.19677E-10 -4.25642E-10 -3.30281E-10 -2.33662E-10 -1.35856E-10 -3.69280E-11  6.30529E-11  1.64017E-10  2.65901E-10  3.68636E-10
   4.72149E-10  5.76380E-10  6.81269E-10  7.86735E-10  8.92725E-10  9.99172E-10  1.10601E-09  1.21317E-09  1.32060E-09  1.42822E-09
   1.53599E-09  1.64383E-09  1.75169E-09  1.85950E-09  1.96720E-09  2.07474E-09  2.18205E-09  2.28907E-09  2.39575E-09  2.50202E-09
   2.60784E-09  2.71313E-09  2.81785E-09  2.92195E-09  3.02536E-09  3.12803E-09  3.22989E-09  3.33092E-09  3.43104E-09  3.53021E-09
   3.62838E-09  3.72548E-09  3.82149E-09
 Asp      Conc. = 5.96E-09
  -2.13467E-08 -2.23556E-08 -2.28081E-08 -2.30762E-08 -2.36249E-08 -2.36566E-08 -2.44043E-08 -2.43190E-08 -2.40591E-08 -2.37661E-08
  -2.34713E-08 -2.31794E-08 -2.28837E-08 -2.25891E-08 -2.23072E-08 -2.20293E-08 -2.17533E-08 -2.14778E-08 -2.12020E-08 -2.09249E-08
  -2.06457E-08 -2.03634E-08 -2.00771E-08 -1.97859E-08 -1.94886E-08 -1.91838E-08 -1.88699E-08 -1.85448E-08 -1.82059E-08 -1.78497E-08
  -1.74710E-08 -1.70627E-08 -1.66130E-08 -1.61015E-08 -1.54884E-08 -1.46964E-08 -1.40642E-08 -1.35091E-08 -1.33218E-08 -1.31256E-08
  -1.25859E-08 -1.16046E-08 -9.87463E-09 -8.92841E-09 -6.88260E-09 -7.29980E-09 -8.32874E-09 -7.93714E-09 -7.23369E-09 -7.31390E-09
  -7.26931E-09 -6.96474E-09 -7.45348E-09 -8.76708E-09 -9.18138E-09 -1.16662E-08 -1.14658E-08 -1.07340E-08 -1.11120E-08 -1.18414E-08
  -1.16142E-08 -1.16418E-08 -1.18433E-08 -1.12601E-08 -1.06337E-08 -1.08886E-08 -1.09090E-08 -1.07457E-08 -1.05154E-08 -1.02549E-08
  -9.97924E-09 -9.69541E-09 -9.40716E-09 -9.11664E-09 -8.82520E-09 -8.53367E-09 -8.24265E-09 -7.95256E-09 -7.66355E-09 -7.37605E-09
  -7.09013E-09 -6.80597E-09 -6.52360E-09 -6.24328E-09 -5.96509E-09 -5.68901E-09 -5.41525E-09 -5.14381E-09 -4.87486E-09 -4.60848E-09
  -4.34470E-09 -4.08375E-09 -3.82550E-09 -3.57027E-09 -3.31807E-09 -3.06890E-09 -2.82293E-09 -2.58030E-09 -2.34112E-09 -2.10540E-09
  -1.87340E-09 -1.64496E-09 -1.42034E-09 -1.19973E-09 -9.82986E-10 -7.70399E-10 -5.61972E-10 -3.57712E-10 -1.57671E-10  3.81012E-11
   2.29578E-10  4.16671E-10  5.99365E-10  7.77608E-10  9.51331E-10  1.12054E-09  1.28514E-09  1.44510E-09  1.60039E-09  1.75094E-09
   1.89674E-09  2.03770E-09  2.17382E-09  2.30501E-09  2.43128E-09  2.55252E-09  2.66877E-09  2.77991E-09  2.88594E-09  2.98684E-09
   3.08254E-09  3.17299E-09  3.25817E-09  3.33808E-09  3.41264E-09  3.48184E-09  3.54565E-09  3.60405E-09  3.65700E-09  3.70447E-09
   3.74650E-09  3.78307E-09  3.81412E-09  3.83970E-09  3.85987E-09  3.87457E-09  3.88390E-09  3.88788E-09  3.88663E-09  3.88020E-09
   3.86884E-09  3.85268E-09  3.83197E-09  3.80715E-09  3.77867E-09  3.74729E-09  3.71384E-09  3.68011E-09  3.64843E-09  3.62236E-09
   3.60764E-09  3.61421E-09  3.66109E-09  3.79020E-09  4.11460E-09  5.05427E-09  8.78160E-09  1.13699E-08  1.09999E-08  1.04736E-08
   1.06055E-08  1.08290E-08  1.06717E-08  1.01032E-08  9.71321E-09  1.01157E-08  9.98044E-09  5.97267E-09  2.35051E-09  1.37950E-09
   9.31642E-10  6.40980E-10  4.13708E-10  2.17004E-10  3.69477E-11 -1.33138E-10 -2.96749E-10 -4.55802E-10 -6.11367E-10 -7.64051E-10
  -9.14175E-10 -1.06187E-09 -1.20718E-09 -1.35006E-09 -1.49041E-09 -1.62809E-09 -1.76296E-09 -1.89484E-09 -2.02355E-09 -2.14889E-09
  -2.27065E-09 -2.38864E-09 -2.50263E-09 -2.61242E-09 -2.71779E-09 -2.81853E-09 -2.91441E-09 -3.00521E-09 -3.09080E-09 -3.17127E-09
  -3.24672E-09 -3.31726E-09 -3.38301E-09 -3.44409E-09 -3.50060E-09 -3.55266E-09 -3.60038E-09 -3.64387E-09 -3.68326E-09 -3.71865E-09
  -3.75014E-09 -3.77787E-09 -3.80194E-09 -3.82247E-09 -3.83957E-09 -3.85335E-09 -3.86392E-09 -3.87141E-09 -3.87593E-09 -3.87758E-09
  -3.87648E-09 -3.87275E-09 -3.86650E-09 -3.85784E-09 -3.84689E-09 -3.83377E-09 -3.81858E-09 -3.80143E-09 -3.78245E-09 -3.76175E-09
