 LCModel (Version 6.3-1R) Copyright: S.W. Provencher.          Ref.: Magn. Reson. Med. 30:672-679 (1993).                
 onepulse 19x13_ftSpec_smooth_lcm
 26 lines in following concentration table = NCONC+1
    Conc.  %SD /Cr+PCr  Metabolite                                         
    0.000 999%   0.000 Ala                                                 
    0.000 999%   0.000 Asp                                                 
 3.06E-10  49%   1.000 Cr                                                  
    0.000 999%   0.000 GABA                                                
    0.000 999%   0.000 Glc                                                 
 3.00E-09  12%   9.808 Gln                                                 
    0.000 999%   0.000 Glu                                                 
 1.06E-09  19%   3.471 Glyc                                                
 2.91E-10  17%   0.952 GPC                                                 
    0.000 999%   0.000 GSH                                                 
    0.000 999%   0.000 Ins                                                 
    0.000 999%   0.000 Lac                                                 
 1.08E-10 187%   0.351 NAAG                                                
 2.60E-10  95%   0.849 NAA                                                 
    0.000 999%   0.000 PCh                                                 
    0.000 999%   0.000 PCr                                                 
    0.000 999%   0.000 PE                                                  
 3.30E-10  21%   1.077 Scyllo                                              
 1.81E-09  21%   5.904 Ser                                                 
    0.000 999%   0.000 Tau                                                 
 2.91E-10  17%   0.952 GPC+PCh                                             
 3.67E-10  42%   1.200 NAA+NAAG                                            
 1.06E-09  19%   3.471 Ins+Glyc                                            
 3.06E-10  49%   1.000 Cr+PCr                                              
 3.00E-09  12%   9.808 Glu+Gln                                             
   6 lines in following misc. output table
  FWHM = 0.078 ppm    S/N =   5                                            
  Data shift = 0.347 ppm                                                   
  Ph: -45 deg     -25.4 deg/ppm                                            
  alphaB,S = 1.8E-01,   4.2E+01                                            
   16 spline knots.   Ns = 5(1)                                            
  ( 7) 2 infls.   ( 5) 1 extrs.                                            
  363 points on ppm-axis = NY
      4.250000     4.238821     4.227641     4.216462     4.205282     4.194103     4.182923     4.171744     4.160564     4.149385
      4.138206     4.127026     4.115847     4.104667     4.093488     4.082308     4.071129     4.059949     4.048770     4.037591
      4.026411     4.015232     4.004052     3.992873     3.981693     3.970514     3.959334     3.948155     3.936975     3.925796
      3.914617     3.903437     3.892258     3.881078     3.869899     3.858719     3.847540     3.836360     3.825181     3.814002
      3.802822     3.791643     3.780463     3.769284     3.758104     3.746925     3.735745     3.724566     3.713387     3.702207
      3.691028     3.679848     3.668669     3.657489     3.646310     3.635130     3.623951     3.612772     3.601592     3.590413
      3.579233     3.568054     3.556874     3.545695     3.534515     3.523336     3.512156     3.500977     3.489798     3.478618
      3.467439     3.456259     3.445080     3.433900     3.422721     3.411541     3.400362     3.389183     3.378003     3.366824
      3.355644     3.344465     3.333285     3.322106     3.310926     3.299747     3.288568     3.277388     3.266209     3.255029
      3.243850     3.232670     3.221491     3.210311     3.199132     3.187953     3.176773     3.165594     3.154414     3.143235
      3.132055     3.120876     3.109696     3.098517     3.087337     3.076158     3.064979     3.053799     3.042620     3.031440
      3.020261     3.009081     2.997902     2.986722     2.975543     2.964364     2.953184     2.942005     2.930825     2.919646
      2.908466     2.897287     2.886107     2.874928     2.863749     2.852569     2.841390     2.830210     2.819031     2.807851
      2.796672     2.785492     2.774313     2.763134     2.751954     2.740775     2.729595     2.718416     2.707236     2.696057
      2.684877     2.673698     2.662519     2.651339     2.640160     2.628980     2.617801     2.606621     2.595442     2.584262
      2.573083     2.561903     2.550724     2.539545     2.528365     2.517186     2.506006     2.494827     2.483647     2.472468
      2.461288     2.450109     2.438930     2.427750     2.416571     2.405391     2.394212     2.383032     2.371853     2.360673
      2.349494     2.338315     2.327135     2.315956     2.304776     2.293597     2.282417     2.271238     2.260058     2.248879
      2.237700     2.226520     2.215341     2.204161     2.192982     2.181802     2.170623     2.159443     2.148264     2.137084
      2.125905     2.114726     2.103546     2.092367     2.081187     2.070008     2.058828     2.047649     2.036469     2.025290
      2.014111     2.002931     1.991752     1.980572     1.969393     1.958213     1.947034     1.935854     1.924675     1.913496
      1.902316     1.891137     1.879957     1.868778     1.857598     1.846419     1.835239     1.824060     1.812881     1.801701
      1.790522     1.779342     1.768163     1.756983     1.745804     1.734624     1.723445     1.712265     1.701086     1.689907
      1.678727     1.667548     1.656368     1.645189     1.634009     1.622830     1.611650     1.600471     1.589292     1.578112
      1.566933     1.555753     1.544574     1.533394     1.522215     1.511035     1.499856     1.488677     1.477497     1.466318
      1.455138     1.443959     1.432779     1.421600     1.410420     1.399241     1.388062     1.376882     1.365703     1.354523
      1.343344     1.332164     1.320985     1.309805     1.298626     1.287446     1.276267     1.265088     1.253908     1.242729
      1.231549     1.220370     1.209190     1.198011     1.186831     1.175652     1.164473     1.153293     1.142114     1.130934
      1.119755     1.108575     1.097396     1.086216     1.075037     1.063858     1.052678     1.041499     1.030319     1.019140
      1.007960     0.996781     0.985601     0.974422     0.963243     0.952063     0.940884     0.929704     0.918525     0.907345
      0.896166     0.884986     0.873807     0.862628     0.851448     0.840269     0.829089     0.817910     0.806730     0.795551
      0.784371     0.773192     0.762012     0.750833     0.739654     0.728474     0.717295     0.706115     0.694936     0.683756
      0.672577     0.661397     0.650218     0.639039     0.627859     0.616680     0.605500     0.594321     0.583141     0.571962
      0.560782     0.549603     0.538424     0.527244     0.516065     0.504885     0.493706     0.482526     0.471347     0.460167
      0.448988     0.437809     0.426629     0.415450     0.404270     0.393091     0.381911     0.370732     0.359552     0.348373
      0.337193     0.326014     0.314835     0.303655     0.292476     0.281296     0.270117     0.258937     0.247758     0.236578
      0.225399     0.214220     0.203040
 NY phased data points follow
   1.69802E-08  1.55442E-08  1.27159E-08  1.05524E-08  9.30026E-09  9.10579E-09  8.94013E-09  8.94657E-09  8.66986E-09  9.89994E-09
   9.48403E-09  9.77815E-09  1.01466E-08  9.76927E-09  1.00468E-08  1.04243E-08  9.56032E-09  8.58835E-09  8.11471E-09  8.27970E-09
   7.87262E-09  7.80183E-09  8.08053E-09  8.64313E-09  8.69142E-09  8.87855E-09  8.86130E-09  8.34650E-09  7.37239E-09  7.98925E-09
   8.71489E-09  1.01816E-08  1.07948E-08  9.58021E-09  8.26826E-09  6.40253E-09  4.72565E-09  3.85420E-09  4.09980E-09  4.12190E-09
   3.85441E-09  3.70249E-09  3.81943E-09  4.10329E-09  3.66244E-09  2.98096E-09  2.47774E-09  2.82128E-09  3.28072E-09  4.26829E-09
   4.29961E-09  3.98036E-09  4.14115E-09  4.60975E-09  3.70307E-09  3.62524E-09  3.59677E-09  4.53451E-09  5.09477E-09  6.04719E-09
   7.26359E-09  8.57695E-09  1.06591E-08  1.31012E-08  1.31064E-08  1.12849E-08  7.70241E-09  5.82774E-09  4.37740E-09  3.73579E-09
   3.69541E-09  3.37061E-09  3.19225E-09  2.66144E-09  3.01305E-09  3.90651E-09  4.07062E-09  6.09580E-09  7.68852E-09  1.03883E-08
   1.36889E-08  1.38942E-08  1.08594E-08  8.73373E-09  7.06786E-09  5.85585E-09  5.96436E-09  5.58228E-09  4.61342E-09  4.37776E-09
   3.99076E-09  3.31142E-09  3.03303E-09  2.94506E-09  2.03788E-09  1.84952E-09  2.22062E-09  1.60267E-09  1.68968E-09  1.87816E-09
   1.51123E-09  1.49776E-09  2.70155E-09  2.13995E-09  2.17846E-09  1.35906E-09  2.18915E-09  1.29668E-09  1.69466E-09  1.09912E-09
   3.90059E-10  6.03432E-10  3.08075E-10  1.59597E-09  1.99481E-09  1.95674E-09  1.79460E-09  2.66173E-09  2.89576E-09  2.54623E-09
   2.65279E-09  2.57572E-09  2.57020E-09  1.24489E-09  9.72814E-10  1.09011E-09  1.22246E-09  6.57633E-10  8.60276E-10  1.94235E-09
   1.59967E-09  1.94011E-09  2.06269E-09  1.88216E-09  2.52407E-09  2.10132E-09  1.76922E-09  1.85668E-09  2.03787E-09  2.92830E-09
   3.93671E-09  4.53942E-09  4.43101E-09  3.72908E-09  3.54581E-09  3.60365E-09  4.54082E-09  3.98988E-09  4.91057E-09  3.68433E-09
   3.66966E-09  3.13412E-09  3.24987E-09  2.94356E-09  2.82833E-09  2.91966E-09  3.14096E-09  2.90888E-09  3.37451E-09  2.83764E-09
   3.08730E-09  3.44803E-09  3.70013E-09  3.78337E-09  3.36217E-09  3.56900E-09  4.13316E-09  3.81632E-09  5.72780E-09  6.27483E-09
   9.09510E-09  1.40135E-08  1.67473E-08  1.65045E-08  1.35310E-08  1.15028E-08  1.02455E-08  8.72719E-09  7.06881E-09  6.09544E-09
   5.85075E-09  5.04114E-09  4.34817E-09  3.78606E-09  3.09672E-09  1.81984E-09  1.64618E-09  1.19866E-09  2.16946E-10 -1.33156E-09
  -1.65262E-09 -2.47420E-09 -3.09164E-09 -3.66657E-09 -5.15573E-09 -6.50545E-09 -6.97324E-09 -7.15624E-09 -8.38751E-09 -8.97200E-09
  -8.88614E-09 -9.35662E-09 -9.00258E-09 -8.89825E-09 -8.28589E-09 -7.69989E-09 -7.07787E-09 -6.61131E-09 -5.89365E-09 -4.52283E-09
  -3.00548E-09 -2.98806E-09 -2.27972E-09 -1.63612E-09 -1.61531E-09 -1.33377E-09 -1.20846E-09 -1.05198E-09 -1.18583E-09 -1.29767E-09
  -1.67437E-09 -1.73477E-09 -1.24410E-09 -1.02581E-09 -8.60290E-10 -1.54675E-10 -6.54130E-10 -1.25484E-09 -8.58751E-10 -6.77563E-10
  -8.74781E-10 -9.27757E-10 -1.16484E-09 -6.16873E-10 -1.08081E-09 -9.98467E-10 -7.61773E-10 -2.00456E-10 -6.09415E-10 -5.05679E-10
  -1.03149E-09 -7.87929E-10 -3.74066E-10 -3.86392E-10 -1.25353E-09 -8.03659E-10 -6.51731E-10 -1.43940E-09 -4.53000E-10 -5.63133E-10
  -9.44518E-10 -2.50294E-10 -1.51627E-10  1.39618E-10  5.10529E-10  2.12507E-10  4.10790E-10  1.81326E-11  4.66325E-11 -5.70460E-10
  -4.39234E-10 -1.27419E-09 -8.78148E-10 -1.46775E-09 -1.42945E-09 -1.65401E-09 -1.40005E-09 -1.38888E-09 -1.64052E-09 -1.06304E-09
  -7.24073E-10  5.12532E-11 -7.06064E-11  7.38834E-10  1.58242E-10  8.64707E-10  4.72602E-10  9.29436E-10  7.25195E-10  6.26826E-10
   3.01545E-10  8.74054E-10  2.05566E-10  2.54189E-10 -5.37625E-10 -2.31129E-11  1.30761E-10 -2.80555E-10 -1.05852E-09 -7.82018E-10
   9.47770E-11 -6.27211E-10 -9.03591E-10 -9.07946E-10 -1.58849E-10 -6.47792E-10 -9.25972E-10 -7.08386E-10 -7.69518E-10 -9.05501E-10
  -1.02570E-09 -8.67515E-10 -1.11251E-09 -1.10315E-09 -8.23452E-10 -1.17456E-09 -1.06760E-09 -1.08313E-09 -8.02426E-10 -9.95484E-10
  -8.75288E-10 -4.32927E-10 -1.60250E-09 -1.26065E-09 -6.26107E-10 -1.70712E-09 -1.48599E-09 -6.97610E-10 -8.41376E-10 -1.24004E-09
  -1.06983E-09 -9.69098E-10 -1.12046E-09 -7.74988E-10 -1.55265E-09 -1.47187E-09 -7.21573E-10 -1.21307E-09 -5.86618E-10 -1.00429E-09
  -1.01062E-09 -5.52509E-10 -1.45944E-09 -9.28070E-10 -8.77247E-10 -1.10430E-09 -9.66937E-10 -9.93044E-10 -9.46392E-10 -1.83971E-09
  -5.61143E-10 -1.08555E-09 -9.78105E-10 -1.58978E-09 -7.28863E-10 -6.10792E-10 -1.15038E-09 -1.18871E-09 -1.28560E-09 -9.28240E-10
  -7.83654E-10 -1.16088E-09 -1.37286E-09 -7.86593E-10 -8.78874E-10 -1.23595E-09 -9.54162E-10 -1.03081E-09 -1.10328E-09 -5.58542E-10
  -5.22685E-10 -8.40762E-10 -5.87758E-10
 NY points of the fit to the data follow
   1.42740E-08  1.31912E-08  1.22144E-08  1.16528E-08  1.12846E-08  1.07799E-08  1.03347E-08  9.92325E-09  9.64679E-09  9.69816E-09
   9.65764E-09  9.57611E-09  1.00361E-08  1.02202E-08  1.00691E-08  9.50056E-09  8.81941E-09  8.39863E-09  8.00348E-09  7.39183E-09
   7.05778E-09  7.67288E-09  8.17467E-09  8.31349E-09  8.47385E-09  8.74460E-09  9.13414E-09  9.35455E-09  9.25202E-09  9.49618E-09
   9.38539E-09  8.99702E-09  8.58875E-09  7.99559E-09  6.86733E-09  5.52549E-09  5.29096E-09  5.18634E-09  4.98848E-09  4.75238E-09
   4.47258E-09  4.03095E-09  3.44591E-09  3.12978E-09  3.06852E-09  3.06883E-09  3.09141E-09  3.12039E-09  3.15459E-09  3.19349E-09
   3.25049E-09  3.33660E-09  3.46675E-09  3.64179E-09  3.91201E-09  4.34846E-09  4.90484E-09  5.60566E-09  6.56146E-09  7.54152E-09
   8.38434E-09  9.11014E-09  9.65530E-09  9.83627E-09  9.48855E-09  8.61272E-09  7.58629E-09  6.79684E-09  5.74166E-09  4.49365E-09
   3.96749E-09  3.83062E-09  3.72829E-09  3.92017E-09  4.38830E-09  5.14360E-09  6.02884E-09  7.02407E-09  8.05843E-09  9.06589E-09
   9.96227E-09  1.04804E-08  1.03001E-08  9.71253E-09  9.03133E-09  7.93210E-09  6.52450E-09  5.37886E-09  4.25711E-09  3.55709E-09
   3.17795E-09  2.93748E-09  2.76900E-09  2.64555E-09  2.54634E-09  2.46667E-09  2.40464E-09  2.35500E-09  2.31267E-09  2.27574E-09
   2.24836E-09  2.22729E-09  2.20884E-09  2.19366E-09  2.18260E-09  2.17513E-09  2.17041E-09  2.16811E-09  2.16790E-09  2.16966E-09
   2.17324E-09  2.17851E-09  2.18534E-09  2.19357E-09  2.20302E-09  2.21348E-09  2.22477E-09  2.23673E-09  2.24919E-09  2.26199E-09
   2.27498E-09  2.28801E-09  2.30094E-09  2.31361E-09  2.32590E-09  2.33767E-09  2.34878E-09  2.35909E-09  2.36849E-09  2.37684E-09
   2.38401E-09  2.38988E-09  2.39432E-09  2.39721E-09  2.39843E-09  2.39785E-09  2.39537E-09  2.39086E-09  2.38421E-09  2.37531E-09
   2.36403E-09  2.35036E-09  2.33427E-09  2.31574E-09  2.29477E-09  2.27134E-09  2.24546E-09  2.21715E-09  2.18641E-09  2.15328E-09
   2.11782E-09  2.08009E-09  2.04020E-09  1.99828E-09  1.95452E-09  1.90918E-09  1.86264E-09  1.81542E-09  1.76827E-09  1.72231E-09
   1.67924E-09  1.64180E-09  1.61466E-09  1.60643E-09  1.63540E-09  1.75011E-09  2.14348E-09  3.18996E-09  4.97375E-09  7.43464E-09
   1.05888E-08  1.38289E-08  1.60760E-08  1.66426E-08  1.57959E-08  1.42301E-08  1.19678E-08  8.41712E-09  4.16423E-09  1.43684E-09
   5.55214E-10  1.10918E-10 -1.83087E-10 -4.07620E-10 -5.93872E-10 -7.56335E-10 -9.02545E-10 -1.03673E-09 -1.16138E-09 -1.27800E-09
  -1.38750E-09 -1.49044E-09 -1.58709E-09 -1.67760E-09 -1.76200E-09 -1.84021E-09 -1.91223E-09 -1.97826E-09 -2.03855E-09 -2.09333E-09
  -2.14280E-09 -2.18714E-09 -2.22653E-09 -2.26115E-09 -2.29114E-09 -2.31667E-09 -2.33788E-09 -2.35492E-09 -2.36792E-09 -2.37703E-09
  -2.38239E-09 -2.38413E-09 -2.38237E-09 -2.37726E-09 -2.36893E-09 -2.35750E-09 -2.34310E-09 -2.32586E-09 -2.30591E-09 -2.28337E-09
  -2.25836E-09 -2.23103E-09 -2.20148E-09 -2.16984E-09 -2.13625E-09 -2.10083E-09 -2.06369E-09 -2.02498E-09 -1.98482E-09 -1.94333E-09
  -1.90065E-09 -1.85689E-09 -1.81219E-09 -1.76667E-09 -1.72045E-09 -1.67367E-09 -1.62644E-09 -1.57890E-09 -1.53116E-09 -1.48337E-09
  -1.43564E-09 -1.38809E-09 -1.34086E-09 -1.29407E-09 -1.24783E-09 -1.20228E-09 -1.15755E-09 -1.11375E-09 -1.07103E-09 -1.02949E-09
  -9.89260E-10 -9.50482E-10 -9.13205E-10 -8.77427E-10 -8.43139E-10 -8.10332E-10 -7.78987E-10 -7.49099E-10 -7.20652E-10 -6.93635E-10
  -6.68040E-10 -6.43848E-10 -6.21055E-10 -5.99642E-10 -5.79605E-10 -5.60927E-10 -5.43587E-10 -5.27595E-10 -5.12927E-10 -4.99567E-10
  -4.87505E-10 -4.76737E-10 -4.67240E-10 -4.59008E-10 -4.52035E-10 -4.46293E-10 -4.41788E-10 -4.38498E-10 -4.36416E-10 -4.35522E-10
  -4.35790E-10 -4.37172E-10 -4.39618E-10 -4.43076E-10 -4.47505E-10 -4.52849E-10 -4.59064E-10 -4.66098E-10 -4.73903E-10 -4.82434E-10
  -4.91637E-10 -5.01466E-10 -5.11871E-10 -5.22804E-10 -5.34217E-10 -5.46060E-10 -5.58285E-10 -5.70841E-10 -5.83686E-10 -5.96760E-10
  -6.10026E-10 -6.23426E-10 -6.36915E-10 -6.50449E-10 -6.63972E-10 -6.77438E-10 -6.90799E-10 -7.04005E-10 -7.17039E-10 -7.29891E-10
  -7.42555E-10 -7.55026E-10 -7.67296E-10 -7.79358E-10 -7.91205E-10 -8.02832E-10 -8.14230E-10 -8.25394E-10 -8.36318E-10 -8.46993E-10
  -8.57415E-10 -8.67575E-10 -8.77466E-10 -8.87085E-10 -8.96422E-10 -9.05473E-10 -9.14228E-10 -9.22681E-10 -9.30827E-10 -9.38661E-10
  -9.46171E-10 -9.53354E-10 -9.60203E-10 -9.66711E-10 -9.72871E-10 -9.78678E-10 -9.84142E-10 -9.89277E-10 -9.94096E-10 -9.98614E-10
  -1.00285E-09 -1.00680E-09 -1.01050E-09 -1.01396E-09 -1.01718E-09 -1.02019E-09 -1.02300E-09 -1.02562E-09 -1.02806E-09 -1.03035E-09
  -1.03249E-09 -1.03450E-09 -1.03639E-09 -1.03818E-09 -1.03988E-09 -1.04151E-09 -1.04307E-09 -1.04459E-09 -1.04607E-09 -1.04754E-09
  -1.04901E-09 -1.05048E-09 -1.05198E-09
 NY background values follow
     2.464E-09    2.446E-09    2.428E-09    2.410E-09    2.393E-09    2.375E-09    2.357E-09    2.340E-09    2.322E-09    2.305E-09
     2.288E-09    2.270E-09    2.253E-09    2.236E-09    2.219E-09    2.202E-09    2.185E-09    2.168E-09    2.151E-09    2.134E-09
     2.118E-09    2.101E-09    2.084E-09    2.067E-09    2.050E-09    2.033E-09    2.017E-09    2.000E-09    1.983E-09    1.966E-09
     1.949E-09    1.932E-09    1.915E-09    1.898E-09    1.881E-09    1.864E-09    1.848E-09    1.831E-09    1.814E-09    1.797E-09
     1.781E-09    1.764E-09    1.748E-09    1.731E-09    1.715E-09    1.699E-09    1.683E-09    1.667E-09    1.651E-09    1.635E-09
     1.620E-09    1.604E-09    1.589E-09    1.574E-09    1.559E-09    1.544E-09    1.530E-09    1.515E-09    1.501E-09    1.487E-09
     1.474E-09    1.460E-09    1.447E-09    1.435E-09    1.422E-09    1.410E-09    1.398E-09    1.387E-09    1.375E-09    1.365E-09
     1.354E-09    1.344E-09    1.335E-09    1.326E-09    1.317E-09    1.309E-09    1.301E-09    1.294E-09    1.287E-09    1.281E-09
     1.276E-09    1.271E-09    1.266E-09    1.262E-09    1.259E-09    1.256E-09    1.254E-09    1.252E-09    1.252E-09    1.251E-09
     1.252E-09    1.253E-09    1.254E-09    1.257E-09    1.260E-09    1.263E-09    1.267E-09    1.272E-09    1.278E-09    1.284E-09
     1.291E-09    1.299E-09    1.307E-09    1.316E-09    1.326E-09    1.336E-09    1.347E-09    1.359E-09    1.372E-09    1.385E-09
     1.399E-09    1.414E-09    1.429E-09    1.446E-09    1.462E-09    1.479E-09    1.497E-09    1.514E-09    1.532E-09    1.550E-09
     1.567E-09    1.585E-09    1.601E-09    1.618E-09    1.633E-09    1.648E-09    1.662E-09    1.675E-09    1.687E-09    1.698E-09
     1.707E-09    1.715E-09    1.721E-09    1.725E-09    1.728E-09    1.729E-09    1.727E-09    1.724E-09    1.718E-09    1.710E-09
     1.699E-09    1.685E-09    1.669E-09    1.650E-09    1.629E-09    1.605E-09    1.578E-09    1.548E-09    1.516E-09    1.480E-09
     1.442E-09    1.401E-09    1.356E-09    1.309E-09    1.259E-09    1.206E-09    1.149E-09    1.090E-09    1.027E-09    9.614E-10
     8.924E-10    8.202E-10    7.447E-10    6.658E-10    5.836E-10    4.981E-10    4.091E-10    3.167E-10    2.209E-10    1.219E-10
     2.001E-11   -8.441E-11   -1.911E-10   -2.996E-10   -4.098E-10   -5.212E-10   -6.336E-10   -7.467E-10   -8.601E-10   -9.735E-10
    -1.087E-09   -1.199E-09   -1.311E-09   -1.421E-09   -1.530E-09   -1.637E-09   -1.741E-09   -1.843E-09   -1.943E-09   -2.039E-09
    -2.132E-09   -2.220E-09   -2.305E-09   -2.386E-09   -2.461E-09   -2.532E-09   -2.597E-09   -2.658E-09   -2.713E-09   -2.763E-09
    -2.808E-09   -2.849E-09   -2.885E-09   -2.916E-09   -2.943E-09   -2.966E-09   -2.985E-09   -3.000E-09   -3.011E-09   -3.018E-09
    -3.021E-09   -3.021E-09   -3.018E-09   -3.011E-09   -3.002E-09   -2.989E-09   -2.973E-09   -2.955E-09   -2.934E-09   -2.910E-09
    -2.884E-09   -2.856E-09   -2.825E-09   -2.793E-09   -2.758E-09   -2.722E-09   -2.684E-09   -2.644E-09   -2.604E-09   -2.561E-09
    -2.518E-09   -2.474E-09   -2.428E-09   -2.382E-09   -2.335E-09   -2.288E-09   -2.240E-09   -2.192E-09   -2.144E-09   -2.095E-09
    -2.047E-09   -1.999E-09   -1.951E-09   -1.904E-09   -1.857E-09   -1.811E-09   -1.766E-09   -1.722E-09   -1.679E-09   -1.637E-09
    -1.596E-09   -1.557E-09   -1.519E-09   -1.483E-09   -1.448E-09   -1.415E-09   -1.384E-09   -1.353E-09   -1.325E-09   -1.297E-09
    -1.271E-09   -1.247E-09   -1.224E-09   -1.202E-09   -1.181E-09   -1.162E-09   -1.145E-09   -1.128E-09   -1.113E-09   -1.100E-09
    -1.087E-09   -1.076E-09   -1.066E-09   -1.058E-09   -1.051E-09   -1.045E-09   -1.040E-09   -1.036E-09   -1.034E-09   -1.033E-09
    -1.033E-09   -1.034E-09   -1.036E-09   -1.039E-09   -1.043E-09   -1.048E-09   -1.054E-09   -1.061E-09   -1.068E-09   -1.077E-09
    -1.086E-09   -1.095E-09   -1.105E-09   -1.116E-09   -1.127E-09   -1.139E-09   -1.151E-09   -1.163E-09   -1.175E-09   -1.188E-09
    -1.201E-09   -1.214E-09   -1.228E-09   -1.241E-09   -1.254E-09   -1.267E-09   -1.280E-09   -1.293E-09   -1.306E-09   -1.319E-09
    -1.331E-09   -1.343E-09   -1.355E-09   -1.367E-09   -1.379E-09   -1.390E-09   -1.401E-09   -1.412E-09   -1.423E-09   -1.433E-09
    -1.443E-09   -1.453E-09   -1.463E-09   -1.472E-09   -1.481E-09   -1.490E-09   -1.499E-09   -1.507E-09   -1.515E-09   -1.522E-09
    -1.529E-09   -1.536E-09   -1.543E-09   -1.549E-09   -1.555E-09   -1.561E-09   -1.566E-09   -1.571E-09   -1.575E-09   -1.579E-09
    -1.583E-09   -1.587E-09   -1.590E-09   -1.594E-09   -1.597E-09   -1.599E-09   -1.602E-09   -1.604E-09   -1.606E-09   -1.608E-09
    -1.610E-09   -1.612E-09   -1.614E-09   -1.615E-09   -1.616E-09   -1.618E-09   -1.619E-09   -1.620E-09   -1.621E-09   -1.623E-09
    -1.624E-09   -1.625E-09   -1.626E-09
 Cr       Conc. = 3.06E-10
   3.66955E-09  3.43360E-09  3.05011E-09  2.65675E-09  2.53888E-09  2.48272E-09  2.44535E-09  2.41606E-09  2.39097E-09  2.36835E-09
   2.34732E-09  2.32740E-09  2.30829E-09  2.28980E-09  2.27180E-09  2.25422E-09  2.23700E-09  2.22014E-09  2.20362E-09  2.18743E-09
   2.17162E-09  2.15624E-09  2.14138E-09  2.12716E-09  2.11379E-09  2.10162E-09  2.09117E-09  2.08343E-09  2.08035E-09  2.08650E-09
   2.11640E-09  2.24027E-09  2.45292E-09  2.75034E-09  3.15053E-09  3.57910E-09  3.88505E-09  3.96180E-09  3.84517E-09  3.64722E-09
   3.38002E-09  2.93357E-09  2.32618E-09  1.97325E-09  1.86281E-09  1.80604E-09  1.76801E-09  1.73858E-09  1.71378E-09  1.69177E-09
   1.67159E-09  1.65268E-09  1.63472E-09  1.61749E-09  1.60087E-09  1.58472E-09  1.56901E-09  1.55370E-09  1.53875E-09  1.52416E-09
   1.50992E-09  1.49602E-09  1.48246E-09  1.46925E-09  1.45639E-09  1.44390E-09  1.43177E-09  1.42002E-09  1.40866E-09  1.39770E-09
   1.38715E-09  1.37703E-09  1.36734E-09  1.35811E-09  1.34933E-09  1.34103E-09  1.33322E-09  1.32591E-09  1.31912E-09  1.31286E-09
   1.30714E-09  1.30198E-09  1.29739E-09  1.29339E-09  1.28998E-09  1.28719E-09  1.28501E-09  1.28345E-09  1.28252E-09  1.28221E-09
   1.28254E-09  1.28350E-09  1.28511E-09  1.28737E-09  1.29028E-09  1.29384E-09  1.29807E-09  1.30296E-09  1.30852E-09  1.31477E-09
   1.32169E-09  1.32930E-09  1.33760E-09  1.34659E-09  1.35629E-09  1.36669E-09  1.37781E-09  1.38963E-09  1.40218E-09  1.41545E-09
   1.42946E-09  1.44420E-09  1.45967E-09  1.47581E-09  1.49251E-09  1.50963E-09  1.52706E-09  1.54469E-09  1.56239E-09  1.58004E-09
   1.59753E-09  1.61473E-09  1.63152E-09  1.64780E-09  1.66343E-09  1.67830E-09  1.69229E-09  1.70528E-09  1.71716E-09  1.72779E-09
   1.73707E-09  1.74487E-09  1.75108E-09  1.75557E-09  1.75823E-09  1.75894E-09  1.75758E-09  1.75403E-09  1.74817E-09  1.73988E-09
   1.72905E-09  1.71563E-09  1.69958E-09  1.68086E-09  1.65946E-09  1.63533E-09  1.60846E-09  1.57880E-09  1.54632E-09  1.51101E-09
   1.47282E-09  1.43174E-09  1.38773E-09  1.34077E-09  1.29085E-09  1.23793E-09  1.18201E-09  1.12308E-09  1.06115E-09  9.96236E-10
   9.28396E-10  8.57737E-10  7.84481E-10  7.09056E-10  6.32499E-10  5.57820E-10  4.98631E-10  4.74786E-10  4.72126E-10  5.00974E-10
   5.53372E-10  5.84465E-10  5.45614E-10  4.26920E-10  2.63468E-10  8.15003E-11 -1.44328E-10 -4.41478E-10 -7.29899E-10 -8.89625E-10
  -1.02117E-09 -1.14335E-09 -1.26081E-09 -1.37506E-09 -1.48658E-09 -1.59550E-09 -1.70175E-09 -1.80514E-09 -1.90545E-09 -2.00244E-09
  -2.09582E-09 -2.18532E-09 -2.27064E-09 -2.35147E-09 -2.42752E-09 -2.49849E-09 -2.56414E-09 -2.62455E-09 -2.67985E-09 -2.73016E-09
  -2.77562E-09 -2.81633E-09 -2.85243E-09 -2.88404E-09 -2.91129E-09 -2.93429E-09 -2.95317E-09 -2.96805E-09 -2.97905E-09 -2.98630E-09
  -2.98992E-09 -2.99003E-09 -2.98675E-09 -2.98021E-09 -2.97052E-09 -2.95781E-09 -2.94220E-09 -2.92381E-09 -2.90277E-09 -2.87919E-09
  -2.85320E-09 -2.82492E-09 -2.79447E-09 -2.76197E-09 -2.72755E-09 -2.69134E-09 -2.65344E-09 -2.61399E-09 -2.57312E-09 -2.53095E-09
  -2.48761E-09 -2.44321E-09 -2.39789E-09 -2.35177E-09 -2.30497E-09 -2.25762E-09 -2.20985E-09 -2.16178E-09 -2.11352E-09 -2.06522E-09
  -2.01700E-09 -1.96897E-09 -1.92126E-09 -1.87401E-09 -1.82733E-09 -1.78134E-09 -1.73618E-09 -1.69196E-09 -1.64882E-09 -1.60688E-09
  -1.56625E-09 -1.52708E-09 -1.48943E-09 -1.45327E-09 -1.41861E-09 -1.38544E-09 -1.35374E-09 -1.32350E-09 -1.29470E-09 -1.26734E-09
  -1.24141E-09 -1.21688E-09 -1.19375E-09 -1.17202E-09 -1.15166E-09 -1.13266E-09 -1.11500E-09 -1.09870E-09 -1.08372E-09 -1.07006E-09
  -1.05769E-09 -1.04663E-09 -1.03683E-09 -1.02831E-09 -1.02104E-09 -1.01501E-09 -1.01022E-09 -1.00664E-09 -1.00428E-09 -1.00310E-09
  -1.00309E-09 -1.00420E-09 -1.00637E-09 -1.00955E-09 -1.01371E-09 -1.01878E-09 -1.02473E-09 -1.03150E-09 -1.03903E-09 -1.04730E-09
  -1.05624E-09 -1.06580E-09 -1.07595E-09 -1.08662E-09 -1.09777E-09 -1.10935E-09 -1.12132E-09 -1.13362E-09 -1.14620E-09 -1.15902E-09
  -1.17203E-09 -1.18517E-09 -1.19841E-09 -1.21169E-09 -1.22495E-09 -1.23817E-09 -1.25127E-09 -1.26422E-09 -1.27700E-09 -1.28960E-09
  -1.30201E-09 -1.31423E-09 -1.32625E-09 -1.33806E-09 -1.34965E-09 -1.36102E-09 -1.37217E-09 -1.38308E-09 -1.39375E-09 -1.40417E-09
  -1.41434E-09 -1.42425E-09 -1.43388E-09 -1.44325E-09 -1.45233E-09 -1.46112E-09 -1.46962E-09 -1.47782E-09 -1.48571E-09 -1.49329E-09
  -1.50054E-09 -1.50746E-09 -1.51405E-09 -1.52030E-09 -1.52620E-09 -1.53175E-09 -1.53695E-09 -1.54182E-09 -1.54638E-09 -1.55063E-09
  -1.55460E-09 -1.55829E-09 -1.56172E-09 -1.56491E-09 -1.56787E-09 -1.57061E-09 -1.57315E-09 -1.57549E-09 -1.57767E-09 -1.57968E-09
  -1.58154E-09 -1.58328E-09 -1.58489E-09 -1.58640E-09 -1.58782E-09 -1.58917E-09 -1.59045E-09 -1.59169E-09 -1.59289E-09 -1.59407E-09
  -1.59525E-09 -1.59644E-09 -1.59764E-09
 Gln      Conc. = 3.00E-09
   4.24323E-09  4.77919E-09  5.39162E-09  6.05094E-09  6.65016E-09  7.07468E-09  7.20715E-09  7.02180E-09  6.61425E-09  6.13080E-09
   5.40374E-09  4.49834E-09  4.05286E-09  3.53069E-09  3.16903E-09  2.98478E-09  2.87055E-09  2.79014E-09  2.72883E-09  2.67955E-09
   2.63841E-09  2.60307E-09  2.57202E-09  2.54441E-09  2.51992E-09  2.49823E-09  2.47814E-09  2.45952E-09  2.44259E-09  2.42662E-09
   2.41158E-09  2.39749E-09  2.38437E-09  2.37225E-09  2.36118E-09  2.35121E-09  2.34244E-09  2.33497E-09  2.32893E-09  2.32447E-09
   2.32188E-09  2.32137E-09  2.32343E-09  2.32856E-09  2.33738E-09  2.35068E-09  2.36942E-09  2.39454E-09  2.42798E-09  2.47262E-09
   2.53137E-09  2.61057E-09  2.72108E-09  2.88130E-09  3.13365E-09  3.55910E-09  4.11019E-09  4.82134E-09  5.79650E-09  6.80604E-09
   7.66708E-09  8.42054E-09  8.98413E-09  9.17839E-09  8.81960E-09  7.93801E-09  6.91441E-09  6.13737E-09  5.07731E-09  3.81149E-09
   3.24603E-09  3.07446E-09  2.94678E-09  3.11099E-09  3.53686E-09  4.23045E-09  5.01047E-09  5.77953E-09  6.49475E-09  7.08180E-09
   7.49540E-09  7.61995E-09  7.26843E-09  6.73243E-09  6.25486E-09  5.45792E-09  4.50449E-09  3.96781E-09  3.43017E-09  2.92714E-09
   2.62505E-09  2.42531E-09  2.28445E-09  2.18102E-09  2.10037E-09  2.03627E-09  1.98581E-09  1.94542E-09  1.91271E-09  1.88669E-09
   1.86599E-09  1.84935E-09  1.83627E-09  1.82636E-09  1.81939E-09  1.81518E-09  1.81317E-09  1.81316E-09  1.81500E-09  1.81855E-09
   1.82371E-09  1.83037E-09  1.83845E-09  1.84780E-09  1.85824E-09  1.86959E-09  1.88169E-09  1.89438E-09  1.90750E-09  1.92089E-09
   1.93441E-09  1.94791E-09  1.96125E-09  1.97430E-09  1.98691E-09  1.99895E-09  2.01029E-09  2.02079E-09  2.03033E-09  2.03878E-09
   2.04600E-09  2.05188E-09  2.05628E-09  2.05908E-09  2.06016E-09  2.05939E-09  2.05665E-09  2.05183E-09  2.04479E-09  2.03542E-09
   2.02360E-09  2.00929E-09  1.99245E-09  1.97306E-09  1.95108E-09  1.92650E-09  1.89930E-09  1.86945E-09  1.83693E-09  1.80175E-09
   1.76389E-09  1.72335E-09  1.68016E-09  1.63434E-09  1.58592E-09  1.53499E-09  1.48165E-09  1.42604E-09  1.36841E-09  1.30910E-09
   1.24863E-09  1.18786E-09  1.12817E-09  1.07199E-09  1.02407E-09  9.94958E-10  1.01484E-09  1.21545E-09  1.78899E-09  2.60075E-09
   3.74577E-09  5.14307E-09  6.35586E-09  6.90981E-09  6.70414E-09  6.07310E-09  5.26825E-09  4.04600E-09  2.14224E-09  3.24204E-10
  -2.53091E-10 -5.50682E-10 -7.59475E-10 -9.28981E-10 -1.07717E-09 -1.21199E-09 -1.33737E-09 -1.45540E-09 -1.56723E-09 -1.67349E-09
  -1.77447E-09 -1.87029E-09 -1.96096E-09 -2.04635E-09 -2.12634E-09 -2.20074E-09 -2.26941E-09 -2.33250E-09 -2.39019E-09 -2.44265E-09
  -2.49003E-09 -2.53250E-09 -2.57019E-09 -2.60327E-09 -2.63185E-09 -2.65609E-09 -2.67612E-09 -2.69207E-09 -2.70406E-09 -2.71224E-09
  -2.71673E-09 -2.71766E-09 -2.71515E-09 -2.70933E-09 -2.70033E-09 -2.68828E-09 -2.67329E-09 -2.65549E-09 -2.63501E-09 -2.61197E-09
  -2.58649E-09 -2.55870E-09 -2.52872E-09 -2.49667E-09 -2.46269E-09 -2.42689E-09 -2.38939E-09 -2.35033E-09 -2.30984E-09 -2.26803E-09
