 LCModel (Version 6.3-1R) Copyright: S.W. Provencher.          Ref.: Magn. Reson. Med. 30:672-679 (1993).                
 onepulse 19x15_ftSpec_smooth_lcm
 26 lines in following concentration table = NCONC+1
    Conc.  %SD   /Cr    Metabolite                                         
 1.20E-10 118%   0.000 Ala                                                 
 4.23E-10  65%   0.000 Asp                                                 
    0.000 999%   0.000 Cr                                                  
 3.07E-09   9%   0.000 GABA                                                
 1.05E-09  42%   0.000 Glc                                                 
    0.000 999%   0.000 Gln                                                 
 1.60E-10 199%   0.000 Glu                                                 
    0.000 999%   0.000 Glyc                                                
    0.000 999%   0.000 GPC                                                 
    0.000 999%   0.000 GSH                                                 
 1.44E-10 103%   0.000 Ins                                                 
    0.000 999%   0.000 Lac                                                 
    0.000 999%   0.000 NAAG                                                
 1.06E-09  12%   0.000 NAA                                                 
 8.21E-11  72%   0.000 PCh                                                 
    0.000 999%   0.000 PCr                                                 
    0.000 999%   0.000 PE                                                  
    0.000 999%   0.000 Scyllo                                              
    0.000 999%   0.000 Ser                                                 
 9.50E-11 346%   0.000 Tau                                                 
 8.21E-11  72%   0.000 GPC+PCh                                             
 1.06E-09  12%   0.000 NAA+NAAG                                            
 1.44E-10 103%   0.000 Ins+Glyc                                            
    0.000 999%   0.000 Cr+PCr                                              
 1.60E-10 199%   0.000 Glu+Gln                                             
   6 lines in following misc. output table
  FWHM = 0.056 ppm    S/N =   6                                            
  Data shift = 0.335 ppm                                                   
  Ph:  81 deg      37.8 deg/ppm                                            
  alphaB,S = 1.7E-01,   4.1E+01                                            
   16 spline knots.   Ns = 5(1)                                            
  ( 5) 2 infls.   ( 3) 1 extrs.                                            
  363 points on ppm-axis = NY
      4.250000     4.238821     4.227641     4.216462     4.205282     4.194103     4.182923     4.171744     4.160564     4.149385
      4.138206     4.127026     4.115847     4.104667     4.093488     4.082308     4.071129     4.059949     4.048770     4.037591
      4.026411     4.015232     4.004052     3.992873     3.981693     3.970514     3.959334     3.948155     3.936975     3.925796
      3.914617     3.903437     3.892258     3.881078     3.869899     3.858719     3.847540     3.836360     3.825181     3.814002
      3.802822     3.791643     3.780463     3.769284     3.758104     3.746925     3.735745     3.724566     3.713387     3.702207
      3.691028     3.679848     3.668669     3.657489     3.646310     3.635130     3.623951     3.612772     3.601592     3.590413
      3.579233     3.568054     3.556874     3.545695     3.534515     3.523336     3.512156     3.500977     3.489798     3.478618
      3.467439     3.456259     3.445080     3.433900     3.422721     3.411541     3.400362     3.389183     3.378003     3.366824
      3.355644     3.344465     3.333285     3.322106     3.310926     3.299747     3.288568     3.277388     3.266209     3.255029
      3.243850     3.232670     3.221491     3.210311     3.199132     3.187953     3.176773     3.165594     3.154414     3.143235
      3.132055     3.120876     3.109696     3.098517     3.087337     3.076158     3.064979     3.053799     3.042620     3.031440
      3.020261     3.009081     2.997902     2.986722     2.975543     2.964364     2.953184     2.942005     2.930825     2.919646
      2.908466     2.897287     2.886107     2.874928     2.863749     2.852569     2.841390     2.830210     2.819031     2.807851
      2.796672     2.785492     2.774313     2.763134     2.751954     2.740775     2.729595     2.718416     2.707236     2.696057
      2.684877     2.673698     2.662519     2.651339     2.640160     2.628980     2.617801     2.606621     2.595442     2.584262
      2.573083     2.561903     2.550724     2.539545     2.528365     2.517186     2.506006     2.494827     2.483647     2.472468
      2.461288     2.450109     2.438930     2.427750     2.416571     2.405391     2.394212     2.383032     2.371853     2.360673
      2.349494     2.338315     2.327135     2.315956     2.304776     2.293597     2.282417     2.271238     2.260058     2.248879
      2.237700     2.226520     2.215341     2.204161     2.192982     2.181802     2.170623     2.159443     2.148264     2.137084
      2.125905     2.114726     2.103546     2.092367     2.081187     2.070008     2.058828     2.047649     2.036469     2.025290
      2.014111     2.002931     1.991752     1.980572     1.969393     1.958213     1.947034     1.935854     1.924675     1.913496
      1.902316     1.891137     1.879957     1.868778     1.857598     1.846419     1.835239     1.824060     1.812881     1.801701
      1.790522     1.779342     1.768163     1.756983     1.745804     1.734624     1.723445     1.712265     1.701086     1.689907
      1.678727     1.667548     1.656368     1.645189     1.634009     1.622830     1.611650     1.600471     1.589292     1.578112
      1.566933     1.555753     1.544574     1.533394     1.522215     1.511035     1.499856     1.488677     1.477497     1.466318
      1.455138     1.443959     1.432779     1.421600     1.410420     1.399241     1.388062     1.376882     1.365703     1.354523
      1.343344     1.332164     1.320985     1.309805     1.298626     1.287446     1.276267     1.265088     1.253908     1.242729
      1.231549     1.220370     1.209190     1.198011     1.186831     1.175652     1.164473     1.153293     1.142114     1.130934
      1.119755     1.108575     1.097396     1.086216     1.075037     1.063858     1.052678     1.041499     1.030319     1.019140
      1.007960     0.996781     0.985601     0.974422     0.963243     0.952063     0.940884     0.929704     0.918525     0.907345
      0.896166     0.884986     0.873807     0.862628     0.851448     0.840269     0.829089     0.817910     0.806730     0.795551
      0.784371     0.773192     0.762012     0.750833     0.739654     0.728474     0.717295     0.706115     0.694936     0.683756
      0.672577     0.661397     0.650218     0.639039     0.627859     0.616680     0.605500     0.594321     0.583141     0.571962
      0.560782     0.549603     0.538424     0.527244     0.516065     0.504885     0.493706     0.482526     0.471347     0.460167
      0.448988     0.437809     0.426629     0.415450     0.404270     0.393091     0.381911     0.370732     0.359552     0.348373
      0.337193     0.326014     0.314835     0.303655     0.292476     0.281296     0.270117     0.258937     0.247758     0.236578
      0.225399     0.214220     0.203040
 NY phased data points follow
  -3.20401E-10  2.00954E-09  4.91596E-09  6.44752E-09  6.51015E-09  5.06821E-09  4.34460E-09  3.75159E-09  3.70630E-09  2.66559E-09
   3.14297E-09  3.32745E-09  3.25949E-09  3.37527E-09  4.32229E-09  4.09833E-09  5.25625E-09  6.15374E-09  5.80157E-09  5.33096E-09
   5.41973E-09  5.26298E-09  5.42147E-09  3.99176E-09  4.71364E-09  4.69819E-09  6.34985E-09  6.55957E-09  6.85550E-09  5.64216E-09
   5.73873E-09  5.29731E-09  6.05272E-09  8.23282E-09  1.00949E-08  1.04880E-08  1.03090E-08  9.31121E-09  7.25236E-09  6.39133E-09
   6.74479E-09  6.50453E-09  5.84227E-09  5.13658E-09  5.71471E-09  5.22376E-09  5.37020E-09  4.35630E-09  4.15045E-09  3.21872E-09
   3.30955E-09  3.72592E-09  4.15656E-09  3.59072E-09  4.61983E-09  3.30958E-09  3.17576E-09  2.81861E-09  2.74186E-09  2.17360E-09
   2.54049E-09  2.89910E-09  3.58133E-09  4.57714E-09  8.64438E-09  1.23635E-08  1.33966E-08  1.13829E-08  9.80877E-09  7.83209E-09
   7.17088E-09  6.37414E-09  5.68670E-09  4.79694E-09  3.76680E-09  3.53799E-09  3.34480E-09  2.14079E-09  3.14823E-09  4.11378E-09
   6.03952E-09  1.03448E-08  1.40308E-08  1.34061E-08  1.16724E-08  1.00507E-08  8.77358E-09  8.36513E-09  8.20790E-09  7.41777E-09
   7.41431E-09  7.08599E-09  6.32273E-09  5.82281E-09  5.63806E-09  5.02301E-09  4.41476E-09  4.68628E-09  4.03790E-09  3.36548E-09
   3.73672E-09  3.70848E-09  3.24041E-09  3.47792E-09  4.13141E-09  4.06177E-09  3.59969E-09  3.84677E-09  3.39207E-09  3.54924E-09
   2.97071E-09  1.87082E-09  2.17915E-09  1.71133E-09  2.38689E-09  2.73689E-09  3.47785E-09  3.37336E-09  3.19812E-09  3.69107E-09
   3.90676E-09  4.03016E-09  3.40067E-09  3.24503E-09  2.61363E-09  1.69700E-09  1.74305E-09  1.93113E-09  1.79163E-09  1.38873E-09
   2.41962E-09  2.15390E-09  2.25538E-09  2.39772E-09  2.46994E-09  2.47523E-09  2.44730E-09  1.75362E-09  1.37044E-09  1.68975E-09
   3.16237E-09  3.18240E-09  4.55600E-09  4.52534E-09  3.26986E-09  2.84929E-09  3.51863E-09  4.31428E-09  3.79928E-09  4.36375E-09
   3.25577E-09  3.54802E-09  3.21184E-09  2.94953E-09  3.10258E-09  2.85802E-09  2.85459E-09  3.20302E-09  2.89083E-09  3.32825E-09
   3.44122E-09  3.91977E-09  4.18467E-09  3.96645E-09  4.36896E-09  3.93563E-09  4.51549E-09  5.15091E-09  5.35652E-09  7.22923E-09
   8.39719E-09  1.16513E-08  1.59544E-08  1.78666E-08  1.47371E-08  1.01739E-08  7.69454E-09  6.02108E-09  5.19581E-09  4.04533E-09
   2.87764E-09  2.96235E-09  2.11921E-09  1.48590E-09  1.12559E-09  7.30291E-10 -4.41491E-10 -1.33229E-10 -6.48050E-10 -1.74905E-09
  -2.31174E-09 -2.45667E-09 -3.16661E-09 -3.12558E-09 -3.97693E-09 -5.25146E-09 -6.13082E-09 -5.83807E-09 -6.55908E-09 -7.60133E-09
  -7.85178E-09 -7.75671E-09 -8.02616E-09 -7.56799E-09 -7.41199E-09 -6.77594E-09 -6.15348E-09 -6.22726E-09 -5.62087E-09 -4.75089E-09
  -4.01509E-09 -2.86944E-09 -3.22769E-09 -1.90298E-09 -1.92775E-09 -1.67317E-09 -1.29197E-09 -1.81635E-09 -9.82814E-10 -1.57537E-09
  -1.39005E-09 -1.95837E-09 -1.74491E-09 -1.11369E-09 -2.02007E-09 -1.30371E-09 -6.97238E-10 -1.52982E-09 -1.53859E-09 -9.82793E-10
  -1.24229E-09 -1.67025E-09 -1.35501E-09 -1.72675E-09 -1.46030E-09 -1.52327E-09 -1.53351E-09 -1.09410E-09 -7.97466E-10 -1.40255E-09
  -9.83475E-10 -1.32673E-09 -9.45544E-10 -8.78772E-10 -1.69221E-09 -1.82242E-09 -9.90325E-10 -1.41483E-09 -1.37738E-09 -7.15611E-10
  -1.26914E-09 -7.57013E-10  1.50816E-10 -5.63045E-10 -4.54661E-10 -6.41667E-10 -8.05004E-10 -1.08409E-09 -1.57478E-09 -1.67496E-09
  -1.39441E-09 -1.77673E-09 -1.85900E-09 -1.94523E-09 -2.03047E-09 -1.09049E-09 -8.65482E-10 -7.42139E-10 -9.60628E-10 -1.38872E-10
  -5.81412E-11  5.32226E-10  1.15124E-10  2.39848E-10  4.13222E-10 -1.63265E-10 -5.48427E-10 -3.68225E-10 -6.72636E-10 -1.07072E-09
  -1.53754E-09 -9.59299E-10 -1.33698E-09 -2.00614E-09 -1.40386E-09 -1.29313E-09 -1.31741E-09 -1.26534E-09 -1.75511E-09 -1.49804E-09
  -5.41326E-10 -1.06470E-09 -1.30956E-09 -9.13722E-10 -6.48119E-10 -6.92131E-10 -1.20801E-09 -9.35987E-10 -9.56513E-10 -1.28379E-09
  -5.57782E-10 -7.08399E-10 -1.00616E-09 -9.12332E-10 -4.09450E-10 -8.14453E-10 -7.14049E-10 -5.74198E-10 -3.82951E-10 -1.83357E-10
  -8.54640E-10 -3.24593E-10 -9.45564E-10 -3.26215E-10 -3.11032E-10 -8.73027E-10 -5.32452E-10  2.75009E-10 -1.68504E-10 -7.76979E-10
  -1.91687E-10 -3.88464E-10 -2.97308E-10 -3.44154E-10 -3.65095E-10 -3.40527E-10  1.38015E-10 -1.44294E-13 -2.20392E-10  4.79461E-11
  -2.22930E-10 -6.39968E-11 -6.04328E-10 -2.42213E-11  1.59760E-10 -3.30287E-10 -2.56254E-10 -2.57414E-10 -3.25913E-11 -6.58539E-10
   5.30969E-10  1.93514E-10 -8.19180E-11  9.05647E-11  3.06654E-11  1.63103E-11 -4.53230E-10 -1.16550E-10  8.42205E-11  2.75177E-10
   2.27312E-10 -1.32971E-10  7.18929E-11  3.46840E-10  2.10553E-11  5.75060E-11  3.39927E-10  3.14402E-10  1.77356E-10 -7.54868E-11
  -1.72548E-11  2.05792E-11  1.34776E-10
 NY points of the fit to the data follow
   3.39619E-09  3.83232E-09  4.22576E-09  4.53184E-09  4.64917E-09  4.53300E-09  4.22446E-09  3.85723E-09  3.58254E-09  3.38106E-09
   3.34130E-09  3.40538E-09  3.53747E-09  3.74338E-09  4.02115E-09  4.29787E-09  4.62107E-09  5.05976E-09  5.55476E-09  5.96509E-09
   6.15925E-09  5.95197E-09  5.42338E-09  4.90949E-09  4.56114E-09  4.43328E-09  4.62623E-09  5.16868E-09  5.85068E-09  6.39233E-09
   6.55584E-09  6.72669E-09  7.27003E-09  7.83252E-09  8.19008E-09  8.65384E-09  9.19525E-09  9.47077E-09  9.10311E-09  8.25137E-09
   7.42453E-09  6.75515E-09  5.62693E-09  4.51056E-09  4.00031E-09  3.57330E-09  3.22411E-09  3.23358E-09  3.38785E-09  3.50441E-09
   3.52300E-09  3.45332E-09  3.42498E-09  3.48157E-09  3.60401E-09  3.73930E-09  3.82874E-09  3.85398E-09  3.78718E-09  3.74469E-09
   3.95889E-09  4.49002E-09  5.14699E-09  5.84450E-09  6.90124E-09  8.01630E-09  8.88564E-09  9.49323E-09  9.89715E-09  9.97862E-09
   9.47178E-09  8.31250E-09  6.96923E-09  6.06240E-09  5.20760E-09  4.20979E-09  3.97043E-09  4.42584E-09  4.96827E-09  5.97379E-09
   7.58031E-09  9.71412E-09  1.17827E-08  1.26443E-08  1.19201E-08  1.04822E-08  9.18402E-09  8.09049E-09  6.99838E-09  6.70458E-09
   6.60338E-09  6.62791E-09  6.43314E-09  5.84427E-09  5.40733E-09  5.07617E-09  4.50610E-09  4.05053E-09  3.78221E-09  3.52984E-09
   3.36600E-09  3.27781E-09  3.25089E-09  3.29381E-09  3.36907E-09  3.42758E-09  3.44261E-09  3.43680E-09  3.42637E-09  3.38192E-09
   3.27969E-09  3.15851E-09  3.08949E-09  3.01958E-09  2.95074E-09  2.93104E-09  2.92677E-09  2.92864E-09  2.93348E-09  2.93982E-09
   2.94685E-09  2.95408E-09  2.96111E-09  2.96768E-09  2.97358E-09  2.97865E-09  2.98272E-09  2.98570E-09  2.98748E-09  2.98795E-09
   2.98703E-09  2.98464E-09  2.98069E-09  2.97510E-09  2.96781E-09  2.95873E-09  2.94782E-09  2.93503E-09  2.92030E-09  2.90357E-09
   2.88477E-09  2.86384E-09  2.84074E-09  2.81541E-09  2.78782E-09  2.75792E-09  2.72567E-09  2.69104E-09  2.65402E-09  2.61461E-09
   2.57283E-09  2.52872E-09  2.48236E-09  2.43386E-09  2.38340E-09  2.33122E-09  2.27770E-09  2.22337E-09  2.16901E-09  2.11582E-09
   2.06565E-09  2.02151E-09  1.98863E-09  1.97701E-09  2.00891E-09  2.14886E-09  2.68104E-09  3.83697E-09  5.32582E-09  7.35636E-09
   1.03294E-08  1.39315E-08  1.66337E-08  1.68277E-08  1.45048E-08  1.10433E-08  7.57103E-09  4.27194E-09  1.67635E-09  5.89661E-10
   1.11274E-10 -1.95387E-10 -4.30964E-10 -6.29510E-10 -8.05740E-10 -9.66979E-10 -1.11717E-09 -1.25854E-09 -1.39236E-09 -1.51936E-09
  -1.63991E-09 -1.75419E-09 -1.86219E-09 -1.96380E-09 -2.05887E-09 -2.14719E-09 -2.22861E-09 -2.30333E-09 -2.37159E-09 -2.43363E-09
  -2.48964E-09 -2.53985E-09 -2.58445E-09 -2.62363E-09 -2.65759E-09 -2.68651E-09 -2.71056E-09 -2.72993E-09 -2.74479E-09 -2.75532E-09
  -2.76168E-09 -2.76406E-09 -2.76262E-09 -2.75753E-09 -2.74897E-09 -2.73709E-09 -2.72207E-09 -2.70407E-09 -2.68326E-09 -2.65980E-09
  -2.63387E-09 -2.60563E-09 -2.57524E-09 -2.54287E-09 -2.50867E-09 -2.47278E-09 -2.43532E-09 -2.39641E-09 -2.35620E-09 -2.31481E-09
  -2.27236E-09 -2.22898E-09 -2.18480E-09 -2.13995E-09 -2.09455E-09 -2.04874E-09 -2.00264E-09 -1.95638E-09 -1.91008E-09 -1.86388E-09
  -1.81790E-09 -1.77226E-09 -1.72710E-09 -1.68255E-09 -1.63871E-09 -1.59574E-09 -1.55375E-09 -1.51286E-09 -1.47322E-09 -1.43495E-09
  -1.39815E-09 -1.36299E-09 -1.32948E-09 -1.29760E-09 -1.26728E-09 -1.23847E-09 -1.21111E-09 -1.18514E-09 -1.16052E-09 -1.13718E-09
  -1.11507E-09 -1.09413E-09 -1.07431E-09 -1.05555E-09 -1.03780E-09 -1.02100E-09 -1.00509E-09 -9.90022E-10 -9.75740E-10 -9.62180E-10
  -9.49289E-10 -9.37019E-10 -9.25304E-10 -9.14091E-10 -9.03335E-10 -8.92959E-10 -8.82929E-10 -8.73178E-10 -8.63654E-10 -8.54297E-10
  -8.45074E-10 -8.35969E-10 -8.26961E-10 -8.18030E-10 -8.09165E-10 -8.00340E-10 -7.91543E-10 -7.82750E-10 -7.73947E-10 -7.65117E-10
  -7.56238E-10 -7.47295E-10 -7.38267E-10 -7.29139E-10 -7.19891E-10 -7.10505E-10 -7.00965E-10 -6.91250E-10 -6.81347E-10 -6.71227E-10
  -6.60886E-10 -6.50296E-10 -6.39440E-10 -6.28308E-10 -6.16873E-10 -6.05119E-10 -5.93032E-10 -5.80589E-10 -5.67801E-10 -5.54686E-10
  -5.41260E-10 -5.27545E-10 -5.13559E-10 -4.99318E-10 -4.84844E-10 -4.70154E-10 -4.55267E-10 -4.40202E-10 -4.24978E-10 -4.09612E-10
  -3.94127E-10 -3.78535E-10 -3.62859E-10 -3.47119E-10 -3.31329E-10 -3.15514E-10 -2.99688E-10 -2.83869E-10 -2.68079E-10 -2.52338E-10
  -2.36657E-10 -2.21061E-10 -2.05567E-10 -1.90195E-10 -1.74964E-10 -1.59885E-10 -1.44962E-10 -1.30190E-10 -1.15560E-10 -1.01065E-10
  -8.67006E-11 -7.24580E-11 -5.83318E-11 -4.43149E-11 -3.04036E-11 -1.65855E-11 -2.86110E-12  1.07804E-11  2.43442E-11  3.78378E-11
   5.12683E-11  6.46389E-11  7.79591E-11  9.12341E-11  1.04471E-10  1.17676E-10  1.30855E-10  1.44017E-10  1.57166E-10  1.70308E-10
   1.83451E-10  1.96600E-10  2.09765E-10
 NY background values follow
    -9.263E-10   -8.879E-10   -8.495E-10   -8.111E-10   -7.728E-10   -7.346E-10   -6.965E-10   -6.586E-10   -6.208E-10   -5.833E-10
    -5.459E-10   -5.088E-10   -4.720E-10   -4.354E-10   -3.992E-10   -3.634E-10   -3.279E-10   -2.928E-10   -2.582E-10   -2.240E-10
    -1.902E-10   -1.570E-10   -1.243E-10   -9.222E-11   -6.067E-11   -2.975E-11    5.501E-13    3.019E-11    5.914E-11    8.739E-11
     1.150E-10    1.419E-10    1.682E-10    1.940E-10    2.191E-10    2.438E-10    2.680E-10    2.917E-10    3.150E-10    3.378E-10
     3.603E-10    3.825E-10    4.044E-10    4.259E-10    4.473E-10    4.684E-10    4.893E-10    5.100E-10    5.307E-10    5.512E-10
     5.716E-10    5.921E-10    6.125E-10    6.329E-10    6.534E-10    6.740E-10    6.947E-10    7.155E-10    7.365E-10    7.576E-10
     7.789E-10    8.004E-10    8.221E-10    8.440E-10    8.660E-10    8.883E-10    9.109E-10    9.336E-10    9.566E-10    9.799E-10
     1.003E-09    1.027E-09    1.051E-09    1.076E-09    1.100E-09    1.125E-09    1.151E-09    1.176E-09    1.202E-09    1.229E-09
     1.256E-09    1.283E-09    1.310E-09    1.338E-09    1.366E-09    1.395E-09    1.424E-09    1.453E-09    1.483E-09    1.513E-09
     1.543E-09    1.573E-09    1.603E-09    1.634E-09    1.664E-09    1.694E-09    1.724E-09    1.755E-09    1.785E-09    1.814E-09
     1.844E-09    1.873E-09    1.902E-09    1.931E-09    1.959E-09    1.987E-09    2.014E-09    2.041E-09    2.067E-09    2.092E-09
     2.117E-09    2.142E-09    2.165E-09    2.188E-09    2.210E-09    2.231E-09    2.251E-09    2.270E-09    2.288E-09    2.305E-09
     2.320E-09    2.335E-09    2.348E-09    2.360E-09    2.370E-09    2.379E-09    2.386E-09    2.392E-09    2.396E-09    2.399E-09
     2.400E-09    2.399E-09    2.396E-09    2.391E-09    2.384E-09    2.376E-09    2.365E-09    2.352E-09    2.337E-09    2.320E-09
     2.300E-09    2.278E-09    2.254E-09    2.227E-09    2.197E-09    2.165E-09    2.130E-09    2.092E-09    2.052E-09    2.008E-09
     1.962E-09    1.912E-09    1.860E-09    1.804E-09    1.744E-09    1.682E-09    1.616E-09    1.546E-09    1.473E-09    1.397E-09
     1.316E-09    1.232E-09    1.144E-09    1.052E-09    9.564E-10    8.564E-10    7.522E-10    6.439E-10    5.314E-10    4.149E-10
     2.949E-10    1.717E-10    4.578E-11   -8.256E-11   -2.129E-10   -3.449E-10   -4.781E-10   -6.122E-10   -7.468E-10   -8.815E-10
    -1.016E-09   -1.150E-09   -1.282E-09   -1.413E-09   -1.543E-09   -1.670E-09   -1.795E-09   -1.916E-09   -2.035E-09   -2.149E-09
    -2.260E-09   -2.366E-09   -2.467E-09   -2.562E-09   -2.653E-09   -2.737E-09   -2.815E-09   -2.886E-09   -2.952E-09   -3.011E-09
    -3.065E-09   -3.114E-09   -3.157E-09   -3.195E-09   -3.227E-09   -3.255E-09   -3.278E-09   -3.297E-09   -3.311E-09   -3.320E-09
    -3.326E-09   -3.328E-09   -3.326E-09   -3.321E-09   -3.312E-09   -3.299E-09   -3.284E-09   -3.266E-09   -3.245E-09   -3.221E-09
    -3.195E-09   -3.166E-09   -3.136E-09   -3.103E-09   -3.069E-09   -3.033E-09   -2.995E-09   -2.956E-09   -2.916E-09   -2.874E-09
    -2.832E-09   -2.788E-09   -2.744E-09   -2.699E-09   -2.654E-09   -2.608E-09   -2.562E-09   -2.516E-09   -2.469E-09   -2.423E-09
    -2.377E-09   -2.331E-09   -2.286E-09   -2.242E-09   -2.198E-09   -2.155E-09   -2.113E-09   -2.072E-09   -2.032E-09   -1.994E-09
    -1.957E-09   -1.922E-09   -1.888E-09   -1.857E-09   -1.826E-09   -1.797E-09   -1.770E-09   -1.744E-09   -1.719E-09   -1.696E-09
    -1.674E-09   -1.653E-09   -1.633E-09   -1.614E-09   -1.597E-09   -1.580E-09   -1.564E-09   -1.549E-09   -1.534E-09   -1.521E-09
    -1.508E-09   -1.496E-09   -1.484E-09   -1.473E-09   -1.462E-09   -1.451E-09   -1.441E-09   -1.431E-09   -1.422E-09   -1.412E-09
    -1.403E-09   -1.394E-09   -1.385E-09   -1.376E-09   -1.367E-09   -1.358E-09   -1.349E-09   -1.340E-09   -1.332E-09   -1.323E-09
    -1.314E-09   -1.305E-09   -1.296E-09   -1.286E-09   -1.277E-09   -1.268E-09   -1.258E-09   -1.248E-09   -1.238E-09   -1.228E-09
    -1.217E-09   -1.207E-09   -1.196E-09   -1.185E-09   -1.173E-09   -1.161E-09   -1.149E-09   -1.136E-09   -1.123E-09   -1.110E-09
    -1.097E-09   -1.083E-09   -1.069E-09   -1.054E-09   -1.040E-09   -1.025E-09   -1.010E-09   -9.947E-10   -9.793E-10   -9.638E-10
    -9.482E-10   -9.324E-10   -9.166E-10   -9.007E-10   -8.847E-10   -8.687E-10   -8.528E-10   -8.368E-10   -8.208E-10   -8.049E-10
    -7.890E-10   -7.732E-10   -7.576E-10   -7.420E-10   -7.266E-10   -7.113E-10   -6.962E-10   -6.812E-10   -6.664E-10   -6.517E-10
    -6.371E-10   -6.227E-10   -6.083E-10   -5.941E-10   -5.800E-10   -5.659E-10   -5.520E-10   -5.381E-10   -5.243E-10   -5.106E-10
    -4.969E-10   -4.833E-10   -4.697E-10   -4.562E-10   -4.427E-10   -4.293E-10   -4.159E-10   -4.024E-10   -3.890E-10   -3.756E-10
    -3.622E-10   -3.488E-10   -3.354E-10
 Ala      Conc. = 1.20E-10
  -8.36326E-10 -7.86637E-10 -7.41231E-10 -7.01002E-10 -6.62227E-10 -6.23658E-10 -5.90558E-10 -5.66669E-10 -5.40639E-10 -5.10165E-10
  -4.87586E-10 -4.64173E-10 -4.34219E-10 -4.05141E-10 -3.75191E-10 -3.42993E-10 -3.09880E-10 -2.76444E-10 -2.42984E-10 -2.09676E-10
  -1.76641E-10 -1.43959E-10 -1.11704E-10 -7.99174E-11 -4.86459E-11 -1.79394E-11  1.21755E-11  4.16653E-11  7.04942E-11  9.86460E-11
   1.26142E-10  1.53011E-10  1.79280E-10  2.04977E-10  2.30132E-10  2.54772E-10  2.78927E-10  3.02626E-10  3.25901E-10  3.48781E-10
   3.71292E-10  3.93470E-10  4.15339E-10  4.36934E-10  4.58280E-10  4.79413E-10  5.00360E-10  5.21149E-10  5.41817E-10  5.62388E-10
   5.82893E-10  6.03369E-10  6.23838E-10  6.44335E-10  6.64884E-10  6.85528E-10  7.06292E-10  7.27195E-10  7.48251E-10  7.69471E-10
   7.90863E-10  8.12439E-10  8.34209E-10  8.56182E-10  8.78370E-10  9.00783E-10  9.23430E-10  9.46323E-10  9.69472E-10  9.92889E-10
   1.01658E-09  1.04057E-09  1.06485E-09  1.08944E-09  1.11436E-09  1.13961E-09  1.16521E-09  1.19117E-09  1.21750E-09  1.24422E-09
   1.27134E-09  1.29887E-09  1.32684E-09  1.35526E-09  1.38414E-09  1.41350E-09  1.44329E-09  1.47351E-09  1.50413E-09  1.53515E-09
   1.56656E-09  1.59839E-09  1.63069E-09  1.66352E-09  1.69705E-09  1.73151E-09  1.76737E-09  1.80555E-09  1.84816E-09  1.90159E-09
   1.97580E-09  2.05180E-09  2.14477E-09  2.27887E-09  2.42539E-09  2.54069E-09  2.60162E-09  2.63359E-09  2.65483E-09  2.63725E-09
   2.55818E-09  2.45692E-09  2.40496E-09  2.34976E-09  2.29364E-09  2.28496E-09  2.29040E-09  2.30085E-09  2.31326E-09  2.32627E-09
   2.33917E-09  2.35155E-09  2.36313E-09  2.37371E-09  2.38314E-09  2.39130E-09  2.39810E-09  2.40344E-09  2.40725E-09  2.40945E-09
   2.40996E-09  2.40874E-09  2.40570E-09  2.40079E-09  2.39395E-09  2.38511E-09  2.37422E-09  2.36121E-09  2.34604E-09  2.32865E-09
   2.30895E-09  2.28691E-09  2.26245E-09  2.23549E-09  2.20596E-09  2.17379E-09  2.13891E-09  2.10126E-09  2.06075E-09  2.01732E-09
   1.97091E-09  1.92144E-09  1.86884E-09  1.81304E-09  1.75399E-09  1.69160E-09  1.62583E-09  1.55661E-09  1.48389E-09  1.40760E-09
   1.32773E-09  1.24424E-09  1.15717E-09  1.06660E-09  9.72839E-10  8.76821E-10  7.82706E-10  7.00503E-10  6.18710E-10  5.42558E-10
   4.82959E-10  4.38076E-10  3.76533E-10  2.59250E-10  8.37815E-11 -1.17457E-10 -3.17475E-10 -5.14415E-10 -7.04855E-10 -8.55441E-10
  -9.96093E-10 -1.13310E-09 -1.26776E-09 -1.40031E-09 -1.53065E-09 -1.65854E-09 -1.78368E-09 -1.90574E-09 -2.02436E-09 -2.13918E-09
  -2.24985E-09 -2.35598E-09 -2.45720E-09 -2.55312E-09 -2.64338E-09 -2.72759E-09 -2.80549E-09 -2.87716E-09 -2.94279E-09 -3.00252E-09
  -3.05652E-09 -3.10496E-09 -3.14801E-09 -3.18582E-09 -3.21855E-09 -3.24638E-09 -3.26947E-09 -3.28798E-09 -3.30208E-09 -3.31191E-09
  -3.31767E-09 -3.31949E-09 -3.31756E-09 -3.31202E-09 -3.30305E-09 -3.29082E-09 -3.27547E-09 -3.25718E-09 -3.23611E-09 -3.21242E-09
  -3.18627E-09 -3.15784E-09 -3.12727E-09 -3.09475E-09 -3.06041E-09 -3.02439E-09 -2.98682E-09 -2.94782E-09 -2.90752E-09 -2.86604E-09
  -2.82352E-09 -2.78008E-09 -2.73584E-09 -2.69095E-09 -2.64550E-09 -2.59965E-09 -2.55352E-09 -2.50723E-09 -2.46089E-09 -2.41467E-09
  -2.36867E-09 -2.32301E-09 -2.27783E-09 -2.23326E-09 -2.18941E-09 -2.14643E-09 -2.10442E-09 -2.06353E-09 -2.02387E-09 -1.98559E-09
  -1.94878E-09 -1.91361E-09 -1.88010E-09 -1.84820E-09 -1.81787E-09 -1.78904E-09 -1.76167E-09 -1.73569E-09 -1.71105E-09 -1.68770E-09
  -1.66558E-09 -1.64462E-09 -1.62478E-09 -1.60600E-09 -1.58823E-09 -1.57141E-09 -1.55546E-09 -1.54037E-09 -1.52606E-09 -1.51247E-09
  -1.49955E-09 -1.48725E-09 -1.47550E-09 -1.46425E-09 -1.45345E-09 -1.44304E-09 -1.43296E-09 -1.42317E-09 -1.41360E-09 -1.40419E-09
  -1.39492E-09 -1.38576E-09 -1.37669E-09 -1.36770E-09 -1.35878E-09 -1.34989E-09 -1.34103E-09 -1.33217E-09 -1.32330E-09 -1.31440E-09
  -1.30544E-09 -1.29642E-09 -1.28732E-09 -1.27811E-09 -1.26878E-09 -1.25931E-09 -1.24968E-09 -1.23987E-09 -1.22988E-09 -1.21966E-09
  -1.20923E-09 -1.19853E-09 -1.18758E-09 -1.17634E-09 -1.16480E-09 -1.15293E-09 -1.14073E-09 -1.12818E-09 -1.11527E-09 -1.10203E-09
  -1.08849E-09 -1.07465E-09 -1.06053E-09 -1.04616E-09 -1.03155E-09 -1.01673E-09 -1.00170E-09 -9.86496E-10 -9.71129E-10 -9.55616E-10
  -9.39982E-10 -9.24239E-10 -9.08408E-10 -8.92512E-10 -8.76563E-10 -8.60586E-10 -8.44595E-10 -8.28608E-10 -8.12648E-10 -7.96734E-10
  -7.80877E-10 -7.65104E-10 -7.49428E-10 -7.33872E-10 -7.18454E-10 -7.03186E-10 -6.88072E-10 -6.73104E-10 -6.58276E-10 -6.43581E-10
  -6.29013E-10 -6.14564E-10 -6.00229E-10 -5.86001E-10 -5.71875E-10 -5.57840E-10 -5.43895E-10 -5.30031E-10 -5.16241E-10 -5.02519E-10
  -4.88856E-10 -4.75251E-10 -4.61693E-10 -4.48177E-10 -4.34696E-10 -4.21245E-10 -4.07816E-10 -3.94402E-10 -3.80997E-10 -3.67596E-10
  -3.54192E-10 -3.40779E-10 -3.27345E-10
 Asp      Conc. = 4.23E-10
  -4.03658E-10 -4.22528E-10 -4.54797E-10 -5.02072E-10 -5.39700E-10 -5.73609E-10 -5.86120E-10 -5.87904E-10 -5.67495E-10 -5.38714E-10
  -5.06026E-10 -4.71404E-10 -4.35800E-10 -3.99644E-10 -3.63492E-10 -3.27497E-10 -2.91647E-10 -2.55996E-10 -2.20587E-10 -1.85460E-10
  -1.50650E-10 -1.16178E-10 -8.20700E-11 -4.83286E-11 -1.49582E-11  1.80346E-11  5.06736E-11  8.29861E-11  1.15013E-10  1.46837E-10
   1.78615E-10  2.10566E-10  2.42992E-10  2.76360E-10  3.11447E-10  3.49776E-10  3.94754E-10  4.43169E-10  4.99951E-10  5.60548E-10
   6.24203E-10  6.84153E-10  7.31909E-10  7.66553E-10  7.90304E-10  8.36927E-10  9.11996E-10  1.03200E-09  1.20239E-09  1.35522E-09
   1.43819E-09  1.42068E-09  1.34915E-09  1.27429E-09  1.20270E-09  1.13398E-09  1.05634E-09  1.02572E-09  9.90756E-10  9.53505E-10
   9.61724E-10  9.87969E-10  9.98972E-10  1.00379E-09  1.01042E-09  1.01156E-09  1.00366E-09  1.00861E-09  1.02022E-09  1.03549E-09
   1.05310E-09  1.07237E-09  1.09287E-09  1.11438E-09  1.13671E-09  1.15977E-09  1.18347E-09  1.20776E-09  1.23260E-09  1.25797E-09
   1.28383E-09  1.31020E-09  1.33704E-09  1.36436E-09  1.39215E-09  1.42040E-09  1.44905E-09  1.47805E-09  1.50736E-09  1.53692E-09
   1.56670E-09  1.59665E-09  1.62672E-09  1.65687E-09  1.68705E-09  1.71723E-09  1.74735E-09  1.77738E-09  1.80727E-09  1.83699E-09
   1.86647E-09  1.89569E-09  1.92461E-09  1.95317E-09  1.98134E-09  2.00907E-09  2.03633E-09  2.06306E-09  2.08924E-09  2.11481E-09
   2.13973E-09  2.16397E-09  2.18748E-09  2.21020E-09  2.23209E-09  2.25309E-09  2.27314E-09  2.29218E-09  2.31017E-09  2.32703E-09
   2.34273E-09  2.35719E-09  2.37037E-09  2.38220E-09  2.39264E-09  2.40163E-09  2.40911E-09  2.41502E-09  2.41931E-09  2.42193E-09
   2.42281E-09  2.42191E-09  2.41916E-09  2.41451E-09  2.40791E-09  2.39929E-09  2.38862E-09  2.37581E-09  2.36084E-09  2.34363E-09
   2.32413E-09  2.30227E-09  2.27800E-09  2.25124E-09  2.22191E-09  2.18996E-09  2.15531E-09  2.11790E-09  2.07766E-09  2.03452E-09
   1.98842E-09  1.93930E-09  1.88709E-09  1.83174E-09  1.77320E-09  1.71140E-09  1.64632E-09  1.57792E-09  1.50618E-09  1.43111E-09
   1.35276E-09  1.27123E-09  1.18678E-09  1.09988E-09  1.01161E-09  9.24864E-10  8.50570E-10  8.30196E-10  8.23677E-10  8.42135E-10
   9.24120E-10  1.07344E-09  1.18938E-09  1.12561E-09  8.53405E-10  4.79085E-10  1.06397E-10 -2.51252E-10 -5.96191E-10 -7.98998E-10
  -9.57486E-10 -1.10308E-09 -1.24266E-09 -1.37833E-09 -1.51076E-09 -1.64013E-09 -1.76635E-09 -1.88922E-09 -2.00847E-09 -2.12378E-09
  -2.23482E-09 -2.34126E-09 -2.44273E-09 -2.53886E-09 -2.62929E-09 -2.71364E-09 -2.79165E-09 -2.86343E-09 -2.92913E-09 -2.98893E-09
  -3.04299E-09 -3.09148E-09 -3.13457E-09 -3.17241E-09 -3.20518E-09 -3.23304E-09 -3.25615E-09 -3.27467E-09 -3.28878E-09 -3.29863E-09
  -3.30440E-09 -3.30623E-09 -3.30430E-09 -3.29877E-09 -3.28981E-09 -3.27757E-09 -3.26223E-09 -3.24394E-09 -3.22286E-09 -3.19917E-09
  -3.17303E-09 -3.14459E-09 -3.11403E-09 -3.08150E-09 -3.04716E-09 -3.01114E-09 -2.97356E-09 -2.93456E-09 -2.89425E-09 -2.85277E-09
