 LCModel (Version 6.3-1R) Copyright: S.W. Provencher.          Ref.: Magn. Reson. Med. 30:672-679 (1993).                
 onepulse 19x16_ftSpec_smooth_lcm
 26 lines in following concentration table = NCONC+1
    Conc.  %SD   /Cr    Metabolite                                         
 1.29E-10 109%   0.000 Ala                                                 
 4.76E-10  57%   0.000 Asp                                                 
    0.000 999%   0.000 Cr                                                  
 2.92E-09   9%   0.000 GABA                                                
 9.57E-10  49%   0.000 Glc                                                 
    0.000 999%   0.000 Gln                                                 
 2.72E-10 109%   0.000 Glu                                                 
    0.000 999%   0.000 Glyc                                                
    0.000 999%   0.000 GPC                                                 
    0.000 999%   0.000 GSH                                                 
 1.39E-10 117%   0.000 Ins                                                 
    0.000 999%   0.000 Lac                                                 
    0.000 999%   0.000 NAAG                                                
 1.04E-09  12%   0.000 NAA                                                 
 7.65E-11  92%   0.000 PCh                                                 
    0.000 999%   0.000 PCr                                                 
    0.000 999%   0.000 PE                                                  
 3.90E-12 999%   0.000 Scyllo                                              
    0.000 999%   0.000 Ser                                                 
 1.97E-10 247%   0.000 Tau                                                 
 7.65E-11  92%   0.000 GPC+PCh                                             
 1.04E-09  12%   0.000 NAA+NAAG                                            
 1.39E-10 117%   0.000 Ins+Glyc                                            
    0.000 999%   0.000 Cr+PCr                                              
 2.72E-10 109%   0.000 Glu+Gln                                             
   6 lines in following misc. output table
  FWHM = 0.067 ppm    S/N =   5                                            
  Data shift = 0.335 ppm                                                   
  Ph:  75 deg      38.2 deg/ppm                                            
  alphaB,S = 1.7E-01,   6.4E+01                                            
   16 spline knots.   Ns = 5(1)                                            
  ( 5) 2 infls.   ( 3) 1 extrs.                                            
  363 points on ppm-axis = NY
      4.250000     4.238821     4.227641     4.216462     4.205282     4.194103     4.182923     4.171744     4.160564     4.149385
      4.138206     4.127026     4.115847     4.104667     4.093488     4.082308     4.071129     4.059949     4.048770     4.037591
      4.026411     4.015232     4.004052     3.992873     3.981693     3.970514     3.959334     3.948155     3.936975     3.925796
      3.914617     3.903437     3.892258     3.881078     3.869899     3.858719     3.847540     3.836360     3.825181     3.814002
      3.802822     3.791643     3.780463     3.769284     3.758104     3.746925     3.735745     3.724566     3.713387     3.702207
      3.691028     3.679848     3.668669     3.657489     3.646310     3.635130     3.623951     3.612772     3.601592     3.590413
      3.579233     3.568054     3.556874     3.545695     3.534515     3.523336     3.512156     3.500977     3.489798     3.478618
      3.467439     3.456259     3.445080     3.433900     3.422721     3.411541     3.400362     3.389183     3.378003     3.366824
      3.355644     3.344465     3.333285     3.322106     3.310926     3.299747     3.288568     3.277388     3.266209     3.255029
      3.243850     3.232670     3.221491     3.210311     3.199132     3.187953     3.176773     3.165594     3.154414     3.143235
      3.132055     3.120876     3.109696     3.098517     3.087337     3.076158     3.064979     3.053799     3.042620     3.031440
      3.020261     3.009081     2.997902     2.986722     2.975543     2.964364     2.953184     2.942005     2.930825     2.919646
      2.908466     2.897287     2.886107     2.874928     2.863749     2.852569     2.841390     2.830210     2.819031     2.807851
      2.796672     2.785492     2.774313     2.763134     2.751954     2.740775     2.729595     2.718416     2.707236     2.696057
      2.684877     2.673698     2.662519     2.651339     2.640160     2.628980     2.617801     2.606621     2.595442     2.584262
      2.573083     2.561903     2.550724     2.539545     2.528365     2.517186     2.506006     2.494827     2.483647     2.472468
      2.461288     2.450109     2.438930     2.427750     2.416571     2.405391     2.394212     2.383032     2.371853     2.360673
      2.349494     2.338315     2.327135     2.315956     2.304776     2.293597     2.282417     2.271238     2.260058     2.248879
      2.237700     2.226520     2.215341     2.204161     2.192982     2.181802     2.170623     2.159443     2.148264     2.137084
      2.125905     2.114726     2.103546     2.092367     2.081187     2.070008     2.058828     2.047649     2.036469     2.025290
      2.014111     2.002931     1.991752     1.980572     1.969393     1.958213     1.947034     1.935854     1.924675     1.913496
      1.902316     1.891137     1.879957     1.868778     1.857598     1.846419     1.835239     1.824060     1.812881     1.801701
      1.790522     1.779342     1.768163     1.756983     1.745804     1.734624     1.723445     1.712265     1.701086     1.689907
      1.678727     1.667548     1.656368     1.645189     1.634009     1.622830     1.611650     1.600471     1.589292     1.578112
      1.566933     1.555753     1.544574     1.533394     1.522215     1.511035     1.499856     1.488677     1.477497     1.466318
      1.455138     1.443959     1.432779     1.421600     1.410420     1.399241     1.388062     1.376882     1.365703     1.354523
      1.343344     1.332164     1.320985     1.309805     1.298626     1.287446     1.276267     1.265088     1.253908     1.242729
      1.231549     1.220370     1.209190     1.198011     1.186831     1.175652     1.164473     1.153293     1.142114     1.130934
      1.119755     1.108575     1.097396     1.086216     1.075037     1.063858     1.052678     1.041499     1.030319     1.019140
      1.007960     0.996781     0.985601     0.974422     0.963243     0.952063     0.940884     0.929704     0.918525     0.907345
      0.896166     0.884986     0.873807     0.862628     0.851448     0.840269     0.829089     0.817910     0.806730     0.795551
      0.784371     0.773192     0.762012     0.750833     0.739654     0.728474     0.717295     0.706115     0.694936     0.683756
      0.672577     0.661397     0.650218     0.639039     0.627859     0.616680     0.605500     0.594321     0.583141     0.571962
      0.560782     0.549603     0.538424     0.527244     0.516065     0.504885     0.493706     0.482526     0.471347     0.460167
      0.448988     0.437809     0.426629     0.415450     0.404270     0.393091     0.381911     0.370732     0.359552     0.348373
      0.337193     0.326014     0.314835     0.303655     0.292476     0.281296     0.270117     0.258937     0.247758     0.236578
      0.225399     0.214220     0.203040
 NY phased data points follow
  -1.53167E-09  1.01184E-09  3.73746E-09  5.22290E-09  5.50167E-09  4.08216E-09  3.54154E-09  2.83867E-09  2.47872E-09  1.72141E-09
   2.43034E-09  2.21547E-09  2.30473E-09  2.39755E-09  3.36159E-09  3.21030E-09  4.38259E-09  5.20499E-09  4.84153E-09  4.49527E-09
   4.58667E-09  4.54307E-09  4.87669E-09  3.15888E-09  3.99482E-09  3.75361E-09  5.87084E-09  5.70533E-09  6.05212E-09  4.85556E-09
   5.19200E-09  4.38526E-09  5.29221E-09  7.12024E-09  9.20650E-09  9.43716E-09  9.38824E-09  8.45632E-09  6.30363E-09  5.46876E-09
   5.82386E-09  5.83913E-09  4.72966E-09  4.55994E-09  5.05345E-09  4.30474E-09  4.51158E-09  3.87521E-09  3.83201E-09  2.71135E-09
   2.76367E-09  2.95031E-09  3.51354E-09  3.29798E-09  4.11472E-09  2.60369E-09  2.68134E-09  2.62338E-09  2.39859E-09  1.66080E-09
   2.17177E-09  2.62084E-09  3.13376E-09  4.17336E-09  8.14176E-09  1.17002E-08  1.28010E-08  1.07608E-08  9.20659E-09  7.00794E-09
   6.56721E-09  5.95107E-09  5.09136E-09  4.05311E-09  3.24103E-09  3.48096E-09  2.62067E-09  1.75589E-09  2.84379E-09  3.75230E-09
   5.95053E-09  1.00179E-08  1.35959E-08  1.28303E-08  1.11190E-08  9.49700E-09  8.18667E-09  7.88095E-09  7.32535E-09  6.66727E-09
   6.86998E-09  6.46447E-09  5.75415E-09  5.58295E-09  5.07370E-09  4.64911E-09  4.12008E-09  4.42303E-09  3.79886E-09  2.81871E-09
   3.30748E-09  3.36335E-09  3.41810E-09  2.81733E-09  4.15205E-09  3.80527E-09  3.56615E-09  3.71552E-09  3.39828E-09  3.55760E-09
   2.70100E-09  1.92199E-09  2.10179E-09  1.84602E-09  2.38932E-09  2.73290E-09  3.54538E-09  3.67702E-09  3.13834E-09  3.63994E-09
   4.16187E-09  4.13785E-09  3.20287E-09  3.19382E-09  2.70717E-09  1.69893E-09  1.64112E-09  2.10108E-09  2.01614E-09  1.78943E-09
   2.63615E-09  2.46056E-09  2.43953E-09  2.40595E-09  3.00193E-09  2.55846E-09  2.62042E-09  1.86172E-09  1.31881E-09  1.91408E-09
   3.28314E-09  3.15715E-09  4.62290E-09  4.68060E-09  3.07863E-09  2.61795E-09  3.62612E-09  4.28370E-09  4.05248E-09  4.22043E-09
   3.42083E-09  3.52323E-09  3.48356E-09  3.19132E-09  3.44810E-09  3.21012E-09  3.06925E-09  3.59391E-09  3.25395E-09  3.75326E-09
   4.26038E-09  4.68523E-09  4.67122E-09  4.50828E-09  5.06091E-09  4.72367E-09  5.26223E-09  5.95002E-09  6.09182E-09  8.12688E-09
   9.73543E-09  1.27090E-08  1.66033E-08  1.83618E-08  1.48354E-08  1.02953E-08  7.56230E-09  5.75527E-09  5.45165E-09  4.58320E-09
   3.08781E-09  3.37036E-09  2.60478E-09  2.03795E-09  1.58017E-09  1.67733E-09  3.88268E-10  8.67444E-10  1.97098E-10 -5.47748E-10
  -7.76850E-10 -1.08911E-09 -2.06781E-09 -1.93605E-09 -2.83207E-09 -3.97793E-09 -4.87304E-09 -4.71546E-09 -5.66307E-09 -6.78141E-09
  -7.17755E-09 -7.25002E-09 -7.83418E-09 -7.52008E-09 -7.63164E-09 -7.31708E-09 -6.83184E-09 -7.06212E-09 -6.37838E-09 -5.76752E-09
  -5.36976E-09 -3.89280E-09 -3.94841E-09 -2.62585E-09 -2.73580E-09 -2.05273E-09 -1.77141E-09 -2.24114E-09 -1.22053E-09 -1.68144E-09
  -1.45507E-09 -2.25676E-09 -2.01062E-09 -1.31705E-09 -2.66334E-09 -1.66101E-09 -9.12303E-10 -1.73835E-09 -1.62530E-09 -1.31477E-09
  -1.44433E-09 -1.93542E-09 -1.45944E-09 -1.97763E-09 -1.96523E-09 -1.64082E-09 -1.89301E-09 -1.42666E-09 -9.38348E-10 -1.75202E-09
  -1.05118E-09 -1.40380E-09 -1.17126E-09 -1.11827E-09 -2.13062E-09 -1.92729E-09 -1.32592E-09 -1.43544E-09 -1.74716E-09 -1.19720E-09
  -1.35619E-09 -9.31804E-10 -2.07479E-10 -7.26817E-10 -8.03013E-10 -9.89231E-10 -9.20633E-10 -1.27304E-09 -1.84394E-09 -1.84887E-09
  -1.49000E-09 -1.87607E-09 -2.18544E-09 -2.20134E-09 -2.32401E-09 -1.19439E-09 -1.07279E-09 -9.23362E-10 -9.39982E-10 -2.80088E-10
  -2.34940E-10  2.29629E-11 -4.06218E-10 -1.66170E-11  2.88637E-10 -5.30383E-10 -1.01229E-09 -6.25621E-10 -1.18976E-09 -1.51118E-09
  -1.81188E-09 -1.26593E-09 -1.65391E-09 -2.00841E-09 -1.59207E-09 -1.27661E-09 -1.71221E-09 -1.27852E-09 -1.72305E-09 -1.49448E-09
  -9.67782E-10 -1.10418E-09 -1.50594E-09 -8.66809E-10 -8.54527E-10 -9.86845E-10 -1.26591E-09 -9.45758E-10 -1.16982E-09 -1.55808E-09
  -6.87838E-10 -8.60531E-10 -1.28736E-09 -1.11371E-09 -6.70250E-10 -1.01116E-09 -9.76883E-10 -8.64435E-10 -8.63625E-10 -4.91143E-10
  -1.23848E-09 -6.73974E-10 -9.15882E-10 -3.68170E-10 -9.64699E-10 -1.02220E-09 -7.16294E-10 -2.96804E-10 -6.09562E-10 -8.19498E-10
  -4.20630E-10 -7.95921E-10 -5.56640E-10 -8.60500E-10 -5.06819E-10 -5.82459E-10 -4.53648E-10 -2.89965E-10 -6.22116E-10 -1.90065E-10
  -6.08847E-10 -4.12200E-10 -8.55172E-10 -2.92794E-10 -3.96161E-10 -5.28881E-10 -7.32272E-10 -5.03851E-10 -5.47600E-10 -8.03247E-10
  -1.05714E-10 -1.75525E-10 -3.89717E-10 -1.65441E-10 -7.02519E-10 -5.24191E-10 -6.67255E-10 -4.40946E-10 -1.41517E-10 -2.56979E-10
  -7.34464E-11 -3.60352E-10 -1.39319E-10 -1.62942E-10 -3.36548E-10 -2.93935E-10 -1.62187E-10 -2.33387E-10 -2.34986E-10 -6.99884E-10
  -3.84370E-10 -2.01576E-10 -5.02264E-11
 NY points of the fit to the data follow
   2.35982E-09  2.78190E-09  3.16829E-09  3.44358E-09  3.53182E-09  3.41903E-09  3.14805E-09  2.82516E-09  2.56279E-09  2.38993E-09
   2.35285E-09  2.41571E-09  2.55550E-09  2.76597E-09  3.06131E-09  3.40529E-09  3.81921E-09  4.30338E-09  4.77901E-09  5.13072E-09
   5.25659E-09  5.04564E-09  4.57954E-09  4.12177E-09  3.82824E-09  3.78631E-09  4.05060E-09  4.54519E-09  5.11742E-09  5.59364E-09
   5.79886E-09  5.98435E-09  6.41259E-09  6.87215E-09  7.28301E-09  7.77387E-09  8.20943E-09  8.35126E-09  8.03107E-09  7.34670E-09
   6.56445E-09  5.76574E-09  4.74734E-09  3.86259E-09  3.35319E-09  2.94214E-09  2.69121E-09  2.71772E-09  2.85567E-09  2.96635E-09
   2.99681E-09  2.95112E-09  2.92188E-09  2.94881E-09  3.02960E-09  3.13008E-09  3.19891E-09  3.20858E-09  3.16081E-09  3.16384E-09
   3.38392E-09  3.91323E-09  4.62625E-09  5.42393E-09  6.48941E-09  7.56467E-09  8.41424E-09  9.02619E-09  9.35461E-09  9.27346E-09
   8.67867E-09  7.60813E-09  6.38139E-09  5.38130E-09  4.48485E-09  3.70965E-09  3.52993E-09  3.95738E-09  4.68907E-09  5.91587E-09
   7.58793E-09  9.48478E-09  1.11685E-08  1.19015E-08  1.13674E-08  1.00909E-08  8.69915E-09  7.48369E-09  6.57486E-09  6.34074E-09
   6.25950E-09  6.19074E-09  5.93434E-09  5.45771E-09  5.05854E-09  4.66858E-09  4.16516E-09  3.78124E-09  3.51973E-09  3.29341E-09
   3.16224E-09  3.10414E-09  3.10214E-09  3.16021E-09  3.24410E-09  3.31531E-09  3.35112E-09  3.35652E-09  3.33828E-09  3.28555E-09
   3.19380E-09  3.09111E-09  3.01717E-09  2.94577E-09  2.89141E-09  2.88102E-09  2.88548E-09  2.89629E-09  2.91038E-09  2.92626E-09
   2.94312E-09  2.96040E-09  2.97771E-09  2.99475E-09  3.01131E-09  3.02720E-09  3.04226E-09  3.05636E-09  3.06940E-09  3.08125E-09
   3.09182E-09  3.10102E-09  3.10877E-09  3.11497E-09  3.11954E-09  3.12241E-09  3.12352E-09  3.12280E-09  3.12020E-09  3.11564E-09
   3.10904E-09  3.10034E-09  3.08943E-09  3.07621E-09  3.06062E-09  3.04256E-09  3.02196E-09  2.99874E-09  2.97285E-09  2.94422E-09
   2.91286E-09  2.87873E-09  2.84186E-09  2.80232E-09  2.76021E-09  2.71572E-09  2.66915E-09  2.62095E-09  2.57183E-09  2.52288E-09
   2.47586E-09  2.43370E-09  2.40162E-09  2.38976E-09  2.42111E-09  2.56327E-09  3.11667E-09  4.41389E-09  6.24837E-09  8.66298E-09
   1.16964E-08  1.48496E-08  1.69535E-08  1.69219E-08  1.47077E-08  1.12421E-08  7.55641E-09  4.28559E-09  2.04138E-09  1.11451E-09
   6.57929E-10  3.46698E-10  9.96920E-11 -1.12589E-10 -3.03487E-10 -4.79866E-10 -6.45512E-10 -8.02617E-10 -9.52449E-10 -1.09576E-09
  -1.23294E-09 -1.36418E-09 -1.48948E-09 -1.60876E-09 -1.72188E-09 -1.82863E-09 -1.92885E-09 -2.02271E-09 -2.11041E-09 -2.19215E-09
  -2.26810E-09 -2.33841E-09 -2.40324E-09 -2.46274E-09 -2.51706E-09 -2.56633E-09 -2.61068E-09 -2.65025E-09 -2.68516E-09 -2.71553E-09
  -2.74150E-09 -2.76317E-09 -2.78069E-09 -2.79416E-09 -2.80370E-09 -2.80944E-09 -2.81148E-09 -2.80995E-09 -2.80496E-09 -2.79663E-09
  -2.78507E-09 -2.77039E-09 -2.75272E-09 -2.73217E-09 -2.70886E-09 -2.68295E-09 -2.65462E-09 -2.62401E-09 -2.59129E-09 -2.55663E-09
  -2.52019E-09 -2.48212E-09 -2.44260E-09 -2.40178E-09 -2.35982E-09 -2.31689E-09 -2.27315E-09 -2.22876E-09 -2.18386E-09 -2.13866E-09
  -2.09328E-09 -2.04790E-09 -2.00267E-09 -1.95776E-09 -1.91333E-09 -1.86953E-09 -1.82654E-09 -1.78450E-09 -1.74359E-09 -1.70396E-09
  -1.66577E-09 -1.62919E-09 -1.59429E-09 -1.56100E-09 -1.52930E-09 -1.49912E-09 -1.47040E-09 -1.44310E-09 -1.41716E-09 -1.39252E-09
  -1.36914E-09 -1.34696E-09 -1.32592E-09 -1.30598E-09 -1.28707E-09 -1.26915E-09 -1.25215E-09 -1.23604E-09 -1.22075E-09 -1.20623E-09
  -1.19242E-09 -1.17928E-09 -1.16673E-09 -1.15475E-09 -1.14327E-09 -1.13222E-09 -1.12158E-09 -1.11128E-09 -1.10126E-09 -1.09147E-09
  -1.08188E-09 -1.07247E-09 -1.06323E-09 -1.05413E-09 -1.04518E-09 -1.03633E-09 -1.02759E-09 -1.01894E-09 -1.01035E-09 -1.00182E-09
  -9.93319E-10 -9.84842E-10 -9.76369E-10 -9.67884E-10 -9.59373E-10 -9.50816E-10 -9.42200E-10 -9.33506E-10 -9.24725E-10 -9.15828E-10
  -9.06812E-10 -8.97653E-10 -8.88336E-10 -8.78851E-10 -8.69175E-10 -8.59292E-10 -8.49191E-10 -8.38850E-10 -8.28277E-10 -8.17484E-10
  -8.06481E-10 -7.95283E-10 -7.83903E-10 -7.72349E-10 -7.60637E-10 -7.48780E-10 -7.36789E-10 -7.24676E-10 -7.12457E-10 -7.00138E-10
  -6.87740E-10 -6.75268E-10 -6.62736E-10 -6.50162E-10 -6.37551E-10 -6.24922E-10 -6.12284E-10 -5.99647E-10 -5.87028E-10 -5.74441E-10
  -5.61891E-10 -5.49397E-10 -5.36967E-10 -5.24618E-10 -5.12362E-10 -5.00204E-10 -4.88149E-10 -4.76192E-10 -4.64328E-10 -4.52551E-10
  -4.40858E-10 -4.29243E-10 -4.17703E-10 -4.06232E-10 -3.94828E-10 -3.83481E-10 -3.72194E-10 -3.60957E-10 -3.49768E-10 -3.38620E-10
  -3.27508E-10 -3.16432E-10 -3.05383E-10 -2.94359E-10 -2.83354E-10 -2.72365E-10 -2.61385E-10 -2.50410E-10 -2.39436E-10 -2.28461E-10
  -2.17478E-10 -2.06483E-10 -1.95467E-10
 NY background values follow
    -1.691E-09   -1.649E-09   -1.607E-09   -1.565E-09   -1.523E-09   -1.482E-09   -1.440E-09   -1.399E-09   -1.358E-09   -1.317E-09
    -1.276E-09   -1.235E-09   -1.195E-09   -1.155E-09   -1.116E-09   -1.076E-09   -1.038E-09   -9.993E-10   -9.613E-10   -9.239E-10
    -8.869E-10   -8.505E-10   -8.145E-10   -7.792E-10   -7.445E-10   -7.103E-10   -6.769E-10   -6.440E-10   -6.119E-10   -5.805E-10
    -5.498E-10   -5.197E-10   -4.902E-10   -4.614E-10   -4.331E-10   -4.053E-10   -3.781E-10   -3.513E-10   -3.250E-10   -2.990E-10
    -2.735E-10   -2.483E-10   -2.235E-10   -1.990E-10   -1.747E-10   -1.507E-10   -1.269E-10   -1.032E-10   -7.974E-11   -5.639E-11
    -3.312E-11   -9.922E-12    1.324E-11    3.640E-11    5.957E-11    8.281E-11    1.061E-10    1.296E-10    1.531E-10    1.768E-10
     2.007E-10    2.248E-10    2.492E-10    2.737E-10    2.986E-10    3.237E-10    3.492E-10    3.750E-10    4.011E-10    4.277E-10
     4.546E-10    4.820E-10    5.099E-10    5.382E-10    5.670E-10    5.963E-10    6.262E-10    6.567E-10    6.877E-10    7.194E-10
     7.517E-10    7.847E-10    8.184E-10    8.527E-10    8.878E-10    9.236E-10    9.601E-10    9.972E-10    1.035E-09    1.073E-09
     1.112E-09    1.151E-09    1.190E-09    1.230E-09    1.270E-09    1.310E-09    1.351E-09    1.391E-09    1.432E-09    1.472E-09
     1.513E-09    1.553E-09    1.594E-09    1.634E-09    1.674E-09    1.713E-09    1.753E-09    1.792E-09    1.830E-09    1.868E-09
     1.905E-09    1.942E-09    1.978E-09    2.014E-09    2.049E-09    2.082E-09    2.115E-09    2.148E-09    2.179E-09    2.209E-09
     2.238E-09    2.266E-09    2.292E-09    2.317E-09    2.341E-09    2.364E-09    2.385E-09    2.405E-09    2.423E-09    2.439E-09
     2.454E-09    2.467E-09    2.478E-09    2.488E-09    2.495E-09    2.501E-09    2.504E-09    2.506E-09    2.505E-09    2.502E-09
     2.497E-09    2.489E-09    2.479E-09    2.467E-09    2.452E-09    2.434E-09    2.413E-09    2.389E-09    2.362E-09    2.332E-09
     2.299E-09    2.262E-09    2.222E-09    2.178E-09    2.130E-09    2.079E-09    2.024E-09    1.965E-09    1.901E-09    1.834E-09
     1.762E-09    1.686E-09    1.605E-09    1.520E-09    1.429E-09    1.334E-09    1.235E-09    1.130E-09    1.019E-09    9.046E-10
     7.854E-10    6.622E-10    5.354E-10    4.053E-10    2.725E-10    1.372E-10   -4.861E-14   -1.389E-10   -2.791E-10   -4.200E-10
    -5.614E-10   -7.028E-10   -8.439E-10   -9.842E-10   -1.123E-09   -1.261E-09   -1.397E-09   -1.530E-09   -1.661E-09   -1.788E-09
    -1.912E-09   -2.032E-09   -2.148E-09   -2.259E-09   -2.365E-09   -2.465E-09   -2.560E-09   -2.649E-09   -2.732E-09   -2.810E-09
    -2.882E-09   -2.949E-09   -3.011E-09   -3.068E-09   -3.120E-09   -3.167E-09   -3.209E-09   -3.246E-09   -3.279E-09   -3.308E-09
    -3.332E-09   -3.352E-09   -3.369E-09   -3.381E-09   -3.389E-09   -3.393E-09   -3.394E-09   -3.392E-09   -3.386E-09   -3.376E-09
    -3.364E-09   -3.348E-09   -3.330E-09   -3.309E-09   -3.284E-09   -3.258E-09   -3.229E-09   -3.197E-09   -3.164E-09   -3.129E-09
    -3.092E-09   -3.053E-09   -3.013E-09   -2.971E-09   -2.929E-09   -2.886E-09   -2.841E-09   -2.796E-09   -2.751E-09   -2.705E-09
    -2.659E-09   -2.614E-09   -2.568E-09   -2.523E-09   -2.478E-09   -2.434E-09   -2.390E-09   -2.348E-09   -2.306E-09   -2.266E-09
    -2.228E-09   -2.191E-09   -2.156E-09   -2.122E-09   -2.090E-09   -2.059E-09   -2.030E-09   -2.003E-09   -1.976E-09   -1.951E-09
    -1.928E-09   -1.905E-09   -1.884E-09   -1.864E-09   -1.844E-09   -1.826E-09   -1.809E-09   -1.792E-09   -1.777E-09   -1.762E-09
    -1.748E-09   -1.734E-09   -1.722E-09   -1.709E-09   -1.698E-09   -1.686E-09   -1.675E-09   -1.665E-09   -1.654E-09   -1.644E-09
    -1.635E-09   -1.625E-09   -1.615E-09   -1.606E-09   -1.597E-09   -1.588E-09   -1.579E-09   -1.570E-09   -1.561E-09   -1.552E-09
    -1.543E-09   -1.534E-09   -1.526E-09   -1.517E-09   -1.508E-09   -1.499E-09   -1.490E-09   -1.482E-09   -1.472E-09   -1.463E-09
    -1.454E-09   -1.445E-09   -1.435E-09   -1.425E-09   -1.415E-09   -1.405E-09   -1.395E-09   -1.384E-09   -1.373E-09   -1.362E-09
    -1.351E-09   -1.340E-09   -1.328E-09   -1.316E-09   -1.304E-09   -1.292E-09   -1.280E-09   -1.267E-09   -1.255E-09   -1.242E-09
    -1.229E-09   -1.217E-09   -1.204E-09   -1.191E-09   -1.178E-09   -1.165E-09   -1.152E-09   -1.139E-09   -1.127E-09   -1.114E-09
    -1.101E-09   -1.088E-09   -1.075E-09   -1.063E-09   -1.050E-09   -1.038E-09   -1.025E-09   -1.013E-09   -1.001E-09   -9.888E-10
    -9.768E-10   -9.649E-10   -9.531E-10   -9.413E-10   -9.296E-10   -9.179E-10   -9.063E-10   -8.948E-10   -8.833E-10   -8.718E-10
    -8.604E-10   -8.490E-10   -8.376E-10   -8.263E-10   -8.150E-10   -8.037E-10   -7.924E-10   -7.811E-10   -7.697E-10   -7.584E-10
    -7.471E-10   -7.358E-10   -7.244E-10
 Ala      Conc. = 1.29E-10
  -1.59689E-09 -1.54343E-09 -1.49362E-09 -1.44794E-09 -1.40506E-09 -1.36451E-09 -1.32889E-09 -1.29971E-09 -1.27023E-09 -1.23942E-09
  -1.21344E-09 -1.18583E-09 -1.15376E-09 -1.12198E-09 -1.08887E-09 -1.05365E-09 -1.01751E-09 -9.81046E-10 -9.44538E-10 -9.08168E-10
  -8.72059E-10 -8.36296E-10 -8.00957E-10 -7.66083E-10 -7.31720E-10 -6.97926E-10 -6.64723E-10 -6.32144E-10 -6.00229E-10 -5.68993E-10
  -5.38417E-10 -5.08471E-10 -4.79132E-10 -4.50373E-10 -4.22165E-10 -3.94481E-10 -3.67294E-10 -3.40576E-10 -3.14295E-10 -2.88422E-10
  -2.62936E-10 -2.37797E-10 -2.12987E-10 -1.88468E-10 -1.64220E-10 -1.40203E-10 -1.16395E-10 -9.27709E-11 -6.92876E-11 -4.59274E-11
  -2.26609E-11  5.51148E-13  2.37275E-11  4.69033E-11  7.00935E-11  9.33563E-11  1.16707E-10  1.40166E-10  1.63762E-10  1.87519E-10
   2.11459E-10  2.35605E-10  2.59982E-10  2.84612E-10  3.09519E-10  3.34725E-10  3.60255E-10  3.86132E-10  4.12380E-10  4.39023E-10
   4.66085E-10  4.93587E-10  5.21558E-10  5.50018E-10  5.78995E-10  6.08511E-10  6.38592E-10  6.69264E-10  7.00554E-10  7.32485E-10
   7.65088E-10  7.98388E-10  8.32418E-10  8.67204E-10  9.02782E-10  9.39147E-10  9.76269E-10  1.01411E-09  1.05266E-09  1.09189E-09
   1.13179E-09  1.17238E-09  1.21369E-09  1.25581E-09  1.29887E-09  1.34314E-09  1.38912E-09  1.43781E-09  1.49154E-09  1.55749E-09
   1.64866E-09  1.74880E-09  1.86539E-09  2.01576E-09  2.17340E-09  2.30465E-09  2.39004E-09  2.43706E-09  2.45434E-09  2.43235E-09
   2.36754E-09  2.28846E-09  2.23522E-09  2.18204E-09  2.14380E-09  2.14776E-09  2.16517E-09  2.18768E-09  2.21237E-09  2.23787E-09
   2.26345E-09  2.28867E-09  2.31323E-09  2.33693E-09  2.35959E-09  2.38109E-09  2.40133E-09  2.42020E-09  2.43762E-09  2.45352E-09
   2.46781E-09  2.48042E-09  2.49130E-09  2.50036E-09  2.50756E-09  2.51282E-09  2.51608E-09  2.51729E-09  2.51637E-09  2.51328E-09
   2.50794E-09  2.50028E-09  2.49017E-09  2.47752E-09  2.46222E-09  2.44417E-09  2.42327E-09  2.39941E-09  2.37248E-09  2.34239E-09
   2.30903E-09  2.27230E-09  2.23209E-09  2.18831E-09  2.14086E-09  2.08964E-09  2.03454E-09  1.97548E-09  1.91238E-09  1.84513E-09
   1.77368E-09  1.69797E-09  1.61801E-09  1.53386E-09  1.44582E-09  1.35488E-09  1.26560E-09  1.19004E-09  1.12011E-09  1.05750E-09
   1.00540E-09  9.55948E-10  8.83860E-10  7.61889E-10  5.86500E-10  3.79204E-10  1.64681E-10 -4.31525E-11 -2.33221E-10 -3.89535E-10
  -5.37466E-10 -6.82515E-10 -8.25883E-10 -9.67783E-10 -1.10809E-09 -1.24658E-09 -1.38294E-09 -1.51684E-09 -1.64789E-09 -1.77575E-09
  -1.90002E-09 -2.02034E-09 -2.13631E-09 -2.24753E-09 -2.35363E-09 -2.45421E-09 -2.54898E-09 -2.63799E-09 -2.72136E-09 -2.79919E-09
  -2.87160E-09 -2.93871E-09 -3.00062E-09 -3.05745E-09 -3.10931E-09 -3.15631E-09 -3.19856E-09 -3.23619E-09 -3.26928E-09 -3.29797E-09
  -3.32236E-09 -3.34255E-09 -3.35867E-09 -3.37084E-09 -3.37914E-09 -3.38371E-09 -3.38465E-09 -3.38207E-09 -3.37608E-09 -3.36680E-09
  -3.35433E-09 -3.33879E-09 -3.32029E-09 -3.29894E-09 -3.27488E-09 -3.24824E-09 -3.21920E-09 -3.18792E-09 -3.15455E-09 -3.11926E-09
  -3.08221E-09 -3.04356E-09 -3.00347E-09 -2.96210E-09 -2.91961E-09 -2.87616E-09 -2.83192E-09 -2.78703E-09 -2.74167E-09 -2.69599E-09
  -2.65017E-09 -2.60434E-09 -2.55868E-09 -2.51335E-09 -2.46850E-09 -2.42431E-09 -2.38091E-09 -2.33849E-09 -2.29720E-09 -2.25720E-09
  -2.21864E-09 -2.18170E-09 -2.14644E-09 -2.11281E-09 -2.08076E-09 -2.05024E-09 -2.02118E-09 -1.99356E-09 -1.96729E-09 -1.94233E-09
  -1.91864E-09 -1.89614E-09 -1.87479E-09 -1.85454E-09 -1.83533E-09 -1.81711E-09 -1.79981E-09 -1.78340E-09 -1.76782E-09 -1.75301E-09
  -1.73891E-09 -1.72548E-09 -1.71266E-09 -1.70039E-09 -1.68863E-09 -1.67731E-09 -1.66639E-09 -1.65581E-09 -1.64551E-09 -1.63545E-09
  -1.62559E-09 -1.61591E-09 -1.60640E-09 -1.59703E-09 -1.58781E-09 -1.57870E-09 -1.56969E-09 -1.56077E-09 -1.55191E-09 -1.54312E-09
  -1.53435E-09 -1.52561E-09 -1.51688E-09 -1.50813E-09 -1.49935E-09 -1.49053E-09 -1.48166E-09 -1.47270E-09 -1.46366E-09 -1.45450E-09
  -1.44522E-09 -1.43579E-09 -1.42621E-09 -1.41647E-09 -1.40653E-09 -1.39638E-09 -1.38601E-09 -1.37541E-09 -1.36457E-09 -1.35351E-09
  -1.34224E-09 -1.33078E-09 -1.31913E-09 -1.30731E-09 -1.29533E-09 -1.28320E-09 -1.27094E-09 -1.25856E-09 -1.24607E-09 -1.23348E-09
  -1.22081E-09 -1.20806E-09 -1.19526E-09 -1.18241E-09 -1.16952E-09 -1.15661E-09 -1.14370E-09 -1.13078E-09 -1.11788E-09 -1.10502E-09
  -1.09218E-09 -1.07940E-09 -1.06669E-09 -1.05406E-09 -1.04151E-09 -1.02907E-09 -1.01672E-09 -1.00448E-09 -9.92320E-10 -9.80250E-10
  -9.68263E-10 -9.56352E-10 -9.44515E-10 -9.32746E-10 -9.21042E-10 -9.09394E-10 -8.97805E-10 -8.86264E-10 -8.74768E-10 -8.63313E-10
  -8.51893E-10 -8.40506E-10 -8.29145E-10 -8.17808E-10 -8.06487E-10 -7.95181E-10 -7.83883E-10 -7.72587E-10 -7.61291E-10 -7.49992E-10
  -7.38683E-10 -7.27361E-10 -7.16016E-10
 Asp      Conc. = 4.76E-10
  -1.11130E-09 -1.13350E-09 -1.16819E-09 -1.21630E-09 -1.25981E-09 -1.29748E-09 -1.31349E-09 -1.31266E-09 -1.29095E-09 -1.26076E-09
  -1.22635E-09 -1.18966E-09 -1.15174E-09 -1.11321E-09 -1.07458E-09 -1.03601E-09 -9.97506E-10 -9.59150E-10 -9.20995E-10 -8.83088E-10
  -8.45469E-10 -8.08166E-10 -7.71209E-10 -7.34599E-10 -6.98342E-10 -6.62449E-10 -6.26888E-10 -5.91630E-10 -5.56628E-10 -5.21789E-10
  -4.86941E-10 -4.51841E-10 -4.16145E-10 -3.79314E-10 -3.40425E-10 -2.97633E-10 -2.46678E-10 -1.90077E-10 -1.23652E-10 -5.36782E-11
   1.55218E-11  7.66474E-11  1.24088E-10  1.61922E-10  1.97972E-10  2.65041E-10  3.65403E-10  5.05186E-10  6.83271E-10  8.40688E-10
   9.28016E-10  9.20765E-10  8.50698E-10  7.59819E-10  6.70111E-10  5.94957E-10  5.28102E-10  4.91620E-10  4.50412E-10  4.16678E-10
   4.22765E-10  4.45031E-10  4.59923E-10  4.69303E-10  4.73568E-10  4.70381E-10  4.64320E-10  4.70849E-10  4.84131E-10  5.01357E-10
   5.21225E-10  5.43038E-10  5.66387E-10  5.91015E-10  6.16757E-10  6.43499E-10  6.71169E-10  6.99717E-10  7.29110E-10  7.59326E-10
   7.90357E-10  8.22196E-10  8.54849E-10  8.88314E-10  9.22604E-10  9.57691E-10  9.93519E-10  1.03003E-09  1.06716E-09  1.10486E-09
   1.14306E-09  1.18173E-09  1.22079E-09  1.26020E-09  1.29990E-09  1.33985E-09  1.37998E-09  1.42024E-09  1.46059E-09  1.50097E-09
   1.54132E-09  1.58160E-09  1.62176E-09  1.66174E-09  1.70149E-09  1.74096E-09  1.78010E-09  1.81886E-09  1.85718E-09  1.89503E-09
   1.93233E-09  1.96905E-09  2.00513E-09  2.04052E-09  2.07516E-09  2.10899E-09  2.14196E-09  2.17400E-09  2.20506E-09  2.23508E-09
   2.26400E-09  2.29176E-09  2.31831E-09  2.34359E-09  2.36754E-09  2.39011E-09  2.41123E-09  2.43084E-09  2.44890E-09  2.46534E-09
   2.48011E-09  2.49314E-09  2.50439E-09  2.51378E-09  2.52128E-09  2.52681E-09  2.53032E-09  2.53175E-09  2.53106E-09  2.52817E-09
   2.52303E-09  2.51555E-09  2.50563E-09  2.49316E-09  2.47805E-09  2.46019E-09  2.43949E-09  2.41583E-09  2.38913E-09  2.35927E-09
   2.32617E-09  2.28973E-09  2.24985E-09  2.20644E-09  2.15942E-09  2.10869E-09  2.05419E-09  1.99585E-09  1.93363E-09  1.86749E-09
   1.79746E-09  1.72364E-09  1.64628E-09  1.56588E-09  1.48369E-09  1.40308E-09  1.33722E-09  1.33550E-09  1.36972E-09  1.44210E-09
   1.56525E-09  1.71581E-09  1.80412E-09  1.72330E-09  1.44803E-09  1.05109E-09  6.25473E-10  2.25314E-10 -1.12645E-10 -3.19210E-10
  -4.86336E-10 -6.41368E-10 -7.90789E-10 -9.36706E-10 -1.07985E-09 -1.22042E-09 -1.35837E-09 -1.49350E-09 -1.62554E-09 -1.75419E-09
  -1.87913E-09 -2.00000E-09 -2.11644E-09 -2.22805E-09 -2.33449E-09 -2.43536E-09 -2.53039E-09 -2.61963E-09 -2.70320E-09 -2.78121E-09
  -2.85378E-09 -2.92103E-09 -2.98307E-09 -3.04001E-09 -3.09198E-09 -3.13907E-09 -3.18142E-09 -3.21912E-09 -3.25229E-09 -3.28104E-09
  -3.30550E-09 -3.32575E-09 -3.34193E-09 -3.35414E-09 -3.36249E-09 -3.36710E-09 -3.36808E-09 -3.36554E-09 -3.35959E-09 -3.35034E-09
  -3.33790E-09 -3.32239E-09 -3.30392E-09 -3.28261E-09 -3.25856E-09 -3.23195E-09 -3.20294E-09 -3.17168E-09 -3.13833E-09 -3.10306E-09
