 LCModel (Version 6.3-1R) Copyright: S.W. Provencher.          Ref.: Magn. Reson. Med. 30:672-679 (1993).                
 onepulse 19x10_ftSpec_smooth_lcm
 26 lines in following concentration table = NCONC+1
    Conc.  %SD /Cr+PCr  Metabolite                                         
    0.000 999%   0.000 Ala                                                 
 1.23E-11 999% 3.0E-02 Asp                                                 
 4.17E-10  51%   1.000 Cr                                                  
    0.000 999%   0.000 GABA                                                
    0.000 999%   0.000 Glc                                                 
 3.26E-09  16%   7.810 Gln                                                 
    0.000 999%   0.000 Glu                                                 
 8.21E-10 186%   1.969 Glyc                                                
 1.70E-10  65%   0.408 GPC                                                 
    0.000 999%   0.000 GSH                                                 
 2.12E-10 635%   0.509 Ins                                                 
    0.000 999%   0.000 Lac                                                 
 2.33E-10 124%   0.559 NAAG                                                
 2.04E-10 180%   0.490 NAA                                                 
    0.000 999%   0.000 PCh                                                 
    0.000 999%   0.000 PCr                                                 
    0.000 999%   0.000 PE                                                  
 5.31E-11 440%   0.127 Scyllo                                              
 1.43E-09  40%   3.425 Ser                                                 
 1.01E-09  65%   2.424 Tau                                                 
 1.70E-10  65%   0.408 GPC+PCh                                             
 4.38E-10  52%   1.049 NAA+NAAG                                            
 1.03E-09  36%   2.477 Ins+Glyc                                            
 4.17E-10  51%   1.000 Cr+PCr                                              
 3.26E-09  16%   7.810 Glu+Gln                                             
   6 lines in following misc. output table
  FWHM = 0.089 ppm    S/N =   3                                            
  Data shift = 0.358 ppm                                                   
  Ph: -42 deg     -36.7 deg/ppm                                            
  alphaB,S = 3.3E-01,   2.6E+01                                            
   11 spline knots.   Ns = 5(1)                                            
  ( 7) 4 infls.   ( 7) 1 extrs.                                            
  363 points on ppm-axis = NY
      4.250000     4.238821     4.227641     4.216462     4.205282     4.194103     4.182923     4.171744     4.160564     4.149385
      4.138206     4.127026     4.115847     4.104667     4.093488     4.082308     4.071129     4.059949     4.048770     4.037591
      4.026411     4.015232     4.004052     3.992873     3.981693     3.970514     3.959334     3.948155     3.936975     3.925796
      3.914617     3.903437     3.892258     3.881078     3.869899     3.858719     3.847540     3.836360     3.825181     3.814002
      3.802822     3.791643     3.780463     3.769284     3.758104     3.746925     3.735745     3.724566     3.713387     3.702207
      3.691028     3.679848     3.668669     3.657489     3.646310     3.635130     3.623951     3.612772     3.601592     3.590413
      3.579233     3.568054     3.556874     3.545695     3.534515     3.523336     3.512156     3.500977     3.489798     3.478618
      3.467439     3.456259     3.445080     3.433900     3.422721     3.411541     3.400362     3.389183     3.378003     3.366824
      3.355644     3.344465     3.333285     3.322106     3.310926     3.299747     3.288568     3.277388     3.266209     3.255029
      3.243850     3.232670     3.221491     3.210311     3.199132     3.187953     3.176773     3.165594     3.154414     3.143235
      3.132055     3.120876     3.109696     3.098517     3.087337     3.076158     3.064979     3.053799     3.042620     3.031440
      3.020261     3.009081     2.997902     2.986722     2.975543     2.964364     2.953184     2.942005     2.930825     2.919646
      2.908466     2.897287     2.886107     2.874928     2.863749     2.852569     2.841390     2.830210     2.819031     2.807851
      2.796672     2.785492     2.774313     2.763134     2.751954     2.740775     2.729595     2.718416     2.707236     2.696057
      2.684877     2.673698     2.662519     2.651339     2.640160     2.628980     2.617801     2.606621     2.595442     2.584262
      2.573083     2.561903     2.550724     2.539545     2.528365     2.517186     2.506006     2.494827     2.483647     2.472468
      2.461288     2.450109     2.438930     2.427750     2.416571     2.405391     2.394212     2.383032     2.371853     2.360673
      2.349494     2.338315     2.327135     2.315956     2.304776     2.293597     2.282417     2.271238     2.260058     2.248879
      2.237700     2.226520     2.215341     2.204161     2.192982     2.181802     2.170623     2.159443     2.148264     2.137084
      2.125905     2.114726     2.103546     2.092367     2.081187     2.070008     2.058828     2.047649     2.036469     2.025290
      2.014111     2.002931     1.991752     1.980572     1.969393     1.958213     1.947034     1.935854     1.924675     1.913496
      1.902316     1.891137     1.879957     1.868778     1.857598     1.846419     1.835239     1.824060     1.812881     1.801701
      1.790522     1.779342     1.768163     1.756983     1.745804     1.734624     1.723445     1.712265     1.701086     1.689907
      1.678727     1.667548     1.656368     1.645189     1.634009     1.622830     1.611650     1.600471     1.589292     1.578112
      1.566933     1.555753     1.544574     1.533394     1.522215     1.511035     1.499856     1.488677     1.477497     1.466318
      1.455138     1.443959     1.432779     1.421600     1.410420     1.399241     1.388062     1.376882     1.365703     1.354523
      1.343344     1.332164     1.320985     1.309805     1.298626     1.287446     1.276267     1.265088     1.253908     1.242729
      1.231549     1.220370     1.209190     1.198011     1.186831     1.175652     1.164473     1.153293     1.142114     1.130934
      1.119755     1.108575     1.097396     1.086216     1.075037     1.063858     1.052678     1.041499     1.030319     1.019140
      1.007960     0.996781     0.985601     0.974422     0.963243     0.952063     0.940884     0.929704     0.918525     0.907345
      0.896166     0.884986     0.873807     0.862628     0.851448     0.840269     0.829089     0.817910     0.806730     0.795551
      0.784371     0.773192     0.762012     0.750833     0.739654     0.728474     0.717295     0.706115     0.694936     0.683756
      0.672577     0.661397     0.650218     0.639039     0.627859     0.616680     0.605500     0.594321     0.583141     0.571962
      0.560782     0.549603     0.538424     0.527244     0.516065     0.504885     0.493706     0.482526     0.471347     0.460167
      0.448988     0.437809     0.426629     0.415450     0.404270     0.393091     0.381911     0.370732     0.359552     0.348373
      0.337193     0.326014     0.314835     0.303655     0.292476     0.281296     0.270117     0.258937     0.247758     0.236578
      0.225399     0.214220     0.203040
 NY phased data points follow
   1.29489E-08  1.22799E-08  9.56507E-09  9.29712E-09  7.90869E-09  8.30366E-09  7.68051E-09  8.46670E-09  8.58106E-09  9.24845E-09
   9.22903E-09  1.00089E-08  9.08404E-09  9.82181E-09  9.39343E-09  9.62262E-09  7.91285E-09  8.48789E-09  8.08866E-09  7.78834E-09
   7.99119E-09  8.82223E-09  7.75470E-09  8.02347E-09  7.97031E-09  8.81363E-09  7.94597E-09  8.20404E-09  7.46345E-09  8.88346E-09
   9.76286E-09  1.00576E-08  9.33852E-09  8.66615E-09  7.31127E-09  6.33423E-09  5.17520E-09  4.64205E-09  5.07638E-09  5.10097E-09
   4.59486E-09  4.92037E-09  4.43613E-09  4.32107E-09  3.58094E-09  4.17400E-09  3.54026E-09  4.34911E-09  4.05659E-09  4.06077E-09
   4.30851E-09  4.79828E-09  4.15034E-09  4.51060E-09  4.29636E-09  3.87962E-09  4.82399E-09  5.64278E-09  6.54331E-09  7.63821E-09
   8.65738E-09  1.08454E-08  1.17682E-08  1.23558E-08  1.17596E-08  1.00359E-08  7.83070E-09  6.90683E-09  5.76419E-09  5.50880E-09
   5.36552E-09  4.66727E-09  4.50164E-09  4.28147E-09  5.39509E-09  6.08807E-09  6.69065E-09  9.02237E-09  1.10601E-08  1.42258E-08
   1.45975E-08  1.33843E-08  1.18494E-08  1.10145E-08  9.35999E-09  9.25999E-09  8.06948E-09  7.84332E-09  7.22279E-09  7.00562E-09
   6.23118E-09  6.11669E-09  5.55389E-09  5.21858E-09  4.33553E-09  4.43244E-09  3.71263E-09  4.17155E-09  4.07459E-09  3.54460E-09
   3.41072E-09  4.09639E-09  3.95066E-09  3.68324E-09  2.81211E-09  3.66521E-09  2.53733E-09  2.73720E-09  2.62701E-09  2.19326E-09
   1.61761E-09  1.58418E-09  2.44721E-09  3.23436E-09  3.15394E-09  2.82977E-09  3.73702E-09  3.95965E-09  3.41317E-09  3.64935E-09
   3.73725E-09  4.09541E-09  2.98390E-09  2.42314E-09  2.59937E-09  2.08909E-09  1.92316E-09  2.42202E-09  3.33995E-09  2.40086E-09
   3.40194E-09  3.30320E-09  3.12767E-09  3.78105E-09  3.20598E-09  3.58307E-09  3.28843E-09  4.07938E-09  3.94656E-09  5.21503E-09
   5.69591E-09  6.21826E-09  6.32985E-09  5.57415E-09  5.60833E-09  6.06776E-09  6.14071E-09  6.02526E-09  6.55679E-09  5.68461E-09
   5.26550E-09  5.17551E-09  5.01846E-09  4.27008E-09  4.35106E-09  4.73295E-09  4.81607E-09  4.07933E-09  3.88869E-09  4.34526E-09
   3.69497E-09  4.24718E-09  4.61936E-09  4.24251E-09  3.71872E-09  4.02798E-09  3.73891E-09  5.06292E-09  5.30618E-09  7.17832E-09
   1.13080E-08  1.51969E-08  1.63964E-08  1.59267E-08  1.47492E-08  1.38001E-08  1.27830E-08  1.10485E-08  9.79608E-09  8.76647E-09
   8.31024E-09  7.15029E-09  6.08389E-09  4.80880E-09  3.40206E-09  2.42350E-09  9.52709E-10 -2.95898E-10 -1.94924E-09 -3.68445E-09
  -4.76930E-09 -6.01575E-09 -7.47401E-09 -8.88424E-09 -9.95194E-09 -1.09650E-08 -1.17421E-08 -1.24417E-08 -1.27418E-08 -1.26185E-08
  -1.24222E-08 -1.16779E-08 -1.15934E-08 -1.03561E-08 -9.64912E-09 -8.52977E-09 -7.78285E-09 -6.60000E-09 -5.83578E-09 -4.42117E-09
  -3.50943E-09 -3.14374E-09 -3.02549E-09 -2.38639E-09 -2.91263E-09 -2.56951E-09 -2.68263E-09 -2.63385E-09 -2.53654E-09 -2.94284E-09
  -3.04428E-09 -2.51635E-09 -1.84726E-09 -2.01370E-09 -1.24338E-09 -1.56873E-09 -2.15530E-09 -2.22804E-09 -2.14479E-09 -1.80719E-09
  -2.25189E-09 -2.19273E-09 -1.22334E-09 -2.02823E-09 -2.23192E-09 -1.38599E-09 -1.51293E-09 -1.50543E-09 -1.43654E-09 -1.80084E-09
  -1.77213E-09 -1.80868E-09 -1.83029E-09 -1.87117E-09 -2.48426E-09 -2.12980E-09 -2.15749E-09 -1.47700E-09 -2.06104E-09 -1.41503E-09
  -1.35824E-09 -9.68701E-10 -1.09724E-09 -1.13981E-09 -7.98310E-10 -7.55089E-10 -7.99108E-10 -5.83172E-10 -1.14803E-09 -6.78555E-10
  -2.19042E-09 -1.96701E-09 -2.33210E-09 -2.51913E-09 -2.71944E-09 -2.63582E-09 -3.02472E-09 -3.05922E-09 -2.31100E-09 -2.72053E-09
  -2.33729E-09 -2.10712E-09 -1.69408E-09 -1.56513E-09 -5.97822E-10 -1.46789E-09 -1.96358E-10 -4.66010E-10 -4.81724E-10 -6.51015E-10
  -3.35065E-10 -3.37515E-10 -6.74823E-10 -6.91851E-10 -6.88120E-10 -9.27878E-10 -6.19629E-10 -6.81205E-10 -7.92347E-10 -1.14463E-09
  -1.06263E-09 -1.64273E-09 -1.33611E-09 -1.34128E-09 -1.14967E-09 -1.66840E-09 -1.09164E-09 -1.83019E-09 -1.55071E-09 -2.01154E-09
  -2.25236E-09 -1.95427E-09 -2.44528E-09 -2.12384E-09 -2.17609E-09 -2.34046E-09 -2.42120E-09 -2.28504E-09 -2.67074E-09 -2.66480E-09
  -2.58754E-09 -2.46616E-09 -3.08398E-09 -2.74189E-09 -3.23743E-09 -3.16609E-09 -2.62766E-09 -3.40044E-09 -3.16329E-09 -3.15713E-09
  -3.12964E-09 -3.44143E-09 -2.84348E-09 -3.45346E-09 -3.46852E-09 -3.12137E-09 -3.46002E-09 -3.44246E-09 -3.68428E-09 -3.36899E-09
  -3.26422E-09 -3.87122E-09 -3.27768E-09 -3.51683E-09 -3.64159E-09 -3.93405E-09 -3.25772E-09 -3.60464E-09 -3.97385E-09 -3.50637E-09
  -3.63479E-09 -4.28613E-09 -3.71365E-09 -3.76436E-09 -3.91988E-09 -3.99310E-09 -3.71491E-09 -4.18068E-09 -4.11709E-09 -4.30790E-09
  -3.82711E-09 -4.37682E-09 -3.56362E-09 -4.44906E-09 -3.82057E-09 -4.37108E-09 -3.88078E-09 -4.68839E-09 -3.87637E-09 -4.23642E-09
  -3.80477E-09 -4.27142E-09 -4.25688E-09
 NY points of the fit to the data follow
   1.17611E-08  1.10140E-08  1.00584E-08  9.59000E-09  9.59505E-09  9.46060E-09  9.10942E-09  8.72320E-09  8.65288E-09  8.84017E-09
   8.83356E-09  8.84430E-09  9.22914E-09  9.16175E-09  9.11038E-09  9.06400E-09  9.18426E-09  9.23862E-09  8.70850E-09  7.63395E-09
   7.26586E-09  7.26233E-09  7.34265E-09  7.63080E-09  7.98357E-09  8.38158E-09  8.98639E-09  9.36347E-09  9.60287E-09  9.56450E-09
   9.27713E-09  8.82049E-09  8.34268E-09  7.41133E-09  6.40128E-09  5.86948E-09  5.73560E-09  5.66740E-09  5.57899E-09  5.49418E-09
   5.33750E-09  4.89388E-09  4.09595E-09  3.49630E-09  3.39405E-09  3.39860E-09  3.43907E-09  3.49289E-09  3.56579E-09  3.65396E-09
   3.76366E-09  3.90024E-09  4.08256E-09  4.31149E-09  4.68424E-09  5.26197E-09  5.91941E-09  6.74494E-09  7.78749E-09  8.72583E-09
   9.52032E-09  1.02705E-08  1.08140E-08  1.09466E-08  1.05763E-08  9.72554E-09  8.81993E-09  8.16962E-09  7.01029E-09  5.79457E-09
   5.43103E-09  5.42081E-09  5.39015E-09  5.71365E-09  6.35395E-09  7.27536E-09  8.26104E-09  9.36353E-09  1.05106E-08  1.15209E-08
   1.22867E-08  1.25889E-08  1.21778E-08  1.16504E-08  1.11330E-08  9.94983E-09  8.41049E-09  7.18300E-09  5.98689E-09  5.25867E-09
   4.87267E-09  4.63565E-09  4.47282E-09  4.35754E-09  4.26364E-09  4.19189E-09  4.14102E-09  4.10287E-09  4.06980E-09  4.03843E-09
   4.02171E-09  4.01345E-09  4.00457E-09  3.99687E-09  3.99334E-09  3.99292E-09  3.99425E-09  3.99673E-09  3.99970E-09  4.00296E-09
   4.00622E-09  4.00922E-09  4.01173E-09  4.01352E-09  4.01440E-09  4.01419E-09  4.01275E-09  4.00989E-09  4.00548E-09  3.99939E-09
   3.99147E-09  3.98160E-09  3.96967E-09  3.95554E-09  3.93912E-09  3.92028E-09  3.89891E-09  3.87492E-09  3.84819E-09  3.81862E-09
   3.78611E-09  3.75056E-09  3.71188E-09  3.66996E-09  3.62472E-09  3.57607E-09  3.52391E-09  3.46822E-09  3.40911E-09  3.34671E-09
   3.28115E-09  3.21258E-09  3.14111E-09  3.06690E-09  2.99010E-09  2.91085E-09  2.82932E-09  2.74567E-09  2.66008E-09  2.57276E-09
   2.48391E-09  2.39378E-09  2.30264E-09  2.21080E-09  2.11865E-09  2.02664E-09  1.93537E-09  1.84558E-09  1.75832E-09  1.67504E-09
   1.59791E-09  1.53029E-09  1.47786E-09  1.45109E-09  1.47209E-09  1.59883E-09  2.05424E-09  3.61354E-09  5.82677E-09  8.59217E-09
   1.18060E-08  1.45786E-08  1.60934E-08  1.63782E-08  1.60886E-08  1.55038E-08  1.38236E-08  9.69929E-09  3.87474E-09  1.15929E-09
   2.79968E-10 -1.66190E-10 -4.55890E-10 -6.72029E-10 -8.47620E-10 -9.98296E-10 -1.13236E-09 -1.25462E-09 -1.36800E-09 -1.47442E-09
  -1.57512E-09 -1.67101E-09 -1.76267E-09 -1.85056E-09 -1.93500E-09 -2.01624E-09 -2.09445E-09 -2.16976E-09 -2.24228E-09 -2.31208E-09
  -2.37921E-09 -2.44371E-09 -2.50562E-09 -2.56494E-09 -2.62169E-09 -2.67589E-09 -2.72752E-09 -2.77658E-09 -2.82307E-09 -2.86696E-09
  -2.90825E-09 -2.94693E-09 -2.98298E-09 -3.01639E-09 -3.04712E-09 -3.07516E-09 -3.10048E-09 -3.12309E-09 -3.14293E-09 -3.15999E-09
  -3.17426E-09 -3.18569E-09 -3.19426E-09 -3.19998E-09 -3.20279E-09 -3.20266E-09 -3.19960E-09 -3.19357E-09 -3.18464E-09 -3.17294E-09
  -3.15858E-09 -3.14170E-09 -3.12240E-09 -3.10081E-09 -3.07705E-09 -3.05124E-09 -3.02350E-09 -2.99394E-09 -2.96269E-09 -2.92988E-09
  -2.89561E-09 -2.86000E-09 -2.82319E-09 -2.78528E-09 -2.74639E-09 -2.70665E-09 -2.66617E-09 -2.62508E-09 -2.58349E-09 -2.54152E-09
  -2.49930E-09 -2.45693E-09 -2.41455E-09 -2.37227E-09 -2.33020E-09 -2.28847E-09 -2.24720E-09 -2.20650E-09 -2.16651E-09 -2.12732E-09
  -2.08907E-09 -2.05187E-09 -2.01584E-09 -1.98110E-09 -1.94778E-09 -1.91598E-09 -1.88583E-09 -1.85745E-09 -1.83095E-09 -1.80646E-09
  -1.78410E-09 -1.76397E-09 -1.74621E-09 -1.73083E-09 -1.71780E-09 -1.70707E-09 -1.69858E-09 -1.69228E-09 -1.68812E-09 -1.68604E-09
  -1.68602E-09 -1.68796E-09 -1.69186E-09 -1.69763E-09 -1.70524E-09 -1.71462E-09 -1.72575E-09 -1.73854E-09 -1.75296E-09 -1.76897E-09
  -1.78650E-09 -1.80550E-09 -1.82592E-09 -1.84772E-09 -1.87084E-09 -1.89522E-09 -1.92082E-09 -1.94760E-09 -1.97548E-09 -2.00444E-09
  -2.03440E-09 -2.06533E-09 -2.09716E-09 -2.12985E-09 -2.16336E-09 -2.19762E-09 -2.23258E-09 -2.26820E-09 -2.30442E-09 -2.34120E-09
  -2.37848E-09 -2.41619E-09 -2.45431E-09 -2.49279E-09 -2.53155E-09 -2.57055E-09 -2.60976E-09 -2.64908E-09 -2.68852E-09 -2.72807E-09
  -2.76771E-09 -2.80743E-09 -2.84724E-09 -2.88713E-09 -2.92710E-09 -2.96714E-09 -3.00724E-09 -3.04741E-09 -3.08764E-09 -3.12792E-09
  -3.16824E-09 -3.20862E-09 -3.24903E-09 -3.28948E-09 -3.32996E-09 -3.37047E-09 -3.41101E-09 -3.45156E-09 -3.49213E-09 -3.53270E-09
  -3.57329E-09 -3.61387E-09 -3.65445E-09 -3.69502E-09 -3.73558E-09 -3.77613E-09 -3.81665E-09 -3.85715E-09 -3.89762E-09 -3.93805E-09
  -3.97845E-09 -4.01881E-09 -4.05911E-09 -4.09937E-09 -4.13957E-09 -4.17971E-09 -4.21979E-09 -4.25980E-09 -4.29973E-09 -4.33959E-09
  -4.37936E-09 -4.41905E-09 -4.45864E-09
 NY background values follow
     6.777E-10    7.023E-10    7.271E-10    7.519E-10    7.767E-10    8.016E-10    8.265E-10    8.514E-10    8.763E-10    9.013E-10
     9.262E-10    9.512E-10    9.762E-10    1.001E-09    1.026E-09    1.051E-09    1.076E-09    1.101E-09    1.126E-09    1.150E-09
     1.175E-09    1.200E-09    1.224E-09    1.249E-09    1.273E-09    1.298E-09    1.322E-09    1.346E-09    1.370E-09    1.394E-09
     1.418E-09    1.442E-09    1.465E-09    1.489E-09    1.512E-09    1.535E-09    1.558E-09    1.581E-09    1.604E-09    1.627E-09
     1.649E-09    1.671E-09    1.693E-09    1.715E-09    1.737E-09    1.758E-09    1.779E-09    1.800E-09    1.821E-09    1.842E-09
     1.862E-09    1.883E-09    1.903E-09    1.923E-09    1.943E-09    1.963E-09    1.983E-09    2.003E-09    2.022E-09    2.042E-09
     2.062E-09    2.081E-09    2.101E-09    2.120E-09    2.140E-09    2.159E-09    2.179E-09    2.199E-09    2.219E-09    2.239E-09
     2.258E-09    2.279E-09    2.299E-09    2.319E-09    2.340E-09    2.360E-09    2.381E-09    2.402E-09    2.423E-09    2.445E-09
     2.466E-09    2.488E-09    2.510E-09    2.533E-09    2.555E-09    2.578E-09    2.601E-09    2.625E-09    2.649E-09    2.673E-09
     2.698E-09    2.722E-09    2.748E-09    2.773E-09    2.799E-09    2.824E-09    2.850E-09    2.876E-09    2.901E-09    2.926E-09
     2.950E-09    2.974E-09    2.998E-09    3.021E-09    3.043E-09    3.064E-09    3.084E-09    3.103E-09    3.121E-09    3.138E-09
     3.153E-09    3.167E-09    3.180E-09    3.191E-09    3.200E-09    3.207E-09    3.213E-09    3.217E-09    3.218E-09    3.218E-09
     3.215E-09    3.210E-09    3.202E-09    3.192E-09    3.179E-09    3.164E-09    3.146E-09    3.125E-09    3.101E-09    3.074E-09
     3.044E-09    3.010E-09    2.973E-09    2.933E-09    2.890E-09    2.842E-09    2.791E-09    2.736E-09    2.678E-09    2.616E-09
     2.551E-09    2.482E-09    2.411E-09    2.336E-09    2.259E-09    2.178E-09    2.095E-09    2.010E-09    1.922E-09    1.832E-09
     1.739E-09    1.645E-09    1.548E-09    1.450E-09    1.350E-09    1.249E-09    1.146E-09    1.042E-09    9.365E-10    8.300E-10
     7.225E-10    6.142E-10    5.052E-10    3.956E-10    2.855E-10    1.750E-10    6.426E-11   -4.657E-11   -1.574E-10   -2.681E-10
    -3.786E-10   -4.887E-10   -5.984E-10   -7.074E-10   -8.157E-10   -9.231E-10   -1.030E-09   -1.135E-09   -1.239E-09   -1.342E-09
    -1.444E-09   -1.543E-09   -1.642E-09   -1.738E-09   -1.833E-09   -1.926E-09   -2.017E-09   -2.106E-09   -2.194E-09   -2.279E-09
    -2.363E-09   -2.445E-09   -2.524E-09   -2.602E-09   -2.678E-09   -2.752E-09   -2.823E-09   -2.893E-09   -2.960E-09   -3.025E-09
    -3.088E-09   -3.149E-09   -3.208E-09   -3.264E-09   -3.318E-09   -3.369E-09   -3.419E-09   -3.466E-09   -3.510E-09   -3.552E-09
    -3.592E-09   -3.629E-09   -3.663E-09   -3.695E-09   -3.724E-09   -3.751E-09   -3.775E-09   -3.797E-09   -3.815E-09   -3.831E-09
    -3.845E-09   -3.855E-09   -3.863E-09   -3.868E-09   -3.870E-09   -3.869E-09   -3.865E-09   -3.858E-09   -3.848E-09   -3.836E-09
    -3.821E-09   -3.804E-09   -3.784E-09   -3.761E-09   -3.737E-09   -3.711E-09   -3.682E-09   -3.652E-09   -3.621E-09   -3.587E-09
    -3.552E-09   -3.516E-09   -3.479E-09   -3.441E-09   -3.401E-09   -3.361E-09   -3.320E-09   -3.279E-09   -3.237E-09   -3.194E-09
    -3.152E-09   -3.109E-09   -3.066E-09   -3.023E-09   -2.981E-09   -2.939E-09   -2.897E-09   -2.856E-09   -2.816E-09   -2.776E-09
    -2.738E-09   -2.700E-09   -2.664E-09   -2.629E-09   -2.595E-09   -2.563E-09   -2.532E-09   -2.504E-09   -2.477E-09   -2.452E-09
    -2.429E-09   -2.409E-09   -2.391E-09   -2.375E-09   -2.362E-09   -2.351E-09   -2.342E-09   -2.335E-09   -2.331E-09   -2.328E-09
    -2.328E-09   -2.330E-09   -2.333E-09   -2.339E-09   -2.346E-09   -2.355E-09   -2.366E-09   -2.379E-09   -2.393E-09   -2.409E-09
    -2.426E-09   -2.444E-09   -2.465E-09   -2.486E-09   -2.509E-09   -2.533E-09   -2.558E-09   -2.585E-09   -2.612E-09   -2.641E-09
    -2.671E-09   -2.701E-09   -2.733E-09   -2.765E-09   -2.799E-09   -2.833E-09   -2.867E-09   -2.903E-09   -2.939E-09   -2.975E-09
    -3.012E-09   -3.050E-09   -3.087E-09   -3.126E-09   -3.164E-09   -3.203E-09   -3.242E-09   -3.281E-09   -3.320E-09   -3.359E-09
    -3.399E-09   -3.438E-09   -3.478E-09   -3.517E-09   -3.557E-09   -3.597E-09   -3.636E-09   -3.676E-09   -3.716E-09   -3.756E-09
    -3.796E-09   -3.836E-09   -3.877E-09   -3.917E-09   -3.957E-09   -3.997E-09   -4.037E-09   -4.078E-09   -4.118E-09   -4.158E-09
    -4.198E-09   -4.239E-09   -4.279E-09   -4.319E-09   -4.360E-09   -4.400E-09   -4.440E-09   -4.480E-09   -4.520E-09   -4.560E-09
    -4.601E-09   -4.641E-09   -4.681E-09   -4.721E-09   -4.760E-09   -4.800E-09   -4.840E-09   -4.880E-09   -4.919E-09   -4.959E-09
    -4.998E-09   -5.038E-09   -5.077E-09
 Asp      Conc. = 1.23E-11
   6.92901E-10  7.15523E-10  7.38637E-10  7.61427E-10  7.84840E-10  8.07742E-10  8.30696E-10  8.54113E-10  8.78364E-10  9.02933E-10
   9.27654E-10  9.52459E-10  9.77319E-10  1.00222E-09  1.02711E-09  1.05198E-09  1.07684E-09  1.10168E-09  1.12648E-09  1.15124E-09
   1.17595E-09  1.20061E-09  1.22521E-09  1.24975E-09  1.27422E-09  1.29861E-09  1.32292E-09  1.34715E-09  1.37128E-09  1.39533E-09
   1.41928E-09  1.44313E-09  1.46689E-09  1.49056E-09  1.51417E-09  1.53777E-09  1.56147E-09  1.58513E-09  1.60889E-09  1.63245E-09
   1.65567E-09  1.67848E-09  1.70102E-09  1.72358E-09  1.74653E-09  1.77005E-09  1.79328E-09  1.81614E-09  1.83931E-09  1.86145E-09
   1.88352E-09  1.90519E-09  1.92584E-09  1.94443E-09  1.96106E-09  1.97683E-09  1.99375E-09  2.01339E-09  2.03217E-09  2.04945E-09
   2.06811E-09  2.08693E-09  2.10555E-09  2.12503E-09  2.14481E-09  2.16398E-09  2.18258E-09  2.20169E-09  2.22108E-09  2.24067E-09
   2.26043E-09  2.28034E-09  2.30040E-09  2.32062E-09  2.34100E-09  2.36156E-09  2.38230E-09  2.40323E-09  2.42437E-09  2.44573E-09
   2.46731E-09  2.48913E-09  2.51121E-09  2.53355E-09  2.55616E-09  2.57907E-09  2.60228E-09  2.62580E-09  2.64965E-09  2.67384E-09
   2.69838E-09  2.72329E-09  2.74852E-09  2.77398E-09  2.79959E-09  2.82524E-09  2.85086E-09  2.87635E-09  2.90161E-09  2.92655E-09
   2.95109E-09  2.97513E-09  2.99859E-09  3.02135E-09  3.04335E-09  3.06449E-09  3.08466E-09  3.10379E-09  3.12179E-09  3.13855E-09
   3.15399E-09  3.16802E-09  3.18054E-09  3.19147E-09  3.20070E-09  3.20816E-09  3.21375E-09  3.21738E-09  3.21895E-09  3.21838E-09
   3.21557E-09  3.21044E-09  3.20288E-09  3.19281E-09  3.18015E-09  3.16478E-09  3.14663E-09  3.12561E-09  3.10162E-09  3.07456E-09
   3.04436E-09  3.01091E-09  2.97413E-09  2.93392E-09  2.89019E-09  2.84286E-09  2.79183E-09  2.73707E-09  2.67870E-09  2.61683E-09
   2.55158E-09  2.48307E-09  2.41143E-09  2.33678E-09  2.25923E-09  2.17891E-09  2.09593E-09  2.01042E-09  1.92250E-09  1.83229E-09
   1.73992E-09  1.64549E-09  1.54913E-09  1.45097E-09  1.35111E-09  1.24970E-09  1.14684E-09  1.04265E-09  9.37271E-10  8.30806E-10
   7.23398E-10  6.15157E-10  5.06218E-10  3.96722E-10  2.86834E-10  1.76785E-10  6.72202E-11 -4.04412E-11 -1.47360E-10 -2.53209E-10
  -3.58245E-10 -4.64092E-10 -5.71709E-10 -6.80518E-10 -7.89228E-10 -8.97611E-10 -1.00731E-09 -1.12032E-09 -1.23377E-09 -1.33911E-09
  -1.44144E-09 -1.54174E-09 -1.64019E-09 -1.73683E-09 -1.83167E-09 -1.92471E-09 -2.01593E-09 -2.10531E-09 -2.19281E-09 -2.27843E-09
  -2.36212E-09 -2.44388E-09 -2.52365E-09 -2.60143E-09 -2.67719E-09 -2.75089E-09 -2.82250E-09 -2.89201E-09 -2.95938E-09 -3.02458E-09
  -3.08759E-09 -3.14838E-09 -3.20692E-09 -3.26318E-09 -3.31713E-09 -3.36876E-09 -3.41802E-09 -3.46490E-09 -3.50935E-09 -3.55136E-09
  -3.59090E-09 -3.62793E-09 -3.66244E-09 -3.69440E-09 -3.72376E-09 -3.75051E-09 -3.77462E-09 -3.79607E-09 -3.81481E-09 -3.83082E-09
  -3.84410E-09 -3.85458E-09 -3.86225E-09 -3.86709E-09 -3.86907E-09 -3.86814E-09 -3.86431E-09 -3.85753E-09 -3.84789E-09 -3.83550E-09
  -3.82047E-09 -3.80294E-09 -3.78302E-09 -3.76082E-09 -3.73647E-09 -3.71009E-09 -3.68179E-09 -3.65169E-09 -3.61992E-09 -3.58658E-09
  -3.55181E-09 -3.51572E-09 -3.47842E-09 -3.44004E-09 -3.40069E-09 -3.36050E-09 -3.31959E-09 -3.27806E-09 -3.23605E-09 -3.19367E-09
  -3.15103E-09 -3.10826E-09 -3.06549E-09 -3.02281E-09 -2.98036E-09 -2.93826E-09 -2.89661E-09 -2.85555E-09 -2.81519E-09 -2.77564E-09
  -2.73704E-09 -2.69949E-09 -2.66312E-09 -2.62804E-09 -2.59437E-09 -2.56224E-09 -2.53176E-09 -2.50305E-09 -2.47623E-09 -2.45142E-09
  -2.42873E-09 -2.40829E-09 -2.39022E-09 -2.37453E-09 -2.36119E-09 -2.35015E-09 -2.34136E-09 -2.33476E-09 -2.33029E-09 -2.32792E-09
  -2.32760E-09 -2.32925E-09 -2.33285E-09 -2.33833E-09 -2.34565E-09 -2.35474E-09 -2.36557E-09 -2.37808E-09 -2.39222E-09 -2.40794E-09
  -2.42518E-09 -2.44390E-09 -2.46404E-09 -2.48556E-09 -2.50839E-09 -2.53249E-09 -2.55781E-09 -2.58431E-09 -2.61192E-09 -2.64059E-09
  -2.67028E-09 -2.70092E-09 -2.73248E-09 -2.76489E-09 -2.79812E-09 -2.83211E-09 -2.86679E-09 -2.90214E-09 -2.93807E-09 -2.97458E-09
  -3.01158E-09 -3.04902E-09 -3.08685E-09 -3.12506E-09 -3.16354E-09 -3.20226E-09 -3.24119E-09 -3.28023E-09 -3.31940E-09 -3.35867E-09
  -3.39803E-09 -3.43747E-09 -3.47700E-09 -3.51661E-09 -3.55630E-09 -3.59605E-09 -3.63587E-09 -3.67576E-09 -3.71570E-09 -3.75569E-09
  -3.79574E-09 -3.83582E-09 -3.87595E-09 -3.91611E-09 -3.95631E-09 -3.99653E-09 -4.03677E-09 -4.07703E-09 -4.11730E-09 -4.15759E-09
  -4.19788E-09 -4.23816E-09 -4.27845E-09 -4.31872E-09 -4.35898E-09 -4.39923E-09 -4.43945E-09 -4.47965E-09 -4.51981E-09 -4.55994E-09
  -4.60003E-09 -4.64008E-09 -4.68008E-09 -4.72003E-09 -4.75992E-09 -4.79974E-09 -4.83950E-09 -4.87920E-09 -4.91881E-09 -4.95835E-09
  -4.99780E-09 -5.03717E-09 -5.07643E-09
 Cr       Conc. = 4.17E-10
   2.41887E-09  2.23675E-09  1.75673E-09  1.13798E-09  9.83913E-10  9.46524E-10  9.41268E-10  9.48869E-10  9.62826E-10  9.80366E-10
   1.00012E-09  1.02134E-09  1.04358E-09  1.06656E-09  1.09013E-09  1.11415E-09  1.13856E-09  1.16333E-09  1.18843E-09  1.21388E-09
   1.23970E-09  1.26597E-09  1.29278E-09  1.32031E-09  1.34882E-09  1.37873E-09  1.41074E-09  1.44614E-09  1.48749E-09  1.54088E-09
   1.62545E-09  1.83604E-09  2.19722E-09  2.63555E-09  3.15968E-09  3.67917E-09  4.03977E-09  4.18929E-09  4.20522E-09  4.17330E-09
   4.03753E-09  3.59320E-09  2.77136E-09  2.13198E-09  1.98081E-09  1.93172E-09  1.91578E-09  1.91429E-09  1.92023E-09  1.93043E-09
   1.94324E-09  1.95776E-09  1.97342E-09  1.98988E-09  2.00691E-09  2.02436E-09  2.04213E-09  2.06014E-09  2.07834E-09  2.09670E-09
   2.11519E-09  2.13379E-09  2.15251E-09  2.17132E-09  2.19024E-09  2.20926E-09  2.22838E-09  2.24761E-09  2.26695E-09  2.28642E-09
   2.30601E-09  2.32574E-09  2.34563E-09  2.36566E-09  2.38587E-09  2.40626E-09  2.42683E-09  2.44761E-09  2.46859E-09  2.48980E-09
   2.51125E-09  2.53294E-09  2.55489E-09  2.57711E-09  2.59962E-09  2.62241E-09  2.64552E-09  2.66894E-09  2.69270E-09  2.71680E-09
   2.74126E-09  2.76608E-09  2.79123E-09  2.81662E-09  2.84215E-09  2.86774E-09  2.89329E-09  2.91871E-09  2.94391E-09  2.96880E-09
   2.99328E-09  3.01727E-09  3.04067E-09  3.06339E-09  3.08534E-09  3.10643E-09  3.12656E-09  3.14565E-09  3.16360E-09  3.18033E-09
   3.19573E-09  3.20972E-09  3.22221E-09  3.23310E-09  3.24231E-09  3.24974E-09  3.25530E-09  3.25890E-09  3.26045E-09  3.25985E-09
   3.25702E-09  3.25187E-09  3.24429E-09  3.23421E-09  3.22152E-09  3.20614E-09  3.18798E-09  3.16695E-09  3.14295E-09  3.11589E-09
   3.08568E-09  3.05223E-09  3.01545E-09  2.97525E-09  2.93153E-09  2.88421E-09  2.83319E-09  2.77846E-09  2.72011E-09  2.65827E-09
   2.59305E-09  2.52459E-09  2.45301E-09  2.37841E-09  2.30093E-09  2.22070E-09  2.13782E-09  2.05243E-09  1.96464E-09  1.87459E-09
   1.78241E-09  1.68820E-09  1.59211E-09  1.49426E-09  1.39479E-09  1.29384E-09  1.19156E-09  1.08809E-09  9.83621E-10  8.78330E-10
   7.72475E-10  6.66348E-10  5.60411E-10  4.55431E-10  3.52968E-10  2.57217E-10  1.85999E-10  1.82697E-10  2.04529E-10  2.58447E-10
   3.31174E-10  3.64457E-10  3.22298E-10  2.20284E-10  9.82551E-11 -4.08466E-11 -2.57278E-10 -6.19991E-10 -1.03414E-09 -1.21959E-09
  -1.35108E-09 -1.46594E-09 -1.57296E-09 -1.67518E-09 -1.77391E-09 -1.86979E-09 -1.96315E-09 -2.05420E-09 -2.14304E-09 -2.22974E-09
  -2.31433E-09 -2.39684E-09 -2.47725E-09 -2.55558E-09 -2.63181E-09 -2.70592E-09 -2.77790E-09 -2.84773E-09 -2.91538E-09 -2.98084E-09
  -3.04409E-09 -3.10508E-09 -3.16381E-09 -3.22024E-09 -3.27436E-09 -3.32613E-09 -3.37553E-09 -3.42252E-09 -3.46710E-09 -3.50922E-09
  -3.54885E-09 -3.58598E-09 -3.62058E-09 -3.65262E-09 -3.68206E-09 -3.70889E-09 -3.73307E-09 -3.75458E-09 -3.77339E-09 -3.78946E-09
  -3.80279E-09 -3.81333E-09 -3.82105E-09 -3.82595E-09 -3.82798E-09 -3.82709E-09 -3.82330E-09 -3.81657E-09 -3.80697E-09 -3.79462E-09
