 LCModel (Version 6.3-1R) Copyright: S.W. Provencher.          Ref.: Magn. Reson. Med. 30:672-679 (1993).                
 onepulse 19x17_ftSpec_smooth_lcm
 26 lines in following concentration table = NCONC+1
    Conc.  %SD   /Cr    Metabolite                                         
 1.38E-10 109%   0.000 Ala                                                 
 5.58E-10  52%   0.000 Asp                                                 
    0.000 999%   0.000 Cr                                                  
 2.86E-09  12%   0.000 GABA                                                
 1.09E-09  47%   0.000 Glc                                                 
    0.000 999%   0.000 Gln                                                 
 2.50E-10 145%   0.000 Glu                                                 
    0.000 999%   0.000 Glyc                                                
    0.000 999%   0.000 GPC                                                 
    0.000 999%   0.000 GSH                                                 
 1.63E-10 106%   0.000 Ins                                                 
    0.000 999%   0.000 Lac                                                 
    0.000 999%   0.000 NAAG                                                
 1.04E-09  14%   0.000 NAA                                                 
 8.74E-11  88%   0.000 PCh                                                 
    0.000 999%   0.000 PCr                                                 
    0.000 999%   0.000 PE                                                  
 2.24E-11 498%   0.000 Scyllo                                              
    0.000 999%   0.000 Ser                                                 
 7.62E-11 698%   0.000 Tau                                                 
 8.74E-11  88%   0.000 GPC+PCh                                             
 1.04E-09  14%   0.000 NAA+NAAG                                            
 1.63E-10 106%   0.000 Ins+Glyc                                            
    0.000 999%   0.000 Cr+PCr                                              
 2.50E-10 145%   0.000 Glu+Gln                                             
   6 lines in following misc. output table
  FWHM = 0.067 ppm    S/N =   5                                            
  Data shift = 0.335 ppm                                                   
  Ph:  72 deg      38.3 deg/ppm                                            
  alphaB,S = 1.7E-01,   4.0E+01                                            
   16 spline knots.   Ns = 5(1)                                            
  ( 5) 2 infls.   ( 3) 1 extrs.                                            
  363 points on ppm-axis = NY
      4.250000     4.238821     4.227641     4.216462     4.205282     4.194103     4.182923     4.171744     4.160564     4.149385
      4.138206     4.127026     4.115847     4.104667     4.093488     4.082308     4.071129     4.059949     4.048770     4.037591
      4.026411     4.015232     4.004052     3.992873     3.981693     3.970514     3.959334     3.948155     3.936975     3.925796
      3.914617     3.903437     3.892258     3.881078     3.869899     3.858719     3.847540     3.836360     3.825181     3.814002
      3.802822     3.791643     3.780463     3.769284     3.758104     3.746925     3.735745     3.724566     3.713387     3.702207
      3.691028     3.679848     3.668669     3.657489     3.646310     3.635130     3.623951     3.612772     3.601592     3.590413
      3.579233     3.568054     3.556874     3.545695     3.534515     3.523336     3.512156     3.500977     3.489798     3.478618
      3.467439     3.456259     3.445080     3.433900     3.422721     3.411541     3.400362     3.389183     3.378003     3.366824
      3.355644     3.344465     3.333285     3.322106     3.310926     3.299747     3.288568     3.277388     3.266209     3.255029
      3.243850     3.232670     3.221491     3.210311     3.199132     3.187953     3.176773     3.165594     3.154414     3.143235
      3.132055     3.120876     3.109696     3.098517     3.087337     3.076158     3.064979     3.053799     3.042620     3.031440
      3.020261     3.009081     2.997902     2.986722     2.975543     2.964364     2.953184     2.942005     2.930825     2.919646
      2.908466     2.897287     2.886107     2.874928     2.863749     2.852569     2.841390     2.830210     2.819031     2.807851
      2.796672     2.785492     2.774313     2.763134     2.751954     2.740775     2.729595     2.718416     2.707236     2.696057
      2.684877     2.673698     2.662519     2.651339     2.640160     2.628980     2.617801     2.606621     2.595442     2.584262
      2.573083     2.561903     2.550724     2.539545     2.528365     2.517186     2.506006     2.494827     2.483647     2.472468
      2.461288     2.450109     2.438930     2.427750     2.416571     2.405391     2.394212     2.383032     2.371853     2.360673
      2.349494     2.338315     2.327135     2.315956     2.304776     2.293597     2.282417     2.271238     2.260058     2.248879
      2.237700     2.226520     2.215341     2.204161     2.192982     2.181802     2.170623     2.159443     2.148264     2.137084
      2.125905     2.114726     2.103546     2.092367     2.081187     2.070008     2.058828     2.047649     2.036469     2.025290
      2.014111     2.002931     1.991752     1.980572     1.969393     1.958213     1.947034     1.935854     1.924675     1.913496
      1.902316     1.891137     1.879957     1.868778     1.857598     1.846419     1.835239     1.824060     1.812881     1.801701
      1.790522     1.779342     1.768163     1.756983     1.745804     1.734624     1.723445     1.712265     1.701086     1.689907
      1.678727     1.667548     1.656368     1.645189     1.634009     1.622830     1.611650     1.600471     1.589292     1.578112
      1.566933     1.555753     1.544574     1.533394     1.522215     1.511035     1.499856     1.488677     1.477497     1.466318
      1.455138     1.443959     1.432779     1.421600     1.410420     1.399241     1.388062     1.376882     1.365703     1.354523
      1.343344     1.332164     1.320985     1.309805     1.298626     1.287446     1.276267     1.265088     1.253908     1.242729
      1.231549     1.220370     1.209190     1.198011     1.186831     1.175652     1.164473     1.153293     1.142114     1.130934
      1.119755     1.108575     1.097396     1.086216     1.075037     1.063858     1.052678     1.041499     1.030319     1.019140
      1.007960     0.996781     0.985601     0.974422     0.963243     0.952063     0.940884     0.929704     0.918525     0.907345
      0.896166     0.884986     0.873807     0.862628     0.851448     0.840269     0.829089     0.817910     0.806730     0.795551
      0.784371     0.773192     0.762012     0.750833     0.739654     0.728474     0.717295     0.706115     0.694936     0.683756
      0.672577     0.661397     0.650218     0.639039     0.627859     0.616680     0.605500     0.594321     0.583141     0.571962
      0.560782     0.549603     0.538424     0.527244     0.516065     0.504885     0.493706     0.482526     0.471347     0.460167
      0.448988     0.437809     0.426629     0.415450     0.404270     0.393091     0.381911     0.370732     0.359552     0.348373
      0.337193     0.326014     0.314835     0.303655     0.292476     0.281296     0.270117     0.258937     0.247758     0.236578
      0.225399     0.214220     0.203040
 NY phased data points follow
  -1.47903E-09  1.56753E-09  3.73335E-09  5.37002E-09  5.59972E-09  4.35134E-09  3.62992E-09  2.96676E-09  2.14477E-09  1.90133E-09
   2.55979E-09  2.22532E-09  2.21070E-09  2.56039E-09  3.18944E-09  3.32052E-09  4.48455E-09  5.15045E-09  4.71439E-09  4.52832E-09
   4.36226E-09  4.82016E-09  4.89043E-09  3.22927E-09  3.96906E-09  3.86484E-09  5.79528E-09  5.53516E-09  5.80551E-09  4.91344E-09
   5.08144E-09  4.19769E-09  5.20279E-09  6.83935E-09  8.98281E-09  9.00969E-09  9.08919E-09  8.07908E-09  5.93753E-09  5.15418E-09
   5.28882E-09  5.49350E-09  3.93738E-09  4.57058E-09  4.61256E-09  3.98012E-09  4.14015E-09  3.80202E-09  3.70782E-09  2.55641E-09
   2.66461E-09  2.71000E-09  3.16444E-09  3.46447E-09  3.79242E-09  2.59826E-09  2.50150E-09  2.74819E-09  2.29566E-09  1.56229E-09
   2.28474E-09  2.87412E-09  3.27963E-09  4.39208E-09  8.10319E-09  1.12545E-08  1.23542E-08  1.05264E-08  8.70255E-09  6.54605E-09
   6.05881E-09  5.81857E-09  4.60206E-09  3.62220E-09  2.97188E-09  3.58017E-09  2.08899E-09  1.88746E-09  2.83181E-09  3.80902E-09
   6.25524E-09  1.01607E-08  1.34492E-08  1.25447E-08  1.08654E-08  9.28404E-09  7.92236E-09  7.81478E-09  6.74592E-09  6.30044E-09
   6.48140E-09  6.01833E-09  5.46623E-09  5.76336E-09  4.75771E-09  4.50470E-09  3.98867E-09  4.38108E-09  3.73461E-09  2.66487E-09
   3.12211E-09  3.15323E-09  3.67794E-09  2.61411E-09  4.22327E-09  3.69128E-09  3.68440E-09  3.75336E-09  3.47957E-09  3.63925E-09
   2.48049E-09  2.24248E-09  2.10765E-09  2.14557E-09  2.58844E-09  2.95600E-09  3.45272E-09  3.99009E-09  3.33140E-09  3.81343E-09
   4.34633E-09  4.16267E-09  3.13094E-09  3.44431E-09  2.71457E-09  1.85677E-09  1.60578E-09  2.36497E-09  2.15060E-09  2.16999E-09
   2.78036E-09  2.78390E-09  2.58931E-09  2.52587E-09  3.52729E-09  2.72379E-09  2.72982E-09  2.19206E-09  1.49047E-09  2.35999E-09
   3.36332E-09  3.44290E-09  4.77699E-09  4.84739E-09  3.04622E-09  2.80409E-09  3.83125E-09  4.44553E-09  4.48468E-09  4.26122E-09
   3.78068E-09  3.62539E-09  3.79641E-09  3.72713E-09  3.82850E-09  3.72089E-09  3.46229E-09  4.06038E-09  3.74299E-09  4.44803E-09
   4.99710E-09  5.33800E-09  5.08956E-09  5.12064E-09  5.74439E-09  5.67791E-09  6.09021E-09  6.66509E-09  6.75363E-09  9.04186E-09
   1.08288E-08  1.36208E-08  1.71034E-08  1.84536E-08  1.48839E-08  1.07296E-08  7.64430E-09  5.72234E-09  5.67572E-09  5.07629E-09
   3.37238E-09  3.73061E-09  2.99675E-09  2.54090E-09  1.90470E-09  2.44344E-09  9.28353E-10  1.52911E-09  6.61963E-10  2.53947E-10
   1.97036E-10 -2.69698E-10 -1.61462E-09 -1.51751E-09 -2.35351E-09 -3.36238E-09 -4.39189E-09 -4.42244E-09 -5.53225E-09 -6.66263E-09
  -7.20100E-09 -7.53188E-09 -8.27631E-09 -8.14584E-09 -8.49951E-09 -8.47797E-09 -8.21238E-09 -8.23138E-09 -7.63521E-09 -7.11098E-09
  -6.93683E-09 -5.10812E-09 -4.77383E-09 -3.62392E-09 -3.68677E-09 -2.48760E-09 -2.38178E-09 -2.46291E-09 -1.57535E-09 -1.77898E-09
  -1.73856E-09 -2.52918E-09 -2.21992E-09 -1.58177E-09 -3.12217E-09 -1.95885E-09 -1.23527E-09 -1.96214E-09 -1.76296E-09 -1.74773E-09
  -1.64557E-09 -2.03870E-09 -1.64764E-09 -2.12433E-09 -2.53707E-09 -1.76608E-09 -2.20475E-09 -1.71707E-09 -1.09632E-09 -2.14768E-09
  -1.05262E-09 -1.53637E-09 -1.41338E-09 -1.38519E-09 -2.41170E-09 -1.99719E-09 -1.61894E-09 -1.54894E-09 -2.09768E-09 -1.56680E-09
  -1.37802E-09 -1.05408E-09 -7.09516E-10 -8.49216E-10 -9.35260E-10 -1.34759E-09 -1.05232E-09 -1.44409E-09 -1.94739E-09 -1.80246E-09
  -1.67031E-09 -1.89956E-09 -2.62433E-09 -2.34857E-09 -2.49397E-09 -1.25702E-09 -1.42633E-09 -9.75792E-10 -9.40992E-10 -4.79953E-10
  -3.93327E-10 -4.14989E-10 -7.28473E-10 -1.19098E-10  8.54214E-11 -7.58565E-10 -1.20774E-09 -9.31995E-10 -1.55084E-09 -1.71227E-09
  -1.75288E-09 -1.68174E-09 -1.83471E-09 -1.74350E-09 -1.84317E-09 -1.38413E-09 -1.77603E-09 -1.34059E-09 -1.61562E-09 -1.48536E-09
  -1.30006E-09 -1.20462E-09 -1.62328E-09 -9.46939E-10 -9.61314E-10 -1.35642E-09 -1.23290E-09 -8.85930E-10 -1.30476E-09 -1.60721E-09
  -8.04717E-10 -9.07981E-10 -1.43002E-09 -1.23553E-09 -1.03912E-09 -1.09808E-09 -1.13883E-09 -1.05666E-09 -1.22992E-09 -7.49384E-10
  -1.56073E-09 -8.99131E-10 -8.35015E-10 -5.05312E-10 -1.27305E-09 -9.81650E-10 -7.99833E-10 -7.76701E-10 -8.84513E-10 -6.77539E-10
  -6.21866E-10 -1.01191E-09 -7.30949E-10 -1.27667E-09 -5.10710E-10 -6.27310E-10 -8.33709E-10 -4.08584E-10 -7.28955E-10 -3.25559E-10
  -9.16325E-10 -4.98019E-10 -1.03678E-09 -5.26653E-10 -7.95619E-10 -5.82187E-10 -1.04313E-09 -6.30702E-10 -8.00680E-10 -7.85101E-10
  -6.65782E-10 -4.19439E-10 -4.30100E-10 -3.88974E-10 -1.14625E-09 -6.93187E-10 -7.86942E-10 -5.69249E-10 -2.36638E-10 -6.41598E-10
  -2.37607E-10 -4.50232E-10 -2.24197E-10 -3.94106E-10 -3.85849E-10 -5.48781E-10 -4.55273E-10 -5.77757E-10 -4.57203E-10 -8.11956E-10
  -5.34837E-10 -2.97197E-10 -7.47455E-11
 NY points of the fit to the data follow
   2.46886E-09  2.93421E-09  3.34482E-09  3.63428E-09  3.72773E-09  3.59287E-09  3.26665E-09  2.88824E-09  2.61423E-09  2.42418E-09
   2.38570E-09  2.45384E-09  2.59545E-09  2.80882E-09  3.10240E-09  3.40336E-09  3.74324E-09  4.19695E-09  4.70319E-09  5.10709E-09
   5.29776E-09  5.12139E-09  4.65400E-09  4.21334E-09  3.88894E-09  3.75162E-09  3.92500E-09  4.42576E-09  5.06032E-09  5.52176E-09
   5.64634E-09  5.84895E-09  6.31164E-09  6.71956E-09  7.02101E-09  7.45833E-09  7.89194E-09  8.00307E-09  7.57795E-09  6.79698E-09
   6.04767E-09  5.32781E-09  4.29802E-09  3.43727E-09  3.00012E-09  2.64341E-09  2.45271E-09  2.53751E-09  2.75152E-09  2.90395E-09
   2.94313E-09  2.87565E-09  2.83702E-09  2.86793E-09  2.95764E-09  3.06135E-09  3.11722E-09  3.11826E-09  3.06116E-09  3.05055E-09
   3.31007E-09  3.90344E-09  4.58112E-09  5.32430E-09  6.42762E-09  7.44954E-09  8.19161E-09  8.71807E-09  8.99815E-09  8.90719E-09
   8.27005E-09  7.13000E-09  5.88289E-09  5.03431E-09  4.25025E-09  3.45269E-09  3.36356E-09  3.96015E-09  4.64774E-09  5.78668E-09
   7.41031E-09  9.41020E-09  1.12958E-08  1.19627E-08  1.11542E-08  9.73154E-09  8.42851E-09  7.38041E-09  6.39666E-09  6.12071E-09
   6.00446E-09  5.97042E-09  5.71627E-09  5.17397E-09  4.80580E-09  4.47142E-09  3.96592E-09  3.61082E-09  3.38807E-09  3.18886E-09
   3.08928E-09  3.04760E-09  3.06315E-09  3.15110E-09  3.26146E-09  3.34914E-09  3.38860E-09  3.39933E-09  3.39744E-09  3.35922E-09
   3.26587E-09  3.15046E-09  3.08589E-09  3.02707E-09  2.97392E-09  2.97098E-09  2.98433E-09  3.00442E-09  3.02792E-09  3.05325E-09
   3.07954E-09  3.10626E-09  3.13299E-09  3.15945E-09  3.18543E-09  3.21076E-09  3.23527E-09  3.25886E-09  3.28141E-09  3.30281E-09
   3.32298E-09  3.34183E-09  3.35929E-09  3.37526E-09  3.38968E-09  3.40247E-09  3.41358E-09  3.42295E-09  3.43054E-09  3.43627E-09
   3.44007E-09  3.44184E-09  3.44144E-09  3.43874E-09  3.43362E-09  3.42596E-09  3.41563E-09  3.40253E-09  3.38657E-09  3.36766E-09
   3.34575E-09  3.32081E-09  3.29284E-09  3.26189E-09  3.22805E-09  3.19153E-09  3.15264E-09  3.11188E-09  3.07006E-09  3.02839E-09
   2.98889E-09  2.95493E-09  2.93254E-09  2.93368E-09  2.98627E-09  3.17752E-09  3.90057E-09  5.28028E-09  6.97804E-09  9.23108E-09
   1.22901E-08  1.56280E-08  1.77826E-08  1.74606E-08  1.48361E-08  1.12169E-08  7.70242E-09  4.55388E-09  2.29267E-09  1.30472E-09
   8.33573E-10  5.12386E-10  2.54514E-10  2.98738E-11 -1.74737E-10 -3.65953E-10 -5.47343E-10 -7.20913E-10 -8.87777E-10 -1.04855E-09
  -1.20351E-09 -1.35274E-09 -1.49616E-09 -1.63358E-09 -1.76479E-09 -1.88950E-09 -2.00749E-09 -2.11889E-09 -2.22386E-09 -2.32257E-09
  -2.41515E-09 -2.50173E-09 -2.58245E-09 -2.65742E-09 -2.72676E-09 -2.79057E-09 -2.84897E-09 -2.90206E-09 -2.94994E-09 -2.99271E-09
  -3.03047E-09 -3.06333E-09 -3.09137E-09 -3.11469E-09 -3.13339E-09 -3.14757E-09 -3.15732E-09 -3.16272E-09 -3.16387E-09 -3.16087E-09
  -3.15381E-09 -3.14277E-09 -3.12786E-09 -3.10916E-09 -3.08680E-09 -3.06098E-09 -3.03190E-09 -2.99978E-09 -2.96483E-09 -2.92724E-09
  -2.88724E-09 -2.84503E-09 -2.80081E-09 -2.75480E-09 -2.70719E-09 -2.65820E-09 -2.60804E-09 -2.55692E-09 -2.50502E-09 -2.45259E-09
  -2.39981E-09 -2.34689E-09 -2.29404E-09 -2.24147E-09 -2.18937E-09 -2.13797E-09 -2.08747E-09 -2.03807E-09 -1.98999E-09 -1.94342E-09
  -1.89858E-09 -1.85567E-09 -1.81479E-09 -1.77587E-09 -1.73885E-09 -1.70369E-09 -1.67030E-09 -1.63862E-09 -1.60859E-09 -1.58014E-09
  -1.55321E-09 -1.52774E-09 -1.50366E-09 -1.48090E-09 -1.45941E-09 -1.43911E-09 -1.41993E-09 -1.40184E-09 -1.38475E-09 -1.36859E-09
  -1.35330E-09 -1.33884E-09 -1.32511E-09 -1.31206E-09 -1.29963E-09 -1.28774E-09 -1.27636E-09 -1.26539E-09 -1.25478E-09 -1.24446E-09
  -1.23440E-09 -1.22458E-09 -1.21498E-09 -1.20559E-09 -1.19638E-09 -1.18735E-09 -1.17847E-09 -1.16973E-09 -1.16110E-09 -1.15259E-09
  -1.14416E-09 -1.13580E-09 -1.12750E-09 -1.11924E-09 -1.11099E-09 -1.10275E-09 -1.09450E-09 -1.08622E-09 -1.07790E-09 -1.06951E-09
  -1.06104E-09 -1.05248E-09 -1.04380E-09 -1.03500E-09 -1.02605E-09 -1.01694E-09 -1.00765E-09 -9.98162E-10 -9.88481E-10 -9.78614E-10
  -9.68569E-10 -9.58357E-10 -9.47988E-10 -9.37465E-10 -9.26802E-10 -9.16006E-10 -9.05086E-10 -8.94051E-10 -8.82911E-10 -8.71672E-10
  -8.60348E-10 -8.48941E-10 -8.37463E-10 -8.25927E-10 -8.14334E-10 -8.02702E-10 -7.91033E-10 -7.79335E-10 -7.67622E-10 -7.55903E-10
  -7.44180E-10 -7.32468E-10 -7.20773E-10 -7.09107E-10 -6.97477E-10 -6.85888E-10 -6.74343E-10 -6.62842E-10 -6.51378E-10 -6.39950E-10
  -6.28556E-10 -6.17192E-10 -6.05856E-10 -5.94546E-10 -5.83261E-10 -5.71993E-10 -5.60747E-10 -5.49515E-10 -5.38296E-10 -5.27087E-10
  -5.15884E-10 -5.04689E-10 -4.93495E-10 -4.82301E-10 -4.71105E-10 -4.59904E-10 -4.48696E-10 -4.37474E-10 -4.26241E-10 -4.14994E-10
  -4.03729E-10 -3.92444E-10 -3.81133E-10
 NY background values follow
    -2.128E-09   -2.080E-09   -2.032E-09   -1.984E-09   -1.936E-09   -1.889E-09   -1.841E-09   -1.794E-09   -1.747E-09   -1.700E-09
    -1.654E-09   -1.607E-09   -1.561E-09   -1.516E-09   -1.470E-09   -1.426E-09   -1.381E-09   -1.337E-09   -1.294E-09   -1.251E-09
    -1.208E-09   -1.166E-09   -1.125E-09   -1.084E-09   -1.044E-09   -1.005E-09   -9.664E-10   -9.284E-10   -8.913E-10   -8.549E-10
    -8.193E-10   -7.843E-10   -7.501E-10   -7.165E-10   -6.836E-10   -6.512E-10   -6.194E-10   -5.882E-10   -5.574E-10   -5.271E-10
    -4.973E-10   -4.679E-10   -4.388E-10   -4.101E-10   -3.818E-10   -3.537E-10   -3.259E-10   -2.983E-10   -2.709E-10   -2.436E-10
    -2.165E-10   -1.895E-10   -1.626E-10   -1.358E-10   -1.089E-10   -8.204E-11   -5.512E-11   -2.812E-11   -1.013E-12    2.623E-11
     5.363E-11    8.122E-11    1.090E-10    1.371E-10    1.654E-10    1.941E-10    2.231E-10    2.524E-10    2.821E-10    3.123E-10
     3.429E-10    3.739E-10    4.055E-10    4.376E-10    4.703E-10    5.036E-10    5.375E-10    5.720E-10    6.072E-10    6.431E-10
     6.798E-10    7.172E-10    7.554E-10    7.944E-10    8.343E-10    8.750E-10    9.165E-10    9.587E-10    1.002E-09    1.045E-09
     1.089E-09    1.134E-09    1.179E-09    1.224E-09    1.270E-09    1.316E-09    1.363E-09    1.409E-09    1.456E-09    1.503E-09
     1.550E-09    1.597E-09    1.644E-09    1.690E-09    1.737E-09    1.783E-09    1.829E-09    1.875E-09    1.920E-09    1.965E-09
     2.009E-09    2.053E-09    2.096E-09    2.139E-09    2.181E-09    2.222E-09    2.262E-09    2.301E-09    2.340E-09    2.377E-09
     2.413E-09    2.449E-09    2.483E-09    2.516E-09    2.547E-09    2.577E-09    2.606E-09    2.634E-09    2.660E-09    2.684E-09
     2.707E-09    2.728E-09    2.748E-09    2.765E-09    2.781E-09    2.795E-09    2.807E-09    2.817E-09    2.825E-09    2.831E-09
     2.835E-09    2.836E-09    2.835E-09    2.832E-09    2.825E-09    2.816E-09    2.804E-09    2.788E-09    2.769E-09    2.747E-09
     2.721E-09    2.691E-09    2.657E-09    2.620E-09    2.577E-09    2.531E-09    2.480E-09    2.424E-09    2.363E-09    2.298E-09
     2.227E-09    2.151E-09    2.069E-09    1.982E-09    1.889E-09    1.790E-09    1.685E-09    1.574E-09    1.457E-09    1.333E-09
     1.205E-09    1.071E-09    9.320E-10    7.893E-10    6.429E-10    4.932E-10    3.407E-10    1.858E-10    2.910E-11   -1.291E-10
    -2.883E-10   -4.480E-10   -6.079E-10   -7.674E-10   -9.260E-10   -1.083E-09   -1.239E-09   -1.393E-09   -1.544E-09   -1.692E-09
    -1.836E-09   -1.976E-09   -2.112E-09   -2.243E-09   -2.369E-09   -2.489E-09   -2.603E-09   -2.711E-09   -2.813E-09   -2.909E-09
    -2.999E-09   -3.083E-09   -3.162E-09   -3.235E-09   -3.303E-09   -3.366E-09   -3.423E-09   -3.475E-09   -3.521E-09   -3.563E-09
    -3.600E-09   -3.632E-09   -3.659E-09   -3.682E-09   -3.700E-09   -3.713E-09   -3.723E-09   -3.727E-09   -3.728E-09   -3.725E-09
    -3.717E-09   -3.706E-09   -3.690E-09   -3.671E-09   -3.649E-09   -3.622E-09   -3.593E-09   -3.561E-09   -3.525E-09   -3.488E-09
    -3.447E-09   -3.405E-09   -3.360E-09   -3.314E-09   -3.266E-09   -3.217E-09   -3.167E-09   -3.115E-09   -3.063E-09   -3.011E-09
    -2.958E-09   -2.905E-09   -2.852E-09   -2.799E-09   -2.747E-09   -2.695E-09   -2.644E-09   -2.595E-09   -2.547E-09   -2.500E-09
    -2.455E-09   -2.412E-09   -2.371E-09   -2.332E-09   -2.295E-09   -2.259E-09   -2.226E-09   -2.194E-09   -2.164E-09   -2.135E-09
    -2.108E-09   -2.083E-09   -2.058E-09   -2.036E-09   -2.014E-09   -1.994E-09   -1.974E-09   -1.956E-09   -1.939E-09   -1.923E-09
    -1.907E-09   -1.893E-09   -1.879E-09   -1.865E-09   -1.853E-09   -1.841E-09   -1.829E-09   -1.818E-09   -1.808E-09   -1.797E-09
    -1.787E-09   -1.777E-09   -1.767E-09   -1.758E-09   -1.748E-09   -1.739E-09   -1.730E-09   -1.721E-09   -1.713E-09   -1.704E-09
    -1.695E-09   -1.687E-09   -1.678E-09   -1.670E-09   -1.662E-09   -1.653E-09   -1.645E-09   -1.636E-09   -1.628E-09   -1.619E-09
    -1.611E-09   -1.602E-09   -1.593E-09   -1.584E-09   -1.575E-09   -1.566E-09   -1.556E-09   -1.547E-09   -1.537E-09   -1.527E-09
    -1.517E-09   -1.506E-09   -1.496E-09   -1.485E-09   -1.474E-09   -1.463E-09   -1.452E-09   -1.441E-09   -1.429E-09   -1.418E-09
    -1.406E-09   -1.395E-09   -1.383E-09   -1.371E-09   -1.360E-09   -1.348E-09   -1.336E-09   -1.324E-09   -1.312E-09   -1.300E-09
    -1.288E-09   -1.276E-09   -1.264E-09   -1.253E-09   -1.241E-09   -1.229E-09   -1.217E-09   -1.205E-09   -1.194E-09   -1.182E-09
    -1.170E-09   -1.159E-09   -1.147E-09   -1.136E-09   -1.124E-09   -1.113E-09   -1.101E-09   -1.090E-09   -1.078E-09   -1.067E-09
    -1.055E-09   -1.044E-09   -1.032E-09   -1.021E-09   -1.009E-09   -9.980E-10   -9.865E-10   -9.750E-10   -9.635E-10   -9.520E-10
    -9.404E-10   -9.289E-10   -9.173E-10
 Ala      Conc. = 1.38E-10
  -2.02417E-09 -1.96421E-09 -1.90845E-09 -1.85785E-09 -1.80977E-09 -1.76292E-09 -1.72134E-09 -1.68896E-09 -1.65568E-09 -1.61792E-09
  -1.58726E-09 -1.55599E-09 -1.51821E-09 -1.48091E-09 -1.44254E-09 -1.40182E-09 -1.36013E-09 -1.31808E-09 -1.27601E-09 -1.23411E-09
  -1.19250E-09 -1.15128E-09 -1.11053E-09 -1.07030E-09 -1.03063E-09 -9.91582E-10 -9.53188E-10 -9.15481E-10 -8.78502E-10 -8.42269E-10
  -8.06763E-10 -7.71951E-10 -7.37811E-10 -7.04313E-10 -6.71428E-10 -6.39127E-10 -6.07383E-10 -5.76165E-10 -5.45441E-10 -5.15181E-10
  -4.85362E-10 -4.55943E-10 -4.26905E-10 -3.98208E-10 -3.69833E-10 -3.41735E-10 -3.13896E-10 -2.86286E-10 -2.58859E-10 -2.31601E-10
  -2.04478E-10 -1.77450E-10 -1.50498E-10 -1.23584E-10 -9.66973E-11 -6.97691E-11 -4.27874E-11 -1.57306E-11  1.14375E-11  3.87449E-11
   6.62203E-11  9.38924E-11  1.21790E-10  1.49944E-10  1.78381E-10  2.07130E-10  2.36223E-10  2.65686E-10  2.95550E-10  3.25845E-10
   3.56600E-10  3.87843E-10  4.19606E-10  4.51919E-10  4.84812E-10  5.18315E-10  5.52460E-10  5.87279E-10  6.22804E-10  6.59065E-10
   6.96101E-10  7.33939E-10  7.72624E-10  8.12184E-10  8.52666E-10  8.94068E-10  9.36357E-10  9.79502E-10  1.02348E-09  1.06828E-09
   1.11389E-09  1.16033E-09  1.20765E-09  1.25594E-09  1.30538E-09  1.35627E-09  1.40918E-09  1.46528E-09  1.52733E-09  1.60406E-09
   1.70857E-09  1.81145E-09  1.93494E-09  2.10647E-09  2.28317E-09  2.42446E-09  2.50785E-09  2.55525E-09  2.58450E-09  2.57303E-09
   2.50297E-09  2.40776E-09  2.36071E-09  2.31719E-09  2.27746E-09  2.28633E-09  2.31022E-09  2.33975E-09  2.37167E-09  2.40454E-09
   2.43758E-09  2.47033E-09  2.50249E-09  2.53384E-09  2.56423E-09  2.59351E-09  2.62159E-09  2.64838E-09  2.67378E-09  2.69772E-09
   2.72013E-09  2.74093E-09  2.76007E-09  2.77748E-09  2.79310E-09  2.80687E-09  2.81872E-09  2.82860E-09  2.83645E-09  2.84221E-09
   2.84581E-09  2.84714E-09  2.84604E-09  2.84237E-09  2.83596E-09  2.82666E-09  2.81433E-09  2.79882E-09  2.77997E-09  2.75764E-09
   2.73167E-09  2.70191E-09  2.66822E-09  2.63046E-09  2.58846E-09  2.54209E-09  2.49121E-09  2.43568E-09  2.37536E-09  2.31013E-09
   2.23987E-09  2.16450E-09  2.08399E-09  1.99838E-09  1.90802E-09  1.81410E-09  1.72236E-09  1.64625E-09  1.56745E-09  1.49364E-09
   1.43495E-09  1.38504E-09  1.31125E-09  1.17461E-09  9.74043E-10  7.42995E-10  5.12850E-10  2.90235E-10  7.62437E-11 -9.87607E-11
  -2.64820E-10 -4.28260E-10 -5.90397E-10 -7.51437E-10 -9.11219E-10 -1.06947E-09 -1.22582E-09 -1.37988E-09 -1.53123E-09 -1.67945E-09
  -1.82409E-09 -1.96474E-09 -2.10095E-09 -2.23224E-09 -2.35821E-09 -2.47839E-09 -2.59244E-09 -2.70040E-09 -2.80235E-09 -2.89838E-09
  -2.98858E-09 -3.07304E-09 -3.15186E-09 -3.22512E-09 -3.29292E-09 -3.35533E-09 -3.41246E-09 -3.46440E-09 -3.51122E-09 -3.55302E-09
  -3.58990E-09 -3.62194E-09 -3.64922E-09 -3.67185E-09 -3.68990E-09 -3.70348E-09 -3.71266E-09 -3.71754E-09 -3.71821E-09 -3.71475E-09
  -3.70726E-09 -3.69582E-09 -3.68053E-09 -3.66147E-09 -3.63878E-09 -3.61264E-09 -3.58326E-09 -3.55086E-09 -3.51563E-09 -3.47779E-09
  -3.43754E-09 -3.39509E-09 -3.35065E-09 -3.30442E-09 -3.25660E-09 -3.20742E-09 -3.15706E-09 -3.10575E-09 -3.05368E-09 -3.00107E-09
  -2.94812E-09 -2.89503E-09 -2.84202E-09 -2.78930E-09 -2.73706E-09 -2.68551E-09 -2.63486E-09 -2.58532E-09 -2.53709E-09 -2.49040E-09
  -2.44541E-09 -2.40238E-09 -2.36136E-09 -2.32231E-09 -2.28517E-09 -2.24988E-09 -2.21636E-09 -2.18456E-09 -2.15440E-09 -2.12583E-09
  -2.09879E-09 -2.07319E-09 -2.04899E-09 -2.02611E-09 -2.00449E-09 -1.98407E-09 -1.96478E-09 -1.94656E-09 -1.92935E-09 -1.91307E-09
  -1.89766E-09 -1.88307E-09 -1.86922E-09 -1.85605E-09 -1.84350E-09 -1.83149E-09 -1.81997E-09 -1.80888E-09 -1.79814E-09 -1.78770E-09
  -1.77751E-09 -1.76756E-09 -1.75783E-09 -1.74830E-09 -1.73897E-09 -1.72980E-09 -1.72078E-09 -1.71190E-09 -1.70314E-09 -1.69449E-09
  -1.68592E-09 -1.67743E-09 -1.66898E-09 -1.66057E-09 -1.65219E-09 -1.64380E-09 -1.63540E-09 -1.62697E-09 -1.61850E-09 -1.60996E-09
  -1.60134E-09 -1.59262E-09 -1.58378E-09 -1.57483E-09 -1.56572E-09 -1.55644E-09 -1.54699E-09 -1.53734E-09 -1.52749E-09 -1.51745E-09
  -1.50724E-09 -1.49686E-09 -1.48632E-09 -1.47562E-09 -1.46478E-09 -1.45380E-09 -1.44270E-09 -1.43149E-09 -1.42016E-09 -1.40874E-09
  -1.39723E-09 -1.38563E-09 -1.37396E-09 -1.36223E-09 -1.35044E-09 -1.33862E-09 -1.32675E-09 -1.31485E-09 -1.30293E-09 -1.29101E-09
  -1.27908E-09 -1.26716E-09 -1.25525E-09 -1.24337E-09 -1.23153E-09 -1.21972E-09 -1.20796E-09 -1.19623E-09 -1.18455E-09 -1.17289E-09
  -1.16127E-09 -1.14968E-09 -1.13811E-09 -1.12657E-09 -1.11504E-09 -1.10354E-09 -1.09205E-09 -1.08058E-09 -1.06911E-09 -1.05765E-09
  -1.04620E-09 -1.03475E-09 -1.02330E-09 -1.01185E-09 -1.00040E-09 -9.88936E-10 -9.77463E-10 -9.65975E-10 -9.54472E-10 -9.42954E-10
  -9.31415E-10 -9.19854E-10 -9.08263E-10
 Asp      Conc. = 5.58E-10
  -1.45127E-09 -1.47995E-09 -1.52427E-09 -1.58817E-09 -1.63876E-09 -1.68211E-09 -1.69870E-09 -1.69902E-09 -1.67394E-09 -1.63879E-09
  -1.59875E-09 -1.55620E-09 -1.51235E-09 -1.46774E-09 -1.42306E-09 -1.37846E-09 -1.33394E-09 -1.28958E-09 -1.24544E-09 -1.20157E-09
  -1.15801E-09 -1.11478E-09 -1.07191E-09 -1.02941E-09 -9.87263E-10 -9.45488E-10 -9.04041E-10 -8.62879E-10 -8.21941E-10 -7.81110E-10
  -7.40182E-10 -6.98860E-10 -6.56729E-10 -6.13129E-10 -5.66916E-10 -5.15762E-10 -4.54349E-10 -3.89252E-10 -3.11982E-10 -2.32287E-10
  -1.51085E-10 -7.63513E-11 -1.69356E-11  2.97892E-11  6.87039E-11  1.44475E-10  2.52072E-10  4.12238E-10  6.34906E-10  8.22643E-10
   9.15575E-10  8.87635E-10  7.94360E-10  6.95129E-10  6.02514E-10  5.19375E-10  4.26659E-10  3.81502E-10  3.36064E-10  2.92341E-10
   3.03245E-10  3.34093E-10  3.47649E-10  3.53015E-10  3.57828E-10  3.57467E-10  3.49361E-10  3.56458E-10  3.71552E-10  3.91233E-10
   4.13950E-10  4.38881E-10  4.65551E-10  4.93663E-10  5.23028E-10  5.53518E-10  5.85052E-10  6.17576E-10  6.51056E-10  6.85468E-10
   7.20808E-10  7.57068E-10  7.94259E-10  8.32382E-10  8.71454E-10  9.11448E-10  9.52301E-10  9.93953E-10  1.03634E-09  1.07940E-09
   1.12308E-09  1.16732E-09  1.21206E-09  1.25724E-09  1.30281E-09  1.34871E-09  1.39489E-09  1.44129E-09  1.48784E-09  1.53451E-09
   1.58124E-09  1.62796E-09  1.67462E-09  1.72118E-09  1.76757E-09  1.81374E-09  1.85965E-09  1.90522E-09  1.95042E-09  1.99518E-09
   2.03945E-09  2.08318E-09  2.12632E-09  2.16880E-09  2.21058E-09  2.25159E-09  2.29179E-09  2.33111E-09  2.36950E-09  2.40690E-09
   2.44326E-09  2.47852E-09  2.51263E-09  2.54553E-09  2.57716E-09  2.60747E-09  2.63640E-09  2.66390E-09  2.68991E-09  2.71438E-09
   2.73725E-09  2.75847E-09  2.77797E-09  2.79571E-09  2.81163E-09  2.82567E-09  2.83779E-09  2.84791E-09  2.85600E-09  2.86199E-09
   2.86582E-09  2.86737E-09  2.86650E-09  2.86305E-09  2.85688E-09  2.84783E-09  2.83577E-09  2.82053E-09  2.80199E-09  2.77999E-09
   2.75439E-09  2.72504E-09  2.69182E-09  2.65458E-09  2.61320E-09  2.56754E-09  2.51750E-09  2.46298E-09  2.40391E-09  2.34022E-09
   2.27193E-09  2.19916E-09  2.12219E-09  2.04167E-09  1.95923E-09  1.87936E-09  1.82037E-09  1.84659E-09  1.88310E-09  1.95267E-09
   2.09813E-09  2.30307E-09  2.44288E-09  2.35043E-09  2.00217E-09  1.52524E-09  1.05312E-09  6.20285E-10  2.18188E-10 -1.87065E-11
  -2.07559E-10 -3.82556E-10 -5.51566E-10 -7.17094E-10 -8.79992E-10 -1.04050E-09 -1.19855E-09 -1.35392E-09 -1.50630E-09 -1.65534E-09
  -1.80066E-09 -1.94186E-09 -2.07852E-09 -2.21021E-09 -2.33650E-09 -2.45696E-09 -2.57126E-09 -2.67943E-09 -2.78156E-09 -2.87775E-09
  -2.96809E-09 -3.05268E-09 -3.13161E-09 -3.20497E-09 -3.27286E-09 -3.33535E-09 -3.39256E-09 -3.44455E-09 -3.49143E-09 -3.53329E-09
  -3.57022E-09 -3.60230E-09 -3.62962E-09 -3.65229E-09 -3.67038E-09 -3.68398E-09 -3.69320E-09 -3.69810E-09 -3.69879E-09 -3.69536E-09
  -3.68789E-09 -3.67647E-09 -3.66120E-09 -3.64216E-09 -3.61947E-09 -3.59335E-09 -3.56399E-09 -3.53160E-09 -3.49638E-09 -3.45855E-09
