 LCModel (Version 6.3-1R) Copyright: S.W. Provencher.          Ref.: Magn. Reson. Med. 30:672-679 (1993).                
 onepulse 19x14_ftSpec_smooth_lcm
 26 lines in following concentration table = NCONC+1
    Conc.  %SD   /Cr    Metabolite                                         
 1.38E-10 116%   0.000 Ala                                                 
 6.09E-10  54%   0.000 Asp                                                 
    0.000 999%   0.000 Cr                                                  
 3.26E-09   7%   0.000 GABA                                                
 1.12E-09  29%   0.000 Glc                                                 
    0.000 999%   0.000 Gln                                                 
    0.000 999%   0.000 Glu                                                 
 1.24E-10 675%   0.000 Glyc                                                
    0.000 999%   0.000 GPC                                                 
    0.000 999%   0.000 GSH                                                 
 1.21E-11 999%   0.000 Ins                                                 
    0.000 999%   0.000 Lac                                                 
    0.000 999%   0.000 NAAG                                                
 1.15E-09  10%   0.000 NAA                                                 
 9.88E-11  49%   0.000 PCh                                                 
    0.000 999%   0.000 PCr                                                 
    0.000 999%   0.000 PE                                                  
 1.61E-11 484%   0.000 Scyllo                                              
    0.000 999%   0.000 Ser                                                 
    0.000 999%   0.000 Tau                                                 
 9.88E-11  49%   0.000 GPC+PCh                                             
 1.15E-09  10%   0.000 NAA+NAAG                                            
 1.36E-10 136%   0.000 Ins+Glyc                                            
    0.000 999%   0.000 Cr+PCr                                              
    0.000 999%   0.000 Glu+Gln                                             
   6 lines in following misc. output table
  FWHM = 0.067 ppm    S/N =   5                                            
  Data shift = 0.347 ppm                                                   
  Ph:  88 deg      37.3 deg/ppm                                            
  alphaB,S = 1.7E-01,   7.8E+01                                            
   16 spline knots.   Ns = 5(1)                                            
  ( 7) 2 infls.   ( 3) 1 extrs.                                            
  363 points on ppm-axis = NY
      4.250000     4.238821     4.227641     4.216462     4.205282     4.194103     4.182923     4.171744     4.160564     4.149385
      4.138206     4.127026     4.115847     4.104667     4.093488     4.082308     4.071129     4.059949     4.048770     4.037591
      4.026411     4.015232     4.004052     3.992873     3.981693     3.970514     3.959334     3.948155     3.936975     3.925796
      3.914617     3.903437     3.892258     3.881078     3.869899     3.858719     3.847540     3.836360     3.825181     3.814002
      3.802822     3.791643     3.780463     3.769284     3.758104     3.746925     3.735745     3.724566     3.713387     3.702207
      3.691028     3.679848     3.668669     3.657489     3.646310     3.635130     3.623951     3.612772     3.601592     3.590413
      3.579233     3.568054     3.556874     3.545695     3.534515     3.523336     3.512156     3.500977     3.489798     3.478618
      3.467439     3.456259     3.445080     3.433900     3.422721     3.411541     3.400362     3.389183     3.378003     3.366824
      3.355644     3.344465     3.333285     3.322106     3.310926     3.299747     3.288568     3.277388     3.266209     3.255029
      3.243850     3.232670     3.221491     3.210311     3.199132     3.187953     3.176773     3.165594     3.154414     3.143235
      3.132055     3.120876     3.109696     3.098517     3.087337     3.076158     3.064979     3.053799     3.042620     3.031440
      3.020261     3.009081     2.997902     2.986722     2.975543     2.964364     2.953184     2.942005     2.930825     2.919646
      2.908466     2.897287     2.886107     2.874928     2.863749     2.852569     2.841390     2.830210     2.819031     2.807851
      2.796672     2.785492     2.774313     2.763134     2.751954     2.740775     2.729595     2.718416     2.707236     2.696057
      2.684877     2.673698     2.662519     2.651339     2.640160     2.628980     2.617801     2.606621     2.595442     2.584262
      2.573083     2.561903     2.550724     2.539545     2.528365     2.517186     2.506006     2.494827     2.483647     2.472468
      2.461288     2.450109     2.438930     2.427750     2.416571     2.405391     2.394212     2.383032     2.371853     2.360673
      2.349494     2.338315     2.327135     2.315956     2.304776     2.293597     2.282417     2.271238     2.260058     2.248879
      2.237700     2.226520     2.215341     2.204161     2.192982     2.181802     2.170623     2.159443     2.148264     2.137084
      2.125905     2.114726     2.103546     2.092367     2.081187     2.070008     2.058828     2.047649     2.036469     2.025290
      2.014111     2.002931     1.991752     1.980572     1.969393     1.958213     1.947034     1.935854     1.924675     1.913496
      1.902316     1.891137     1.879957     1.868778     1.857598     1.846419     1.835239     1.824060     1.812881     1.801701
      1.790522     1.779342     1.768163     1.756983     1.745804     1.734624     1.723445     1.712265     1.701086     1.689907
      1.678727     1.667548     1.656368     1.645189     1.634009     1.622830     1.611650     1.600471     1.589292     1.578112
      1.566933     1.555753     1.544574     1.533394     1.522215     1.511035     1.499856     1.488677     1.477497     1.466318
      1.455138     1.443959     1.432779     1.421600     1.410420     1.399241     1.388062     1.376882     1.365703     1.354523
      1.343344     1.332164     1.320985     1.309805     1.298626     1.287446     1.276267     1.265088     1.253908     1.242729
      1.231549     1.220370     1.209190     1.198011     1.186831     1.175652     1.164473     1.153293     1.142114     1.130934
      1.119755     1.108575     1.097396     1.086216     1.075037     1.063858     1.052678     1.041499     1.030319     1.019140
      1.007960     0.996781     0.985601     0.974422     0.963243     0.952063     0.940884     0.929704     0.918525     0.907345
      0.896166     0.884986     0.873807     0.862628     0.851448     0.840269     0.829089     0.817910     0.806730     0.795551
      0.784371     0.773192     0.762012     0.750833     0.739654     0.728474     0.717295     0.706115     0.694936     0.683756
      0.672577     0.661397     0.650218     0.639039     0.627859     0.616680     0.605500     0.594321     0.583141     0.571962
      0.560782     0.549603     0.538424     0.527244     0.516065     0.504885     0.493706     0.482526     0.471347     0.460167
      0.448988     0.437809     0.426629     0.415450     0.404270     0.393091     0.381911     0.370732     0.359552     0.348373
      0.337193     0.326014     0.314835     0.303655     0.292476     0.281296     0.270117     0.258937     0.247758     0.236578
      0.225399     0.214220     0.203040
 NY phased data points follow
   1.29859E-09  4.30217E-09  6.16711E-09  6.31910E-09  5.19482E-09  4.34361E-09  3.82582E-09  3.91438E-09  2.87638E-09  2.94394E-09
   3.52666E-09  3.19719E-09  3.51146E-09  4.17935E-09  3.99816E-09  5.10723E-09  6.10350E-09  6.01320E-09  5.47765E-09  5.43925E-09
   5.40344E-09  5.29603E-09  4.33362E-09  4.75185E-09  4.97916E-09  5.90712E-09  6.45779E-09  6.94187E-09  5.98419E-09  5.57451E-09
   5.46476E-09  5.98361E-09  8.37087E-09  1.01606E-08  1.08863E-08  1.09251E-08  1.00263E-08  8.28444E-09  7.28450E-09  7.50495E-09
   7.06979E-09  6.70878E-09  5.86651E-09  6.30758E-09  6.15905E-09  6.15373E-09  4.94397E-09  4.44853E-09  3.66687E-09  3.84188E-09
   4.32478E-09  4.54281E-09  3.84206E-09  4.78809E-09  4.04804E-09  3.48172E-09  2.83898E-09  2.61435E-09  2.29568E-09  2.35948E-09
   2.61375E-09  3.29236E-09  4.15039E-09  7.94557E-09  1.17754E-08  1.34639E-08  1.21544E-08  1.04855E-08  8.89997E-09  7.74729E-09
   7.04717E-09  6.31145E-09  5.65720E-09  4.50074E-09  3.66406E-09  3.79685E-09  2.52191E-09  3.03930E-09  3.99441E-09  5.47925E-09
   9.81193E-09  1.39486E-08  1.40395E-08  1.26201E-08  1.12983E-08  9.92609E-09  9.52752E-09  9.64007E-09  8.87350E-09  8.54036E-09
   8.36558E-09  7.63395E-09  7.05447E-09  6.94138E-09  6.24520E-09  5.44184E-09  5.72853E-09  5.05826E-09  4.59725E-09  4.69383E-09
   4.59760E-09  3.74425E-09  4.65828E-09  4.69101E-09  4.82486E-09  4.16315E-09  4.50783E-09  4.00161E-09  4.01753E-09  3.80609E-09
   2.48603E-09  2.70014E-09  1.95086E-09  2.68694E-09  3.09259E-09  3.48472E-09  3.31398E-09  3.55442E-09  4.09723E-09  4.01591E-09
   4.17793E-09  3.96979E-09  3.97608E-09  3.04454E-09  2.21660E-09  2.20832E-09  2.25657E-09  1.92250E-09  1.36671E-09  2.44525E-09
   2.22674E-09  2.33247E-09  2.59277E-09  2.35327E-09  2.71547E-09  2.61551E-09  2.00322E-09  1.78337E-09  1.75071E-09  2.95755E-09
   3.47303E-09  4.58213E-09  4.68311E-09  3.74879E-09  3.47882E-09  3.62051E-09  4.64940E-09  4.00570E-09  4.91115E-09  3.71754E-09
   3.86617E-09  3.42559E-09  3.24119E-09  3.19746E-09  2.94918E-09  3.03458E-09  3.19014E-09  2.91664E-09  3.34420E-09  3.05927E-09
   3.36195E-09  3.86485E-09  3.74401E-09  3.97771E-09  3.49970E-09  3.91926E-09  4.44235E-09  4.42689E-09  6.24429E-09  6.98847E-09
   1.01360E-08  1.50354E-08  1.75089E-08  1.59202E-08  1.18880E-08  9.58860E-09  8.00024E-09  6.65252E-09  5.12401E-09  4.13698E-09
   3.92622E-09  3.02766E-09  2.26918E-09  1.83294E-09  1.09816E-09 -1.13091E-10 -1.42441E-10 -5.42619E-10 -1.84176E-09 -2.94650E-09
  -3.11330E-09 -3.82966E-09 -4.08951E-09 -4.78124E-09 -6.27211E-09 -7.31528E-09 -7.19816E-09 -7.57299E-09 -8.70452E-09 -8.90054E-09
  -8.77797E-09 -8.89215E-09 -8.35947E-09 -8.00984E-09 -7.21430E-09 -6.46265E-09 -6.14081E-09 -5.60171E-09 -4.58782E-09 -3.35391E-09
  -2.31226E-09 -2.69870E-09 -1.62264E-09 -1.39227E-09 -1.44244E-09 -1.03829E-09 -1.36371E-09 -9.01960E-10 -1.39744E-09 -1.41183E-09
  -1.76639E-09 -1.55247E-09 -1.01961E-09 -1.34962E-09 -9.86711E-10 -4.56842E-10 -1.31590E-09 -1.46749E-09 -8.44731E-10 -1.01467E-09
  -1.34918E-09 -1.23360E-09 -1.43099E-09 -1.05450E-09 -1.37929E-09 -1.21160E-09 -8.50002E-10 -5.39960E-10 -1.13932E-09 -8.77758E-10
  -1.31724E-09 -7.41513E-10 -6.53346E-10 -1.15748E-09 -1.69840E-09 -6.84288E-10 -1.32012E-09 -1.17956E-09 -3.10492E-10 -9.85497E-10
  -7.01406E-10  2.83631E-10 -3.11317E-10  4.42220E-11 -2.54427E-10 -4.99534E-10 -7.80373E-10 -1.12749E-09 -1.34051E-09 -1.34229E-09
  -1.55167E-09 -1.67873E-09 -1.56400E-09 -1.83418E-09 -1.08604E-09 -9.84081E-10 -5.45395E-10 -9.35456E-10 -1.51251E-10  1.16754E-10
   8.43885E-10  6.36144E-10  6.47095E-10  6.55668E-10  2.32983E-10  2.09851E-10 -6.52299E-11  4.93798E-12 -4.69934E-10 -8.58863E-10
  -6.66067E-10 -7.54767E-10 -1.59547E-09 -1.16154E-09 -1.35280E-09 -7.21367E-10 -1.21577E-09 -1.54849E-09 -1.59542E-09 -1.95281E-10
  -9.26415E-10 -1.15692E-09 -1.04281E-09 -4.47909E-10 -5.28650E-10 -1.08197E-09 -8.61811E-10 -6.90124E-10 -9.52302E-10 -5.74443E-10
  -5.72324E-10 -6.73014E-10 -7.55776E-10 -2.57387E-10 -6.04813E-10 -4.80232E-10 -3.55908E-10 -8.60334E-11  2.54136E-11 -4.45227E-10
   6.73392E-12 -7.42902E-10 -5.13262E-10  3.35078E-10 -5.78467E-10 -3.59059E-10  6.18593E-10  3.79352E-10 -4.54076E-10  3.26858E-11
   7.84229E-11  5.26337E-11  9.44788E-11 -4.87475E-11 -1.28651E-10  7.87311E-10  3.43880E-10  3.89310E-10  3.58373E-10  1.47246E-10
   4.69392E-10 -1.45390E-10  1.66209E-10  7.60112E-10  1.48645E-11  3.58645E-10  1.13249E-10  5.90830E-10 -3.12658E-10  1.04421E-09
   6.94615E-10  3.69896E-10  4.10969E-10  7.66057E-10  8.72507E-10 -8.69800E-12  3.60656E-10  5.19244E-10  8.46463E-10  7.95226E-10
   3.77517E-10  4.77852E-10  9.85525E-10  7.48470E-10  4.87972E-10  9.58953E-10  9.60831E-10  8.15987E-10  9.02294E-10  7.38521E-10
   5.05206E-10  6.76181E-10  6.49597E-10
 NY points of the fit to the data follow
   4.23538E-09  4.54812E-09  4.75812E-09  4.82176E-09  4.69184E-09  4.40576E-09  4.04388E-09  3.71018E-09  3.48697E-09  3.37133E-09
   3.41754E-09  3.55788E-09  3.74453E-09  3.96964E-09  4.25466E-09  4.60233E-09  5.02472E-09  5.48724E-09  5.86021E-09  6.01640E-09
   5.95738E-09  5.66295E-09  5.24041E-09  4.90757E-09  4.73968E-09  4.77757E-09  5.08853E-09  5.58750E-09  6.11204E-09  6.59795E-09
   6.96013E-09  7.39964E-09  8.04568E-09  8.59829E-09  9.00910E-09  9.51702E-09  9.87256E-09  9.77956E-09  9.25004E-09  8.46957E-09
   7.62612E-09  6.71031E-09  5.54124E-09  4.64608E-09  4.25139E-09  3.93379E-09  3.74603E-09  3.80139E-09  3.91261E-09  3.97663E-09
   3.99833E-09  4.00843E-09  4.05965E-09  4.11772E-09  4.14622E-09  4.14727E-09  4.12643E-09  4.11891E-09  4.11948E-09  4.20427E-09
   4.49250E-09  5.04507E-09  5.76030E-09  6.57570E-09  7.67593E-09  8.74166E-09  9.50167E-09  1.00170E-08  1.02380E-08  9.97620E-09
   9.24095E-09  8.18308E-09  7.07856E-09  6.17514E-09  5.22685E-09  4.38338E-09  4.27688E-09  4.85814E-09  5.89548E-09  7.55939E-09
   9.56312E-09  1.13558E-08  1.24692E-08  1.26207E-08  1.19347E-08  1.09423E-08  9.90819E-09  8.77601E-09  7.74610E-09  7.47288E-09
   7.37512E-09  7.26129E-09  6.91964E-09  6.36229E-09  5.94757E-09  5.53478E-09  4.97103E-09  4.56352E-09  4.29925E-09  4.05916E-09
   3.92048E-09  3.86551E-09  3.86626E-09  3.91508E-09  3.97317E-09  4.01104E-09  4.02389E-09  4.01164E-09  3.96340E-09  3.87070E-09
   3.74679E-09  3.62995E-09  3.55185E-09  3.46647E-09  3.39038E-09  3.36020E-09  3.34482E-09  3.33543E-09  3.32885E-09  3.32360E-09
   3.31885E-09  3.31407E-09  3.30887E-09  3.30295E-09  3.29610E-09  3.28815E-09  3.27893E-09  3.26833E-09  3.25624E-09  3.24254E-09
   3.22716E-09  3.20998E-09  3.19094E-09  3.16994E-09  3.14691E-09  3.12180E-09  3.09453E-09  3.06503E-09  3.03326E-09  2.99913E-09
   2.96258E-09  2.92361E-09  2.88217E-09  2.83825E-09  2.79184E-09  2.74292E-09  2.69149E-09  2.63756E-09  2.58112E-09  2.52220E-09
   2.46086E-09  2.39714E-09  2.33114E-09  2.26299E-09  2.19286E-09  2.12103E-09  2.04786E-09  1.97389E-09  1.89996E-09  1.82728E-09
   1.75784E-09  1.69496E-09  1.64457E-09  1.61835E-09  1.64325E-09  1.79958E-09  2.44816E-09  4.05242E-09  6.50413E-09  9.60148E-09
   1.28827E-08  1.54262E-08  1.63162E-08  1.53421E-08  1.30401E-08  1.01050E-08  6.93043E-09  3.79447E-09  1.47331E-09  4.96906E-10
   2.42285E-11 -2.92056E-10 -5.38248E-10 -7.45746E-10 -9.28822E-10 -1.09489E-09 -1.24808E-09 -1.39086E-09 -1.52467E-09 -1.65042E-09
  -1.76862E-09 -1.87956E-09 -1.98335E-09 -2.07997E-09 -2.16936E-09 -2.25135E-09 -2.32588E-09 -2.39319E-09 -2.45360E-09 -2.50739E-09
  -2.55481E-09 -2.59612E-09 -2.63157E-09 -2.66139E-09 -2.68581E-09 -2.70506E-09 -2.71934E-09 -2.72889E-09 -2.73390E-09 -2.73459E-09
  -2.73118E-09 -2.72385E-09 -2.71281E-09 -2.69828E-09 -2.68044E-09 -2.65950E-09 -2.63566E-09 -2.60911E-09 -2.58006E-09 -2.54870E-09
  -2.51522E-09 -2.47982E-09 -2.44270E-09 -2.40406E-09 -2.36405E-09 -2.32280E-09 -2.28041E-09 -2.23699E-09 -2.19264E-09 -2.14748E-09
  -2.10161E-09 -2.05513E-09 -2.00816E-09 -1.96080E-09 -1.91315E-09 -1.86532E-09 -1.81742E-09 -1.76955E-09 -1.72181E-09 -1.67432E-09
  -1.62719E-09 -1.58050E-09 -1.53437E-09 -1.48891E-09 -1.44421E-09 -1.40039E-09 -1.35754E-09 -1.31578E-09 -1.27520E-09 -1.23592E-09
  -1.19803E-09 -1.16164E-09 -1.12680E-09 -1.09344E-09 -1.06154E-09 -1.03104E-09 -1.00188E-09 -9.74030E-10 -9.47429E-10 -9.22034E-10
  -8.97796E-10 -8.74660E-10 -8.52585E-10 -8.31516E-10 -8.11411E-10 -7.92216E-10 -7.73874E-10 -7.56357E-10 -7.39606E-10 -7.23565E-10
  -7.08190E-10 -6.93438E-10 -6.79251E-10 -6.65583E-10 -6.52396E-10 -6.39620E-10 -6.27229E-10 -6.15160E-10 -6.03372E-10 -5.91809E-10
  -5.80439E-10 -5.69238E-10 -5.58178E-10 -5.47232E-10 -5.36381E-10 -5.25593E-10 -5.14847E-10 -5.04115E-10 -4.93372E-10 -4.82596E-10
  -4.71757E-10 -4.60832E-10 -4.49796E-10 -4.38622E-10 -4.27288E-10 -4.15765E-10 -4.04031E-10 -3.92058E-10 -3.79826E-10 -3.67300E-10
  -3.54466E-10 -3.41291E-10 -3.27752E-10 -3.13828E-10 -2.99489E-10 -2.84710E-10 -2.69470E-10 -2.53739E-10 -2.37529E-10 -2.20859E-10
  -2.03749E-10 -1.86222E-10 -1.68301E-10 -1.50004E-10 -1.31354E-10 -1.12372E-10 -9.30800E-11 -7.34990E-11 -5.36514E-11 -3.35557E-11
  -1.32380E-11  7.28595E-12  2.79925E-11  4.88570E-11  6.98642E-11  9.09863E-11  1.12207E-10  1.33505E-10  1.54856E-10  1.76238E-10
   1.97635E-10  2.19023E-10  2.40381E-10  2.61686E-10  2.82918E-10  3.04061E-10  3.25109E-10  3.46065E-10  3.66935E-10  3.87721E-10
   4.08427E-10  4.29056E-10  4.49612E-10  4.70098E-10  4.90516E-10  5.10874E-10  5.31169E-10  5.51408E-10  5.71595E-10  5.91732E-10
   6.11825E-10  6.31873E-10  6.51882E-10  6.71856E-10  6.91797E-10  7.11709E-10  7.31595E-10  7.51461E-10  7.71307E-10  7.91136E-10
   8.10954E-10  8.30762E-10  8.50568E-10
 NY background values follow
    -6.621E-10   -6.320E-10   -6.019E-10   -5.717E-10   -5.415E-10   -5.113E-10   -4.812E-10   -4.510E-10   -4.210E-10   -3.909E-10
    -3.610E-10   -3.311E-10   -3.014E-10   -2.718E-10   -2.423E-10   -2.130E-10   -1.838E-10   -1.548E-10   -1.260E-10   -9.744E-11
    -6.909E-11   -4.098E-11   -1.313E-11    1.445E-11    4.175E-11    6.874E-11    9.542E-11    1.218E-10    1.478E-10    1.734E-10
     1.988E-10    2.238E-10    2.486E-10    2.731E-10    2.975E-10    3.216E-10    3.457E-10    3.696E-10    3.934E-10    4.172E-10
     4.409E-10    4.647E-10    4.885E-10    5.124E-10    5.363E-10    5.604E-10    5.847E-10    6.091E-10    6.338E-10    6.587E-10
     6.839E-10    7.094E-10    7.352E-10    7.614E-10    7.880E-10    8.151E-10    8.426E-10    8.706E-10    8.990E-10    9.279E-10
     9.571E-10    9.868E-10    1.017E-09    1.047E-09    1.078E-09    1.109E-09    1.140E-09    1.172E-09    1.204E-09    1.236E-09
     1.268E-09    1.301E-09    1.334E-09    1.367E-09    1.400E-09    1.433E-09    1.466E-09    1.499E-09    1.533E-09    1.566E-09
     1.599E-09    1.633E-09    1.666E-09    1.700E-09    1.733E-09    1.766E-09    1.799E-09    1.832E-09    1.865E-09    1.897E-09
     1.929E-09    1.961E-09    1.993E-09    2.024E-09    2.055E-09    2.085E-09    2.114E-09    2.144E-09    2.172E-09    2.200E-09
     2.228E-09    2.254E-09    2.280E-09    2.306E-09    2.330E-09    2.354E-09    2.377E-09    2.398E-09    2.419E-09    2.439E-09
     2.458E-09    2.476E-09    2.493E-09    2.509E-09    2.523E-09    2.536E-09    2.548E-09    2.559E-09    2.568E-09    2.576E-09
     2.582E-09    2.587E-09    2.590E-09    2.591E-09    2.591E-09    2.589E-09    2.585E-09    2.579E-09    2.571E-09    2.561E-09
     2.549E-09    2.535E-09    2.519E-09    2.501E-09    2.480E-09    2.458E-09    2.432E-09    2.405E-09    2.374E-09    2.342E-09
     2.306E-09    2.269E-09    2.228E-09    2.185E-09    2.139E-09    2.090E-09    2.039E-09    1.985E-09    1.928E-09    1.868E-09
     1.805E-09    1.739E-09    1.671E-09    1.599E-09    1.525E-09    1.448E-09    1.367E-09    1.283E-09    1.197E-09    1.107E-09
     1.014E-09    9.181E-10    8.189E-10    7.164E-10    6.107E-10    5.017E-10    3.894E-10    2.737E-10    1.548E-10    3.282E-11
    -9.181E-11   -2.187E-10   -3.476E-10   -4.781E-10   -6.098E-10   -7.423E-10   -8.754E-10   -1.009E-09   -1.142E-09   -1.274E-09
    -1.405E-09   -1.536E-09   -1.664E-09   -1.790E-09   -1.915E-09   -2.036E-09   -2.154E-09   -2.269E-09   -2.380E-09   -2.487E-09
    -2.589E-09   -2.686E-09   -2.778E-09   -2.865E-09   -2.945E-09   -3.019E-09   -3.087E-09   -3.148E-09   -3.203E-09   -3.251E-09
    -3.294E-09   -3.331E-09   -3.363E-09   -3.389E-09   -3.411E-09   -3.427E-09   -3.438E-09   -3.445E-09   -3.448E-09   -3.447E-09
    -3.441E-09   -3.432E-09   -3.419E-09   -3.403E-09   -3.383E-09   -3.361E-09   -3.335E-09   -3.308E-09   -3.277E-09   -3.245E-09
    -3.210E-09   -3.173E-09   -3.135E-09   -3.096E-09   -3.055E-09   -3.012E-09   -2.969E-09   -2.925E-09   -2.880E-09   -2.834E-09
    -2.787E-09   -2.740E-09   -2.692E-09   -2.644E-09   -2.596E-09   -2.547E-09   -2.499E-09   -2.450E-09   -2.402E-09   -2.354E-09
    -2.306E-09   -2.259E-09   -2.212E-09   -2.166E-09   -2.121E-09   -2.076E-09   -2.033E-09   -1.991E-09   -1.950E-09   -1.910E-09
    -1.872E-09   -1.835E-09   -1.800E-09   -1.766E-09   -1.733E-09   -1.702E-09   -1.673E-09   -1.645E-09   -1.618E-09   -1.592E-09
    -1.567E-09   -1.543E-09   -1.521E-09   -1.500E-09   -1.479E-09   -1.459E-09   -1.441E-09   -1.423E-09   -1.406E-09   -1.389E-09
    -1.373E-09   -1.358E-09   -1.344E-09   -1.330E-09   -1.316E-09   -1.303E-09   -1.290E-09   -1.278E-09   -1.266E-09   -1.254E-09
    -1.242E-09   -1.230E-09   -1.219E-09   -1.208E-09   -1.196E-09   -1.185E-09   -1.174E-09   -1.163E-09   -1.152E-09   -1.141E-09
    -1.129E-09   -1.118E-09   -1.107E-09   -1.095E-09   -1.083E-09   -1.072E-09   -1.059E-09   -1.047E-09   -1.034E-09   -1.022E-09
    -1.008E-09   -9.948E-10   -9.809E-10   -9.666E-10   -9.518E-10   -9.367E-10   -9.210E-10   -9.049E-10   -8.883E-10   -8.712E-10
    -8.537E-10   -8.358E-10   -8.175E-10   -7.988E-10   -7.797E-10   -7.603E-10   -7.406E-10   -7.206E-10   -7.004E-10   -6.799E-10
    -6.591E-10   -6.382E-10   -6.171E-10   -5.958E-10   -5.743E-10   -5.528E-10   -5.311E-10   -5.094E-10   -4.876E-10   -4.658E-10
    -4.440E-10   -4.222E-10   -4.004E-10   -3.786E-10   -3.569E-10   -3.353E-10   -3.138E-10   -2.924E-10   -2.711E-10   -2.499E-10
    -2.287E-10   -2.076E-10   -1.866E-10   -1.656E-10   -1.447E-10   -1.239E-10   -1.031E-10   -8.241E-11   -6.174E-11   -4.112E-11
    -2.054E-11    9.714E-17    2.050E-11    4.097E-11    6.141E-11    8.183E-11    1.022E-10    1.226E-10    1.429E-10    1.633E-10
     1.836E-10    2.040E-10    2.243E-10
 Ala      Conc. = 1.38E-10
  -5.53105E-10 -5.13227E-10 -4.77607E-10 -4.44837E-10 -4.14926E-10 -3.88768E-10 -3.67804E-10 -3.51912E-10 -3.33781E-10 -3.14525E-10
  -3.00829E-10 -2.83806E-10 -2.61336E-10 -2.39532E-10 -2.16261E-10 -1.90622E-10 -1.63878E-10 -1.36592E-10 -1.09046E-10 -8.14050E-11
  -5.37776E-11 -2.62354E-11  1.16171E-12  2.83779E-11  5.53788E-11  8.21270E-11  1.08604E-10  1.34788E-10  1.60653E-10  1.86192E-10
   2.11427E-10  2.36386E-10  2.61095E-10  2.85583E-10  3.09878E-10  3.34010E-10  3.58005E-10  3.81895E-10  4.05709E-10  4.29476E-10
   4.53225E-10  4.76988E-10  5.00792E-10  5.24669E-10  5.48646E-10  5.72758E-10  5.97031E-10  6.21494E-10  6.46183E-10  6.71123E-10
   6.96345E-10  7.21882E-10  7.47761E-10  7.74014E-10  8.00667E-10  8.27760E-10  8.55317E-10  8.83350E-10  9.11844E-10  9.40777E-10
   9.70132E-10  9.99887E-10  1.03002E-09  1.06052E-09  1.09137E-09  1.12253E-09  1.15400E-09  1.18575E-09  1.21777E-09  1.25003E-09
   1.28253E-09  1.31523E-09  1.34811E-09  1.38118E-09  1.41439E-09  1.44774E-09  1.48120E-09  1.51477E-09  1.54842E-09  1.58214E-09
   1.61591E-09  1.64972E-09  1.68356E-09  1.71741E-09  1.75127E-09  1.78512E-09  1.81894E-09  1.85272E-09  1.88646E-09  1.92015E-09
   1.95381E-09  1.98748E-09  2.02123E-09  2.05518E-09  2.08952E-09  2.12460E-09  2.16107E-09  2.20017E-09  2.24481E-09  2.30380E-09
   2.39348E-09  2.49946E-09  2.61968E-09  2.76052E-09  2.89142E-09  2.98823E-09  3.04956E-09  3.07781E-09  3.06388E-09  3.00051E-09
   2.90204E-09  2.80734E-09  2.74853E-09  2.68006E-09  2.61882E-09  2.60171E-09  2.59804E-09  2.59914E-09  2.60200E-09  2.60525E-09
   2.60816E-09  2.61030E-09  2.61137E-09  2.61117E-09  2.60954E-09  2.60636E-09  2.60152E-09  2.59493E-09  2.58651E-09  2.57619E-09
   2.56389E-09  2.54955E-09  2.53310E-09  2.51448E-09  2.49364E-09  2.47050E-09  2.44503E-09  2.41715E-09  2.38681E-09  2.35396E-09
   2.31852E-09  2.28049E-09  2.23983E-09  2.19650E-09  2.15047E-09  2.10173E-09  2.05024E-09  1.99597E-09  1.93890E-09  1.87899E-09
   1.81624E-09  1.75059E-09  1.68204E-09  1.61055E-09  1.53611E-09  1.45868E-09  1.37825E-09  1.29480E-09  1.20833E-09  1.11881E-09
   1.02626E-09  9.30717E-10  8.32265E-10  7.31061E-10  6.27557E-10  5.23022E-10  4.22967E-10  3.42721E-10  2.77953E-10  2.25377E-10
   1.77470E-10  1.14448E-10  1.35150E-11 -1.32138E-10 -3.10117E-10 -5.03108E-10 -7.01754E-10 -9.01700E-10 -1.08859E-09 -1.23776E-09
  -1.37643E-09 -1.51064E-09 -1.64173E-09 -1.77002E-09 -1.89543E-09 -2.01779E-09 -2.13683E-09 -2.25226E-09 -2.36375E-09 -2.47096E-09
  -2.57357E-09 -2.67123E-09 -2.76358E-09 -2.85027E-09 -2.93095E-09 -3.00527E-09 -3.07299E-09 -3.13423E-09 -3.18918E-09 -3.23803E-09
  -3.28099E-09 -3.31824E-09 -3.34998E-09 -3.37640E-09 -3.39770E-09 -3.41405E-09 -3.42567E-09 -3.43273E-09 -3.43544E-09 -3.43398E-09
  -3.42855E-09 -3.41934E-09 -3.40653E-09 -3.39033E-09 -3.37092E-09 -3.34850E-09 -3.32326E-09 -3.29538E-09 -3.26507E-09 -3.23250E-09
  -3.19788E-09 -3.16140E-09 -3.12324E-09 -3.08359E-09 -3.04263E-09 -3.00047E-09 -2.95720E-09 -2.91293E-09 -2.86777E-09 -2.82183E-09
  -2.77520E-09 -2.72800E-09 -2.68032E-09 -2.63227E-09 -2.58396E-09 -2.53549E-09 -2.48696E-09 -2.43849E-09 -2.39015E-09 -2.34209E-09
  -2.29439E-09 -2.24715E-09 -2.20049E-09 -2.15450E-09 -2.10929E-09 -2.06497E-09 -2.02163E-09 -1.97938E-09 -1.93833E-09 -1.89858E-09
  -1.86022E-09 -1.82339E-09 -1.78810E-09 -1.75430E-09 -1.72197E-09 -1.69104E-09 -1.66146E-09 -1.63319E-09 -1.60618E-09 -1.58038E-09
  -1.55573E-09 -1.53220E-09 -1.50973E-09 -1.48826E-09 -1.46777E-09 -1.44818E-09 -1.42946E-09 -1.41156E-09 -1.39442E-09 -1.37801E-09
  -1.36225E-09 -1.34713E-09 -1.33257E-09 -1.31853E-09 -1.30497E-09 -1.29182E-09 -1.27906E-09 -1.26662E-09 -1.25447E-09 -1.24254E-09
  -1.23080E-09 -1.21923E-09 -1.20781E-09 -1.19650E-09 -1.18528E-09 -1.17413E-09 -1.16301E-09 -1.15192E-09 -1.14081E-09 -1.12966E-09
  -1.11846E-09 -1.10717E-09 -1.09576E-09 -1.08422E-09 -1.07251E-09 -1.06062E-09 -1.04852E-09 -1.03617E-09 -1.02357E-09 -1.01067E-09
  -9.97456E-10 -9.83905E-10 -9.69987E-10 -9.55685E-10 -9.40965E-10 -9.25805E-10 -9.10181E-10 -8.94066E-10 -8.77470E-10 -8.60412E-10
  -8.42914E-10 -8.24996E-10 -8.06683E-10 -7.87991E-10 -7.68946E-10 -7.49567E-10 -7.29875E-10 -7.09893E-10 -6.89642E-10 -6.69142E-10
  -6.48417E-10 -6.27485E-10 -6.06367E-10 -5.85090E-10 -5.63669E-10 -5.42129E-10 -5.20490E-10 -4.98771E-10 -4.76996E-10 -4.55189E-10
  -4.33363E-10 -4.11545E-10 -3.89755E-10 -3.68015E-10 -3.46347E-10 -3.24764E-10 -3.03274E-10 -2.81873E-10 -2.60556E-10 -2.39321E-10
  -2.18164E-10 -1.97081E-10 -1.76068E-10 -1.55123E-10 -1.34243E-10 -1.13421E-10 -9.26595E-11 -7.19502E-11 -5.12915E-11 -3.06791E-11
  -1.01088E-11  1.04199E-11  3.09130E-11  5.13726E-11  7.18031E-11  9.22067E-11  1.12588E-10  1.32951E-10  1.53297E-10  1.73630E-10
   1.93954E-10  2.14272E-10  2.34590E-10
 Asp      Conc. = 6.09E-10
   5.20139E-11 -1.84593E-11 -9.62491E-11 -1.76233E-10 -2.42239E-10 -3.02124E-10 -3.37697E-10 -3.56281E-10 -3.47475E-10 -3.28292E-10
  -3.04219E-10 -2.77504E-10 -2.49227E-10 -2.20017E-10 -1.90526E-10 -1.60916E-10 -1.31162E-10 -1.01310E-10 -7.14016E-11 -4.14668E-11
  -1.15273E-11  1.84083E-11  4.83340E-11  7.82653E-11  1.08222E-10  1.38229E-10  1.68342E-10  1.98630E-10  2.29188E-10  2.60164E-10
   2.91797E-10  3.24423E-10  3.58525E-10  3.94862E-10  4.34731E-10  4.80712E-10  5.38731E-10  6.06928E-10  6.88116E-10  7.71332E-10
   8.44629E-10  8.98353E-10  9.33205E-10  9.69236E-10  1.02769E-09  1.14763E-09  1.31259E-09  1.49492E-09  1.67623E-09  1.80194E-09
   1.85094E-09  1.82600E-09  1.75834E-09  1.65817E-09  1.53254E-09  1.41591E-09  1.32075E-09  1.28932E-09  1.25924E-09  1.23056E-09
   1.23695E-09  1.25304E-09  1.25993E-09  1.26925E-09  1.28001E-09  1.28042E-09  1.27297E-09  1.28133E-09  1.29803E-09  1.31935E-09
   1.34359E-09  1.36983E-09  1.39754E-09  1.42634E-09  1.45600E-09  1.48632E-09  1.51718E-09  1.54846E-09  1.58009E-09  1.61199E-09
   1.64409E-09  1.67636E-09  1.70875E-09  1.74121E-09  1.77370E-09  1.80619E-09  1.83862E-09  1.87096E-09  1.90315E-09  1.93515E-09
   1.96692E-09  1.99842E-09  2.02960E-09  2.06043E-09  2.09086E-09  2.12086E-09  2.15038E-09  2.17939E-09  2.20784E-09  2.23571E-09
   2.26295E-09  2.28952E-09  2.31538E-09  2.34050E-09  2.36484E-09  2.38836E-09  2.41103E-09  2.43280E-09  2.45364E-09  2.47352E-09
   2.49239E-09  2.51021E-09  2.52695E-09  2.54257E-09  2.55701E-09  2.57020E-09  2.58211E-09  2.59268E-09  2.60184E-09  2.60955E-09
   2.61576E-09  2.62040E-09  2.62343E-09  2.62479E-09  2.62442E-09  2.62228E-09  2.61831E-09  2.61245E-09  2.60466E-09  2.59487E-09
   2.58304E-09  2.56911E-09  2.55302E-09  2.53473E-09  2.51418E-09  2.49131E-09  2.46607E-09  2.43841E-09  2.40829E-09  2.37563E-09
   2.34039E-09  2.30254E-09  2.26205E-09  2.21890E-09  2.17306E-09  2.12450E-09  2.07321E-09  2.01914E-09  1.96229E-09  1.90263E-09
   1.84014E-09  1.77479E-09  1.70658E-09  1.63549E-09  1.56151E-09  1.48463E-09  1.40487E-09  1.32224E-09  1.23680E-09  1.14860E-09
   1.05779E-09  9.64592E-10  8.69443E-10  7.73129E-10  6.77429E-10  5.86963E-10  5.19079E-10  5.46093E-10  6.55399E-10  8.31320E-10
   1.04526E-09  1.21504E-09  1.23449E-09  1.05941E-09  7.34743E-10  3.37802E-10 -8.52634E-11 -5.17331E-10 -9.08133E-10 -1.13153E-09
  -1.29797E-09 -1.44659E-09 -1.58647E-09 -1.72065E-09 -1.85026E-09 -1.97574E-09 -2.09718E-09 -2.21451E-09 -2.32752E-09 -2.43598E-09
  -2.53963E-09 -2.63817E-09 -2.73127E-09 -2.81860E-09 -2.89984E-09 -2.97465E-09 -3.04280E-09 -3.10441E-09 -3.15970E-09 -3.20886E-09
  -3.25209E-09 -3.28959E-09 -3.32155E-09 -3.34817E-09 -3.36965E-09 -3.38618E-09 -3.39795E-09 -3.40516E-09 -3.40800E-09 -3.40666E-09
  -3.40135E-09 -3.39224E-09 -3.37953E-09 -3.36343E-09 -3.34410E-09 -3.32176E-09 -3.29660E-09 -3.26879E-09 -3.23854E-09 -3.20605E-09
  -3.17149E-09 -3.13506E-09 -3.09695E-09 -3.05736E-09 -3.01645E-09 -2.97433E-09 -2.93111E-09 -2.88688E-09 -2.84176E-09 -2.79586E-09
