 LCModel (Version 6.3-1R) Copyright: S.W. Provencher.          Ref.: Magn. Reson. Med. 30:672-679 (1993).                
 onepulse 19x11_ftSpec_smooth_lcm
 26 lines in following concentration table = NCONC+1
    Conc.  %SD   /Cr    Metabolite                                         
 6.77E-11 332%   0.000 Ala                                                 
    0.000 999%   0.000 Asp                                                 
    0.000 999%   0.000 Cr                                                  
 1.71E-10 258%   0.000 GABA                                                
    0.000 999%   0.000 Glc                                                 
 2.31E-09  22%   0.000 Gln                                                 
    0.000 999%   0.000 Glu                                                 
    0.000 999%   0.000 Glyc                                                
    0.000 999%   0.000 GPC                                                 
 1.24E-09  32%   0.000 GSH                                                 
 1.76E-09  18%   0.000 Ins                                                 
    0.000 999%   0.000 Lac                                                 
 4.98E-10  35%   0.000 NAAG                                                
    0.000 999%   0.000 NAA                                                 
    0.000 999%   0.000 PCh                                                 
    0.000 999%   0.000 PCr                                                 
 2.44E-09  30%   0.000 PE                                                  
 1.97E-10 101%   0.000 Scyllo                                              
    0.000 999%   0.000 Ser                                                 
 5.85E-10 127%   0.000 Tau                                                 
    0.000 999%   0.000 GPC+PCh                                             
 4.98E-10  35%   0.000 NAA+NAAG                                            
 1.76E-09  18%   0.000 Ins+Glyc                                            
    0.000 999%   0.000 Cr+PCr                                              
 2.31E-09  22%   0.000 Glu+Gln                                             
   6 lines in following misc. output table
  FWHM = 0.123 ppm    S/N =   4                                            
  Data shift = 0.447 ppm                                                   
  Ph:  29 deg     -24.3 deg/ppm                                            
  alphaB,S = 6.2E-01,   1.3E+01                                            
   10 spline knots.   Ns = 5(1)                                            
  (12) 6 infls.   ( 9) 5 extrs.                                            
  363 points on ppm-axis = NY
      4.250000     4.238821     4.227641     4.216462     4.205282     4.194103     4.182923     4.171744     4.160564     4.149385
      4.138206     4.127026     4.115847     4.104667     4.093488     4.082308     4.071129     4.059949     4.048770     4.037591
      4.026411     4.015232     4.004052     3.992873     3.981693     3.970514     3.959334     3.948155     3.936975     3.925796
      3.914617     3.903437     3.892258     3.881078     3.869899     3.858719     3.847540     3.836360     3.825181     3.814002
      3.802822     3.791643     3.780463     3.769284     3.758104     3.746925     3.735745     3.724566     3.713387     3.702207
      3.691028     3.679848     3.668669     3.657489     3.646310     3.635130     3.623951     3.612772     3.601592     3.590413
      3.579233     3.568054     3.556874     3.545695     3.534515     3.523336     3.512156     3.500977     3.489798     3.478618
      3.467439     3.456259     3.445080     3.433900     3.422721     3.411541     3.400362     3.389183     3.378003     3.366824
      3.355644     3.344465     3.333285     3.322106     3.310926     3.299747     3.288568     3.277388     3.266209     3.255029
      3.243850     3.232670     3.221491     3.210311     3.199132     3.187953     3.176773     3.165594     3.154414     3.143235
      3.132055     3.120876     3.109696     3.098517     3.087337     3.076158     3.064979     3.053799     3.042620     3.031440
      3.020261     3.009081     2.997902     2.986722     2.975543     2.964364     2.953184     2.942005     2.930825     2.919646
      2.908466     2.897287     2.886107     2.874928     2.863749     2.852569     2.841390     2.830210     2.819031     2.807851
      2.796672     2.785492     2.774313     2.763134     2.751954     2.740775     2.729595     2.718416     2.707236     2.696057
      2.684877     2.673698     2.662519     2.651339     2.640160     2.628980     2.617801     2.606621     2.595442     2.584262
      2.573083     2.561903     2.550724     2.539545     2.528365     2.517186     2.506006     2.494827     2.483647     2.472468
      2.461288     2.450109     2.438930     2.427750     2.416571     2.405391     2.394212     2.383032     2.371853     2.360673
      2.349494     2.338315     2.327135     2.315956     2.304776     2.293597     2.282417     2.271238     2.260058     2.248879
      2.237700     2.226520     2.215341     2.204161     2.192982     2.181802     2.170623     2.159443     2.148264     2.137084
      2.125905     2.114726     2.103546     2.092367     2.081187     2.070008     2.058828     2.047649     2.036469     2.025290
      2.014111     2.002931     1.991752     1.980572     1.969393     1.958213     1.947034     1.935854     1.924675     1.913496
      1.902316     1.891137     1.879957     1.868778     1.857598     1.846419     1.835239     1.824060     1.812881     1.801701
      1.790522     1.779342     1.768163     1.756983     1.745804     1.734624     1.723445     1.712265     1.701086     1.689907
      1.678727     1.667548     1.656368     1.645189     1.634009     1.622830     1.611650     1.600471     1.589292     1.578112
      1.566933     1.555753     1.544574     1.533394     1.522215     1.511035     1.499856     1.488677     1.477497     1.466318
      1.455138     1.443959     1.432779     1.421600     1.410420     1.399241     1.388062     1.376882     1.365703     1.354523
      1.343344     1.332164     1.320985     1.309805     1.298626     1.287446     1.276267     1.265088     1.253908     1.242729
      1.231549     1.220370     1.209190     1.198011     1.186831     1.175652     1.164473     1.153293     1.142114     1.130934
      1.119755     1.108575     1.097396     1.086216     1.075037     1.063858     1.052678     1.041499     1.030319     1.019140
      1.007960     0.996781     0.985601     0.974422     0.963243     0.952063     0.940884     0.929704     0.918525     0.907345
      0.896166     0.884986     0.873807     0.862628     0.851448     0.840269     0.829089     0.817910     0.806730     0.795551
      0.784371     0.773192     0.762012     0.750833     0.739654     0.728474     0.717295     0.706115     0.694936     0.683756
      0.672577     0.661397     0.650218     0.639039     0.627859     0.616680     0.605500     0.594321     0.583141     0.571962
      0.560782     0.549603     0.538424     0.527244     0.516065     0.504885     0.493706     0.482526     0.471347     0.460167
      0.448988     0.437809     0.426629     0.415450     0.404270     0.393091     0.381911     0.370732     0.359552     0.348373
      0.337193     0.326014     0.314835     0.303655     0.292476     0.281296     0.270117     0.258937     0.247758     0.236578
      0.225399     0.214220     0.203040
 NY phased data points follow
   1.08800E-08  1.11718E-08  1.11263E-08  1.20398E-08  1.17636E-08  1.19252E-08  1.23160E-08  1.30198E-08  1.24063E-08  1.17006E-08
   1.20329E-08  1.12524E-08  1.08415E-08  1.15672E-08  1.13720E-08  1.12733E-08  1.10254E-08  1.16010E-08  1.18088E-08  1.14783E-08
   1.06849E-08  1.06493E-08  1.19350E-08  1.35608E-08  1.42590E-08  1.45448E-08  1.43553E-08  1.31966E-08  1.22282E-08  1.10538E-08
   1.05718E-08  1.05546E-08  9.93180E-09  9.96664E-09  9.81401E-09  9.61451E-09  8.66395E-09  8.18783E-09  7.57505E-09  7.30925E-09
   7.62041E-09  7.38304E-09  7.03548E-09  7.10489E-09  7.01925E-09  6.57035E-09  6.28714E-09  5.07639E-09  4.73245E-09  4.83883E-09
   4.69495E-09  5.42684E-09  5.62247E-09  7.47476E-09  9.69054E-09  1.18857E-08  1.39273E-08  1.39884E-08  1.25394E-08  1.14956E-08
   9.96600E-09  9.26958E-09  8.79369E-09  7.99294E-09  7.11994E-09  5.94260E-09  5.31962E-09  5.48100E-09  4.69874E-09  5.54866E-09
   6.65931E-09  1.03432E-08  1.36780E-08  1.50596E-08  1.45619E-08  1.49143E-08  1.35461E-08  1.36533E-08  1.32340E-08  1.28055E-08
   1.23249E-08  1.23175E-08  1.17031E-08  1.14430E-08  1.11179E-08  1.10332E-08  9.75452E-09  9.85194E-09  9.22058E-09  8.92501E-09
   8.98526E-09  8.54578E-09  7.73928E-09  8.38170E-09  8.48374E-09  8.72596E-09  7.45455E-09  7.85925E-09  7.71137E-09  7.05918E-09
   7.39807E-09  6.44572E-09  6.02913E-09  4.85817E-09  4.88193E-09  5.57019E-09  5.90090E-09  5.13477E-09  5.33637E-09  6.34658E-09
   5.92097E-09  6.14372E-09  6.11388E-09  6.88587E-09  6.51417E-09  5.46553E-09  5.41825E-09  5.04629E-09  4.21700E-09  3.77446E-09
   4.73903E-09  4.33159E-09  4.18579E-09  4.79080E-09  3.89386E-09  4.85137E-09  4.31310E-09  4.25475E-09  3.66104E-09  3.97573E-09
   3.39368E-09  4.30395E-09  5.05989E-09  5.63723E-09  6.26177E-09  5.90365E-09  5.47489E-09  5.98642E-09  6.32771E-09  6.68371E-09
   7.27363E-09  7.09805E-09  6.52324E-09  6.58798E-09  6.44686E-09  5.97118E-09  5.43384E-09  5.72689E-09  5.86939E-09  5.80754E-09
   5.16821E-09  5.30793E-09  4.70110E-09  4.70649E-09  5.10546E-09  5.05518E-09  4.00434E-09  4.12844E-09  2.97678E-09  3.05966E-09
   3.07943E-09  2.76259E-09  5.89199E-09  1.05533E-08  1.44750E-08  1.62577E-08  1.67214E-08  1.70817E-08  1.73127E-08  1.67753E-08
   1.60153E-08  1.56796E-08  1.57080E-08  1.56012E-08  1.51653E-08  1.50386E-08  1.39406E-08  1.36670E-08  1.30910E-08  1.25111E-08
   1.14401E-08  1.02648E-08  9.32856E-09  8.21842E-09  7.09731E-09  5.55832E-09  4.00750E-09  2.34498E-09  9.77822E-10 -4.18608E-10
  -2.35950E-09 -3.11058E-09 -4.42924E-09 -4.90266E-09 -5.90978E-09 -6.14310E-09 -6.48671E-09 -6.37277E-09 -6.25884E-09 -5.97375E-09
  -5.72956E-09 -4.53899E-09 -3.58872E-09 -2.82069E-09 -2.44554E-09 -1.69467E-09 -1.75622E-09 -1.42765E-09 -1.23351E-09 -1.37526E-09
  -1.03800E-09 -1.39599E-09 -1.92223E-09 -1.90936E-09 -1.29383E-09 -1.22747E-09 -3.90173E-10 -1.78806E-10 -7.58851E-10 -9.28712E-10
  -9.72405E-10 -7.17465E-10 -8.73250E-10 -1.38058E-09 -5.18652E-10 -7.97670E-10 -1.41064E-09 -7.59896E-10 -4.65564E-10 -5.55059E-10
  -4.27873E-10 -6.77732E-10 -9.13608E-10 -6.01044E-10 -6.74213E-10 -8.08975E-10 -1.43456E-09 -1.02221E-09 -1.49693E-09 -1.02041E-09
  -1.21837E-09 -1.20159E-09 -1.03055E-09 -8.58113E-10 -5.93363E-10 -4.74495E-10 -3.69195E-10 -3.51516E-11 -4.26603E-11  4.59212E-10
  -8.21195E-11  4.37596E-10 -4.56035E-10 -9.15836E-10 -6.57124E-10 -1.32424E-09 -1.38895E-09 -2.00804E-09 -1.79583E-09 -2.66926E-09
  -1.96705E-09 -2.38897E-09 -1.93387E-09 -2.12127E-09 -1.32885E-09 -1.76173E-09 -6.01570E-10 -1.20994E-09 -3.43390E-10 -1.20908E-10
  -2.55486E-10 -4.32975E-10 -1.14183E-12  1.67025E-10  1.33176E-10 -2.22898E-10 -1.87625E-10  5.37203E-12 -3.93659E-11 -2.54659E-11
  -3.31842E-10 -1.99943E-10  4.53675E-12 -7.21708E-10 -6.50295E-10 -4.98252E-10 -1.70445E-10 -7.93644E-10 -2.59420E-10 -5.92366E-10
  -5.25899E-10 -8.82274E-10 -1.19388E-09 -9.28659E-10 -1.51897E-09 -1.13942E-09 -1.21953E-09 -1.38595E-09 -1.29063E-09 -1.23057E-09
  -1.46256E-09 -1.71220E-09 -1.31928E-09 -1.33545E-09 -2.00799E-09 -1.48757E-09 -1.84343E-09 -2.38054E-09 -1.69574E-09 -2.11150E-09
  -2.10792E-09 -2.19210E-09 -1.88010E-09 -2.44294E-09 -1.89477E-09 -2.14928E-09 -2.69922E-09 -2.04972E-09 -2.44148E-09 -2.38801E-09
  -2.26940E-09 -2.66093E-09 -2.06095E-09 -2.79643E-09 -2.43238E-09 -2.43716E-09 -2.67859E-09 -2.77509E-09 -2.32774E-09 -2.51605E-09
  -3.05900E-09 -2.66922E-09 -2.41025E-09 -3.14804E-09 -2.74301E-09 -3.00855E-09 -2.69385E-09 -3.13401E-09 -2.76587E-09 -3.22927E-09
  -2.99299E-09 -3.25601E-09 -2.80833E-09 -3.61840E-09 -2.75391E-09 -3.30804E-09 -2.92733E-09 -3.35689E-09 -2.94485E-09 -3.74756E-09
  -3.08554E-09 -3.13938E-09 -2.79683E-09 -3.16295E-09 -3.06775E-09 -3.79790E-09 -3.02539E-09 -3.42371E-09 -3.19552E-09 -3.38195E-09
  -3.21113E-09 -3.02084E-09 -3.62739E-09
 NY points of the fit to the data follow
   1.22842E-08  1.20071E-08  1.17881E-08  1.11102E-08  1.09960E-08  1.19938E-08  1.22269E-08  1.22299E-08  1.33411E-08  1.25686E-08
   1.24127E-08  1.17082E-08  1.06802E-08  1.08668E-08  1.15026E-08  1.12553E-08  1.04990E-08  1.12910E-08  1.23650E-08  1.15412E-08
   1.06967E-08  1.13622E-08  1.26868E-08  1.34667E-08  1.31380E-08  1.37050E-08  1.39486E-08  1.34758E-08  1.25956E-08  1.18600E-08
   1.16555E-08  1.11387E-08  1.02939E-08  9.79180E-09  9.40553E-09  8.94470E-09  8.41841E-09  8.11142E-09  7.75052E-09  7.48782E-09
   7.33094E-09  7.32503E-09  7.41669E-09  7.19643E-09  6.61837E-09  6.27792E-09  6.18525E-09  5.69513E-09  5.70879E-09  6.00279E-09
   6.59200E-09  6.95660E-09  7.32448E-09  8.69537E-09  9.71582E-09  9.49975E-09  1.04439E-08  1.14049E-08  1.13433E-08  1.09582E-08
   1.08773E-08  1.06194E-08  1.05556E-08  1.01505E-08  9.04981E-09  8.72591E-09  9.02928E-09  8.18335E-09  7.66230E-09  8.31648E-09
   9.20458E-09  9.66781E-09  1.02497E-08  1.10713E-08  1.19112E-08  1.29896E-08  1.44013E-08  1.45267E-08  1.42055E-08  1.39053E-08
   1.33854E-08  1.27600E-08  1.21305E-08  1.15101E-08  1.08557E-08  1.02900E-08  9.27564E-09  7.81903E-09  7.26915E-09  6.97095E-09
   6.71178E-09  6.55037E-09  6.46289E-09  6.36667E-09  6.23743E-09  6.17781E-09  6.12029E-09  6.05058E-09  6.02728E-09  6.01131E-09
   6.05798E-09  6.02335E-09  5.98678E-09  6.04567E-09  6.05458E-09  6.02844E-09  5.99732E-09  5.97661E-09  5.97298E-09  5.96276E-09
   5.91013E-09  5.83120E-09  5.83763E-09  5.81807E-09  5.73800E-09  5.70330E-09  5.68137E-09  5.66348E-09  5.64699E-09  5.63083E-09
   5.61444E-09  5.59754E-09  5.57993E-09  5.56146E-09  5.54205E-09  5.52163E-09  5.50013E-09  5.47751E-09  5.45372E-09  5.42875E-09
   5.40256E-09  5.37513E-09  5.34645E-09  5.31648E-09  5.28524E-09  5.25271E-09  5.21888E-09  5.18375E-09  5.14733E-09  5.10963E-09
   5.07064E-09  5.03040E-09  4.98892E-09  4.94625E-09  4.90240E-09  4.85745E-09  4.81147E-09  4.76453E-09  4.71675E-09  4.66828E-09
   4.61930E-09  4.57008E-09  4.52093E-09  4.47228E-09  4.42475E-09  4.37916E-09  4.33674E-09  4.29928E-09  4.26957E-09  4.25196E-09
   4.25377E-09  4.28813E-09  4.38127E-09  4.59301E-09  5.09168E-09  6.54079E-09  1.24332E-08  1.87411E-08  1.95961E-08  1.78232E-08
   1.65135E-08  1.61418E-08  1.59566E-08  1.53845E-08  1.50159E-08  1.54867E-08  1.52626E-08  1.09571E-08  5.88802E-09  3.82253E-09
   3.11039E-09  2.73516E-09  2.48551E-09  2.29563E-09  2.13872E-09  2.00194E-09  1.87836E-09  1.76396E-09  1.65632E-09  1.55384E-09
   1.45547E-09  1.36051E-09  1.26844E-09  1.17896E-09  1.09180E-09  1.00679E-09  9.23835E-10  8.42867E-10  7.63814E-10  6.86688E-10
   6.11473E-10  5.38178E-10  4.66832E-10  3.97456E-10  3.30095E-10  2.64782E-10  2.01590E-10  1.40525E-10  8.16602E-11  2.49235E-11
  -2.97333E-11 -8.23689E-11 -1.33031E-10 -1.81777E-10 -2.28652E-10 -2.73714E-10 -3.17002E-10 -3.58564E-10 -3.98458E-10 -4.36726E-10
  -4.73404E-10 -5.08551E-10 -5.42210E-10 -5.74422E-10 -6.05235E-10 -6.34694E-10 -6.62833E-10 -6.89716E-10 -7.15382E-10 -7.39859E-10
  -7.63200E-10 -7.85455E-10 -8.06656E-10 -8.26859E-10 -8.46097E-10 -8.64423E-10 -8.81876E-10 -8.98493E-10 -9.14324E-10 -9.29409E-10
  -9.43790E-10 -9.57510E-10 -9.70615E-10 -9.83147E-10 -9.95145E-10 -1.00665E-09 -1.01772E-09 -1.02839E-09 -1.03869E-09 -1.04867E-09
  -1.05837E-09 -1.06785E-09 -1.07714E-09 -1.08627E-09 -1.09531E-09 -1.10427E-09 -1.11322E-09 -1.12218E-09 -1.13121E-09 -1.14036E-09
  -1.14963E-09 -1.15904E-09 -1.16860E-09 -1.17830E-09 -1.18817E-09 -1.19819E-09 -1.20839E-09 -1.21877E-09 -1.22932E-09 -1.24007E-09
  -1.25101E-09 -1.26214E-09 -1.27349E-09 -1.28504E-09 -1.29682E-09 -1.30882E-09 -1.32104E-09 -1.33351E-09 -1.34621E-09 -1.35917E-09
  -1.37237E-09 -1.38584E-09 -1.39957E-09 -1.41358E-09 -1.42786E-09 -1.44243E-09 -1.45728E-09 -1.47243E-09 -1.48789E-09 -1.50365E-09
  -1.51973E-09 -1.53612E-09 -1.55284E-09 -1.56989E-09 -1.58728E-09 -1.60502E-09 -1.62310E-09 -1.64153E-09 -1.66033E-09 -1.67950E-09
  -1.69904E-09 -1.71895E-09 -1.73925E-09 -1.75995E-09 -1.78103E-09 -1.80253E-09 -1.82443E-09 -1.84674E-09 -1.86948E-09 -1.89264E-09
  -1.91624E-09 -1.94028E-09 -1.96474E-09 -1.98962E-09 -2.01491E-09 -2.04060E-09 -2.06667E-09 -2.09310E-09 -2.11990E-09 -2.14704E-09
  -2.17452E-09 -2.20231E-09 -2.23042E-09 -2.25882E-09 -2.28751E-09 -2.31647E-09 -2.34570E-09 -2.37517E-09 -2.40487E-09 -2.43480E-09
  -2.46494E-09 -2.49529E-09 -2.52581E-09 -2.55652E-09 -2.58739E-09 -2.61840E-09 -2.64956E-09 -2.68084E-09 -2.71224E-09 -2.74374E-09
  -2.77533E-09 -2.80700E-09 -2.83873E-09 -2.87051E-09 -2.90234E-09 -2.93419E-09 -2.96607E-09 -2.99794E-09 -3.02981E-09 -3.06166E-09
  -3.09348E-09 -3.12525E-09 -3.15696E-09 -3.18861E-09 -3.22017E-09 -3.25165E-09 -3.28302E-09 -3.31426E-09 -3.34538E-09 -3.37636E-09
  -3.40718E-09 -3.43784E-09 -3.46832E-09
 NY background values follow
    -4.860E-10   -4.252E-10   -3.644E-10   -3.035E-10   -2.426E-10   -1.817E-10   -1.208E-10   -5.989E-11    1.036E-12    6.196E-11
     1.229E-10    1.837E-10    2.446E-10    3.054E-10    3.662E-10    4.269E-10    4.876E-10    5.482E-10    6.088E-10    6.693E-10
     7.297E-10    7.900E-10    8.502E-10    9.104E-10    9.704E-10    1.030E-09    1.090E-09    1.150E-09    1.209E-09    1.269E-09
     1.328E-09    1.387E-09    1.446E-09    1.505E-09    1.563E-09    1.622E-09    1.680E-09    1.738E-09    1.796E-09    1.854E-09
     1.911E-09    1.968E-09    2.025E-09    2.082E-09    2.139E-09    2.195E-09    2.251E-09    2.307E-09    2.362E-09    2.418E-09
     2.473E-09    2.527E-09    2.582E-09    2.636E-09    2.690E-09    2.743E-09    2.796E-09    2.849E-09    2.901E-09    2.953E-09
     3.005E-09    3.056E-09    3.106E-09    3.156E-09    3.206E-09    3.255E-09    3.303E-09    3.351E-09    3.398E-09    3.445E-09
     3.491E-09    3.537E-09    3.581E-09    3.625E-09    3.669E-09    3.711E-09    3.753E-09    3.794E-09    3.835E-09    3.874E-09
     3.913E-09    3.951E-09    3.988E-09    4.024E-09    4.059E-09    4.094E-09    4.127E-09    4.160E-09    4.191E-09    4.221E-09
     4.251E-09    4.279E-09    4.307E-09    4.333E-09    4.358E-09    4.382E-09    4.405E-09    4.427E-09    4.448E-09    4.467E-09
     4.485E-09    4.502E-09    4.518E-09    4.532E-09    4.546E-09    4.557E-09    4.568E-09    4.577E-09    4.585E-09    4.592E-09
     4.597E-09    4.601E-09    4.604E-09    4.605E-09    4.605E-09    4.603E-09    4.600E-09    4.596E-09    4.590E-09    4.582E-09
     4.574E-09    4.564E-09    4.552E-09    4.539E-09    4.525E-09    4.509E-09    4.491E-09    4.472E-09    4.452E-09    4.430E-09
     4.406E-09    4.381E-09    4.355E-09    4.326E-09    4.297E-09    4.265E-09    4.233E-09    4.198E-09    4.162E-09    4.125E-09
     4.085E-09    4.045E-09    4.002E-09    3.958E-09    3.912E-09    3.865E-09    3.816E-09    3.765E-09    3.712E-09    3.658E-09
     3.602E-09    3.545E-09    3.486E-09    3.425E-09    3.362E-09    3.297E-09    3.231E-09    3.163E-09    3.094E-09    3.022E-09
     2.950E-09    2.876E-09    2.801E-09    2.724E-09    2.646E-09    2.568E-09    2.488E-09    2.407E-09    2.325E-09    2.243E-09
     2.159E-09    2.075E-09    1.991E-09    1.906E-09    1.820E-09    1.735E-09    1.648E-09    1.562E-09    1.476E-09    1.389E-09
     1.302E-09    1.216E-09    1.129E-09    1.043E-09    9.574E-10    8.719E-10    7.869E-10    7.023E-10    6.184E-10    5.351E-10
     4.525E-10    3.707E-10    2.898E-10    2.099E-10    1.310E-10    5.319E-11   -2.344E-11   -9.882E-11   -1.729E-10   -2.456E-10
    -3.168E-10   -3.864E-10   -4.545E-10   -5.208E-10   -5.854E-10   -6.482E-10   -7.090E-10   -7.679E-10   -8.247E-10   -8.795E-10
    -9.324E-10   -9.834E-10   -1.032E-09   -1.080E-09   -1.125E-09   -1.169E-09   -1.211E-09   -1.251E-09   -1.290E-09   -1.327E-09
    -1.363E-09   -1.397E-09   -1.430E-09   -1.461E-09   -1.491E-09   -1.520E-09   -1.547E-09   -1.573E-09   -1.598E-09   -1.622E-09
    -1.644E-09   -1.666E-09   -1.686E-09   -1.706E-09   -1.725E-09   -1.742E-09   -1.759E-09   -1.775E-09   -1.790E-09   -1.805E-09
    -1.819E-09   -1.832E-09   -1.844E-09   -1.856E-09   -1.868E-09   -1.879E-09   -1.890E-09   -1.900E-09   -1.910E-09   -1.919E-09
    -1.928E-09   -1.937E-09   -1.946E-09   -1.955E-09   -1.963E-09   -1.972E-09   -1.980E-09   -1.989E-09   -1.998E-09   -2.006E-09
    -2.015E-09   -2.024E-09   -2.033E-09   -2.043E-09   -2.052E-09   -2.062E-09   -2.072E-09   -2.082E-09   -2.092E-09   -2.102E-09
    -2.113E-09   -2.123E-09   -2.134E-09   -2.146E-09   -2.157E-09   -2.169E-09   -2.180E-09   -2.193E-09   -2.205E-09   -2.217E-09
    -2.230E-09   -2.243E-09   -2.257E-09   -2.270E-09   -2.284E-09   -2.299E-09   -2.313E-09   -2.328E-09   -2.343E-09   -2.358E-09
    -2.374E-09   -2.390E-09   -2.407E-09   -2.423E-09   -2.440E-09   -2.458E-09   -2.475E-09   -2.493E-09   -2.512E-09   -2.531E-09
    -2.550E-09   -2.570E-09   -2.589E-09   -2.610E-09   -2.631E-09   -2.652E-09   -2.673E-09   -2.695E-09   -2.718E-09   -2.740E-09
    -2.764E-09   -2.787E-09   -2.811E-09   -2.836E-09   -2.861E-09   -2.886E-09   -2.912E-09   -2.938E-09   -2.965E-09   -2.991E-09
    -3.018E-09   -3.046E-09   -3.074E-09   -3.102E-09   -3.130E-09   -3.159E-09   -3.187E-09   -3.217E-09   -3.246E-09   -3.275E-09
    -3.305E-09   -3.335E-09   -3.365E-09   -3.396E-09   -3.426E-09   -3.457E-09   -3.488E-09   -3.519E-09   -3.550E-09   -3.581E-09
    -3.612E-09   -3.643E-09   -3.674E-09   -3.706E-09   -3.737E-09   -3.769E-09   -3.800E-09   -3.832E-09   -3.863E-09   -3.895E-09
    -3.926E-09   -3.957E-09   -3.989E-09   -4.020E-09   -4.051E-09   -4.082E-09   -4.113E-09   -4.144E-09   -4.175E-09   -4.205E-09
    -4.236E-09   -4.266E-09   -4.296E-09
 Ala      Conc. = 6.77E-11
  -4.31423E-10 -3.70872E-10 -3.11186E-10 -2.49010E-10 -1.89859E-10 -1.29406E-10 -6.76606E-11 -1.65604E-11  3.61361E-11  1.02175E-10
   1.56541E-10  2.06326E-10  2.66824E-10  3.25157E-10  3.81431E-10  4.39580E-10  4.98599E-10  5.58071E-10  6.17774E-10  6.77611E-10
   7.37503E-10  7.97408E-10  8.57301E-10  9.17153E-10  9.76936E-10  1.03665E-09  1.09626E-09  1.15578E-09  1.21518E-09  1.27447E-09
   1.33363E-09  1.39263E-09  1.45150E-09  1.51021E-09  1.56876E-09  1.62713E-09  1.68533E-09  1.74334E-09  1.80116E-09  1.85877E-09
   1.91619E-09  1.97340E-09  2.03038E-09  2.08713E-09  2.14365E-09  2.19993E-09  2.25596E-09  2.31174E-09  2.36726E-09  2.42250E-09
   2.47749E-09  2.53219E-09  2.58660E-09  2.64072E-09  2.69451E-09  2.74797E-09  2.80108E-09  2.85381E-09  2.90615E-09  2.95808E-09
   3.00957E-09  3.06061E-09  3.11118E-09  3.16127E-09  3.21084E-09  3.25988E-09  3.30838E-09  3.35631E-09  3.40366E-09  3.45040E-09
   3.49652E-09  3.54200E-09  3.58681E-09  3.63095E-09  3.67439E-09  3.71712E-09  3.75911E-09  3.80034E-09  3.84081E-09  3.88050E-09
   3.91938E-09  3.95744E-09  3.99467E-09  4.03105E-09  4.06656E-09  4.10121E-09  4.13497E-09  4.16785E-09  4.19985E-09  4.23097E-09
   4.26123E-09  4.29067E-09  4.31936E-09  4.34740E-09  4.37501E-09  4.40255E-09  4.43079E-09  4.46150E-09  4.49965E-09  4.56461E-09
   4.67687E-09  4.67963E-09  4.68190E-09  4.78090E-09  4.82243E-09  4.82322E-09  4.81515E-09  4.81417E-09  4.82833E-09  4.83398E-09
   4.79556E-09  4.72945E-09  4.74748E-09  4.73847E-09  4.66803E-09  4.64212E-09  4.62823E-09  4.61773E-09  4.60805E-09  4.59815E-09
   4.58755E-09  4.57598E-09  4.56329E-09  4.54937E-09  4.53414E-09  4.51757E-09  4.49960E-09  4.48022E-09  4.45939E-09  4.43710E-09
   4.41332E-09  4.38805E-09  4.36127E-09  4.33295E-09  4.30311E-09  4.27170E-09  4.23875E-09  4.20421E-09  4.16810E-09  4.13040E-09
   4.09108E-09  4.05016E-09  4.00761E-09  3.96345E-09  3.91763E-09  3.87016E-09  3.82104E-09  3.77024E-09  3.71777E-09  3.66362E-09
   3.60777E-09  3.55023E-09  3.49098E-09  3.43001E-09  3.36732E-09  3.30291E-09  3.23679E-09  3.16901E-09  3.09967E-09  3.02886E-09
   2.95670E-09  2.88334E-09  2.80900E-09  2.73405E-09  2.65941E-09  2.58795E-09  2.53460E-09  2.52830E-09  2.45851E-09  2.35914E-09
   2.26435E-09  2.17745E-09  2.09416E-09  2.00606E-09  1.91599E-09  1.83322E-09  1.75374E-09  1.64909E-09  1.50653E-09  1.40573E-09
   1.31436E-09  1.22556E-09  1.13788E-09  1.05089E-09  9.64429E-10  8.78518E-10  7.93139E-10  7.08323E-10  6.24161E-10  5.40694E-10
   4.57977E-10  3.76101E-10  2.95104E-10  2.15100E-10  1.36115E-10  5.82435E-11 -1.84507E-11 -9.38779E-11 -1.67997E-10 -2.40704E-10
  -3.11941E-10 -3.81634E-10 -4.49705E-10 -5.16090E-10 -5.80709E-10 -6.43496E-10 -7.04353E-10 -7.63253E-10 -8.20106E-10 -8.74965E-10
  -9.27864E-10 -9.78851E-10 -1.02796E-09 -1.07525E-09 -1.12074E-09 -1.16450E-09 -1.20654E-09 -1.24693E-09 -1.28569E-09 -1.32289E-09
  -1.35854E-09 -1.39271E-09 -1.42542E-09 -1.45673E-09 -1.48667E-09 -1.51529E-09 -1.54262E-09 -1.56872E-09 -1.59363E-09 -1.61737E-09
  -1.64000E-09 -1.66157E-09 -1.68210E-09 -1.70165E-09 -1.72026E-09 -1.73796E-09 -1.75481E-09 -1.77084E-09 -1.78610E-09 -1.80062E-09
  -1.81445E-09 -1.82763E-09 -1.84021E-09 -1.85222E-09 -1.86371E-09 -1.87472E-09 -1.88530E-09 -1.89549E-09 -1.90531E-09 -1.91482E-09
  -1.92406E-09 -1.93309E-09 -1.94192E-09 -1.95061E-09 -1.95921E-09 -1.96774E-09 -1.97626E-09 -1.98481E-09 -1.99342E-09 -2.00215E-09
  -2.01102E-09 -2.02002E-09 -2.02918E-09 -2.03849E-09 -2.04796E-09 -2.05760E-09 -2.06741E-09 -2.07740E-09 -2.08757E-09 -2.09794E-09
  -2.10850E-09 -2.11926E-09 -2.13024E-09 -2.14142E-09 -2.15283E-09 -2.16446E-09 -2.17633E-09 -2.18843E-09 -2.20077E-09 -2.21337E-09
  -2.22622E-09 -2.23933E-09 -2.25271E-09 -2.26636E-09 -2.28029E-09 -2.29450E-09 -2.30901E-09 -2.32381E-09 -2.33891E-09 -2.35433E-09
  -2.37005E-09 -2.38610E-09 -2.40247E-09 -2.41918E-09 -2.43622E-09 -2.45361E-09 -2.47134E-09 -2.48943E-09 -2.50789E-09 -2.52671E-09
  -2.54590E-09 -2.56547E-09 -2.58543E-09 -2.60578E-09 -2.62652E-09 -2.64767E-09 -2.66922E-09 -2.69119E-09 -2.71358E-09 -2.73640E-09
  -2.75964E-09 -2.78333E-09 -2.80745E-09 -2.83198E-09 -2.85692E-09 -2.88226E-09 -2.90797E-09 -2.93406E-09 -2.96050E-09 -2.98729E-09
  -3.01441E-09 -3.04185E-09 -3.06960E-09 -3.09765E-09 -3.12598E-09 -3.15458E-09 -3.18344E-09 -3.21255E-09 -3.24190E-09 -3.27146E-09
  -3.30124E-09 -3.33122E-09 -3.36138E-09 -3.39171E-09 -3.42221E-09 -3.45286E-09 -3.48364E-09 -3.51455E-09 -3.54557E-09 -3.57669E-09
  -3.60790E-09 -3.63919E-09 -3.67054E-09 -3.70194E-09 -3.73338E-09 -3.76485E-09 -3.79633E-09 -3.82782E-09 -3.85929E-09 -3.89074E-09
  -3.92216E-09 -3.95353E-09 -3.98485E-09 -4.01609E-09 -4.04725E-09 -4.07832E-09 -4.10928E-09 -4.14011E-09 -4.17082E-09 -4.20138E-09
  -4.23178E-09 -4.26202E-09 -4.29208E-09
 GABA     Conc. = 1.71E-10
  -4.67916E-10 -4.06884E-10 -3.45796E-10 -2.84657E-10 -2.23467E-10 -1.62237E-10 -1.00966E-10 -3.96586E-11  2.16852E-11  8.30760E-11
   1.44486E-10  2.05944E-10  2.67457E-10  3.28986E-10  3.90612E-10  4.52293E-10  5.13991E-10  5.75871E-10  6.37903E-10  7.00076E-10
   7.62551E-10  8.25416E-10  8.88832E-10  9.53069E-10  1.01853E-09  1.08595E-09  1.15689E-09  1.23483E-09  1.32974E-09  1.46779E-09
   1.52362E-09  1.58042E-09  1.77122E-09  1.86713E-09  1.88419E-09  1.97889E-09  2.06167E-09  2.12337E-09  2.16817E-09  2.18235E-09
   2.18399E-09  2.25906E-09  2.29732E-09  2.24533E-09  2.27973E-09  2.34159E-09  2.34682E-09  2.37570E-09  2.41876E-09  2.46737E-09
   2.51885E-09  2.57177E-09  2.62567E-09  2.68047E-09  2.73602E-09  2.79239E-09  2.84987E-09  2.90899E-09  2.97086E-09  3.03798E-09
   3.11640E-09  3.22542E-09  3.33634E-09  3.37018E-09  3.46944E-09  3.60804E-09  3.63604E-09  3.65910E-09  3.71917E-09  3.77075E-09
   3.81298E-09  3.83281E-09  3.82263E-09  3.82980E-09  3.88351E-09  3.86656E-09  3.83889E-09  3.88473E-09  3.91399E-09  3.94810E-09
   4.00778E-09  4.02387E-09  4.07343E-09  4.18460E-09  4.21777E-09  4.24624E-09  4.33073E-09  4.37864E-09  4.41388E-09  4.45758E-09
   4.47493E-09  4.49292E-09  4.54119E-09  4.54532E-09  4.51884E-09  4.55254E-09  4.56626E-09  4.54266E-09  4.54997E-09  4.56037E-09
   4.56151E-09  4.56691E-09  4.57455E-09  4.58301E-09  4.59154E-09  4.59967E-09  4.60717E-09  4.61386E-09  4.61963E-09  4.62439E-09
   4.62808E-09  4.63060E-09  4.63191E-09  4.63198E-09  4.63078E-09  4.62831E-09  4.62455E-09  4.61944E-09  4.61298E-09  4.60516E-09
   4.59594E-09  4.58533E-09  4.57331E-09  4.55986E-09  4.54498E-09  4.52864E-09  4.51085E-09  4.49158E-09  4.47083E-09  4.44858E-09
   4.42482E-09  4.39955E-09  4.37276E-09  4.34443E-09  4.31456E-09  4.28313E-09  4.25014E-09  4.21557E-09  4.17942E-09  4.14168E-09
   4.10233E-09  4.06137E-09  4.01880E-09  3.97461E-09  3.92876E-09  3.88128E-09  3.83214E-09  3.78134E-09  3.72887E-09  3.67474E-09
   3.61891E-09  3.56140E-09  3.50221E-09  3.44131E-09  3.37873E-09  3.31445E-09  3.24851E-09  3.18097E-09  3.11196E-09  3.04160E-09
   2.97008E-09  2.89766E-09  2.82477E-09  2.75226E-09  2.68224E-09  2.62164E-09  2.60626E-09  2.71579E-09  2.66638E-09  2.54129E-09
   2.42833E-09  2.33648E-09  2.25511E-09  2.16241E-09  2.06500E-09  1.98652E-09  1.91785E-09  1.78734E-09  1.55775E-09  1.43414E-09
   1.33527E-09  1.24295E-09  1.15326E-09  1.06499E-09  9.77642E-10  8.91086E-10  8.05218E-10  7.20019E-10  6.35549E-10  5.51830E-10
   4.68903E-10  3.86849E-10  3.05698E-10  2.25561E-10  1.46460E-10  6.84846E-11 -8.30149E-12 -8.38114E-11 -1.58005E-10 -2.30781E-10
  -3.02079E-10 -3.71829E-10 -4.39953E-10 -5.06387E-10 -5.71051E-10 -6.33881E-10 -6.94778E-10 -7.53715E-10 -8.10603E-10 -8.65495E-10
  -9.18426E-10 -9.69442E-10 -1.01858E-09 -1.06589E-09 -1.11141E-09 -1.15519E-09 -1.19726E-09 -1.23767E-09 -1.27646E-09 -1.31367E-09
  -1.34935E-09 -1.38353E-09 -1.41627E-09 -1.44759E-09 -1.47755E-09 -1.50619E-09 -1.53353E-09 -1.55965E-09 -1.58457E-09 -1.60833E-09
