 LCModel (Version 6.3-1R) Copyright: S.W. Provencher.          Ref.: Magn. Reson. Med. 30:672-679 (1993).                
 onepulse 19x12_ftSpec_smooth_lcm
 26 lines in following concentration table = NCONC+1
    Conc.  %SD /Cr+PCr  Metabolite                                         
    0.000 999%   0.000 Ala                                                 
    0.000 999%   0.000 Asp                                                 
 3.75E-10  47%   1.000 Cr                                                  
    0.000 999%   0.000 GABA                                                
    0.000 999%   0.000 Glc                                                 
 3.16E-09  13%   8.424 Gln                                                 
    0.000 999%   0.000 Glu                                                 
 1.10E-09  30%   2.944 Glyc                                                
 2.58E-10  39%   0.688 GPC                                                 
    0.000 999%   0.000 GSH                                                 
    0.000 999%   0.000 Ins                                                 
    0.000 999%   0.000 Lac                                                 
 1.89E-10 118%   0.504 NAAG                                                
 2.27E-10 125%   0.604 NAA                                                 
    0.000 999%   0.000 PCh                                                 
    0.000 999%   0.000 PCr                                                 
    0.000 999%   0.000 PE                                                  
 2.47E-10  88%   0.658 Scyllo                                              
 1.45E-09  29%   3.863 Ser                                                 
 4.14E-10 155%   1.104 Tau                                                 
 2.58E-10  39%   0.688 GPC+PCh                                             
 4.16E-10  43%   1.109 NAA+NAAG                                            
 1.10E-09  30%   2.944 Ins+Glyc                                            
 3.75E-10  47%   1.000 Cr+PCr                                              
 3.16E-09  13%   8.424 Glu+Gln                                             
   6 lines in following misc. output table
  FWHM = 0.089 ppm    S/N =   4                                            
  Data shift = 0.358 ppm                                                   
  Ph: -37 deg     -27.0 deg/ppm                                            
  alphaB,S = 1.7E-01,   4.5E+01                                            
   16 spline knots.   Ns = 5(1)                                            
  ( 9) 2 infls.   ( 7) 1 extrs.                                            
  363 points on ppm-axis = NY
      4.250000     4.238821     4.227641     4.216462     4.205282     4.194103     4.182923     4.171744     4.160564     4.149385
      4.138206     4.127026     4.115847     4.104667     4.093488     4.082308     4.071129     4.059949     4.048770     4.037591
      4.026411     4.015232     4.004052     3.992873     3.981693     3.970514     3.959334     3.948155     3.936975     3.925796
      3.914617     3.903437     3.892258     3.881078     3.869899     3.858719     3.847540     3.836360     3.825181     3.814002
      3.802822     3.791643     3.780463     3.769284     3.758104     3.746925     3.735745     3.724566     3.713387     3.702207
      3.691028     3.679848     3.668669     3.657489     3.646310     3.635130     3.623951     3.612772     3.601592     3.590413
      3.579233     3.568054     3.556874     3.545695     3.534515     3.523336     3.512156     3.500977     3.489798     3.478618
      3.467439     3.456259     3.445080     3.433900     3.422721     3.411541     3.400362     3.389183     3.378003     3.366824
      3.355644     3.344465     3.333285     3.322106     3.310926     3.299747     3.288568     3.277388     3.266209     3.255029
      3.243850     3.232670     3.221491     3.210311     3.199132     3.187953     3.176773     3.165594     3.154414     3.143235
      3.132055     3.120876     3.109696     3.098517     3.087337     3.076158     3.064979     3.053799     3.042620     3.031440
      3.020261     3.009081     2.997902     2.986722     2.975543     2.964364     2.953184     2.942005     2.930825     2.919646
      2.908466     2.897287     2.886107     2.874928     2.863749     2.852569     2.841390     2.830210     2.819031     2.807851
      2.796672     2.785492     2.774313     2.763134     2.751954     2.740775     2.729595     2.718416     2.707236     2.696057
      2.684877     2.673698     2.662519     2.651339     2.640160     2.628980     2.617801     2.606621     2.595442     2.584262
      2.573083     2.561903     2.550724     2.539545     2.528365     2.517186     2.506006     2.494827     2.483647     2.472468
      2.461288     2.450109     2.438930     2.427750     2.416571     2.405391     2.394212     2.383032     2.371853     2.360673
      2.349494     2.338315     2.327135     2.315956     2.304776     2.293597     2.282417     2.271238     2.260058     2.248879
      2.237700     2.226520     2.215341     2.204161     2.192982     2.181802     2.170623     2.159443     2.148264     2.137084
      2.125905     2.114726     2.103546     2.092367     2.081187     2.070008     2.058828     2.047649     2.036469     2.025290
      2.014111     2.002931     1.991752     1.980572     1.969393     1.958213     1.947034     1.935854     1.924675     1.913496
      1.902316     1.891137     1.879957     1.868778     1.857598     1.846419     1.835239     1.824060     1.812881     1.801701
      1.790522     1.779342     1.768163     1.756983     1.745804     1.734624     1.723445     1.712265     1.701086     1.689907
      1.678727     1.667548     1.656368     1.645189     1.634009     1.622830     1.611650     1.600471     1.589292     1.578112
      1.566933     1.555753     1.544574     1.533394     1.522215     1.511035     1.499856     1.488677     1.477497     1.466318
      1.455138     1.443959     1.432779     1.421600     1.410420     1.399241     1.388062     1.376882     1.365703     1.354523
      1.343344     1.332164     1.320985     1.309805     1.298626     1.287446     1.276267     1.265088     1.253908     1.242729
      1.231549     1.220370     1.209190     1.198011     1.186831     1.175652     1.164473     1.153293     1.142114     1.130934
      1.119755     1.108575     1.097396     1.086216     1.075037     1.063858     1.052678     1.041499     1.030319     1.019140
      1.007960     0.996781     0.985601     0.974422     0.963243     0.952063     0.940884     0.929704     0.918525     0.907345
      0.896166     0.884986     0.873807     0.862628     0.851448     0.840269     0.829089     0.817910     0.806730     0.795551
      0.784371     0.773192     0.762012     0.750833     0.739654     0.728474     0.717295     0.706115     0.694936     0.683756
      0.672577     0.661397     0.650218     0.639039     0.627859     0.616680     0.605500     0.594321     0.583141     0.571962
      0.560782     0.549603     0.538424     0.527244     0.516065     0.504885     0.493706     0.482526     0.471347     0.460167
      0.448988     0.437809     0.426629     0.415450     0.404270     0.393091     0.381911     0.370732     0.359552     0.348373
      0.337193     0.326014     0.314835     0.303655     0.292476     0.281296     0.270117     0.258937     0.247758     0.236578
      0.225399     0.214220     0.203040
 NY phased data points follow
   1.55558E-08  1.33296E-08  1.12069E-08  1.00910E-08  9.57799E-09  9.11240E-09  9.26201E-09  8.98137E-09  1.00607E-08  9.83906E-09
   1.02772E-08  1.05525E-08  1.01005E-08  1.03488E-08  1.07065E-08  1.02075E-08  9.13832E-09  8.74026E-09  8.89526E-09  8.18018E-09
   8.53105E-09  8.76311E-09  8.92275E-09  8.86505E-09  8.98423E-09  9.29056E-09  9.01684E-09  8.08070E-09  8.26531E-09  9.17325E-09
   1.06019E-08  1.12305E-08  1.02712E-08  9.27670E-09  7.59093E-09  5.91120E-09  5.10928E-09  4.77457E-09  4.91306E-09  4.66220E-09
   4.57449E-09  4.66408E-09  4.72265E-09  4.19303E-09  3.50663E-09  3.18067E-09  3.33920E-09  3.80903E-09  4.59624E-09  4.41826E-09
   4.25290E-09  4.42978E-09  4.67479E-09  4.08345E-09  3.85774E-09  3.60496E-09  4.64632E-09  5.16699E-09  6.13679E-09  7.35795E-09
   8.61425E-09  1.08295E-08  1.26842E-08  1.32299E-08  1.23170E-08  9.15345E-09  7.14104E-09  5.64312E-09  4.66193E-09  4.73401E-09
   4.32958E-09  4.04005E-09  3.59284E-09  3.49769E-09  4.49737E-09  4.85943E-09  6.29016E-09  8.09387E-09  1.06980E-08  1.40246E-08
   1.46221E-08  1.23608E-08  1.05248E-08  9.16484E-09  7.57478E-09  7.72767E-09  6.94900E-09  6.19164E-09  5.73275E-09  5.46800E-09
   4.67520E-09  4.46720E-09  4.22584E-09  3.47511E-09  2.82032E-09  3.38443E-09  2.61538E-09  2.81886E-09  2.77248E-09  2.40708E-09
   2.35628E-09  3.45981E-09  2.97919E-09  2.88378E-09  1.83106E-09  2.89350E-09  1.94724E-09  2.21409E-09  1.80671E-09  1.03329E-09
   9.87104E-10  6.31171E-10  1.82300E-09  2.46813E-09  2.26564E-09  1.94727E-09  2.99906E-09  3.32736E-09  2.87508E-09  3.11775E-09
   3.05123E-09  3.31420E-09  1.94516E-09  1.60000E-09  1.65518E-09  1.59559E-09  9.96662E-10  1.46329E-09  2.43060E-09  1.96547E-09
   2.41541E-09  2.45513E-09  2.27476E-09  3.06377E-09  2.44852E-09  2.34585E-09  2.34668E-09  2.68792E-09  2.99108E-09  4.48229E-09
   4.74684E-09  5.05308E-09  4.53480E-09  4.19299E-09  4.10049E-09  5.00367E-09  4.72278E-09  5.46858E-09  4.71444E-09  4.28840E-09
   3.77851E-09  3.94659E-09  3.50102E-09  3.28460E-09  3.25607E-09  3.65323E-09  3.48682E-09  3.67182E-09  3.16336E-09  3.31637E-09
   3.30935E-09  3.84642E-09  3.99828E-09  3.57950E-09  3.41192E-09  4.04132E-09  3.50342E-09  5.30987E-09  5.86459E-09  8.24497E-09
   1.29846E-08  1.60913E-08  1.67301E-08  1.48186E-08  1.30393E-08  1.19185E-08  1.03963E-08  8.66735E-09  7.50252E-09  7.07822E-09
   6.35893E-09  5.55408E-09  4.75725E-09  3.94307E-09  2.51265E-09  2.20340E-09  1.33531E-09  4.21343E-10 -1.24697E-09 -1.91178E-09
  -2.93562E-09 -3.89230E-09 -4.77541E-09 -6.24106E-09 -7.54110E-09 -8.44324E-09 -8.74199E-09 -9.88748E-09 -1.05061E-08 -1.02701E-08
  -1.07041E-08 -1.02495E-08 -1.01874E-08 -9.44346E-09 -8.92133E-09 -7.97747E-09 -7.27791E-09 -6.47948E-09 -5.21884E-09 -3.52400E-09
  -3.12323E-09 -2.44006E-09 -2.00975E-09 -1.70672E-09 -1.82378E-09 -1.38206E-09 -1.57688E-09 -1.54805E-09 -1.62007E-09 -2.01860E-09
  -2.22308E-09 -1.63537E-09 -1.26340E-09 -9.52891E-10 -3.74876E-10 -8.50537E-10 -1.47418E-09 -1.23024E-09 -1.13838E-09 -1.04230E-09
  -1.34451E-09 -1.39899E-09 -7.51370E-10 -1.38388E-09 -1.25506E-09 -7.68523E-10 -5.18594E-10 -7.95246E-10 -7.64553E-10 -1.23824E-09
  -1.06882E-09 -7.22156E-10 -8.14207E-10 -1.42648E-09 -1.25907E-09 -8.94103E-10 -1.53664E-09 -7.38150E-10 -9.12300E-10 -9.10655E-10
  -6.52325E-10 -4.10686E-10 -1.54960E-10  1.20436E-10 -7.99366E-11  2.10718E-10 -7.89676E-11  5.30326E-11 -7.47468E-10 -4.31761E-10
  -1.67087E-09 -1.12810E-09 -1.55318E-09 -1.67933E-09 -2.03540E-09 -1.92643E-09 -1.79676E-09 -2.03536E-09 -1.39574E-09 -1.22043E-09
  -5.85570E-10 -5.59126E-10  1.82592E-10 -2.62188E-10  5.66427E-10  7.88580E-11  7.87297E-10  4.34837E-10  2.97758E-10  1.16358E-10
   6.22531E-10  2.07747E-10  1.91199E-10 -5.56998E-10 -1.20589E-10 -4.34053E-12 -3.66849E-10 -7.65656E-10 -9.18902E-10 -1.40737E-10
  -7.25603E-10 -1.13677E-09 -1.01856E-09 -4.66316E-10 -8.31967E-10 -1.17731E-09 -8.32581E-10 -1.08202E-09 -1.11645E-09 -1.55167E-09
  -1.32684E-09 -1.49164E-09 -1.65475E-09 -1.20448E-09 -1.57553E-09 -1.47643E-09 -1.40289E-09 -1.36771E-09 -1.62761E-09 -1.52058E-09
  -1.04751E-09 -1.86684E-09 -1.99124E-09 -1.17692E-09 -2.24024E-09 -2.01686E-09 -1.52322E-09 -1.63578E-09 -1.86847E-09 -1.69627E-09
  -1.61805E-09 -1.87918E-09 -1.40875E-09 -2.09652E-09 -2.18461E-09 -1.37265E-09 -2.05928E-09 -1.35590E-09 -1.77029E-09 -1.82242E-09
  -1.43251E-09 -2.11559E-09 -1.69530E-09 -1.70563E-09 -1.99573E-09 -1.63217E-09 -1.71716E-09 -1.78189E-09 -2.44646E-09 -1.38424E-09
  -1.89281E-09 -1.89842E-09 -2.19690E-09 -1.78878E-09 -1.61436E-09 -1.98945E-09 -1.94605E-09 -2.09825E-09 -1.84656E-09 -1.72128E-09
  -1.93087E-09 -2.21725E-09 -1.59371E-09 -1.78249E-09 -1.87695E-09 -1.87674E-09 -1.86915E-09 -2.15656E-09 -1.43117E-09 -1.45257E-09
  -1.57709E-09 -1.66270E-09 -1.70209E-09
 NY points of the fit to the data follow
   1.30020E-08  1.22367E-08  1.14026E-08  1.09840E-08  1.08758E-08  1.06322E-08  1.02687E-08  9.92071E-09  9.87114E-09  1.00647E-08
   1.02774E-08  1.03875E-08  1.06482E-08  1.04007E-08  9.94307E-09  9.43923E-09  9.05762E-09  8.79333E-09  8.36793E-09  7.79693E-09
   7.83079E-09  8.13765E-09  8.30613E-09  8.44633E-09  8.88326E-09  9.50374E-09  1.01483E-08  1.03915E-08  1.01352E-08  9.83981E-09
   9.39964E-09  8.96325E-09  8.59213E-09  7.96776E-09  7.02472E-09  6.09462E-09  5.87391E-09  5.69087E-09  5.47095E-09  5.23972E-09
   4.93766E-09  4.45602E-09  3.84095E-09  3.48269E-09  3.41838E-09  3.41830E-09  3.43900E-09  3.46646E-09  3.50855E-09  3.56853E-09
   3.65691E-09  3.77717E-09  3.94153E-09  4.15351E-09  4.48740E-09  5.04715E-09  5.75634E-09  6.58080E-09  7.60642E-09  8.59310E-09
   9.40083E-09  1.00543E-08  1.04363E-08  1.03901E-08  9.87994E-09  8.99030E-09  7.99676E-09  7.17093E-09  6.14890E-09  5.07399E-09
   4.66575E-09  4.61634E-09  4.66604E-09  5.02196E-09  5.62837E-09  6.50975E-09  7.51115E-09  8.63446E-09  9.79026E-09  1.07853E-08
   1.14440E-08  1.15996E-08  1.11371E-08  1.04084E-08  9.63029E-09  8.46795E-09  7.03060E-09  5.88776E-09  4.87315E-09  4.22116E-09
   3.85845E-09  3.62535E-09  3.45876E-09  3.33448E-09  3.23317E-09  3.15218E-09  3.08900E-09  3.03719E-09  2.99177E-09  2.95139E-09
   2.92236E-09  2.90011E-09  2.87960E-09  2.86206E-09  2.84892E-09  2.83943E-09  2.83264E-09  2.82812E-09  2.82548E-09  2.82459E-09
   2.82528E-09  2.82739E-09  2.83080E-09  2.83533E-09  2.84078E-09  2.84694E-09  2.85364E-09  2.86069E-09  2.86792E-09  2.87518E-09
   2.88231E-09  2.88915E-09  2.89557E-09  2.90140E-09  2.90653E-09  2.91080E-09  2.91407E-09  2.91623E-09  2.91713E-09  2.91665E-09
   2.91466E-09  2.91103E-09  2.90564E-09  2.89836E-09  2.88907E-09  2.87765E-09  2.86399E-09  2.84797E-09  2.82948E-09  2.80839E-09
   2.78461E-09  2.75811E-09  2.72888E-09  2.69693E-09  2.66226E-09  2.62488E-09  2.58482E-09  2.54211E-09  2.49677E-09  2.44888E-09
   2.39850E-09  2.34574E-09  2.29071E-09  2.23360E-09  2.17465E-09  2.11417E-09  2.05262E-09  1.99060E-09  1.92902E-09  1.86920E-09
   1.81319E-09  1.76426E-09  1.72806E-09  1.71507E-09  1.74758E-09  1.88367E-09  2.34298E-09  3.84018E-09  6.36441E-09  9.54219E-09
   1.28619E-08  1.54121E-08  1.64886E-08  1.61781E-08  1.51181E-08  1.36698E-08  1.14316E-08  7.83380E-09  3.53268E-09  1.10576E-09
   2.85977E-10 -1.46162E-10 -4.41479E-10 -6.72341E-10 -8.67083E-10 -1.03898E-09 -1.19498E-09 -1.33897E-09 -1.47323E-09 -1.59915E-09
  -1.71754E-09 -1.82888E-09 -1.93341E-09 -2.03120E-09 -2.12226E-09 -2.20649E-09 -2.28384E-09 -2.35454E-09 -2.41887E-09 -2.47707E-09
  -2.52937E-09 -2.57597E-09 -2.61710E-09 -2.65294E-09 -2.68367E-09 -2.70948E-09 -2.73055E-09 -2.74705E-09 -2.75914E-09 -2.76699E-09
  -2.77078E-09 -2.77066E-09 -2.76679E-09 -2.75934E-09 -2.74845E-09 -2.73430E-09 -2.71703E-09 -2.69681E-09 -2.67378E-09 -2.64810E-09
  -2.61993E-09 -2.58942E-09 -2.55672E-09 -2.52200E-09 -2.48538E-09 -2.44701E-09 -2.40700E-09 -2.36549E-09 -2.32259E-09 -2.27845E-09
  -2.23317E-09 -2.18689E-09 -2.13974E-09 -2.09183E-09 -2.04329E-09 -1.99426E-09 -1.94485E-09 -1.89519E-09 -1.84539E-09 -1.79561E-09
  -1.74595E-09 -1.69653E-09 -1.64749E-09 -1.59895E-09 -1.55102E-09 -1.50385E-09 -1.45755E-09 -1.41224E-09 -1.36805E-09 -1.32512E-09
  -1.28355E-09 -1.24348E-09 -1.20497E-09 -1.16802E-09 -1.13264E-09 -1.09881E-09 -1.06653E-09 -1.03580E-09 -1.00661E-09 -9.78959E-10
  -9.52840E-10 -9.28243E-10 -9.05173E-10 -8.83616E-10 -8.63576E-10 -8.45043E-10 -8.28003E-10 -8.12473E-10 -7.98436E-10 -7.85883E-10
  -7.74810E-10 -7.65222E-10 -7.57102E-10 -7.50450E-10 -7.45269E-10 -7.41535E-10 -7.39266E-10 -7.38442E-10 -7.39065E-10 -7.41122E-10
  -7.44587E-10 -7.49409E-10 -7.55533E-10 -7.62905E-10 -7.71477E-10 -7.81190E-10 -7.91997E-10 -8.03840E-10 -8.16668E-10 -8.30430E-10
  -8.45070E-10 -8.60538E-10 -8.76778E-10 -8.93739E-10 -9.11369E-10 -9.29613E-10 -9.48419E-10 -9.67733E-10 -9.87507E-10 -1.00768E-09
  -1.02820E-09 -1.04902E-09 -1.07009E-09 -1.09135E-09 -1.11275E-09 -1.13423E-09 -1.15574E-09 -1.17724E-09 -1.19869E-09 -1.22008E-09
  -1.24139E-09 -1.26262E-09 -1.28375E-09 -1.30475E-09 -1.32563E-09 -1.34636E-09 -1.36693E-09 -1.38733E-09 -1.40754E-09 -1.42755E-09
  -1.44735E-09 -1.46691E-09 -1.48623E-09 -1.50530E-09 -1.52409E-09 -1.54259E-09 -1.56080E-09 -1.57869E-09 -1.59625E-09 -1.61347E-09
  -1.63033E-09 -1.64682E-09 -1.66293E-09 -1.67864E-09 -1.69393E-09 -1.70880E-09 -1.72326E-09 -1.73732E-09 -1.75099E-09 -1.76431E-09
  -1.77729E-09 -1.78993E-09 -1.80227E-09 -1.81432E-09 -1.82609E-09 -1.83761E-09 -1.84889E-09 -1.85995E-09 -1.87081E-09 -1.88148E-09
  -1.89198E-09 -1.90234E-09 -1.91256E-09 -1.92266E-09 -1.93267E-09 -1.94260E-09 -1.95247E-09 -1.96229E-09 -1.97209E-09 -1.98188E-09
  -1.99167E-09 -2.00150E-09 -2.01136E-09
 NY background values follow
     2.204E-09    2.198E-09    2.191E-09    2.184E-09    2.178E-09    2.171E-09    2.165E-09    2.158E-09    2.152E-09    2.146E-09
     2.139E-09    2.133E-09    2.127E-09    2.121E-09    2.114E-09    2.108E-09    2.102E-09    2.096E-09    2.089E-09    2.083E-09
     2.076E-09    2.070E-09    2.063E-09    2.057E-09    2.050E-09    2.043E-09    2.036E-09    2.029E-09    2.022E-09    2.015E-09
     2.008E-09    2.000E-09    1.993E-09    1.985E-09    1.978E-09    1.970E-09    1.963E-09    1.955E-09    1.948E-09    1.940E-09
     1.933E-09    1.925E-09    1.918E-09    1.911E-09    1.904E-09    1.896E-09    1.890E-09    1.883E-09    1.876E-09    1.870E-09
     1.864E-09    1.858E-09    1.852E-09    1.847E-09    1.841E-09    1.836E-09    1.832E-09    1.827E-09    1.823E-09    1.819E-09
     1.816E-09    1.812E-09    1.809E-09    1.807E-09    1.804E-09    1.802E-09    1.800E-09    1.799E-09    1.797E-09    1.796E-09
     1.796E-09    1.795E-09    1.795E-09    1.795E-09    1.796E-09    1.797E-09    1.798E-09    1.799E-09    1.801E-09    1.803E-09
     1.805E-09    1.807E-09    1.810E-09    1.813E-09    1.816E-09    1.820E-09    1.824E-09    1.828E-09    1.832E-09    1.837E-09
     1.842E-09    1.847E-09    1.853E-09    1.859E-09    1.866E-09    1.872E-09    1.879E-09    1.886E-09    1.894E-09    1.902E-09
     1.910E-09    1.919E-09    1.928E-09    1.937E-09    1.947E-09    1.957E-09    1.968E-09    1.979E-09    1.990E-09    2.001E-09
     2.013E-09    2.026E-09    2.038E-09    2.052E-09    2.065E-09    2.078E-09    2.091E-09    2.105E-09    2.117E-09    2.130E-09
     2.142E-09    2.153E-09    2.164E-09    2.173E-09    2.182E-09    2.190E-09    2.196E-09    2.201E-09    2.205E-09    2.207E-09
     2.207E-09    2.205E-09    2.202E-09    2.196E-09    2.188E-09    2.178E-09    2.166E-09    2.151E-09    2.133E-09    2.113E-09
     2.089E-09    2.063E-09    2.034E-09    2.001E-09    1.966E-09    1.928E-09    1.886E-09    1.842E-09    1.795E-09    1.744E-09
     1.691E-09    1.634E-09    1.574E-09    1.511E-09    1.445E-09    1.375E-09    1.303E-09    1.227E-09    1.148E-09    1.066E-09
     9.801E-10    8.912E-10    7.990E-10    7.035E-10    6.046E-10    5.023E-10    3.967E-10    2.876E-10    1.752E-10    5.967E-11
    -5.863E-11   -1.794E-10   -3.022E-10   -4.267E-10   -5.527E-10   -6.797E-10   -8.075E-10   -9.356E-10   -1.064E-09   -1.192E-09
    -1.319E-09   -1.445E-09   -1.570E-09   -1.694E-09   -1.815E-09   -1.934E-09   -2.050E-09   -2.163E-09   -2.273E-09   -2.380E-09
    -2.482E-09   -2.579E-09   -2.673E-09   -2.761E-09   -2.843E-09   -2.920E-09   -2.991E-09   -3.056E-09   -3.115E-09   -3.169E-09
    -3.217E-09   -3.260E-09   -3.298E-09   -3.330E-09   -3.358E-09   -3.382E-09   -3.400E-09   -3.415E-09   -3.425E-09   -3.430E-09
    -3.432E-09   -3.431E-09   -3.425E-09   -3.416E-09   -3.404E-09   -3.389E-09   -3.370E-09   -3.349E-09   -3.325E-09   -3.298E-09
    -3.269E-09   -3.237E-09   -3.203E-09   -3.168E-09   -3.130E-09   -3.091E-09   -3.050E-09   -3.008E-09   -2.964E-09   -2.920E-09
    -2.874E-09   -2.827E-09   -2.779E-09   -2.730E-09   -2.681E-09   -2.632E-09   -2.582E-09   -2.531E-09   -2.481E-09   -2.431E-09
    -2.381E-09   -2.331E-09   -2.281E-09   -2.232E-09   -2.184E-09   -2.136E-09   -2.089E-09   -2.044E-09   -1.999E-09   -1.956E-09
    -1.914E-09   -1.873E-09   -1.834E-09   -1.797E-09   -1.761E-09   -1.727E-09   -1.694E-09   -1.663E-09   -1.634E-09   -1.606E-09
    -1.579E-09   -1.554E-09   -1.531E-09   -1.509E-09   -1.488E-09   -1.470E-09   -1.452E-09   -1.436E-09   -1.422E-09   -1.409E-09
    -1.398E-09   -1.388E-09   -1.379E-09   -1.372E-09   -1.367E-09   -1.363E-09   -1.360E-09   -1.359E-09   -1.360E-09   -1.361E-09
    -1.364E-09   -1.369E-09   -1.375E-09   -1.382E-09   -1.390E-09   -1.400E-09   -1.410E-09   -1.422E-09   -1.434E-09   -1.448E-09
    -1.462E-09   -1.477E-09   -1.493E-09   -1.510E-09   -1.527E-09   -1.545E-09   -1.564E-09   -1.583E-09   -1.602E-09   -1.622E-09
    -1.642E-09   -1.663E-09   -1.684E-09   -1.705E-09   -1.726E-09   -1.747E-09   -1.768E-09   -1.790E-09   -1.811E-09   -1.832E-09
    -1.853E-09   -1.874E-09   -1.895E-09   -1.915E-09   -1.936E-09   -1.956E-09   -1.977E-09   -1.997E-09   -2.017E-09   -2.037E-09
    -2.056E-09   -2.075E-09   -2.094E-09   -2.113E-09   -2.132E-09   -2.150E-09   -2.168E-09   -2.186E-09   -2.203E-09   -2.220E-09
    -2.236E-09   -2.253E-09   -2.268E-09   -2.284E-09   -2.299E-09   -2.313E-09   -2.328E-09   -2.341E-09   -2.355E-09   -2.368E-09
    -2.380E-09   -2.393E-09   -2.405E-09   -2.417E-09   -2.428E-09   -2.439E-09   -2.450E-09   -2.461E-09   -2.472E-09   -2.482E-09
    -2.492E-09   -2.502E-09   -2.512E-09   -2.522E-09   -2.532E-09   -2.541E-09   -2.551E-09   -2.560E-09   -2.570E-09   -2.579E-09
    -2.589E-09   -2.598E-09   -2.608E-09
 Cr       Conc. = 3.75E-10
   3.58295E-09  3.31490E-09  2.89349E-09  2.46766E-09  2.34586E-09  2.29560E-09  2.26676E-09  2.24703E-09  2.23200E-09  2.21972E-09
   2.20920E-09  2.19987E-09  2.19140E-09  2.18358E-09  2.17626E-09  2.16937E-09  2.16284E-09  2.15666E-09  2.15080E-09  2.14530E-09
   2.14019E-09  2.13554E-09  2.13147E-09  2.12816E-09  2.12590E-09  2.12515E-09  2.12667E-09  2.13188E-09  2.14363E-09  2.16875E-09
   2.22903E-09  2.43168E-09  2.79824E-09  3.26819E-09  3.77697E-09  4.19219E-09  4.39352E-09  4.37624E-09  4.23469E-09  4.04010E-09
   3.74644E-09  3.25333E-09  2.60633E-09  2.20202E-09  2.08390E-09  2.02894E-09  1.99595E-09  1.97306E-09  1.95564E-09  1.94156E-09
   1.92968E-09  1.91935E-09  1.91019E-09  1.90195E-09  1.89449E-09  1.88766E-09  1.88141E-09  1.87569E-09  1.87044E-09  1.86564E-09
   1.86126E-09  1.85726E-09  1.85365E-09  1.85039E-09  1.84748E-09  1.84492E-09  1.84269E-09  1.84078E-09  1.83920E-09  1.83793E-09
   1.83697E-09  1.83633E-09  1.83599E-09  1.83595E-09  1.83622E-09  1.83679E-09  1.83765E-09  1.83881E-09  1.84027E-09  1.84202E-09
   1.84406E-09  1.84640E-09  1.84901E-09  1.85193E-09  1.85513E-09  1.85862E-09  1.86241E-09  1.86649E-09  1.87088E-09  1.87557E-09
   1.88057E-09  1.88587E-09  1.89150E-09  1.89744E-09  1.90370E-09  1.91029E-09  1.91721E-09  1.92447E-09  1.93206E-09  1.94000E-09
   1.94828E-09  1.95691E-09  1.96589E-09  1.97523E-09  1.98493E-09  1.99499E-09  2.00542E-09  2.01623E-09  2.02741E-09  2.03897E-09
   2.05091E-09  2.06325E-09  2.07596E-09  2.08900E-09  2.10224E-09  2.11555E-09  2.12884E-09  2.14196E-09  2.15481E-09  2.16727E-09
   2.17921E-09  2.19051E-09  2.20106E-09  2.21075E-09  2.21943E-09  2.22701E-09  2.23336E-09  2.23836E-09  2.24190E-09  2.24384E-09
   2.24408E-09  2.24250E-09  2.23897E-09  2.23338E-09  2.22560E-09  2.21553E-09  2.20303E-09  2.18800E-09  2.17032E-09  2.14985E-09
   2.12649E-09  2.10021E-09  2.07097E-09  2.03876E-09  2.00357E-09  1.96538E-09  1.92417E-09  1.87994E-09  1.83265E-09  1.78230E-09
   1.72888E-09  1.67237E-09  1.61277E-09  1.55007E-09  1.48425E-09  1.41533E-09  1.34331E-09  1.26821E-09  1.19006E-09  1.10893E-09
   1.02490E-09  9.38175E-10  8.49093E-10  7.58315E-10  6.67417E-10  5.80951E-10  5.19236E-10  5.21992E-10  5.61488E-10  6.23910E-10
   6.72799E-10  6.57704E-10  5.58667E-10  4.00151E-10  2.17802E-10  1.33719E-11 -2.48921E-10 -5.84870E-10 -9.11078E-10 -1.09252E-09
  -1.24094E-09 -1.37835E-09 -1.51011E-09 -1.63796E-09 -1.76249E-09 -1.88386E-09 -2.00199E-09 -2.11672E-09 -2.22780E-09 -2.33497E-09
  -2.43794E-09 -2.53641E-09 -2.63006E-09 -2.71856E-09 -2.80159E-09 -2.87883E-09 -2.95005E-09 -3.01533E-09 -3.07483E-09 -3.12872E-09
  -3.17713E-09 -3.22023E-09 -3.25817E-09 -3.29109E-09 -3.31916E-09 -3.34252E-09 -3.36133E-09 -3.37573E-09 -3.38588E-09 -3.39192E-09
  -3.39402E-09 -3.39231E-09 -3.38696E-09 -3.37810E-09 -3.36590E-09 -3.35050E-09 -3.33205E-09 -3.31071E-09 -3.28661E-09 -3.25992E-09
  -3.23079E-09 -3.19935E-09 -3.16578E-09 -3.13020E-09 -3.09278E-09 -3.05363E-09 -3.01287E-09 -2.97063E-09 -2.92704E-09 -2.88223E-09
  -2.83630E-09 -2.78939E-09 -2.74163E-09 -2.69314E-09 -2.64403E-09 -2.59444E-09 -2.54449E-09 -2.49430E-09 -2.44399E-09 -2.39371E-09
  -2.34356E-09 -2.29367E-09 -2.24416E-09 -2.19517E-09 -2.14680E-09 -2.09919E-09 -2.05246E-09 -2.00674E-09 -1.96214E-09 -1.91881E-09
  -1.87684E-09 -1.83639E-09 -1.79750E-09 -1.76018E-09 -1.72443E-09 -1.69024E-09 -1.65760E-09 -1.62652E-09 -1.59698E-09 -1.56899E-09
  -1.54253E-09 -1.51760E-09 -1.49420E-09 -1.47232E-09 -1.45196E-09 -1.43310E-09 -1.41575E-09 -1.39991E-09 -1.38556E-09 -1.37271E-09
  -1.36133E-09 -1.35144E-09 -1.34303E-09 -1.33608E-09 -1.33061E-09 -1.32658E-09 -1.32403E-09 -1.32292E-09 -1.32326E-09 -1.32503E-09
  -1.32822E-09 -1.33276E-09 -1.33861E-09 -1.34571E-09 -1.35401E-09 -1.36345E-09 -1.37398E-09 -1.38556E-09 -1.39812E-09 -1.41161E-09
  -1.42599E-09 -1.44119E-09 -1.45717E-09 -1.47386E-09 -1.49123E-09 -1.50921E-09 -1.52776E-09 -1.54681E-09 -1.56632E-09 -1.58624E-09
  -1.60650E-09 -1.62707E-09 -1.64787E-09 -1.66888E-09 -1.69001E-09 -1.71124E-09 -1.73250E-09 -1.75374E-09 -1.77493E-09 -1.79606E-09
  -1.81712E-09 -1.83809E-09 -1.85896E-09 -1.87971E-09 -1.90033E-09 -1.92081E-09 -1.94112E-09 -1.96126E-09 -1.98122E-09 -2.00097E-09
  -2.02051E-09 -2.03982E-09 -2.05888E-09 -2.07768E-09 -2.09621E-09 -2.11446E-09 -2.13241E-09 -2.15004E-09 -2.16734E-09 -2.18430E-09
  -2.20089E-09 -2.21712E-09 -2.23297E-09 -2.24841E-09 -2.26344E-09 -2.27804E-09 -2.29223E-09 -2.30603E-09 -2.31944E-09 -2.33249E-09
  -2.34519E-09 -2.35757E-09 -2.36963E-09 -2.38141E-09 -2.39291E-09 -2.40415E-09 -2.41516E-09 -2.42594E-09 -2.43652E-09 -2.44691E-09
  -2.45714E-09 -2.46721E-09 -2.47715E-09 -2.48697E-09 -2.49669E-09 -2.50634E-09 -2.51592E-09 -2.52545E-09 -2.53496E-09 -2.54445E-09
  -2.55396E-09 -2.56349E-09 -2.57306E-09
 Gln      Conc. = 3.16E-09
   4.33087E-09  4.94514E-09  5.61696E-09  6.28134E-09  6.80547E-09  7.09488E-09  7.10352E-09  6.84457E-09  6.39253E-09  5.87352E-09
   5.16036E-09  4.32234E-09  3.88733E-09  3.39374E-09  3.06799E-09  2.90398E-09  2.80459E-09  2.73686E-09  2.68732E-09  2.64935E-09
   2.61922E-09  2.59469E-09  2.57437E-09  2.55744E-09  2.54349E-09  2.53212E-09  2.52230E-09  2.51392E-09  2.50711E-09  2.50122E-09
   2.49623E-09  2.49217E-09  2.48907E-09  2.48699E-09  2.48597E-09  2.48610E-09  2.48748E-09  2.49025E-09  2.49455E-09  2.50056E-09
   2.50862E-09  2.51902E-09  2.53236E-09  2.54921E-09  2.57025E-09  2.59634E-09  2.62858E-09  2.66803E-09  2.71715E-09  2.77972E-09
   2.85949E-09  2.96419E-09  3.10743E-09  3.31419E-09  3.64377E-09  4.20709E-09  4.92016E-09  5.75174E-09  6.78421E-09  7.79559E-09
   8.62756E-09  9.31467E-09  9.71161E-09  9.66280E-09  9.13087E-09  8.22871E-09  7.22618E-09  6.39718E-09  5.34520E-09  4.22126E-09
   3.74719E-09  3.63188E-09  3.61632E-09  3.90996E-09  4.45277E-09  5.23895E-09  6.05395E-09  6.81913E-09  7.50656E-09  8.01672E-09
   8.29331E-09  8.28354E-09  7.86742E-09  7.28693E-09  6.73545E-09  5.92808E-09  5.03335E-09  4.50909E-09  3.98304E-09  3.50985E-09
   3.22469E-09  3.03563E-09  2.90230E-09  2.80437E-09  2.72815E-09  2.66777E-09  2.62018E-09  2.58209E-09  2.55134E-09  2.52692E-09
   2.50741E-09  2.49158E-09  2.47896E-09  2.46919E-09  2.46203E-09  2.45726E-09  2.45436E-09  2.45312E-09  2.45339E-09  2.45504E-09
   2.45796E-09  2.46205E-09  2.46720E-09  2.47329E-09  2.48014E-09  2.48755E-09  2.49538E-09  2.50344E-09  2.51159E-09  2.51967E-09
   2.52754E-09  2.53504E-09  2.54205E-09  2.54841E-09  2.55400E-09  2.55867E-09  2.56229E-09  2.56473E-09  2.56587E-09  2.56557E-09
   2.56370E-09  2.56013E-09  2.55475E-09  2.54742E-09  2.53803E-09  2.52644E-09  2.51254E-09  2.49620E-09  2.47731E-09  2.45575E-09
   2.43139E-09  2.40421E-09  2.37419E-09  2.34131E-09  2.30556E-09  2.26694E-09  2.22543E-09  2.18105E-09  2.13378E-09  2.08364E-09
   2.03064E-09  1.97480E-09  1.91616E-09  1.85478E-09  1.79071E-09  1.72408E-09  1.65502E-09  1.58373E-09  1.51054E-09  1.43587E-09
   1.36041E-09  1.28526E-09  1.21222E-09  1.14451E-09  1.08853E-09  1.05895E-09  1.09915E-09  1.40480E-09  2.24903E-09  3.41468E-09
   4.77147E-09  6.00033E-09  6.69787E-09  6.72793E-09  6.30309E-09  5.69603E-09  4.88967E-09  3.59041E-09  1.72122E-09  5.71605E-11
  -4.92853E-10 -7.91556E-10 -1.00849E-09 -1.18842E-09 -1.34779E-09 -1.49393E-09 -1.63048E-09 -1.75936E-09 -1.88163E-09 -1.99783E-09
  -2.10823E-09 -2.21290E-09 -2.31181E-09 -2.40481E-09 -2.49174E-09 -2.57239E-09 -2.64660E-09 -2.71454E-09 -2.77642E-09 -2.83244E-09
  -2.88278E-09 -2.92763E-09 -2.96717E-09 -3.00156E-09 -3.03097E-09 -3.05558E-09 -3.07554E-09 -3.09101E-09 -3.10216E-09 -3.10915E-09
  -3.11212E-09 -3.11124E-09 -3.10667E-09 -3.09855E-09 -3.08704E-09 -3.07231E-09 -3.05449E-09 -3.03374E-09 -3.01022E-09 -2.98407E-09
  -2.95546E-09 -2.92452E-09 -2.89142E-09 -2.85631E-09 -2.81932E-09 -2.78060E-09 -2.74025E-09 -2.69841E-09 -2.65521E-09 -2.61076E-09
