 LCModel (Version 6.3-1R) Copyright: S.W. Provencher.          Ref.: Magn. Reson. Med. 30:672-679 (1993).                
 onepulse 19x19_ftSpec_smooth_lcm
 26 lines in following concentration table = NCONC+1
    Conc.  %SD   /Cr    Metabolite                                         
 5.83E-11 283%   0.000 Ala                                                 
 4.33E-10  79%   0.000 Asp                                                 
    0.000 999%   0.000 Cr                                                  
 2.51E-09  13%   0.000 GABA                                                
 1.62E-09  17%   0.000 Glc                                                 
    0.000 999%   0.000 Gln                                                 
 3.84E-10  93%   0.000 Glu                                                 
    0.000 999%   0.000 Glyc                                                
    0.000 999%   0.000 GPC                                                 
 1.39E-10 130%   0.000 GSH                                                 
 2.83E-10  66%   0.000 Ins                                                 
    0.000 999%   0.000 Lac                                                 
    0.000 999%   0.000 NAAG                                                
 9.72E-10  15%   0.000 NAA                                                 
 9.16E-11  49%   0.000 PCh                                                 
    0.000 999%   0.000 PCr                                                 
    0.000 999%   0.000 PE                                                  
    0.000 999%   0.000 Scyllo                                              
    0.000 999%   0.000 Ser                                                 
    0.000 999%   0.000 Tau                                                 
 9.16E-11  49%   0.000 GPC+PCh                                             
 9.72E-10  15%   0.000 NAA+NAAG                                            
 2.83E-10  66%   0.000 Ins+Glyc                                            
    0.000 999%   0.000 Cr+PCr                                              
 3.84E-10  93%   0.000 Glu+Gln                                             
   6 lines in following misc. output table
  FWHM = 0.067 ppm    S/N =   5                                            
  Data shift = 0.324 ppm                                                   
  Ph:  42 deg      28.5 deg/ppm                                            
  alphaB,S = 1.6E-01,   7.7E+01                                            
   16 spline knots.   Ns = 5(1)                                            
  ( 5) 2 infls.   ( 3) 1 extrs.                                            
  363 points on ppm-axis = NY
      4.250000     4.238821     4.227641     4.216462     4.205282     4.194103     4.182923     4.171744     4.160564     4.149385
      4.138206     4.127026     4.115847     4.104667     4.093488     4.082308     4.071129     4.059949     4.048770     4.037591
      4.026411     4.015232     4.004052     3.992873     3.981693     3.970514     3.959334     3.948155     3.936975     3.925796
      3.914617     3.903437     3.892258     3.881078     3.869899     3.858719     3.847540     3.836360     3.825181     3.814002
      3.802822     3.791643     3.780463     3.769284     3.758104     3.746925     3.735745     3.724566     3.713387     3.702207
      3.691028     3.679848     3.668669     3.657489     3.646310     3.635130     3.623951     3.612772     3.601592     3.590413
      3.579233     3.568054     3.556874     3.545695     3.534515     3.523336     3.512156     3.500977     3.489798     3.478618
      3.467439     3.456259     3.445080     3.433900     3.422721     3.411541     3.400362     3.389183     3.378003     3.366824
      3.355644     3.344465     3.333285     3.322106     3.310926     3.299747     3.288568     3.277388     3.266209     3.255029
      3.243850     3.232670     3.221491     3.210311     3.199132     3.187953     3.176773     3.165594     3.154414     3.143235
      3.132055     3.120876     3.109696     3.098517     3.087337     3.076158     3.064979     3.053799     3.042620     3.031440
      3.020261     3.009081     2.997902     2.986722     2.975543     2.964364     2.953184     2.942005     2.930825     2.919646
      2.908466     2.897287     2.886107     2.874928     2.863749     2.852569     2.841390     2.830210     2.819031     2.807851
      2.796672     2.785492     2.774313     2.763134     2.751954     2.740775     2.729595     2.718416     2.707236     2.696057
      2.684877     2.673698     2.662519     2.651339     2.640160     2.628980     2.617801     2.606621     2.595442     2.584262
      2.573083     2.561903     2.550724     2.539545     2.528365     2.517186     2.506006     2.494827     2.483647     2.472468
      2.461288     2.450109     2.438930     2.427750     2.416571     2.405391     2.394212     2.383032     2.371853     2.360673
      2.349494     2.338315     2.327135     2.315956     2.304776     2.293597     2.282417     2.271238     2.260058     2.248879
      2.237700     2.226520     2.215341     2.204161     2.192982     2.181802     2.170623     2.159443     2.148264     2.137084
      2.125905     2.114726     2.103546     2.092367     2.081187     2.070008     2.058828     2.047649     2.036469     2.025290
      2.014111     2.002931     1.991752     1.980572     1.969393     1.958213     1.947034     1.935854     1.924675     1.913496
      1.902316     1.891137     1.879957     1.868778     1.857598     1.846419     1.835239     1.824060     1.812881     1.801701
      1.790522     1.779342     1.768163     1.756983     1.745804     1.734624     1.723445     1.712265     1.701086     1.689907
      1.678727     1.667548     1.656368     1.645189     1.634009     1.622830     1.611650     1.600471     1.589292     1.578112
      1.566933     1.555753     1.544574     1.533394     1.522215     1.511035     1.499856     1.488677     1.477497     1.466318
      1.455138     1.443959     1.432779     1.421600     1.410420     1.399241     1.388062     1.376882     1.365703     1.354523
      1.343344     1.332164     1.320985     1.309805     1.298626     1.287446     1.276267     1.265088     1.253908     1.242729
      1.231549     1.220370     1.209190     1.198011     1.186831     1.175652     1.164473     1.153293     1.142114     1.130934
      1.119755     1.108575     1.097396     1.086216     1.075037     1.063858     1.052678     1.041499     1.030319     1.019140
      1.007960     0.996781     0.985601     0.974422     0.963243     0.952063     0.940884     0.929704     0.918525     0.907345
      0.896166     0.884986     0.873807     0.862628     0.851448     0.840269     0.829089     0.817910     0.806730     0.795551
      0.784371     0.773192     0.762012     0.750833     0.739654     0.728474     0.717295     0.706115     0.694936     0.683756
      0.672577     0.661397     0.650218     0.639039     0.627859     0.616680     0.605500     0.594321     0.583141     0.571962
      0.560782     0.549603     0.538424     0.527244     0.516065     0.504885     0.493706     0.482526     0.471347     0.460167
      0.448988     0.437809     0.426629     0.415450     0.404270     0.393091     0.381911     0.370732     0.359552     0.348373
      0.337193     0.326014     0.314835     0.303655     0.292476     0.281296     0.270117     0.258937     0.247758     0.236578
      0.225399     0.214220     0.203040
 NY phased data points follow
   2.07345E-10  2.42680E-09  5.99215E-09  6.74887E-09  9.53217E-09  8.55243E-09  7.60737E-09  6.14843E-09  5.60689E-09  4.10400E-09
   4.66374E-09  4.56389E-09  4.78850E-09  4.52673E-09  5.32281E-09  5.22446E-09  6.04181E-09  6.82908E-09  7.39071E-09  6.44185E-09
   6.77474E-09  6.08448E-09  7.21028E-09  6.43210E-09  5.32123E-09  5.58217E-09  6.17456E-09  6.65879E-09  7.14165E-09  6.84287E-09
   7.02425E-09  5.75626E-09  5.67430E-09  6.42001E-09  8.09060E-09  9.97044E-09  9.87370E-09  9.95449E-09  8.36979E-09  6.69907E-09
   5.92963E-09  5.30934E-09  5.49904E-09  4.21132E-09  5.50004E-09  4.40591E-09  4.59197E-09  4.94220E-09  4.36562E-09  3.68987E-09
   2.98692E-09  3.23694E-09  3.47221E-09  3.31521E-09  4.44475E-09  3.97885E-09  4.10111E-09  2.85343E-09  3.56040E-09  2.99476E-09
   2.64802E-09  3.80642E-09  4.66304E-09  4.83463E-09  6.08256E-09  8.73598E-09  1.09033E-08  1.18376E-08  1.04980E-08  8.25072E-09
   6.70225E-09  5.67732E-09  5.88230E-09  4.42590E-09  3.59471E-09  3.17167E-09  3.93344E-09  2.46177E-09  3.15160E-09  3.48732E-09
   4.65448E-09  7.36281E-09  1.15186E-08  1.36473E-08  1.26164E-08  1.09408E-08  9.42089E-09  7.91788E-09  7.86789E-09  6.16553E-09
   6.12056E-09  5.89350E-09  5.46403E-09  5.40805E-09  5.84849E-09  4.46799E-09  4.39354E-09  3.67074E-09  4.28212E-09  3.09774E-09
   2.87819E-09  3.13859E-09  3.00021E-09  3.77570E-09  2.77737E-09  4.01573E-09  3.28856E-09  3.56950E-09  3.66746E-09  3.39687E-09
   3.48792E-09  2.32115E-09  2.63035E-09  1.87498E-09  2.56541E-09  2.78785E-09  3.50066E-09  2.95659E-09  4.04271E-09  3.70058E-09
   3.92114E-09  3.85157E-09  3.97811E-09  3.03428E-09  3.41477E-09  2.37145E-09  2.03009E-09  1.53074E-09  2.29858E-09  1.97770E-09
   2.44000E-09  2.76134E-09  2.92598E-09  2.49126E-09  3.17747E-09  3.78570E-09  2.72765E-09  2.60025E-09  2.94022E-09  2.03773E-09
   3.07591E-09  3.47697E-09  4.00772E-09  4.87296E-09  4.73435E-09  3.30372E-09  3.69158E-09  4.10154E-09  4.48458E-09  4.98557E-09
   4.48065E-09  4.38992E-09  3.92117E-09  4.01569E-09  4.52813E-09  4.06902E-09  4.33152E-09  4.21205E-09  4.62379E-09  4.42565E-09
   5.36861E-09  5.14856E-09  5.35231E-09  5.18646E-09  5.84088E-09  6.34572E-09  6.76916E-09  7.16184E-09  7.26340E-09  7.87303E-09
   1.00194E-08  1.16202E-08  1.42655E-08  1.70341E-08  1.73628E-08  1.36374E-08  1.03047E-08  6.64673E-09  4.79044E-09  4.28690E-09
   4.30791E-09  2.70732E-09  2.90081E-09  2.15269E-09  2.14959E-09  1.41156E-09  1.75381E-09 -3.80044E-11  7.67452E-10 -3.91951E-10
  -5.48312E-10 -6.68578E-10 -1.13247E-09 -2.79436E-09 -2.81972E-09 -3.44341E-09 -4.22443E-09 -5.49371E-09 -5.84070E-09 -7.08091E-09
  -7.86000E-09 -8.40811E-09 -9.38349E-09 -9.65406E-09 -9.95204E-09 -1.05211E-08 -1.05705E-08 -1.07079E-08 -9.98207E-09 -9.63325E-09
  -8.97403E-09 -9.02259E-09 -6.82214E-09 -5.89978E-09 -5.33858E-09 -4.55552E-09 -3.05259E-09 -3.00389E-09 -2.47840E-09 -1.95413E-09
  -1.77590E-09 -2.29126E-09 -2.75821E-09 -2.34618E-09 -1.80446E-09 -3.13303E-09 -2.26914E-09 -1.95657E-09 -2.15879E-09 -2.08610E-09
  -2.22025E-09 -1.78078E-09 -1.98263E-09 -2.13183E-09 -2.06860E-09 -3.06229E-09 -2.13306E-09 -2.31903E-09 -1.84578E-09 -1.75051E-09
  -2.47075E-09 -9.62590E-10 -1.48427E-09 -1.88063E-09 -1.80299E-09 -2.51428E-09 -1.98331E-09 -1.93716E-09 -1.91370E-09 -2.10773E-09
  -1.85745E-09 -1.41677E-09 -1.05450E-09 -1.43854E-09 -1.12539E-09 -7.52883E-10 -1.78289E-09 -1.39092E-09 -1.53893E-09 -1.94838E-09
  -1.38442E-09 -1.88801E-09 -2.16617E-09 -3.00360E-09 -2.45352E-09 -2.13669E-09 -1.31756E-09 -1.62740E-09 -7.08723E-10 -1.01732E-09
  -8.56896E-10 -7.38876E-10 -7.17045E-10 -7.02485E-10 -3.75039E-10 -4.59702E-10 -7.08232E-10 -1.11086E-09 -1.22809E-09 -1.84049E-09
  -1.69941E-09 -1.32309E-09 -2.16579E-09 -1.95637E-09 -1.31002E-09 -2.05014E-09 -1.63671E-09 -1.53831E-09 -1.47033E-09 -1.51227E-09
  -1.13152E-09 -1.63184E-09 -1.62450E-09 -1.36273E-09 -7.82000E-10 -1.02736E-09 -1.69905E-09 -1.20043E-09 -9.35414E-10 -1.44666E-09
  -1.40913E-09 -5.71559E-10 -1.00475E-09 -1.29414E-09 -1.13581E-09 -1.48816E-09 -8.20841E-10 -9.74429E-10 -9.72346E-10 -1.06813E-09
  -1.07350E-09 -1.57635E-09 -9.60380E-10 -5.60675E-10 -7.56773E-10 -8.28496E-10 -8.77053E-10 -7.92223E-10 -1.06622E-09 -9.78642E-10
  -4.12330E-10 -7.32398E-10 -9.69044E-10 -7.90666E-10 -1.23560E-09 -4.42764E-10 -5.26146E-10 -1.05970E-09 -2.90856E-10 -4.86282E-10
  -1.13487E-10 -1.03887E-09 -3.99957E-10 -1.13943E-09 -6.45341E-10 -7.82018E-10 -5.89100E-10 -7.73305E-10 -9.42538E-10 -3.83043E-10
  -6.66688E-10 -1.08013E-09 -6.59564E-10  2.63538E-10 -4.89998E-10 -1.16707E-09 -3.48416E-10 -7.92698E-10 -5.10325E-10 -3.58577E-10
  -7.08458E-10 -4.10878E-10 -6.35532E-10 -2.75644E-10 -4.62505E-10 -1.80149E-10 -5.86993E-10 -7.14610E-10 -7.02121E-10 -6.68292E-10
  -3.23525E-10 -6.53235E-10 -5.77448E-10
 NY points of the fit to the data follow
   3.66040E-09  4.36827E-09  5.19612E-09  6.05891E-09  6.75240E-09  7.08392E-09  6.96046E-09  6.44794E-09  5.80484E-09  5.11689E-09
   4.69133E-09  4.55788E-09  4.61314E-09  4.80226E-09  5.10451E-09  5.44260E-09  5.79762E-09  6.20618E-09  6.64744E-09  7.10045E-09
   7.55827E-09  7.75904E-09  7.49643E-09  6.87883E-09  6.08096E-09  5.32752E-09  4.96004E-09  5.19504E-09  5.81261E-09  6.41116E-09
   6.85358E-09  7.27777E-09  7.54006E-09  7.62958E-09  7.77375E-09  8.08817E-09  8.38487E-09  8.43784E-09  8.18117E-09  7.75695E-09
   7.26411E-09  6.37660E-09  5.42240E-09  4.85637E-09  4.21139E-09  3.55326E-09  3.25238E-09  3.14362E-09  3.20328E-09  3.33197E-09
   3.44626E-09  3.47891E-09  3.44551E-09  3.39080E-09  3.39280E-09  3.49382E-09  3.65509E-09  3.79802E-09  3.82831E-09  3.80429E-09
   3.92085E-09  4.23141E-09  4.73521E-09  5.53675E-09  6.53527E-09  7.42012E-09  8.14514E-09  8.69582E-09  8.99062E-09  8.89559E-09
   8.38917E-09  7.52001E-09  6.52306E-09  5.48572E-09  4.49394E-09  3.97573E-09  3.85144E-09  4.12825E-09  4.74094E-09  5.65052E-09
   6.82954E-09  8.37862E-09  1.01128E-08  1.14216E-08  1.19061E-08  1.14581E-08  1.01552E-08  8.43959E-09  6.94242E-09  6.44663E-09
   6.31282E-09  6.15622E-09  5.77796E-09  5.41512E-09  5.12191E-09  4.64335E-09  4.19791E-09  3.92073E-09  3.65350E-09  3.43155E-09
   3.29908E-09  3.21688E-09  3.17191E-09  3.16609E-09  3.18341E-09  3.21053E-09  3.23663E-09  3.25321E-09  3.25670E-09  3.24518E-09
   3.21994E-09  3.19224E-09  3.17388E-09  3.14478E-09  3.12230E-09  3.12852E-09  3.14494E-09  3.16599E-09  3.18963E-09  3.21486E-09
   3.24108E-09  3.26783E-09  3.29480E-09  3.32171E-09  3.34835E-09  3.37451E-09  3.40004E-09  3.42477E-09  3.44856E-09  3.47127E-09
   3.49278E-09  3.51296E-09  3.53169E-09  3.54884E-09  3.56431E-09  3.57798E-09  3.58976E-09  3.59954E-09  3.60724E-09  3.61276E-09
   3.61598E-09  3.61676E-09  3.61495E-09  3.61038E-09  3.60291E-09  3.59239E-09  3.57869E-09  3.56167E-09  3.54120E-09  3.51719E-09
   3.48955E-09  3.45824E-09  3.42322E-09  3.38451E-09  3.34220E-09  3.29645E-09  3.24756E-09  3.19600E-09  3.14253E-09  3.08839E-09
   3.03558E-09  2.98756E-09  2.95078E-09  2.93874E-09  2.98719E-09  3.23739E-09  3.92012E-09  5.11560E-09  6.72807E-09  8.72704E-09
   1.11986E-08  1.39251E-08  1.62425E-08  1.72762E-08  1.64018E-08  1.36115E-08  9.57645E-09  5.50809E-09  2.59173E-09  1.12272E-09
   5.07263E-10  1.17581E-10 -1.86404E-10 -4.48026E-10 -6.85053E-10 -9.06017E-10 -1.11536E-09 -1.31551E-09 -1.50778E-09 -1.69288E-09
  -1.87110E-09 -2.04251E-09 -2.20698E-09 -2.36428E-09 -2.51413E-09 -2.65616E-09 -2.79011E-09 -2.91611E-09 -3.03436E-09 -3.14504E-09
  -3.24831E-09 -3.34432E-09 -3.43322E-09 -3.51516E-09 -3.59026E-09 -3.65865E-09 -3.72048E-09 -3.77585E-09 -3.82488E-09 -3.86771E-09
  -3.90445E-09 -3.93521E-09 -3.96010E-09 -3.97926E-09 -3.99279E-09 -4.00080E-09 -4.00340E-09 -4.00072E-09 -3.99285E-09 -3.97991E-09
  -3.96202E-09 -3.93928E-09 -3.91180E-09 -3.87970E-09 -3.84313E-09 -3.80235E-09 -3.75761E-09 -3.70918E-09 -3.65733E-09 -3.60232E-09
  -3.54442E-09 -3.48388E-09 -3.42098E-09 -3.35598E-09 -3.28913E-09 -3.22070E-09 -3.15096E-09 -3.08017E-09 -3.00857E-09 -2.93646E-09
  -2.86409E-09 -2.79171E-09 -2.71959E-09 -2.64801E-09 -2.57719E-09 -2.50743E-09 -2.43898E-09 -2.37209E-09 -2.30705E-09 -2.24410E-09
  -2.18349E-09 -2.12552E-09 -2.07027E-09 -2.01768E-09 -1.96766E-09 -1.92013E-09 -1.87499E-09 -1.83216E-09 -1.79155E-09 -1.75309E-09
  -1.71667E-09 -1.68221E-09 -1.64963E-09 -1.61883E-09 -1.58974E-09 -1.56227E-09 -1.53630E-09 -1.51180E-09 -1.48865E-09 -1.46675E-09
  -1.44604E-09 -1.42642E-09 -1.40781E-09 -1.39011E-09 -1.37325E-09 -1.35712E-09 -1.34167E-09 -1.32678E-09 -1.31238E-09 -1.29838E-09
  -1.28473E-09 -1.27141E-09 -1.25840E-09 -1.24569E-09 -1.23327E-09 -1.22111E-09 -1.20920E-09 -1.19752E-09 -1.18606E-09 -1.17479E-09
  -1.16370E-09 -1.15278E-09 -1.14200E-09 -1.13135E-09 -1.12082E-09 -1.11038E-09 -1.10002E-09 -1.08972E-09 -1.07948E-09 -1.06925E-09
  -1.05904E-09 -1.04883E-09 -1.03859E-09 -1.02832E-09 -1.01799E-09 -1.00759E-09 -9.97110E-10 -9.86515E-10 -9.75820E-10 -9.65030E-10
  -9.54156E-10 -9.43209E-10 -9.32198E-10 -9.21130E-10 -9.10018E-10 -8.98871E-10 -8.87698E-10 -8.76509E-10 -8.65314E-10 -8.54121E-10
  -8.42946E-10 -8.31789E-10 -8.20665E-10 -8.09586E-10 -7.98556E-10 -7.87592E-10 -7.76698E-10 -7.65883E-10 -7.55160E-10 -7.44541E-10
  -7.34028E-10 -7.23636E-10 -7.13372E-10 -7.03249E-10 -6.93276E-10 -6.83456E-10 -6.73792E-10 -6.64278E-10 -6.54906E-10 -6.45670E-10
  -6.36564E-10 -6.27581E-10 -6.18716E-10 -6.09962E-10 -6.01315E-10 -5.92764E-10 -5.84310E-10 -5.75941E-10 -5.67654E-10 -5.59441E-10
  -5.51295E-10 -5.43214E-10 -5.35187E-10 -5.27212E-10 -5.19280E-10 -5.11386E-10 -5.03525E-10 -4.95687E-10 -4.87869E-10 -4.80066E-10
  -4.72271E-10 -4.64478E-10 -4.56677E-10
 NY background values follow
    -8.792E-10   -8.469E-10   -8.148E-10   -7.827E-10   -7.506E-10   -7.187E-10   -6.869E-10   -6.552E-10   -6.237E-10   -5.924E-10
    -5.613E-10   -5.303E-10   -4.997E-10   -4.693E-10   -4.392E-10   -4.093E-10   -3.798E-10   -3.507E-10   -3.219E-10   -2.934E-10
    -2.654E-10   -2.378E-10   -2.107E-10   -1.840E-10   -1.578E-10   -1.320E-10   -1.069E-10   -8.220E-11   -5.811E-11   -3.459E-11
    -1.163E-11    1.079E-11    3.268E-11    5.406E-11    7.496E-11    9.538E-11    1.153E-10    1.349E-10    1.539E-10    1.726E-10
     1.909E-10    2.089E-10    2.264E-10    2.436E-10    2.605E-10    2.771E-10    2.935E-10    3.095E-10    3.253E-10    3.408E-10
     3.561E-10    3.712E-10    3.862E-10    4.009E-10    4.155E-10    4.300E-10    4.444E-10    4.586E-10    4.728E-10    4.870E-10
     5.013E-10    5.156E-10    5.301E-10    5.447E-10    5.596E-10    5.748E-10    5.903E-10    6.061E-10    6.223E-10    6.390E-10
     6.562E-10    6.740E-10    6.924E-10    7.113E-10    7.310E-10    7.514E-10    7.726E-10    7.946E-10    8.175E-10    8.413E-10
     8.660E-10    8.918E-10    9.186E-10    9.465E-10    9.756E-10    1.006E-09    1.037E-09    1.069E-09    1.103E-09    1.137E-09
     1.173E-09    1.209E-09    1.246E-09    1.284E-09    1.322E-09    1.361E-09    1.401E-09    1.442E-09    1.483E-09    1.525E-09
     1.567E-09    1.610E-09    1.653E-09    1.696E-09    1.740E-09    1.784E-09    1.828E-09    1.873E-09    1.917E-09    1.962E-09
     2.007E-09    2.051E-09    2.096E-09    2.141E-09    2.185E-09    2.229E-09    2.273E-09    2.316E-09    2.359E-09    2.401E-09
     2.442E-09    2.482E-09    2.522E-09    2.560E-09    2.597E-09    2.633E-09    2.668E-09    2.701E-09    2.733E-09    2.763E-09
     2.792E-09    2.819E-09    2.843E-09    2.866E-09    2.887E-09    2.906E-09    2.922E-09    2.936E-09    2.947E-09    2.957E-09
     2.963E-09    2.967E-09    2.967E-09    2.965E-09    2.959E-09    2.950E-09    2.937E-09    2.920E-09    2.899E-09    2.875E-09
     2.845E-09    2.812E-09    2.773E-09    2.730E-09    2.682E-09    2.628E-09    2.569E-09    2.505E-09    2.435E-09    2.358E-09
     2.276E-09    2.188E-09    2.093E-09    1.992E-09    1.883E-09    1.768E-09    1.646E-09    1.517E-09    1.380E-09    1.236E-09
     1.086E-09    9.294E-10    7.678E-10    6.015E-10    4.308E-10    2.565E-10    7.888E-11   -1.014E-10   -2.837E-10   -4.677E-10
    -6.527E-10   -8.382E-10   -1.024E-09   -1.209E-09   -1.392E-09   -1.575E-09   -1.755E-09   -1.932E-09   -2.106E-09   -2.276E-09
    -2.442E-09   -2.603E-09   -2.759E-09   -2.908E-09   -3.052E-09   -3.188E-09   -3.317E-09   -3.438E-09   -3.552E-09   -3.659E-09
    -3.759E-09   -3.851E-09   -3.937E-09   -4.017E-09   -4.089E-09   -4.155E-09   -4.215E-09   -4.268E-09   -4.315E-09   -4.356E-09
    -4.391E-09   -4.420E-09   -4.443E-09   -4.461E-09   -4.473E-09   -4.479E-09   -4.481E-09   -4.477E-09   -4.468E-09   -4.453E-09
    -4.434E-09   -4.410E-09   -4.382E-09   -4.349E-09   -4.311E-09   -4.269E-09   -4.223E-09   -4.174E-09   -4.121E-09   -4.065E-09
    -4.006E-09   -3.945E-09   -3.881E-09   -3.815E-09   -3.748E-09   -3.679E-09   -3.608E-09   -3.536E-09   -3.464E-09   -3.391E-09
    -3.318E-09   -3.245E-09   -3.172E-09   -3.100E-09   -3.028E-09   -2.958E-09   -2.889E-09   -2.821E-09   -2.755E-09   -2.692E-09
    -2.631E-09   -2.572E-09   -2.516E-09   -2.463E-09   -2.412E-09   -2.364E-09   -2.319E-09   -2.275E-09   -2.234E-09   -2.195E-09
    -2.158E-09   -2.123E-09   -2.090E-09   -2.059E-09   -2.029E-09   -2.001E-09   -1.974E-09   -1.949E-09   -1.926E-09   -1.903E-09
    -1.882E-09   -1.862E-09   -1.843E-09   -1.825E-09   -1.808E-09   -1.791E-09   -1.775E-09   -1.760E-09   -1.745E-09   -1.730E-09
    -1.716E-09   -1.703E-09   -1.689E-09   -1.676E-09   -1.663E-09   -1.651E-09   -1.638E-09   -1.626E-09   -1.614E-09   -1.603E-09
    -1.591E-09   -1.580E-09   -1.569E-09   -1.558E-09   -1.547E-09   -1.536E-09   -1.525E-09   -1.514E-09   -1.504E-09   -1.493E-09
    -1.483E-09   -1.472E-09   -1.461E-09   -1.451E-09   -1.440E-09   -1.429E-09   -1.419E-09   -1.408E-09   -1.397E-09   -1.385E-09
    -1.374E-09   -1.363E-09   -1.352E-09   -1.340E-09   -1.329E-09   -1.317E-09   -1.306E-09   -1.294E-09   -1.283E-09   -1.271E-09
    -1.260E-09   -1.248E-09   -1.237E-09   -1.225E-09   -1.214E-09   -1.203E-09   -1.192E-09   -1.180E-09   -1.169E-09   -1.158E-09
    -1.148E-09   -1.137E-09   -1.126E-09   -1.116E-09   -1.106E-09   -1.096E-09   -1.086E-09   -1.076E-09   -1.066E-09   -1.057E-09
    -1.047E-09   -1.038E-09   -1.029E-09   -1.020E-09   -1.011E-09   -1.002E-09   -9.933E-10   -9.846E-10   -9.760E-10   -9.676E-10
    -9.591E-10   -9.508E-10   -9.425E-10   -9.342E-10   -9.260E-10   -9.178E-10   -9.097E-10   -9.016E-10   -8.935E-10   -8.854E-10
    -8.773E-10   -8.693E-10   -8.612E-10
 Ala      Conc. = 5.83E-11
  -8.45708E-10 -8.07701E-10 -7.70689E-10 -7.34651E-10 -7.00091E-10 -6.66853E-10 -6.35625E-10 -6.07736E-10 -5.79966E-10 -5.51852E-10
  -5.27656E-10 -5.03194E-10 -4.76135E-10 -4.50050E-10 -4.23909E-10 -3.96620E-10 -3.68865E-10 -3.40987E-10 -3.13167E-10 -2.85520E-10
  -2.58126E-10 -2.31040E-10 -2.04316E-10 -1.77985E-10 -1.52080E-10 -1.26640E-10 -1.01685E-10 -7.72397E-11 -5.33336E-11 -2.99803E-11
  -7.16963E-12  1.51151E-11  3.68861E-11  5.81598E-11  7.89519E-11  9.92773E-11  1.19152E-10  1.38591E-10  1.57613E-10  1.76234E-10
   1.94467E-10  2.12333E-10  2.29844E-10  2.47021E-10  2.63875E-10  2.80430E-10  2.96697E-10  3.12692E-10  3.28438E-10  3.43946E-10
   3.59233E-10  3.74322E-10  3.89222E-10  4.03955E-10  4.18529E-10  4.32976E-10  4.47306E-10  4.61543E-10  4.75733E-10  4.89923E-10
   5.04158E-10  5.18484E-10  5.32947E-10  5.47593E-10  5.62467E-10  5.77616E-10  5.93085E-10  6.08921E-10  6.25170E-10  6.41878E-10
   6.59090E-10  6.76854E-10  6.95214E-10  7.14219E-10  7.33913E-10  7.54344E-10  7.75558E-10  7.97602E-10  8.20522E-10  8.44366E-10
   8.69181E-10  8.95014E-10  9.21915E-10  9.49930E-10  9.79108E-10  1.00946E-09  1.04094E-09  1.07352E-09  1.10716E-09  1.14183E-09
   1.17750E-09  1.21415E-09  1.25177E-09  1.29036E-09  1.32995E-09  1.37060E-09  1.41249E-09  1.45597E-09  1.50194E-09  1.55341E-09
   1.61617E-09  1.68003E-09  1.74922E-09  1.83555E-09  1.92910E-09  2.02015E-09  2.10054E-09  2.16385E-09  2.20814E-09  2.23283E-09
   2.24000E-09  2.24133E-09  2.24904E-09  2.24338E-09  2.24205E-09  2.26761E-09  2.30182E-09  2.33926E-09  2.37804E-09  2.41726E-09
   2.45643E-09  2.49522E-09  2.53339E-09  2.57077E-09  2.60719E-09  2.64252E-09  2.67664E-09  2.70942E-09  2.74078E-09  2.77058E-09
   2.79874E-09  2.82515E-09  2.84972E-09  2.87234E-09  2.89291E-09  2.91135E-09  2.92755E-09  2.94142E-09  2.95286E-09  2.96178E-09
   2.96808E-09  2.97161E-09  2.97219E-09  2.96966E-09  2.96383E-09  2.95453E-09  2.94160E-09  2.92485E-09  2.90411E-09  2.87921E-09
   2.84998E-09  2.81624E-09  2.77783E-09  2.73456E-09  2.68628E-09  2.63279E-09  2.57396E-09  2.50958E-09  2.43952E-09  2.36359E-09
   2.28165E-09  2.19354E-09  2.09915E-09  1.99836E-09  1.89119E-09  1.77796E-09  1.66056E-09  1.54395E-09  1.42214E-09  1.29602E-09
   1.16903E-09  1.04112E-09  9.06965E-10  7.57411E-10  5.84519E-10  3.87500E-10  1.72547E-10 -4.92920E-11 -2.62810E-10 -4.55468E-10
  -6.43837E-10 -8.31088E-10 -1.01762E-09 -1.20323E-09 -1.38753E-09 -1.57006E-09 -1.75032E-09 -1.92781E-09 -2.10200E-09 -2.27236E-09
  -2.43836E-09 -2.59949E-09 -2.75520E-09 -2.90493E-09 -3.04818E-09 -3.18440E-09 -3.31319E-09 -3.43457E-09 -3.54866E-09 -3.65556E-09
  -3.75538E-09 -3.84822E-09 -3.93420E-09 -4.01343E-09 -4.08601E-09 -4.15205E-09 -4.21166E-09 -4.26495E-09 -4.31202E-09 -4.35298E-09
  -4.38795E-09 -4.41702E-09 -4.44031E-09 -4.45793E-09 -4.46998E-09 -4.47658E-09 -4.47782E-09 -4.47382E-09 -4.46469E-09 -4.45053E-09
  -4.43145E-09 -4.40756E-09 -4.37897E-09 -4.34578E-09 -4.30816E-09 -4.26636E-09 -4.22062E-09 -4.17123E-09 -4.11843E-09 -4.06250E-09
  -4.00370E-09 -3.94228E-09 -3.87852E-09 -3.81267E-09 -3.74499E-09 -3.67575E-09 -3.60521E-09 -3.53364E-09 -3.46128E-09 -3.38843E-09
  -3.31532E-09 -3.24221E-09 -3.16938E-09 -3.09710E-09 -3.02560E-09 -2.95516E-09 -2.88604E-09 -2.81850E-09 -2.75281E-09 -2.68923E-09
  -2.62800E-09 -2.56941E-09 -2.51355E-09 -2.46036E-09 -2.40974E-09 -2.36163E-09 -2.31592E-09 -2.27252E-09 -2.23136E-09 -2.19234E-09
  -2.15537E-09 -2.12037E-09 -2.08726E-09 -2.05594E-09 -2.02633E-09 -1.99834E-09 -1.97187E-09 -1.94686E-09 -1.92322E-09 -1.90084E-09
  -1.87963E-09 -1.85954E-09 -1.84045E-09 -1.82228E-09 -1.80496E-09 -1.78838E-09 -1.77247E-09 -1.75713E-09 -1.74229E-09 -1.72784E-09
  -1.71375E-09 -1.70000E-09 -1.68657E-09 -1.67344E-09 -1.66060E-09 -1.64802E-09 -1.63570E-09 -1.62361E-09 -1.61174E-09 -1.60007E-09
  -1.58858E-09 -1.57727E-09 -1.56610E-09 -1.55506E-09 -1.54414E-09 -1.53332E-09 -1.52259E-09 -1.51192E-09 -1.50130E-09 -1.49070E-09
  -1.48013E-09 -1.46955E-09 -1.45896E-09 -1.44833E-09 -1.43765E-09 -1.42689E-09 -1.41606E-09 -1.40512E-09 -1.39408E-09 -1.38295E-09
  -1.37173E-09 -1.36045E-09 -1.34910E-09 -1.33770E-09 -1.32626E-09 -1.31478E-09 -1.30328E-09 -1.29177E-09 -1.28025E-09 -1.26873E-09
  -1.25724E-09 -1.24577E-09 -1.23433E-09 -1.22293E-09 -1.21159E-09 -1.20032E-09 -1.18911E-09 -1.17799E-09 -1.16696E-09 -1.15604E-09
  -1.14523E-09 -1.13453E-09 -1.12397E-09 -1.11355E-09 -1.10328E-09 -1.09316E-09 -1.08321E-09 -1.07340E-09 -1.06373E-09 -1.05421E-09
  -1.04481E-09 -1.03554E-09 -1.02639E-09 -1.01735E-09 -1.00842E-09 -9.99583E-10 -9.90846E-10 -9.82195E-10 -9.73627E-10 -9.65133E-10
  -9.56707E-10 -9.48347E-10 -9.40042E-10 -9.31789E-10 -9.23580E-10 -9.15411E-10 -9.07274E-10 -8.99161E-10 -8.91069E-10 -8.82992E-10
  -8.74923E-10 -8.66858E-10 -8.58783E-10
 Asp      Conc. = 4.33E-10
  -3.30569E-10 -3.39694E-10 -3.55789E-10 -3.85608E-10 -4.24241E-10 -4.74229E-10 -5.11283E-10 -5.35025E-10 -5.32506E-10 -5.18888E-10
  -4.99513E-10 -4.76679E-10 -4.51657E-10 -4.25320E-10 -3.98476E-10 -3.71410E-10 -3.44173E-10 -3.16866E-10 -2.89571E-10 -2.62359E-10
  -2.35288E-10 -2.08402E-10 -1.81741E-10 -1.55326E-10 -1.29175E-10 -1.03308E-10 -7.77169E-11 -5.23896E-11 -2.73035E-11 -2.40090E-12
   2.24303E-11  4.73572E-11  7.26228E-11  9.86219E-11  1.26057E-10  1.56420E-10  1.93498E-10  2.34219E-10  2.82751E-10  3.33885E-10
   3.86765E-10  4.40129E-10  4.91015E-10  5.39355E-10  5.78125E-10  6.26051E-10  6.77073E-10  7.51704E-10  8.81909E-10  1.03722E-09
   1.17626E-09  1.24827E-09  1.23658E-09  1.15566E-09  1.04670E-09  9.58307E-10  8.94387E-10  8.70522E-10  8.22614E-10  7.62507E-10
   7.38765E-10  7.39862E-10  7.47355E-10  7.59943E-10  7.66097E-10  7.54557E-10  7.33337E-10  7.26154E-10  7.26835E-10  7.32123E-10
   7.40518E-10  7.51231E-10  7.63810E-10  7.77976E-10  7.93558E-10  8.10447E-10  8.28575E-10  8.47903E-10  8.68413E-10  8.90099E-10
   9.12967E-10  9.37030E-10  9.62310E-10  9.88829E-10  1.01661E-09  1.04566E-09  1.07590E-09  1.10729E-09  1.13977E-09  1.17329E-09
   1.20781E-09  1.24327E-09  1.27962E-09  1.31681E-09  1.35480E-09  1.39354E-09  1.43299E-09  1.47309E-09  1.51380E-09  1.55507E-09
   1.59686E-09  1.63912E-09  1.68181E-09  1.72488E-09  1.76829E-09  1.81198E-09  1.85592E-09  1.90007E-09  1.94437E-09  1.98878E-09
   2.03326E-09  2.07776E-09  2.12224E-09  2.16662E-09  2.21080E-09  2.25471E-09  2.29823E-09  2.34129E-09  2.38378E-09  2.42561E-09
   2.46669E-09  2.50692E-09  2.54621E-09  2.58447E-09  2.62160E-09  2.65752E-09  2.69212E-09  2.72531E-09  2.75701E-09  2.78711E-09
   2.81553E-09  2.84217E-09  2.86693E-09  2.88974E-09  2.91048E-09  2.92907E-09  2.94542E-09  2.95943E-09  2.97102E-09  2.98008E-09
   2.98652E-09  2.99020E-09  2.99093E-09  2.98856E-09  2.98290E-09  2.97379E-09  2.96106E-09  2.94454E-09  2.92405E-09  2.89943E-09
   2.87051E-09  2.83713E-09  2.79912E-09  2.75633E-09  2.70859E-09  2.65576E-09  2.59768E-09  2.53423E-09  2.46529E-09  2.39076E-09
   2.31058E-09  2.22477E-09  2.13349E-09  2.03710E-09  1.93667E-09  1.83517E-09  1.74459E-09  1.70801E-09  1.68232E-09  1.66743E-09
   1.68597E-09  1.73770E-09  1.78336E-09  1.75248E-09  1.57903E-09  1.24813E-09  7.98248E-10  3.04857E-10 -1.25067E-10 -3.84205E-10
  -5.95988E-10 -7.94631E-10 -9.87701E-10 -1.17745E-09 -1.36454E-09 -1.54906E-09 -1.73078E-09 -1.90937E-09 -2.08441E-09 -2.25544E-09
  -2.42199E-09 -2.58356E-09 -2.73963E-09 -2.88966E-09 -3.03317E-09 -3.16961E-09 -3.29858E-09 -3.42013E-09 -3.53436E-09 -3.64138E-09
  -3.74131E-09 -3.83425E-09 -3.92032E-09 -3.99962E-09 -4.07227E-09 -4.13837E-09 -4.19804E-09 -4.25138E-09 -4.29850E-09 -4.33951E-09
  -4.37452E-09 -4.40363E-09 -4.42696E-09 -4.44461E-09 -4.45670E-09 -4.46332E-09 -4.46460E-09 -4.46062E-09 -4.45152E-09 -4.43738E-09
  -4.41833E-09 -4.39446E-09 -4.36589E-09 -4.33273E-09 -4.29513E-09 -4.25334E-09 -4.20763E-09 -4.15825E-09 -4.10547E-09 -4.04956E-09
