 LCModel (Version 6.3-1R) Copyright: S.W. Provencher.          Ref.: Magn. Reson. Med. 30:672-679 (1993).                
 onepulse 19x18_ftSpec_smooth_lcm
 26 lines in following concentration table = NCONC+1
    Conc.  %SD   /Cr    Metabolite                                         
 6.71E-11 238%   0.000 Ala                                                 
 4.66E-10  71%   0.000 Asp                                                 
    0.000 999%   0.000 Cr                                                  
 2.53E-09  13%   0.000 GABA                                                
 1.53E-09  24%   0.000 Glc                                                 
    0.000 999%   0.000 Gln                                                 
 4.37E-10  79%   0.000 Glu                                                 
    0.000 999%   0.000 Glyc                                                
    0.000 999%   0.000 GPC                                                 
 8.14E-11 242%   0.000 GSH                                                 
 2.63E-10  77%   0.000 Ins                                                 
    0.000 999%   0.000 Lac                                                 
    0.000 999%   0.000 NAAG                                                
 9.46E-10  15%   0.000 NAA                                                 
 9.48E-11  46%   0.000 PCh                                                 
    0.000 999%   0.000 PCr                                                 
    0.000 999%   0.000 PE                                                  
 1.64E-12 999%   0.000 Scyllo                                              
    0.000 999%   0.000 Ser                                                 
    0.000 999%   0.000 Tau                                                 
 9.48E-11  46%   0.000 GPC+PCh                                             
 9.46E-10  15%   0.000 NAA+NAAG                                            
 2.63E-10  77%   0.000 Ins+Glyc                                            
    0.000 999%   0.000 Cr+PCr                                              
 4.37E-10  79%   0.000 Glu+Gln                                             
   6 lines in following misc. output table
  FWHM = 0.067 ppm    S/N =   5                                            
  Data shift = 0.324 ppm                                                   
  Ph:  45 deg      29.5 deg/ppm                                            
  alphaB,S = 1.7E-01,   7.9E+01                                            
   16 spline knots.   Ns = 5(1)                                            
  ( 5) 2 infls.   ( 3) 1 extrs.                                            
  363 points on ppm-axis = NY
      4.250000     4.238821     4.227641     4.216462     4.205282     4.194103     4.182923     4.171744     4.160564     4.149385
      4.138206     4.127026     4.115847     4.104667     4.093488     4.082308     4.071129     4.059949     4.048770     4.037591
      4.026411     4.015232     4.004052     3.992873     3.981693     3.970514     3.959334     3.948155     3.936975     3.925796
      3.914617     3.903437     3.892258     3.881078     3.869899     3.858719     3.847540     3.836360     3.825181     3.814002
      3.802822     3.791643     3.780463     3.769284     3.758104     3.746925     3.735745     3.724566     3.713387     3.702207
      3.691028     3.679848     3.668669     3.657489     3.646310     3.635130     3.623951     3.612772     3.601592     3.590413
      3.579233     3.568054     3.556874     3.545695     3.534515     3.523336     3.512156     3.500977     3.489798     3.478618
      3.467439     3.456259     3.445080     3.433900     3.422721     3.411541     3.400362     3.389183     3.378003     3.366824
      3.355644     3.344465     3.333285     3.322106     3.310926     3.299747     3.288568     3.277388     3.266209     3.255029
      3.243850     3.232670     3.221491     3.210311     3.199132     3.187953     3.176773     3.165594     3.154414     3.143235
      3.132055     3.120876     3.109696     3.098517     3.087337     3.076158     3.064979     3.053799     3.042620     3.031440
      3.020261     3.009081     2.997902     2.986722     2.975543     2.964364     2.953184     2.942005     2.930825     2.919646
      2.908466     2.897287     2.886107     2.874928     2.863749     2.852569     2.841390     2.830210     2.819031     2.807851
      2.796672     2.785492     2.774313     2.763134     2.751954     2.740775     2.729595     2.718416     2.707236     2.696057
      2.684877     2.673698     2.662519     2.651339     2.640160     2.628980     2.617801     2.606621     2.595442     2.584262
      2.573083     2.561903     2.550724     2.539545     2.528365     2.517186     2.506006     2.494827     2.483647     2.472468
      2.461288     2.450109     2.438930     2.427750     2.416571     2.405391     2.394212     2.383032     2.371853     2.360673
      2.349494     2.338315     2.327135     2.315956     2.304776     2.293597     2.282417     2.271238     2.260058     2.248879
      2.237700     2.226520     2.215341     2.204161     2.192982     2.181802     2.170623     2.159443     2.148264     2.137084
      2.125905     2.114726     2.103546     2.092367     2.081187     2.070008     2.058828     2.047649     2.036469     2.025290
      2.014111     2.002931     1.991752     1.980572     1.969393     1.958213     1.947034     1.935854     1.924675     1.913496
      1.902316     1.891137     1.879957     1.868778     1.857598     1.846419     1.835239     1.824060     1.812881     1.801701
      1.790522     1.779342     1.768163     1.756983     1.745804     1.734624     1.723445     1.712265     1.701086     1.689907
      1.678727     1.667548     1.656368     1.645189     1.634009     1.622830     1.611650     1.600471     1.589292     1.578112
      1.566933     1.555753     1.544574     1.533394     1.522215     1.511035     1.499856     1.488677     1.477497     1.466318
      1.455138     1.443959     1.432779     1.421600     1.410420     1.399241     1.388062     1.376882     1.365703     1.354523
      1.343344     1.332164     1.320985     1.309805     1.298626     1.287446     1.276267     1.265088     1.253908     1.242729
      1.231549     1.220370     1.209190     1.198011     1.186831     1.175652     1.164473     1.153293     1.142114     1.130934
      1.119755     1.108575     1.097396     1.086216     1.075037     1.063858     1.052678     1.041499     1.030319     1.019140
      1.007960     0.996781     0.985601     0.974422     0.963243     0.952063     0.940884     0.929704     0.918525     0.907345
      0.896166     0.884986     0.873807     0.862628     0.851448     0.840269     0.829089     0.817910     0.806730     0.795551
      0.784371     0.773192     0.762012     0.750833     0.739654     0.728474     0.717295     0.706115     0.694936     0.683756
      0.672577     0.661397     0.650218     0.639039     0.627859     0.616680     0.605500     0.594321     0.583141     0.571962
      0.560782     0.549603     0.538424     0.527244     0.516065     0.504885     0.493706     0.482526     0.471347     0.460167
      0.448988     0.437809     0.426629     0.415450     0.404270     0.393091     0.381911     0.370732     0.359552     0.348373
      0.337193     0.326014     0.314835     0.303655     0.292476     0.281296     0.270117     0.258937     0.247758     0.236578
      0.225399     0.214220     0.203040
 NY phased data points follow
  -7.02712E-10  1.43015E-09  4.91670E-09  6.09030E-09  8.17578E-09  7.67772E-09  6.57651E-09  5.32911E-09  4.81547E-09  3.50698E-09
   3.90615E-09  4.13555E-09  4.07905E-09  3.83172E-09  4.56289E-09  4.67979E-09  5.30488E-09  6.23210E-09  6.75858E-09  6.00289E-09
   6.08032E-09  5.53345E-09  6.60587E-09  5.96547E-09  4.68979E-09  5.18098E-09  5.58320E-09  6.67879E-09  6.73765E-09  6.63147E-09
   6.32015E-09  5.79575E-09  5.32391E-09  6.27272E-09  7.97684E-09  9.87208E-09  9.66664E-09  9.68828E-09  8.30566E-09  6.29562E-09
   5.61041E-09  5.39502E-09  5.62625E-09  3.98618E-09  5.29115E-09  4.56705E-09  4.47551E-09  4.58365E-09  4.29414E-09  3.88028E-09
   2.96665E-09  3.14588E-09  3.29939E-09  3.45968E-09  4.27067E-09  4.01794E-09  3.52360E-09  2.90311E-09  3.47420E-09  2.84374E-09
   2.37647E-09  3.39099E-09  4.18386E-09  4.50551E-09  5.80805E-09  9.04178E-09  1.15684E-08  1.22772E-08  1.05633E-08  8.34872E-09
   6.49735E-09  5.83051E-09  5.89357E-09  4.39695E-09  3.61885E-09  3.12229E-09  3.92569E-09  2.21437E-09  2.83325E-09  3.46390E-09
   4.72043E-09  7.36158E-09  1.13216E-08  1.37620E-08  1.25343E-08  1.07307E-08  9.16658E-09  7.77377E-09  7.80003E-09  6.19949E-09
   6.09459E-09  6.04188E-09  5.58023E-09  5.27964E-09  5.83766E-09  4.41270E-09  4.36152E-09  3.70346E-09  4.28885E-09  3.36558E-09
   2.70970E-09  3.05772E-09  3.06060E-09  3.73780E-09  2.69551E-09  4.17635E-09  3.50118E-09  3.71809E-09  3.71139E-09  3.47741E-09
   3.56057E-09  2.27155E-09  2.53425E-09  2.01648E-09  2.48982E-09  2.82063E-09  3.32308E-09  3.27378E-09  4.18153E-09  3.60034E-09
   4.01220E-09  4.20052E-09  4.03859E-09  3.02032E-09  3.54576E-09  2.44445E-09  1.95104E-09  1.56465E-09  2.48634E-09  2.09917E-09
   2.43950E-09  2.81223E-09  2.99526E-09  2.57870E-09  2.89663E-09  3.79397E-09  2.77208E-09  2.68545E-09  2.61498E-09  1.79900E-09
   2.95072E-09  3.48687E-09  3.91072E-09  4.94301E-09  4.84804E-09  3.09457E-09  3.31922E-09  4.05797E-09  4.63471E-09  4.83538E-09
   4.34449E-09  4.11658E-09  3.78404E-09  3.98678E-09  4.26739E-09  4.04019E-09  4.14122E-09  3.89231E-09  4.46495E-09  4.20304E-09
   5.15290E-09  5.30474E-09  5.57128E-09  5.24589E-09  5.63749E-09  6.23054E-09  6.48122E-09  6.81739E-09  7.14917E-09  7.46569E-09
   9.87280E-09  1.15251E-08  1.42435E-08  1.71161E-08  1.75541E-08  1.36523E-08  9.96034E-09  6.50177E-09  4.68711E-09  4.59355E-09
   4.28051E-09  2.58463E-09  2.97053E-09  2.21611E-09  1.96134E-09  1.23828E-09  1.86627E-09  1.24812E-10  9.03778E-10 -2.24538E-10
  -3.53383E-10 -4.40060E-10 -9.71844E-10 -2.57412E-09 -2.49627E-09 -3.26709E-09 -4.09194E-09 -5.30479E-09 -5.44447E-09 -6.70471E-09
  -7.59544E-09 -8.19204E-09 -8.77434E-09 -9.33605E-09 -9.38120E-09 -9.88128E-09 -9.89921E-09 -9.85433E-09 -9.36499E-09 -8.93028E-09
  -8.28023E-09 -8.20416E-09 -6.05271E-09 -5.41478E-09 -4.52809E-09 -4.30951E-09 -2.73248E-09 -2.82961E-09 -2.42197E-09 -1.85639E-09
  -1.83614E-09 -2.13731E-09 -2.71064E-09 -2.32052E-09 -1.80403E-09 -3.31719E-09 -2.08522E-09 -1.68025E-09 -2.11785E-09 -1.96435E-09
  -2.10464E-09 -1.80590E-09 -2.01886E-09 -1.95777E-09 -2.18791E-09 -2.97579E-09 -1.91727E-09 -2.37065E-09 -1.80733E-09 -1.44247E-09
  -2.40363E-09 -9.59846E-10 -1.63268E-09 -1.68605E-09 -1.69690E-09 -2.53768E-09 -1.99768E-09 -1.82491E-09 -1.74365E-09 -2.23681E-09
  -1.72819E-09 -1.37886E-09 -1.05124E-09 -1.16924E-09 -9.68069E-10 -9.35464E-10 -1.67387E-09 -1.26752E-09 -1.57693E-09 -1.96212E-09
  -1.60535E-09 -1.83889E-09 -2.01677E-09 -2.99440E-09 -2.39718E-09 -2.33759E-09 -1.19294E-09 -1.61826E-09 -8.30031E-10 -9.63634E-10
  -6.46062E-10 -5.56647E-10 -6.29966E-10 -7.73439E-10 -1.83907E-10 -2.30035E-10 -8.25505E-10 -1.25090E-09 -1.21583E-09 -1.81667E-09
  -1.73739E-09 -1.55453E-09 -2.03419E-09 -1.91776E-09 -1.45538E-09 -2.04133E-09 -1.51587E-09 -1.62364E-09 -1.37553E-09 -1.52524E-09
  -1.31287E-09 -1.50382E-09 -1.36646E-09 -1.53676E-09 -9.04107E-10 -1.00273E-09 -1.59676E-09 -1.14920E-09 -8.33228E-10 -1.41439E-09
  -1.45417E-09 -7.07695E-10 -9.24293E-10 -1.39390E-09 -1.20585E-09 -1.33183E-09 -9.88457E-10 -1.10829E-09 -1.03543E-09 -1.23755E-09
  -8.92711E-10 -1.69118E-09 -8.90193E-10 -7.03786E-10 -6.20344E-10 -1.13291E-09 -8.14602E-10 -7.81602E-10 -9.75373E-10 -9.66736E-10
  -4.59247E-10 -7.23661E-10 -9.91165E-10 -7.84754E-10 -1.35690E-09 -4.01807E-10 -5.23809E-10 -9.50298E-10 -3.24667E-10 -5.98222E-10
  -2.37946E-10 -1.05224E-09 -4.08437E-10 -1.14822E-09 -5.81921E-10 -9.08077E-10 -5.28093E-10 -1.05044E-09 -6.99914E-10 -6.67271E-10
  -6.58205E-10 -9.60685E-10 -4.79083E-10 -1.11556E-10 -4.91682E-10 -1.21744E-09 -5.01183E-10 -7.94632E-10 -4.57292E-10 -2.79525E-10
  -7.21715E-10 -3.17577E-10 -4.72569E-10 -2.12594E-10 -3.74406E-10 -2.47421E-10 -6.05023E-10 -5.67567E-10 -6.49840E-10 -5.27398E-10
  -5.23728E-10 -5.46678E-10 -3.40749E-10
 NY points of the fit to the data follow
   2.90709E-09  3.56805E-09  4.34096E-09  5.14187E-09  5.77862E-09  6.08725E-09  5.99332E-09  5.55771E-09  5.01139E-09  4.43122E-09
   4.07090E-09  3.95644E-09  4.01451E-09  4.18946E-09  4.47110E-09  4.78846E-09  5.13365E-09  5.54479E-09  5.99881E-09  6.46677E-09
   6.92853E-09  7.13336E-09  6.89073E-09  6.30640E-09  5.55870E-09  4.88129E-09  4.59218E-09  4.87009E-09  5.50655E-09  6.13383E-09
   6.59676E-09  7.00720E-09  7.26068E-09  7.36072E-09  7.51785E-09  7.84835E-09  8.15565E-09  8.22839E-09  7.99100E-09  7.55659E-09
   7.03883E-09  6.15713E-09  5.20868E-09  4.63806E-09  4.01918E-09  3.39792E-09  3.12197E-09  3.04458E-09  3.12482E-09  3.26518E-09
   3.38460E-09  3.41468E-09  3.37137E-09  3.30051E-09  3.28286E-09  3.36375E-09  3.49893E-09  3.61776E-09  3.63099E-09  3.60149E-09
   3.72016E-09  4.05502E-09  4.60238E-09  5.43507E-09  6.47490E-09  7.41977E-09  8.20381E-09  8.80686E-09  9.13374E-09  9.05556E-09
   8.55083E-09  7.66076E-09  6.61192E-09  5.53889E-09  4.52335E-09  3.95362E-09  3.79248E-09  4.02018E-09  4.59017E-09  5.50488E-09
   6.72118E-09  8.29126E-09  1.00323E-08  1.13615E-08  1.18464E-08  1.13728E-08  1.00585E-08  8.38114E-09  6.96220E-09  6.51045E-09
   6.38094E-09  6.23215E-09  5.86693E-09  5.49644E-09  5.19637E-09  4.72160E-09  4.26902E-09  3.98340E-09  3.71273E-09  3.48592E-09
   3.34996E-09  3.26650E-09  3.22236E-09  3.21948E-09  3.24149E-09  3.27402E-09  3.30434E-09  3.32179E-09  3.32247E-09  3.30563E-09
   3.27300E-09  3.23609E-09  3.20822E-09  3.16858E-09  3.13693E-09  3.13758E-09  3.14969E-09  3.16697E-09  3.18711E-09  3.20899E-09
   3.23194E-09  3.25549E-09  3.27927E-09  3.30302E-09  3.32651E-09  3.34954E-09  3.37193E-09  3.39354E-09  3.41421E-09  3.43382E-09
   3.45224E-09  3.46934E-09  3.48502E-09  3.49914E-09  3.51161E-09  3.52232E-09  3.53117E-09  3.53807E-09  3.54293E-09  3.54565E-09
   3.54614E-09  3.54426E-09  3.53987E-09  3.53285E-09  3.52305E-09  3.51037E-09  3.49467E-09  3.47584E-09  3.45377E-09  3.42839E-09
   3.39964E-09  3.36747E-09  3.33188E-09  3.29289E-09  3.25061E-09  3.20520E-09  3.15696E-09  3.10637E-09  3.05418E-09  3.00156E-09
   2.95047E-09  2.90421E-09  2.86887E-09  2.85714E-09  2.90181E-09  3.12840E-09  3.77117E-09  4.92709E-09  6.52637E-09  8.56512E-09
   1.11036E-08  1.38933E-08  1.62523E-08  1.72860E-08  1.63599E-08  1.34981E-08  9.43267E-09  5.39980E-09  2.58027E-09  1.19695E-09
   6.11226E-10  2.38412E-10 -5.19324E-11 -3.01058E-10 -5.26126E-10 -7.35469E-10 -9.33473E-10 -1.12257E-09 -1.30410E-09 -1.47880E-09
  -1.64702E-09 -1.80886E-09 -1.96426E-09 -2.11303E-09 -2.25493E-09 -2.38966E-09 -2.51698E-09 -2.63702E-09 -2.74997E-09 -2.85598E-09
  -2.95522E-09 -3.04781E-09 -3.13389E-09 -3.21358E-09 -3.28701E-09 -3.35429E-09 -3.41554E-09 -3.47085E-09 -3.52035E-09 -3.56412E-09
  -3.60229E-09 -3.63495E-09 -3.66219E-09 -3.68413E-09 -3.70085E-09 -3.71247E-09 -3.71907E-09 -3.72075E-09 -3.71761E-09 -3.70974E-09
  -3.69725E-09 -3.68023E-09 -3.65876E-09 -3.63296E-09 -3.60296E-09 -3.56898E-09 -3.53127E-09 -3.49008E-09 -3.44563E-09 -3.39818E-09
  -3.34797E-09 -3.29523E-09 -3.24022E-09 -3.18316E-09 -3.12429E-09 -3.06386E-09 -3.00212E-09 -2.93929E-09 -2.87561E-09 -2.81135E-09
  -2.74672E-09 -2.68196E-09 -2.61733E-09 -2.55306E-09 -2.48937E-09 -2.42653E-09 -2.36476E-09 -2.30430E-09 -2.24540E-09 -2.18830E-09
  -2.13321E-09 -2.08041E-09 -2.02998E-09 -1.98186E-09 -1.93598E-09 -1.89228E-09 -1.85067E-09 -1.81109E-09 -1.77345E-09 -1.73769E-09
  -1.70373E-09 -1.67150E-09 -1.64093E-09 -1.61194E-09 -1.58446E-09 -1.55842E-09 -1.53373E-09 -1.51035E-09 -1.48818E-09 -1.46716E-09
  -1.44720E-09 -1.42824E-09 -1.41021E-09 -1.39302E-09 -1.37663E-09 -1.36092E-09 -1.34587E-09 -1.33136E-09 -1.31735E-09 -1.30375E-09
  -1.29052E-09 -1.27764E-09 -1.26509E-09 -1.25286E-09 -1.24093E-09 -1.22927E-09 -1.21787E-09 -1.20672E-09 -1.19578E-09 -1.18505E-09
  -1.17450E-09 -1.16412E-09 -1.15388E-09 -1.14377E-09 -1.13378E-09 -1.12388E-09 -1.11405E-09 -1.10427E-09 -1.09454E-09 -1.08481E-09
  -1.07509E-09 -1.06535E-09 -1.05557E-09 -1.04574E-09 -1.03584E-09 -1.02584E-09 -1.01573E-09 -1.00549E-09 -9.95116E-10 -9.84624E-10
  -9.74018E-10 -9.63304E-10 -9.52493E-10 -9.41586E-10 -9.30597E-10 -9.19530E-10 -9.08394E-10 -8.97195E-10 -8.85944E-10 -8.74643E-10
  -8.63307E-10 -8.51935E-10 -8.40539E-10 -8.29129E-10 -8.17707E-10 -8.06287E-10 -7.94871E-10 -7.83466E-10 -7.72084E-10 -7.60734E-10
  -7.49414E-10 -7.38140E-10 -7.26915E-10 -7.15750E-10 -7.04653E-10 -6.93623E-10 -6.82667E-10 -6.71781E-10 -6.60959E-10 -6.50200E-10
  -6.39502E-10 -6.28858E-10 -6.18269E-10 -6.07729E-10 -5.97239E-10 -5.86790E-10 -5.76386E-10 -5.66018E-10 -5.55687E-10 -5.45388E-10
  -5.35116E-10 -5.24873E-10 -5.14651E-10 -5.04451E-10 -4.94267E-10 -4.84099E-10 -4.73940E-10 -4.63789E-10 -4.53643E-10 -4.43501E-10
  -4.33357E-10 -4.23211E-10 -4.13055E-10
 NY background values follow
    -1.261E-09   -1.219E-09   -1.178E-09   -1.137E-09   -1.096E-09   -1.055E-09   -1.014E-09   -9.737E-10   -9.333E-10   -8.930E-10
    -8.530E-10   -8.133E-10   -7.738E-10   -7.347E-10   -6.959E-10   -6.575E-10   -6.194E-10   -5.819E-10   -5.447E-10   -5.081E-10
    -4.719E-10   -4.363E-10   -4.013E-10   -3.668E-10   -3.330E-10   -2.998E-10   -2.673E-10   -2.354E-10   -2.043E-10   -1.740E-10
    -1.444E-10   -1.154E-10   -8.723E-11   -5.969E-11   -3.281E-11   -6.566E-12    1.905E-11    4.405E-11    6.847E-11    9.231E-11
     1.156E-10    1.383E-10    1.606E-10    1.823E-10    2.035E-10    2.243E-10    2.446E-10    2.645E-10    2.840E-10    3.030E-10
     3.217E-10    3.400E-10    3.580E-10    3.757E-10    3.930E-10    4.100E-10    4.268E-10    4.433E-10    4.597E-10    4.758E-10
     4.919E-10    5.080E-10    5.240E-10    5.401E-10    5.563E-10    5.727E-10    5.893E-10    6.062E-10    6.234E-10    6.409E-10
     6.589E-10    6.774E-10    6.964E-10    7.159E-10    7.361E-10    7.570E-10    7.786E-10    8.009E-10    8.242E-10    8.483E-10
     8.733E-10    8.994E-10    9.264E-10    9.546E-10    9.839E-10    1.014E-09    1.046E-09    1.079E-09    1.112E-09    1.147E-09
     1.182E-09    1.219E-09    1.256E-09    1.294E-09    1.332E-09    1.372E-09    1.412E-09    1.452E-09    1.493E-09    1.535E-09
     1.577E-09    1.619E-09    1.662E-09    1.705E-09    1.748E-09    1.792E-09    1.835E-09    1.879E-09    1.922E-09    1.966E-09
     2.010E-09    2.053E-09    2.097E-09    2.140E-09    2.182E-09    2.225E-09    2.267E-09    2.308E-09    2.349E-09    2.389E-09
     2.428E-09    2.466E-09    2.503E-09    2.540E-09    2.575E-09    2.608E-09    2.641E-09    2.671E-09    2.701E-09    2.728E-09
     2.754E-09    2.779E-09    2.801E-09    2.821E-09    2.840E-09    2.856E-09    2.870E-09    2.882E-09    2.891E-09    2.898E-09
     2.902E-09    2.903E-09    2.902E-09    2.897E-09    2.890E-09    2.879E-09    2.865E-09    2.847E-09    2.825E-09    2.799E-09
     2.769E-09    2.735E-09    2.697E-09    2.654E-09    2.606E-09    2.554E-09    2.497E-09    2.434E-09    2.366E-09    2.293E-09
     2.214E-09    2.130E-09    2.039E-09    1.943E-09    1.840E-09    1.731E-09    1.616E-09    1.494E-09    1.365E-09    1.230E-09
     1.089E-09    9.422E-10    7.909E-10    6.353E-10    4.757E-10    3.127E-10    1.467E-10   -2.162E-11   -1.919E-10   -3.637E-10
    -5.364E-10   -7.096E-10   -8.828E-10   -1.056E-09   -1.227E-09   -1.397E-09   -1.566E-09   -1.732E-09   -1.894E-09   -2.054E-09
    -2.209E-09   -2.360E-09   -2.507E-09   -2.647E-09   -2.782E-09   -2.911E-09   -3.033E-09   -3.148E-09   -3.256E-09   -3.358E-09
    -3.454E-09   -3.543E-09   -3.626E-09   -3.703E-09   -3.773E-09   -3.838E-09   -3.897E-09   -3.950E-09   -3.997E-09   -4.039E-09
    -4.075E-09   -4.106E-09   -4.131E-09   -4.152E-09   -4.167E-09   -4.177E-09   -4.182E-09   -4.182E-09   -4.178E-09   -4.168E-09
    -4.155E-09   -4.136E-09   -4.114E-09   -4.087E-09   -4.055E-09   -4.020E-09   -3.981E-09   -3.939E-09   -3.894E-09   -3.845E-09
    -3.794E-09   -3.740E-09   -3.684E-09   -3.626E-09   -3.566E-09   -3.505E-09   -3.442E-09   -3.379E-09   -3.314E-09   -3.249E-09
    -3.184E-09   -3.118E-09   -3.053E-09   -2.988E-09   -2.923E-09   -2.860E-09   -2.797E-09   -2.736E-09   -2.676E-09   -2.618E-09
    -2.563E-09   -2.509E-09   -2.458E-09   -2.409E-09   -2.363E-09   -2.318E-09   -2.276E-09   -2.236E-09   -2.198E-09   -2.161E-09
    -2.127E-09   -2.094E-09   -2.063E-09   -2.033E-09   -2.005E-09   -1.978E-09   -1.953E-09   -1.929E-09   -1.906E-09   -1.885E-09
    -1.864E-09   -1.845E-09   -1.826E-09   -1.809E-09   -1.792E-09   -1.776E-09   -1.760E-09   -1.745E-09   -1.730E-09   -1.716E-09
    -1.703E-09   -1.689E-09   -1.676E-09   -1.664E-09   -1.651E-09   -1.639E-09   -1.627E-09   -1.616E-09   -1.604E-09   -1.593E-09
    -1.582E-09   -1.571E-09   -1.561E-09   -1.550E-09   -1.540E-09   -1.529E-09   -1.519E-09   -1.509E-09   -1.499E-09   -1.489E-09
    -1.478E-09   -1.468E-09   -1.458E-09   -1.448E-09   -1.438E-09   -1.427E-09   -1.417E-09   -1.406E-09   -1.395E-09   -1.384E-09
    -1.373E-09   -1.362E-09   -1.351E-09   -1.340E-09   -1.329E-09   -1.317E-09   -1.306E-09   -1.294E-09   -1.283E-09   -1.271E-09
    -1.259E-09   -1.247E-09   -1.236E-09   -1.224E-09   -1.212E-09   -1.200E-09   -1.189E-09   -1.177E-09   -1.165E-09   -1.154E-09
    -1.142E-09   -1.130E-09   -1.119E-09   -1.107E-09   -1.096E-09   -1.084E-09   -1.073E-09   -1.062E-09   -1.051E-09   -1.040E-09
    -1.029E-09   -1.018E-09   -1.007E-09   -9.961E-10   -9.853E-10   -9.745E-10   -9.638E-10   -9.532E-10   -9.425E-10   -9.319E-10
    -9.214E-10   -9.108E-10   -9.003E-10   -8.898E-10   -8.793E-10   -8.689E-10   -8.584E-10   -8.480E-10   -8.375E-10   -8.271E-10
    -8.167E-10   -8.062E-10   -7.958E-10
 Ala      Conc. = 6.71E-11
  -1.22309E-09 -1.17518E-09 -1.12824E-09 -1.08236E-09 -1.03826E-09 -9.95759E-10 -9.55439E-10 -9.18867E-10 -8.82676E-10 -8.46185E-10
  -8.14027E-10 -7.81661E-10 -7.46438E-10 -7.12295E-10 -6.78109E-10 -6.42645E-10 -6.06674E-10 -5.70595E-10 -5.34619E-10 -4.98881E-10
  -4.63479E-10 -4.28481E-10 -3.93954E-10 -3.59935E-10 -3.26469E-10 -2.93606E-10 -2.61372E-10 -2.29799E-10 -1.98926E-10 -1.68772E-10
  -1.39328E-10 -1.10577E-10 -8.25064E-11 -5.51000E-11 -2.83415E-11 -2.21597E-12  2.32925E-11  4.82000E-11  7.25252E-11  9.62853E-11
   1.19492E-10  1.42169E-10  1.64327E-10  1.85988E-10  2.07163E-10  2.27877E-10  2.48141E-10  2.67971E-10  2.87394E-10  3.06418E-10
   3.25060E-10  3.43345E-10  3.61283E-10  3.78896E-10  3.96190E-10  4.13203E-10  4.29943E-10  4.46435E-10  4.62731E-10  4.78884E-10
   4.94945E-10  5.10965E-10  5.26995E-10  5.43089E-10  5.59296E-10  5.75670E-10  5.92261E-10  6.09121E-10  6.26302E-10  6.43856E-10
   6.61835E-10  6.80290E-10  6.99275E-10  7.18840E-10  7.39038E-10  7.59921E-10  7.81542E-10  8.03953E-10  8.27208E-10  8.51357E-10
   8.76457E-10  9.02558E-10  9.29716E-10  9.57986E-10  9.87419E-10  1.01803E-09  1.04977E-09  1.08260E-09  1.11649E-09  1.15140E-09
   1.18729E-09  1.22415E-09  1.26196E-09  1.30072E-09  1.34046E-09  1.38127E-09  1.42331E-09  1.46699E-09  1.51328E-09  1.56539E-09
   1.62979E-09  1.69665E-09  1.77025E-09  1.86262E-09  1.96354E-09  2.06239E-09  2.14914E-09  2.21524E-09  2.25847E-09  2.27943E-09
   2.28068E-09  2.27418E-09  2.27364E-09  2.25861E-09  2.24924E-09  2.27028E-09  2.30116E-09  2.33577E-09  2.37193E-09  2.40865E-09
   2.44535E-09  2.48169E-09  2.51742E-09  2.55234E-09  2.58628E-09  2.61913E-09  2.65074E-09  2.68102E-09  2.70984E-09  2.73712E-09
   2.76275E-09  2.78663E-09  2.80867E-09  2.82878E-09  2.84687E-09  2.86284E-09  2.87660E-09  2.88807E-09  2.89716E-09  2.90377E-09
   2.90781E-09  2.90915E-09  2.90764E-09  2.90312E-09  2.89545E-09  2.88447E-09  2.87004E-09  2.85199E-09  2.83017E-09  2.80445E-09
   2.77466E-09  2.74065E-09  2.70229E-09  2.65940E-09  2.61186E-09  2.55950E-09  2.50219E-09  2.43977E-09  2.37210E-09  2.29905E-09
   2.22048E-09  2.13625E-09  2.04630E-09  1.95052E-09  1.84899E-09  1.74206E-09  1.63179E-09  1.52362E-09  1.41195E-09  1.29785E-09
   1.18458E-09  1.07155E-09  9.52464E-10  8.16557E-10  6.54115E-10  4.64012E-10  2.54123E-10  3.79039E-11 -1.67694E-10 -3.49407E-10
  -5.26015E-10 -7.01234E-10 -8.75646E-10 -1.04915E-09 -1.22141E-09 -1.39206E-09 -1.56063E-09 -1.72669E-09 -1.88974E-09 -2.04933E-09
  -2.20497E-09 -2.35618E-09 -2.50247E-09 -2.64335E-09 -2.77835E-09 -2.90698E-09 -3.02886E-09 -3.14402E-09 -3.25256E-09 -3.35455E-09
  -3.45011E-09 -3.53931E-09 -3.62226E-09 -3.69904E-09 -3.76975E-09 -3.83448E-09 -3.89333E-09 -3.94639E-09 -3.99374E-09 -4.03549E-09
  -4.07173E-09 -4.10254E-09 -4.12803E-09 -4.14828E-09 -4.16339E-09 -4.17345E-09 -4.17855E-09 -4.17879E-09 -4.17425E-09 -4.16504E-09
  -4.15124E-09 -4.13295E-09 -4.11026E-09 -4.08326E-09 -4.05209E-09 -4.01698E-09 -3.97817E-09 -3.93590E-09 -3.89041E-09 -3.84194E-09
  -3.79073E-09 -3.73701E-09 -3.68104E-09 -3.62304E-09 -3.56325E-09 -3.50193E-09 -3.43930E-09 -3.37561E-09 -3.31109E-09 -3.24599E-09
  -3.18054E-09 -3.11498E-09 -3.04956E-09 -2.98451E-09 -2.92006E-09 -2.85647E-09 -2.79396E-09 -2.73277E-09 -2.67316E-09 -2.61535E-09
  -2.55957E-09 -2.50608E-09 -2.45498E-09 -2.40619E-09 -2.35966E-09 -2.31532E-09 -2.27307E-09 -2.23285E-09 -2.19459E-09 -2.15822E-09
  -2.12366E-09 -2.09083E-09 -2.05967E-09 -2.03009E-09 -2.00204E-09 -1.97544E-09 -1.95018E-09 -1.92625E-09 -1.90353E-09 -1.88196E-09
  -1.86147E-09 -1.84199E-09 -1.82343E-09 -1.80573E-09 -1.78882E-09 -1.77261E-09 -1.75704E-09 -1.74204E-09 -1.72754E-09 -1.71345E-09
  -1.69974E-09 -1.68639E-09 -1.67337E-09 -1.66067E-09 -1.64827E-09 -1.63616E-09 -1.62431E-09 -1.61270E-09 -1.60132E-09 -1.59015E-09
  -1.57916E-09 -1.56834E-09 -1.55768E-09 -1.54715E-09 -1.53673E-09 -1.52641E-09 -1.51617E-09 -1.50598E-09 -1.49584E-09 -1.48571E-09
  -1.47559E-09 -1.46545E-09 -1.45528E-09 -1.44506E-09 -1.43476E-09 -1.42438E-09 -1.41389E-09 -1.40327E-09 -1.39252E-09 -1.38166E-09
  -1.37068E-09 -1.35960E-09 -1.34842E-09 -1.33715E-09 -1.32580E-09 -1.31438E-09 -1.30288E-09 -1.29133E-09 -1.27973E-09 -1.26808E-09
  -1.25640E-09 -1.24468E-09 -1.23295E-09 -1.22120E-09 -1.20944E-09 -1.19768E-09 -1.18593E-09 -1.17420E-09 -1.16248E-09 -1.15081E-09
  -1.13916E-09 -1.12756E-09 -1.11601E-09 -1.10453E-09 -1.09311E-09 -1.08176E-09 -1.07049E-09 -1.05929E-09 -1.04816E-09 -1.03709E-09
  -1.02608E-09 -1.01513E-09 -1.00423E-09 -9.93383E-10 -9.82589E-10 -9.71837E-10 -9.61131E-10 -9.50463E-10 -9.39832E-10 -9.29234E-10
  -9.18664E-10 -9.08124E-10 -8.97607E-10 -8.87112E-10 -8.76635E-10 -8.66174E-10 -8.55724E-10 -8.45281E-10 -8.34845E-10 -8.24413E-10
  -8.13981E-10 -8.03547E-10 -7.93103E-10
 Asp      Conc. = 4.66E-10
  -6.68421E-10 -6.69444E-10 -6.79009E-10 -7.03162E-10 -7.38637E-10 -7.86297E-10 -8.20110E-10 -8.40172E-10 -8.31839E-10 -8.11366E-10
  -7.84571E-10 -7.53972E-10 -7.20979E-10 -6.86561E-10 -6.51584E-10 -6.16391E-10 -5.81046E-10 -5.45670E-10 -5.10361E-10 -4.75201E-10
  -4.40263E-10 -4.05600E-10 -3.71268E-10 -3.37292E-10 -3.03701E-10 -2.70525E-10 -2.37762E-10 -2.05406E-10 -1.73445E-10 -1.41823E-10
  -1.10426E-10 -7.90843E-11 -4.75482E-11 -1.54152E-11  1.80284E-11  5.42804E-11  9.71506E-11  1.44346E-10  1.99932E-10  2.59134E-10
   3.20649E-10  3.82423E-10  4.40386E-10  4.94058E-10  5.36257E-10  5.87694E-10  6.45603E-10  7.31497E-10  8.76067E-10  1.04865E-09
   1.20414E-09  1.28684E-09  1.27736E-09  1.19193E-09  1.07661E-09  9.84153E-10  9.16243E-10  8.90469E-10  8.40457E-10  7.77957E-10
   7.52429E-10  7.54570E-10  7.64015E-10  7.77562E-10  7.83638E-10  7.70871E-10  7.47822E-10  7.39539E-10  7.39644E-10  7.44633E-10
   7.52886E-10  7.63547E-10  7.76127E-10  7.90324E-10  8.05951E-10  8.22893E-10  8.41075E-10  8.60457E-10  8.81020E-10  9.02758E-10
   9.25681E-10  9.49802E-10  9.75148E-10  1.00174E-09  1.02962E-09  1.05876E-09  1.08912E-09  1.12062E-09  1.15322E-09  1.18685E-09
   1.22146E-09  1.25700E-09  1.29340E-09  1.33062E-09  1.36861E-09  1.40731E-09  1.44667E-09  1.48664E-09  1.52716E-09  1.56820E-09
   1.60969E-09  1.65159E-09  1.69385E-09  1.73641E-09  1.77923E-09  1.82226E-09  1.86544E-09  1.90874E-09  1.95209E-09  1.99546E-09
   2.03878E-09  2.08202E-09  2.12512E-09  2.16801E-09  2.21060E-09  2.25281E-09  2.29454E-09  2.33571E-09  2.37624E-09  2.41603E-09
   2.45500E-09  2.49305E-09  2.53011E-09  2.56609E-09  2.60089E-09  2.63443E-09  2.66662E-09  2.69738E-09  2.72662E-09  2.75425E-09
   2.78019E-09  2.80434E-09  2.82662E-09  2.84695E-09  2.86523E-09  2.88139E-09  2.89532E-09  2.90696E-09  2.91620E-09  2.92297E-09
   2.92717E-09  2.92867E-09  2.92733E-09  2.92299E-09  2.91550E-09  2.90472E-09  2.89050E-09  2.87269E-09  2.85114E-09  2.82571E-09
   2.79625E-09  2.76262E-09  2.72468E-09  2.68229E-09  2.63532E-09  2.58364E-09  2.52712E-09  2.46566E-09  2.39917E-09  2.32757E-09
   2.25084E-09  2.16901E-09  2.08228E-09  1.99105E-09  1.89642E-09  1.80136E-09  1.71755E-09  1.68842E-09  1.67701E-09  1.68433E-09
   1.73082E-09  1.81341E-09  1.88982E-09  1.88418E-09  1.72203E-09  1.38540E-09  9.20591E-10  4.14873E-10 -1.91620E-11 -2.72817E-10
  -4.74678E-10 -6.62177E-10 -8.43639E-10 -1.02161E-09 -1.19689E-09 -1.36968E-09 -1.53984E-09 -1.70709E-09 -1.87107E-09 -2.03139E-09
  -2.18761E-09 -2.33931E-09 -2.48600E-09 -2.62721E-09 -2.76249E-09 -2.89136E-09 -3.01345E-09 -3.12879E-09 -3.23747E-09 -3.33961E-09
  -3.43528E-09 -3.52459E-09 -3.60764E-09 -3.68451E-09 -3.75530E-09 -3.82011E-09 -3.87902E-09 -3.93214E-09 -3.97955E-09 -4.02135E-09
  -4.05764E-09 -4.08850E-09 -4.11402E-09 -4.13432E-09 -4.14946E-09 -4.15956E-09 -4.16469E-09 -4.16496E-09 -4.16046E-09 -4.15127E-09
  -4.13750E-09 -4.11924E-09 -4.09657E-09 -4.06960E-09 -4.03845E-09 -4.00337E-09 -3.96459E-09 -3.92234E-09 -3.87687E-09 -3.82841E-09
