 LCModel (Version 6.3-1R) Copyright: S.W. Provencher.          Ref.: Magn. Reson. Med. 30:672-679 (1993).                
 onepulse 19x29_ftSpec_smooth_lcm
 26 lines in following concentration table = NCONC+1
    Conc.  %SD /Cr+PCr  Metabolite                                         
 1.46E-10 289%   1.001 Ala                                                 
    0.000 999%   0.000 Asp                                                 
    0.000 999%   0.000 Cr                                                  
    0.000 999%   0.000 GABA                                                
    0.000 999%   0.000 Glc                                                 
 1.13E-09  70%   7.770 Gln                                                 
    0.000 999%   0.000 Glu                                                 
    0.000 999%   0.000 Glyc                                                
    0.000 999%   0.000 GPC                                                 
    0.000 999%   0.000 GSH                                                 
 1.58E-09  22%  10.859 Ins                                                 
 8.93E-11 452%   0.613 Lac                                                 
 6.44E-10  41%   4.423 NAAG                                                
    0.000 999%   0.000 NAA                                                 
    0.000 999%   0.000 PCh                                                 
 1.46E-10 215%   1.000 PCr                                                 
 1.20E-09  62%   8.206 PE                                                  
 1.76E-10 107%   1.209 Scyllo                                              
 5.72E-09  23%  39.281 Ser                                                 
    0.000 999%   0.000 Tau                                                 
    0.000 999%   0.000 GPC+PCh                                             
 6.44E-10  41%   4.423 NAA+NAAG                                            
 1.58E-09  22%  10.859 Ins+Glyc                                            
 1.46E-10 215%   1.000 Cr+PCr                                              
 1.13E-09  70%   7.770 Glu+Gln                                             
   6 lines in following misc. output table
  FWHM = 0.101 ppm    S/N =   2                                            
  Data shift = 0.414 ppm                                                   
  Ph:  -6 deg     -33.3 deg/ppm                                            
  alphaB,S = 1.8E+00,   4.0E+01                                            
    9 spline knots.   Ns = 5(1)                                            
  (10) 4 infls.   ( 9) 3 extrs.                                            
  363 points on ppm-axis = NY
      4.250000     4.238821     4.227641     4.216462     4.205282     4.194103     4.182923     4.171744     4.160564     4.149385
      4.138206     4.127026     4.115847     4.104667     4.093488     4.082308     4.071129     4.059949     4.048770     4.037591
      4.026411     4.015232     4.004052     3.992873     3.981693     3.970514     3.959334     3.948155     3.936975     3.925796
      3.914617     3.903437     3.892258     3.881078     3.869899     3.858719     3.847540     3.836360     3.825181     3.814002
      3.802822     3.791643     3.780463     3.769284     3.758104     3.746925     3.735745     3.724566     3.713387     3.702207
      3.691028     3.679848     3.668669     3.657489     3.646310     3.635130     3.623951     3.612772     3.601592     3.590413
      3.579233     3.568054     3.556874     3.545695     3.534515     3.523336     3.512156     3.500977     3.489798     3.478618
      3.467439     3.456259     3.445080     3.433900     3.422721     3.411541     3.400362     3.389183     3.378003     3.366824
      3.355644     3.344465     3.333285     3.322106     3.310926     3.299747     3.288568     3.277388     3.266209     3.255029
      3.243850     3.232670     3.221491     3.210311     3.199132     3.187953     3.176773     3.165594     3.154414     3.143235
      3.132055     3.120876     3.109696     3.098517     3.087337     3.076158     3.064979     3.053799     3.042620     3.031440
      3.020261     3.009081     2.997902     2.986722     2.975543     2.964364     2.953184     2.942005     2.930825     2.919646
      2.908466     2.897287     2.886107     2.874928     2.863749     2.852569     2.841390     2.830210     2.819031     2.807851
      2.796672     2.785492     2.774313     2.763134     2.751954     2.740775     2.729595     2.718416     2.707236     2.696057
      2.684877     2.673698     2.662519     2.651339     2.640160     2.628980     2.617801     2.606621     2.595442     2.584262
      2.573083     2.561903     2.550724     2.539545     2.528365     2.517186     2.506006     2.494827     2.483647     2.472468
      2.461288     2.450109     2.438930     2.427750     2.416571     2.405391     2.394212     2.383032     2.371853     2.360673
      2.349494     2.338315     2.327135     2.315956     2.304776     2.293597     2.282417     2.271238     2.260058     2.248879
      2.237700     2.226520     2.215341     2.204161     2.192982     2.181802     2.170623     2.159443     2.148264     2.137084
      2.125905     2.114726     2.103546     2.092367     2.081187     2.070008     2.058828     2.047649     2.036469     2.025290
      2.014111     2.002931     1.991752     1.980572     1.969393     1.958213     1.947034     1.935854     1.924675     1.913496
      1.902316     1.891137     1.879957     1.868778     1.857598     1.846419     1.835239     1.824060     1.812881     1.801701
      1.790522     1.779342     1.768163     1.756983     1.745804     1.734624     1.723445     1.712265     1.701086     1.689907
      1.678727     1.667548     1.656368     1.645189     1.634009     1.622830     1.611650     1.600471     1.589292     1.578112
      1.566933     1.555753     1.544574     1.533394     1.522215     1.511035     1.499856     1.488677     1.477497     1.466318
      1.455138     1.443959     1.432779     1.421600     1.410420     1.399241     1.388062     1.376882     1.365703     1.354523
      1.343344     1.332164     1.320985     1.309805     1.298626     1.287446     1.276267     1.265088     1.253908     1.242729
      1.231549     1.220370     1.209190     1.198011     1.186831     1.175652     1.164473     1.153293     1.142114     1.130934
      1.119755     1.108575     1.097396     1.086216     1.075037     1.063858     1.052678     1.041499     1.030319     1.019140
      1.007960     0.996781     0.985601     0.974422     0.963243     0.952063     0.940884     0.929704     0.918525     0.907345
      0.896166     0.884986     0.873807     0.862628     0.851448     0.840269     0.829089     0.817910     0.806730     0.795551
      0.784371     0.773192     0.762012     0.750833     0.739654     0.728474     0.717295     0.706115     0.694936     0.683756
      0.672577     0.661397     0.650218     0.639039     0.627859     0.616680     0.605500     0.594321     0.583141     0.571962
      0.560782     0.549603     0.538424     0.527244     0.516065     0.504885     0.493706     0.482526     0.471347     0.460167
      0.448988     0.437809     0.426629     0.415450     0.404270     0.393091     0.381911     0.370732     0.359552     0.348373
      0.337193     0.326014     0.314835     0.303655     0.292476     0.281296     0.270117     0.258937     0.247758     0.236578
      0.225399     0.214220     0.203040
 NY phased data points follow
  -5.96689E-12  2.30921E-10 -7.13064E-10 -1.40681E-10 -1.30943E-09 -7.83247E-10 -1.19071E-09 -4.65892E-10 -4.19461E-10  1.79562E-10
   5.21588E-10  1.46755E-09  9.94427E-10  2.10013E-09  1.86294E-09  3.09814E-09  1.71398E-09  2.47473E-09  1.47940E-09  2.11371E-09
   1.83194E-09  3.17295E-09  2.86943E-09  3.11505E-09  1.60297E-09  1.68357E-09  1.69783E-09  3.32263E-09  4.61531E-09  5.78997E-09
   6.13575E-09  6.49090E-09  5.43343E-09  6.21410E-09  5.66411E-09  5.75132E-09  5.64255E-09  5.83261E-09  5.67583E-09  6.23082E-09
   5.75041E-09  6.09523E-09  5.39252E-09  5.31052E-09  4.55041E-09  4.99498E-09  4.44860E-09  5.23530E-09  4.76931E-09  5.04882E-09
   4.05781E-09  4.01222E-09  3.47561E-09  3.61304E-09  3.43517E-09  2.27433E-09  1.92885E-09  2.45798E-09  2.92188E-09  5.83426E-09
   6.12841E-09  6.60436E-09  6.84750E-09  6.89151E-09  6.16364E-09  6.57037E-09  5.40013E-09  5.19579E-09  4.45362E-09  4.26710E-09
   3.00342E-09  1.98080E-09 -2.52337E-10  1.24545E-10  1.39456E-09  5.19696E-09  8.02710E-09  9.56615E-09  9.25409E-09  1.00804E-08
   9.85513E-09  1.04872E-08  1.00068E-08  9.84993E-09  1.00821E-08  1.08625E-08  1.04011E-08  1.04654E-08  1.01043E-08  1.04690E-08
   1.01113E-08  1.03447E-08  9.73479E-09  9.68864E-09  9.34445E-09  9.17911E-09  8.90707E-09  9.80638E-09  9.07311E-09  9.13346E-09
   8.95730E-09  9.36800E-09  9.87066E-09  9.33291E-09  8.50989E-09  8.57512E-09  7.17981E-09  7.54559E-09  7.12079E-09  7.39162E-09
   6.92909E-09  7.06385E-09  7.07419E-09  6.86256E-09  6.86510E-09  7.59996E-09  7.77812E-09  8.10593E-09  7.33730E-09  7.15479E-09
   5.71717E-09  5.99738E-09  5.31310E-09  5.39675E-09  5.13639E-09  5.15888E-09  4.97941E-09  4.85180E-09  4.62254E-09  4.95082E-09
   4.48783E-09  4.31923E-09  2.86528E-09  3.78367E-09  3.77020E-09  5.18766E-09  5.34032E-09  5.88129E-09  5.49215E-09  5.72827E-09
   6.37361E-09  6.77562E-09  7.53990E-09  8.00904E-09  7.69097E-09  8.22844E-09  8.56220E-09  8.22472E-09  7.51043E-09  8.00219E-09
   8.25252E-09  8.01236E-09  8.11984E-09  8.55316E-09  8.14878E-09  7.85565E-09  7.91618E-09  8.67838E-09  8.04492E-09  8.30174E-09
   7.90218E-09  8.30104E-09  7.15112E-09  7.17017E-09  7.52334E-09  1.07687E-08  1.54923E-08  1.89894E-08  1.99790E-08  2.00006E-08
   1.94936E-08  1.97920E-08  1.97943E-08  1.92522E-08  1.90681E-08  1.92344E-08  1.85818E-08  1.84016E-08  1.75198E-08  1.76989E-08
   1.68669E-08  1.58613E-08  1.43861E-08  1.32989E-08  1.11954E-08  1.03149E-08  7.39051E-09  5.23206E-09  2.53675E-09  2.74342E-10
  -3.47007E-09 -5.46967E-09 -8.64826E-09 -1.07631E-08 -1.33656E-08 -1.48213E-08 -1.63164E-08 -1.70932E-08 -1.74512E-08 -1.70201E-08
  -1.62587E-08 -1.47992E-08 -1.36089E-08 -1.06057E-08 -9.54143E-09 -6.61362E-09 -5.72330E-09 -4.05040E-09 -3.30694E-09 -1.96682E-09
  -2.10576E-09 -2.12839E-09 -2.37494E-09 -2.66563E-09 -3.14902E-09 -2.65154E-09 -2.96728E-09 -2.83484E-09 -2.57771E-09 -1.55792E-09
  -2.12512E-09 -1.47391E-09 -1.80232E-09 -2.05757E-09 -2.32970E-09 -2.27129E-09 -2.78851E-09 -2.55133E-09 -2.69390E-09 -2.09146E-09
  -2.10168E-09 -8.50948E-10 -1.83819E-09 -1.22451E-09 -2.13607E-09 -2.33852E-09 -2.56648E-09 -2.35377E-09 -2.43347E-09 -2.12268E-09
  -2.19281E-09 -1.90743E-09 -1.75675E-09 -1.47268E-09 -1.39769E-09 -1.40880E-09 -1.30876E-09 -1.36235E-09 -1.33066E-09 -1.09815E-09
  -1.51328E-09 -9.72116E-10 -1.36788E-09 -1.64666E-09 -2.03341E-09 -1.87304E-09 -2.02294E-09 -2.16412E-09 -2.49401E-09 -2.33281E-09
  -2.54927E-09 -2.38217E-09 -2.54176E-09 -1.66499E-09 -1.58563E-09 -7.36091E-10 -7.96997E-10 -6.51018E-10 -7.53793E-10 -1.58466E-10
  -1.66577E-10 -1.79362E-10 -4.17345E-10 -2.43179E-10 -2.47770E-10 -4.08014E-10 -7.02068E-10 -9.12672E-10 -1.20026E-09 -1.34938E-09
  -1.87338E-09 -1.27121E-09 -1.87759E-09 -1.40366E-09 -2.21553E-09 -1.78381E-09 -1.95774E-09 -1.93542E-09 -1.66666E-09 -1.46985E-09
  -2.15853E-09 -1.55404E-09 -2.39357E-09 -2.29945E-09 -2.17357E-09 -1.58679E-09 -1.99699E-09 -1.74824E-09 -2.06873E-09 -1.72055E-09
  -2.17417E-09 -1.61609E-09 -2.42333E-09 -1.85765E-09 -1.81975E-09 -1.75946E-09 -2.04413E-09 -1.96901E-09 -1.51670E-09 -1.72588E-09
  -1.56695E-09 -1.32085E-09 -1.47982E-09 -1.41255E-09 -2.00571E-09 -8.99158E-10 -1.44079E-09 -1.24132E-09 -1.16319E-09 -9.34843E-10
  -1.41204E-09 -1.44529E-09 -1.20068E-09 -4.42454E-10 -1.19904E-09 -7.70102E-10 -1.22061E-09 -7.92554E-10 -1.08524E-09 -3.45770E-10
  -1.30203E-09 -7.86293E-10 -8.22023E-10 -1.12375E-09 -6.29129E-10 -8.97651E-10 -7.39709E-10 -5.57441E-10 -7.65330E-10 -4.12009E-10
  -2.82434E-10 -5.07971E-10 -2.50055E-10 -5.87533E-10 -6.03052E-10 -2.54972E-10 -2.34131E-10 -2.77411E-10 -3.65717E-10 -9.02119E-11
  -4.78385E-10  2.18358E-10 -4.15384E-10  9.66933E-11 -3.21547E-10  3.81298E-10  2.85185E-11  5.81827E-11 -4.20052E-11  1.60998E-10
  -1.32430E-10  7.00459E-10 -3.77137E-10
 NY points of the fit to the data follow
  -3.15883E-09 -7.86101E-10 -4.19914E-10 -8.39009E-11  6.03563E-10  1.42167E-09  1.41491E-09  3.91026E-10 -6.37655E-10 -9.68797E-10
  -5.22766E-10 -1.54299E-11  4.27856E-10  9.48411E-10  1.57118E-09  2.00979E-09  2.15380E-09  2.48129E-09  3.08494E-09  3.12443E-09
   2.60191E-09  2.05823E-09  1.90338E-09  1.86267E-09  1.93942E-09  2.30056E-09  3.09775E-09  4.07077E-09  4.78821E-09  5.01473E-09
   5.34432E-09  5.66551E-09  5.93771E-09  6.15098E-09  6.39716E-09  6.42522E-09  6.22083E-09  5.85724E-09  5.58363E-09  5.42452E-09
   5.37027E-09  5.37679E-09  5.27615E-09  5.03232E-09  4.84446E-09  4.66208E-09  4.47869E-09  4.34230E-09  4.23567E-09  4.18435E-09
   4.13524E-09  4.08291E-09  3.96846E-09  3.78164E-09  3.65067E-09  3.79540E-09  3.94946E-09  4.16971E-09  4.56178E-09  4.95494E-09
   5.18763E-09  5.42812E-09  5.69413E-09  5.97753E-09  6.14310E-09  6.12881E-09  6.06045E-09  5.97977E-09  5.67854E-09  5.39940E-09
   5.21547E-09  5.20266E-09  5.34618E-09  5.43568E-09  5.43409E-09  5.47544E-09  6.46309E-09  7.95192E-09  9.34400E-09  1.03689E-08
   1.10435E-08  1.14366E-08  1.16479E-08  1.20716E-08  1.26731E-08  1.28949E-08  1.23981E-08  1.12735E-08  1.05601E-08  1.00880E-08
   9.72275E-09  9.42130E-09  9.17145E-09  8.95466E-09  8.75657E-09  8.57158E-09  8.40837E-09  8.25989E-09  8.11048E-09  7.96615E-09
   7.93135E-09  7.92473E-09  7.86124E-09  7.84236E-09  7.86092E-09  7.87639E-09  7.88289E-09  7.93503E-09  7.96805E-09  7.94123E-09
   7.89839E-09  7.84361E-09  7.84001E-09  7.77831E-09  7.63239E-09  7.52226E-09  7.41701E-09  7.29417E-09  7.16487E-09  7.07043E-09
   6.94489E-09  6.79347E-09  6.67630E-09  6.57449E-09  6.48050E-09  6.39112E-09  6.30464E-09  6.22007E-09  6.13676E-09  6.05425E-09
   5.97224E-09  5.89047E-09  5.80876E-09  5.72698E-09  5.64501E-09  5.56277E-09  5.48018E-09  5.39718E-09  5.31375E-09  5.22983E-09
   5.14542E-09  5.06048E-09  4.97500E-09  4.88901E-09  4.80246E-09  4.71538E-09  4.62780E-09  4.53976E-09  4.45126E-09  4.36239E-09
   4.27324E-09  4.18384E-09  4.09440E-09  4.00511E-09  3.91619E-09  3.82807E-09  3.74134E-09  3.65684E-09  3.57593E-09  3.50086E-09
   3.43531E-09  3.38620E-09  3.36700E-09  3.40775E-09  3.58753E-09  4.18205E-09  6.68863E-09  1.34080E-08  1.92054E-08  2.19480E-08
   2.22691E-08  2.16191E-08  2.10837E-08  2.11122E-08  2.13954E-08  2.06908E-08  1.74165E-08  1.13293E-08  5.57364E-09  3.89529E-09
   3.16215E-09  2.72490E-09  2.41697E-09  2.17735E-09  1.97840E-09  1.80575E-09  1.65118E-09  1.50963E-09  1.37785E-09  1.25362E-09
   1.13539E-09  1.02206E-09  9.12799E-10  8.07016E-10  7.04230E-10  6.04075E-10  5.06286E-10  4.10636E-10  3.16942E-10  2.25075E-10
   1.34919E-10  4.63740E-11 -4.06221E-11 -1.26124E-10 -2.10189E-10 -2.92848E-10 -3.74136E-10 -4.54054E-10 -5.32645E-10 -6.09917E-10
  -6.85874E-10 -7.60516E-10 -8.33855E-10 -9.05883E-10 -9.76621E-10 -1.04605E-09 -1.11416E-09 -1.18095E-09 -1.24644E-09 -1.31059E-09
  -1.37341E-09 -1.43488E-09 -1.49501E-09 -1.55378E-09 -1.61121E-09 -1.66724E-09 -1.72191E-09 -1.77520E-09 -1.82708E-09 -1.87756E-09
  -1.92664E-09 -1.97430E-09 -2.02054E-09 -2.06535E-09 -2.10873E-09 -2.15067E-09 -2.19116E-09 -2.23020E-09 -2.26779E-09 -2.30391E-09
  -2.33858E-09 -2.37178E-09 -2.40351E-09 -2.43378E-09 -2.46259E-09 -2.48994E-09 -2.51586E-09 -2.54034E-09 -2.56339E-09 -2.58502E-09
  -2.60524E-09 -2.62405E-09 -2.64147E-09 -2.65750E-09 -2.67215E-09 -2.68543E-09 -2.69735E-09 -2.70791E-09 -2.71712E-09 -2.72501E-09
  -2.73156E-09 -2.73679E-09 -2.74072E-09 -2.74334E-09 -2.74468E-09 -2.74473E-09 -2.74351E-09 -2.74103E-09 -2.73729E-09 -2.73230E-09
  -2.72609E-09 -2.71864E-09 -2.70998E-09 -2.70011E-09 -2.68905E-09 -2.67679E-09 -2.66336E-09 -2.64876E-09 -2.63299E-09 -2.61608E-09
  -2.59802E-09 -2.57884E-09 -2.55853E-09 -2.53710E-09 -2.51457E-09 -2.49095E-09 -2.46623E-09 -2.44044E-09 -2.41358E-09 -2.38566E-09
  -2.35669E-09 -2.32667E-09 -2.29562E-09 -2.26354E-09 -2.23044E-09 -2.19633E-09 -2.16122E-09 -2.12511E-09 -2.08802E-09 -2.04994E-09
  -2.01090E-09 -1.97089E-09 -1.92993E-09 -1.88801E-09 -1.84515E-09 -1.80135E-09 -1.75662E-09 -1.71096E-09 -1.66439E-09 -1.61690E-09
  -1.56851E-09 -1.51922E-09 -1.46905E-09 -1.41798E-09 -1.36605E-09 -1.31325E-09 -1.25958E-09 -1.20507E-09 -1.14971E-09 -1.09352E-09
  -1.03651E-09 -9.78675E-10 -9.20036E-10 -8.60599E-10 -8.00373E-10 -7.39368E-10 -6.77594E-10 -6.15061E-10 -5.51777E-10 -4.87754E-10
  -4.23001E-10 -3.57529E-10 -2.91350E-10 -2.24472E-10 -1.56907E-10 -8.86660E-11 -1.97612E-11  4.97977E-11  1.19999E-10  1.90829E-10
   2.62279E-10  3.34335E-10  4.06987E-10  4.80222E-10  5.54028E-10  6.28392E-10  7.03301E-10  7.78745E-10  8.54710E-10  9.31182E-10
   1.00815E-09  1.08560E-09  1.16352E-09  1.24189E-09  1.32071E-09  1.39995E-09  1.47961E-09  1.55967E-09  1.64012E-09  1.72094E-09
   1.80212E-09  1.88365E-09  1.96551E-09
 NY background values follow
    -5.381E-09   -5.209E-09   -5.038E-09   -4.868E-09   -4.698E-09   -4.529E-09   -4.362E-09   -4.195E-09   -4.029E-09   -3.864E-09
    -3.699E-09   -3.536E-09   -3.374E-09   -3.213E-09   -3.053E-09   -2.894E-09   -2.736E-09   -2.579E-09   -2.424E-09   -2.269E-09
    -2.116E-09   -1.964E-09   -1.814E-09   -1.664E-09   -1.516E-09   -1.369E-09   -1.224E-09   -1.079E-09   -9.366E-10   -7.952E-10
    -6.552E-10   -5.165E-10   -3.794E-10   -2.437E-10   -1.094E-10    2.335E-11    1.546E-10    2.843E-10    4.125E-10    5.392E-10
     6.643E-10    7.878E-10    9.097E-10    1.030E-09    1.149E-09    1.266E-09    1.381E-09    1.495E-09    1.607E-09    1.718E-09
     1.826E-09    1.933E-09    2.039E-09    2.142E-09    2.244E-09    2.345E-09    2.443E-09    2.540E-09    2.635E-09    2.728E-09
     2.819E-09    2.909E-09    2.997E-09    3.083E-09    3.168E-09    3.250E-09    3.331E-09    3.410E-09    3.487E-09    3.563E-09
     3.636E-09    3.708E-09    3.778E-09    3.846E-09    3.912E-09    3.977E-09    4.039E-09    4.100E-09    4.159E-09    4.216E-09
     4.271E-09    4.324E-09    4.376E-09    4.426E-09    4.473E-09    4.519E-09    4.563E-09    4.606E-09    4.646E-09    4.685E-09
     4.721E-09    4.756E-09    4.789E-09    4.820E-09    4.849E-09    4.876E-09    4.902E-09    4.926E-09    4.947E-09    4.967E-09
     4.985E-09    5.002E-09    5.016E-09    5.029E-09    5.039E-09    5.048E-09    5.055E-09    5.061E-09    5.064E-09    5.066E-09
     5.066E-09    5.064E-09    5.060E-09    5.055E-09    5.047E-09    5.038E-09    5.027E-09    5.015E-09    5.000E-09    4.984E-09
     4.967E-09    4.947E-09    4.926E-09    4.903E-09    4.878E-09    4.852E-09    4.824E-09    4.795E-09    4.764E-09    4.731E-09
     4.697E-09    4.661E-09    4.624E-09    4.585E-09    4.545E-09    4.504E-09    4.461E-09    4.416E-09    4.371E-09    4.324E-09
     4.276E-09    4.226E-09    4.176E-09    4.124E-09    4.071E-09    4.016E-09    3.961E-09    3.905E-09    3.847E-09    3.789E-09
     3.730E-09    3.669E-09    3.608E-09    3.546E-09    3.483E-09    3.419E-09    3.355E-09    3.289E-09    3.223E-09    3.156E-09
     3.089E-09    3.021E-09    2.952E-09    2.883E-09    2.814E-09    2.743E-09    2.673E-09    2.602E-09    2.530E-09    2.459E-09
     2.387E-09    2.314E-09    2.242E-09    2.169E-09    2.096E-09    2.023E-09    1.950E-09    1.877E-09    1.803E-09    1.730E-09
     1.657E-09    1.584E-09    1.511E-09    1.438E-09    1.365E-09    1.292E-09    1.220E-09    1.148E-09    1.076E-09    1.005E-09
     9.334E-10    8.627E-10    7.923E-10    7.223E-10    6.529E-10    5.839E-10    5.154E-10    4.474E-10    3.801E-10    3.133E-10
     2.471E-10    1.816E-10    1.168E-10    5.269E-11   -1.072E-11   -7.337E-11   -1.353E-10   -1.963E-10   -2.566E-10   -3.160E-10
    -3.746E-10   -4.322E-10   -4.890E-10   -5.448E-10   -5.997E-10   -6.536E-10   -7.065E-10   -7.584E-10   -8.092E-10   -8.591E-10
    -9.078E-10   -9.555E-10   -1.002E-09   -1.047E-09   -1.092E-09   -1.135E-09   -1.177E-09   -1.218E-09   -1.257E-09   -1.296E-09
    -1.333E-09   -1.369E-09   -1.404E-09   -1.437E-09   -1.470E-09   -1.501E-09   -1.530E-09   -1.559E-09   -1.586E-09   -1.612E-09
    -1.636E-09   -1.660E-09   -1.681E-09   -1.702E-09   -1.721E-09   -1.739E-09   -1.756E-09   -1.771E-09   -1.785E-09   -1.798E-09
    -1.810E-09   -1.820E-09   -1.829E-09   -1.837E-09   -1.843E-09   -1.848E-09   -1.852E-09   -1.855E-09   -1.857E-09   -1.857E-09
    -1.856E-09   -1.854E-09   -1.851E-09   -1.847E-09   -1.841E-09   -1.834E-09   -1.826E-09   -1.817E-09   -1.807E-09   -1.796E-09
    -1.783E-09   -1.769E-09   -1.755E-09   -1.739E-09   -1.722E-09   -1.704E-09   -1.685E-09   -1.665E-09   -1.644E-09   -1.622E-09
    -1.598E-09   -1.574E-09   -1.549E-09   -1.522E-09   -1.495E-09   -1.467E-09   -1.438E-09   -1.407E-09   -1.376E-09   -1.344E-09
    -1.311E-09   -1.277E-09   -1.242E-09   -1.206E-09   -1.169E-09   -1.131E-09   -1.092E-09   -1.053E-09   -1.012E-09   -9.707E-10
    -9.284E-10   -8.853E-10   -8.413E-10   -7.964E-10   -7.507E-10   -7.041E-10   -6.567E-10   -6.084E-10   -5.593E-10   -5.094E-10
    -4.587E-10   -4.072E-10   -3.549E-10   -3.017E-10   -2.478E-10   -1.931E-10   -1.377E-10   -8.142E-11   -2.443E-11    3.331E-11
     9.179E-11    1.510E-10    2.110E-10    2.716E-10    3.330E-10    3.950E-10    4.578E-10    5.212E-10    5.853E-10    6.500E-10
     7.154E-10    7.815E-10    8.482E-10    9.155E-10    9.834E-10    1.052E-09    1.121E-09    1.191E-09    1.261E-09    1.332E-09
     1.403E-09    1.475E-09    1.547E-09    1.620E-09    1.693E-09    1.767E-09    1.842E-09    1.916E-09    1.992E-09    2.067E-09
     2.143E-09    2.220E-09    2.297E-09    2.374E-09    2.452E-09    2.530E-09    2.608E-09    2.687E-09    2.766E-09    2.845E-09
     2.925E-09    3.005E-09    3.085E-09
 Ala      Conc. = 1.46E-10
  -5.49501E-09 -5.30898E-09 -5.12432E-09 -4.94094E-09 -4.75720E-09 -4.57223E-09 -4.38325E-09 -4.20113E-09 -4.03254E-09 -3.85323E-09
  -3.67390E-09 -3.51524E-09 -3.35389E-09 -3.18900E-09 -3.03151E-09 -2.87644E-09 -2.72233E-09 -2.56899E-09 -2.41646E-09 -2.26479E-09
  -2.11406E-09 -1.96433E-09 -1.81565E-09 -1.66808E-09 -1.52166E-09 -1.37643E-09 -1.23242E-09 -1.08967E-09 -9.48207E-10 -8.08062E-10
  -6.69262E-10 -5.31830E-10 -3.95792E-10 -2.61170E-10 -1.27984E-10  3.74348E-12  1.33993E-10  2.62746E-10  3.89985E-10  5.15691E-10
   6.39847E-10  7.62437E-10  8.83446E-10  1.00286E-09  1.12066E-09  1.23684E-09  1.35138E-09  1.46426E-09  1.57549E-09  1.68504E-09
   1.79290E-09  1.89905E-09  2.00351E-09  2.10624E-09  2.20723E-09  2.30649E-09  2.40399E-09  2.49975E-09  2.59372E-09  2.68594E-09
   2.77637E-09  2.86500E-09  2.95184E-09  3.03687E-09  3.12007E-09  3.20146E-09  3.28101E-09  3.35872E-09  3.43458E-09  3.50857E-09
   3.58069E-09  3.65093E-09  3.71929E-09  3.78573E-09  3.85027E-09  3.91289E-09  3.97355E-09  4.03229E-09  4.08904E-09  4.14382E-09
   4.19659E-09  4.24735E-09  4.29605E-09  4.34269E-09  4.38724E-09  4.42963E-09  4.46986E-09  4.50784E-09  4.54353E-09  4.57686E-09
   4.60771E-09  4.63600E-09  4.66156E-09  4.68418E-09  4.70363E-09  4.71960E-09  4.73172E-09  4.73976E-09  4.74478E-09  4.75908E-09
   4.86941E-09  4.98564E-09  5.03861E-09  5.13971E-09  5.27248E-09  5.39494E-09  5.49202E-09  5.56936E-09  5.62523E-09  5.64143E-09
   5.60389E-09  5.54041E-09  5.53779E-09  5.49075E-09  5.36712E-09  5.28792E-09  5.23377E-09  5.19108E-09  5.15428E-09  5.12068E-09
   5.08865E-09  5.05737E-09  5.02621E-09  4.99478E-09  4.96280E-09  4.93007E-09  4.89645E-09  4.86184E-09  4.82616E-09  4.78936E-09
   4.75139E-09  4.71224E-09  4.67187E-09  4.63029E-09  4.58748E-09  4.54345E-09  4.49819E-09  4.45173E-09  4.40408E-09  4.35523E-09
   4.30523E-09  4.25406E-09  4.20177E-09  4.14839E-09  4.09390E-09  4.03834E-09  3.98175E-09  3.92415E-09  3.86555E-09  3.80601E-09
   3.74555E-09  3.68416E-09  3.62191E-09  3.55884E-09  3.49495E-09  3.43028E-09  3.36490E-09  3.29882E-09  3.23208E-09  3.16479E-09
   3.09696E-09  3.02876E-09  2.96034E-09  2.89211E-09  2.82498E-09  2.76196E-09  2.71861E-09  2.74058E-09  2.75413E-09  2.72486E-09
   2.65968E-09  2.57903E-09  2.49889E-09  2.42653E-09  2.35931E-09  2.28120E-09  2.16917E-09  2.01500E-09  1.85579E-09  1.75841E-09
   1.67568E-09  1.59733E-09  1.52092E-09  1.44561E-09  1.37102E-09  1.29699E-09  1.22343E-09  1.15031E-09  1.07760E-09  1.00531E-09
   9.33434E-10  8.62007E-10  7.91027E-10  7.20533E-10  6.50533E-10  5.81043E-10  5.12105E-10  4.43735E-10  3.75951E-10  3.08790E-10
   2.42271E-10  1.76406E-10  1.11233E-10  4.67787E-11 -1.69439E-11 -7.99063E-11 -1.42089E-10 -2.03448E-10 -2.63987E-10 -3.23679E-10
  -3.82496E-10 -4.40410E-10 -4.97408E-10 -5.53462E-10 -6.08571E-10 -6.62698E-10 -7.15819E-10 -7.67926E-10 -8.19007E-10 -8.69027E-10
  -9.17971E-10 -9.65825E-10 -1.01258E-09 -1.05821E-09 -1.10272E-09 -1.14606E-09 -1.18824E-09 -1.22925E-09 -1.26905E-09 -1.30765E-09
  -1.34504E-09 -1.38119E-09 -1.41610E-09 -1.44976E-09 -1.48216E-09 -1.51329E-09 -1.54314E-09 -1.57170E-09 -1.59897E-09 -1.62493E-09
  -1.64959E-09 -1.67293E-09 -1.69495E-09 -1.71565E-09 -1.73504E-09 -1.75312E-09 -1.76990E-09 -1.78538E-09 -1.79957E-09 -1.81247E-09
  -1.82410E-09 -1.83445E-09 -1.84354E-09 -1.85136E-09 -1.85793E-09 -1.86326E-09 -1.86735E-09 -1.87021E-09 -1.87184E-09 -1.87226E-09
  -1.87147E-09 -1.86948E-09 -1.86630E-09 -1.86193E-09 -1.85639E-09 -1.84968E-09 -1.84181E-09 -1.83279E-09 -1.82263E-09 -1.81134E-09
  -1.79891E-09 -1.78537E-09 -1.77073E-09 -1.75498E-09 -1.73814E-09 -1.72022E-09 -1.70123E-09 -1.68117E-09 -1.66005E-09 -1.63789E-09
  -1.61469E-09 -1.59046E-09 -1.56520E-09 -1.53893E-09 -1.51166E-09 -1.48339E-09 -1.45413E-09 -1.42389E-09 -1.39268E-09 -1.36051E-09
  -1.32738E-09 -1.29330E-09 -1.25828E-09 -1.22233E-09 -1.18546E-09 -1.14767E-09 -1.10897E-09 -1.06936E-09 -1.02887E-09 -9.87484E-10
  -9.45221E-10 -9.02085E-10 -8.58081E-10 -8.13218E-10 -7.67500E-10 -7.20933E-10 -6.73523E-10 -6.25276E-10 -5.76198E-10 -5.26297E-10
  -4.75577E-10 -4.24046E-10 -3.71711E-10 -3.18580E-10 -2.64659E-10 -2.09955E-10 -1.54477E-10 -9.82328E-11 -4.12296E-11  1.65242E-11
   7.50203E-11  1.34250E-10  1.94205E-10  2.54876E-10  3.16255E-10  3.78332E-10  4.41098E-10  5.04543E-10  5.68659E-10  6.33435E-10
   6.98861E-10  7.64928E-10  8.31624E-10  8.98940E-10  9.66867E-10  1.03539E-09  1.10450E-09  1.17419E-09  1.24445E-09  1.31526E-09
   1.38661E-09  1.45850E-09  1.53090E-09  1.60382E-09  1.67723E-09  1.75113E-09  1.82550E-09  1.90033E-09  1.97561E-09  2.05132E-09
   2.12746E-09  2.20401E-09  2.28096E-09  2.35829E-09  2.43600E-09  2.51406E-09  2.59247E-09  2.67121E-09  2.75027E-09  2.82964E-09
   2.90930E-09  2.98924E-09  3.06944E-09
 Gln      Conc. = 1.13E-09
  -6.81366E-09 -6.59065E-09 -6.29616E-09 -5.93116E-09 -5.52673E-09 -5.11110E-09 -4.70537E-09 -4.32992E-09 -3.99198E-09 -3.61319E-09
  -3.32331E-09 -3.15350E-09 -2.95993E-09 -2.87116E-09 -2.79142E-09 -2.69980E-09 -2.59833E-09 -2.48992E-09 -2.37666E-09 -2.25998E-09
  -2.14094E-09 -2.02038E-09 -1.89899E-09 -1.77727E-09 -1.65548E-09 -1.53379E-09 -1.41267E-09 -1.29229E-09 -1.17274E-09 -1.05432E-09
  -9.37229E-10 -8.21643E-10 -7.07726E-10 -5.95636E-10 -4.85532E-10 -3.77580E-10 -2.71956E-10 -1.68853E-10 -6.85308E-11  2.87884E-11
   1.22864E-10  2.13378E-10  3.00102E-10  3.82684E-10  4.60473E-10  5.32960E-10  5.99420E-10  6.58111E-10  7.08359E-10  7.49663E-10
   7.78299E-10  7.91348E-10  7.86754E-10  7.68637E-10  8.32409E-10  1.08746E-09  1.30952E-09  1.55662E-09  1.99610E-09  2.50963E-09
   2.95272E-09  3.39318E-09  3.82887E-09  4.20612E-09  4.45956E-09  4.56147E-09  4.61202E-09  4.65631E-09  4.48120E-09  4.24118E-09
   4.05765E-09  3.96860E-09  3.97085E-09  3.99365E-09  4.12797E-09  4.42724E-09  4.73655E-09  5.06035E-09  5.40351E-09  5.74388E-09
   6.06204E-09  6.30816E-09  6.42189E-09  6.52026E-09  6.58720E-09  6.48601E-09  6.37791E-09  6.30712E-09  6.17604E-09  6.05938E-09
   5.97218E-09  5.90608E-09  5.85544E-09  5.81550E-09  5.78249E-09  5.75500E-09  5.73184E-09  5.71176E-09  5.69415E-09  5.67845E-09
   5.66396E-09  5.65015E-09  5.63673E-09  5.62345E-09  5.61018E-09  5.59670E-09  5.58278E-09  5.56831E-09  5.55318E-09  5.53725E-09
   5.52047E-09  5.50272E-09  5.48398E-09  5.46415E-09  5.44321E-09  5.42110E-09  5.39780E-09  5.37327E-09  5.34746E-09  5.32041E-09
   5.29198E-09  5.26224E-09  5.23115E-09  5.19872E-09  5.16494E-09  5.12981E-09  5.09333E-09  5.05551E-09  5.01637E-09  4.97589E-09
   4.93410E-09  4.89101E-09  4.84662E-09  4.80096E-09  4.75403E-09  4.70587E-09  4.65647E-09  4.60586E-09  4.55408E-09  4.50112E-09
   4.44702E-09  4.39179E-09  4.33546E-09  4.27808E-09  4.21963E-09  4.16014E-09  4.09967E-09  4.03824E-09  3.97585E-09  3.91258E-09
   3.84845E-09  3.78345E-09  3.71767E-09  3.65117E-09  3.58395E-09  3.51610E-09  3.44773E-09  3.37893E-09  3.30984E-09  3.24074E-09
   3.17196E-09  3.10423E-09  3.03877E-09  2.97836E-09  2.92996E-09  2.91678E-09  3.05858E-09  3.70723E-09  4.29497E-09  4.55417E-09
   4.53709E-09  4.40139E-09  4.27064E-09  4.20129E-09  4.17261E-09  4.06055E-09  3.68710E-09  2.98807E-09  2.24916E-09  1.98771E-09
   1.84054E-09  1.72721E-09  1.62832E-09  1.53700E-09  1.45019E-09  1.36638E-09  1.28469E-09  1.20461E-09  1.12583E-09  1.04813E-09
   9.71364E-10  8.95465E-10  8.20352E-10  7.46006E-10  6.72391E-10  5.99486E-10  5.27305E-10  4.55843E-10  3.85099E-10  3.15093E-10
   2.45835E-10  1.77324E-10  1.09589E-10  4.26504E-11 -2.34865E-11 -8.87981E-11 -1.53270E-10 -2.16863E-10 -2.79585E-10 -3.41409E-10
  -4.02314E-10 -4.62272E-10 -5.21273E-10 -5.79291E-10 -6.36328E-10 -6.92348E-10 -7.47327E-10 -8.01259E-10 -8.54136E-10 -9.05920E-10
  -9.56600E-10 -1.00616E-09 -1.05460E-09 -1.10189E-09 -1.14803E-09 -1.19297E-09 -1.23673E-09 -1.27930E-09 -1.32064E-09 -1.36075E-09
