 LCModel (Version 6.3-1R) Copyright: S.W. Provencher.          Ref.: Magn. Reson. Med. 30:672-679 (1993).                
 onepulse 19x20_ftSpec_smooth_lcm
 26 lines in following concentration table = NCONC+1
    Conc.  %SD   /Cr    Metabolite                                         
 3.48E-11 486%   0.000 Ala                                                 
 4.04E-10  87%   0.000 Asp                                                 
    0.000 999%   0.000 Cr                                                  
 2.54E-09  13%   0.000 GABA                                                
 1.74E-09  16%   0.000 Glc                                                 
    0.000 999%   0.000 Gln                                                 
 3.20E-10 114%   0.000 Glu                                                 
    0.000 999%   0.000 Glyc                                                
    0.000 999%   0.000 GPC                                                 
 2.03E-10  93%   0.000 GSH                                                 
 3.15E-10  62%   0.000 Ins                                                 
    0.000 999%   0.000 Lac                                                 
    0.000 999%   0.000 NAAG                                                
 1.01E-09  15%   0.000 NAA                                                 
 8.99E-11  52%   0.000 PCh                                                 
    0.000 999%   0.000 PCr                                                 
    0.000 999%   0.000 PE                                                  
    0.000 999%   0.000 Scyllo                                              
    0.000 999%   0.000 Ser                                                 
    0.000 999%   0.000 Tau                                                 
 8.99E-11  52%   0.000 GPC+PCh                                             
 1.01E-09  15%   0.000 NAA+NAAG                                            
 3.15E-10  62%   0.000 Ins+Glyc                                            
    0.000 999%   0.000 Cr+PCr                                              
 3.20E-10 114%   0.000 Glu+Gln                                             
   6 lines in following misc. output table
  FWHM = 0.067 ppm    S/N =   5                                            
  Data shift = 0.324 ppm                                                   
  Ph:  39 deg      27.4 deg/ppm                                            
  alphaB,S = 1.6E-01,   7.8E+01                                            
   16 spline knots.   Ns = 5(1)                                            
  ( 5) 2 infls.   ( 3) 1 extrs.                                            
  363 points on ppm-axis = NY
      4.250000     4.238821     4.227641     4.216462     4.205282     4.194103     4.182923     4.171744     4.160564     4.149385
      4.138206     4.127026     4.115847     4.104667     4.093488     4.082308     4.071129     4.059949     4.048770     4.037591
      4.026411     4.015232     4.004052     3.992873     3.981693     3.970514     3.959334     3.948155     3.936975     3.925796
      3.914617     3.903437     3.892258     3.881078     3.869899     3.858719     3.847540     3.836360     3.825181     3.814002
      3.802822     3.791643     3.780463     3.769284     3.758104     3.746925     3.735745     3.724566     3.713387     3.702207
      3.691028     3.679848     3.668669     3.657489     3.646310     3.635130     3.623951     3.612772     3.601592     3.590413
      3.579233     3.568054     3.556874     3.545695     3.534515     3.523336     3.512156     3.500977     3.489798     3.478618
      3.467439     3.456259     3.445080     3.433900     3.422721     3.411541     3.400362     3.389183     3.378003     3.366824
      3.355644     3.344465     3.333285     3.322106     3.310926     3.299747     3.288568     3.277388     3.266209     3.255029
      3.243850     3.232670     3.221491     3.210311     3.199132     3.187953     3.176773     3.165594     3.154414     3.143235
      3.132055     3.120876     3.109696     3.098517     3.087337     3.076158     3.064979     3.053799     3.042620     3.031440
      3.020261     3.009081     2.997902     2.986722     2.975543     2.964364     2.953184     2.942005     2.930825     2.919646
      2.908466     2.897287     2.886107     2.874928     2.863749     2.852569     2.841390     2.830210     2.819031     2.807851
      2.796672     2.785492     2.774313     2.763134     2.751954     2.740775     2.729595     2.718416     2.707236     2.696057
      2.684877     2.673698     2.662519     2.651339     2.640160     2.628980     2.617801     2.606621     2.595442     2.584262
      2.573083     2.561903     2.550724     2.539545     2.528365     2.517186     2.506006     2.494827     2.483647     2.472468
      2.461288     2.450109     2.438930     2.427750     2.416571     2.405391     2.394212     2.383032     2.371853     2.360673
      2.349494     2.338315     2.327135     2.315956     2.304776     2.293597     2.282417     2.271238     2.260058     2.248879
      2.237700     2.226520     2.215341     2.204161     2.192982     2.181802     2.170623     2.159443     2.148264     2.137084
      2.125905     2.114726     2.103546     2.092367     2.081187     2.070008     2.058828     2.047649     2.036469     2.025290
      2.014111     2.002931     1.991752     1.980572     1.969393     1.958213     1.947034     1.935854     1.924675     1.913496
      1.902316     1.891137     1.879957     1.868778     1.857598     1.846419     1.835239     1.824060     1.812881     1.801701
      1.790522     1.779342     1.768163     1.756983     1.745804     1.734624     1.723445     1.712265     1.701086     1.689907
      1.678727     1.667548     1.656368     1.645189     1.634009     1.622830     1.611650     1.600471     1.589292     1.578112
      1.566933     1.555753     1.544574     1.533394     1.522215     1.511035     1.499856     1.488677     1.477497     1.466318
      1.455138     1.443959     1.432779     1.421600     1.410420     1.399241     1.388062     1.376882     1.365703     1.354523
      1.343344     1.332164     1.320985     1.309805     1.298626     1.287446     1.276267     1.265088     1.253908     1.242729
      1.231549     1.220370     1.209190     1.198011     1.186831     1.175652     1.164473     1.153293     1.142114     1.130934
      1.119755     1.108575     1.097396     1.086216     1.075037     1.063858     1.052678     1.041499     1.030319     1.019140
      1.007960     0.996781     0.985601     0.974422     0.963243     0.952063     0.940884     0.929704     0.918525     0.907345
      0.896166     0.884986     0.873807     0.862628     0.851448     0.840269     0.829089     0.817910     0.806730     0.795551
      0.784371     0.773192     0.762012     0.750833     0.739654     0.728474     0.717295     0.706115     0.694936     0.683756
      0.672577     0.661397     0.650218     0.639039     0.627859     0.616680     0.605500     0.594321     0.583141     0.571962
      0.560782     0.549603     0.538424     0.527244     0.516065     0.504885     0.493706     0.482526     0.471347     0.460167
      0.448988     0.437809     0.426629     0.415450     0.404270     0.393091     0.381911     0.370732     0.359552     0.348373
      0.337193     0.326014     0.314835     0.303655     0.292476     0.281296     0.270117     0.258937     0.247758     0.236578
      0.225399     0.214220     0.203040
 NY phased data points follow
   1.09983E-09  3.58779E-09  6.96176E-09  7.75288E-09  1.08907E-08  9.48555E-09  8.66393E-09  7.16525E-09  6.42388E-09  5.01565E-09
   5.46839E-09  5.12523E-09  5.43961E-09  5.41992E-09  6.12208E-09  5.97797E-09  6.69362E-09  7.43402E-09  8.12960E-09  6.97729E-09
   7.57324E-09  6.86312E-09  7.51708E-09  7.02663E-09  6.08364E-09  6.09354E-09  6.49937E-09  6.85290E-09  7.50535E-09  7.22569E-09
   7.61176E-09  5.86669E-09  5.98094E-09  6.66448E-09  8.21464E-09  1.00659E-08  1.01502E-08  1.01080E-08  8.50383E-09  7.17322E-09
   6.34431E-09  5.31186E-09  5.43272E-09  4.61787E-09  5.60819E-09  4.45156E-09  4.61441E-09  5.19444E-09  4.43700E-09  3.47746E-09
   3.00148E-09  3.31887E-09  3.62793E-09  3.23646E-09  4.48876E-09  3.90795E-09  4.46953E-09  2.80281E-09  3.51479E-09  3.07943E-09
   2.91338E-09  4.03811E-09  4.92871E-09  4.92061E-09  6.26921E-09  8.32326E-09  1.02024E-08  1.14614E-08  1.04175E-08  8.23711E-09
   6.97260E-09  5.53937E-09  5.76376E-09  4.47231E-09  3.52765E-09  3.20009E-09  3.83789E-09  2.74870E-09  3.22607E-09  3.52391E-09
   4.53169E-09  7.24490E-09  1.15794E-08  1.36165E-08  1.28499E-08  1.13157E-08  9.71393E-09  7.96294E-09  7.69212E-09  6.33486E-09
   6.20521E-09  5.79064E-09  5.44365E-09  5.53054E-09  5.60774E-09  4.45145E-09  4.29896E-09  3.64565E-09  4.23737E-09  2.76411E-09
   2.88645E-09  3.03893E-09  2.92314E-09  3.67670E-09  2.75750E-09  3.79118E-09  3.09079E-09  3.20159E-09  3.58716E-09  2.99003E-09
   3.24906E-09  2.26361E-09  2.44516E-09  1.71003E-09  2.41608E-09  2.51401E-09  3.46922E-09  2.63498E-09  3.63789E-09  3.44008E-09
   3.59983E-09  3.35358E-09  3.74099E-09  2.98614E-09  3.05605E-09  2.28735E-09  1.96682E-09  1.34376E-09  1.98510E-09  1.71819E-09
   2.28335E-09  2.58153E-09  2.62826E-09  2.34034E-09  3.23838E-09  3.54831E-09  2.65078E-09  2.43008E-09  3.00047E-09  2.13116E-09
   2.83625E-09  3.44358E-09  3.92132E-09  4.73815E-09  4.53010E-09  3.42899E-09  3.84694E-09  4.04225E-09  4.16999E-09  4.82264E-09
   4.61283E-09  4.37875E-09  3.95779E-09  3.86165E-09  4.46120E-09  3.91654E-09  4.31147E-09  4.26737E-09  4.64850E-09  4.44781E-09
   5.28463E-09  4.86666E-09  5.12556E-09  5.03955E-09  5.87164E-09  6.17113E-09  6.69473E-09  7.14617E-09  7.29546E-09  7.98040E-09
   9.90136E-09  1.14592E-08  1.40116E-08  1.67281E-08  1.73789E-08  1.37982E-08  1.06029E-08  6.94272E-09  5.15250E-09  4.07542E-09
   4.27728E-09  2.86179E-09  2.77399E-09  1.91542E-09  2.24548E-09  1.49893E-09  1.53833E-09 -3.44286E-10  4.98775E-10 -6.24177E-10
  -9.51679E-10 -1.16781E-09 -1.49962E-09 -3.12827E-09 -3.24828E-09 -3.86592E-09 -4.62646E-09 -5.75006E-09 -6.30655E-09 -7.47148E-09
  -8.22271E-09 -8.67612E-09 -9.89487E-09 -1.00533E-08 -1.02989E-08 -1.08845E-08 -1.08407E-08 -1.09211E-08 -1.03055E-08 -9.77106E-09
  -9.17945E-09 -9.29209E-09 -7.18451E-09 -6.08201E-09 -5.71811E-09 -4.41115E-09 -3.21001E-09 -2.94677E-09 -2.49720E-09 -1.91905E-09
  -1.54194E-09 -2.22510E-09 -2.69279E-09 -2.37670E-09 -1.73376E-09 -2.79248E-09 -2.41863E-09 -2.02153E-09 -2.10684E-09 -2.16253E-09
  -2.13990E-09 -1.68156E-09 -2.07445E-09 -2.13146E-09 -1.93741E-09 -2.91032E-09 -2.30123E-09 -2.23242E-09 -1.78270E-09 -1.87350E-09
  -2.35848E-09 -1.26702E-09 -1.23079E-09 -1.96232E-09 -1.72620E-09 -2.46501E-09 -1.96542E-09 -1.95903E-09 -2.03842E-09 -1.84826E-09
  -1.89516E-09 -1.51646E-09 -1.03696E-09 -1.53156E-09 -1.33533E-09 -5.97209E-10 -1.66421E-09 -1.42652E-09 -1.42229E-09 -2.02047E-09
  -1.24494E-09 -1.92819E-09 -2.35309E-09 -2.65527E-09 -2.38828E-09 -2.01073E-09 -1.53592E-09 -1.56007E-09 -5.62223E-10 -9.84497E-10
  -9.04208E-10 -8.94319E-10 -7.30545E-10 -6.99972E-10 -5.60169E-10 -6.90794E-10 -6.62384E-10 -1.02698E-09 -9.75746E-10 -1.72563E-09
  -1.62125E-09 -1.20365E-09 -2.09175E-09 -2.01190E-09 -1.23646E-09 -1.90977E-09 -1.58772E-09 -1.60654E-09 -1.50915E-09 -1.62280E-09
  -1.01906E-09 -1.62402E-09 -1.78862E-09 -1.32343E-09 -5.91405E-10 -1.05077E-09 -1.57268E-09 -1.36341E-09 -1.05052E-09 -1.37767E-09
  -1.36923E-09 -5.94749E-10 -1.01493E-09 -1.35746E-09 -9.08713E-10 -1.57154E-09 -5.64190E-10 -7.95567E-10 -8.63003E-10 -9.17782E-10
  -1.19748E-09 -1.28612E-09 -1.00694E-09 -4.63396E-10 -6.87780E-10 -6.65665E-10 -1.00792E-09 -9.51421E-10 -9.16016E-10 -9.80152E-10
  -3.71185E-10 -8.06762E-10 -8.78614E-10 -8.51993E-10 -9.07901E-10 -6.02446E-10 -5.15272E-10 -1.23347E-09 -2.55340E-10 -4.77003E-10
  -1.10972E-10 -9.75162E-10 -4.22625E-10 -9.59798E-10 -6.62109E-10 -5.40555E-10 -6.70425E-10 -4.26161E-10 -1.07260E-09 -2.97602E-10
  -6.49284E-10 -1.08056E-09 -9.14998E-10  3.35750E-10 -2.93079E-10 -1.16270E-09 -2.63684E-10 -7.54671E-10 -6.89779E-10 -4.32200E-10
  -6.10141E-10 -4.06496E-10 -7.88354E-10 -4.25092E-10 -6.54194E-10 -2.82163E-10 -4.46456E-10 -8.73121E-10 -7.30135E-10 -8.90972E-10
  -3.37378E-10 -7.20327E-10 -8.32978E-10
 NY points of the fit to the data follow
   4.52851E-09  5.27871E-09  6.15320E-09  7.06992E-09  7.81289E-09  8.16300E-09  8.00749E-09  7.41219E-09  6.66456E-09  5.86430E-09
   5.37624E-09  5.22758E-09  5.28493E-09  5.49614E-09  5.82630E-09  6.19495E-09  6.56473E-09  6.96163E-09  7.36956E-09  7.78755E-09
   8.23173E-09  8.43047E-09  8.15445E-09  7.50983E-09  6.66293E-09  5.82952E-09  5.37542E-09  5.55946E-09  6.15748E-09  6.73087E-09
   7.15378E-09  7.58985E-09  7.85643E-09  7.92816E-09  8.05654E-09  8.35769E-09  8.64553E-09  8.68108E-09  8.41282E-09  7.99875E-09
   7.51566E-09  6.61709E-09  5.65534E-09  5.08064E-09  4.39893E-09  3.69613E-09  3.35760E-09  3.20494E-09  3.23547E-09  3.35107E-09
   3.46398E-09  3.50302E-09  3.47983E-09  3.43783E-09  3.45384E-09  3.57104E-09  3.75809E-09  3.92762E-09  3.97761E-09  3.95795E-09
   4.06782E-09  4.35105E-09  4.80685E-09  5.57369E-09  6.53398E-09  7.36172E-09  8.02677E-09  8.52670E-09  8.79647E-09  8.69624E-09
   8.20419E-09  7.36739E-09  6.42050E-09  5.41467E-09  4.44163E-09  3.96114E-09  3.86596E-09  4.20483E-09  4.87702E-09  5.78794E-09
   6.91629E-09  8.42709E-09  1.01566E-08  1.14698E-08  1.19875E-08  1.15847E-08  1.02868E-08  8.51450E-09  6.92947E-09  6.38878E-09
   6.24666E-09  6.07917E-09  5.68989E-09  5.33076E-09  5.03775E-09  4.55177E-09  4.10570E-09  3.82781E-09  3.55592E-09  3.32845E-09
   3.18667E-09  3.09409E-09  3.03607E-09  3.01085E-09  3.00605E-09  3.01194E-09  3.02119E-09  3.02843E-09  3.03077E-09  3.02601E-09
   3.01475E-09  3.00387E-09  3.00007E-09  2.99042E-09  2.98522E-09  2.99797E-09  3.01738E-09  3.04000E-09  3.06450E-09  3.09019E-09
   3.11662E-09  3.14342E-09  3.17031E-09  3.19705E-09  3.22344E-09  3.24929E-09  3.27443E-09  3.29871E-09  3.32198E-09  3.34409E-09
   3.36491E-09  3.38432E-09  3.40218E-09  3.41836E-09  3.43274E-09  3.44520E-09  3.45563E-09  3.46392E-09  3.46998E-09  3.47369E-09
   3.47494E-09  3.47357E-09  3.46943E-09  3.46237E-09  3.45225E-09  3.43892E-09  3.42224E-09  3.40209E-09  3.37833E-09  3.35086E-09
   3.31961E-09  3.28451E-09  3.24553E-09  3.20268E-09  3.15602E-09  3.10571E-09  3.05202E-09  2.99541E-09  2.93661E-09  2.87681E-09
   2.81801E-09  2.76371E-09  2.72051E-09  2.70265E-09  2.74900E-09  3.01975E-09  3.75533E-09  5.02102E-09  6.68081E-09  8.65055E-09
   1.10470E-08  1.37192E-08  1.60538E-08  1.71924E-08  1.64799E-08  1.38335E-08  9.84957E-09  5.72614E-09  2.68230E-09  1.09556E-09
   4.30651E-10  1.49860E-11 -3.05899E-10 -5.79660E-10 -8.25883E-10 -1.05403E-09 -1.26907E-09 -1.47377E-09 -1.66966E-09 -1.85760E-09
  -2.03798E-09 -2.21094E-09 -2.37642E-09 -2.53423E-09 -2.68410E-09 -2.82571E-09 -2.95881E-09 -3.08355E-09 -3.20019E-09 -3.30891E-09
  -3.40992E-09 -3.50338E-09 -3.58948E-09 -3.66838E-09 -3.74023E-09 -3.80518E-09 -3.86339E-09 -3.91499E-09 -3.96013E-09 -3.99895E-09
  -4.03158E-09 -4.05815E-09 -4.07881E-09 -4.09368E-09 -4.10290E-09 -4.10660E-09 -4.10491E-09 -4.09794E-09 -4.08585E-09 -4.06875E-09
  -4.04676E-09 -4.02003E-09 -3.98867E-09 -3.95281E-09 -3.91262E-09 -3.86836E-09 -3.82027E-09 -3.76861E-09 -3.71366E-09 -3.65566E-09
  -3.59488E-09 -3.53157E-09 -3.46601E-09 -3.39844E-09 -3.32911E-09 -3.25830E-09 -3.18626E-09 -3.11325E-09 -3.03951E-09 -2.96533E-09
  -2.89095E-09 -2.81663E-09 -2.74263E-09 -2.66921E-09 -2.59662E-09 -2.52512E-09 -2.45497E-09 -2.38643E-09 -2.31976E-09 -2.25521E-09
  -2.19304E-09 -2.13351E-09 -2.07673E-09 -2.02261E-09 -1.97109E-09 -1.92208E-09 -1.87548E-09 -1.83121E-09 -1.78918E-09 -1.74930E-09
  -1.71150E-09 -1.67567E-09 -1.64174E-09 -1.60961E-09 -1.57921E-09 -1.55045E-09 -1.52321E-09 -1.49746E-09 -1.47307E-09 -1.44997E-09
  -1.42806E-09 -1.40727E-09 -1.38751E-09 -1.36867E-09 -1.35070E-09 -1.33348E-09 -1.31696E-09 -1.30101E-09 -1.28558E-09 -1.27056E-09
  -1.25591E-09 -1.24162E-09 -1.22766E-09 -1.21403E-09 -1.20071E-09 -1.18767E-09 -1.17492E-09 -1.16243E-09 -1.15018E-09 -1.13816E-09
  -1.12637E-09 -1.11477E-09 -1.10335E-09 -1.09211E-09 -1.08102E-09 -1.07007E-09 -1.05925E-09 -1.04853E-09 -1.03792E-09 -1.02737E-09
  -1.01689E-09 -1.00645E-09 -9.96050E-10 -9.85669E-10 -9.75288E-10 -9.64891E-10 -9.54469E-10 -9.43999E-10 -9.33489E-10 -9.22950E-10
  -9.12391E-10 -9.01824E-10 -8.91261E-10 -8.80709E-10 -8.70183E-10 -8.59693E-10 -8.49248E-10 -8.38861E-10 -8.28543E-10 -8.18301E-10
  -8.08155E-10 -7.98105E-10 -7.88167E-10 -7.78356E-10 -7.68674E-10 -7.59142E-10 -7.49763E-10 -7.40549E-10 -7.31515E-10 -7.22672E-10
  -7.14024E-10 -7.05588E-10 -6.97371E-10 -6.89389E-10 -6.81651E-10 -6.74161E-10 -6.66919E-10 -6.59916E-10 -6.53141E-10 -6.46584E-10
  -6.40236E-10 -6.34087E-10 -6.28126E-10 -6.22345E-10 -6.16736E-10 -6.11284E-10 -6.05986E-10 -6.00828E-10 -5.95802E-10 -5.90897E-10
  -5.86103E-10 -5.81414E-10 -5.76816E-10 -5.72303E-10 -5.67862E-10 -5.63486E-10 -5.59164E-10 -5.54885E-10 -5.50642E-10 -5.46426E-10
  -5.42226E-10 -5.38033E-10 -5.33832E-10
 NY background values follow
    -4.754E-10   -4.551E-10   -4.349E-10   -4.147E-10   -3.947E-10   -3.747E-10   -3.548E-10   -3.351E-10   -3.154E-10   -2.959E-10
    -2.766E-10   -2.574E-10   -2.383E-10   -2.195E-10   -2.008E-10   -1.823E-10   -1.641E-10   -1.460E-10   -1.282E-10   -1.106E-10
    -9.332E-11   -7.625E-11   -5.946E-11   -4.296E-11   -2.674E-11   -1.083E-11    4.762E-12    2.003E-11    3.496E-11    4.956E-11
     6.382E-11    7.778E-11    9.143E-11    1.048E-10    1.179E-10    1.308E-10    1.434E-10    1.559E-10    1.681E-10    1.801E-10
     1.920E-10    2.037E-10    2.153E-10    2.267E-10    2.381E-10    2.494E-10    2.606E-10    2.717E-10    2.828E-10    2.939E-10
     3.050E-10    3.160E-10    3.271E-10    3.383E-10    3.495E-10    3.607E-10    3.721E-10    3.835E-10    3.952E-10    4.069E-10
     4.189E-10    4.312E-10    4.437E-10    4.566E-10    4.698E-10    4.834E-10    4.975E-10    5.120E-10    5.270E-10    5.425E-10
     5.586E-10    5.753E-10    5.927E-10    6.107E-10    6.294E-10    6.489E-10    6.691E-10    6.902E-10    7.121E-10    7.349E-10
     7.587E-10    7.834E-10    8.090E-10    8.358E-10    8.635E-10    8.924E-10    9.222E-10    9.531E-10    9.849E-10    1.018E-09
     1.051E-09    1.086E-09    1.121E-09    1.157E-09    1.194E-09    1.231E-09    1.269E-09    1.308E-09    1.348E-09    1.387E-09
     1.428E-09    1.469E-09    1.510E-09    1.552E-09    1.594E-09    1.636E-09    1.679E-09    1.722E-09    1.765E-09    1.809E-09
     1.852E-09    1.896E-09    1.940E-09    1.983E-09    2.027E-09    2.070E-09    2.113E-09    2.156E-09    2.198E-09    2.240E-09
     2.280E-09    2.320E-09    2.359E-09    2.397E-09    2.434E-09    2.470E-09    2.504E-09    2.537E-09    2.568E-09    2.598E-09
     2.626E-09    2.652E-09    2.676E-09    2.699E-09    2.719E-09    2.736E-09    2.752E-09    2.765E-09    2.775E-09    2.783E-09
     2.788E-09    2.790E-09    2.789E-09    2.784E-09    2.777E-09    2.765E-09    2.750E-09    2.731E-09    2.708E-09    2.681E-09
     2.649E-09    2.613E-09    2.572E-09    2.526E-09    2.475E-09    2.419E-09    2.357E-09    2.290E-09    2.217E-09    2.138E-09
     2.053E-09    1.962E-09    1.865E-09    1.761E-09    1.650E-09    1.532E-09    1.407E-09    1.275E-09    1.136E-09    9.895E-10
     8.369E-10    6.784E-10    5.147E-10    3.463E-10    1.737E-10   -2.538E-12   -1.819E-10   -3.637E-10   -5.475E-10   -7.328E-10
    -9.190E-10   -1.106E-09   -1.292E-09   -1.477E-09   -1.662E-09   -1.844E-09   -2.024E-09   -2.202E-09   -2.375E-09   -2.545E-09
    -2.710E-09   -2.870E-09   -3.024E-09   -3.173E-09   -3.314E-09   -3.448E-09   -3.574E-09   -3.693E-09   -3.804E-09   -3.908E-09
    -4.005E-09   -4.094E-09   -4.176E-09   -4.251E-09   -4.320E-09   -4.382E-09   -4.437E-09   -4.486E-09   -4.529E-09   -4.565E-09
    -4.595E-09   -4.620E-09   -4.638E-09   -4.651E-09   -4.658E-09   -4.660E-09   -4.657E-09   -4.648E-09   -4.634E-09   -4.616E-09
    -4.592E-09   -4.564E-09   -4.531E-09   -4.494E-09   -4.452E-09   -4.407E-09   -4.357E-09   -4.305E-09   -4.248E-09   -4.189E-09
    -4.127E-09   -4.063E-09   -3.996E-09   -3.928E-09   -3.857E-09   -3.786E-09   -3.713E-09   -3.639E-09   -3.564E-09   -3.489E-09
    -3.413E-09   -3.338E-09   -3.263E-09   -3.189E-09   -3.116E-09   -3.043E-09   -2.972E-09   -2.903E-09   -2.836E-09   -2.770E-09
    -2.707E-09   -2.647E-09   -2.590E-09   -2.535E-09   -2.483E-09   -2.433E-09   -2.386E-09   -2.341E-09   -2.298E-09   -2.257E-09
    -2.219E-09   -2.182E-09   -2.148E-09   -2.115E-09   -2.084E-09   -2.055E-09   -2.027E-09   -2.001E-09   -1.976E-09   -1.952E-09
    -1.929E-09   -1.908E-09   -1.888E-09   -1.868E-09   -1.850E-09   -1.832E-09   -1.815E-09   -1.799E-09   -1.783E-09   -1.767E-09
    -1.752E-09   -1.737E-09   -1.723E-09   -1.709E-09   -1.695E-09   -1.681E-09   -1.668E-09   -1.655E-09   -1.642E-09   -1.630E-09
    -1.618E-09   -1.606E-09   -1.594E-09   -1.582E-09   -1.570E-09   -1.559E-09   -1.548E-09   -1.537E-09   -1.526E-09   -1.515E-09
    -1.504E-09   -1.493E-09   -1.482E-09   -1.471E-09   -1.460E-09   -1.450E-09   -1.439E-09   -1.428E-09   -1.417E-09   -1.406E-09
    -1.395E-09   -1.384E-09   -1.373E-09   -1.362E-09   -1.351E-09   -1.340E-09   -1.330E-09   -1.319E-09   -1.308E-09   -1.298E-09
    -1.287E-09   -1.277E-09   -1.266E-09   -1.256E-09   -1.246E-09   -1.236E-09   -1.226E-09   -1.217E-09   -1.207E-09   -1.198E-09
    -1.189E-09   -1.180E-09   -1.172E-09   -1.164E-09   -1.155E-09   -1.148E-09   -1.140E-09   -1.133E-09   -1.126E-09   -1.119E-09
    -1.112E-09   -1.106E-09   -1.099E-09   -1.093E-09   -1.087E-09   -1.081E-09   -1.076E-09   -1.070E-09   -1.065E-09   -1.060E-09
    -1.055E-09   -1.050E-09   -1.045E-09   -1.040E-09   -1.035E-09   -1.030E-09   -1.026E-09   -1.021E-09   -1.016E-09   -1.012E-09
    -1.007E-09   -1.003E-09   -9.984E-10
 Ala      Conc. = 3.48E-11
  -4.54872E-10 -4.31188E-10 -4.08216E-10 -3.85875E-10 -3.64386E-10 -3.43701E-10 -3.24309E-10 -3.06914E-10 -2.89506E-10 -2.71926E-10
  -2.56753E-10 -2.41376E-10 -2.24450E-10 -2.08155E-10 -1.91841E-10 -1.74858E-10 -1.57616E-10 -1.40318E-10 -1.23073E-10 -1.05946E-10
  -8.89834E-11 -7.22170E-11 -5.56767E-11 -3.93797E-11 -2.33443E-11 -7.59274E-12  7.86499E-12  2.30149E-11  3.78415E-11  5.23388E-11
   6.65184E-11  8.03961E-11  9.39853E-11  1.07302E-10  1.20360E-10  1.33176E-10  1.45764E-10  1.58139E-10  1.70319E-10  1.82319E-10
   1.94152E-10  2.05837E-10  2.17387E-10  2.28820E-10  2.40150E-10  2.51394E-10  2.62568E-10  2.73685E-10  2.84765E-10  2.95822E-10
   3.06870E-10  3.17929E-10  3.29011E-10  3.40134E-10  3.51311E-10  3.62564E-10  3.73906E-10  3.85358E-10  3.96955E-10  4.08734E-10
   4.20728E-10  4.32975E-10  4.45508E-10  4.58364E-10  4.71577E-10  4.85183E-10  4.99217E-10  5.13716E-10  5.28713E-10  5.44246E-10
   5.60348E-10  5.77057E-10  5.94406E-10  6.12433E-10  6.31172E-10  6.50659E-10  6.70931E-10  6.92021E-10  7.13968E-10  7.36807E-10
   7.60573E-10  7.85304E-10  8.11035E-10  8.37805E-10  8.65648E-10  8.94569E-10  9.24535E-10  9.55514E-10  9.87475E-10  1.02039E-09
   1.05422E-09  1.08896E-09  1.12458E-09  1.16107E-09  1.19844E-09  1.23673E-09  1.27602E-09  1.31654E-09  1.35885E-09  1.40490E-09
   1.45840E-09  1.51199E-09  1.56824E-09  1.63530E-09  1.70686E-09  1.77682E-09  1.84049E-09  1.89458E-09  1.93782E-09  1.96937E-09
   1.99063E-09  2.00892E-09  2.03131E-09  2.04523E-09  2.06132E-09  2.09355E-09  2.13088E-09  2.17005E-09  2.20984E-09  2.24969E-09
   2.28924E-09  2.32826E-09  2.36655E-09  2.40395E-09  2.44034E-09  2.47558E-09  2.50955E-09  2.54214E-09  2.57324E-09  2.60273E-09
   2.63050E-09  2.65646E-09  2.68048E-09  2.70248E-09  2.72234E-09  2.73997E-09  2.75525E-09  2.76808E-09  2.77836E-09  2.78599E-09
   2.79086E-09  2.79282E-09  2.79170E-09  2.78735E-09  2.77958E-09  2.76824E-09  2.75317E-09  2.73418E-09  2.71112E-09  2.68383E-09
   2.65213E-09  2.61585E-09  2.57485E-09  2.52894E-09  2.47796E-09  2.42175E-09  2.36015E-09  2.29298E-09  2.22010E-09  2.14134E-09
   2.05653E-09  1.96553E-09  1.86821E-09  1.76444E-09  1.65416E-09  1.53752E-09  1.41570E-09  1.29193E-09  1.16182E-09  1.02574E-09
   8.86230E-10  7.43967E-10  5.96305E-10  4.38137E-10  2.65016E-10  7.63664E-11 -1.24521E-10 -3.31134E-10 -5.33924E-10 -7.24619E-10
  -9.12933E-10 -1.10058E-09 -1.28761E-09 -1.47366E-09 -1.65829E-09 -1.84100E-09 -2.02128E-09 -2.19861E-09 -2.37242E-09 -2.54219E-09
  -2.70738E-09 -2.86746E-09 -3.02187E-09 -3.17006E-09 -3.31150E-09 -3.44564E-09 -3.57207E-09 -3.69083E-09 -3.80205E-09 -3.90585E-09
  -4.00234E-09 -4.09166E-09 -4.17393E-09 -4.24928E-09 -4.31782E-09 -4.37968E-09 -4.43499E-09 -4.48386E-09 -4.52642E-09 -4.56280E-09
  -4.59312E-09 -4.61750E-09 -4.63606E-09 -4.64894E-09 -4.65625E-09 -4.65812E-09 -4.65467E-09 -4.64602E-09 -4.63230E-09 -4.61363E-09
  -4.59013E-09 -4.56193E-09 -4.52916E-09 -4.49193E-09 -4.45041E-09 -4.40486E-09 -4.35551E-09 -4.30264E-09 -4.24650E-09 -4.18735E-09
  -4.12545E-09 -4.06105E-09 -3.99441E-09 -3.92579E-09 -3.85545E-09 -3.78364E-09 -3.71062E-09 -3.63665E-09 -3.56198E-09 -3.48689E-09
  -3.41161E-09 -3.33641E-09 -3.26154E-09 -3.18728E-09 -3.11386E-09 -3.04154E-09 -2.97059E-09 -2.90126E-09 -2.83381E-09 -2.76851E-09
  -2.70558E-09 -2.64531E-09 -2.58780E-09 -2.53298E-09 -2.48075E-09 -2.43105E-09 -2.38376E-09 -2.33882E-09 -2.29612E-09 -2.25559E-09
  -2.21714E-09 -2.18067E-09 -2.14612E-09 -2.11337E-09 -2.08236E-09 -2.05299E-09 -2.02516E-09 -1.99881E-09 -1.97385E-09 -1.95017E-09
  -1.92769E-09 -1.90635E-09 -1.88602E-09 -1.86664E-09 -1.84813E-09 -1.83037E-09 -1.81331E-09 -1.79685E-09 -1.78089E-09 -1.76536E-09
  -1.75020E-09 -1.73541E-09 -1.72095E-09 -1.70682E-09 -1.69301E-09 -1.67950E-09 -1.66626E-09 -1.65330E-09 -1.64058E-09 -1.62810E-09
  -1.61584E-09 -1.60378E-09 -1.59192E-09 -1.58022E-09 -1.56869E-09 -1.55730E-09 -1.54604E-09 -1.53488E-09 -1.52383E-09 -1.51286E-09
  -1.50195E-09 -1.49110E-09 -1.48028E-09 -1.46948E-09 -1.45869E-09 -1.44788E-09 -1.43705E-09 -1.42618E-09 -1.41527E-09 -1.40434E-09
  -1.39338E-09 -1.38242E-09 -1.37147E-09 -1.36053E-09 -1.34962E-09 -1.33875E-09 -1.32792E-09 -1.31716E-09 -1.30647E-09 -1.29585E-09
  -1.28533E-09 -1.27491E-09 -1.26461E-09 -1.25443E-09 -1.24439E-09 -1.23450E-09 -1.22476E-09 -1.21519E-09 -1.20580E-09 -1.19660E-09
  -1.18760E-09 -1.17881E-09 -1.17024E-09 -1.16191E-09 -1.15383E-09 -1.14599E-09 -1.13841E-09 -1.13106E-09 -1.12395E-09 -1.11705E-09
  -1.11036E-09 -1.10388E-09 -1.09758E-09 -1.09146E-09 -1.08552E-09 -1.07974E-09 -1.07411E-09 -1.06862E-09 -1.06326E-09 -1.05803E-09
  -1.05291E-09 -1.04789E-09 -1.04296E-09 -1.03812E-09 -1.03336E-09 -1.02866E-09 -1.02401E-09 -1.01941E-09 -1.01484E-09 -1.01030E-09
  -1.00578E-09 -1.00126E-09 -9.96741E-10
 Asp      Conc. = 4.04E-10
   3.36189E-11  1.36518E-11 -1.18789E-11 -4.93786E-11 -9.44211E-11 -1.50199E-10 -1.94044E-10 -2.25615E-10 -2.32491E-10 -2.29043E-10
  -2.20266E-10 -2.08281E-10 -1.94237E-10 -1.78935E-10 -1.63113E-10 -1.47028E-10 -1.30712E-10 -1.14244E-10 -9.76937E-11 -8.11149E-11
  -6.45519E-11 -4.80361E-11 -3.15950E-11 -1.52396E-11  1.02201E-12  1.71842E-11  3.32614E-11  4.92738E-11  6.52544E-11  8.12656E-11
   9.74169E-11  1.13869E-10  1.30860E-10  1.48773E-10  1.68299E-10  1.90919E-10  2.20420E-10  2.53147E-10  2.93083E-10  3.34502E-10
   3.76944E-10  4.20212E-10  4.62834E-10  5.05879E-10  5.41098E-10  5.85707E-10  6.29105E-10  6.89951E-10  8.02525E-10  9.40371E-10
   1.06503E-09  1.12904E-09  1.11665E-09  1.03935E-09  9.33984E-10  8.48354E-10  7.87348E-10  7.65507E-10  7.20311E-10  6.62654E-10
   6.38797E-10  6.38006E-10  6.43446E-10  6.54655E-10  6.60586E-10  6.49835E-10  6.29672E-10  6.22790E-10  6.23382E-10  6.28375E-10
   6.36358E-10  6.46588E-10  6.58632E-10  6.72228E-10  6.87208E-10  7.03463E-10  7.20924E-10  7.39547E-10  7.59309E-10  7.80198E-10
   8.02211E-10  8.25354E-10  8.49639E-10  8.75082E-10  9.01698E-10  9.29478E-10  9.58374E-10  9.88338E-10  1.01933E-09  1.05130E-09
   1.08420E-09  1.11800E-09  1.15265E-09  1.18812E-09  1.22436E-09  1.26132E-09  1.29898E-09  1.33730E-09  1.37622E-09  1.41572E-09
   1.45576E-09  1.49629E-09  1.53729E-09  1.57870E-09  1.62049E-09  1.66263E-09  1.70508E-09  1.74779E-09  1.79074E-09  1.83388E-09
   1.87718E-09  1.92059E-09  1.96409E-09  2.00758E-09  2.05098E-09  2.09418E-09  2.13707E-09  2.17956E-09  2.22153E-09  2.26290E-09
   2.30355E-09  2.34339E-09  2.38231E-09  2.42021E-09  2.45699E-09  2.49254E-09  2.52676E-09  2.55956E-09  2.59083E-09  2.62046E-09
   2.64836E-09  2.67442E-09  2.69854E-09  2.72062E-09  2.74056E-09  2.75825E-09  2.77360E-09  2.78650E-09  2.79684E-09  2.80454E-09
   2.80948E-09  2.81151E-09  2.81048E-09  2.80622E-09  2.79855E-09  2.78733E-09  2.77238E-09  2.75354E-09  2.73065E-09  2.70355E-09
   2.67207E-09  2.63606E-09  2.59535E-09  2.54980E-09  2.49925E-09  2.44355E-09  2.38256E-09  2.31614E-09  2.24419E-09  2.16660E-09
   2.08331E-09  1.99433E-09  1.89978E-09  1.80001E-09  1.69603E-09  1.59074E-09  1.49621E-09  1.45722E-09  1.42492E-09  1.39474E-09
   1.39020E-09  1.41685E-09  1.44206E-09  1.40202E-09  1.23630E-09  9.27548E-10  5.04143E-10  3.20854E-11 -3.86751E-10 -6.45375E-10
  -8.58158E-10 -1.05796E-09 -1.25210E-09 -1.44275E-09 -1.63054E-09 -1.81554E-09 -1.99754E-09 -2.17618E-09 -2.35103E-09 -2.52164E-09
  -2.68753E-09 -2.84817E-09 -3.00307E-09 -3.15166E-09 -3.29345E-09 -3.42789E-09 -3.55459E-09 -3.67358E-09 -3.78501E-09 -3.88899E-09
  -3.98565E-09 -4.07512E-09 -4.15753E-09 -4.23299E-09 -4.30165E-09 -4.36361E-09 -4.41901E-09 -4.46798E-09 -4.51062E-09 -4.54708E-09
  -4.57747E-09 -4.60192E-09 -4.62054E-09 -4.63348E-09 -4.64084E-09 -4.64277E-09 -4.63936E-09 -4.63076E-09 -4.61709E-09 -4.59846E-09
  -4.57501E-09 -4.54685E-09 -4.51411E-09 -4.47692E-09 -4.43544E-09 -4.38992E-09 -4.34061E-09 -4.28777E-09 -4.23166E-09 -4.17254E-09
