 LCModel (Version 6.3-1R) Copyright: S.W. Provencher.          Ref.: Magn. Reson. Med. 30:672-679 (1993).                
 onepulse 19x27_ftSpec_smooth_lcm
 26 lines in following concentration table = NCONC+1
    Conc.  %SD /Cr+PCr  Metabolite                                         
    0.000 999%   0.000 Ala                                                 
    0.000 999%   0.000 Asp                                                 
    0.000 999%   0.000 Cr                                                  
 1.44E-11 999% 7.8E-02 GABA                                                
    0.000 999%   0.000 Glc                                                 
 1.78E-09  61%   9.636 Gln                                                 
 3.51E-10 341%   1.903 Glu                                                 
 1.50E-09  27%   8.130 Glyc                                                
    0.000 999%   0.000 GPC                                                 
    0.000 999%   0.000 GSH                                                 
    0.000 999%   0.000 Ins                                                 
    0.000 999%   0.000 Lac                                                 
 2.29E-10 194%   1.241 NAAG                                                
 5.41E-10 104%   2.934 NAA                                                 
    0.000 999%   0.000 PCh                                                 
 1.84E-10 250%   1.000 PCr                                                 
 1.66E-09  38%   9.030 PE                                                  
 1.55E-10 110%   0.844 Scyllo                                              
 2.15E-09  36%  11.685 Ser                                                 
    0.000 999%   0.000 Tau                                                 
    0.000 999%   0.000 GPC+PCh                                             
 7.69E-10  45%   4.175 NAA+NAAG                                            
 1.50E-09  27%   8.130 Ins+Glyc                                            
 1.84E-10 250%   1.000 Cr+PCr                                              
 2.13E-09  44%  11.539 Glu+Gln                                             
   6 lines in following misc. output table
  FWHM = 0.078 ppm    S/N =   2                                            
  Data shift = 0.347 ppm                                                   
  Ph: -55 deg     -37.4 deg/ppm                                            
  alphaB,S = 1.2E+00,   2.2E+01                                            
    9 spline knots.   Ns = 5(1)                                            
  ( 5) 2 infls.   ( 5) 1 extrs.                                            
  363 points on ppm-axis = NY
      4.250000     4.238821     4.227641     4.216462     4.205282     4.194103     4.182923     4.171744     4.160564     4.149385
      4.138206     4.127026     4.115847     4.104667     4.093488     4.082308     4.071129     4.059949     4.048770     4.037591
      4.026411     4.015232     4.004052     3.992873     3.981693     3.970514     3.959334     3.948155     3.936975     3.925796
      3.914617     3.903437     3.892258     3.881078     3.869899     3.858719     3.847540     3.836360     3.825181     3.814002
      3.802822     3.791643     3.780463     3.769284     3.758104     3.746925     3.735745     3.724566     3.713387     3.702207
      3.691028     3.679848     3.668669     3.657489     3.646310     3.635130     3.623951     3.612772     3.601592     3.590413
      3.579233     3.568054     3.556874     3.545695     3.534515     3.523336     3.512156     3.500977     3.489798     3.478618
      3.467439     3.456259     3.445080     3.433900     3.422721     3.411541     3.400362     3.389183     3.378003     3.366824
      3.355644     3.344465     3.333285     3.322106     3.310926     3.299747     3.288568     3.277388     3.266209     3.255029
      3.243850     3.232670     3.221491     3.210311     3.199132     3.187953     3.176773     3.165594     3.154414     3.143235
      3.132055     3.120876     3.109696     3.098517     3.087337     3.076158     3.064979     3.053799     3.042620     3.031440
      3.020261     3.009081     2.997902     2.986722     2.975543     2.964364     2.953184     2.942005     2.930825     2.919646
      2.908466     2.897287     2.886107     2.874928     2.863749     2.852569     2.841390     2.830210     2.819031     2.807851
      2.796672     2.785492     2.774313     2.763134     2.751954     2.740775     2.729595     2.718416     2.707236     2.696057
      2.684877     2.673698     2.662519     2.651339     2.640160     2.628980     2.617801     2.606621     2.595442     2.584262
      2.573083     2.561903     2.550724     2.539545     2.528365     2.517186     2.506006     2.494827     2.483647     2.472468
      2.461288     2.450109     2.438930     2.427750     2.416571     2.405391     2.394212     2.383032     2.371853     2.360673
      2.349494     2.338315     2.327135     2.315956     2.304776     2.293597     2.282417     2.271238     2.260058     2.248879
      2.237700     2.226520     2.215341     2.204161     2.192982     2.181802     2.170623     2.159443     2.148264     2.137084
      2.125905     2.114726     2.103546     2.092367     2.081187     2.070008     2.058828     2.047649     2.036469     2.025290
      2.014111     2.002931     1.991752     1.980572     1.969393     1.958213     1.947034     1.935854     1.924675     1.913496
      1.902316     1.891137     1.879957     1.868778     1.857598     1.846419     1.835239     1.824060     1.812881     1.801701
      1.790522     1.779342     1.768163     1.756983     1.745804     1.734624     1.723445     1.712265     1.701086     1.689907
      1.678727     1.667548     1.656368     1.645189     1.634009     1.622830     1.611650     1.600471     1.589292     1.578112
      1.566933     1.555753     1.544574     1.533394     1.522215     1.511035     1.499856     1.488677     1.477497     1.466318
      1.455138     1.443959     1.432779     1.421600     1.410420     1.399241     1.388062     1.376882     1.365703     1.354523
      1.343344     1.332164     1.320985     1.309805     1.298626     1.287446     1.276267     1.265088     1.253908     1.242729
      1.231549     1.220370     1.209190     1.198011     1.186831     1.175652     1.164473     1.153293     1.142114     1.130934
      1.119755     1.108575     1.097396     1.086216     1.075037     1.063858     1.052678     1.041499     1.030319     1.019140
      1.007960     0.996781     0.985601     0.974422     0.963243     0.952063     0.940884     0.929704     0.918525     0.907345
      0.896166     0.884986     0.873807     0.862628     0.851448     0.840269     0.829089     0.817910     0.806730     0.795551
      0.784371     0.773192     0.762012     0.750833     0.739654     0.728474     0.717295     0.706115     0.694936     0.683756
      0.672577     0.661397     0.650218     0.639039     0.627859     0.616680     0.605500     0.594321     0.583141     0.571962
      0.560782     0.549603     0.538424     0.527244     0.516065     0.504885     0.493706     0.482526     0.471347     0.460167
      0.448988     0.437809     0.426629     0.415450     0.404270     0.393091     0.381911     0.370732     0.359552     0.348373
      0.337193     0.326014     0.314835     0.303655     0.292476     0.281296     0.270117     0.258937     0.247758     0.236578
      0.225399     0.214220     0.203040
 NY phased data points follow
   1.60687E-08  1.39771E-08  1.10758E-08  8.62619E-09  7.15140E-09  6.99230E-09  6.58865E-09  6.86242E-09  6.92986E-09  7.48255E-09
   7.67783E-09  8.69741E-09  8.18840E-09  8.79083E-09  8.36887E-09  8.91735E-09  7.41989E-09  7.32551E-09  7.07400E-09  7.04566E-09
   6.41560E-09  5.44154E-09  5.56686E-09  6.31046E-09  6.54553E-09  7.66227E-09  6.82079E-09  6.23865E-09  5.20731E-09  5.50132E-09
   6.08900E-09  8.56181E-09  8.56233E-09  9.35726E-09  6.91650E-09  5.65519E-09  3.43223E-09  3.30534E-09  3.19417E-09  3.25246E-09
   2.63917E-09  3.60047E-09  2.60466E-09  3.52090E-09  2.56054E-09  2.86474E-09  1.86223E-09  2.33429E-09  2.04170E-09  2.67126E-09
   2.76403E-09  3.35468E-09  3.58877E-09  3.90896E-09  2.99581E-09  2.88932E-09  2.94258E-09  4.13420E-09  3.84887E-09  4.99642E-09
   4.74568E-09  5.77576E-09  7.14338E-09  9.46641E-09  1.04057E-08  9.54335E-09  7.02754E-09  6.58479E-09  4.57589E-09  4.56732E-09
   3.95716E-09  4.05629E-09  3.15030E-09  3.84569E-09  3.49637E-09  4.18708E-09  3.81057E-09  4.89224E-09  7.15222E-09  1.19311E-08
   1.51450E-08  1.64101E-08  1.29792E-08  1.06214E-08  8.92923E-09  8.33564E-09  7.01723E-09  6.84140E-09  5.71993E-09  6.28545E-09
   5.50742E-09  5.47125E-09  4.35383E-09  4.35504E-09  3.73554E-09  4.03829E-09  2.71381E-09  3.24277E-09  2.22907E-09  2.93993E-09
   2.08714E-09  2.74252E-09  3.00917E-09  3.51867E-09  2.50220E-09  3.40696E-09  2.63781E-09  3.26116E-09  2.22343E-09  1.36846E-09
   9.57502E-10  1.11254E-09  5.99555E-10  2.39140E-09  1.97149E-09  2.93112E-09  2.18704E-09  2.76982E-09  2.91776E-09  3.15847E-09
   3.22560E-09  3.93914E-09  3.23195E-09  2.71011E-09  1.72668E-09  1.58151E-09  8.21219E-10  1.67674E-09  1.51806E-09  2.13815E-09
   1.98512E-09  2.35011E-09  2.18802E-09  2.89189E-09  2.39492E-09  2.99391E-09  2.32378E-09  2.48870E-09  2.18133E-09  4.01138E-09
   4.69941E-09  5.72713E-09  5.48423E-09  5.82048E-09  4.91473E-09  5.88909E-09  5.95896E-09  6.64245E-09  6.64525E-09  6.13728E-09
   5.95581E-09  6.18941E-09  5.33553E-09  5.09822E-09  4.58691E-09  5.33759E-09  4.72704E-09  4.99916E-09  4.80870E-09  5.25576E-09
   4.59193E-09  5.12150E-09  5.41264E-09  5.66383E-09  5.14042E-09  5.73101E-09  5.44499E-09  6.01912E-09  5.79712E-09  7.03022E-09
   9.14631E-09  1.54471E-08  2.01962E-08  2.07165E-08  1.85341E-08  1.66419E-08  1.52114E-08  1.42837E-08  1.27701E-08  1.18513E-08
   1.12402E-08  1.06072E-08  9.72932E-09  8.78637E-09  7.62218E-09  6.99770E-09  5.69981E-09  4.28552E-09  2.95560E-09  1.20816E-09
  -5.94058E-10 -1.55076E-09 -4.28103E-09 -5.95604E-09 -8.23960E-09 -1.04055E-08 -1.24842E-08 -1.38084E-08 -1.60877E-08 -1.71473E-08
  -1.81955E-08 -1.88107E-08 -1.90888E-08 -1.83056E-08 -1.79050E-08 -1.67775E-08 -1.55600E-08 -1.38020E-08 -1.17627E-08 -9.38154E-09
  -8.23448E-09 -5.86120E-09 -4.89994E-09 -3.53395E-09 -3.05691E-09 -1.99560E-09 -2.03930E-09 -2.01077E-09 -2.04858E-09 -2.28146E-09
  -2.76223E-09 -2.47207E-09 -2.69872E-09 -2.49127E-09 -2.24879E-09 -1.46491E-09 -1.80516E-09 -1.57875E-09 -1.80787E-09 -1.45203E-09
  -1.65526E-09 -1.81102E-09 -1.93050E-09 -2.10754E-09 -1.96934E-09 -1.74028E-09 -1.93629E-09 -1.06627E-09 -1.65841E-09 -9.39158E-10
  -1.55098E-09 -1.51969E-09 -1.45460E-09 -1.69850E-09 -1.21112E-09 -1.37590E-09 -1.77241E-09 -1.90347E-09 -1.73831E-09 -1.50240E-09
  -1.20216E-09 -1.38430E-09 -1.20703E-09 -8.81108E-10 -5.38552E-10 -6.00068E-10 -5.57652E-10 -3.87859E-10 -5.19370E-10 -3.81307E-10
  -1.10243E-09 -1.11202E-09 -1.35346E-09 -1.70034E-09 -1.89199E-09 -2.07482E-09 -2.21715E-09 -2.55805E-09 -2.48812E-09 -1.91925E-09
  -1.78224E-09 -1.20617E-09 -1.02711E-09 -9.11069E-10 -8.44494E-10 -6.67570E-10  7.43460E-11  1.14238E-10 -1.08611E-10  8.95208E-11
   2.22264E-10  6.70854E-11 -7.40266E-12 -4.79387E-10 -3.79953E-10 -8.21571E-10 -6.05009E-10 -5.56766E-10 -5.98717E-10 -9.83335E-10
  -9.43951E-10 -1.38824E-09 -1.12988E-09 -1.52731E-09 -8.89885E-10 -1.19824E-09 -1.43488E-09 -1.50362E-09 -1.27527E-09 -2.18775E-09
  -1.06313E-09 -1.45741E-09 -1.62049E-09 -1.51116E-09 -1.79787E-09 -1.41617E-09 -1.66739E-09 -1.71929E-09 -2.05385E-09 -2.09800E-09
  -1.88980E-09 -2.24387E-09 -1.98069E-09 -2.38437E-09 -1.95181E-09 -1.97644E-09 -2.35883E-09 -2.04036E-09 -1.99941E-09 -2.17280E-09
  -2.33914E-09 -1.93403E-09 -1.92158E-09 -2.39694E-09 -1.95852E-09 -1.68537E-09 -2.19878E-09 -2.13137E-09 -2.33254E-09 -1.81071E-09
  -1.98414E-09 -2.29841E-09 -1.85240E-09 -2.34106E-09 -1.84331E-09 -2.32169E-09 -1.45526E-09 -2.45488E-09 -1.87579E-09 -2.71187E-09
  -1.69372E-09 -2.14332E-09 -2.29789E-09 -2.27371E-09 -1.98286E-09 -2.33455E-09 -1.92854E-09 -2.37316E-09 -1.83634E-09 -1.96653E-09
  -2.28921E-09 -2.56387E-09 -1.99998E-09 -2.25247E-09 -2.33572E-09 -1.94723E-09 -2.32754E-09 -2.21979E-09 -1.80593E-09 -2.25747E-09
  -2.08045E-09 -2.42616E-09 -1.79934E-09
 NY points of the fit to the data follow
   1.53249E-08  1.32460E-08  1.13688E-08  1.05578E-08  9.84382E-09  8.91275E-09  7.80314E-09  6.86991E-09  6.54718E-09  6.58458E-09
   6.64771E-09  7.20167E-09  8.15024E-09  8.91918E-09  9.37700E-09  9.34179E-09  9.00237E-09  8.42274E-09  7.22077E-09  5.35717E-09
   4.51196E-09  4.79565E-09  5.35173E-09  5.95806E-09  6.55947E-09  7.18379E-09  7.75621E-09  8.03938E-09  7.93159E-09  7.79749E-09
   7.71171E-09  7.33200E-09  6.64994E-09  6.01069E-09  5.35069E-09  4.84264E-09  4.46465E-09  4.18991E-09  4.04211E-09  3.91066E-09
   3.76281E-09  3.51656E-09  3.15865E-09  2.95849E-09  2.96777E-09  3.02793E-09  3.10428E-09  3.18359E-09  3.26630E-09  3.33771E-09
   3.41364E-09  3.50412E-09  3.63858E-09  3.79981E-09  4.07257E-09  4.43627E-09  4.82795E-09  5.34278E-09  5.95217E-09  6.48421E-09
   6.95322E-09  7.39427E-09  7.79017E-09  7.93573E-09  7.77708E-09  7.34846E-09  6.95863E-09  6.53859E-09  5.75811E-09  5.16630E-09
   4.98762E-09  4.90698E-09  4.78821E-09  4.84893E-09  5.23898E-09  5.81939E-09  6.54891E-09  7.56888E-09  8.62816E-09  9.71364E-09
   1.08180E-08  1.16611E-08  1.19155E-08  1.17741E-08  1.11814E-08  9.99138E-09  8.51725E-09  6.77750E-09  4.94941E-09  4.17365E-09
   3.79759E-09  3.57288E-09  3.41628E-09  3.29409E-09  3.19250E-09  3.11065E-09  3.04138E-09  2.98311E-09  2.93129E-09  2.87927E-09
   2.83939E-09  2.80733E-09  2.77450E-09  2.74264E-09  2.71445E-09  2.68879E-09  2.66465E-09  2.64158E-09  2.61901E-09  2.59685E-09
   2.57489E-09  2.55298E-09  2.53097E-09  2.50874E-09  2.48619E-09  2.46324E-09  2.43979E-09  2.41580E-09  2.39118E-09  2.36590E-09
   2.33990E-09  2.31313E-09  2.28558E-09  2.25724E-09  2.22811E-09  2.19822E-09  2.16756E-09  2.13615E-09  2.10400E-09  2.07114E-09
   2.03757E-09  2.00333E-09  1.96842E-09  1.93287E-09  1.89671E-09  1.85996E-09  1.82265E-09  1.78481E-09  1.74647E-09  1.70767E-09
   1.66845E-09  1.62884E-09  1.58889E-09  1.54866E-09  1.50818E-09  1.46753E-09  1.42678E-09  1.38601E-09  1.34530E-09  1.30478E-09
   1.26457E-09  1.22483E-09  1.18575E-09  1.14758E-09  1.11063E-09  1.07530E-09  1.04213E-09  1.01186E-09  9.85490E-10  9.64530E-10
   9.51209E-10  9.49105E-10  9.64278E-10  1.00805E-09  1.10465E-09  1.31911E-09  1.91120E-09  3.80491E-09  5.92965E-09  8.44811E-09
   1.18452E-08  1.58020E-08  1.88830E-08  2.00480E-08  1.96004E-08  1.82604E-08  1.56074E-08  1.03581E-08  3.66096E-09  1.50108E-09
   7.58096E-10  3.83513E-10  1.51310E-10 -1.21199E-11 -1.37471E-10 -2.39683E-10 -3.26848E-10 -4.03702E-10 -4.73177E-10 -5.37182E-10
  -5.97007E-10 -6.53537E-10 -7.07418E-10 -7.59106E-10 -8.08951E-10 -8.57216E-10 -9.04092E-10 -9.49733E-10 -9.94263E-10 -1.03777E-09
  -1.08033E-09 -1.12201E-09 -1.16285E-09 -1.20288E-09 -1.24214E-09 -1.28065E-09 -1.31844E-09 -1.35550E-09 -1.39186E-09 -1.42752E-09
  -1.46249E-09 -1.49677E-09 -1.53036E-09 -1.56327E-09 -1.59550E-09 -1.62704E-09 -1.65789E-09 -1.68805E-09 -1.71752E-09 -1.74629E-09
  -1.77435E-09 -1.80170E-09 -1.82834E-09 -1.85426E-09 -1.87945E-09 -1.90391E-09 -1.92763E-09 -1.95061E-09 -1.97283E-09 -1.99430E-09
  -2.01499E-09 -2.03492E-09 -2.05406E-09 -2.07241E-09 -2.08996E-09 -2.10671E-09 -2.12265E-09 -2.13776E-09 -2.15205E-09 -2.16550E-09
  -2.17811E-09 -2.18986E-09 -2.20076E-09 -2.21080E-09 -2.22001E-09 -2.22842E-09 -2.23603E-09 -2.24287E-09 -2.24896E-09 -2.25431E-09
  -2.25896E-09 -2.26291E-09 -2.26619E-09 -2.26882E-09 -2.27081E-09 -2.27219E-09 -2.27298E-09 -2.27319E-09 -2.27285E-09 -2.27197E-09
  -2.27058E-09 -2.26869E-09 -2.26632E-09 -2.26350E-09 -2.26024E-09 -2.25656E-09 -2.25248E-09 -2.24802E-09 -2.24320E-09 -2.23805E-09
  -2.23257E-09 -2.22679E-09 -2.22073E-09 -2.21441E-09 -2.20784E-09 -2.20106E-09 -2.19406E-09 -2.18689E-09 -2.17955E-09 -2.17206E-09
  -2.16445E-09 -2.15673E-09 -2.14892E-09 -2.14105E-09 -2.13313E-09 -2.12518E-09 -2.11722E-09 -2.10927E-09 -2.10135E-09 -2.09348E-09
  -2.08568E-09 -2.07797E-09 -2.07036E-09 -2.06288E-09 -2.05555E-09 -2.04838E-09 -2.04140E-09 -2.03462E-09 -2.02807E-09 -2.02176E-09
  -2.01571E-09 -2.00994E-09 -2.00448E-09 -1.99932E-09 -1.99448E-09 -1.98993E-09 -1.98566E-09 -1.98169E-09 -1.97798E-09 -1.97455E-09
  -1.97137E-09 -1.96846E-09 -1.96578E-09 -1.96335E-09 -1.96115E-09 -1.95917E-09 -1.95741E-09 -1.95586E-09 -1.95451E-09 -1.95336E-09
  -1.95240E-09 -1.95161E-09 -1.95100E-09 -1.95056E-09 -1.95028E-09 -1.95014E-09 -1.95015E-09 -1.95030E-09 -1.95058E-09 -1.95097E-09
  -1.95149E-09 -1.95212E-09 -1.95284E-09 -1.95365E-09 -1.95456E-09 -1.95554E-09 -1.95659E-09 -1.95771E-09 -1.95888E-09 -1.96010E-09
  -1.96137E-09 -1.96266E-09 -1.96399E-09 -1.96534E-09 -1.96670E-09 -1.96807E-09 -1.96943E-09 -1.97078E-09 -1.97212E-09 -1.97344E-09
  -1.97472E-09 -1.97596E-09 -1.97717E-09 -1.97831E-09 -1.97940E-09 -1.98041E-09 -1.98136E-09 -1.98222E-09 -1.98299E-09 -1.98368E-09
  -1.98425E-09 -1.98471E-09 -1.98505E-09
 NY background values follow
     1.004E-09    1.017E-09    1.030E-09    1.042E-09    1.055E-09    1.067E-09    1.080E-09    1.093E-09    1.105E-09    1.118E-09
     1.130E-09    1.143E-09    1.155E-09    1.167E-09    1.180E-09    1.192E-09    1.204E-09    1.217E-09    1.229E-09    1.241E-09
     1.253E-09    1.266E-09    1.278E-09    1.290E-09    1.302E-09    1.314E-09    1.326E-09    1.338E-09    1.350E-09    1.362E-09
     1.374E-09    1.385E-09    1.397E-09    1.409E-09    1.421E-09    1.432E-09    1.444E-09    1.456E-09    1.467E-09    1.479E-09
     1.490E-09    1.502E-09    1.513E-09    1.524E-09    1.536E-09    1.547E-09    1.558E-09    1.569E-09    1.580E-09    1.591E-09
     1.602E-09    1.613E-09    1.624E-09    1.635E-09    1.646E-09    1.657E-09    1.668E-09    1.678E-09    1.689E-09    1.699E-09
     1.710E-09    1.720E-09    1.731E-09    1.741E-09    1.751E-09    1.761E-09    1.771E-09    1.781E-09    1.791E-09    1.800E-09
     1.810E-09    1.819E-09    1.828E-09    1.836E-09    1.844E-09    1.852E-09    1.860E-09    1.867E-09    1.874E-09    1.881E-09
     1.888E-09    1.893E-09    1.899E-09    1.904E-09    1.909E-09    1.913E-09    1.917E-09    1.920E-09    1.923E-09    1.925E-09
     1.927E-09    1.928E-09    1.928E-09    1.928E-09    1.928E-09    1.926E-09    1.924E-09    1.922E-09    1.918E-09    1.914E-09
     1.910E-09    1.904E-09    1.898E-09    1.891E-09    1.884E-09    1.875E-09    1.866E-09    1.856E-09    1.845E-09    1.833E-09
     1.820E-09    1.807E-09    1.792E-09    1.777E-09    1.760E-09    1.743E-09    1.725E-09    1.705E-09    1.685E-09    1.664E-09
     1.641E-09    1.618E-09    1.593E-09    1.567E-09    1.541E-09    1.513E-09    1.484E-09    1.455E-09    1.424E-09    1.393E-09
     1.361E-09    1.327E-09    1.293E-09    1.259E-09    1.223E-09    1.187E-09    1.149E-09    1.112E-09    1.073E-09    1.034E-09
     9.940E-10    9.535E-10    9.124E-10    8.707E-10    8.284E-10    7.857E-10    7.424E-10    6.986E-10    6.544E-10    6.097E-10
     5.646E-10    5.191E-10    4.732E-10    4.270E-10    3.805E-10    3.336E-10    2.865E-10    2.391E-10    1.915E-10    1.437E-10
     9.568E-11    4.752E-11   -7.812E-13   -4.920E-11   -9.771E-11   -1.463E-10   -1.949E-10   -2.436E-10   -2.922E-10   -3.408E-10
    -3.894E-10   -4.379E-10   -4.863E-10   -5.346E-10   -5.827E-10   -6.307E-10   -6.785E-10   -7.261E-10   -7.734E-10   -8.205E-10
    -8.673E-10   -9.138E-10   -9.600E-10   -1.006E-09   -1.051E-09   -1.097E-09   -1.141E-09   -1.186E-09   -1.230E-09   -1.273E-09
    -1.317E-09   -1.359E-09   -1.402E-09   -1.444E-09   -1.485E-09   -1.527E-09   -1.567E-09   -1.607E-09   -1.647E-09   -1.686E-09
    -1.725E-09   -1.764E-09   -1.801E-09   -1.839E-09   -1.875E-09   -1.912E-09   -1.947E-09   -1.982E-09   -2.017E-09   -2.051E-09
    -2.085E-09   -2.117E-09   -2.150E-09   -2.181E-09   -2.212E-09   -2.243E-09   -2.273E-09   -2.302E-09   -2.331E-09   -2.358E-09
    -2.386E-09   -2.412E-09   -2.438E-09   -2.463E-09   -2.488E-09   -2.512E-09   -2.535E-09   -2.557E-09   -2.579E-09   -2.600E-09
    -2.620E-09   -2.639E-09   -2.658E-09   -2.676E-09   -2.693E-09   -2.709E-09   -2.725E-09   -2.740E-09   -2.754E-09   -2.767E-09
    -2.779E-09   -2.790E-09   -2.801E-09   -2.810E-09   -2.819E-09   -2.827E-09   -2.835E-09   -2.841E-09   -2.847E-09   -2.852E-09
    -2.856E-09   -2.860E-09   -2.863E-09   -2.865E-09   -2.867E-09   -2.868E-09   -2.869E-09   -2.868E-09   -2.868E-09   -2.867E-09
    -2.865E-09   -2.863E-09   -2.860E-09   -2.857E-09   -2.854E-09   -2.850E-09   -2.845E-09   -2.841E-09   -2.836E-09   -2.830E-09
    -2.825E-09   -2.818E-09   -2.812E-09   -2.806E-09   -2.799E-09   -2.792E-09   -2.785E-09   -2.777E-09   -2.770E-09   -2.762E-09
    -2.754E-09   -2.746E-09   -2.738E-09   -2.730E-09   -2.722E-09   -2.714E-09   -2.705E-09   -2.697E-09   -2.689E-09   -2.681E-09
    -2.673E-09   -2.665E-09   -2.657E-09   -2.650E-09   -2.642E-09   -2.635E-09   -2.627E-09   -2.620E-09   -2.614E-09   -2.607E-09
    -2.601E-09   -2.595E-09   -2.589E-09   -2.584E-09   -2.579E-09   -2.574E-09   -2.569E-09   -2.565E-09   -2.561E-09   -2.558E-09
    -2.554E-09   -2.551E-09   -2.548E-09   -2.546E-09   -2.543E-09   -2.541E-09   -2.539E-09   -2.537E-09   -2.536E-09   -2.534E-09
    -2.533E-09   -2.532E-09   -2.531E-09   -2.531E-09   -2.530E-09   -2.530E-09   -2.529E-09   -2.529E-09   -2.529E-09   -2.530E-09
    -2.530E-09   -2.530E-09   -2.531E-09   -2.531E-09   -2.532E-09   -2.533E-09   -2.533E-09   -2.534E-09   -2.535E-09   -2.536E-09
    -2.537E-09   -2.538E-09   -2.539E-09   -2.540E-09   -2.542E-09   -2.543E-09   -2.544E-09   -2.545E-09   -2.546E-09   -2.547E-09
    -2.548E-09   -2.549E-09   -2.550E-09   -2.551E-09   -2.552E-09   -2.552E-09   -2.553E-09   -2.554E-09   -2.554E-09   -2.555E-09
    -2.555E-09   -2.555E-09   -2.555E-09
 GABA     Conc. = 1.44E-11
   1.00571E-09  1.01841E-09  1.03109E-09  1.04375E-09  1.05639E-09  1.06901E-09  1.08162E-09  1.09420E-09  1.10676E-09  1.11929E-09
   1.13181E-09  1.14431E-09  1.15678E-09  1.16923E-09  1.18166E-09  1.19408E-09  1.20647E-09  1.21884E-09  1.23120E-09  1.24354E-09
   1.25587E-09  1.26819E-09  1.28051E-09  1.29284E-09  1.30520E-09  1.31760E-09  1.33010E-09  1.34278E-09  1.35585E-09  1.36982E-09
   1.38370E-09  1.39807E-09  1.41446E-09  1.43086E-09  1.44627E-09  1.46205E-09  1.47793E-09  1.49252E-09  1.50441E-09  1.51373E-09
   1.52244E-09  1.53293E-09  1.53917E-09  1.54237E-09  1.55102E-09  1.55999E-09  1.56657E-09  1.57539E-09  1.58535E-09  1.59576E-09
   1.60640E-09  1.61715E-09  1.62796E-09  1.63881E-09  1.64968E-09  1.66058E-09  1.67150E-09  1.68246E-09  1.69349E-09  1.70468E-09
   1.71614E-09  1.72825E-09  1.74100E-09  1.75369E-09  1.76756E-09  1.78251E-09  1.79663E-09  1.80985E-09  1.82268E-09  1.83449E-09
   1.84394E-09  1.85028E-09  1.85457E-09  1.85958E-09  1.86494E-09  1.86637E-09  1.86918E-09  1.87576E-09  1.88101E-09  1.88597E-09
   1.89209E-09  1.89808E-09  1.90432E-09  1.91132E-09  1.91772E-09  1.92363E-09  1.92987E-09  1.93591E-09  1.94119E-09  1.94512E-09
   1.94742E-09  1.94943E-09  1.95094E-09  1.94869E-09  1.94519E-09  1.94358E-09  1.93935E-09  1.93326E-09  1.92851E-09  1.92315E-09
   1.91687E-09  1.91038E-09  1.90346E-09  1.89598E-09  1.88786E-09  1.87902E-09  1.86944E-09  1.85908E-09  1.84791E-09  1.83591E-09
   1.82305E-09  1.80931E-09  1.79468E-09  1.77912E-09  1.76263E-09  1.74519E-09  1.72677E-09  1.70736E-09  1.68694E-09  1.66549E-09
   1.64299E-09  1.61943E-09  1.59481E-09  1.56914E-09  1.54245E-09  1.51477E-09  1.48611E-09  1.45649E-09  1.42595E-09  1.39450E-09
   1.36217E-09  1.32898E-09  1.29495E-09  1.26011E-09  1.22448E-09  1.18808E-09  1.15094E-09  1.11308E-09  1.07452E-09  1.03529E-09
   9.95406E-10  9.54897E-10  9.13784E-10  8.72096E-10  8.29845E-10  7.87059E-10  7.43763E-10  6.99984E-10  6.55736E-10  6.11051E-10
   5.65951E-10  5.20453E-10  4.74586E-10  4.28378E-10  3.81842E-10  3.35007E-10  2.87901E-10  2.40544E-10  1.92959E-10  1.45180E-10
   9.72229E-11  4.91269E-11  9.18907E-13 -4.73523E-11 -9.56225E-11 -1.43742E-10 -1.91122E-10 -2.36370E-10 -2.81336E-10 -3.25512E-10
  -3.68124E-10 -4.09905E-10 -4.53316E-10 -4.99880E-10 -5.48867E-10 -5.99149E-10 -6.51675E-10 -7.08432E-10 -7.66522E-10 -8.16500E-10
  -8.64361E-10 -9.11395E-10 -9.57888E-10 -1.00393E-09 -1.04957E-09 -1.09482E-09 -1.13968E-09 -1.18416E-09 -1.22824E-09 -1.27192E-09
  -1.31520E-09 -1.35806E-09 -1.40051E-09 -1.44253E-09 -1.48412E-09 -1.52526E-09 -1.56595E-09 -1.60618E-09 -1.64594E-09 -1.68522E-09
  -1.72402E-09 -1.76232E-09 -1.80012E-09 -1.83741E-09 -1.87418E-09 -1.91041E-09 -1.94612E-09 -1.98127E-09 -2.01587E-09 -2.04990E-09
  -2.08337E-09 -2.11625E-09 -2.14854E-09 -2.18023E-09 -2.21132E-09 -2.24179E-09 -2.27163E-09 -2.30084E-09 -2.32941E-09 -2.35732E-09
  -2.38458E-09 -2.41116E-09 -2.43707E-09 -2.46230E-09 -2.48683E-09 -2.51065E-09 -2.53377E-09 -2.55617E-09 -2.57783E-09 -2.59875E-09
  -2.61893E-09 -2.63835E-09 -2.65701E-09 -2.67489E-09 -2.69199E-09 -2.70830E-09 -2.72381E-09 -2.73852E-09 -2.75240E-09 -2.76546E-09
  -2.77769E-09 -2.78907E-09 -2.79960E-09 -2.80929E-09 -2.81816E-09 -2.82622E-09 -2.83350E-09 -2.84002E-09 -2.84579E-09 -2.85083E-09
  -2.85517E-09 -2.85882E-09 -2.86180E-09 -2.86414E-09 -2.86584E-09 -2.86694E-09 -2.86745E-09 -2.86738E-09 -2.86677E-09 -2.86562E-09
  -2.86396E-09 -2.86181E-09 -2.85918E-09 -2.85610E-09 -2.85259E-09 -2.84866E-09 -2.84433E-09 -2.83962E-09 -2.83456E-09 -2.82916E-09
  -2.82344E-09 -2.81742E-09 -2.81113E-09 -2.80457E-09 -2.79777E-09 -2.79074E-09 -2.78352E-09 -2.77611E-09 -2.76854E-09 -2.76083E-09
  -2.75299E-09 -2.74504E-09 -2.73701E-09 -2.72891E-09 -2.72076E-09 -2.71259E-09 -2.70441E-09 -2.69624E-09 -2.68809E-09 -2.68000E-09
  -2.67198E-09 -2.66404E-09 -2.65621E-09 -2.64852E-09 -2.64096E-09 -2.63357E-09 -2.62637E-09 -2.61937E-09 -2.61260E-09 -2.60607E-09
  -2.59980E-09 -2.59381E-09 -2.58812E-09 -2.58275E-09 -2.57768E-09 -2.57291E-09 -2.56842E-09 -2.56422E-09 -2.56030E-09 -2.55664E-09
  -2.55325E-09 -2.55010E-09 -2.54720E-09 -2.54455E-09 -2.54212E-09 -2.53992E-09 -2.53793E-09 -2.53616E-09 -2.53458E-09 -2.53320E-09
  -2.53201E-09 -2.53099E-09 -2.53016E-09 -2.52948E-09 -2.52897E-09 -2.52860E-09 -2.52838E-09 -2.52829E-09 -2.52834E-09 -2.52850E-09
  -2.52878E-09 -2.52917E-09 -2.52965E-09 -2.53022E-09 -2.53089E-09 -2.53163E-09 -2.53243E-09 -2.53331E-09 -2.53424E-09 -2.53521E-09
  -2.53623E-09 -2.53728E-09 -2.53836E-09 -2.53945E-09 -2.54056E-09 -2.54168E-09 -2.54278E-09 -2.54388E-09 -2.54496E-09 -2.54602E-09
  -2.54704E-09 -2.54802E-09 -2.54896E-09 -2.54985E-09 -2.55066E-09 -2.55141E-09 -2.55209E-09 -2.55268E-09 -2.55318E-09 -2.55359E-09
  -2.55388E-09 -2.55407E-09 -2.55413E-09
 Gln      Conc. = 1.78E-09
   2.21076E-09  2.54377E-09  2.92041E-09  3.28847E-09  3.60125E-09  3.80568E-09  3.85888E-09  3.73580E-09  3.49210E-09  3.23152E-09
   2.73535E-09  2.40419E-09  2.15748E-09  1.84244E-09  1.70453E-09  1.63759E-09  1.60121E-09  1.58078E-09  1.56980E-09  1.56493E-09
   1.56425E-09  1.56657E-09  1.57115E-09  1.57766E-09  1.58600E-09  1.59573E-09  1.60624E-09  1.61778E-09  1.63008E-09  1.64291E-09
   1.65627E-09  1.67016E-09  1.68461E-09  1.69962E-09  1.71522E-09  1.73146E-09  1.74837E-09  1.76603E-09  1.78450E-09  1.80394E-09
   1.82446E-09  1.84628E-09  1.86967E-09  1.89493E-09  1.92243E-09  1.95275E-09  1.98644E-09  2.02424E-09  2.06780E-09  2.11879E-09
   2.17935E-09  2.25493E-09  2.35415E-09  2.49447E-09  2.72266E-09  3.03112E-09  3.36089E-09  3.84574E-09  4.44931E-09  5.00603E-09
   5.46923E-09  5.88355E-09  6.17634E-09  6.20827E-09  5.88737E-09  5.31806E-09  4.83018E-09  4.38912E-09  3.61243E-09  3.06134E-09
   2.88421E-09  2.82055E-09  2.81704E-09  2.97897E-09  3.31841E-09  3.77795E-09  4.24453E-09  4.70092E-09  5.11718E-09  5.45622E-09
   5.66838E-09  5.64582E-09  5.35038E-09  5.08746E-09  4.75843E-09  4.15227E-09  3.70979E-09  3.42467E-09  3.07062E-09  2.83090E-09
   2.68285E-09  2.58164E-09  2.50870E-09  2.45268E-09  2.40662E-09  2.36891E-09  2.33747E-09  2.31007E-09  2.28598E-09  2.26450E-09
   2.24467E-09  2.22587E-09  2.20792E-09  2.19061E-09  2.17384E-09  2.15732E-09  2.14079E-09  2.12416E-09  2.10731E-09  2.09014E-09
   2.07258E-09  2.05455E-09  2.03600E-09  2.01684E-09  1.99705E-09  1.97656E-09  1.95534E-09  1.93334E-09  1.91053E-09  1.88687E-09
   1.86232E-09  1.83687E-09  1.81048E-09  1.78318E-09  1.75498E-09  1.72590E-09  1.69594E-09  1.66512E-09  1.63347E-09  1.60100E-09
   1.56774E-09  1.53369E-09  1.49888E-09  1.46333E-09  1.42707E-09  1.39011E-09  1.35247E-09  1.31419E-09  1.27528E-09  1.23577E-09
   1.19568E-09  1.15504E-09  1.11389E-09  1.07224E-09  1.03012E-09  9.87572E-10  9.44624E-10  9.01314E-10  8.57674E-10  8.13753E-10
   7.69597E-10  7.25252E-10  6.80785E-10  6.36270E-10  5.91786E-10  5.47439E-10  5.03367E-10  4.59742E-10  4.16794E-10  3.74861E-10
   3.34416E-10  2.96214E-10  2.61482E-10  2.32459E-10  2.13753E-10  2.17069E-10  2.85134E-10  6.13925E-10  1.00885E-09  1.47422E-09
   2.11236E-09  2.88106E-09  3.50087E-09  3.73897E-09  3.63198E-09  3.33272E-09  2.78482E-09  1.72237E-09  2.90755E-10 -2.82076E-10
  -4.88658E-10 -6.06869E-10 -6.92424E-10 -7.62564E-10 -8.24246E-10 -8.80767E-10 -9.33875E-10 -9.84577E-10 -1.03349E-09 -1.08099E-09
  -1.12735E-09 -1.17273E-09 -1.21727E-09 -1.26105E-09 -1.30412E-09 -1.34655E-09 -1.38834E-09 -1.42953E-09 -1.47014E-09 -1.51016E-09
  -1.54962E-09 -1.58852E-09 -1.62685E-09 -1.66462E-09 -1.70183E-09 -1.73847E-09 -1.77453E-09 -1.81002E-09 -1.84493E-09 -1.87926E-09
  -1.91299E-09 -1.94612E-09 -1.97864E-09 -2.01055E-09 -2.04185E-09 -2.07251E-09 -2.10254E-09 -2.13192E-09 -2.16066E-09 -2.18874E-09
  -2.21614E-09 -2.24287E-09 -2.26892E-09 -2.29428E-09 -2.31894E-09 -2.34289E-09 -2.36612E-09 -2.38863E-09 -2.41041E-09 -2.43144E-09
