 LCModel (Version 6.3-1R) Copyright: S.W. Provencher.          Ref.: Magn. Reson. Med. 30:672-679 (1993).                
 onepulse 19x24_ftSpec_smooth_lcm
 26 lines in following concentration table = NCONC+1
    Conc.  %SD /Cr+PCr  Metabolite                                         
    0.000 999%   0.000 Ala                                                 
    0.000 999%   0.000 Asp                                                 
 5.30E-10  28%   1.000 Cr                                                  
    0.000 999%   0.000 GABA                                                
    0.000 999%   0.000 Glc                                                 
 7.28E-12 999% 1.4E-02 Gln                                                 
 1.47E-09  27%   2.768 Glu                                                 
    0.000 999%   0.000 Glyc                                                
    0.000 999%   0.000 GPC                                                 
    0.000 999%   0.000 GSH                                                 
 1.44E-09  14%   2.710 Ins                                                 
    0.000 999%   0.000 Lac                                                 
    0.000 999%   0.000 NAAG                                                
 1.04E-09  17%   1.963 NAA                                                 
 1.72E-10  29%   0.325 PCh                                                 
    0.000 999%   0.000 PCr                                                 
    0.000 999%   0.000 PE                                                  
 2.89E-10  26%   0.545 Scyllo                                              
 2.75E-09  14%   5.187 Ser                                                 
    0.000 999%   0.000 Tau                                                 
 1.72E-10  29%   0.325 GPC+PCh                                             
 1.04E-09  17%   1.963 NAA+NAAG                                            
 1.44E-09  14%   2.710 Ins+Glyc                                            
 5.30E-10  28%   1.000 Cr+PCr                                              
 1.47E-09  27%   2.782 Glu+Gln                                             
   6 lines in following misc. output table
  FWHM = 0.089 ppm    S/N =   4                                            
  Data shift = 0.347 ppm                                                   
  Ph: -24 deg     -11.2 deg/ppm                                            
  alphaB,S = 1.6E-01,   6.6E+01                                            
   16 spline knots.   Ns = 5(1)                                            
  ( 5) 4 infls.   ( 5) 1 extrs.                                            
  363 points on ppm-axis = NY
      4.250000     4.238821     4.227641     4.216462     4.205282     4.194103     4.182923     4.171744     4.160564     4.149385
      4.138206     4.127026     4.115847     4.104667     4.093488     4.082308     4.071129     4.059949     4.048770     4.037591
      4.026411     4.015232     4.004052     3.992873     3.981693     3.970514     3.959334     3.948155     3.936975     3.925796
      3.914617     3.903437     3.892258     3.881078     3.869899     3.858719     3.847540     3.836360     3.825181     3.814002
      3.802822     3.791643     3.780463     3.769284     3.758104     3.746925     3.735745     3.724566     3.713387     3.702207
      3.691028     3.679848     3.668669     3.657489     3.646310     3.635130     3.623951     3.612772     3.601592     3.590413
      3.579233     3.568054     3.556874     3.545695     3.534515     3.523336     3.512156     3.500977     3.489798     3.478618
      3.467439     3.456259     3.445080     3.433900     3.422721     3.411541     3.400362     3.389183     3.378003     3.366824
      3.355644     3.344465     3.333285     3.322106     3.310926     3.299747     3.288568     3.277388     3.266209     3.255029
      3.243850     3.232670     3.221491     3.210311     3.199132     3.187953     3.176773     3.165594     3.154414     3.143235
      3.132055     3.120876     3.109696     3.098517     3.087337     3.076158     3.064979     3.053799     3.042620     3.031440
      3.020261     3.009081     2.997902     2.986722     2.975543     2.964364     2.953184     2.942005     2.930825     2.919646
      2.908466     2.897287     2.886107     2.874928     2.863749     2.852569     2.841390     2.830210     2.819031     2.807851
      2.796672     2.785492     2.774313     2.763134     2.751954     2.740775     2.729595     2.718416     2.707236     2.696057
      2.684877     2.673698     2.662519     2.651339     2.640160     2.628980     2.617801     2.606621     2.595442     2.584262
      2.573083     2.561903     2.550724     2.539545     2.528365     2.517186     2.506006     2.494827     2.483647     2.472468
      2.461288     2.450109     2.438930     2.427750     2.416571     2.405391     2.394212     2.383032     2.371853     2.360673
      2.349494     2.338315     2.327135     2.315956     2.304776     2.293597     2.282417     2.271238     2.260058     2.248879
      2.237700     2.226520     2.215341     2.204161     2.192982     2.181802     2.170623     2.159443     2.148264     2.137084
      2.125905     2.114726     2.103546     2.092367     2.081187     2.070008     2.058828     2.047649     2.036469     2.025290
      2.014111     2.002931     1.991752     1.980572     1.969393     1.958213     1.947034     1.935854     1.924675     1.913496
      1.902316     1.891137     1.879957     1.868778     1.857598     1.846419     1.835239     1.824060     1.812881     1.801701
      1.790522     1.779342     1.768163     1.756983     1.745804     1.734624     1.723445     1.712265     1.701086     1.689907
      1.678727     1.667548     1.656368     1.645189     1.634009     1.622830     1.611650     1.600471     1.589292     1.578112
      1.566933     1.555753     1.544574     1.533394     1.522215     1.511035     1.499856     1.488677     1.477497     1.466318
      1.455138     1.443959     1.432779     1.421600     1.410420     1.399241     1.388062     1.376882     1.365703     1.354523
      1.343344     1.332164     1.320985     1.309805     1.298626     1.287446     1.276267     1.265088     1.253908     1.242729
      1.231549     1.220370     1.209190     1.198011     1.186831     1.175652     1.164473     1.153293     1.142114     1.130934
      1.119755     1.108575     1.097396     1.086216     1.075037     1.063858     1.052678     1.041499     1.030319     1.019140
      1.007960     0.996781     0.985601     0.974422     0.963243     0.952063     0.940884     0.929704     0.918525     0.907345
      0.896166     0.884986     0.873807     0.862628     0.851448     0.840269     0.829089     0.817910     0.806730     0.795551
      0.784371     0.773192     0.762012     0.750833     0.739654     0.728474     0.717295     0.706115     0.694936     0.683756
      0.672577     0.661397     0.650218     0.639039     0.627859     0.616680     0.605500     0.594321     0.583141     0.571962
      0.560782     0.549603     0.538424     0.527244     0.516065     0.504885     0.493706     0.482526     0.471347     0.460167
      0.448988     0.437809     0.426629     0.415450     0.404270     0.393091     0.381911     0.370732     0.359552     0.348373
      0.337193     0.326014     0.314835     0.303655     0.292476     0.281296     0.270117     0.258937     0.247758     0.236578
      0.225399     0.214220     0.203040
 NY phased data points follow
   1.79204E-08  1.84662E-08  1.72138E-08  1.43091E-08  1.29877E-08  1.08222E-08  1.03039E-08  1.05259E-08  9.97563E-09  1.06756E-08
   1.01536E-08  1.16128E-08  1.03432E-08  1.12717E-08  1.14499E-08  1.23017E-08  1.11803E-08  1.02604E-08  1.05929E-08  1.00978E-08
   8.94036E-09  8.75409E-09  8.45553E-09  8.88422E-09  8.41803E-09  9.32843E-09  9.22828E-09  8.78723E-09  7.48072E-09  7.40883E-09
   7.35029E-09  9.58300E-09  9.94804E-09  1.14255E-08  1.03503E-08  8.58925E-09  6.91647E-09  6.24398E-09  5.05331E-09  4.79963E-09
   4.93751E-09  5.14926E-09  3.87773E-09  4.90458E-09  4.39152E-09  4.45923E-09  3.54416E-09  3.65107E-09  2.92063E-09  3.64363E-09
   3.37718E-09  4.19275E-09  3.81617E-09  4.46548E-09  3.88977E-09  3.28495E-09  3.14168E-09  4.21097E-09  3.67780E-09  5.03940E-09
   5.21509E-09  5.64775E-09  6.94371E-09  9.01949E-09  9.69575E-09  1.08398E-08  8.02063E-09  7.02960E-09  5.42806E-09  4.20961E-09
   3.90441E-09  3.78993E-09  2.74632E-09  3.18562E-09  3.13880E-09  3.25632E-09  2.82280E-09  4.34172E-09  5.83076E-09  9.88744E-09
   1.30012E-08  1.47488E-08  1.26823E-08  1.09584E-08  9.03399E-09  7.41360E-09  6.20944E-09  6.22716E-09  5.40854E-09  5.46042E-09
   4.56885E-09  4.75062E-09  3.93165E-09  3.20226E-09  2.60806E-09  2.94104E-09  2.12397E-09  2.33764E-09  1.49748E-09  1.78094E-09
   1.42663E-09  2.00529E-09  2.10466E-09  3.04482E-09  1.71357E-09  2.32985E-09  2.01348E-09  2.00103E-09  1.45187E-09  7.90473E-10
   3.09630E-10  4.60682E-10  2.86558E-10  1.60176E-09  1.79465E-09  2.20423E-09  1.15417E-09  2.26025E-09  2.22545E-09  2.52682E-09
   2.09170E-09  2.60406E-09  1.89987E-09  1.51943E-09  5.94859E-10  5.56948E-10  3.05139E-10  7.57672E-10  7.85035E-10  1.14476E-09
   1.04083E-09  1.52514E-09  1.30910E-09  2.04786E-09  1.79937E-09  2.18699E-09  1.24080E-09  1.74310E-09  6.61171E-10  2.89543E-09
   2.71056E-09  4.09483E-09  4.10347E-09  3.46814E-09  2.52724E-09  3.80304E-09  3.48894E-09  4.01535E-09  3.84546E-09  3.63091E-09
   3.17021E-09  3.09157E-09  2.53267E-09  2.79842E-09  2.37542E-09  2.34666E-09  2.59843E-09  2.92936E-09  2.63155E-09  3.54602E-09
   2.81780E-09  3.68853E-09  3.30186E-09  4.02172E-09  3.98191E-09  4.25118E-09  4.58467E-09  5.27011E-09  5.60059E-09  8.04353E-09
   1.04691E-08  1.48364E-08  1.77705E-08  1.68301E-08  1.37060E-08  1.13055E-08  9.52215E-09  8.13900E-09  6.70084E-09  6.09783E-09
   5.36473E-09  4.66505E-09  4.57890E-09  2.91530E-09  2.77431E-09  1.98634E-09  8.51247E-10  1.20887E-09 -8.57791E-10 -1.20805E-09
  -2.37999E-09 -2.15372E-09 -4.00490E-09 -4.82030E-09 -5.99517E-09 -6.69368E-09 -7.06083E-09 -7.89210E-09 -9.15458E-09 -9.18248E-09
  -9.73054E-09 -9.59748E-09 -1.01259E-08 -9.61198E-09 -1.00619E-08 -8.82230E-09 -8.65539E-09 -7.78843E-09 -6.84805E-09 -6.16228E-09
  -6.00073E-09 -4.29936E-09 -4.02747E-09 -3.11907E-09 -2.21669E-09 -1.66801E-09 -1.33530E-09 -1.63767E-09 -8.80045E-10 -9.23217E-10
  -1.82871E-09 -1.39381E-09 -1.43779E-09 -1.48402E-09 -1.37585E-09 -1.02932E-09 -1.21443E-09 -1.00977E-09 -1.08928E-09 -6.89757E-10
  -1.30899E-09 -1.28372E-09 -8.68085E-10 -1.11394E-09 -1.55757E-09 -1.72053E-09 -1.17555E-09 -6.04657E-10 -8.46034E-10 -8.89866E-10
  -1.15930E-09 -7.00141E-10 -8.65584E-10 -7.18503E-10 -1.07551E-09 -1.05077E-09 -1.57291E-09 -8.34157E-10 -1.35548E-09 -1.03265E-09
  -9.47254E-10 -3.10412E-10 -1.00552E-09 -1.74795E-10  1.01422E-10 -8.57994E-11 -2.21696E-10 -5.62866E-10 -7.66604E-10 -2.58939E-10
  -1.52734E-09 -1.18237E-09 -1.69363E-09 -1.44960E-09 -1.62321E-09 -1.41820E-09 -1.33576E-09 -1.24823E-09 -4.95915E-10 -5.09709E-10
  -6.86498E-10  6.21771E-11 -1.39493E-10  2.73839E-10  2.83136E-10  4.04694E-11  3.39199E-10  4.60892E-10 -6.00131E-10  4.16762E-10
  -2.92609E-10 -1.41477E-10 -7.36890E-10 -4.65196E-10 -7.23272E-10 -7.43047E-10 -4.51237E-10 -7.38380E-10 -1.19816E-09 -1.07310E-09
  -7.10705E-10 -1.23843E-09 -1.26035E-09 -1.11349E-09 -5.83508E-10 -1.01706E-09 -9.81315E-10 -8.01762E-10 -3.47665E-10 -9.93468E-10
  -6.42777E-10 -1.53126E-09 -5.45005E-10 -8.35289E-10 -1.46471E-09 -5.56877E-10 -1.08893E-09 -7.52171E-10 -9.69341E-10 -9.34731E-10
  -9.33842E-10 -6.03104E-10 -4.75185E-10 -6.33551E-10 -2.96127E-10 -7.17453E-10 -9.55718E-10 -2.42515E-10 -3.39503E-10 -3.66528E-10
  -8.18358E-10 -3.08355E-10 -4.04714E-10 -1.15390E-10 -5.08717E-10 -2.32363E-10 -1.01423E-09 -2.02103E-10 -3.09377E-10 -5.37700E-11
  -8.98126E-10 -3.81895E-11 -8.90533E-10 -2.25125E-13 -2.47034E-10  4.13848E-10 -3.90266E-10 -4.64428E-10 -2.96341E-10  1.56924E-10
   2.36308E-11 -8.24880E-10 -4.56630E-10 -7.46242E-11 -5.30685E-10 -1.83156E-10  9.30696E-11 -1.20697E-10 -4.16012E-10 -6.19878E-10
  -1.49614E-10  6.85941E-11  5.30291E-11 -4.97203E-10 -2.12053E-10 -2.34513E-11 -4.11799E-10  3.50243E-10  7.90580E-11 -2.38967E-12
  -2.40394E-10  3.13568E-11 -7.02126E-11
 NY points of the fit to the data follow
   1.86154E-08  1.76069E-08  1.59804E-08  1.42833E-08  1.31179E-08  1.24105E-08  1.16432E-08  1.07484E-08  1.01793E-08  1.01336E-08
   1.04482E-08  1.10564E-08  1.15617E-08  1.18794E-08  1.18674E-08  1.13039E-08  1.04153E-08  9.92655E-09  9.73570E-09  9.39681E-09
   9.00235E-09  8.85789E-09  8.76884E-09  8.53027E-09  8.50174E-09  8.80289E-09  9.23642E-09  9.35816E-09  9.00565E-09  8.70098E-09
   8.39090E-09  8.26633E-09  8.29863E-09  8.35028E-09  8.26737E-09  7.93129E-09  7.65608E-09  7.18828E-09  6.64188E-09  6.11942E-09
   5.57248E-09  4.84584E-09  4.04179E-09  3.75538E-09  3.71936E-09  3.75229E-09  3.78369E-09  3.77942E-09  3.75106E-09  3.72019E-09
   3.73703E-09  3.80951E-09  3.92820E-09  4.02608E-09  4.07508E-09  4.08311E-09  4.10855E-09  4.17978E-09  4.37081E-09  4.66877E-09
   5.03164E-09  5.46944E-09  5.96003E-09  6.41409E-09  6.88044E-09  7.19027E-09  7.22779E-09  6.96452E-09  6.46740E-09  5.85253E-09
   5.36068E-09  4.85531E-09  4.33452E-09  4.14991E-09  4.20979E-09  4.40094E-09  4.93608E-09  6.15023E-09  7.83134E-09  9.67439E-09
   1.12557E-08  1.21548E-08  1.21461E-08  1.13366E-08  1.01979E-08  9.00202E-09  7.70232E-09  6.00373E-09  4.19827E-09  3.46457E-09
   3.09842E-09  2.88049E-09  2.71908E-09  2.59921E-09  2.50992E-09  2.43343E-09  2.37083E-09  2.32047E-09  2.27856E-09  2.24320E-09
   2.21327E-09  2.18791E-09  2.16648E-09  2.14838E-09  2.13314E-09  2.12049E-09  2.11020E-09  2.10209E-09  2.09602E-09  2.09186E-09
   2.08952E-09  2.08891E-09  2.08996E-09  2.09256E-09  2.09650E-09  2.10162E-09  2.10775E-09  2.11473E-09  2.12240E-09  2.13061E-09
   2.13921E-09  2.14805E-09  2.15700E-09  2.16592E-09  2.17465E-09  2.18308E-09  2.19106E-09  2.19846E-09  2.20515E-09  2.21100E-09
   2.21588E-09  2.21966E-09  2.22222E-09  2.22342E-09  2.22315E-09  2.22127E-09  2.21767E-09  2.21223E-09  2.20483E-09  2.19534E-09
   2.18364E-09  2.16966E-09  2.15331E-09  2.13450E-09  2.11317E-09  2.08925E-09  2.06266E-09  2.03335E-09  2.00128E-09  1.96640E-09
   1.92870E-09  1.88816E-09  1.84483E-09  1.79875E-09  1.75006E-09  1.69894E-09  1.64570E-09  1.59081E-09  1.53502E-09  1.47948E-09
   1.42607E-09  1.37798E-09  1.34093E-09  1.32625E-09  1.35997E-09  1.52001E-09  2.16112E-09  3.67723E-09  6.25924E-09  9.63271E-09
   1.30206E-08  1.55835E-08  1.67179E-08  1.63413E-08  1.48677E-08  1.27995E-08  1.02817E-08  7.24012E-09  4.21014E-09  1.80366E-09
   4.15424E-10 -1.66781E-10 -5.30764E-10 -8.05745E-10 -1.03392E-09 -1.23340E-09 -1.41323E-09 -1.57839E-09 -1.73178E-09 -1.87512E-09
  -2.00945E-09 -2.13537E-09 -2.25320E-09 -2.36307E-09 -2.46496E-09 -2.55877E-09 -2.64445E-09 -2.72229E-09 -2.79263E-09 -2.85577E-09
  -2.91199E-09 -2.96154E-09 -3.00467E-09 -3.04162E-09 -3.07261E-09 -3.09785E-09 -3.11757E-09 -3.13196E-09 -3.14122E-09 -3.14556E-09
  -3.14516E-09 -3.14022E-09 -3.13093E-09 -3.11747E-09 -3.10004E-09 -3.07881E-09 -3.05397E-09 -3.02571E-09 -2.99419E-09 -2.95961E-09
  -2.92214E-09 -2.88197E-09 -2.83926E-09 -2.79420E-09 -2.74697E-09 -2.69772E-09 -2.64661E-09 -2.59379E-09 -2.53944E-09 -2.48370E-09
  -2.42674E-09 -2.36870E-09 -2.30977E-09 -2.25008E-09 -2.18978E-09 -2.12906E-09 -2.06805E-09 -2.00692E-09 -1.94582E-09 -1.88491E-09
  -1.82435E-09 -1.76429E-09 -1.70489E-09 -1.64631E-09 -1.58869E-09 -1.53221E-09 -1.47701E-09 -1.42325E-09 -1.37108E-09 -1.32068E-09
  -1.27217E-09 -1.22574E-09 -1.18143E-09 -1.13921E-09 -1.09904E-09 -1.06084E-09 -1.02458E-09 -9.90206E-10 -9.57656E-10 -9.26883E-10
  -8.97839E-10 -8.70462E-10 -8.44711E-10 -8.20525E-10 -7.97860E-10 -7.76660E-10 -7.56860E-10 -7.38435E-10 -7.21318E-10 -7.05452E-10
  -6.90786E-10 -6.77279E-10 -6.64864E-10 -6.53496E-10 -6.43130E-10 -6.33694E-10 -6.25158E-10 -6.17456E-10 -6.10543E-10 -6.04358E-10
  -5.98860E-10 -5.94007E-10 -5.89756E-10 -5.86061E-10 -5.82887E-10 -5.80185E-10 -5.77919E-10 -5.76040E-10 -5.74509E-10 -5.73286E-10
  -5.72326E-10 -5.71586E-10 -5.71025E-10 -5.70600E-10 -5.70271E-10 -5.69992E-10 -5.69723E-10 -5.69421E-10 -5.69046E-10 -5.68549E-10
  -5.67897E-10 -5.67040E-10 -5.65938E-10 -5.64553E-10 -5.62837E-10 -5.60750E-10 -5.58251E-10 -5.55295E-10 -5.51883E-10 -5.48027E-10
  -5.43743E-10 -5.39048E-10 -5.33956E-10 -5.28480E-10 -5.22638E-10 -5.16444E-10 -5.09915E-10 -5.03064E-10 -4.95908E-10 -4.88460E-10
  -4.80740E-10 -4.72757E-10 -4.64530E-10 -4.56076E-10 -4.47405E-10 -4.38538E-10 -4.29487E-10 -4.20265E-10 -4.10892E-10 -4.01383E-10
  -3.91749E-10 -3.82008E-10 -3.72175E-10 -3.62267E-10 -3.52298E-10 -3.42279E-10 -3.32218E-10 -3.22117E-10 -3.11975E-10 -3.01794E-10
  -2.91576E-10 -2.81321E-10 -2.71031E-10 -2.60706E-10 -2.50352E-10 -2.39963E-10 -2.29547E-10 -2.19101E-10 -2.08628E-10 -1.98128E-10
  -1.87602E-10 -1.77054E-10 -1.66483E-10 -1.55891E-10 -1.45278E-10 -1.34648E-10 -1.24000E-10 -1.13334E-10 -1.02653E-10 -9.19607E-11
  -8.12557E-11 -7.05405E-11 -5.98122E-11
 NY background values follow
     2.448E-09    2.438E-09    2.428E-09    2.418E-09    2.408E-09    2.398E-09    2.388E-09    2.378E-09    2.368E-09    2.358E-09
     2.348E-09    2.338E-09    2.328E-09    2.318E-09    2.307E-09    2.297E-09    2.286E-09    2.275E-09    2.264E-09    2.253E-09
     2.242E-09    2.231E-09    2.219E-09    2.207E-09    2.195E-09    2.182E-09    2.170E-09    2.157E-09    2.144E-09    2.130E-09
     2.116E-09    2.102E-09    2.088E-09    2.073E-09    2.058E-09    2.043E-09    2.028E-09    2.013E-09    1.997E-09    1.981E-09
     1.965E-09    1.949E-09    1.933E-09    1.916E-09    1.900E-09    1.883E-09    1.867E-09    1.850E-09    1.833E-09    1.817E-09
     1.800E-09    1.783E-09    1.766E-09    1.749E-09    1.732E-09    1.716E-09    1.699E-09    1.682E-09    1.666E-09    1.649E-09
     1.633E-09    1.616E-09    1.600E-09    1.584E-09    1.568E-09    1.553E-09    1.537E-09    1.522E-09    1.507E-09    1.492E-09
     1.477E-09    1.463E-09    1.449E-09    1.435E-09    1.421E-09    1.408E-09    1.395E-09    1.382E-09    1.370E-09    1.358E-09
     1.347E-09    1.336E-09    1.325E-09    1.315E-09    1.305E-09    1.295E-09    1.286E-09    1.278E-09    1.270E-09    1.263E-09
     1.256E-09    1.249E-09    1.244E-09    1.239E-09    1.234E-09    1.230E-09    1.227E-09    1.225E-09    1.223E-09    1.222E-09
     1.222E-09    1.222E-09    1.224E-09    1.226E-09    1.229E-09    1.233E-09    1.237E-09    1.243E-09    1.249E-09    1.257E-09
     1.265E-09    1.275E-09    1.285E-09    1.297E-09    1.309E-09    1.322E-09    1.335E-09    1.349E-09    1.363E-09    1.377E-09
     1.392E-09    1.406E-09    1.421E-09    1.435E-09    1.448E-09    1.462E-09    1.474E-09    1.486E-09    1.497E-09    1.507E-09
     1.515E-09    1.523E-09    1.529E-09    1.534E-09    1.537E-09    1.538E-09    1.538E-09    1.535E-09    1.531E-09    1.524E-09
     1.515E-09    1.503E-09    1.489E-09    1.473E-09    1.453E-09    1.431E-09    1.406E-09    1.378E-09    1.347E-09    1.313E-09
     1.276E-09    1.235E-09    1.191E-09    1.144E-09    1.092E-09    1.038E-09    9.790E-10    9.166E-10    8.501E-10    7.797E-10
     7.051E-10    6.264E-10    5.433E-10    4.558E-10    3.638E-10    2.673E-10    1.661E-10    6.018E-11   -5.054E-11   -1.657E-10
    -2.849E-10   -4.077E-10   -5.337E-10   -6.625E-10   -7.936E-10   -9.266E-10   -1.061E-09   -1.197E-09   -1.333E-09   -1.469E-09
    -1.605E-09   -1.741E-09   -1.876E-09   -2.009E-09   -2.140E-09   -2.269E-09   -2.395E-09   -2.517E-09   -2.637E-09   -2.752E-09
    -2.863E-09   -2.969E-09   -3.069E-09   -3.164E-09   -3.253E-09   -3.335E-09   -3.410E-09   -3.479E-09   -3.541E-09   -3.596E-09
    -3.646E-09   -3.689E-09   -3.726E-09   -3.757E-09   -3.783E-09   -3.804E-09   -3.819E-09   -3.830E-09   -3.835E-09   -3.836E-09
    -3.832E-09   -3.824E-09   -3.811E-09   -3.795E-09   -3.775E-09   -3.751E-09   -3.723E-09   -3.693E-09   -3.659E-09   -3.622E-09
    -3.582E-09   -3.540E-09   -3.495E-09   -3.449E-09   -3.399E-09   -3.348E-09   -3.296E-09   -3.241E-09   -3.185E-09   -3.128E-09
    -3.069E-09   -3.010E-09   -2.949E-09   -2.888E-09   -2.827E-09   -2.765E-09   -2.702E-09   -2.640E-09   -2.578E-09   -2.516E-09
    -2.454E-09   -2.393E-09   -2.332E-09   -2.272E-09   -2.214E-09   -2.156E-09   -2.100E-09   -2.045E-09   -1.992E-09   -1.941E-09
    -1.891E-09   -1.844E-09   -1.799E-09   -1.755E-09   -1.714E-09   -1.675E-09   -1.638E-09   -1.603E-09   -1.570E-09   -1.538E-09
    -1.508E-09   -1.480E-09   -1.453E-09   -1.428E-09   -1.405E-09   -1.383E-09   -1.363E-09   -1.343E-09   -1.326E-09   -1.309E-09
    -1.294E-09   -1.279E-09   -1.266E-09   -1.254E-09   -1.243E-09   -1.233E-09   -1.224E-09   -1.216E-09   -1.208E-09   -1.201E-09
    -1.195E-09   -1.190E-09   -1.185E-09   -1.180E-09   -1.177E-09   -1.173E-09   -1.170E-09   -1.168E-09   -1.166E-09   -1.164E-09
    -1.163E-09   -1.161E-09   -1.160E-09   -1.159E-09   -1.158E-09   -1.157E-09   -1.157E-09   -1.156E-09   -1.155E-09   -1.154E-09
    -1.153E-09   -1.151E-09   -1.150E-09   -1.148E-09   -1.146E-09   -1.143E-09   -1.140E-09   -1.136E-09   -1.133E-09   -1.128E-09
    -1.123E-09   -1.118E-09   -1.113E-09   -1.107E-09   -1.100E-09   -1.094E-09   -1.087E-09   -1.079E-09   -1.072E-09   -1.064E-09
    -1.056E-09   -1.047E-09   -1.038E-09   -1.030E-09   -1.020E-09   -1.011E-09   -1.002E-09   -9.919E-10   -9.820E-10   -9.721E-10
    -9.620E-10   -9.518E-10   -9.415E-10   -9.312E-10   -9.208E-10   -9.103E-10   -8.998E-10   -8.892E-10   -8.787E-10   -8.680E-10
    -8.574E-10   -8.467E-10   -8.360E-10   -8.252E-10   -8.144E-10   -8.036E-10   -7.927E-10   -7.818E-10   -7.709E-10   -7.600E-10
    -7.490E-10   -7.381E-10   -7.271E-10   -7.160E-10   -7.050E-10   -6.939E-10   -6.829E-10   -6.718E-10   -6.607E-10   -6.495E-10
    -6.384E-10   -6.273E-10   -6.161E-10
 Cr       Conc. = 5.30E-10
   4.07621E-09  3.69683E-09  3.19242E-09  2.79338E-09  2.66343E-09  2.59735E-09  2.55440E-09  2.52254E-09  2.49692E-09  2.47515E-09
   2.45593E-09  2.43848E-09  2.42232E-09  2.40708E-09  2.39256E-09  2.37859E-09  2.36506E-09  2.35189E-09  2.33905E-09  2.32650E-09
   2.31429E-09  2.30245E-09  2.29113E-09  2.28050E-09  2.27093E-09  2.26304E-09  2.25791E-09  2.25769E-09  2.26715E-09  2.29894E-09
   2.40101E-09  2.80958E-09  3.49265E-09  4.32397E-09  5.10978E-09  5.63359E-09  5.76198E-09  5.53570E-09  5.12744E-09  4.68886E-09
   4.19381E-09  3.49216E-09  2.67399E-09  2.32951E-09  2.19666E-09  2.12075E-09  2.06788E-09  2.02670E-09  1.99225E-09  1.96209E-09
   1.93481E-09  1.90955E-09  1.88581E-09  1.86320E-09  1.84151E-09  1.82052E-09  1.80012E-09  1.78025E-09  1.76082E-09  1.74179E-09
   1.72311E-09  1.70478E-09  1.68676E-09  1.66905E-09  1.65164E-09  1.63452E-09  1.61770E-09  1.60117E-09  1.58494E-09  1.56900E-09
   1.55338E-09  1.53807E-09  1.52308E-09  1.50843E-09  1.49410E-09  1.48014E-09  1.46653E-09  1.45329E-09  1.44043E-09  1.42797E-09
   1.41590E-09  1.40426E-09  1.39303E-09  1.38225E-09  1.37191E-09  1.36205E-09  1.35267E-09  1.34380E-09  1.33545E-09  1.32765E-09
   1.32041E-09  1.31375E-09  1.30770E-09  1.30227E-09  1.29748E-09  1.29336E-09  1.28992E-09  1.28718E-09  1.28516E-09  1.28389E-09
   1.28338E-09  1.28365E-09  1.28473E-09  1.28663E-09  1.28937E-09  1.29297E-09  1.29747E-09  1.30286E-09  1.30918E-09  1.31644E-09
   1.32467E-09  1.33389E-09  1.34410E-09  1.35525E-09  1.36722E-09  1.37989E-09  1.39313E-09  1.40683E-09  1.42087E-09  1.43512E-09
   1.44946E-09  1.46377E-09  1.47794E-09  1.49183E-09  1.50533E-09  1.51833E-09  1.53069E-09  1.54229E-09  1.55303E-09  1.56276E-09
   1.57138E-09  1.57877E-09  1.58480E-09  1.58934E-09  1.59230E-09  1.59353E-09  1.59292E-09  1.59035E-09  1.58570E-09  1.57885E-09
   1.56967E-09  1.55808E-09  1.54399E-09  1.52730E-09  1.50793E-09  1.48579E-09  1.46080E-09  1.43286E-09  1.40189E-09  1.36780E-09
   1.33053E-09  1.28997E-09  1.24605E-09  1.19870E-09  1.14785E-09  1.09343E-09  1.03540E-09  9.73703E-10  9.08349E-10  8.39362E-10
   7.66857E-10  6.91084E-10  6.12596E-10  5.32604E-10  4.54231E-10  3.87836E-10  3.86469E-10  4.79112E-10  6.28086E-10  7.79136E-10
   8.64098E-10  8.29507E-10  6.69070E-10  4.26587E-10  1.57347E-10 -1.24433E-10 -4.55641E-10 -8.41664E-10 -1.14684E-09 -1.33379E-09
  -1.49319E-09 -1.64211E-09 -1.78529E-09 -1.92441E-09 -2.06003E-09 -2.19228E-09 -2.32106E-09 -2.44614E-09 -2.56723E-09 -2.68400E-09
  -2.79609E-09 -2.90313E-09 -3.00473E-09 -3.10048E-09 -3.18998E-09 -3.27283E-09 -3.34875E-09 -3.41782E-09 -3.48024E-09 -3.53619E-09
  -3.58584E-09 -3.62937E-09 -3.66696E-09 -3.69879E-09 -3.72502E-09 -3.74585E-09 -3.76143E-09 -3.77195E-09 -3.77758E-09 -3.77849E-09
  -3.77487E-09 -3.76688E-09 -3.75469E-09 -3.73848E-09 -3.71843E-09 -3.69471E-09 -3.66749E-09 -3.63695E-09 -3.60325E-09 -3.56658E-09
  -3.52710E-09 -3.48500E-09 -3.44043E-09 -3.39358E-09 -3.34462E-09 -3.29370E-09 -3.24097E-09 -3.18659E-09 -3.13073E-09 -3.07352E-09
  -3.01513E-09 -2.95572E-09 -2.89544E-09 -2.83444E-09 -2.77287E-09 -2.71091E-09 -2.64869E-09 -2.58639E-09 -2.52413E-09 -2.46210E-09
  -2.40045E-09 -2.33931E-09 -2.27887E-09 -2.21926E-09 -2.16064E-09 -2.10317E-09 -2.04701E-09 -1.99230E-09 -1.93921E-09 -1.88790E-09
  -1.83850E-09 -1.79119E-09 -1.74603E-09 -1.70296E-09 -1.66195E-09 -1.62294E-09 -1.58588E-09 -1.55071E-09 -1.51738E-09 -1.48584E-09
  -1.45605E-09 -1.42793E-09 -1.40144E-09 -1.37653E-09 -1.35316E-09 -1.33126E-09 -1.31076E-09 -1.29166E-09 -1.27386E-09 -1.25733E-09
  -1.24201E-09 -1.22785E-09 -1.21480E-09 -1.20279E-09 -1.19180E-09 -1.18175E-09 -1.17260E-09 -1.16429E-09 -1.15678E-09 -1.15000E-09
  -1.14392E-09 -1.13849E-09 -1.13366E-09 -1.12940E-09 -1.12566E-09 -1.12240E-09 -1.11958E-09 -1.11716E-09 -1.11508E-09 -1.11332E-09
  -1.11183E-09 -1.11056E-09 -1.10948E-09 -1.10853E-09 -1.10769E-09 -1.10690E-09 -1.10612E-09 -1.10532E-09 -1.10444E-09 -1.10345E-09
  -1.10231E-09 -1.10096E-09 -1.09937E-09 -1.09751E-09 -1.09531E-09 -1.09275E-09 -1.08978E-09 -1.08636E-09 -1.08248E-09 -1.07816E-09
  -1.07341E-09 -1.06826E-09 -1.06271E-09 -1.05678E-09 -1.05049E-09 -1.04385E-09 -1.03687E-09 -1.02958E-09 -1.02198E-09 -1.01410E-09
  -1.00594E-09 -9.97520E-10 -9.88859E-10 -9.79974E-10 -9.70874E-10 -9.61579E-10 -9.52102E-10 -9.42456E-10 -9.32661E-10 -9.22731E-10
  -9.12677E-10 -9.02519E-10 -8.92269E-10 -8.81945E-10 -8.71562E-10 -8.61131E-10 -8.50658E-10 -8.40147E-10 -8.29595E-10 -8.19006E-10
  -8.08381E-10 -7.97719E-10 -7.87024E-10 -7.76295E-10 -7.65537E-10 -7.54745E-10 -7.43926E-10 -7.33079E-10 -7.22205E-10 -7.11304E-10
  -7.00379E-10 -6.89431E-10 -6.78461E-10 -6.67471E-10 -6.56461E-10 -6.45433E-10 -6.34388E-10 -6.23325E-10 -6.12248E-10 -6.01160E-10
  -5.90059E-10 -5.78948E-10 -5.67823E-10
 Gln      Conc. = 7.28E-12
   2.45431E-09  2.44596E-09  2.43756E-09  2.42883E-09  2.41954E-09  2.40961E-09  2.39903E-09  2.38797E-09  2.37672E-09  2.36523E-09
   2.35337E-09  2.34229E-09  2.33116E-09  2.32009E-09  2.30930E-09  2.29854E-09  2.28773E-09  2.27682E-09  2.26579E-09  2.25460E-09
   2.24325E-09  2.23170E-09  2.21997E-09  2.20801E-09  2.19583E-09  2.18340E-09  2.17072E-09  2.15776E-09  2.14452E-09  2.13098E-09
   2.11717E-09  2.10308E-09  2.08874E-09  2.07415E-09  2.05934E-09  2.04430E-09  2.02906E-09  2.01363E-09  1.99802E-09  1.98225E-09
   1.96632E-09  1.95025E-09  1.93406E-09  1.91776E-09  1.90136E-09  1.88488E-09  1.86834E-09  1.85175E-09  1.83513E-09  1.81850E-09
   1.80190E-09  1.78536E-09  1.76896E-09  1.75283E-09  1.73733E-09  1.72237E-09  1.70768E-09  1.69349E-09  1.67948E-09  1.66511E-09
   1.65025E-09  1.63473E-09  1.61837E-09  1.60109E-09  1.58304E-09  1.56481E-09  1.54725E-09  1.52981E-09  1.51224E-09  1.49613E-09
   1.48116E-09  1.46683E-09  1.45343E-09  1.44085E-09  1.42913E-09  1.41796E-09  1.40698E-09  1.39605E-09  1.38500E-09  1.37375E-09
   1.36220E-09  1.35015E-09  1.33793E-09  1.32628E-09  1.31468E-09  1.30320E-09  1.29294E-09  1.28337E-09  1.27435E-09  1.26623E-09
   1.25889E-09  1.25225E-09  1.24628E-09  1.24097E-09  1.23633E-09  1.23237E-09  1.22911E-09  1.22656E-09  1.22474E-09  1.22366E-09
   1.22335E-09  1.22382E-09  1.22509E-09  1.22719E-09  1.23013E-09  1.23392E-09  1.23861E-09  1.24419E-09  1.25069E-09  1.25814E-09
   1.26655E-09  1.27594E-09  1.28632E-09  1.29764E-09  1.30979E-09  1.32262E-09  1.33603E-09  1.34989E-09  1.36408E-09  1.37848E-09
   1.39298E-09  1.40744E-09  1.42175E-09  1.43579E-09  1.44944E-09  1.46257E-09  1.47506E-09  1.48680E-09  1.49767E-09  1.50754E-09
   1.51628E-09  1.52379E-09  1.52994E-09  1.53461E-09  1.53767E-09  1.53901E-09  1.53851E-09  1.53604E-09  1.53149E-09  1.52474E-09
   1.51565E-09  1.50414E-09  1.49012E-09  1.47349E-09  1.45417E-09  1.43207E-09  1.40710E-09  1.37917E-09  1.34819E-09  1.31407E-09
   1.27672E-09  1.23605E-09  1.19197E-09  1.14440E-09  1.09324E-09  1.03840E-09  9.79797E-10  9.17340E-10  8.50943E-10  7.80513E-10
   7.05965E-10  6.27211E-10  5.44176E-10  4.56770E-10  3.64940E-10  2.68677E-10  1.68248E-10  6.46333E-11 -4.26134E-11 -1.53821E-10
  -2.69523E-10 -3.90259E-10 -5.16059E-10 -6.46117E-10 -7.79148E-10 -9.14152E-10 -1.05103E-09 -1.18997E-09 -1.32966E-09 -1.46711E-09
  -1.60374E-09 -1.73954E-09 -1.87420E-09 -2.00734E-09 -2.13854E-09 -2.26739E-09 -2.39349E-09 -2.51640E-09 -2.63569E-09 -2.75096E-09
  -2.86177E-09 -2.96771E-09 -3.06835E-09 -3.16326E-09 -3.25202E-09 -3.33421E-09 -3.40953E-09 -3.47807E-09 -3.54000E-09 -3.59550E-09
  -3.64475E-09 -3.68790E-09 -3.72515E-09 -3.75665E-09 -3.78259E-09 -3.80313E-09 -3.81845E-09 -3.82873E-09 -3.83413E-09 -3.83482E-09
  -3.83099E-09 -3.82280E-09 -3.81043E-09 -3.79405E-09 -3.77383E-09 -3.74995E-09 -3.72257E-09 -3.69188E-09 -3.65804E-09 -3.62124E-09
  -3.58163E-09 -3.53939E-09 -3.49471E-09 -3.44774E-09 -3.39867E-09 -3.34763E-09 -3.29480E-09 -3.24032E-09 -3.18435E-09 -3.12705E-09
