 LCModel (Version 6.3-1R) Copyright: S.W. Provencher.          Ref.: Magn. Reson. Med. 30:672-679 (1993).                
 onepulse 19x22_ftSpec_smooth_lcm
 26 lines in following concentration table = NCONC+1
    Conc.  %SD   /Cr    Metabolite                                         
 1.06E-10 158%   0.000 Ala                                                 
 5.14E-10  66%   0.000 Asp                                                 
    0.000 999%   0.000 Cr                                                  
 2.76E-09  12%   0.000 GABA                                                
 1.66E-09  17%   0.000 Glc                                                 
    0.000 999%   0.000 Gln                                                 
 6.15E-11 606%   0.000 Glu                                                 
    0.000 999%   0.000 Glyc                                                
    0.000 999%   0.000 GPC                                                 
 3.79E-11 489%   0.000 GSH                                                 
 2.13E-10  90%   0.000 Ins                                                 
    0.000 999%   0.000 Lac                                                 
    0.000 999%   0.000 NAAG                                                
 1.27E-09  12%   0.000 NAA                                                 
 9.05E-11  52%   0.000 PCh                                                 
    0.000 999%   0.000 PCr                                                 
    0.000 999%   0.000 PE                                                  
    0.000 999%   0.000 Scyllo                                              
    0.000 999%   0.000 Ser                                                 
    0.000 999%   0.000 Tau                                                 
 9.05E-11  52%   0.000 GPC+PCh                                             
 1.27E-09  12%   0.000 NAA+NAAG                                            
 2.13E-10  90%   0.000 Ins+Glyc                                            
    0.000 999%   0.000 Cr+PCr                                              
 6.15E-11 606%   0.000 Glu+Gln                                             
   6 lines in following misc. output table
  FWHM = 0.067 ppm    S/N =   5                                            
  Data shift = 0.335 ppm                                                   
  Ph:  50 deg      28.3 deg/ppm                                            
  alphaB,S = 1.5E-01,   7.2E+01                                            
   16 spline knots.   Ns = 5(1)                                            
  ( 7) 2 infls.   ( 5) 1 extrs.                                            
  363 points on ppm-axis = NY
      4.250000     4.238821     4.227641     4.216462     4.205282     4.194103     4.182923     4.171744     4.160564     4.149385
      4.138206     4.127026     4.115847     4.104667     4.093488     4.082308     4.071129     4.059949     4.048770     4.037591
      4.026411     4.015232     4.004052     3.992873     3.981693     3.970514     3.959334     3.948155     3.936975     3.925796
      3.914617     3.903437     3.892258     3.881078     3.869899     3.858719     3.847540     3.836360     3.825181     3.814002
      3.802822     3.791643     3.780463     3.769284     3.758104     3.746925     3.735745     3.724566     3.713387     3.702207
      3.691028     3.679848     3.668669     3.657489     3.646310     3.635130     3.623951     3.612772     3.601592     3.590413
      3.579233     3.568054     3.556874     3.545695     3.534515     3.523336     3.512156     3.500977     3.489798     3.478618
      3.467439     3.456259     3.445080     3.433900     3.422721     3.411541     3.400362     3.389183     3.378003     3.366824
      3.355644     3.344465     3.333285     3.322106     3.310926     3.299747     3.288568     3.277388     3.266209     3.255029
      3.243850     3.232670     3.221491     3.210311     3.199132     3.187953     3.176773     3.165594     3.154414     3.143235
      3.132055     3.120876     3.109696     3.098517     3.087337     3.076158     3.064979     3.053799     3.042620     3.031440
      3.020261     3.009081     2.997902     2.986722     2.975543     2.964364     2.953184     2.942005     2.930825     2.919646
      2.908466     2.897287     2.886107     2.874928     2.863749     2.852569     2.841390     2.830210     2.819031     2.807851
      2.796672     2.785492     2.774313     2.763134     2.751954     2.740775     2.729595     2.718416     2.707236     2.696057
      2.684877     2.673698     2.662519     2.651339     2.640160     2.628980     2.617801     2.606621     2.595442     2.584262
      2.573083     2.561903     2.550724     2.539545     2.528365     2.517186     2.506006     2.494827     2.483647     2.472468
      2.461288     2.450109     2.438930     2.427750     2.416571     2.405391     2.394212     2.383032     2.371853     2.360673
      2.349494     2.338315     2.327135     2.315956     2.304776     2.293597     2.282417     2.271238     2.260058     2.248879
      2.237700     2.226520     2.215341     2.204161     2.192982     2.181802     2.170623     2.159443     2.148264     2.137084
      2.125905     2.114726     2.103546     2.092367     2.081187     2.070008     2.058828     2.047649     2.036469     2.025290
      2.014111     2.002931     1.991752     1.980572     1.969393     1.958213     1.947034     1.935854     1.924675     1.913496
      1.902316     1.891137     1.879957     1.868778     1.857598     1.846419     1.835239     1.824060     1.812881     1.801701
      1.790522     1.779342     1.768163     1.756983     1.745804     1.734624     1.723445     1.712265     1.701086     1.689907
      1.678727     1.667548     1.656368     1.645189     1.634009     1.622830     1.611650     1.600471     1.589292     1.578112
      1.566933     1.555753     1.544574     1.533394     1.522215     1.511035     1.499856     1.488677     1.477497     1.466318
      1.455138     1.443959     1.432779     1.421600     1.410420     1.399241     1.388062     1.376882     1.365703     1.354523
      1.343344     1.332164     1.320985     1.309805     1.298626     1.287446     1.276267     1.265088     1.253908     1.242729
      1.231549     1.220370     1.209190     1.198011     1.186831     1.175652     1.164473     1.153293     1.142114     1.130934
      1.119755     1.108575     1.097396     1.086216     1.075037     1.063858     1.052678     1.041499     1.030319     1.019140
      1.007960     0.996781     0.985601     0.974422     0.963243     0.952063     0.940884     0.929704     0.918525     0.907345
      0.896166     0.884986     0.873807     0.862628     0.851448     0.840269     0.829089     0.817910     0.806730     0.795551
      0.784371     0.773192     0.762012     0.750833     0.739654     0.728474     0.717295     0.706115     0.694936     0.683756
      0.672577     0.661397     0.650218     0.639039     0.627859     0.616680     0.605500     0.594321     0.583141     0.571962
      0.560782     0.549603     0.538424     0.527244     0.516065     0.504885     0.493706     0.482526     0.471347     0.460167
      0.448988     0.437809     0.426629     0.415450     0.404270     0.393091     0.381911     0.370732     0.359552     0.348373
      0.337193     0.326014     0.314835     0.303655     0.292476     0.281296     0.270117     0.258937     0.247758     0.236578
      0.225399     0.214220     0.203040
 NY phased data points follow
   3.54999E-09  6.33267E-09  8.05170E-09  1.07592E-08  9.80024E-09  9.06913E-09  7.81375E-09  6.24725E-09  6.05713E-09  5.48565E-09
   5.72501E-09  5.11944E-09  6.29786E-09  6.17205E-09  6.44441E-09  6.60047E-09  7.71200E-09  8.45993E-09  7.42825E-09  7.92962E-09
   7.87576E-09  6.84486E-09  7.29484E-09  6.68944E-09  6.85796E-09  6.10531E-09  6.80728E-09  7.24445E-09  7.53896E-09  7.24681E-09
   6.11581E-09  5.50130E-09  6.69038E-09  7.74980E-09  9.74047E-09  1.02260E-08  9.86209E-09  8.59927E-09  7.95998E-09  6.71038E-09
   5.52776E-09  5.23150E-09  5.25139E-09  5.04841E-09  4.82891E-09  4.50738E-09  5.05762E-09  4.33904E-09  3.68970E-09  2.85611E-09
   3.37134E-09  3.34974E-09  3.40285E-09  3.78659E-09  3.47753E-09  4.02013E-09  2.74044E-09  2.61820E-09  2.98547E-09  2.47508E-09
   3.45944E-09  3.98976E-09  4.10341E-09  5.35230E-09  7.11394E-09  8.36204E-09  1.05958E-08  9.70511E-09  8.13112E-09  7.16931E-09
   5.28942E-09  5.11304E-09  4.35689E-09  3.18285E-09  3.09413E-09  3.13244E-09  2.74679E-09  2.27635E-09  3.15106E-09  3.83412E-09
   6.62554E-09  1.06677E-08  1.35133E-08  1.32613E-08  1.22482E-08  1.04571E-08  8.39961E-09  7.39021E-09  6.99932E-09  6.68285E-09
   6.14686E-09  5.67802E-09  5.93066E-09  5.40048E-09  4.51381E-09  3.97467E-09  3.71764E-09  3.96769E-09  2.93548E-09  2.65744E-09
   2.71326E-09  2.70959E-09  3.20934E-09  2.73202E-09  3.44306E-09  2.97694E-09  2.70845E-09  3.41130E-09  2.34834E-09  2.54957E-09
   1.89600E-09  1.57208E-09  1.42722E-09  1.63485E-09  1.93098E-09  2.77302E-09  2.36704E-09  2.38151E-09  2.72472E-09  2.87929E-09
   2.73003E-09  2.75903E-09  2.89413E-09  2.53335E-09  2.06121E-09  1.54357E-09  8.73670E-10  1.28081E-09  1.17917E-09  1.42396E-09
   1.92698E-09  1.65091E-09  1.98048E-09  2.38830E-09  2.79796E-09  2.46639E-09  2.06469E-09  2.16727E-09  1.91615E-09  1.49185E-09
   3.21616E-09  3.27071E-09  4.51732E-09  4.15222E-09  3.34996E-09  3.22737E-09  3.73653E-09  3.64844E-09  4.09666E-09  4.32447E-09
   3.94234E-09  3.41932E-09  3.32702E-09  3.45012E-09  3.28503E-09  3.53222E-09  3.35954E-09  3.93707E-09  3.97416E-09  4.33271E-09
   4.28772E-09  4.35579E-09  4.62535E-09  4.98803E-09  5.33549E-09  5.72886E-09  6.10837E-09  6.74883E-09  7.04223E-09  8.55567E-09
   1.06628E-08  1.28496E-08  1.59686E-08  1.76626E-08  1.49906E-08  1.16360E-08  8.32395E-09  6.67460E-09  5.15754E-09  4.53255E-09
   3.86628E-09  3.24489E-09  2.20558E-09  2.52031E-09  1.47376E-09  1.71879E-09 -3.46581E-10 -5.81368E-12 -3.64905E-10 -1.71101E-09
  -1.80499E-09 -2.31694E-09 -3.08889E-09 -4.23967E-09 -4.68612E-09 -5.66532E-09 -5.97064E-09 -6.80913E-09 -7.78622E-09 -8.59366E-09
  -8.85793E-09 -9.84757E-09 -1.01574E-08 -1.03504E-08 -1.03416E-08 -1.05771E-08 -9.70214E-09 -9.89904E-09 -8.85634E-09 -8.22264E-09
  -8.11439E-09 -6.88050E-09 -5.35175E-09 -5.04684E-09 -3.48429E-09 -2.68874E-09 -2.36973E-09 -2.09320E-09 -1.84036E-09 -1.05477E-09
  -1.66691E-09 -2.28423E-09 -2.11652E-09 -1.76157E-09 -2.05632E-09 -2.30499E-09 -1.73874E-09 -1.78673E-09 -1.87597E-09 -1.87232E-09
  -1.34031E-09 -2.14722E-09 -1.87692E-09 -1.61728E-09 -2.46460E-09 -2.29542E-09 -2.08694E-09 -1.40737E-09 -1.52713E-09 -1.69220E-09
  -1.94897E-09 -1.20436E-09 -1.66740E-09 -1.45513E-09 -1.97931E-09 -1.94318E-09 -1.70049E-09 -2.08861E-09 -1.44284E-09 -1.74271E-09
  -1.56027E-09 -1.06999E-09 -1.11356E-09 -1.53337E-09 -4.39283E-10 -1.15889E-09 -1.44201E-09 -1.19671E-09 -1.92463E-09 -1.25967E-09
  -1.71709E-09 -2.66718E-09 -1.83701E-09 -2.12408E-09 -1.73918E-09 -1.82453E-09 -1.48746E-09 -8.12829E-10 -6.99719E-10 -6.63466E-10
  -8.11236E-10 -5.94987E-10 -5.45042E-10 -6.59210E-10 -6.19001E-10 -7.93060E-10 -1.03447E-09 -4.99976E-10 -1.20304E-09 -1.47000E-09
  -8.84832E-10 -1.86916E-09 -1.76762E-09 -1.49713E-09 -1.50976E-09 -1.58116E-09 -1.45202E-09 -1.59280E-09 -1.74606E-09 -1.47496E-09
  -1.15524E-09 -1.70586E-09 -1.59881E-09 -9.26000E-10 -7.64992E-10 -1.10817E-09 -1.33800E-09 -1.18850E-09 -9.00663E-10 -1.16430E-09
  -9.89325E-10 -8.71111E-10 -1.59168E-09 -4.66188E-10 -1.58053E-09 -5.42132E-10 -3.80103E-10 -8.12344E-10 -5.38296E-10 -1.25170E-09
  -5.70506E-10 -8.29444E-10 -5.02595E-10 -4.02042E-10 -3.47022E-10 -9.07514E-10 -1.30912E-09 -4.14287E-10 -5.92525E-10 -3.92740E-10
  -1.02400E-09 -7.78008E-10 -6.97218E-10 -4.37855E-10 -8.39247E-10 -5.01537E-10 -1.09128E-09 -4.16714E-10 -9.81269E-11 -5.33109E-10
  -8.84710E-10 -6.94823E-10 -4.06095E-10 -6.29312E-10 -8.27456E-12 -6.82031E-10 -2.50155E-10 -1.00371E-09 -3.72210E-10 -6.72534E-10
  -6.26326E-10 -1.39246E-09 -3.23280E-10 -9.77844E-11 -7.30747E-10 -5.01948E-10 -2.65189E-10 -1.01294E-09 -5.78076E-10 -6.08846E-10
  -1.34825E-11 -5.52408E-10 -5.90147E-10 -8.91670E-10 -7.33199E-10 -1.26557E-10 -7.39790E-10 -4.81064E-10 -7.61759E-10 -7.54914E-10
  -5.36985E-10 -7.53585E-10 -7.82151E-10
 NY points of the fit to the data follow
   6.55097E-09  7.09800E-09  7.60389E-09  7.98104E-09  8.10118E-09  7.91108E-09  7.44737E-09  6.84992E-09  6.34868E-09  5.92158E-09
   5.73181E-09  5.74086E-09  5.85958E-09  6.06394E-09  6.37068E-09  6.75376E-09  7.19326E-09  7.70447E-09  8.20261E-09  8.55331E-09
   8.68333E-09  8.42391E-09  7.77621E-09  7.02089E-09  6.34304E-09  5.85923E-09  5.73790E-09  6.05378E-09  6.55660E-09  7.01221E-09
   7.21993E-09  7.41424E-09  7.73226E-09  7.95717E-09  8.13121E-09  8.47025E-09  8.75442E-09  8.73869E-09  8.35810E-09  7.70927E-09
   6.97377E-09  6.16818E-09  5.14371E-09  4.34663E-09  3.89279E-09  3.48250E-09  3.22472E-09  3.21690E-09  3.32974E-09  3.43852E-09
   3.48877E-09  3.46953E-09  3.44613E-09  3.43107E-09  3.44747E-09  3.51253E-09  3.57201E-09  3.59790E-09  3.54702E-09  3.48833E-09
   3.60005E-09  4.00668E-09  4.54118E-09  5.17391E-09  6.10778E-09  6.95153E-09  7.54248E-09  7.99469E-09  8.25362E-09  8.15057E-09
   7.66018E-09  6.80176E-09  5.78533E-09  4.93410E-09  4.08545E-09  3.35282E-09  3.29072E-09  3.89683E-09  4.79011E-09  6.14810E-09
   7.88199E-09  9.77108E-09  1.14843E-08  1.23374E-08  1.20188E-08  1.08836E-08  9.33651E-09  7.66109E-09  6.20062E-09  5.68684E-09
   5.52640E-09  5.42665E-09  5.15007E-09  4.67917E-09  4.34011E-09  3.98003E-09  3.48612E-09  3.14450E-09  2.91235E-09  2.69786E-09
   2.57624E-09  2.51741E-09  2.50784E-09  2.55023E-09  2.60976E-09  2.66296E-09  2.69781E-09  2.71120E-09  2.70084E-09  2.66306E-09
   2.59981E-09  2.53217E-09  2.49074E-09  2.44337E-09  2.40630E-09  2.41027E-09  2.42784E-09  2.45138E-09  2.47813E-09  2.50681E-09
   2.53667E-09  2.56721E-09  2.59806E-09  2.62893E-09  2.65959E-09  2.68985E-09  2.71954E-09  2.74852E-09  2.77663E-09  2.80376E-09
   2.82977E-09  2.85456E-09  2.87801E-09  2.90001E-09  2.92046E-09  2.93925E-09  2.95628E-09  2.97148E-09  2.98476E-09  2.99602E-09
   3.00517E-09  3.01205E-09  3.01648E-09  3.01829E-09  3.01730E-09  3.01336E-09  3.00631E-09  2.99600E-09  2.98230E-09  2.96508E-09
   2.94427E-09  2.91981E-09  2.89166E-09  2.85985E-09  2.82448E-09  2.78575E-09  2.74398E-09  2.69971E-09  2.65381E-09  2.60761E-09
   2.56330E-09  2.52454E-09  2.49783E-09  2.49589E-09  2.54777E-09  2.74052E-09  3.44507E-09  4.90302E-09  6.88334E-09  9.28877E-09
   1.20934E-08  1.48457E-08  1.66926E-08  1.68664E-08  1.51868E-08  1.21128E-08  8.37145E-09  4.64715E-09  1.87734E-09  5.18125E-10
  -7.22770E-11 -4.52871E-10 -7.51698E-10 -1.00934E-09 -1.24259E-09 -1.45953E-09 -1.66433E-09 -1.85923E-09 -2.04541E-09 -2.22344E-09
  -2.39352E-09 -2.55560E-09 -2.70947E-09 -2.85481E-09 -2.99123E-09 -3.11829E-09 -3.23568E-09 -3.34360E-09 -3.44237E-09 -3.53228E-09
  -3.61358E-09 -3.68655E-09 -3.75145E-09 -3.80852E-09 -3.85800E-09 -3.90014E-09 -3.93519E-09 -3.96336E-09 -3.98489E-09 -4.00002E-09
  -4.00898E-09 -4.01198E-09 -4.00926E-09 -4.00105E-09 -3.98757E-09 -3.96905E-09 -3.94571E-09 -3.91777E-09 -3.88546E-09 -3.84899E-09
  -3.80860E-09 -3.76450E-09 -3.71692E-09 -3.66608E-09 -3.61220E-09 -3.55550E-09 -3.49620E-09 -3.43451E-09 -3.37066E-09 -3.30487E-09
  -3.23735E-09 -3.16832E-09 -3.09800E-09 -3.02662E-09 -2.95437E-09 -2.88150E-09 -2.80821E-09 -2.73472E-09 -2.66124E-09 -2.58802E-09
  -2.51525E-09 -2.44316E-09 -2.37195E-09 -2.30187E-09 -2.23310E-09 -2.16589E-09 -2.10044E-09 -2.03697E-09 -1.97571E-09 -1.91687E-09
  -1.86065E-09 -1.80731E-09 -1.75689E-09 -1.70931E-09 -1.66448E-09 -1.62228E-09 -1.58260E-09 -1.54535E-09 -1.51042E-09 -1.47770E-09
  -1.44709E-09 -1.41848E-09 -1.39176E-09 -1.36684E-09 -1.34361E-09 -1.32196E-09 -1.30177E-09 -1.28297E-09 -1.26543E-09 -1.24905E-09
  -1.23372E-09 -1.21935E-09 -1.20582E-09 -1.19302E-09 -1.18087E-09 -1.16923E-09 -1.15803E-09 -1.14714E-09 -1.13647E-09 -1.12591E-09
  -1.11540E-09 -1.10496E-09 -1.09456E-09 -1.08421E-09 -1.07391E-09 -1.06365E-09 -1.05344E-09 -1.04326E-09 -1.03311E-09 -1.02301E-09
  -1.01293E-09 -1.00287E-09 -9.92844E-10 -9.82837E-10 -9.72849E-10 -9.62876E-10 -9.52917E-10 -9.42967E-10 -9.33029E-10 -9.23089E-10
  -9.13157E-10 -9.03221E-10 -8.93280E-10 -8.83338E-10 -8.73385E-10 -8.63419E-10 -8.53441E-10 -8.43442E-10 -8.33437E-10 -8.23436E-10
  -8.13452E-10 -8.03501E-10 -7.93598E-10 -7.83750E-10 -7.73976E-10 -7.64288E-10 -7.54699E-10 -7.45224E-10 -7.35876E-10 -7.26666E-10
  -7.17614E-10 -7.08725E-10 -7.00017E-10 -6.91507E-10 -6.83201E-10 -6.75121E-10 -6.67274E-10 -6.59674E-10 -6.52338E-10 -6.45281E-10
  -6.38509E-10 -6.32041E-10 -6.25888E-10 -6.20068E-10 -6.14592E-10 -6.09467E-10 -6.04689E-10 -6.00247E-10 -5.96121E-10 -5.92299E-10
  -5.88767E-10 -5.85508E-10 -5.82511E-10 -5.79758E-10 -5.77240E-10 -5.74935E-10 -5.72836E-10 -5.70925E-10 -5.69188E-10 -5.67610E-10
  -5.66175E-10 -5.64873E-10 -5.63687E-10 -5.62603E-10 -5.61605E-10 -5.60682E-10 -5.59817E-10 -5.58994E-10 -5.58201E-10 -5.57425E-10
  -5.56651E-10 -5.55863E-10 -5.55044E-10
 NY background values follow
     7.251E-10    7.126E-10    7.000E-10    6.874E-10    6.748E-10    6.621E-10    6.495E-10    6.369E-10    6.242E-10    6.116E-10
     5.989E-10    5.863E-10    5.736E-10    5.609E-10    5.483E-10    5.356E-10    5.229E-10    5.103E-10    4.976E-10    4.850E-10
     4.723E-10    4.597E-10    4.470E-10    4.344E-10    4.218E-10    4.092E-10    3.965E-10    3.840E-10    3.714E-10    3.588E-10
     3.463E-10    3.339E-10    3.216E-10    3.094E-10    2.974E-10    2.856E-10    2.740E-10    2.628E-10    2.518E-10    2.411E-10
     2.308E-10    2.209E-10    2.115E-10    2.025E-10    1.940E-10    1.860E-10    1.785E-10    1.717E-10    1.654E-10    1.598E-10
     1.549E-10    1.507E-10    1.472E-10    1.445E-10    1.427E-10    1.416E-10    1.414E-10    1.421E-10    1.437E-10    1.462E-10
     1.496E-10    1.539E-10    1.591E-10    1.652E-10    1.722E-10    1.801E-10    1.890E-10    1.987E-10    2.094E-10    2.210E-10
     2.336E-10    2.470E-10    2.614E-10    2.768E-10    2.930E-10    3.102E-10    3.284E-10    3.475E-10    3.675E-10    3.886E-10
     4.105E-10    4.334E-10    4.573E-10    4.821E-10    5.080E-10    5.347E-10    5.624E-10    5.910E-10    6.204E-10    6.507E-10
     6.818E-10    7.136E-10    7.462E-10    7.795E-10    8.135E-10    8.481E-10    8.834E-10    9.192E-10    9.557E-10    9.926E-10
     1.030E-09    1.068E-09    1.106E-09    1.145E-09    1.184E-09    1.224E-09    1.263E-09    1.304E-09    1.344E-09    1.384E-09
     1.425E-09    1.466E-09    1.507E-09    1.548E-09    1.589E-09    1.630E-09    1.671E-09    1.712E-09    1.752E-09    1.791E-09
     1.830E-09    1.869E-09    1.907E-09    1.943E-09    1.979E-09    2.014E-09    2.048E-09    2.080E-09    2.111E-09    2.141E-09
     2.170E-09    2.196E-09    2.222E-09    2.245E-09    2.266E-09    2.286E-09    2.304E-09    2.319E-09    2.332E-09    2.343E-09
     2.352E-09    2.358E-09    2.361E-09    2.361E-09    2.358E-09    2.352E-09    2.342E-09    2.328E-09    2.311E-09    2.289E-09
     2.263E-09    2.232E-09    2.196E-09    2.156E-09    2.110E-09    2.059E-09    2.002E-09    1.940E-09    1.872E-09    1.797E-09
     1.716E-09    1.629E-09    1.534E-09    1.433E-09    1.324E-09    1.209E-09    1.085E-09    9.539E-10    8.148E-10    6.682E-10
     5.149E-10    3.553E-10    1.902E-10    2.009E-11   -1.543E-10   -3.325E-10   -5.138E-10   -6.975E-10   -8.832E-10   -1.070E-09
    -1.258E-09   -1.445E-09   -1.632E-09   -1.818E-09   -2.002E-09   -2.183E-09   -2.361E-09   -2.536E-09   -2.706E-09   -2.872E-09
    -3.032E-09   -3.185E-09   -3.332E-09   -3.472E-09   -3.603E-09   -3.726E-09   -3.840E-09   -3.945E-09   -4.041E-09   -4.129E-09
    -4.208E-09   -4.279E-09   -4.342E-09   -4.398E-09   -4.446E-09   -4.487E-09   -4.521E-09   -4.549E-09   -4.569E-09   -4.584E-09
    -4.592E-09   -4.594E-09   -4.591E-09   -4.582E-09   -4.569E-09   -4.550E-09   -4.526E-09   -4.498E-09   -4.465E-09   -4.428E-09
    -4.388E-09   -4.343E-09   -4.295E-09   -4.244E-09   -4.190E-09   -4.133E-09   -4.074E-09   -4.012E-09   -3.948E-09   -3.882E-09
    -3.814E-09   -3.745E-09   -3.675E-09   -3.603E-09   -3.531E-09   -3.458E-09   -3.385E-09   -3.311E-09   -3.237E-09   -3.164E-09
    -3.091E-09   -3.019E-09   -2.948E-09   -2.878E-09   -2.809E-09   -2.742E-09   -2.676E-09   -2.613E-09   -2.551E-09   -2.492E-09
    -2.436E-09   -2.383E-09   -2.332E-09   -2.284E-09   -2.240E-09   -2.197E-09   -2.158E-09   -2.120E-09   -2.085E-09   -2.052E-09
    -2.022E-09   -1.993E-09   -1.966E-09   -1.941E-09   -1.918E-09   -1.896E-09   -1.876E-09   -1.857E-09   -1.840E-09   -1.823E-09
    -1.808E-09   -1.793E-09   -1.780E-09   -1.767E-09   -1.755E-09   -1.743E-09   -1.732E-09   -1.721E-09   -1.710E-09   -1.699E-09
    -1.689E-09   -1.678E-09   -1.668E-09   -1.657E-09   -1.647E-09   -1.637E-09   -1.626E-09   -1.616E-09   -1.606E-09   -1.596E-09
    -1.585E-09   -1.575E-09   -1.565E-09   -1.555E-09   -1.545E-09   -1.535E-09   -1.525E-09   -1.515E-09   -1.505E-09   -1.495E-09
    -1.485E-09   -1.475E-09   -1.464E-09   -1.454E-09   -1.444E-09   -1.434E-09   -1.424E-09   -1.414E-09   -1.404E-09   -1.394E-09
    -1.384E-09   -1.374E-09   -1.364E-09   -1.354E-09   -1.344E-09   -1.334E-09   -1.324E-09   -1.315E-09   -1.305E-09   -1.296E-09
    -1.286E-09   -1.277E-09   -1.269E-09   -1.260E-09   -1.251E-09   -1.243E-09   -1.235E-09   -1.227E-09   -1.220E-09   -1.213E-09
    -1.206E-09   -1.199E-09   -1.193E-09   -1.187E-09   -1.181E-09   -1.176E-09   -1.171E-09   -1.166E-09   -1.162E-09   -1.158E-09
    -1.154E-09   -1.151E-09   -1.148E-09   -1.145E-09   -1.142E-09   -1.140E-09   -1.137E-09   -1.135E-09   -1.133E-09   -1.131E-09
    -1.130E-09   -1.128E-09   -1.127E-09   -1.126E-09   -1.124E-09   -1.123E-09   -1.122E-09   -1.121E-09   -1.120E-09   -1.119E-09
    -1.118E-09   -1.117E-09   -1.116E-09
 Ala      Conc. = 1.06E-10
   8.02784E-10  7.98565E-10  7.91804E-10  7.82748E-10  7.71080E-10  7.57048E-10  7.39556E-10  7.17049E-10  6.95355E-10  6.74983E-10
   6.49767E-10  6.26568E-10  6.07778E-10  5.88353E-10  5.70195E-10  5.54207E-10  5.39333E-10  5.25106E-10  5.11287E-10  4.97745E-10
   4.84399E-10  4.71198E-10  4.58111E-10  4.45111E-10  4.32179E-10  4.19311E-10  4.06492E-10  3.93715E-10  3.80979E-10  3.68286E-10
   3.55663E-10  3.43135E-10  3.30734E-10  3.18488E-10  3.06428E-10  2.94584E-10  2.82986E-10  2.71665E-10  2.60651E-10  2.49975E-10
   2.39669E-10  2.29762E-10  2.20287E-10  2.11274E-10  2.02756E-10  1.94761E-10  1.87323E-10  1.80475E-10  1.74242E-10  1.68661E-10
   1.63764E-10  1.59577E-10  1.56136E-10  1.53471E-10  1.51620E-10  1.50600E-10  1.50451E-10  1.51197E-10  1.52839E-10  1.55381E-10
   1.58825E-10  1.63176E-10  1.68435E-10  1.74607E-10  1.81693E-10  1.89699E-10  1.98626E-10  2.08479E-10  2.19260E-10  2.30973E-10
   2.43622E-10  2.57212E-10  2.71744E-10  2.87224E-10  3.03656E-10  3.21044E-10  3.39393E-10  3.58709E-10  3.78995E-10  4.00261E-10
   4.22509E-10  4.45751E-10  4.69991E-10  4.95243E-10  5.21513E-10  5.48803E-10  5.77095E-10  6.06376E-10  6.36639E-10  6.67881E-10
   7.00114E-10  7.33360E-10  7.67669E-10  8.03125E-10  8.39872E-10  8.78165E-10  9.18471E-10  9.61728E-10  1.01016E-09  1.07081E-09
   1.15423E-09  1.24008E-09  1.33804E-09  1.46342E-09  1.58882E-09  1.69535E-09  1.77395E-09  1.82378E-09  1.84422E-09  1.83280E-09
   1.79250E-09  1.74485E-09  1.72081E-09  1.68861E-09  1.66481E-09  1.68043E-09  1.70840E-09  1.74122E-09  1.77627E-09  1.81237E-09
   1.84884E-09  1.88529E-09  1.92143E-09  1.95705E-09  1.99196E-09  2.02603E-09  2.05911E-09  2.09110E-09  2.12187E-09  2.15133E-09
   2.17935E-09  2.20586E-09  2.23074E-09  2.25389E-09  2.27524E-09  2.29466E-09  2.31208E-09  2.32741E-09  2.34053E-09  2.35138E-09
   2.35983E-09  2.36573E-09  2.36887E-09  2.36905E-09  2.36608E-09  2.35974E-09  2.34985E-09  2.33619E-09  2.31857E-09  2.29679E-09
   2.27065E-09  2.23995E-09  2.20449E-09  2.16407E-09  2.11850E-09  2.06758E-09  2.01112E-09  1.94893E-09  1.88082E-09  1.80661E-09
   1.72613E-09  1.63923E-09  1.54583E-09  1.44587E-09  1.33956E-09  1.22781E-09  1.11519E-09  1.01217E-09  9.06999E-10  8.01302E-10
   6.97216E-10  5.87653E-10  4.57744E-10  2.93490E-10  9.28754E-11 -1.34650E-10 -3.75054E-10 -6.17544E-10 -8.48635E-10 -1.04844E-09
  -1.24114E-09 -1.43142E-09 -1.62003E-09 -1.80687E-09 -1.99153E-09 -2.17353E-09 -2.35233E-09 -2.52734E-09 -2.69796E-09 -2.86361E-09
  -3.02367E-09 -3.17755E-09 -3.32462E-09 -3.46427E-09 -3.59589E-09 -3.71886E-09 -3.83274E-09 -3.93765E-09 -4.03380E-09 -4.12142E-09
  -4.20072E-09 -4.27193E-09 -4.33527E-09 -4.39096E-09 -4.43922E-09 -4.48027E-09 -4.51433E-09 -4.54163E-09 -4.56237E-09 -4.57678E-09
  -4.58509E-09 -4.58751E-09 -4.58426E-09 -4.57557E-09 -4.56164E-09 -4.54272E-09 -4.51901E-09 -4.49073E-09 -4.45810E-09 -4.42135E-09
  -4.38070E-09 -4.33635E-09 -4.28855E-09 -4.23750E-09 -4.18342E-09 -4.12654E-09 -4.06707E-09 -4.00523E-09 -3.94123E-09 -3.87530E-09
  -3.80765E-09 -3.73850E-09 -3.66807E-09 -3.59657E-09 -3.52422E-09 -3.45125E-09 -3.37787E-09 -3.30430E-09 -3.23073E-09 -3.15743E-09
  -3.08458E-09 -3.01241E-09 -2.94113E-09 -2.87098E-09 -2.80215E-09 -2.73486E-09 -2.66935E-09 -2.60582E-09 -2.54449E-09 -2.48559E-09
  -2.42931E-09 -2.37590E-09 -2.32543E-09 -2.27779E-09 -2.23289E-09 -2.19064E-09 -2.15090E-09 -2.11360E-09 -2.07860E-09 -2.04582E-09
  -2.01515E-09 -1.98648E-09 -1.95971E-09 -1.93472E-09 -1.91143E-09 -1.88971E-09 -1.86946E-09 -1.85060E-09 -1.83300E-09 -1.81655E-09
  -1.80115E-09 -1.78672E-09 -1.77311E-09 -1.76025E-09 -1.74803E-09 -1.73632E-09 -1.72504E-09 -1.71408E-09 -1.70334E-09 -1.69269E-09
  -1.68211E-09 -1.67158E-09 -1.66111E-09 -1.65068E-09 -1.64029E-09 -1.62995E-09 -1.61965E-09 -1.60938E-09 -1.59915E-09 -1.58895E-09
  -1.57878E-09 -1.56864E-09 -1.55851E-09 -1.54841E-09 -1.53832E-09 -1.52825E-09 -1.51819E-09 -1.50814E-09 -1.49810E-09 -1.48805E-09
  -1.47801E-09 -1.46797E-09 -1.45791E-09 -1.44786E-09 -1.43779E-09 -1.42771E-09 -1.41762E-09 -1.40750E-09 -1.39737E-09 -1.38725E-09
  -1.37714E-09 -1.36706E-09 -1.35703E-09 -1.34705E-09 -1.33715E-09 -1.32733E-09 -1.31760E-09 -1.30799E-09 -1.29850E-09 -1.28915E-09
  -1.27996E-09 -1.27092E-09 -1.26207E-09 -1.25341E-09 -1.24495E-09 -1.23672E-09 -1.22872E-09 -1.22096E-09 -1.21347E-09 -1.20625E-09
  -1.19931E-09 -1.19268E-09 -1.18636E-09 -1.18037E-09 -1.17473E-09 -1.16943E-09 -1.16448E-09 -1.15986E-09 -1.15555E-09 -1.15155E-09
  -1.14783E-09 -1.14439E-09 -1.14120E-09 -1.13826E-09 -1.13555E-09 -1.13305E-09 -1.13076E-09 -1.12865E-09 -1.12671E-09 -1.12493E-09
  -1.12329E-09 -1.12178E-09 -1.12038E-09 -1.11908E-09 -1.11787E-09 -1.11673E-09 -1.11564E-09 -1.11460E-09 -1.11358E-09 -1.11258E-09
  -1.11157E-09 -1.11056E-09 -1.10950E-09
 Asp      Conc. = 5.14E-10
   1.35267E-09  1.26960E-09  1.17719E-09  1.07533E-09  9.75870E-10  8.76158E-10  7.98513E-10  7.35310E-10  6.99202E-10  6.73751E-10
   6.53580E-10  6.36425E-10  6.21119E-10  6.06976E-10  5.93363E-10  5.80072E-10  5.67129E-10  5.54498E-10  5.42139E-10  5.30025E-10
   5.18145E-10  5.06491E-10  4.95074E-10  4.83902E-10  4.72999E-10  4.62403E-10  4.52156E-10  4.42321E-10  4.32985E-10  4.24271E-10
   4.16372E-10  4.09548E-10  4.04185E-10  4.00878E-10  4.00653E-10  4.05589E-10  4.20580E-10  4.41563E-10  4.73408E-10  5.06834E-10
   5.38252E-10  5.63481E-10  5.79978E-10  5.96253E-10  6.12384E-10  6.63593E-10  7.33191E-10  8.28582E-10  9.64179E-10  1.08671E-09
   1.15559E-09  1.14310E-09  1.06372E-09  9.40345E-10  8.02420E-10  6.88444E-10  5.87273E-10  5.35804E-10  4.77098E-10  4.14508E-10
   3.89041E-10  3.84953E-10  3.78257E-10  3.70881E-10  3.61433E-10  3.41282E-10  3.13209E-10  3.00656E-10  2.96788E-10  2.98038E-10
   3.02792E-10  3.10196E-10  3.19746E-10  3.31126E-10  3.44119E-10  3.58579E-10  3.74399E-10  3.91499E-10  4.09822E-10  4.29324E-10
   4.49967E-10  4.71727E-10  4.94581E-10  5.18515E-10  5.43511E-10  5.69548E-10  5.96582E-10  6.24575E-10  6.53489E-10  6.83285E-10
   7.13930E-10  7.45386E-10  7.77620E-10  8.10597E-10  8.44285E-10  8.78649E-10  9.13658E-10  9.49279E-10  9.85479E-10  1.02223E-09
   1.05949E-09  1.09724E-09  1.13544E-09  1.17406E-09  1.21307E-09  1.25244E-09  1.29213E-09  1.33213E-09  1.37239E-09  1.41288E-09
   1.45358E-09  1.49446E-09  1.53547E-09  1.57656E-09  1.61763E-09  1.65859E-09  1.69935E-09  1.73983E-09  1.77992E-09  1.81954E-09
   1.85859E-09  1.89699E-09  1.93465E-09  1.97146E-09  2.00735E-09  2.04222E-09  2.07598E-09  2.10854E-09  2.13980E-09  2.16969E-09
   2.19810E-09  2.22494E-09  2.25013E-09  2.27358E-09  2.29519E-09  2.31487E-09  2.33253E-09  2.34809E-09  2.36146E-09  2.37253E-09
   2.38122E-09  2.38736E-09  2.39075E-09  2.39119E-09  2.38849E-09  2.38244E-09  2.37286E-09  2.35954E-09  2.34228E-09  2.32090E-09
   2.29521E-09  2.26501E-09  2.23011E-09  2.19033E-09  2.14550E-09  2.09543E-09  2.03997E-09  1.97897E-09  1.91231E-09  1.83988E-09
   1.76165E-09  1.67767E-09  1.58818E-09  1.49375E-09  1.39583E-09  1.29847E-09  1.21722E-09  1.21421E-09  1.23626E-09  1.28168E-09
   1.36244E-09  1.44979E-09  1.47287E-09  1.35548E-09  1.07482E-09  6.67355E-10  1.99489E-10 -2.76459E-10 -7.06916E-10 -9.75291E-10
  -1.19137E-09 -1.39285E-09 -1.58784E-09 -1.77868E-09 -1.96603E-09 -2.14992E-09 -2.33008E-09 -2.50611E-09 -2.67751E-09 -2.84377E-09
  -3.00431E-09 -3.15856E-09 -3.30594E-09 -3.44584E-09 -3.57766E-09 -3.70080E-09 -3.81482E-09 -3.91984E-09 -4.01608E-09 -4.10378E-09
  -4.18315E-09 -4.25442E-09 -4.31781E-09 -4.37353E-09 -4.42183E-09 -4.46290E-09 -4.49699E-09 -4.52430E-09 -4.54506E-09 -4.55948E-09
  -4.56780E-09 -4.57023E-09 -4.56699E-09 -4.55830E-09 -4.54438E-09 -4.52546E-09 -4.50174E-09 -4.47346E-09 -4.44084E-09 -4.40409E-09
  -4.36343E-09 -4.31908E-09 -4.27127E-09 -4.22022E-09 -4.16614E-09 -4.10926E-09 -4.04978E-09 -3.98794E-09 -3.92393E-09 -3.85800E-09
