 LCModel (Version 6.3-1R) Copyright: S.W. Provencher.          Ref.: Magn. Reson. Med. 30:672-679 (1993).                
 onepulse 19x25_ftSpec_smooth_lcm
 26 lines in following concentration table = NCONC+1
    Conc.  %SD /Cr+PCr  Metabolite                                         
    0.000 999%   0.000 Ala                                                 
    0.000 999%   0.000 Asp                                                 
    0.000 999%   0.000 Cr                                                  
    0.000 999%   0.000 GABA                                                
    0.000 999%   0.000 Glc                                                 
 2.00E-09  36%   4.833 Gln                                                 
 1.76E-10 362%   0.425 Glu                                                 
    0.000 999%   0.000 Glyc                                                
 1.71E-10  59%   0.413 GPC                                                 
    0.000 999%   0.000 GSH                                                 
 1.32E-09  24%   3.183 Ins                                                 
    0.000 999%   0.000 Lac                                                 
 1.44E-10 214%   0.347 NAAG                                                
 6.68E-10  57%   1.611 NAA                                                 
    0.000 999%   0.000 PCh                                                 
 4.14E-10  46%   1.000 PCr                                                 
    0.000 999%   0.000 PE                                                  
 1.99E-10 117%   0.480 Scyllo                                              
 2.81E-09  17%   6.769 Ser                                                 
 3.58E-10 193%   0.864 Tau                                                 
 1.71E-10  59%   0.413 GPC+PCh                                             
 8.12E-10  26%   1.958 NAA+NAAG                                            
 1.32E-09  24%   3.183 Ins+Glyc                                            
 4.14E-10  46%   1.000 Cr+PCr                                              
 2.18E-09  21%   5.257 Glu+Gln                                             
   6 lines in following misc. output table
  FWHM = 0.078 ppm    S/N =   4                                            
  Data shift = 0.347 ppm                                                   
  Ph: -49 deg     -26.5 deg/ppm                                            
  alphaB,S = 1.8E-01,   2.4E+01                                            
   16 spline knots.   Ns = 5(1)                                            
  (10) 4 infls.   ( 9) 1 extrs.                                            
  363 points on ppm-axis = NY
      4.250000     4.238821     4.227641     4.216462     4.205282     4.194103     4.182923     4.171744     4.160564     4.149385
      4.138206     4.127026     4.115847     4.104667     4.093488     4.082308     4.071129     4.059949     4.048770     4.037591
      4.026411     4.015232     4.004052     3.992873     3.981693     3.970514     3.959334     3.948155     3.936975     3.925796
      3.914617     3.903437     3.892258     3.881078     3.869899     3.858719     3.847540     3.836360     3.825181     3.814002
      3.802822     3.791643     3.780463     3.769284     3.758104     3.746925     3.735745     3.724566     3.713387     3.702207
      3.691028     3.679848     3.668669     3.657489     3.646310     3.635130     3.623951     3.612772     3.601592     3.590413
      3.579233     3.568054     3.556874     3.545695     3.534515     3.523336     3.512156     3.500977     3.489798     3.478618
      3.467439     3.456259     3.445080     3.433900     3.422721     3.411541     3.400362     3.389183     3.378003     3.366824
      3.355644     3.344465     3.333285     3.322106     3.310926     3.299747     3.288568     3.277388     3.266209     3.255029
      3.243850     3.232670     3.221491     3.210311     3.199132     3.187953     3.176773     3.165594     3.154414     3.143235
      3.132055     3.120876     3.109696     3.098517     3.087337     3.076158     3.064979     3.053799     3.042620     3.031440
      3.020261     3.009081     2.997902     2.986722     2.975543     2.964364     2.953184     2.942005     2.930825     2.919646
      2.908466     2.897287     2.886107     2.874928     2.863749     2.852569     2.841390     2.830210     2.819031     2.807851
      2.796672     2.785492     2.774313     2.763134     2.751954     2.740775     2.729595     2.718416     2.707236     2.696057
      2.684877     2.673698     2.662519     2.651339     2.640160     2.628980     2.617801     2.606621     2.595442     2.584262
      2.573083     2.561903     2.550724     2.539545     2.528365     2.517186     2.506006     2.494827     2.483647     2.472468
      2.461288     2.450109     2.438930     2.427750     2.416571     2.405391     2.394212     2.383032     2.371853     2.360673
      2.349494     2.338315     2.327135     2.315956     2.304776     2.293597     2.282417     2.271238     2.260058     2.248879
      2.237700     2.226520     2.215341     2.204161     2.192982     2.181802     2.170623     2.159443     2.148264     2.137084
      2.125905     2.114726     2.103546     2.092367     2.081187     2.070008     2.058828     2.047649     2.036469     2.025290
      2.014111     2.002931     1.991752     1.980572     1.969393     1.958213     1.947034     1.935854     1.924675     1.913496
      1.902316     1.891137     1.879957     1.868778     1.857598     1.846419     1.835239     1.824060     1.812881     1.801701
      1.790522     1.779342     1.768163     1.756983     1.745804     1.734624     1.723445     1.712265     1.701086     1.689907
      1.678727     1.667548     1.656368     1.645189     1.634009     1.622830     1.611650     1.600471     1.589292     1.578112
      1.566933     1.555753     1.544574     1.533394     1.522215     1.511035     1.499856     1.488677     1.477497     1.466318
      1.455138     1.443959     1.432779     1.421600     1.410420     1.399241     1.388062     1.376882     1.365703     1.354523
      1.343344     1.332164     1.320985     1.309805     1.298626     1.287446     1.276267     1.265088     1.253908     1.242729
      1.231549     1.220370     1.209190     1.198011     1.186831     1.175652     1.164473     1.153293     1.142114     1.130934
      1.119755     1.108575     1.097396     1.086216     1.075037     1.063858     1.052678     1.041499     1.030319     1.019140
      1.007960     0.996781     0.985601     0.974422     0.963243     0.952063     0.940884     0.929704     0.918525     0.907345
      0.896166     0.884986     0.873807     0.862628     0.851448     0.840269     0.829089     0.817910     0.806730     0.795551
      0.784371     0.773192     0.762012     0.750833     0.739654     0.728474     0.717295     0.706115     0.694936     0.683756
      0.672577     0.661397     0.650218     0.639039     0.627859     0.616680     0.605500     0.594321     0.583141     0.571962
      0.560782     0.549603     0.538424     0.527244     0.516065     0.504885     0.493706     0.482526     0.471347     0.460167
      0.448988     0.437809     0.426629     0.415450     0.404270     0.393091     0.381911     0.370732     0.359552     0.348373
      0.337193     0.326014     0.314835     0.303655     0.292476     0.281296     0.270117     0.258937     0.247758     0.236578
      0.225399     0.214220     0.203040
 NY phased data points follow
   1.77155E-08  1.64710E-08  1.40442E-08  1.08324E-08  9.84024E-09  8.02948E-09  8.39146E-09  8.35996E-09  8.50819E-09  8.88605E-09
   8.93186E-09  9.84224E-09  8.93605E-09  9.74266E-09  1.00054E-08  1.02072E-08  8.74227E-09  8.10542E-09  8.28929E-09  7.84330E-09
   7.00072E-09  6.28786E-09  6.46960E-09  6.93830E-09  7.03240E-09  7.88765E-09  7.42652E-09  6.47090E-09  5.55171E-09  5.69291E-09
   6.28561E-09  8.54203E-09  8.64355E-09  9.58696E-09  7.59213E-09  5.63672E-09  3.89725E-09  3.40864E-09  2.91885E-09  2.88950E-09
   3.19451E-09  3.28252E-09  2.16510E-09  3.36798E-09  2.67177E-09  2.73410E-09  1.88573E-09  2.19061E-09  1.78707E-09  2.45274E-09
   2.45966E-09  3.18787E-09  3.16421E-09  3.74530E-09  2.81540E-09  2.49124E-09  2.66524E-09  3.81505E-09  3.43476E-09  4.79554E-09
   4.99949E-09  5.42962E-09  6.96809E-09  9.11485E-09  9.58576E-09  9.57033E-09  6.50814E-09  5.67323E-09  3.85018E-09  3.28738E-09
   2.94940E-09  3.14905E-09  2.12381E-09  2.74526E-09  2.71364E-09  3.15399E-09  2.90079E-09  4.43352E-09  6.49338E-09  1.09458E-08
   1.37594E-08  1.46358E-08  1.14574E-08  9.40737E-09  7.52158E-09  6.31295E-09  5.15440E-09  5.22734E-09  4.28744E-09  4.54365E-09
   3.57398E-09  3.72618E-09  2.80596E-09  2.30180E-09  1.83771E-09  2.19421E-09  1.04881E-09  1.62625E-09  6.78250E-10  1.20209E-09
   5.26848E-10  1.36237E-09  1.59038E-09  2.51184E-09  1.03953E-09  1.96438E-09  1.22851E-09  1.68115E-09  8.50856E-10  1.45258E-10
  -2.92309E-10 -8.46425E-11 -3.43611E-10  1.39663E-09  1.33229E-09  2.06861E-09  8.20630E-10  1.95324E-09  1.92695E-09  2.30796E-09
   1.93197E-09  2.54049E-09  1.64898E-09  1.30313E-09  2.52794E-10  3.82838E-10 -1.99118E-10  5.66101E-10  6.31362E-10  9.44821E-10
   9.07677E-10  1.35301E-09  1.11570E-09  1.90473E-09  1.42219E-09  2.24211E-09  1.08957E-09  1.75037E-09  7.79507E-10  2.92989E-09
   2.98320E-09  4.14568E-09  4.24617E-09  3.83097E-09  2.72957E-09  4.13905E-09  3.82372E-09  4.47395E-09  4.15423E-09  3.81686E-09
   3.53803E-09  3.43483E-09  2.70384E-09  2.97396E-09  2.30476E-09  2.58691E-09  2.42428E-09  2.92255E-09  2.38417E-09  3.51470E-09
   2.72466E-09  3.66581E-09  3.17652E-09  3.92218E-09  3.60301E-09  4.11054E-09  4.01141E-09  4.93047E-09  4.99481E-09  6.96128E-09
   9.61414E-09  1.48776E-08  1.82380E-08  1.77434E-08  1.45817E-08  1.26060E-08  1.08863E-08  9.46437E-09  7.88347E-09  7.25338E-09
   6.31281E-09  5.77099E-09  5.48735E-09  3.97903E-09  3.15483E-09  2.77027E-09  1.38751E-09  1.30660E-09 -5.82400E-10 -1.44646E-09
  -2.87400E-09 -2.96934E-09 -4.77899E-09 -5.99059E-09 -7.43143E-09 -8.67186E-09 -9.27856E-09 -1.00324E-08 -1.16365E-08 -1.18036E-08
  -1.23839E-08 -1.22057E-08 -1.24334E-08 -1.16771E-08 -1.19514E-08 -1.07254E-08 -1.00317E-08 -8.89784E-09 -7.53630E-09 -6.38904E-09
  -6.09157E-09 -4.23787E-09 -3.82988E-09 -3.04281E-09 -2.42033E-09 -1.70536E-09 -1.33866E-09 -1.58021E-09 -1.09298E-09 -1.05747E-09
  -1.91353E-09 -1.55373E-09 -1.60604E-09 -1.65358E-09 -1.44898E-09 -9.23257E-10 -1.25495E-09 -1.05634E-09 -1.07457E-09 -5.59483E-10
  -1.21771E-09 -1.25734E-09 -1.04417E-09 -1.02923E-09 -1.30835E-09 -1.58877E-09 -1.41688E-09 -5.93245E-10 -8.72258E-10 -5.68666E-10
  -1.16972E-09 -6.70601E-10 -8.12795E-10 -6.41819E-10 -7.06474E-10 -9.68728E-10 -1.60243E-09 -9.34533E-10 -1.22779E-09 -9.87419E-10
  -9.65073E-10 -4.17177E-10 -8.64628E-10 -2.88409E-10  6.16755E-12  1.42442E-10  1.45863E-10 -1.07100E-10 -3.99805E-10  4.25744E-11
  -9.96613E-10 -8.73332E-10 -1.47102E-09 -1.35947E-09 -1.60885E-09 -1.50969E-09 -1.49741E-09 -1.72207E-09 -1.04643E-09 -6.26668E-10
  -1.00201E-09 -2.18713E-10 -2.90755E-10  7.87405E-11  1.94583E-10  2.62052E-10  5.17316E-10  8.16010E-10 -1.62050E-10  6.15693E-10
   1.94391E-10  2.98786E-10 -2.29241E-10 -2.28243E-10 -2.43115E-10 -5.95234E-10 -1.12597E-10 -2.37832E-10 -5.15426E-10 -9.58901E-10
  -5.38258E-10 -9.32875E-10 -9.38325E-10 -1.10830E-09 -5.56789E-10 -9.79786E-10 -1.00315E-09 -9.61279E-10 -4.45242E-10 -8.94410E-10
  -3.33519E-10 -1.42916E-09 -8.47421E-10 -7.01718E-10 -1.39407E-09 -8.27093E-10 -1.15799E-09 -1.14219E-09 -1.24282E-09 -1.04532E-09
  -1.45020E-09 -1.18277E-09 -8.45795E-10 -1.03037E-09 -9.17690E-10 -8.09672E-10 -1.46209E-09 -7.38673E-10 -8.97865E-10 -8.09215E-10
  -1.21168E-09 -6.96839E-10 -9.85335E-10 -6.98471E-10 -7.07099E-10 -4.93520E-10 -1.20233E-09 -7.57228E-10 -9.44877E-10 -3.58251E-10
  -1.21001E-09 -5.74680E-10 -1.05109E-09 -8.64065E-10 -7.57122E-10 -4.38510E-10 -2.31942E-10 -1.08640E-09 -8.13635E-10 -7.29515E-10
   8.33331E-12 -9.24050E-10 -1.02556E-09 -6.03761E-10 -7.46175E-10 -9.79090E-10 -5.17798E-10 -5.46834E-10 -4.14223E-10 -9.66279E-10
  -9.93043E-10 -7.03727E-10 -3.87967E-10 -8.80579E-10 -7.84258E-10 -4.78194E-10 -9.32849E-10 -4.77755E-10 -2.85831E-10 -4.35561E-10
  -6.00981E-10 -5.72500E-10 -3.92958E-10
 NY points of the fit to the data follow
   1.67378E-08  1.52192E-08  1.28195E-08  1.12339E-08  1.09019E-08  1.06785E-08  9.90347E-09  9.10017E-09  8.77781E-09  9.01452E-09
   9.20385E-09  9.08932E-09  9.48020E-09  9.85752E-09  9.96839E-09  9.26524E-09  8.22615E-09  8.11096E-09  8.09151E-09  7.28909E-09
   6.53162E-09  6.43584E-09  6.60724E-09  6.54017E-09  6.50015E-09  6.80371E-09  7.53204E-09  8.00992E-09  7.81631E-09  7.45473E-09
   7.03088E-09  6.71342E-09  6.47000E-09  6.12889E-09  5.73010E-09  5.21100E-09  4.99017E-09  4.59716E-09  4.11374E-09  3.80361E-09
   3.65997E-09  3.27146E-09  2.41403E-09  2.03583E-09  1.99739E-09  2.03655E-09  2.10008E-09  2.15738E-09  2.21049E-09  2.24682E-09
   2.31754E-09  2.43565E-09  2.62155E-09  2.80344E-09  3.04383E-09  3.39077E-09  3.78997E-09  4.28094E-09  5.00794E-09  5.67159E-09
   6.17702E-09  6.57445E-09  6.90377E-09  6.98098E-09  6.79856E-09  6.26303E-09  5.60244E-09  5.25174E-09  4.65443E-09  3.65453E-09
   3.30320E-09  3.35057E-09  3.25839E-09  3.32828E-09  3.69367E-09  4.34093E-09  5.13230E-09  6.28457E-09  7.47101E-09  8.78766E-09
   1.01846E-08  1.12250E-08  1.11443E-08  1.02381E-08  9.31977E-09  8.39261E-09  7.24354E-09  5.87916E-09  3.88536E-09  3.00248E-09
   2.60059E-09  2.37127E-09  2.21921E-09  2.11151E-09  2.02697E-09  1.96028E-09  1.91032E-09  1.87397E-09  1.84319E-09  1.81235E-09
   1.79222E-09  1.78022E-09  1.76928E-09  1.75993E-09  1.75407E-09  1.75125E-09  1.75063E-09  1.75187E-09  1.75457E-09  1.75862E-09
   1.76390E-09  1.77027E-09  1.77764E-09  1.78586E-09  1.79474E-09  1.80413E-09  1.81386E-09  1.82379E-09  1.83377E-09  1.84367E-09
   1.85336E-09  1.86269E-09  1.87156E-09  1.87984E-09  1.88740E-09  1.89414E-09  1.89993E-09  1.90466E-09  1.90822E-09  1.91050E-09
   1.91139E-09  1.91078E-09  1.90857E-09  1.90465E-09  1.89892E-09  1.89128E-09  1.88162E-09  1.86986E-09  1.85589E-09  1.83962E-09
   1.82096E-09  1.79988E-09  1.77637E-09  1.75042E-09  1.72204E-09  1.69123E-09  1.65801E-09  1.62239E-09  1.58441E-09  1.54413E-09
   1.50160E-09  1.45693E-09  1.41024E-09  1.36170E-09  1.31155E-09  1.26010E-09  1.20781E-09  1.15529E-09  1.10344E-09  1.05359E-09
   1.00777E-09  9.69235E-10  9.43545E-10  9.40976E-10  9.83186E-10  1.12635E-09  1.58292E-09  3.03261E-09  5.29364E-09  8.00058E-09
   1.16048E-08  1.54991E-08  1.79237E-08  1.76513E-08  1.55428E-08  1.35855E-08  1.24469E-08  1.02287E-08  5.26840E-09  1.17508E-09
  -6.84053E-12 -5.57688E-10 -9.03486E-10 -1.15836E-09 -1.36466E-09 -1.54148E-09 -1.69856E-09 -1.84130E-09 -1.97285E-09 -2.09512E-09
  -2.20929E-09 -2.31608E-09 -2.41590E-09 -2.50895E-09 -2.59533E-09 -2.67501E-09 -2.74800E-09 -2.81455E-09 -2.87493E-09 -2.92938E-09
  -2.97812E-09 -3.02136E-09 -3.05928E-09 -3.09206E-09 -3.11988E-09 -3.14288E-09 -3.16123E-09 -3.17508E-09 -3.18458E-09 -3.18987E-09
  -3.19109E-09 -3.18838E-09 -3.18189E-09 -3.17174E-09 -3.15807E-09 -3.14103E-09 -3.12072E-09 -3.09730E-09 -3.07088E-09 -3.04160E-09
  -3.00960E-09 -2.97499E-09 -2.93790E-09 -2.89847E-09 -2.85683E-09 -2.81311E-09 -2.76746E-09 -2.72002E-09 -2.67093E-09 -2.62032E-09
  -2.56835E-09 -2.51514E-09 -2.46085E-09 -2.40560E-09 -2.34953E-09 -2.29279E-09 -2.23552E-09 -2.17786E-09 -2.11993E-09 -2.06190E-09
  -2.00389E-09 -1.94603E-09 -1.88848E-09 -1.83138E-09 -1.77484E-09 -1.71902E-09 -1.66405E-09 -1.61008E-09 -1.55725E-09 -1.50569E-09
  -1.45552E-09 -1.40692E-09 -1.35994E-09 -1.31455E-09 -1.27076E-09 -1.22855E-09 -1.18789E-09 -1.14876E-09 -1.11115E-09 -1.07504E-09
  -1.04041E-09 -1.00724E-09 -9.75517E-10 -9.45217E-10 -9.16328E-10 -8.88828E-10 -8.62688E-10 -8.37914E-10 -8.14474E-10 -7.92345E-10
  -7.71509E-10 -7.51960E-10 -7.33664E-10 -7.16610E-10 -7.00787E-10 -6.86156E-10 -6.72723E-10 -6.60454E-10 -6.49338E-10 -6.39347E-10
  -6.30457E-10 -6.22623E-10 -6.15801E-10 -6.09943E-10 -6.05013E-10 -6.00961E-10 -5.97748E-10 -5.95324E-10 -5.93649E-10 -5.92681E-10
  -5.92372E-10 -5.92681E-10 -5.93563E-10 -5.94974E-10 -5.96873E-10 -5.99211E-10 -6.01948E-10 -6.05038E-10 -6.08442E-10 -6.12105E-10
  -6.15998E-10 -6.20066E-10 -6.24267E-10 -6.28565E-10 -6.32907E-10 -6.37252E-10 -6.41559E-10 -6.45780E-10 -6.49903E-10 -6.53922E-10
  -6.57834E-10 -6.61637E-10 -6.65327E-10 -6.68899E-10 -6.72351E-10 -6.75680E-10 -6.78883E-10 -6.81956E-10 -6.84896E-10 -6.87698E-10
  -6.90363E-10 -6.92883E-10 -6.95256E-10 -6.97482E-10 -6.99553E-10 -7.01470E-10 -7.03226E-10 -7.04818E-10 -7.06245E-10 -7.07505E-10
  -7.08588E-10 -7.09498E-10 -7.10226E-10 -7.10774E-10 -7.11136E-10 -7.11308E-10 -7.11298E-10 -7.11114E-10 -7.10762E-10 -7.10251E-10
  -7.09589E-10 -7.08783E-10 -7.07842E-10 -7.06775E-10 -7.05590E-10 -7.04290E-10 -7.02891E-10 -7.01396E-10 -6.99814E-10 -6.98153E-10
  -6.96419E-10 -6.94624E-10 -6.92772E-10 -6.90874E-10 -6.88936E-10 -6.86967E-10 -6.84975E-10 -6.82966E-10 -6.80950E-10 -6.78936E-10
  -6.76931E-10 -6.74944E-10 -6.72978E-10
 NY background values follow
    -3.374E-10   -3.224E-10   -3.073E-10   -2.922E-10   -2.770E-10   -2.618E-10   -2.466E-10   -2.313E-10   -2.161E-10   -2.008E-10
    -1.856E-10   -1.703E-10   -1.552E-10   -1.400E-10   -1.249E-10   -1.099E-10   -9.500E-11   -8.017E-11   -6.543E-11   -5.081E-11
    -3.632E-11   -2.195E-11   -7.740E-12    6.320E-12    2.021E-11    3.393E-11    4.745E-11    6.077E-11    7.389E-11    8.678E-11
     9.946E-11    1.119E-10    1.242E-10    1.363E-10    1.481E-10    1.598E-10    1.713E-10    1.826E-10    1.938E-10    2.047E-10
     2.155E-10    2.262E-10    2.367E-10    2.470E-10    2.572E-10    2.673E-10    2.772E-10    2.870E-10    2.967E-10    3.062E-10
     3.156E-10    3.249E-10    3.342E-10    3.433E-10    3.523E-10    3.612E-10    3.701E-10    3.788E-10    3.875E-10    3.961E-10
     4.047E-10    4.132E-10    4.217E-10    4.302E-10    4.386E-10    4.470E-10    4.554E-10    4.638E-10    4.722E-10    4.806E-10
     4.890E-10    4.975E-10    5.060E-10    5.145E-10    5.231E-10    5.318E-10    5.405E-10    5.493E-10    5.582E-10    5.671E-10
     5.762E-10    5.854E-10    5.947E-10    6.041E-10    6.137E-10    6.233E-10    6.332E-10    6.431E-10    6.532E-10    6.635E-10
     6.739E-10    6.845E-10    6.953E-10    7.062E-10    7.173E-10    7.286E-10    7.400E-10    7.517E-10    7.635E-10    7.756E-10
     7.878E-10    8.002E-10    8.129E-10    8.258E-10    8.388E-10    8.521E-10    8.657E-10    8.794E-10    8.934E-10    9.077E-10
     9.221E-10    9.369E-10    9.518E-10    9.670E-10    9.822E-10    9.975E-10    1.013E-09    1.027E-09    1.042E-09    1.056E-09
     1.070E-09    1.083E-09    1.095E-09    1.106E-09    1.117E-09    1.126E-09    1.135E-09    1.142E-09    1.147E-09    1.152E-09
     1.154E-09    1.155E-09    1.154E-09    1.152E-09    1.147E-09    1.141E-09    1.132E-09    1.121E-09    1.107E-09    1.091E-09
     1.073E-09    1.051E-09    1.028E-09    1.001E-09    9.718E-10    9.398E-10    9.051E-10    8.675E-10    8.272E-10    7.840E-10
     7.380E-10    6.890E-10    6.372E-10    5.823E-10    5.246E-10    4.638E-10    3.999E-10    3.331E-10    2.631E-10    1.900E-10
     1.138E-10    3.448E-11   -4.807E-11   -1.338E-10   -2.228E-10   -3.151E-10   -4.107E-10   -5.096E-10   -6.118E-10   -7.170E-10
    -8.250E-10   -9.354E-10   -1.048E-09   -1.162E-09   -1.278E-09   -1.394E-09   -1.512E-09   -1.630E-09   -1.748E-09   -1.866E-09
    -1.983E-09   -2.100E-09   -2.216E-09   -2.330E-09   -2.442E-09   -2.552E-09   -2.659E-09   -2.764E-09   -2.866E-09   -2.964E-09
    -3.058E-09   -3.149E-09   -3.235E-09   -3.316E-09   -3.393E-09   -3.463E-09   -3.529E-09   -3.589E-09   -3.643E-09   -3.692E-09
    -3.736E-09   -3.775E-09   -3.809E-09   -3.838E-09   -3.862E-09   -3.882E-09   -3.898E-09   -3.909E-09   -3.916E-09   -3.919E-09
    -3.919E-09   -3.914E-09   -3.906E-09   -3.894E-09   -3.879E-09   -3.860E-09   -3.838E-09   -3.813E-09   -3.786E-09   -3.755E-09
    -3.722E-09   -3.686E-09   -3.648E-09   -3.608E-09   -3.565E-09   -3.520E-09   -3.474E-09   -3.426E-09   -3.376E-09   -3.324E-09
    -3.271E-09   -3.218E-09   -3.162E-09   -3.107E-09   -3.050E-09   -2.992E-09   -2.934E-09   -2.876E-09   -2.818E-09   -2.759E-09
    -2.700E-09   -2.642E-09   -2.584E-09   -2.526E-09   -2.469E-09   -2.413E-09   -2.357E-09   -2.303E-09   -2.250E-09   -2.198E-09
    -2.147E-09   -2.098E-09   -2.050E-09   -2.005E-09   -1.960E-09   -1.918E-09   -1.877E-09   -1.837E-09   -1.799E-09   -1.763E-09
    -1.728E-09   -1.694E-09   -1.662E-09   -1.631E-09   -1.602E-09   -1.574E-09   -1.548E-09   -1.522E-09   -1.499E-09   -1.476E-09
    -1.455E-09   -1.435E-09   -1.416E-09   -1.399E-09   -1.383E-09   -1.368E-09   -1.354E-09   -1.342E-09   -1.330E-09   -1.320E-09
    -1.311E-09   -1.302E-09   -1.295E-09   -1.289E-09   -1.284E-09   -1.279E-09   -1.276E-09   -1.273E-09   -1.271E-09   -1.270E-09
    -1.269E-09   -1.269E-09   -1.270E-09   -1.271E-09   -1.273E-09   -1.275E-09   -1.277E-09   -1.280E-09   -1.283E-09   -1.286E-09
    -1.290E-09   -1.294E-09   -1.298E-09   -1.302E-09   -1.306E-09   -1.310E-09   -1.314E-09   -1.318E-09   -1.321E-09   -1.325E-09
    -1.329E-09   -1.332E-09   -1.336E-09   -1.339E-09   -1.342E-09   -1.345E-09   -1.348E-09   -1.351E-09   -1.353E-09   -1.356E-09
    -1.358E-09   -1.360E-09   -1.362E-09   -1.364E-09   -1.366E-09   -1.368E-09   -1.369E-09   -1.371E-09   -1.372E-09   -1.373E-09
    -1.373E-09   -1.374E-09   -1.374E-09   -1.375E-09   -1.375E-09   -1.375E-09   -1.374E-09   -1.374E-09   -1.373E-09   -1.372E-09
    -1.371E-09   -1.370E-09   -1.369E-09   -1.368E-09   -1.366E-09   -1.364E-09   -1.363E-09   -1.361E-09   -1.359E-09   -1.357E-09
    -1.355E-09   -1.353E-09   -1.351E-09   -1.348E-09   -1.346E-09   -1.344E-09   -1.341E-09   -1.339E-09   -1.337E-09   -1.334E-09
    -1.332E-09   -1.330E-09   -1.327E-09
 Gln      Conc. = 2.00E-09
   9.72226E-10  1.35080E-09  1.77302E-09  2.20404E-09  2.59670E-09  2.84769E-09  2.90344E-09  2.74210E-09  2.45179E-09  2.24140E-09
   1.86815E-09  1.24536E-09  1.06123E-09  7.36456E-10  5.09770E-10  4.10873E-10  3.60632E-10  3.33213E-10  3.18488E-10  3.11728E-10
   3.10366E-10  3.12765E-10  3.17808E-10  3.24830E-10  3.33696E-10  3.44386E-10  3.55827E-10  3.67923E-10  3.81093E-10  3.94696E-10
   4.08710E-10  4.23158E-10  4.38047E-10  4.53407E-10  4.69269E-10  4.85675E-10  5.02686E-10  5.20375E-10  5.38828E-10  5.58163E-10
   5.78585E-10  6.00228E-10  6.23477E-10  6.48662E-10  6.76199E-10  7.06679E-10  7.40762E-10  7.78961E-10  8.22980E-10  8.75030E-10
   9.36819E-10  1.01370E-09  1.11455E-09  1.25409E-09  1.46899E-09  1.82261E-09  2.21670E-09  2.72265E-09  3.45553E-09  4.13315E-09
   4.60454E-09  5.01477E-09  5.34916E-09  5.46592E-09  5.20985E-09  4.57311E-09  3.85292E-09  3.53150E-09  2.99452E-09  2.08573E-09
   1.73013E-09  1.74326E-09  1.69639E-09  1.81343E-09  2.11480E-09  2.63706E-09  3.16851E-09  3.65411E-09  4.08457E-09  4.41910E-09
   4.64633E-09  4.73744E-09  4.45680E-09  4.05278E-09  3.83907E-09  3.37607E-09  2.69650E-09  2.41722E-09  2.10978E-09  1.77516E-09
   1.58257E-09  1.45917E-09  1.37524E-09  1.31699E-09  1.27346E-09  1.24033E-09  1.21600E-09  1.19792E-09  1.18442E-09  1.17516E-09
   1.16934E-09  1.16595E-09  1.16461E-09  1.16503E-09  1.16708E-09  1.17077E-09  1.17567E-09  1.18163E-09  1.18856E-09  1.19639E-09
   1.20503E-09  1.21442E-09  1.22450E-09  1.23518E-09  1.24629E-09  1.25771E-09  1.26930E-09  1.28092E-09  1.29246E-09  1.30378E-09
   1.31477E-09  1.32530E-09  1.33525E-09  1.34452E-09  1.35299E-09  1.36054E-09  1.36706E-09  1.37244E-09  1.37657E-09  1.37934E-09
   1.38065E-09  1.38038E-09  1.37843E-09  1.37469E-09  1.36906E-09  1.36143E-09  1.35169E-09  1.33975E-09  1.32549E-09  1.30882E-09
   1.28963E-09  1.26788E-09  1.24355E-09  1.21662E-09  1.18705E-09  1.15484E-09  1.11995E-09  1.08238E-09  1.04210E-09  9.99115E-10
   9.53409E-10  9.04979E-10  8.53834E-10  7.99988E-10  7.43469E-10  6.84324E-10  6.22626E-10  5.58484E-10  4.92067E-10  4.23626E-10
   3.53558E-10  2.82501E-10  2.11537E-10  1.42604E-10  7.95987E-11  3.16379E-11  2.66484E-11  1.98175E-10  6.60080E-10  1.17388E-09
   1.90409E-09  2.80747E-09  3.50770E-09  3.55696E-09  3.01241E-09  2.36651E-09  1.98469E-09  1.56012E-09  4.35377E-10 -9.77478E-10
  -1.42549E-09 -1.66928E-09 -1.85013E-09 -2.00342E-09 -2.14158E-09 -2.26995E-09 -2.39107E-09 -2.50624E-09 -2.61609E-09 -2.72093E-09
  -2.82083E-09 -2.91577E-09 -3.00562E-09 -3.09018E-09 -3.16927E-09 -3.24263E-09 -3.31009E-09 -3.37177E-09 -3.42784E-09 -3.47845E-09
  -3.52374E-09 -3.56388E-09 -3.59899E-09 -3.62921E-09 -3.65470E-09 -3.67556E-09 -3.69195E-09 -3.70398E-09 -3.71181E-09 -3.71554E-09
  -3.71531E-09 -3.71126E-09 -3.70350E-09 -3.69217E-09 -3.67739E-09 -3.65929E-09 -3.63799E-09 -3.61363E-09 -3.58633E-09 -3.55621E-09
  -3.52340E-09 -3.48803E-09 -3.45022E-09 -3.41009E-09 -3.36778E-09 -3.32343E-09 -3.27717E-09 -3.22914E-09 -3.17948E-09 -3.12833E-09
  -3.07583E-09 -3.02211E-09 -2.96733E-09 -2.91161E-09 -2.85508E-09 -2.79790E-09 -2.74019E-09 -2.68211E-09 -2.62377E-09 -2.56534E-09
  -2.50695E-09 -2.44871E-09 -2.39079E-09 -2.33333E-09 -2.27644E-09 -2.22028E-09 -2.16498E-09 -2.11067E-09 -2.05752E-09 -2.00564E-09
  -1.95517E-09 -1.90626E-09 -1.85897E-09 -1.81330E-09 -1.76922E-09 -1.72672E-09 -1.68577E-09 -1.64637E-09 -1.60849E-09 -1.57211E-09
  -1.53722E-09 -1.50378E-09 -1.47180E-09 -1.44125E-09 -1.41210E-09 -1.38436E-09 -1.35797E-09 -1.33295E-09 -1.30927E-09 -1.28690E-09
  -1.26582E-09 -1.24604E-09 -1.22751E-09 -1.21022E-09 -1.19417E-09 -1.17931E-09 -1.16565E-09 -1.15316E-09 -1.14182E-09 -1.13160E-09
  -1.12249E-09 -1.11444E-09 -1.10740E-09 -1.10132E-09 -1.09618E-09 -1.09191E-09 -1.08848E-09 -1.08584E-09 -1.08395E-09 -1.08277E-09
  -1.08225E-09 -1.08235E-09 -1.08302E-09 -1.08423E-09 -1.08591E-09 -1.08804E-09 -1.09057E-09 -1.09345E-09 -1.09665E-09 -1.10011E-09
  -1.10379E-09 -1.10765E-09 -1.11165E-09 -1.11574E-09 -1.11988E-09 -1.12402E-09 -1.12812E-09 -1.13213E-09 -1.13605E-09 -1.13986E-09
  -1.14357E-09 -1.14716E-09 -1.15065E-09 -1.15401E-09 -1.15726E-09 -1.16038E-09 -1.16337E-09 -1.16624E-09 -1.16897E-09 -1.17157E-09
  -1.17402E-09 -1.17633E-09 -1.17850E-09 -1.18051E-09 -1.18238E-09 -1.18408E-09 -1.18563E-09 -1.18701E-09 -1.18822E-09 -1.18927E-09
  -1.19014E-09 -1.19084E-09 -1.19135E-09 -1.19168E-09 -1.19183E-09 -1.19179E-09 -1.19156E-09 -1.19116E-09 -1.19059E-09 -1.18986E-09
  -1.18897E-09 -1.18795E-09 -1.18678E-09 -1.18549E-09 -1.18409E-09 -1.18256E-09 -1.18094E-09 -1.17921E-09 -1.17740E-09 -1.17551E-09
  -1.17355E-09 -1.17152E-09 -1.16944E-09 -1.16731E-09 -1.16514E-09 -1.16294E-09 -1.16071E-09 -1.15846E-09 -1.15621E-09 -1.15395E-09
  -1.15171E-09 -1.14948E-09 -1.14727E-09
 Glu      Conc. = 1.76E-10
  -2.10235E-10 -1.59956E-10 -1.07018E-10 -5.90608E-11 -1.85683E-11  1.07917E-11  2.53850E-11  2.01661E-11  1.98032E-12 -6.55810E-12
  -3.71209E-11 -5.84312E-11 -6.34891E-11 -8.14892E-11 -8.08248E-11 -7.32799E-11 -6.28536E-11 -5.10206E-11 -3.84753E-11 -2.54686E-11
  -1.21862E-11  1.27675E-12  1.48542E-11  2.84112E-11  4.19245E-11  5.53571E-11  6.86842E-11  8.18707E-11  9.49031E-11  1.07774E-10
   1.20476E-10  1.33016E-10  1.45397E-10  1.57620E-10  1.69692E-10  1.81618E-10  1.93405E-10  2.05060E-10  2.16592E-10  2.28013E-10
   2.39330E-10  2.50559E-10  2.61711E-10  2.72806E-10  2.83858E-10  2.94892E-10  3.05928E-10  3.17002E-10  3.28152E-10  3.39434E-10
   3.50909E-10  3.62695E-10  3.74912E-10  3.87734E-10  4.01424E-10  4.16452E-10  4.33660E-10  4.54792E-10  4.84833E-10  5.25033E-10
   5.69406E-10  6.32184E-10  7.12600E-10  7.82525E-10  8.47380E-10  9.09959E-10  9.60260E-10  9.82643E-10  9.65555E-10  9.15163E-10
   8.70883E-10  8.45421E-10  7.85005E-10  7.31436E-10  7.41291E-10  7.50500E-10  7.74643E-10  8.23994E-10  8.68814E-10  9.07625E-10
   9.33810E-10  9.48210E-10  9.52145E-10  9.30979E-10  9.00081E-10  8.74199E-10  8.44878E-10  8.18431E-10  7.89869E-10  7.78270E-10
   7.66181E-10  7.62550E-10  7.62808E-10  7.63105E-10  7.68025E-10  7.74775E-10  7.81202E-10  7.89114E-10  7.98055E-10  8.07704E-10
   8.17924E-10  8.28655E-10  8.39855E-10  8.51495E-10  8.63499E-10  8.75850E-10  8.88536E-10  9.01544E-10  9.14866E-10  9.28494E-10
   9.42426E-10  9.56655E-10  9.71175E-10  9.85925E-10  1.00080E-09  1.01569E-09  1.03048E-09  1.04508E-09  1.05938E-09  1.07328E-09
   1.08666E-09  1.09942E-09  1.11147E-09  1.12269E-09  1.13298E-09  1.14225E-09  1.15037E-09  1.15726E-09  1.16281E-09  1.16691E-09
   1.16946E-09  1.17035E-09  1.16950E-09  1.16678E-09  1.16210E-09  1.15536E-09  1.14644E-09  1.13526E-09  1.12171E-09  1.10568E-09
   1.08707E-09  1.06584E-09  1.04196E-09  1.01541E-09  9.86157E-10  9.54174E-10  9.19438E-10  8.81922E-10  8.41602E-10  7.98451E-10
   7.52447E-10  7.03564E-10  6.51779E-10  5.97071E-10  5.39419E-10  4.78802E-10  4.15209E-10  3.48624E-10  2.79048E-10  2.06484E-10
   1.30958E-10  5.25312E-11 -2.86669E-11 -1.12375E-10 -1.97942E-10 -2.83447E-10 -3.60178E-10 -4.08767E-10 -4.57887E-10 -4.91163E-10
  -5.07409E-10 -5.36377E-10 -6.24230E-10 -7.73392E-10 -9.40496E-10 -1.08361E-09 -1.22069E-09 -1.41748E-09 -1.66759E-09 -1.81988E-09
  -1.94960E-09 -2.07229E-09 -2.19132E-09 -2.30762E-09 -2.42140E-09 -2.53262E-09 -2.64110E-09 -2.74661E-09 -2.84887E-09 -2.94760E-09
  -3.04250E-09 -3.13326E-09 -3.21959E-09 -3.30115E-09 -3.37763E-09 -3.44872E-09 -3.51419E-09 -3.57410E-09 -3.62860E-09 -3.67779E-09
  -3.72181E-09 -3.76079E-09 -3.79484E-09 -3.82411E-09 -3.84870E-09 -3.86874E-09 -3.88437E-09 -3.89571E-09 -3.90287E-09 -3.90599E-09
  -3.90519E-09 -3.90059E-09 -3.89232E-09 -3.88051E-09 -3.86527E-09 -3.84674E-09 -3.82504E-09 -3.80028E-09 -3.77261E-09 -3.74214E-09
  -3.70899E-09 -3.67329E-09 -3.63516E-09 -3.59474E-09 -3.55214E-09 -3.50752E-09 -3.46099E-09 -3.41270E-09 -3.36279E-09 -3.31140E-09
