 LCModel (Version 6.3-1R) Copyright: S.W. Provencher.          Ref.: Magn. Reson. Med. 30:672-679 (1993).                
 onepulse 19x28_ftSpec_smooth_lcm
 26 lines in following concentration table = NCONC+1
    Conc.  %SD   /Cr    Metabolite                                         
    0.000 999%   0.000 Ala                                                 
    0.000 999%   0.000 Asp                                                 
    0.000 999%   0.000 Cr                                                  
    0.000 999%   0.000 GABA                                                
    0.000 999%   0.000 Glc                                                 
    0.000 999%   0.000 Gln                                                 
 2.81E-11 999%   0.000 Glu                                                 
    0.000 999%   0.000 Glyc                                                
    0.000 999%   0.000 GPC                                                 
 3.15E-10 138%   0.000 GSH                                                 
    0.000 999%   0.000 Ins                                                 
    0.000 999%   0.000 Lac                                                 
    0.000 999%   0.000 NAAG                                                
    0.000 999%   0.000 NAA                                                 
    0.000 999%   0.000 PCh                                                 
    0.000 999%   0.000 PCr                                                 
    0.000 999%   0.000 PE                                                  
    0.000 999%   0.000 Scyllo                                              
    0.000 999%   0.000 Ser                                                 
    0.000 999%   0.000 Tau                                                 
    0.000 999%   0.000 GPC+PCh                                             
    0.000 999%   0.000 NAA+NAAG                                            
    0.000 999%   0.000 Ins+Glyc                                            
    0.000 999%   0.000 Cr+PCr                                              
 2.81E-11 999%   0.000 Glu+Gln                                             
   6 lines in following misc. output table
  FWHM = 0.078 ppm    S/N =   0                                            
  Data shift = 0.168 ppm                                                   
  Ph:-174 deg      -0.5 deg/ppm                                            
  alphaB,S = 1.3E+00,   1.4E+01                                            
    8 spline knots.   Ns = 5(1)                                            
  ( 6) 2 infls.   ( 6) 1 extrs.                                            
  363 points on ppm-axis = NY
      4.250000     4.238821     4.227641     4.216462     4.205282     4.194103     4.182923     4.171744     4.160564     4.149385
      4.138206     4.127026     4.115847     4.104667     4.093488     4.082308     4.071129     4.059949     4.048770     4.037591
      4.026411     4.015232     4.004052     3.992873     3.981693     3.970514     3.959334     3.948155     3.936975     3.925796
      3.914617     3.903437     3.892258     3.881078     3.869899     3.858719     3.847540     3.836360     3.825181     3.814002
      3.802822     3.791643     3.780463     3.769284     3.758104     3.746925     3.735745     3.724566     3.713387     3.702207
      3.691028     3.679848     3.668669     3.657489     3.646310     3.635130     3.623951     3.612772     3.601592     3.590413
      3.579233     3.568054     3.556874     3.545695     3.534515     3.523336     3.512156     3.500977     3.489798     3.478618
      3.467439     3.456259     3.445080     3.433900     3.422721     3.411541     3.400362     3.389183     3.378003     3.366824
      3.355644     3.344465     3.333285     3.322106     3.310926     3.299747     3.288568     3.277388     3.266209     3.255029
      3.243850     3.232670     3.221491     3.210311     3.199132     3.187953     3.176773     3.165594     3.154414     3.143235
      3.132055     3.120876     3.109696     3.098517     3.087337     3.076158     3.064979     3.053799     3.042620     3.031440
      3.020261     3.009081     2.997902     2.986722     2.975543     2.964364     2.953184     2.942005     2.930825     2.919646
      2.908466     2.897287     2.886107     2.874928     2.863749     2.852569     2.841390     2.830210     2.819031     2.807851
      2.796672     2.785492     2.774313     2.763134     2.751954     2.740775     2.729595     2.718416     2.707236     2.696057
      2.684877     2.673698     2.662519     2.651339     2.640160     2.628980     2.617801     2.606621     2.595442     2.584262
      2.573083     2.561903     2.550724     2.539545     2.528365     2.517186     2.506006     2.494827     2.483647     2.472468
      2.461288     2.450109     2.438930     2.427750     2.416571     2.405391     2.394212     2.383032     2.371853     2.360673
      2.349494     2.338315     2.327135     2.315956     2.304776     2.293597     2.282417     2.271238     2.260058     2.248879
      2.237700     2.226520     2.215341     2.204161     2.192982     2.181802     2.170623     2.159443     2.148264     2.137084
      2.125905     2.114726     2.103546     2.092367     2.081187     2.070008     2.058828     2.047649     2.036469     2.025290
      2.014111     2.002931     1.991752     1.980572     1.969393     1.958213     1.947034     1.935854     1.924675     1.913496
      1.902316     1.891137     1.879957     1.868778     1.857598     1.846419     1.835239     1.824060     1.812881     1.801701
      1.790522     1.779342     1.768163     1.756983     1.745804     1.734624     1.723445     1.712265     1.701086     1.689907
      1.678727     1.667548     1.656368     1.645189     1.634009     1.622830     1.611650     1.600471     1.589292     1.578112
      1.566933     1.555753     1.544574     1.533394     1.522215     1.511035     1.499856     1.488677     1.477497     1.466318
      1.455138     1.443959     1.432779     1.421600     1.410420     1.399241     1.388062     1.376882     1.365703     1.354523
      1.343344     1.332164     1.320985     1.309805     1.298626     1.287446     1.276267     1.265088     1.253908     1.242729
      1.231549     1.220370     1.209190     1.198011     1.186831     1.175652     1.164473     1.153293     1.142114     1.130934
      1.119755     1.108575     1.097396     1.086216     1.075037     1.063858     1.052678     1.041499     1.030319     1.019140
      1.007960     0.996781     0.985601     0.974422     0.963243     0.952063     0.940884     0.929704     0.918525     0.907345
      0.896166     0.884986     0.873807     0.862628     0.851448     0.840269     0.829089     0.817910     0.806730     0.795551
      0.784371     0.773192     0.762012     0.750833     0.739654     0.728474     0.717295     0.706115     0.694936     0.683756
      0.672577     0.661397     0.650218     0.639039     0.627859     0.616680     0.605500     0.594321     0.583141     0.571962
      0.560782     0.549603     0.538424     0.527244     0.516065     0.504885     0.493706     0.482526     0.471347     0.460167
      0.448988     0.437809     0.426629     0.415450     0.404270     0.393091     0.381911     0.370732     0.359552     0.348373
      0.337193     0.326014     0.314835     0.303655     0.292476     0.281296     0.270117     0.258937     0.247758     0.236578
      0.225399     0.214220     0.203040
 NY phased data points follow
  -1.06152E-08 -1.10741E-08 -1.11202E-08 -1.23294E-08 -1.19806E-08 -1.24235E-08 -1.18274E-08 -1.17342E-08 -1.08571E-08 -1.12306E-08
  -1.05214E-08 -1.10818E-08 -1.10194E-08 -1.29196E-08 -1.42755E-08 -1.71520E-08 -1.90906E-08 -2.07346E-08 -1.89907E-08 -1.82454E-08
  -1.53623E-08 -1.54456E-08 -1.40494E-08 -1.39933E-08 -1.32113E-08 -1.37168E-08 -1.31444E-08 -1.45207E-08 -1.40818E-08 -1.51429E-08
  -1.45135E-08 -1.54692E-08 -1.48741E-08 -1.45189E-08 -1.42463E-08 -1.43498E-08 -1.38708E-08 -1.31099E-08 -1.21260E-08 -1.28031E-08
  -1.22793E-08 -1.36376E-08 -1.32788E-08 -1.34782E-08 -1.19500E-08 -1.18967E-08 -1.12422E-08 -1.35296E-08 -1.40844E-08 -1.58608E-08
  -1.47236E-08 -1.40948E-08 -1.21306E-08 -1.11340E-08 -1.05469E-08 -1.07451E-08 -9.37495E-09 -1.00907E-08 -9.27952E-09 -9.66353E-09
  -8.99860E-09 -8.91332E-09 -7.99195E-09 -7.81302E-09 -7.24016E-09 -7.36244E-09 -7.34265E-09 -7.65070E-09 -7.66168E-09 -8.01586E-09
  -7.16363E-09 -6.96534E-09 -6.31330E-09 -7.19427E-09 -6.77727E-09 -7.66673E-09 -6.98427E-09 -7.62504E-09 -8.88706E-09 -1.06342E-08
  -1.25428E-08 -1.27372E-08 -1.06547E-08 -1.04392E-08 -8.83648E-09 -8.20772E-09 -7.59411E-09 -7.20980E-09 -6.24283E-09 -6.54453E-09
  -6.08959E-09 -6.22945E-09 -5.73525E-09 -6.04108E-09 -7.64576E-09 -1.18255E-08 -1.54007E-08 -1.78582E-08 -1.60951E-08 -1.39133E-08
  -1.23602E-08 -1.18521E-08 -1.05805E-08 -1.02237E-08 -8.88060E-09 -9.24974E-09 -8.82176E-09 -8.47231E-09 -7.36309E-09 -7.19097E-09
  -6.58393E-09 -6.64180E-09 -5.56502E-09 -5.61509E-09 -4.67314E-09 -4.98313E-09 -4.37659E-09 -4.53346E-09 -4.83832E-09 -4.91303E-09
  -4.01261E-09 -4.58845E-09 -4.07814E-09 -4.50447E-09 -3.52035E-09 -2.39576E-09 -2.18730E-09 -1.93483E-09 -1.58076E-09 -2.83743E-09
  -2.44877E-09 -3.04829E-09 -2.58631E-09 -3.04881E-09 -3.02299E-09 -3.08244E-09 -3.42158E-09 -3.77965E-09 -3.25954E-09 -2.48192E-09
  -1.69072E-09 -1.22700E-09 -7.87815E-10 -1.52934E-09 -1.25078E-09 -1.87942E-09 -1.74961E-09 -2.04199E-09 -1.97920E-09 -2.32494E-09
  -2.27162E-09 -2.42460E-09 -2.13550E-09 -1.96287E-09 -2.29012E-09 -4.05566E-09 -4.63820E-09 -5.58506E-09 -4.99056E-09 -5.32981E-09
  -4.63828E-09 -5.59502E-09 -5.62171E-09 -6.07000E-09 -5.96906E-09 -5.35485E-09 -5.11375E-09 -5.27921E-09 -4.47639E-09 -3.87809E-09
  -3.80451E-09 -4.45802E-09 -3.94417E-09 -3.93052E-09 -4.10070E-09 -4.02134E-09 -3.48923E-09 -3.80034E-09 -4.46262E-09 -4.27976E-09
  -4.01917E-09 -4.40481E-09 -4.43853E-09 -4.85886E-09 -4.90958E-09 -6.75963E-09 -9.42063E-09 -1.47147E-08 -1.66930E-08 -1.48593E-08
  -1.15533E-08 -8.90584E-09 -7.08231E-09 -5.83191E-09 -3.96405E-09 -2.53638E-09 -1.76474E-09 -3.49428E-10  1.14554E-09  2.59366E-09
   3.95396E-09  5.22463E-09  7.18480E-09  9.26577E-09  1.08264E-08  1.30922E-08  1.46320E-08  1.63312E-08  1.90952E-08  2.04443E-08
   2.21876E-08  2.36952E-08  2.48819E-08  2.50962E-08  2.58585E-08  2.51649E-08  2.45811E-08  2.31567E-08  2.15063E-08  1.91381E-08
   1.67860E-08  1.41479E-08  1.14135E-08  8.79232E-09  5.90272E-09  3.63593E-09  2.34835E-09  5.35240E-10  4.91825E-10 -2.86267E-10
  -2.11832E-11 -2.72294E-10  9.92124E-10  1.17496E-09  1.84158E-09  2.19125E-09  2.30482E-09  1.88999E-09  2.15689E-09  1.67594E-09
   1.24405E-09  9.75347E-10  1.62913E-09  1.24380E-09  1.90497E-09  1.72555E-09  2.00414E-09  1.95742E-09  2.15153E-09  1.85946E-09
   1.51629E-09  1.23792E-09  1.05766E-09  6.98781E-10  1.65091E-09  9.11365E-10  2.12131E-09  1.44667E-09  1.80687E-09  1.30889E-09
   1.28926E-09  1.10401E-09  1.41170E-09  9.99267E-10  9.39818E-10  4.74532E-10  6.60588E-10  6.80666E-10  4.70957E-10  4.17204E-10
   3.66444E-10  6.56956E-10  7.14671E-10  5.76505E-10  1.08013E-09  1.28786E-09  1.65770E-09  1.27619E-09  1.60375E-09  1.61674E-09
   1.58928E-09  1.36668E-09  1.34494E-09  1.02924E-09  5.09696E-10 -2.64994E-10 -3.55471E-10 -8.73358E-10 -4.47326E-10 -6.08721E-10
  -4.33882E-10 -1.01009E-09 -7.13831E-10 -4.05526E-10 -1.24371E-10 -2.48011E-10  1.16083E-10  3.23850E-10  7.44459E-10  9.00070E-10
   9.85480E-10  1.11114E-09  1.00785E-09  8.37161E-10  1.27157E-09  9.91324E-10  1.45835E-09  9.38096E-10  1.11118E-09  8.41517E-10
   6.01463E-10  1.01609E-09  1.15362E-09  7.65985E-10  1.39569E-09  9.04395E-10  3.38922E-10  6.87335E-10  6.98297E-10  6.62132E-10
   6.15488E-10  4.60462E-10  8.35823E-10  5.12975E-10  1.05241E-09  2.22708E-10  4.53426E-10  3.06937E-10  5.21490E-10  1.60023E-10
  -1.69367E-10  2.56379E-10 -1.51006E-10 -2.17183E-10 -9.62277E-11 -4.51561E-11 -1.87328E-10 -7.53637E-10 -7.30590E-11 -4.63907E-10
  -6.51220E-10 -4.49105E-10 -1.15139E-10 -4.23523E-10 -6.66651E-10 -1.03043E-09 -1.74635E-10 -9.12745E-10 -3.49793E-10 -9.18867E-10
  -5.37433E-10 -1.11367E-09 -2.25186E-10 -8.63529E-10 -5.47349E-10 -7.54403E-10 -1.08035E-09 -6.14606E-10 -1.00567E-09 -1.05999E-09
  -9.45996E-10 -1.18709E-09 -1.08473E-09
 NY points of the fit to the data follow
  -1.46887E-08 -1.42168E-08 -1.38607E-08 -1.36564E-08 -1.36029E-08 -1.36749E-08 -1.38394E-08 -1.40646E-08 -1.43140E-08 -1.45353E-08
  -1.46378E-08 -1.46575E-08 -1.46488E-08 -1.46144E-08 -1.45661E-08 -1.45099E-08 -1.44487E-08 -1.43841E-08 -1.43170E-08 -1.42481E-08
  -1.41776E-08 -1.41059E-08 -1.40331E-08 -1.39593E-08 -1.38846E-08 -1.38089E-08 -1.37321E-08 -1.36539E-08 -1.35731E-08 -1.34890E-08
  -1.34009E-08 -1.33069E-08 -1.32035E-08 -1.30703E-08 -1.28661E-08 -1.26247E-08 -1.23493E-08 -1.20648E-08 -1.18125E-08 -1.16231E-08
  -1.15119E-08 -1.14766E-08 -1.15028E-08 -1.15708E-08 -1.16547E-08 -1.17212E-08 -1.17486E-08 -1.17566E-08 -1.17167E-08 -1.16387E-08
  -1.15229E-08 -1.13744E-08 -1.12190E-08 -1.10454E-08 -1.08569E-08 -1.06883E-08 -1.05495E-08 -1.04462E-08 -1.03797E-08 -1.03460E-08
  -1.03378E-08 -1.03405E-08 -1.03364E-08 -1.03283E-08 -1.03146E-08 -1.02708E-08 -1.02077E-08 -1.01399E-08 -1.00626E-08 -9.96362E-09
  -9.83960E-09 -9.71199E-09 -9.56382E-09 -9.39531E-09 -9.22760E-09 -9.06886E-09 -8.92758E-09 -8.81060E-09 -8.72358E-09 -8.66818E-09
  -8.64009E-09 -8.62059E-09 -8.60966E-09 -8.60714E-09 -8.58411E-09 -8.54969E-09 -8.51041E-09 -8.45630E-09 -8.39249E-09 -8.32230E-09
  -8.24805E-09 -8.17071E-09 -8.09110E-09 -8.00982E-09 -7.92705E-09 -7.84316E-09 -7.75841E-09 -7.67284E-09 -7.58656E-09 -7.49967E-09
  -7.41224E-09 -7.32434E-09 -7.23601E-09 -7.14729E-09 -7.05817E-09 -6.96871E-09 -6.87891E-09 -6.78883E-09 -6.69844E-09 -6.60770E-09
  -6.51676E-09 -6.42551E-09 -6.33399E-09 -6.24220E-09 -6.15017E-09 -6.05789E-09 -5.96537E-09 -5.87261E-09 -5.77959E-09 -5.68638E-09
  -5.59288E-09 -5.49918E-09 -5.40523E-09 -5.31106E-09 -5.21667E-09 -5.12204E-09 -5.02714E-09 -4.93208E-09 -4.83676E-09 -4.74121E-09
  -4.64544E-09 -4.54942E-09 -4.45321E-09 -4.35676E-09 -4.26008E-09 -4.16313E-09 -4.06603E-09 -3.96866E-09 -3.87107E-09 -3.77322E-09
  -3.67516E-09 -3.57687E-09 -3.47836E-09 -3.37958E-09 -3.28058E-09 -3.18135E-09 -3.08188E-09 -2.98221E-09 -2.88237E-09 -2.78238E-09
  -2.68226E-09 -2.58206E-09 -2.48178E-09 -2.38146E-09 -2.28111E-09 -2.18075E-09 -2.08039E-09 -1.98003E-09 -1.87966E-09 -1.77923E-09
  -1.67865E-09 -1.57778E-09 -1.47627E-09 -1.37344E-09 -1.26760E-09 -1.15367E-09 -1.00833E-09 -7.70443E-10 -4.77223E-10 -1.87969E-10
   4.76103E-11  2.06458E-10  2.89598E-10  3.11966E-10  2.92585E-10  2.46670E-10  1.87419E-10  1.35623E-10  1.26158E-10  1.84061E-10
   2.58648E-10  3.38477E-10  4.20348E-10  5.02909E-10  5.85542E-10  6.67886E-10  7.49698E-10  8.30783E-10  9.11109E-10  9.90546E-10
   1.06899E-09  1.14644E-09  1.22281E-09  1.29807E-09  1.37214E-09  1.44501E-09  1.51666E-09  1.58699E-09  1.65599E-09  1.72367E-09
   1.78995E-09  1.85481E-09  1.91820E-09  1.98011E-09  2.04052E-09  2.09935E-09  2.15660E-09  2.21224E-09  2.26626E-09  2.31855E-09
   2.36919E-09  2.41805E-09  2.46515E-09  2.51045E-09  2.55394E-09  2.59554E-09  2.63525E-09  2.67307E-09  2.70890E-09  2.74281E-09
   2.77480E-09  2.80491E-09  2.83316E-09  2.85957E-09  2.88417E-09  2.90699E-09  2.92805E-09  2.94738E-09  2.96500E-09  2.98094E-09
   2.99523E-09  3.00789E-09  3.01895E-09  3.02843E-09  3.03637E-09  3.04278E-09  3.04770E-09  3.05114E-09  3.05314E-09  3.05371E-09
   3.05289E-09  3.05072E-09  3.04720E-09  3.04236E-09  3.03623E-09  3.02884E-09  3.02022E-09  3.01039E-09  2.99937E-09  2.98719E-09
   2.97389E-09  2.95948E-09  2.94400E-09  2.92745E-09  2.90988E-09  2.89131E-09  2.87177E-09  2.85128E-09  2.82987E-09  2.80755E-09
   2.78437E-09  2.76036E-09  2.73552E-09  2.70990E-09  2.68350E-09  2.65637E-09  2.62854E-09  2.60001E-09  2.57082E-09  2.54101E-09
   2.51058E-09  2.47957E-09  2.44801E-09  2.41592E-09  2.38333E-09  2.35026E-09  2.31674E-09  2.28281E-09  2.24846E-09  2.21375E-09
   2.17870E-09  2.14333E-09  2.10767E-09  2.07173E-09  2.03556E-09  1.99918E-09  1.96261E-09  1.92587E-09  1.88900E-09  1.85202E-09
   1.81495E-09  1.77782E-09  1.74062E-09  1.70336E-09  1.66603E-09  1.62864E-09  1.59118E-09  1.55367E-09  1.51610E-09  1.47846E-09
   1.44077E-09  1.40302E-09  1.36522E-09  1.32736E-09  1.28945E-09  1.25148E-09  1.21346E-09  1.17540E-09  1.13728E-09  1.09911E-09
   1.06089E-09  1.02263E-09  9.84327E-10  9.45972E-10  9.07577E-10  8.69137E-10  8.30660E-10  7.92136E-10  7.53575E-10  7.14978E-10
   6.76346E-10  6.37666E-10  5.98959E-10  5.60220E-10  5.21442E-10  4.82625E-10  4.43791E-10  4.04919E-10  3.66025E-10  3.27093E-10
   2.88142E-10  2.49162E-10  2.10152E-10  1.71118E-10  1.32068E-10  9.29915E-11  5.38984E-11  1.47789E-11 -2.43489E-11 -6.35133E-11
  -1.02677E-10 -1.41870E-10 -1.81067E-10 -2.20279E-10 -2.59522E-10 -2.98755E-10 -3.38010E-10 -3.77267E-10 -4.16542E-10 -4.55818E-10
  -4.95100E-10 -5.34394E-10 -5.73688E-10 -6.12992E-10 -6.52291E-10 -6.91600E-10 -7.30897E-10 -7.70204E-10 -8.09509E-10 -8.48808E-10
  -8.88110E-10 -9.27405E-10 -9.66685E-10
 NY background values follow
    -1.582E-08   -1.574E-08   -1.567E-08   -1.559E-08   -1.551E-08   -1.544E-08   -1.536E-08   -1.529E-08   -1.521E-08   -1.513E-08
    -1.506E-08   -1.498E-08   -1.490E-08   -1.483E-08   -1.475E-08   -1.467E-08   -1.460E-08   -1.452E-08   -1.444E-08   -1.436E-08
    -1.428E-08   -1.421E-08   -1.413E-08   -1.405E-08   -1.397E-08   -1.389E-08   -1.381E-08   -1.373E-08   -1.365E-08   -1.357E-08
    -1.349E-08   -1.341E-08   -1.333E-08   -1.325E-08   -1.317E-08   -1.309E-08   -1.301E-08   -1.293E-08   -1.285E-08   -1.277E-08
    -1.269E-08   -1.260E-08   -1.252E-08   -1.244E-08   -1.236E-08   -1.228E-08   -1.219E-08   -1.211E-08   -1.203E-08   -1.194E-08
    -1.186E-08   -1.178E-08   -1.170E-08   -1.161E-08   -1.153E-08   -1.144E-08   -1.136E-08   -1.128E-08   -1.119E-08   -1.111E-08
    -1.102E-08   -1.094E-08   -1.085E-08   -1.077E-08   -1.068E-08   -1.060E-08   -1.051E-08   -1.043E-08   -1.034E-08   -1.026E-08
    -1.017E-08   -1.008E-08   -9.997E-09   -9.911E-09   -9.824E-09   -9.738E-09   -9.651E-09   -9.564E-09   -9.477E-09   -9.389E-09
    -9.302E-09   -9.214E-09   -9.127E-09   -9.039E-09   -8.951E-09   -8.862E-09   -8.774E-09   -8.685E-09   -8.597E-09   -8.508E-09
    -8.419E-09   -8.330E-09   -8.240E-09   -8.151E-09   -8.061E-09   -7.971E-09   -7.881E-09   -7.791E-09   -7.701E-09   -7.610E-09
    -7.520E-09   -7.429E-09   -7.338E-09   -7.247E-09   -7.155E-09   -7.064E-09   -6.972E-09   -6.880E-09   -6.788E-09   -6.696E-09
    -6.603E-09   -6.511E-09   -6.418E-09   -6.325E-09   -6.232E-09   -6.138E-09   -6.045E-09   -5.951E-09   -5.857E-09   -5.763E-09
    -5.668E-09   -5.574E-09   -5.479E-09   -5.384E-09   -5.289E-09   -5.193E-09   -5.098E-09   -5.002E-09   -4.906E-09   -4.810E-09
    -4.714E-09   -4.617E-09   -4.520E-09   -4.423E-09   -4.326E-09   -4.229E-09   -4.131E-09   -4.033E-09   -3.935E-09   -3.837E-09
    -3.738E-09   -3.640E-09   -3.541E-09   -3.441E-09   -3.342E-09   -3.242E-09   -3.143E-09   -3.043E-09   -2.942E-09   -2.842E-09
    -2.742E-09   -2.641E-09   -2.541E-09   -2.440E-09   -2.340E-09   -2.239E-09   -2.139E-09   -2.039E-09   -1.939E-09   -1.839E-09
    -1.739E-09   -1.640E-09   -1.540E-09   -1.441E-09   -1.343E-09   -1.245E-09   -1.147E-09   -1.049E-09   -9.524E-10   -8.559E-10
    -7.599E-10   -6.644E-10   -5.695E-10   -4.752E-10   -3.816E-10   -2.886E-10   -1.963E-10   -1.047E-10   -1.385E-11    7.622E-11
     1.655E-10    2.539E-10    3.414E-10    4.280E-10    5.137E-10    5.985E-10    6.822E-10    7.649E-10    8.466E-10    9.272E-10
     1.007E-09    1.085E-09    1.162E-09    1.238E-09    1.313E-09    1.386E-09    1.458E-09    1.529E-09    1.599E-09    1.667E-09
     1.733E-09    1.799E-09    1.862E-09    1.925E-09    1.985E-09    2.045E-09    2.102E-09    2.158E-09    2.212E-09    2.265E-09
     2.316E-09    2.365E-09    2.412E-09    2.458E-09    2.501E-09    2.543E-09    2.583E-09    2.621E-09    2.657E-09    2.691E-09
     2.723E-09    2.754E-09    2.782E-09    2.809E-09    2.833E-09    2.856E-09    2.877E-09    2.897E-09    2.915E-09    2.931E-09
     2.945E-09    2.958E-09    2.969E-09    2.979E-09    2.987E-09    2.993E-09    2.998E-09    3.002E-09    3.004E-09    3.005E-09
     3.004E-09    3.002E-09    2.999E-09    2.994E-09    2.988E-09    2.981E-09    2.972E-09    2.962E-09    2.951E-09    2.939E-09
     2.926E-09    2.912E-09    2.896E-09    2.880E-09    2.862E-09    2.844E-09    2.825E-09    2.804E-09    2.783E-09    2.761E-09
     2.738E-09    2.714E-09    2.689E-09    2.663E-09    2.637E-09    2.610E-09    2.582E-09    2.554E-09    2.525E-09    2.495E-09
     2.465E-09    2.434E-09    2.402E-09    2.370E-09    2.338E-09    2.305E-09    2.271E-09    2.237E-09    2.203E-09    2.168E-09
     2.133E-09    2.098E-09    2.062E-09    2.027E-09    1.990E-09    1.954E-09    1.918E-09    1.881E-09    1.844E-09    1.807E-09
     1.770E-09    1.733E-09    1.696E-09    1.659E-09    1.622E-09    1.584E-09    1.547E-09    1.509E-09    1.472E-09    1.434E-09
     1.397E-09    1.359E-09    1.321E-09    1.283E-09    1.246E-09    1.208E-09    1.170E-09    1.132E-09    1.094E-09    1.055E-09
     1.017E-09    9.791E-10    9.408E-10    9.025E-10    8.642E-10    8.258E-10    7.874E-10    7.489E-10    7.104E-10    6.718E-10
     6.333E-10    5.946E-10    5.560E-10    5.173E-10    4.785E-10    4.398E-10    4.010E-10    3.622E-10    3.233E-10    2.844E-10
     2.455E-10    2.066E-10    1.676E-10    1.286E-10    8.962E-11    5.059E-11    1.154E-11   -2.753E-11   -6.662E-11   -1.057E-10
    -1.449E-10   -1.840E-10   -2.232E-10   -2.623E-10   -3.015E-10   -3.407E-10   -3.799E-10   -4.192E-10   -4.584E-10   -4.976E-10
    -5.369E-10   -5.761E-10   -6.154E-10   -6.546E-10   -6.939E-10   -7.332E-10   -7.724E-10   -8.117E-10   -8.510E-10   -8.902E-10
    -9.295E-10   -9.687E-10   -1.008E-09
 Glu      Conc. = 2.81E-11
  -1.57974E-08 -1.57157E-08 -1.56336E-08 -1.55523E-08 -1.54728E-08 -1.53959E-08 -1.53216E-08 -1.52495E-08 -1.51786E-08 -1.51079E-08
  -1.50374E-08 -1.49659E-08 -1.48928E-08 -1.48189E-08 -1.47435E-08 -1.46672E-08 -1.45905E-08 -1.45134E-08 -1.44360E-08 -1.43583E-08
  -1.42805E-08 -1.42023E-08 -1.41240E-08 -1.40455E-08 -1.39668E-08 -1.38879E-08 -1.38088E-08 -1.37295E-08 -1.36501E-08 -1.35705E-08
  -1.34907E-08 -1.34108E-08 -1.33306E-08 -1.32504E-08 -1.31699E-08 -1.30893E-08 -1.30085E-08 -1.29275E-08 -1.28464E-08 -1.27651E-08
  -1.26837E-08 -1.26020E-08 -1.25203E-08 -1.24383E-08 -1.23561E-08 -1.22738E-08 -1.21914E-08 -1.21087E-08 -1.20259E-08 -1.19429E-08
  -1.18597E-08 -1.17763E-08 -1.16927E-08 -1.16088E-08 -1.15246E-08 -1.14400E-08 -1.13549E-08 -1.12690E-08 -1.11810E-08 -1.10901E-08
  -1.09977E-08 -1.09037E-08 -1.08066E-08 -1.07090E-08 -1.06130E-08 -1.05197E-08 -1.04307E-08 -1.03466E-08 -1.02670E-08 -1.01905E-08
  -1.01146E-08 -1.00382E-08 -9.96035E-09 -9.87801E-09 -9.79056E-09 -9.70036E-09 -9.60799E-09 -9.51409E-09 -9.42091E-09 -9.32944E-09
  -9.24036E-09 -9.15392E-09 -9.06969E-09 -8.98723E-09 -8.90549E-09 -8.82363E-09 -8.74142E-09 -8.65831E-09 -8.57419E-09 -8.48872E-09
  -8.40247E-09 -8.31541E-09 -8.22771E-09 -8.13961E-09 -8.05100E-09 -7.96205E-09 -7.87283E-09 -7.78330E-09 -7.69349E-09 -7.60344E-09
  -7.51315E-09 -7.42264E-09 -7.33191E-09 -7.24100E-09 -7.14985E-09 -7.05851E-09 -6.96696E-09 -6.87525E-09 -6.78333E-09 -6.69116E-09
  -6.59887E-09 -6.50635E-09 -6.41363E-09 -6.32070E-09 -6.22759E-09 -6.13428E-09 -6.04079E-09 -5.94710E-09 -5.85318E-09 -5.75913E-09
  -5.66480E-09 -5.57033E-09 -5.47562E-09 -5.38074E-09 -5.28565E-09 -5.19035E-09 -5.09481E-09 -4.99912E-09 -4.90320E-09 -4.80707E-09
  -4.71074E-09 -4.61417E-09 -4.51743E-09 -4.42047E-09 -4.32329E-09 -4.22586E-09 -4.12829E-09 -4.03046E-09 -3.93244E-09 -3.83416E-09
  -3.73568E-09 -3.63699E-09 -3.53809E-09 -3.43892E-09 -3.33956E-09 -3.23998E-09 -3.14017E-09 -3.04018E-09 -2.94002E-09 -2.83975E-09
  -2.73936E-09 -2.63892E-09 -2.53842E-09 -2.43793E-09 -2.33744E-09 -2.23701E-09 -2.13665E-09 -2.03640E-09 -1.93629E-09 -1.83633E-09
  -1.73653E-09 -1.63694E-09 -1.53754E-09 -1.43830E-09 -1.33913E-09 -1.23964E-09 -1.13809E-09 -1.02927E-09 -9.16176E-10 -8.03737E-10
  -6.96106E-10 -5.95270E-10 -5.01218E-10 -4.12744E-10 -3.28326E-10 -2.46720E-10 -1.66877E-10 -8.71541E-11 -4.72780E-12  8.26406E-11
   1.70668E-10  2.58361E-10  3.45454E-10  4.31757E-10  5.17213E-10  6.01773E-10  6.85374E-10  7.67939E-10  8.49513E-10  9.30019E-10
   1.00939E-09  1.08766E-09  1.16476E-09  1.24067E-09  1.31533E-09  1.38873E-09  1.46088E-09  1.53166E-09  1.60108E-09  1.66915E-09
   1.73580E-09  1.80101E-09  1.86472E-09  1.92694E-09  1.98764E-09  2.04674E-09  2.10426E-09  2.16016E-09  2.21441E-09  2.26694E-09
   2.31779E-09  2.36688E-09  2.41418E-09  2.45967E-09  2.50336E-09  2.54515E-09  2.58504E-09  2.62303E-09  2.65903E-09  2.69311E-09
   2.72526E-09  2.75553E-09  2.78393E-09  2.81049E-09  2.83524E-09  2.85820E-09  2.87940E-09  2.89887E-09  2.91662E-09  2.93269E-09
   2.94711E-09  2.95990E-09  2.97108E-09  2.98069E-09  2.98874E-09  2.99527E-09  3.00030E-09  3.00385E-09  3.00596E-09  3.00664E-09
   3.00593E-09  3.00386E-09  3.00044E-09  2.99571E-09  2.98968E-09  2.98239E-09  2.97386E-09  2.96413E-09  2.95320E-09  2.94112E-09
   2.92791E-09  2.91358E-09  2.89820E-09  2.88173E-09  2.86425E-09  2.84577E-09  2.82631E-09  2.80590E-09  2.78457E-09  2.76234E-09
   2.73924E-09  2.71530E-09  2.69055E-09  2.66500E-09  2.63868E-09  2.61163E-09  2.58387E-09  2.55541E-09  2.52630E-09  2.49656E-09
   2.46620E-09  2.43526E-09  2.40377E-09  2.37175E-09  2.33923E-09  2.30623E-09  2.27278E-09  2.23891E-09  2.20463E-09  2.16998E-09
   2.13500E-09  2.09969E-09  2.06409E-09  2.02822E-09  1.99211E-09  1.95579E-09  1.91928E-09  1.88259E-09  1.84579E-09  1.80887E-09
   1.77185E-09  1.73478E-09  1.69764E-09  1.66044E-09  1.62316E-09  1.58583E-09  1.54843E-09  1.51097E-09  1.47345E-09  1.43587E-09
   1.39824E-09  1.36054E-09  1.32279E-09  1.28499E-09  1.24712E-09  1.20920E-09  1.17124E-09  1.13323E-09  1.09516E-09  1.05704E-09
   1.01887E-09  9.80657E-10  9.42402E-10  9.04096E-10  8.65750E-10  8.27357E-10  7.88928E-10  7.50450E-10  7.11937E-10  6.73386E-10
   6.34800E-10  5.96166E-10  5.57505E-10  5.18810E-10  4.80078E-10  4.41306E-10  4.02516E-10  3.63688E-10  3.24837E-10  2.85949E-10
   2.47041E-10  2.08104E-10  1.69137E-10  1.30146E-10  9.11376E-11  5.21034E-11  1.30521E-11 -2.60258E-11 -6.51123E-11 -1.04236E-10
  -1.43359E-10 -1.82511E-10 -2.21668E-10 -2.60839E-10 -3.00042E-10 -3.39236E-10 -3.78451E-10 -4.17668E-10 -4.56904E-10 -4.96141E-10
  -5.35384E-10 -5.74639E-10 -6.13895E-10 -6.53160E-10 -6.92422E-10 -7.31692E-10 -7.70951E-10 -8.10220E-10 -8.49488E-10 -8.88749E-10
  -9.28014E-10 -9.67272E-10 -1.00652E-09
 GSH      Conc. = 3.15E-10
  -1.47066E-08 -1.42416E-08 -1.38924E-08 -1.36942E-08 -1.36447E-08 -1.37180E-08 -1.38809E-08 -1.41023E-08 -1.43464E-08 -1.45621E-08
  -1.46586E-08 -1.46731E-08 -1.46606E-08 -1.46232E-08 -1.45731E-08 -1.45158E-08 -1.44538E-08 -1.43886E-08 -1.43211E-08 -1.42517E-08
  -1.41810E-08 -1.41090E-08 -1.40360E-08 -1.39620E-08 -1.38871E-08 -1.38113E-08 -1.37344E-08 -1.36561E-08 -1.35752E-08 -1.34909E-08
  -1.34028E-08 -1.33088E-08 -1.32053E-08 -1.30720E-08 -1.28677E-08 -1.26263E-08 -1.23509E-08 -1.20664E-08 -1.18140E-08 -1.16246E-08
  -1.15134E-08 -1.14781E-08 -1.15043E-08 -1.15723E-08 -1.16563E-08 -1.17228E-08 -1.17503E-08 -1.17583E-08 -1.17186E-08 -1.16407E-08
  -1.15251E-08 -1.13768E-08 -1.12216E-08 -1.10485E-08 -1.08605E-08 -1.06927E-08 -1.05551E-08 -1.04537E-08 -1.03908E-08 -1.03636E-08
  -1.03634E-08 -1.03754E-08 -1.03835E-08 -1.03880E-08 -1.03852E-08 -1.03494E-08 -1.02899E-08 -1.02207E-08 -1.01373E-08 -1.00289E-08
  -9.89474E-09 -9.75740E-09 -9.60083E-09 -9.42821E-09 -9.26138E-09 -9.10613E-09 -8.97035E-09 -8.86028E-09 -8.77929E-09 -8.72807E-09
  -8.70161E-09 -8.68095E-09 -8.66649E-09 -8.65853E-09 -8.62918E-09 -8.58841E-09 -8.54296E-09 -8.48344E-09 -8.41507E-09 -8.34151E-09
  -8.26448E-09 -8.18506E-09 -8.10380E-09 -8.02115E-09 -7.93732E-09 -7.85255E-09 -7.76702E-09 -7.68081E-09 -7.59400E-09 -7.50666E-09
  -7.41884E-09 -7.33060E-09 -7.24197E-09 -7.15299E-09 -7.06363E-09 -6.97395E-09 -6.88395E-09 -6.79369E-09 -6.70314E-09 -6.61225E-09
  -6.52118E-09 -6.42980E-09 -6.33816E-09 -6.24626E-09 -6.15412E-09 -6.06174E-09 -5.96914E-09 -5.87629E-09 -5.78319E-09 -5.68991E-09
  -5.59633E-09 -5.50257E-09 -5.40855E-09 -5.31433E-09 -5.21988E-09 -5.12519E-09 -5.03024E-09 -4.93512E-09 -4.83976E-09 -4.74416E-09
  -4.64835E-09 -4.55229E-09 -4.45603E-09 -4.35955E-09 -4.26283E-09 -4.16585E-09 -4.06871E-09 -3.97130E-09 -3.87368E-09 -3.77580E-09
  -3.67771E-09 -3.57940E-09 -3.48086E-09 -3.38205E-09 -3.28303E-09 -3.18377E-09 -3.08428E-09 -2.98459E-09 -2.88472E-09 -2.78472E-09
  -2.68458E-09 -2.58437E-09 -2.48408E-09 -2.38375E-09 -2.28340E-09 -2.18304E-09 -2.08269E-09 -1.98234E-09 -1.88200E-09 -1.78163E-09
  -1.68112E-09 -1.58038E-09 -1.47906E-09 -1.37656E-09 -1.27131E-09 -1.15864E-09 -1.01702E-09 -7.90516E-10 -5.13402E-10 -2.40094E-10
  -1.61556E-11  1.37311E-10  2.21280E-10  2.49470E-10  2.39328E-10  2.04806E-10  1.58022E-10  1.18090E-10  1.17033E-10  1.77641E-10
   2.53438E-10  3.33966E-10  4.16298E-10  4.99186E-10  5.82064E-10  6.64598E-10  7.46563E-10  8.27774E-10  9.08204E-10  9.87730E-10
   1.06625E-09  1.14377E-09  1.22020E-09  1.29551E-09  1.36962E-09  1.44253E-09  1.51423E-09  1.58459E-09  1.65363E-09  1.72133E-09
   1.78764E-09  1.85253E-09  1.91594E-09  1.97787E-09  2.03831E-09  2.09715E-09  2.15442E-09  2.21009E-09  2.26412E-09  2.31643E-09
   2.36708E-09  2.41596E-09  2.46307E-09  2.50838E-09  2.55189E-09  2.59350E-09  2.63322E-09  2.67105E-09  2.70689E-09  2.74081E-09
   2.77281E-09  2.80294E-09  2.83119E-09  2.85761E-09  2.88222E-09  2.90505E-09  2.92612E-09  2.94546E-09  2.96309E-09  2.97904E-09
