 LCModel (Version 6.3-1R) Copyright: S.W. Provencher.          Ref.: Magn. Reson. Med. 30:672-679 (1993).                
 onepulse 19x23_ftSpec_smooth_lcm
 26 lines in following concentration table = NCONC+1
    Conc.  %SD   /Cr    Metabolite                                         
 9.81E-11 171%   0.000 Ala                                                 
 5.71E-10  60%   0.000 Asp                                                 
    0.000 999%   0.000 Cr                                                  
 2.77E-09   9%   0.000 GABA                                                
 1.72E-09  16%   0.000 Glc                                                 
    0.000 999%   0.000 Gln                                                 
    0.000 999%   0.000 Glu                                                 
    0.000 999%   0.000 Glyc                                                
    0.000 999%   0.000 GPC                                                 
 2.20E-11 809%   0.000 GSH                                                 
 2.15E-10  91%   0.000 Ins                                                 
    0.000 999%   0.000 Lac                                                 
    0.000 999%   0.000 NAAG                                                
 1.35E-09  11%   0.000 NAA                                                 
 9.23E-11  50%   0.000 PCh                                                 
    0.000 999%   0.000 PCr                                                 
    0.000 999%   0.000 PE                                                  
    0.000 999%   0.000 Scyllo                                              
    0.000 999%   0.000 Ser                                                 
    0.000 999%   0.000 Tau                                                 
 9.23E-11  50%   0.000 GPC+PCh                                             
 1.35E-09  11%   0.000 NAA+NAAG                                            
 2.15E-10  91%   0.000 Ins+Glyc                                            
    0.000 999%   0.000 Cr+PCr                                              
    0.000 999%   0.000 Glu+Gln                                             
   6 lines in following misc. output table
  FWHM = 0.067 ppm    S/N =   5                                            
  Data shift = 0.335 ppm                                                   
  Ph:  51 deg      26.8 deg/ppm                                            
  alphaB,S = 1.5E-01,   5.4E+01                                            
   16 spline knots.   Ns = 5(1)                                            
  ( 7) 2 infls.   ( 5) 1 extrs.                                            
  363 points on ppm-axis = NY
      4.250000     4.238821     4.227641     4.216462     4.205282     4.194103     4.182923     4.171744     4.160564     4.149385
      4.138206     4.127026     4.115847     4.104667     4.093488     4.082308     4.071129     4.059949     4.048770     4.037591
      4.026411     4.015232     4.004052     3.992873     3.981693     3.970514     3.959334     3.948155     3.936975     3.925796
      3.914617     3.903437     3.892258     3.881078     3.869899     3.858719     3.847540     3.836360     3.825181     3.814002
      3.802822     3.791643     3.780463     3.769284     3.758104     3.746925     3.735745     3.724566     3.713387     3.702207
      3.691028     3.679848     3.668669     3.657489     3.646310     3.635130     3.623951     3.612772     3.601592     3.590413
      3.579233     3.568054     3.556874     3.545695     3.534515     3.523336     3.512156     3.500977     3.489798     3.478618
      3.467439     3.456259     3.445080     3.433900     3.422721     3.411541     3.400362     3.389183     3.378003     3.366824
      3.355644     3.344465     3.333285     3.322106     3.310926     3.299747     3.288568     3.277388     3.266209     3.255029
      3.243850     3.232670     3.221491     3.210311     3.199132     3.187953     3.176773     3.165594     3.154414     3.143235
      3.132055     3.120876     3.109696     3.098517     3.087337     3.076158     3.064979     3.053799     3.042620     3.031440
      3.020261     3.009081     2.997902     2.986722     2.975543     2.964364     2.953184     2.942005     2.930825     2.919646
      2.908466     2.897287     2.886107     2.874928     2.863749     2.852569     2.841390     2.830210     2.819031     2.807851
      2.796672     2.785492     2.774313     2.763134     2.751954     2.740775     2.729595     2.718416     2.707236     2.696057
      2.684877     2.673698     2.662519     2.651339     2.640160     2.628980     2.617801     2.606621     2.595442     2.584262
      2.573083     2.561903     2.550724     2.539545     2.528365     2.517186     2.506006     2.494827     2.483647     2.472468
      2.461288     2.450109     2.438930     2.427750     2.416571     2.405391     2.394212     2.383032     2.371853     2.360673
      2.349494     2.338315     2.327135     2.315956     2.304776     2.293597     2.282417     2.271238     2.260058     2.248879
      2.237700     2.226520     2.215341     2.204161     2.192982     2.181802     2.170623     2.159443     2.148264     2.137084
      2.125905     2.114726     2.103546     2.092367     2.081187     2.070008     2.058828     2.047649     2.036469     2.025290
      2.014111     2.002931     1.991752     1.980572     1.969393     1.958213     1.947034     1.935854     1.924675     1.913496
      1.902316     1.891137     1.879957     1.868778     1.857598     1.846419     1.835239     1.824060     1.812881     1.801701
      1.790522     1.779342     1.768163     1.756983     1.745804     1.734624     1.723445     1.712265     1.701086     1.689907
      1.678727     1.667548     1.656368     1.645189     1.634009     1.622830     1.611650     1.600471     1.589292     1.578112
      1.566933     1.555753     1.544574     1.533394     1.522215     1.511035     1.499856     1.488677     1.477497     1.466318
      1.455138     1.443959     1.432779     1.421600     1.410420     1.399241     1.388062     1.376882     1.365703     1.354523
      1.343344     1.332164     1.320985     1.309805     1.298626     1.287446     1.276267     1.265088     1.253908     1.242729
      1.231549     1.220370     1.209190     1.198011     1.186831     1.175652     1.164473     1.153293     1.142114     1.130934
      1.119755     1.108575     1.097396     1.086216     1.075037     1.063858     1.052678     1.041499     1.030319     1.019140
      1.007960     0.996781     0.985601     0.974422     0.963243     0.952063     0.940884     0.929704     0.918525     0.907345
      0.896166     0.884986     0.873807     0.862628     0.851448     0.840269     0.829089     0.817910     0.806730     0.795551
      0.784371     0.773192     0.762012     0.750833     0.739654     0.728474     0.717295     0.706115     0.694936     0.683756
      0.672577     0.661397     0.650218     0.639039     0.627859     0.616680     0.605500     0.594321     0.583141     0.571962
      0.560782     0.549603     0.538424     0.527244     0.516065     0.504885     0.493706     0.482526     0.471347     0.460167
      0.448988     0.437809     0.426629     0.415450     0.404270     0.393091     0.381911     0.370732     0.359552     0.348373
      0.337193     0.326014     0.314835     0.303655     0.292476     0.281296     0.270117     0.258937     0.247758     0.236578
      0.225399     0.214220     0.203040
 NY phased data points follow
   5.52347E-09  7.71621E-09  9.99360E-09  1.18775E-08  1.10380E-08  1.00284E-08  8.86455E-09  6.88960E-09  7.42812E-09  6.21062E-09
   7.08050E-09  5.97266E-09  7.71968E-09  6.97778E-09  7.53320E-09  7.64521E-09  9.01164E-09  9.32728E-09  8.45030E-09  8.74810E-09
   9.04903E-09  7.58171E-09  7.95988E-09  7.29459E-09  7.82711E-09  6.86607E-09  7.68425E-09  7.90499E-09  8.39905E-09  7.36145E-09
   6.83576E-09  5.87833E-09  7.53770E-09  8.31488E-09  1.03953E-08  1.08765E-08  1.02564E-08  8.81942E-09  8.39793E-09  6.87137E-09
   6.04275E-09  5.59537E-09  6.02685E-09  4.96815E-09  5.37534E-09  4.97798E-09  5.35702E-09  4.45638E-09  4.28794E-09  3.19380E-09
   3.78104E-09  3.41488E-09  3.97002E-09  3.75825E-09  3.93056E-09  4.04209E-09  3.15784E-09  2.58692E-09  3.38534E-09  2.65941E-09
   3.70102E-09  3.99254E-09  4.24239E-09  5.26165E-09  7.30828E-09  8.32906E-09  1.07433E-08  9.38109E-09  8.14726E-09  7.09106E-09
   5.31135E-09  4.87983E-09  4.43880E-09  3.17878E-09  3.24984E-09  3.06520E-09  2.91070E-09  2.06372E-09  3.13741E-09  3.88229E-09
   7.11956E-09  1.08682E-08  1.38870E-08  1.34600E-08  1.24361E-08  1.07451E-08  8.85312E-09  7.56218E-09  7.39164E-09  6.83675E-09
   6.57651E-09  5.86686E-09  6.09673E-09  5.44171E-09  4.61425E-09  3.86227E-09  3.91863E-09  3.62296E-09  3.23458E-09  2.58968E-09
   2.64470E-09  2.50670E-09  2.91927E-09  2.72319E-09  3.55623E-09  2.72208E-09  2.78946E-09  3.07725E-09  2.46042E-09  2.26980E-09
   1.66038E-09  1.11219E-09  1.16687E-09  1.06684E-09  1.83153E-09  2.32710E-09  2.40016E-09  1.77554E-09  2.54204E-09  2.62243E-09
   2.71886E-09  2.41404E-09  2.81187E-09  2.33026E-09  1.88629E-09  1.15679E-09  7.71142E-10  8.64837E-10  9.99624E-10  1.03495E-09
   1.53397E-09  1.27494E-09  1.75367E-09  1.76953E-09  2.37481E-09  2.19967E-09  2.08815E-09  1.61586E-09  1.78043E-09  8.97138E-10
   3.02792E-09  2.86203E-09  4.29637E-09  4.05487E-09  3.30217E-09  2.72860E-09  3.64105E-09  3.43895E-09  3.88086E-09  3.92279E-09
   3.67324E-09  3.08144E-09  3.04741E-09  2.76824E-09  2.88757E-09  2.81699E-09  2.65511E-09  3.17350E-09  3.35417E-09  3.41237E-09
   3.82798E-09  3.46175E-09  4.12199E-09  4.05263E-09  4.63806E-09  4.83212E-09  5.12003E-09  5.78747E-09  6.18184E-09  7.18965E-09
   9.72927E-09  1.18487E-08  1.54012E-08  1.72952E-08  1.51061E-08  1.16232E-08  8.61410E-09  6.85730E-09  5.44728E-09  4.27633E-09
   3.75894E-09  3.05058E-09  2.14362E-09  2.15569E-09  6.84994E-10  1.02105E-09 -6.74187E-10 -9.68015E-10 -9.37111E-10 -2.78129E-09
  -2.84850E-09 -3.64890E-09 -3.78924E-09 -5.53011E-09 -5.91559E-09 -6.98375E-09 -7.14690E-09 -7.72081E-09 -8.62197E-09 -9.41228E-09
  -9.39762E-09 -9.99603E-09 -1.00297E-08 -1.03532E-08 -9.88267E-09 -1.01238E-08 -8.80600E-09 -8.97455E-09 -7.83691E-09 -7.10717E-09
  -6.65557E-09 -5.98381E-09 -4.27572E-09 -4.06711E-09 -2.67483E-09 -1.96452E-09 -1.64958E-09 -1.55687E-09 -1.59849E-09 -8.17815E-10
  -1.32622E-09 -2.04353E-09 -1.65653E-09 -1.65288E-09 -1.70016E-09 -1.83112E-09 -1.42350E-09 -1.53314E-09 -1.46780E-09 -1.57597E-09
  -1.14475E-09 -1.90409E-09 -1.60006E-09 -1.33127E-09 -2.00883E-09 -2.12110E-09 -1.89378E-09 -1.15220E-09 -1.13705E-09 -1.33573E-09
  -1.66403E-09 -1.27685E-09 -1.27611E-09 -1.28669E-09 -1.51639E-09 -1.70441E-09 -1.51143E-09 -1.85354E-09 -1.20937E-09 -1.63564E-09
  -1.24962E-09 -9.81411E-10 -7.18151E-10 -1.33628E-09 -1.95712E-10 -7.13414E-10 -1.12533E-09 -1.10157E-09 -1.60373E-09 -1.24822E-09
  -1.36009E-09 -2.50275E-09 -1.59490E-09 -2.06233E-09 -1.51024E-09 -1.71516E-09 -1.25375E-09 -1.00586E-09 -5.89285E-10 -3.78128E-10
  -6.21459E-10 -4.03879E-10 -1.41868E-10 -4.21715E-10 -1.66692E-10 -5.30570E-10 -7.69335E-10 -2.63274E-10 -8.74282E-10 -1.28623E-09
  -5.02680E-10 -1.56705E-09 -1.29778E-09 -1.59123E-09 -1.19080E-09 -1.58288E-09 -1.17876E-09 -1.42318E-09 -1.60797E-09 -1.67516E-09
  -9.91745E-10 -1.42894E-09 -1.57265E-09 -1.19630E-09 -6.92154E-10 -8.26987E-10 -1.15660E-09 -1.03239E-09 -6.55671E-10 -8.90664E-10
  -1.13249E-09 -8.09651E-10 -1.43346E-09 -2.27326E-10 -1.45626E-09 -6.77550E-10 -3.18407E-10 -7.85148E-10 -3.78967E-10 -9.89605E-10
  -4.20008E-10 -4.69950E-10 -3.19036E-10 -3.03762E-10 -2.16988E-10 -4.06994E-10 -1.08896E-09 -2.23458E-10 -1.91130E-10 -2.07230E-10
  -7.92304E-10 -5.70253E-10 -3.54051E-10 -1.79620E-10 -6.25531E-10 -4.29566E-10 -7.25596E-10 -4.86572E-10  1.76663E-10 -3.08204E-10
  -6.17581E-10 -5.94820E-10 -1.57482E-10 -4.85738E-10  3.21953E-10 -3.48962E-10 -3.61005E-11 -9.48596E-10 -1.11962E-10 -4.43316E-10
  -1.07700E-10 -1.17208E-09 -5.14442E-10 -6.92729E-11 -2.97967E-10 -4.58900E-10  1.40377E-10 -6.28763E-10 -4.99113E-10 -6.22314E-10
   9.84512E-11 -6.44839E-11 -2.37354E-10 -6.18493E-10 -6.51225E-10  2.49249E-11 -4.10107E-10 -1.65302E-10 -1.30700E-10 -6.41762E-10
  -3.58675E-10 -5.04728E-10 -3.32340E-10
 NY points of the fit to the data follow
   8.01631E-09  8.51447E-09  8.94325E-09  9.24787E-09  9.30113E-09  9.04592E-09  8.52129E-09  7.88876E-09  7.40671E-09  6.96957E-09
   6.78294E-09  6.80502E-09  6.92916E-09  7.14151E-09  7.46479E-09  7.83655E-09  8.24453E-09  8.75267E-09  9.26494E-09  9.60286E-09
   9.69832E-09  9.36433E-09  8.63014E-09  7.82919E-09  7.12572E-09  6.59142E-09  6.41808E-09  6.73030E-09  7.21867E-09  7.65180E-09
   7.79329E-09  7.92813E-09  8.26682E-09  8.47569E-09  8.55747E-09  8.85998E-09  9.15105E-09  9.14667E-09  8.74801E-09  8.05029E-09
   7.29416E-09  6.59720E-09  5.55962E-09  4.64411E-09  4.23112E-09  3.86827E-09  3.56755E-09  3.57233E-09  3.71554E-09  3.84253E-09
   3.88552E-09  3.85050E-09  3.81866E-09  3.79364E-09  3.79356E-09  3.85233E-09  3.88246E-09  3.90085E-09  3.83840E-09  3.75099E-09
   3.83666E-09  4.23018E-09  4.71397E-09  5.26781E-09  6.17340E-09  6.99584E-09  7.55007E-09  7.99746E-09  8.29628E-09  8.23522E-09
   7.79219E-09  6.94858E-09  5.91522E-09  5.11084E-09  4.31141E-09  3.46625E-09  3.36328E-09  4.00272E-09  4.82730E-09  6.09812E-09
   7.86700E-09  9.89272E-09  1.17623E-08  1.26828E-08  1.23105E-08  1.11422E-08  9.66079E-09  8.00503E-09  6.33617E-09  5.63480E-09
   5.43273E-09  5.36318E-09  5.14892E-09  4.64336E-09  4.27892E-09  3.97722E-09  3.46712E-09  3.08119E-09  2.85405E-09  2.63261E-09
   2.49222E-09  2.41712E-09  2.39626E-09  2.43040E-09  2.47853E-09  2.51900E-09  2.54351E-09  2.55173E-09  2.54162E-09  2.50518E-09
   2.43829E-09  2.36453E-09  2.32694E-09  2.28113E-09  2.23701E-09  2.23460E-09  2.24538E-09  2.26162E-09  2.28065E-09  2.30121E-09
   2.32259E-09  2.34433E-09  2.36606E-09  2.38752E-09  2.40849E-09  2.42878E-09  2.44821E-09  2.46666E-09  2.48400E-09  2.50007E-09
   2.51478E-09  2.52800E-09  2.53963E-09  2.54956E-09  2.55767E-09  2.56387E-09  2.56806E-09  2.57017E-09  2.57008E-09  2.56773E-09
   2.56300E-09  2.55580E-09  2.54599E-09  2.53345E-09  2.51807E-09  2.49976E-09  2.47841E-09  2.45392E-09  2.42622E-09  2.39523E-09
   2.36093E-09  2.32330E-09  2.28235E-09  2.23815E-09  2.19082E-09  2.14059E-09  2.08779E-09  2.03295E-09  1.97690E-09  1.92091E-09
   1.86699E-09  1.81853E-09  1.78148E-09  1.76739E-09  1.80236E-09  1.96294E-09  2.58249E-09  3.96873E-09  5.79621E-09  8.07440E-09
   1.09649E-08  1.40143E-08  1.62155E-08  1.66396E-08  1.51111E-08  1.22164E-08  8.69819E-09  4.97152E-09  1.81705E-09  2.25238E-10
  -4.24140E-10 -8.20457E-10 -1.11960E-09 -1.37011E-09 -1.59193E-09 -1.79462E-09 -1.98322E-09 -2.16046E-09 -2.32789E-09 -2.48632E-09
  -2.63614E-09 -2.77745E-09 -2.91017E-09 -3.03409E-09 -3.14893E-09 -3.25433E-09 -3.35006E-09 -3.43639E-09 -3.51367E-09 -3.58224E-09
  -3.64241E-09 -3.69448E-09 -3.73877E-09 -3.77556E-09 -3.80513E-09 -3.82776E-09 -3.84373E-09 -3.85331E-09 -3.85676E-09 -3.85436E-09
  -3.84638E-09 -3.83307E-09 -3.81470E-09 -3.79153E-09 -3.76382E-09 -3.73183E-09 -3.69582E-09 -3.65605E-09 -3.61278E-09 -3.56626E-09
  -3.51675E-09 -3.46451E-09 -3.40979E-09 -3.35285E-09 -3.29393E-09 -3.23319E-09 -3.17080E-09 -3.10693E-09 -3.04176E-09 -2.97545E-09
  -2.90818E-09 -2.84010E-09 -2.77140E-09 -2.70224E-09 -2.63277E-09 -2.56318E-09 -2.49363E-09 -2.42430E-09 -2.35534E-09 -2.28693E-09
  -2.21924E-09 -2.15243E-09 -2.08667E-09 -2.02214E-09 -1.95898E-09 -1.89738E-09 -1.83749E-09 -1.77950E-09 -1.72357E-09 -1.66986E-09
  -1.61854E-09 -1.56978E-09 -1.52364E-09 -1.48003E-09 -1.43886E-09 -1.40005E-09 -1.36349E-09 -1.32910E-09 -1.29679E-09 -1.26646E-09
  -1.23803E-09 -1.21139E-09 -1.18646E-09 -1.16314E-09 -1.14136E-09 -1.12101E-09 -1.10198E-09 -1.08422E-09 -1.06762E-09 -1.05208E-09
  -1.03751E-09 -1.02383E-09 -1.01093E-09 -9.98729E-10 -9.87145E-10 -9.76062E-10 -9.65415E-10 -9.55096E-10 -9.45021E-10 -9.35090E-10
  -9.25265E-10 -9.15534E-10 -9.05888E-10 -8.96316E-10 -8.86818E-10 -8.77377E-10 -8.67992E-10 -8.58648E-10 -8.49340E-10 -8.40063E-10
  -8.30803E-10 -8.21554E-10 -8.12309E-10 -8.03058E-10 -7.93795E-10 -7.84508E-10 -7.75193E-10 -7.65839E-10 -7.56443E-10 -7.46985E-10
  -7.37471E-10 -7.27883E-10 -7.18215E-10 -7.08465E-10 -6.98616E-10 -6.88664E-10 -6.78602E-10 -6.68417E-10 -6.58124E-10 -6.47735E-10
  -6.37266E-10 -6.26735E-10 -6.16158E-10 -6.05548E-10 -5.94925E-10 -5.84302E-10 -5.73697E-10 -5.63125E-10 -5.52604E-10 -5.42145E-10
  -5.31772E-10 -5.21494E-10 -5.11328E-10 -5.01296E-10 -4.91405E-10 -4.81680E-10 -4.72132E-10 -4.62775E-10 -4.53630E-10 -4.44713E-10
  -4.36034E-10 -4.27614E-10 -4.19467E-10 -4.11611E-10 -4.04061E-10 -3.96828E-10 -3.89907E-10 -3.83286E-10 -3.76947E-10 -3.70879E-10
  -3.65067E-10 -3.59496E-10 -3.54153E-10 -3.49023E-10 -3.44094E-10 -3.39347E-10 -3.34775E-10 -3.30360E-10 -3.26088E-10 -3.21945E-10
  -3.17915E-10 -3.13990E-10 -3.10150E-10 -3.06383E-10 -3.02676E-10 -2.99015E-10 -2.95384E-10 -2.91769E-10 -2.88157E-10 -2.84536E-10
  -2.80891E-10 -2.77208E-10 -2.73468E-10
 NY background values follow
     1.691E-09    1.662E-09    1.633E-09    1.604E-09    1.575E-09    1.546E-09    1.517E-09    1.488E-09    1.459E-09    1.430E-09
     1.402E-09    1.373E-09    1.345E-09    1.316E-09    1.288E-09    1.260E-09    1.232E-09    1.204E-09    1.176E-09    1.148E-09
     1.120E-09    1.093E-09    1.065E-09    1.038E-09    1.011E-09    9.843E-10    9.575E-10    9.309E-10    9.045E-10    8.782E-10
     8.522E-10    8.264E-10    8.009E-10    7.758E-10    7.510E-10    7.266E-10    7.027E-10    6.792E-10    6.562E-10    6.338E-10
     6.120E-10    5.908E-10    5.703E-10    5.504E-10    5.313E-10    5.130E-10    4.955E-10    4.788E-10    4.630E-10    4.482E-10
     4.343E-10    4.214E-10    4.095E-10    3.987E-10    3.890E-10    3.805E-10    3.731E-10    3.669E-10    3.620E-10    3.582E-10
     3.555E-10    3.540E-10    3.537E-10    3.544E-10    3.563E-10    3.593E-10    3.633E-10    3.684E-10    3.745E-10    3.817E-10
     3.898E-10    3.990E-10    4.092E-10    4.203E-10    4.324E-10    4.454E-10    4.594E-10    4.743E-10    4.900E-10    5.067E-10
     5.242E-10    5.426E-10    5.618E-10    5.819E-10    6.027E-10    6.244E-10    6.468E-10    6.699E-10    6.937E-10    7.182E-10
     7.433E-10    7.691E-10    7.954E-10    8.223E-10    8.496E-10    8.775E-10    9.058E-10    9.346E-10    9.637E-10    9.932E-10
     1.023E-09    1.053E-09    1.084E-09    1.114E-09    1.145E-09    1.176E-09    1.207E-09    1.239E-09    1.270E-09    1.302E-09
     1.333E-09    1.365E-09    1.396E-09    1.428E-09    1.459E-09    1.490E-09    1.520E-09    1.550E-09    1.580E-09    1.609E-09
     1.637E-09    1.664E-09    1.690E-09    1.716E-09    1.740E-09    1.763E-09    1.785E-09    1.805E-09    1.824E-09    1.841E-09
     1.857E-09    1.871E-09    1.883E-09    1.893E-09    1.901E-09    1.907E-09    1.911E-09    1.912E-09    1.911E-09    1.908E-09
     1.901E-09    1.893E-09    1.881E-09    1.866E-09    1.849E-09    1.828E-09    1.803E-09    1.775E-09    1.743E-09    1.708E-09
     1.668E-09    1.625E-09    1.577E-09    1.524E-09    1.468E-09    1.406E-09    1.340E-09    1.269E-09    1.192E-09    1.111E-09
     1.024E-09    9.312E-10    8.331E-10    7.292E-10    6.193E-10    5.034E-10    3.813E-10    2.528E-10    1.180E-10   -2.288E-11
    -1.692E-10   -3.203E-10   -4.757E-10   -6.349E-10   -7.973E-10   -9.624E-10   -1.129E-09   -1.298E-09   -1.468E-09   -1.638E-09
    -1.807E-09   -1.976E-09   -2.144E-09   -2.310E-09   -2.474E-09   -2.634E-09   -2.791E-09   -2.944E-09   -3.092E-09   -3.236E-09
    -3.373E-09   -3.504E-09   -3.628E-09   -3.745E-09   -3.854E-09   -3.954E-09   -4.045E-09   -4.127E-09   -4.201E-09   -4.267E-09
    -4.324E-09   -4.374E-09   -4.417E-09   -4.452E-09   -4.480E-09   -4.501E-09   -4.515E-09   -4.524E-09   -4.526E-09   -4.523E-09
    -4.514E-09   -4.500E-09   -4.481E-09   -4.457E-09   -4.429E-09   -4.397E-09   -4.360E-09   -4.320E-09   -4.276E-09   -4.230E-09
    -4.180E-09   -4.127E-09   -4.072E-09   -4.015E-09   -3.956E-09   -3.895E-09   -3.832E-09   -3.768E-09   -3.703E-09   -3.637E-09
    -3.569E-09   -3.501E-09   -3.432E-09   -3.363E-09   -3.294E-09   -3.224E-09   -3.154E-09   -3.085E-09   -3.016E-09   -2.947E-09
    -2.880E-09   -2.813E-09   -2.747E-09   -2.682E-09   -2.619E-09   -2.558E-09   -2.498E-09   -2.440E-09   -2.384E-09   -2.330E-09
    -2.279E-09   -2.230E-09   -2.184E-09   -2.140E-09   -2.099E-09   -2.060E-09   -2.023E-09   -1.989E-09   -1.957E-09   -1.926E-09
    -1.898E-09   -1.871E-09   -1.846E-09   -1.823E-09   -1.801E-09   -1.780E-09   -1.761E-09   -1.744E-09   -1.727E-09   -1.711E-09
    -1.697E-09   -1.683E-09   -1.670E-09   -1.658E-09   -1.646E-09   -1.635E-09   -1.624E-09   -1.614E-09   -1.604E-09   -1.594E-09
    -1.584E-09   -1.574E-09   -1.564E-09   -1.555E-09   -1.545E-09   -1.535E-09   -1.526E-09   -1.516E-09   -1.507E-09   -1.498E-09
    -1.488E-09   -1.479E-09   -1.470E-09   -1.460E-09   -1.451E-09   -1.441E-09   -1.432E-09   -1.423E-09   -1.413E-09   -1.403E-09
    -1.394E-09   -1.384E-09   -1.374E-09   -1.364E-09   -1.354E-09   -1.344E-09   -1.334E-09   -1.324E-09   -1.313E-09   -1.303E-09
    -1.292E-09   -1.281E-09   -1.270E-09   -1.260E-09   -1.249E-09   -1.238E-09   -1.227E-09   -1.216E-09   -1.206E-09   -1.195E-09
    -1.185E-09   -1.174E-09   -1.164E-09   -1.153E-09   -1.143E-09   -1.133E-09   -1.124E-09   -1.114E-09   -1.105E-09   -1.095E-09
    -1.087E-09   -1.078E-09   -1.069E-09   -1.061E-09   -1.054E-09   -1.046E-09   -1.039E-09   -1.032E-09   -1.025E-09   -1.019E-09
    -1.013E-09   -1.007E-09   -1.001E-09   -9.961E-10   -9.908E-10   -9.858E-10   -9.809E-10   -9.762E-10   -9.716E-10   -9.672E-10
    -9.629E-10   -9.586E-10   -9.544E-10   -9.504E-10   -9.463E-10   -9.423E-10   -9.384E-10   -9.344E-10   -9.305E-10   -9.265E-10
    -9.225E-10   -9.185E-10   -9.144E-10
 Ala      Conc. = 9.81E-11
   1.76644E-09  1.74429E-09  1.71991E-09  1.69344E-09  1.66456E-09  1.63404E-09  1.60034E-09  1.56090E-09  1.52334E-09  1.48835E-09
   1.44736E-09  1.40852E-09  1.37491E-09  1.34036E-09  1.30702E-09  1.27590E-09  1.24593E-09  1.21666E-09  1.18786E-09  1.15942E-09
   1.13126E-09  1.10336E-09  1.07568E-09  1.04821E-09  1.02093E-09  9.93858E-10  9.66968E-10  9.40264E-10  9.13750E-10  8.87437E-10
   8.61356E-10  8.35538E-10  8.10021E-10  7.84841E-10  7.60032E-10  7.35632E-10  7.11678E-10  6.88205E-10  6.65249E-10  6.42845E-10
   6.21037E-10  5.99852E-10  5.79336E-10  5.59519E-10  5.40445E-10  5.22142E-10  5.04655E-10  4.88023E-10  4.72271E-10  4.57447E-10
   4.43589E-10  4.30724E-10  4.18900E-10  4.08148E-10  3.98521E-10  3.90027E-10  3.82717E-10  3.76618E-10  3.71712E-10  3.67985E-10
   3.65423E-10  3.64013E-10  3.63739E-10  3.64586E-10  3.66542E-10  3.69593E-10  3.73723E-10  3.78919E-10  3.85167E-10  3.92454E-10
   4.00764E-10  4.10087E-10  4.20405E-10  4.31709E-10  4.43982E-10  4.57215E-10  4.71393E-10  4.86503E-10  5.02533E-10  5.19476E-10
   5.37313E-10  5.56043E-10  5.75648E-10  5.96129E-10  6.17471E-10  6.39669E-10  6.62704E-10  6.86562E-10  7.11235E-10  7.36721E-10
   7.63029E-10  7.90181E-10  8.18222E-10  8.47230E-10  8.77344E-10  9.08801E-10  9.42041E-10  9.77945E-10  1.01860E-09  1.07060E-09
   1.14266E-09  1.21348E-09  1.29855E-09  1.41278E-09  1.52325E-09  1.61331E-09  1.67782E-09  1.71878E-09  1.73589E-09  1.72230E-09
   1.67499E-09  1.61800E-09  1.59472E-09  1.56118E-09  1.52757E-09  1.53414E-09  1.55275E-09  1.57584E-09  1.60084E-09  1.62660E-09
   1.65249E-09  1.67812E-09  1.70321E-09  1.72757E-09  1.75102E-09  1.77342E-09  1.79465E-09  1.81458E-09  1.83310E-09  1.85010E-09
   1.86549E-09  1.87917E-09  1.89102E-09  1.90096E-09  1.90889E-09  1.91472E-09  1.91834E-09  1.91967E-09  1.91861E-09  1.91506E-09
   1.90894E-09  1.90010E-09  1.88843E-09  1.87376E-09  1.85597E-09  1.83492E-09  1.81045E-09  1.78244E-09  1.75075E-09  1.71522E-09
   1.67574E-09  1.63215E-09  1.58432E-09  1.53211E-09  1.47539E-09  1.41401E-09  1.34786E-09  1.27679E-09  1.20067E-09  1.11940E-09
   1.03284E-09  9.40918E-10  8.43576E-10  7.40820E-10  6.32873E-10  5.20607E-10  4.08361E-10  3.05694E-10  1.99311E-10  9.42784E-11
  -4.90954E-12 -1.06299E-10 -2.26379E-10 -3.79857E-10 -5.66861E-10 -7.75587E-10 -9.93007E-10 -1.21477E-09 -1.43157E-09 -1.61490E-09
  -1.79000E-09 -1.96186E-09 -2.13135E-09 -2.29842E-09 -2.46275E-09 -2.62390E-09 -2.78140E-09 -2.93472E-09 -3.08331E-09 -3.22666E-09
  -3.36421E-09 -3.49542E-09 -3.61972E-09 -3.73656E-09 -3.84540E-09 -3.94567E-09 -4.03698E-09 -4.11949E-09 -4.19345E-09 -4.25912E-09
  -4.31674E-09 -4.36658E-09 -4.40889E-09 -4.44393E-09 -4.47194E-09 -4.49318E-09 -4.50791E-09 -4.51638E-09 -4.51884E-09 -4.51555E-09
  -4.50676E-09 -4.49273E-09 -4.47371E-09 -4.44995E-09 -4.42171E-09 -4.38924E-09 -4.35280E-09 -4.31264E-09 -4.26901E-09 -4.22217E-09
  -4.17237E-09 -4.11986E-09 -4.06490E-09 -4.00775E-09 -3.94862E-09 -3.88770E-09 -3.82515E-09 -3.76114E-09 -3.69584E-09 -3.62941E-09
  -3.56203E-09 -3.49385E-09 -3.42506E-09 -3.35581E-09 -3.28627E-09 -3.21661E-09 -3.14700E-09 -3.07762E-09 -3.00860E-09 -2.94014E-09
  -2.87241E-09 -2.80555E-09 -2.73975E-09 -2.67518E-09 -2.61199E-09 -2.55036E-09 -2.49044E-09 -2.43242E-09 -2.37646E-09 -2.32273E-09
  -2.27137E-09 -2.22259E-09 -2.17642E-09 -2.13278E-09 -2.09158E-09 -2.05274E-09 -2.01615E-09 -1.98173E-09 -1.94938E-09 -1.91902E-09
  -1.89055E-09 -1.86387E-09 -1.83890E-09 -1.81555E-09 -1.79372E-09 -1.77333E-09 -1.75426E-09 -1.73645E-09 -1.71980E-09 -1.70420E-09
  -1.68958E-09 -1.67584E-09 -1.66288E-09 -1.65062E-09 -1.63897E-09 -1.62783E-09 -1.61711E-09 -1.60672E-09 -1.59657E-09 -1.58656E-09
  -1.57666E-09 -1.56685E-09 -1.55711E-09 -1.54746E-09 -1.53787E-09 -1.52833E-09 -1.51885E-09 -1.50941E-09 -1.50000E-09 -1.49062E-09
  -1.48125E-09 -1.47189E-09 -1.46253E-09 -1.45316E-09 -1.44378E-09 -1.43437E-09 -1.42493E-09 -1.41545E-09 -1.40592E-09 -1.39633E-09
  -1.38668E-09 -1.37695E-09 -1.36713E-09 -1.35724E-09 -1.34724E-09 -1.33713E-09 -1.32691E-09 -1.31657E-09 -1.30611E-09 -1.29555E-09
  -1.28491E-09 -1.27421E-09 -1.26346E-09 -1.25267E-09 -1.24186E-09 -1.23105E-09 -1.22026E-09 -1.20949E-09 -1.19877E-09 -1.18811E-09
  -1.17754E-09 -1.16705E-09 -1.15668E-09 -1.14643E-09 -1.13633E-09 -1.12638E-09 -1.11661E-09 -1.10702E-09 -1.09765E-09 -1.08850E-09
  -1.07958E-09 -1.07092E-09 -1.06253E-09 -1.05443E-09 -1.04663E-09 -1.03914E-09 -1.03196E-09 -1.02508E-09 -1.01847E-09 -1.01213E-09
  -1.00605E-09 -1.00020E-09 -9.94581E-10 -9.89168E-10 -9.83953E-10 -9.78916E-10 -9.74051E-10 -9.69338E-10 -9.64766E-10 -9.60318E-10
  -9.55980E-10 -9.51742E-10 -9.47587E-10 -9.43501E-10 -9.39471E-10 -9.35483E-10 -9.31522E-10 -9.27572E-10 -9.23623E-10 -9.19660E-10
  -9.15669E-10 -9.11636E-10 -9.07543E-10
 Asp      Conc. = 5.71E-10
   2.38934E-09  2.27780E-09  2.15418E-09  2.02349E-09  1.89863E-09  1.77276E-09  1.67467E-09  1.58648E-09  1.53260E-09  1.49139E-09
   1.45610E-09  1.42404E-09  1.39394E-09  1.36513E-09  1.33694E-09  1.30905E-09  1.28156E-09  1.25446E-09  1.22773E-09  1.20134E-09
   1.17530E-09  1.14961E-09  1.12429E-09  1.09938E-09  1.07488E-09  1.05088E-09  1.02742E-09  1.00457E-09  9.82457E-10  9.61214E-10
   9.41063E-10  9.22300E-10  9.05357E-10  8.90890E-10  8.80007E-10  8.74905E-10  8.80642E-10  8.92357E-10  9.16210E-10  9.41958E-10
   9.67343E-10  9.87851E-10  9.98103E-10  1.00694E-09  1.00983E-09  1.05447E-09  1.11684E-09  1.21114E-09  1.35594E-09  1.48080E-09
   1.54111E-09  1.51076E-09  1.41358E-09  1.27323E-09  1.11524E-09  9.82170E-10  8.45021E-10  7.83511E-10  7.19954E-10  6.44324E-10
   6.08506E-10  6.00517E-10  5.84839E-10  5.66659E-10  5.53159E-10  5.29553E-10  4.90775E-10  4.70471E-10  4.60647E-10  4.56763E-10
   4.56831E-10  4.59821E-10  4.65130E-10  4.72378E-10  4.81303E-10  4.91727E-10  5.03512E-10  5.16553E-10  5.30772E-10  5.46104E-10
   5.62488E-10  5.79888E-10  5.98253E-10  6.17559E-10  6.37766E-10  6.58845E-10  6.80751E-10  7.03447E-10  7.26893E-10  7.51052E-10
   7.75889E-10  8.01369E-10  8.27457E-10  8.54120E-10  8.81323E-10  9.09035E-10  9.37222E-10  9.65853E-10  9.94894E-10  1.02432E-09
   1.05408E-09  1.08417E-09  1.11454E-09  1.14516E-09  1.17600E-09  1.20704E-09  1.23823E-09  1.26956E-09  1.30098E-09  1.33247E-09
   1.36400E-09  1.39554E-09  1.42705E-09  1.45846E-09  1.48969E-09  1.52064E-09  1.55122E-09  1.58134E-09  1.61091E-09  1.63982E-09
   1.66801E-09  1.69536E-09  1.72178E-09  1.74720E-09  1.77150E-09  1.79461E-09  1.81643E-09  1.83686E-09  1.85582E-09  1.87322E-09
   1.88895E-09  1.90294E-09  1.91509E-09  1.92530E-09  1.93348E-09  1.93955E-09  1.94342E-09  1.94498E-09  1.94415E-09  1.94085E-09
   1.93496E-09  1.92638E-09  1.91496E-09  1.90057E-09  1.88307E-09  1.86232E-09  1.83818E-09  1.81053E-09  1.77922E-09  1.74413E-09
   1.70512E-09  1.66206E-09  1.61483E-09  1.56331E-09  1.50738E-09  1.44692E-09  1.38184E-09  1.31205E-09  1.23749E-09  1.15813E-09
   1.07400E-09  9.85214E-10  8.92095E-10  7.95303E-10  6.96407E-10  5.99618E-10  5.20779E-10  5.29172E-10  5.55095E-10  6.08899E-10
   7.21961E-10  8.60646E-10  9.33852E-10  8.44275E-10  5.69728E-10  1.65390E-10 -2.90235E-10 -7.66387E-10 -1.23652E-09 -1.51667E-09
  -1.72338E-09 -1.91010E-09 -2.08797E-09 -2.26031E-09 -2.42818E-09 -2.59182E-09 -2.75114E-09 -2.90583E-09 -3.05548E-09 -3.19965E-09
  -3.33785E-09 -3.46958E-09 -3.59431E-09 -3.71150E-09 -3.82063E-09 -3.92114E-09 -4.01266E-09 -4.09534E-09 -4.16944E-09 -4.23523E-09
  -4.29296E-09 -4.34289E-09 -4.38528E-09 -4.42038E-09 -4.44845E-09 -4.46973E-09 -4.48450E-09 -4.49301E-09 -4.49550E-09 -4.49224E-09
  -4.48347E-09 -4.46946E-09 -4.45045E-09 -4.42671E-09 -4.39848E-09 -4.36602E-09 -4.32958E-09 -4.28943E-09 -4.24580E-09 -4.19896E-09
  -4.14916E-09 -4.09666E-09 -4.04170E-09 -3.98454E-09 -3.92542E-09 -3.86450E-09 -3.80194E-09 -3.73793E-09 -3.67262E-09 -3.60619E-09
