 LCModel (Version 6.3-1R) Copyright: S.W. Provencher.          Ref.: Magn. Reson. Med. 30:672-679 (1993).                
 onepulse 19x21_ftSpec_smooth_lcm
 26 lines in following concentration table = NCONC+1
    Conc.  %SD   /Cr    Metabolite                                         
 1.05E-10 163%   0.000 Ala                                                 
 5.30E-10  66%   0.000 Asp                                                 
    0.000 999%   0.000 Cr                                                  
 2.76E-09  13%   0.000 GABA                                                
 1.61E-09  17%   0.000 Glc                                                 
    0.000 999%   0.000 Gln                                                 
 1.54E-10 243%   0.000 Glu                                                 
    0.000 999%   0.000 Glyc                                                
    0.000 999%   0.000 GPC                                                 
 4.35E-11 433%   0.000 GSH                                                 
 1.90E-10 104%   0.000 Ins                                                 
    0.000 999%   0.000 Lac                                                 
    0.000 999%   0.000 NAAG                                                
 1.19E-09  14%   0.000 NAA                                                 
 9.31E-11  51%   0.000 PCh                                                 
    0.000 999%   0.000 PCr                                                 
    0.000 999%   0.000 PE                                                  
    0.000 999%   0.000 Scyllo                                              
    0.000 999%   0.000 Ser                                                 
    0.000 999%   0.000 Tau                                                 
 9.31E-11  51%   0.000 GPC+PCh                                             
 1.19E-09  14%   0.000 NAA+NAAG                                            
 1.90E-10 104%   0.000 Ins+Glyc                                            
    0.000 999%   0.000 Cr+PCr                                              
 1.54E-10 243%   0.000 Glu+Gln                                             
   6 lines in following misc. output table
  FWHM = 0.067 ppm    S/N =   5                                            
  Data shift = 0.335 ppm                                                   
  Ph:  52 deg      31.1 deg/ppm                                            
  alphaB,S = 1.5E-01,   7.3E+01                                            
   16 spline knots.   Ns = 5(1)                                            
  ( 5) 2 infls.   ( 5) 1 extrs.                                            
  363 points on ppm-axis = NY
      4.250000     4.238821     4.227641     4.216462     4.205282     4.194103     4.182923     4.171744     4.160564     4.149385
      4.138206     4.127026     4.115847     4.104667     4.093488     4.082308     4.071129     4.059949     4.048770     4.037591
      4.026411     4.015232     4.004052     3.992873     3.981693     3.970514     3.959334     3.948155     3.936975     3.925796
      3.914617     3.903437     3.892258     3.881078     3.869899     3.858719     3.847540     3.836360     3.825181     3.814002
      3.802822     3.791643     3.780463     3.769284     3.758104     3.746925     3.735745     3.724566     3.713387     3.702207
      3.691028     3.679848     3.668669     3.657489     3.646310     3.635130     3.623951     3.612772     3.601592     3.590413
      3.579233     3.568054     3.556874     3.545695     3.534515     3.523336     3.512156     3.500977     3.489798     3.478618
      3.467439     3.456259     3.445080     3.433900     3.422721     3.411541     3.400362     3.389183     3.378003     3.366824
      3.355644     3.344465     3.333285     3.322106     3.310926     3.299747     3.288568     3.277388     3.266209     3.255029
      3.243850     3.232670     3.221491     3.210311     3.199132     3.187953     3.176773     3.165594     3.154414     3.143235
      3.132055     3.120876     3.109696     3.098517     3.087337     3.076158     3.064979     3.053799     3.042620     3.031440
      3.020261     3.009081     2.997902     2.986722     2.975543     2.964364     2.953184     2.942005     2.930825     2.919646
      2.908466     2.897287     2.886107     2.874928     2.863749     2.852569     2.841390     2.830210     2.819031     2.807851
      2.796672     2.785492     2.774313     2.763134     2.751954     2.740775     2.729595     2.718416     2.707236     2.696057
      2.684877     2.673698     2.662519     2.651339     2.640160     2.628980     2.617801     2.606621     2.595442     2.584262
      2.573083     2.561903     2.550724     2.539545     2.528365     2.517186     2.506006     2.494827     2.483647     2.472468
      2.461288     2.450109     2.438930     2.427750     2.416571     2.405391     2.394212     2.383032     2.371853     2.360673
      2.349494     2.338315     2.327135     2.315956     2.304776     2.293597     2.282417     2.271238     2.260058     2.248879
      2.237700     2.226520     2.215341     2.204161     2.192982     2.181802     2.170623     2.159443     2.148264     2.137084
      2.125905     2.114726     2.103546     2.092367     2.081187     2.070008     2.058828     2.047649     2.036469     2.025290
      2.014111     2.002931     1.991752     1.980572     1.969393     1.958213     1.947034     1.935854     1.924675     1.913496
      1.902316     1.891137     1.879957     1.868778     1.857598     1.846419     1.835239     1.824060     1.812881     1.801701
      1.790522     1.779342     1.768163     1.756983     1.745804     1.734624     1.723445     1.712265     1.701086     1.689907
      1.678727     1.667548     1.656368     1.645189     1.634009     1.622830     1.611650     1.600471     1.589292     1.578112
      1.566933     1.555753     1.544574     1.533394     1.522215     1.511035     1.499856     1.488677     1.477497     1.466318
      1.455138     1.443959     1.432779     1.421600     1.410420     1.399241     1.388062     1.376882     1.365703     1.354523
      1.343344     1.332164     1.320985     1.309805     1.298626     1.287446     1.276267     1.265088     1.253908     1.242729
      1.231549     1.220370     1.209190     1.198011     1.186831     1.175652     1.164473     1.153293     1.142114     1.130934
      1.119755     1.108575     1.097396     1.086216     1.075037     1.063858     1.052678     1.041499     1.030319     1.019140
      1.007960     0.996781     0.985601     0.974422     0.963243     0.952063     0.940884     0.929704     0.918525     0.907345
      0.896166     0.884986     0.873807     0.862628     0.851448     0.840269     0.829089     0.817910     0.806730     0.795551
      0.784371     0.773192     0.762012     0.750833     0.739654     0.728474     0.717295     0.706115     0.694936     0.683756
      0.672577     0.661397     0.650218     0.639039     0.627859     0.616680     0.605500     0.594321     0.583141     0.571962
      0.560782     0.549603     0.538424     0.527244     0.516065     0.504885     0.493706     0.482526     0.471347     0.460167
      0.448988     0.437809     0.426629     0.415450     0.404270     0.393091     0.381911     0.370732     0.359552     0.348373
      0.337193     0.326014     0.314835     0.303655     0.292476     0.281296     0.270117     0.258937     0.247758     0.236578
      0.225399     0.214220     0.203040
 NY phased data points follow
   2.88492E-09  6.11006E-09  7.28274E-09  1.05023E-08  9.29624E-09  8.63432E-09  7.25786E-09  6.18393E-09  5.21406E-09  5.26761E-09
   4.99287E-09  4.98461E-09  5.47332E-09  5.89335E-09  5.88320E-09  6.29840E-09  7.16224E-09  8.06020E-09  6.88745E-09  7.54450E-09
   7.09199E-09  6.89578E-09  7.00443E-09  6.26191E-09  6.15923E-09  5.99409E-09  6.52137E-09  7.15721E-09  7.12012E-09  7.39950E-09
   5.73922E-09  5.54877E-09  6.37559E-09  7.69331E-09  9.63121E-09  1.00134E-08  9.86720E-09  8.54509E-09  7.52144E-09  6.59709E-09
   5.27399E-09  5.23816E-09  4.80738E-09  5.33837E-09  4.51632E-09  4.39359E-09  5.04728E-09  4.37553E-09  3.34035E-09  2.81404E-09
   3.16172E-09  3.44517E-09  3.04475E-09  4.06048E-09  3.48410E-09  4.23232E-09  2.58169E-09  2.94435E-09  2.83271E-09  2.56292E-09
   3.54420E-09  4.34533E-09  4.29263E-09  5.65449E-09  7.38121E-09  9.00505E-09  1.08395E-08  1.01486E-08  8.22253E-09  7.19754E-09
   5.41428E-09  5.49105E-09  4.45401E-09  3.36177E-09  3.06697E-09  3.44017E-09  2.70185E-09  2.70112E-09  3.19063E-09  3.92623E-09
   6.51959E-09  1.08693E-08  1.33926E-08  1.30896E-08  1.18920E-08  1.02032E-08  8.20699E-09  7.58809E-09  6.78337E-09  6.54854E-09
   5.98134E-09  5.64399E-09  5.81927E-09  5.56136E-09  4.57428E-09  4.27168E-09  3.75556E-09  4.29174E-09  2.83536E-09  2.84304E-09
   2.94488E-09  2.87933E-09  3.55387E-09  2.79636E-09  3.60551E-09  3.14240E-09  2.88363E-09  3.63173E-09  2.58968E-09  2.99397E-09
   2.16962E-09  2.13611E-09  1.62864E-09  2.13218E-09  2.17496E-09  3.23335E-09  2.45727E-09  3.06260E-09  3.07202E-09  3.24897E-09
   2.97053E-09  3.32948E-09  3.02290E-09  2.81136E-09  2.27517E-09  1.88340E-09  1.12074E-09  1.66644E-09  1.43193E-09  1.90246E-09
   2.28627E-09  2.15695E-09  2.16394E-09  2.91936E-09  3.21543E-09  2.60907E-09  2.20049E-09  2.70868E-09  2.06941E-09  2.18645E-09
   3.31529E-09  3.62093E-09  4.60871E-09  4.34057E-09  3.44522E-09  3.67002E-09  3.91606E-09  3.87823E-09  4.45574E-09  4.62757E-09
   4.21932E-09  3.82709E-09  3.62761E-09  4.10775E-09  3.67052E-09  4.06905E-09  3.97274E-09  4.47042E-09  4.33137E-09  4.96777E-09
   4.63238E-09  4.90543E-09  4.88693E-09  5.60243E-09  5.82964E-09  6.32881E-09  6.79396E-09  7.19214E-09  7.64764E-09  9.42468E-09
   1.11352E-08  1.35763E-08  1.64992E-08  1.79713E-08  1.49368E-08  1.17740E-08  8.27361E-09  6.55347E-09  5.03195E-09  4.97566E-09
   3.93059E-09  3.50015E-09  2.48951E-09  2.94393E-09  2.16677E-09  2.19802E-09  1.50525E-10  8.45266E-10  5.37663E-11 -7.46992E-10
  -9.33128E-10 -1.26084E-09 -2.58500E-09 -3.12797E-09 -3.67796E-09 -4.54302E-09 -5.26392E-09 -6.09199E-09 -7.13682E-09 -8.01215E-09
  -8.39889E-09 -9.67908E-09 -1.00071E-08 -1.01690E-08 -1.06220E-08 -1.07300E-08 -1.04349E-08 -1.03273E-08 -9.51806E-09 -8.97495E-09
  -9.11711E-09 -7.40336E-09 -6.06461E-09 -5.79350E-09 -4.22418E-09 -3.26219E-09 -2.86777E-09 -2.48940E-09 -1.97361E-09 -1.30906E-09
  -1.98412E-09 -2.52966E-09 -2.38395E-09 -1.75096E-09 -2.40559E-09 -2.50521E-09 -1.93991E-09 -1.98201E-09 -2.11530E-09 -2.03824E-09
  -1.51723E-09 -2.17889E-09 -2.03899E-09 -1.78709E-09 -2.69933E-09 -2.36940E-09 -2.20184E-09 -1.64999E-09 -1.77053E-09 -2.07911E-09
  -1.77651E-09 -1.11188E-09 -1.88821E-09 -1.57320E-09 -2.29125E-09 -2.00892E-09 -1.86745E-09 -2.14709E-09 -1.63367E-09 -1.85139E-09
  -1.66573E-09 -1.06595E-09 -1.41768E-09 -1.55285E-09 -5.47592E-10 -1.41299E-09 -1.46729E-09 -1.24514E-09 -2.06043E-09 -1.21573E-09
  -1.87791E-09 -2.55810E-09 -2.22046E-09 -2.25619E-09 -1.97231E-09 -1.79319E-09 -1.63112E-09 -6.35855E-10 -8.85767E-10 -8.43215E-10
  -9.48420E-10 -7.23653E-10 -7.29883E-10 -6.78844E-10 -8.06386E-10 -7.45728E-10 -1.05237E-09 -6.73190E-10 -1.45829E-09 -1.54792E-09
  -1.09608E-09 -1.95786E-09 -2.02527E-09 -1.30891E-09 -1.73938E-09 -1.54083E-09 -1.64035E-09 -1.57247E-09 -1.77210E-09 -1.19962E-09
  -1.43479E-09 -1.85143E-09 -1.52808E-09 -6.72276E-10 -9.61759E-10 -1.37463E-09 -1.47200E-09 -1.20462E-09 -1.20075E-09 -1.34268E-09
  -8.23653E-10 -9.66716E-10 -1.59923E-09 -7.01098E-10 -1.65302E-09 -5.19763E-10 -5.83604E-10 -8.50042E-10 -7.71036E-10 -1.31653E-09
  -9.54350E-10 -1.05726E-09 -5.35336E-10 -5.34516E-10 -5.66373E-10 -1.09922E-09 -1.25477E-09 -6.79406E-10 -9.25972E-10 -4.16915E-10
  -9.83657E-10 -8.52024E-10 -9.04087E-10 -6.60222E-10 -8.08489E-10 -5.15361E-10 -1.32567E-09 -3.60870E-10 -4.03772E-10 -3.88672E-10
  -9.59574E-10 -6.09297E-10 -6.81159E-10 -7.29970E-10 -2.93088E-10 -7.87304E-10 -2.76437E-10 -1.06567E-09 -4.40116E-10 -6.76351E-10
  -9.63220E-10 -1.27008E-09 -2.00126E-11 -1.05997E-10 -1.08288E-09 -3.99119E-10 -5.91551E-10 -9.76314E-10 -5.38256E-10 -5.98898E-10
  -2.65917E-10 -8.17746E-10 -6.24203E-10 -8.68045E-10 -5.77744E-10 -2.69231E-10 -9.27163E-10 -6.96822E-10 -1.04180E-09 -5.81139E-10
  -6.84275E-10 -9.17988E-10 -9.41212E-10
 NY points of the fit to the data follow
   6.20689E-09  6.75505E-09  7.25094E-09  7.58911E-09  7.65579E-09  7.42209E-09  6.93060E-09  6.33253E-09  5.83002E-09  5.43038E-09
   5.26223E-09  5.27265E-09  5.38978E-09  5.59992E-09  5.92696E-09  6.34307E-09  6.80904E-09  7.31741E-09  7.78312E-09  8.09159E-09
   8.16787E-09  7.86296E-09  7.20476E-09  6.50051E-09  5.90653E-09  5.53122E-09  5.51737E-09  5.88983E-09  6.43897E-09  6.90468E-09
   7.10199E-09  7.32326E-09  7.65492E-09  7.87108E-09  8.05953E-09  8.39688E-09  8.65052E-09  8.59027E-09  8.17591E-09  7.50980E-09
   6.75764E-09  5.90669E-09  4.91120E-09  4.18321E-09  3.73350E-09  3.34269E-09  3.13465E-09  3.14160E-09  3.26368E-09  3.37833E-09
   3.43628E-09  3.42311E-09  3.40529E-09  3.39403E-09  3.41189E-09  3.47281E-09  3.53960E-09  3.56831E-09  3.53795E-09  3.52319E-09
   3.69596E-09  4.17921E-09  4.78011E-09  5.47192E-09  6.46531E-09  7.33461E-09  7.91659E-09  8.33413E-09  8.52544E-09  8.34207E-09
   7.76284E-09  6.84237E-09  5.80106E-09  4.92959E-09  4.09754E-09  3.45176E-09  3.44141E-09  4.12597E-09  5.09725E-09  6.46342E-09
   8.09297E-09  9.81562E-09  1.13737E-08  1.20922E-08  1.16878E-08  1.05448E-08  9.05502E-09  7.52169E-09  6.27697E-09  5.87711E-09
   5.73285E-09  5.60964E-09  5.30510E-09  4.84674E-09  4.50822E-09  4.12835E-09  3.65456E-09  3.33611E-09  3.10798E-09  2.90640E-09
   2.80113E-09  2.75280E-09  2.74895E-09  2.79640E-09  2.86078E-09  2.91736E-09  2.95364E-09  2.96777E-09  2.95870E-09  2.92407E-09
   2.86717E-09  2.80646E-09  2.76747E-09  2.72574E-09  2.69701E-09  2.70581E-09  2.72736E-09  2.75461E-09  2.78496E-09  2.81716E-09
   2.85049E-09  2.88444E-09  2.91865E-09  2.95282E-09  2.98672E-09  3.02017E-09  3.05297E-09  3.08499E-09  3.11608E-09  3.14609E-09
   3.17491E-09  3.20242E-09  3.22848E-09  3.25300E-09  3.27585E-09  3.29694E-09  3.31616E-09  3.33341E-09  3.34861E-09  3.36165E-09
   3.37244E-09  3.38080E-09  3.38653E-09  3.38945E-09  3.38938E-09  3.38614E-09  3.37955E-09  3.36944E-09  3.35565E-09  3.33806E-09
   3.31654E-09  3.29099E-09  3.26137E-09  3.22765E-09  3.18988E-09  3.14820E-09  3.10287E-09  3.05435E-09  3.00340E-09  2.95127E-09
   2.90002E-09  2.85322E-09  2.81740E-09  2.80576E-09  2.84981E-09  3.04977E-09  3.84855E-09  5.46751E-09  7.57256E-09  1.00157E-08
   1.27639E-08  1.53940E-08  1.70801E-08  1.70817E-08  1.52502E-08  1.20752E-08  8.33110E-09  4.75634E-09  2.22637E-09  1.00033E-09
   4.23105E-10  3.23517E-11 -2.81142E-10 -5.54192E-10 -8.02696E-10 -1.03455E-09 -1.25397E-09 -1.46328E-09 -1.66376E-09 -1.85608E-09
  -2.04052E-09 -2.21709E-09 -2.38566E-09 -2.54595E-09 -2.69763E-09 -2.84029E-09 -2.97365E-09 -3.09789E-09 -3.21329E-09 -3.32011E-09
  -3.41856E-09 -3.50887E-09 -3.59127E-09 -3.66595E-09 -3.73312E-09 -3.79297E-09 -3.84569E-09 -3.89147E-09 -3.93050E-09 -3.96295E-09
  -3.98902E-09 -4.00888E-09 -4.02269E-09 -4.03066E-09 -4.03294E-09 -4.02972E-09 -4.02116E-09 -4.00744E-09 -3.98873E-09 -3.96521E-09
  -3.93705E-09 -3.90441E-09 -3.86747E-09 -3.82639E-09 -3.78139E-09 -3.73269E-09 -3.68056E-09 -3.62523E-09 -3.56697E-09 -3.50603E-09
  -3.44266E-09 -3.37709E-09 -3.30961E-09 -3.24044E-09 -3.16983E-09 -3.09805E-09 -3.02534E-09 -2.95195E-09 -2.87812E-09 -2.80412E-09
  -2.73019E-09 -2.65658E-09 -2.58354E-09 -2.51133E-09 -2.44018E-09 -2.37035E-09 -2.30208E-09 -2.23564E-09 -2.17126E-09 -2.10921E-09
  -2.04971E-09 -1.99304E-09 -1.93928E-09 -1.88835E-09 -1.84016E-09 -1.79460E-09 -1.75157E-09 -1.71097E-09 -1.67271E-09 -1.63668E-09
  -1.60280E-09 -1.57094E-09 -1.54102E-09 -1.51294E-09 -1.48660E-09 -1.46189E-09 -1.43871E-09 -1.41699E-09 -1.39660E-09 -1.37745E-09
  -1.35944E-09 -1.34247E-09 -1.32644E-09 -1.31125E-09 -1.29681E-09 -1.28300E-09 -1.26974E-09 -1.25693E-09 -1.24446E-09 -1.23224E-09
  -1.22021E-09 -1.20837E-09 -1.19670E-09 -1.18521E-09 -1.17387E-09 -1.16269E-09 -1.15166E-09 -1.14076E-09 -1.12998E-09 -1.11933E-09
  -1.10879E-09 -1.09835E-09 -1.08801E-09 -1.07775E-09 -1.06757E-09 -1.05746E-09 -1.04741E-09 -1.03741E-09 -1.02746E-09 -1.01754E-09
  -1.00765E-09 -9.97782E-10 -9.87921E-10 -9.78069E-10 -9.68209E-10 -9.58333E-10 -9.48438E-10 -9.38509E-10 -9.28559E-10 -9.18599E-10
  -9.08643E-10 -8.98706E-10 -8.88803E-10 -8.78943E-10 -8.69145E-10 -8.59420E-10 -8.49783E-10 -8.40247E-10 -8.30829E-10 -8.21537E-10
  -8.12394E-10 -8.03403E-10 -7.94583E-10 -7.85953E-10 -7.77517E-10 -7.69299E-10 -7.61306E-10 -7.53551E-10 -7.46052E-10 -7.38826E-10
  -7.31877E-10 -7.25226E-10 -7.18883E-10 -7.12867E-10 -7.07190E-10 -7.01857E-10 -6.96868E-10 -6.92211E-10 -6.87868E-10 -6.83828E-10
  -6.80077E-10 -6.76602E-10 -6.73389E-10 -6.70425E-10 -6.67700E-10 -6.65193E-10 -6.62900E-10 -6.60802E-10 -6.58887E-10 -6.57142E-10
  -6.55551E-10 -6.54105E-10 -6.52789E-10 -6.51589E-10 -6.50492E-10 -6.49486E-10 -6.48557E-10 -6.47688E-10 -6.46871E-10 -6.46093E-10
  -6.45338E-10 -6.44594E-10 -6.43844E-10
 NY background values follow
     2.552E-10    2.537E-10    2.521E-10    2.505E-10    2.489E-10    2.472E-10    2.455E-10    2.437E-10    2.419E-10    2.400E-10
     2.381E-10    2.361E-10    2.341E-10    2.320E-10    2.298E-10    2.276E-10    2.253E-10    2.229E-10    2.205E-10    2.180E-10
     2.154E-10    2.127E-10    2.099E-10    2.071E-10    2.042E-10    2.011E-10    1.980E-10    1.948E-10    1.915E-10    1.881E-10
     1.846E-10    1.811E-10    1.776E-10    1.741E-10    1.707E-10    1.673E-10    1.640E-10    1.609E-10    1.579E-10    1.551E-10
     1.525E-10    1.502E-10    1.481E-10    1.464E-10    1.449E-10    1.438E-10    1.431E-10    1.428E-10    1.429E-10    1.435E-10
     1.446E-10    1.463E-10    1.484E-10    1.512E-10    1.546E-10    1.586E-10    1.632E-10    1.686E-10    1.746E-10    1.814E-10
     1.889E-10    1.971E-10    2.061E-10    2.159E-10    2.264E-10    2.378E-10    2.499E-10    2.629E-10    2.768E-10    2.915E-10
     3.071E-10    3.235E-10    3.409E-10    3.592E-10    3.784E-10    3.986E-10    4.197E-10    4.418E-10    4.649E-10    4.890E-10
     5.141E-10    5.402E-10    5.674E-10    5.956E-10    6.249E-10    6.553E-10    6.867E-10    7.191E-10    7.524E-10    7.867E-10
     8.219E-10    8.579E-10    8.947E-10    9.323E-10    9.707E-10    1.010E-09    1.050E-09    1.090E-09    1.131E-09    1.172E-09
     1.215E-09    1.257E-09    1.300E-09    1.344E-09    1.388E-09    1.432E-09    1.476E-09    1.521E-09    1.566E-09    1.611E-09
     1.657E-09    1.703E-09    1.748E-09    1.794E-09    1.840E-09    1.885E-09    1.930E-09    1.975E-09    2.020E-09    2.064E-09
     2.107E-09    2.150E-09    2.192E-09    2.233E-09    2.273E-09    2.312E-09    2.349E-09    2.386E-09    2.421E-09    2.455E-09
     2.487E-09    2.517E-09    2.546E-09    2.573E-09    2.598E-09    2.621E-09    2.641E-09    2.660E-09    2.676E-09    2.690E-09
     2.702E-09    2.711E-09    2.717E-09    2.719E-09    2.719E-09    2.715E-09    2.707E-09    2.696E-09    2.680E-09    2.660E-09
     2.636E-09    2.607E-09    2.573E-09    2.533E-09    2.489E-09    2.438E-09    2.382E-09    2.321E-09    2.252E-09    2.178E-09
     2.097E-09    2.009E-09    1.914E-09    1.812E-09    1.702E-09    1.585E-09    1.460E-09    1.327E-09    1.186E-09    1.037E-09
     8.813E-10    7.189E-10    5.505E-10    3.769E-10    1.987E-10    1.636E-11   -1.694E-10   -3.580E-10   -5.489E-10   -7.414E-10
    -9.349E-10   -1.129E-09   -1.323E-09   -1.516E-09   -1.707E-09   -1.897E-09   -2.084E-09   -2.267E-09   -2.447E-09   -2.623E-09
    -2.793E-09   -2.958E-09   -3.116E-09   -3.268E-09   -3.412E-09   -3.548E-09   -3.676E-09   -3.795E-09   -3.906E-09   -4.008E-09
    -4.103E-09   -4.190E-09   -4.270E-09   -4.341E-09   -4.406E-09   -4.464E-09   -4.514E-09   -4.558E-09   -4.595E-09   -4.626E-09
    -4.650E-09   -4.669E-09   -4.681E-09   -4.688E-09   -4.689E-09   -4.685E-09   -4.675E-09   -4.660E-09   -4.641E-09   -4.616E-09
    -4.587E-09   -4.554E-09   -4.516E-09   -4.474E-09   -4.428E-09   -4.379E-09   -4.326E-09   -4.270E-09   -4.211E-09   -4.150E-09
    -4.086E-09   -4.020E-09   -3.952E-09   -3.882E-09   -3.811E-09   -3.739E-09   -3.666E-09   -3.592E-09   -3.517E-09   -3.443E-09
    -3.369E-09   -3.295E-09   -3.221E-09   -3.149E-09   -3.077E-09   -3.007E-09   -2.938E-09   -2.871E-09   -2.807E-09   -2.744E-09
    -2.685E-09   -2.628E-09   -2.573E-09   -2.522E-09   -2.474E-09   -2.428E-09   -2.384E-09   -2.344E-09   -2.305E-09   -2.269E-09
    -2.234E-09   -2.202E-09   -2.172E-09   -2.144E-09   -2.117E-09   -2.092E-09   -2.069E-09   -2.047E-09   -2.026E-09   -2.007E-09
    -1.988E-09   -1.971E-09   -1.955E-09   -1.939E-09   -1.925E-09   -1.911E-09   -1.897E-09   -1.884E-09   -1.871E-09   -1.859E-09
    -1.846E-09   -1.834E-09   -1.822E-09   -1.811E-09   -1.799E-09   -1.788E-09   -1.776E-09   -1.765E-09   -1.754E-09   -1.743E-09
    -1.732E-09   -1.722E-09   -1.711E-09   -1.701E-09   -1.690E-09   -1.680E-09   -1.669E-09   -1.659E-09   -1.649E-09   -1.639E-09
    -1.629E-09   -1.618E-09   -1.608E-09   -1.598E-09   -1.588E-09   -1.578E-09   -1.568E-09   -1.558E-09   -1.547E-09   -1.537E-09
    -1.527E-09   -1.517E-09   -1.506E-09   -1.496E-09   -1.486E-09   -1.476E-09   -1.466E-09   -1.457E-09   -1.447E-09   -1.437E-09
    -1.428E-09   -1.419E-09   -1.409E-09   -1.400E-09   -1.392E-09   -1.383E-09   -1.375E-09   -1.367E-09   -1.359E-09   -1.352E-09
    -1.344E-09   -1.337E-09   -1.331E-09   -1.324E-09   -1.318E-09   -1.313E-09   -1.307E-09   -1.302E-09   -1.298E-09   -1.293E-09
    -1.289E-09   -1.285E-09   -1.282E-09   -1.279E-09   -1.276E-09   -1.273E-09   -1.270E-09   -1.268E-09   -1.265E-09   -1.263E-09
    -1.261E-09   -1.260E-09   -1.258E-09   -1.256E-09   -1.255E-09   -1.254E-09   -1.252E-09   -1.251E-09   -1.250E-09   -1.249E-09
    -1.248E-09   -1.246E-09   -1.245E-09
 Ala      Conc. = 1.05E-10
   3.33823E-10  3.40367E-10  3.44140E-10  3.45577E-10  3.44471E-10  3.40815E-10  3.33694E-10  3.22243E-10  3.11332E-10  3.01185E-10
   2.87161E-10  2.75214E-10  2.66998E-10  2.58365E-10  2.51041E-10  2.45677E-10  2.41289E-10  2.37436E-10  2.33893E-10  2.30533E-10
   2.27276E-10  2.24073E-10  2.20886E-10  2.17691E-10  2.14468E-10  2.11203E-10  2.07884E-10  2.04501E-10  2.01047E-10  1.97523E-10
   1.93952E-10  1.90356E-10  1.86763E-10  1.83200E-10  1.79692E-10  1.76266E-10  1.72949E-10  1.69769E-10  1.66753E-10  1.63928E-10
   1.61323E-10  1.58963E-10  1.56878E-10  1.55095E-10  1.53642E-10  1.52546E-10  1.51836E-10  1.51540E-10  1.51685E-10  1.52299E-10
   1.53412E-10  1.55049E-10  1.57240E-10  1.60013E-10  1.63398E-10  1.67418E-10  1.72104E-10  1.77481E-10  1.83562E-10  1.90362E-10
   1.97896E-10  2.06178E-10  2.15222E-10  2.25044E-10  2.35658E-10  2.47079E-10  2.59321E-10  2.72399E-10  2.86328E-10  3.01124E-10
   3.16801E-10  3.33374E-10  3.50859E-10  3.69271E-10  3.88625E-10  4.08939E-10  4.30227E-10  4.52507E-10  4.75794E-10  5.00107E-10
   5.25463E-10  5.51882E-10  5.79381E-10  6.07984E-10  6.37710E-10  6.68563E-10  7.00519E-10  7.33560E-10  7.67673E-10  8.02851E-10
   8.39098E-10  8.76433E-10  9.14899E-10  9.54575E-10  9.95604E-10  1.03824E-09  1.08297E-09  1.13076E-09  1.18399E-09  1.25029E-09
   1.34131E-09  1.43320E-09  1.53466E-09  1.66409E-09  1.79404E-09  1.90402E-09  1.98441E-09  2.03548E-09  2.05784E-09  2.05028E-09
   2.01708E-09  1.97709E-09  1.95624E-09  1.93044E-09  1.91574E-09  1.93697E-09  1.96971E-09  2.00702E-09  2.04644E-09  2.08683E-09
   2.12755E-09  2.16819E-09  2.20847E-09  2.24817E-09  2.28713E-09  2.32518E-09  2.36220E-09  2.39806E-09  2.43264E-09  2.46584E-09
   2.49755E-09  2.52767E-09  2.55610E-09  2.58272E-09  2.60746E-09  2.63021E-09  2.65086E-09  2.66934E-09  2.68554E-09  2.69937E-09
   2.71071E-09  2.71941E-09  2.72525E-09  2.72802E-09  2.72752E-09  2.72354E-09  2.71588E-09  2.70431E-09  2.68865E-09  2.66868E-09
   2.64420E-09  2.61499E-09  2.58086E-09  2.54160E-09  2.49701E-09  2.44688E-09  2.39102E-09  2.32922E-09  2.26130E-09  2.18705E-09
   2.10631E-09  2.01892E-09  1.92477E-09  1.82381E-09  1.71624E-09  1.60301E-09  1.48906E-09  1.38627E-09  1.28091E-09  1.17294E-09
   1.06461E-09  9.50371E-10  8.16214E-10  6.48117E-10  4.43553E-10  2.11666E-10 -3.30182E-11 -2.78184E-10 -5.11183E-10 -7.16394E-10
  -9.15291E-10 -1.11219E-09 -1.30781E-09 -1.50206E-09 -1.69453E-09 -1.88478E-09 -2.07225E-09 -2.25640E-09 -2.43663E-09 -2.61237E-09
  -2.78302E-09 -2.94799E-09 -3.10667E-09 -3.25846E-09 -3.40277E-09 -3.53899E-09 -3.66667E-09 -3.78589E-09 -3.89682E-09 -3.99962E-09
  -4.09446E-09 -4.18151E-09 -4.26094E-09 -4.33292E-09 -4.39762E-09 -4.45520E-09 -4.50583E-09 -4.54968E-09 -4.58692E-09 -4.61771E-09
  -4.64224E-09 -4.66064E-09 -4.67311E-09 -4.67981E-09 -4.68090E-09 -4.67656E-09 -4.66694E-09 -4.65222E-09 -4.63257E-09 -4.60815E-09
  -4.57914E-09 -4.54568E-09 -4.50797E-09 -4.46616E-09 -4.42045E-09 -4.37108E-09 -4.31830E-09 -4.26235E-09 -4.20350E-09 -4.14198E-09
  -4.07805E-09 -4.01196E-09 -3.94396E-09 -3.87429E-09 -3.80320E-09 -3.73095E-09 -3.65779E-09 -3.58396E-09 -3.50970E-09 -3.43529E-09
  -3.36096E-09 -3.28695E-09 -3.21352E-09 -3.14093E-09 -3.06941E-09 -2.99922E-09 -2.93060E-09 -2.86381E-09 -2.79910E-09 -2.73671E-09
  -2.67688E-09 -2.61989E-09 -2.56582E-09 -2.51457E-09 -2.46607E-09 -2.42021E-09 -2.37688E-09 -2.33599E-09 -2.29743E-09 -2.26112E-09
  -2.22694E-09 -2.19480E-09 -2.16460E-09 -2.13624E-09 -2.10962E-09 -2.08464E-09 -2.06119E-09 -2.03920E-09 -2.01855E-09 -1.99913E-09
  -1.98085E-09 -1.96362E-09 -1.94732E-09 -1.93187E-09 -1.91717E-09 -1.90310E-09 -1.88958E-09 -1.87651E-09 -1.86379E-09 -1.85130E-09
  -1.83902E-09 -1.82692E-09 -1.81500E-09 -1.80324E-09 -1.79166E-09 -1.78022E-09 -1.76893E-09 -1.75777E-09 -1.74674E-09 -1.73583E-09
  -1.72503E-09 -1.71434E-09 -1.70373E-09 -1.69322E-09 -1.68278E-09 -1.67241E-09 -1.66210E-09 -1.65184E-09 -1.64163E-09 -1.63144E-09
  -1.62129E-09 -1.61116E-09 -1.60103E-09 -1.59092E-09 -1.58079E-09 -1.57065E-09 -1.56048E-09 -1.55028E-09 -1.54006E-09 -1.52983E-09
  -1.51960E-09 -1.50939E-09 -1.49921E-09 -1.48908E-09 -1.47900E-09 -1.46900E-09 -1.45908E-09 -1.44926E-09 -1.43956E-09 -1.42998E-09
  -1.42055E-09 -1.41128E-09 -1.40217E-09 -1.39325E-09 -1.38452E-09 -1.37601E-09 -1.36772E-09 -1.35967E-09 -1.35187E-09 -1.34434E-09
  -1.33709E-09 -1.33014E-09 -1.32349E-09 -1.31716E-09 -1.31118E-09 -1.30553E-09 -1.30023E-09 -1.29526E-09 -1.29060E-09 -1.28624E-09
  -1.28217E-09 -1.27837E-09 -1.27483E-09 -1.27154E-09 -1.26849E-09 -1.26565E-09 -1.26302E-09 -1.26059E-09 -1.25834E-09 -1.25625E-09
  -1.25432E-09 -1.25253E-09 -1.25087E-09 -1.24932E-09 -1.24787E-09 -1.24652E-09 -1.24523E-09 -1.24401E-09 -1.24283E-09 -1.24169E-09
  -1.24057E-09 -1.23946E-09 -1.23834E-09
 Asp      Conc. = 5.30E-10
   8.85699E-10  8.08863E-10  7.24426E-10  6.29154E-10  5.38577E-10  4.50629E-10  3.84954E-10  3.37423E-10  3.14190E-10  3.00621E-10
   2.91903E-10  2.85950E-10  2.81651E-10  2.78334E-10  2.75404E-10  2.72728E-10  2.70317E-10  2.68131E-10  2.66132E-10  2.64293E-10
   2.62600E-10  2.61048E-10  2.59643E-10  2.58396E-10  2.57331E-10  2.56482E-10  2.55897E-10  2.55639E-10  2.55800E-10  2.56511E-10
   2.57973E-10  2.60472E-10  2.64427E-10  2.70498E-10  2.79850E-10  2.94896E-10  3.21322E-10  3.53017E-10  3.95562E-10  4.37607E-10
   4.75597E-10  5.06164E-10  5.29372E-10  5.54754E-10  5.84685E-10  6.51705E-10  7.34112E-10  8.38263E-10  9.82433E-10  1.10983E-09
   1.17731E-09  1.16063E-09  1.07685E-09  9.52215E-10  8.17922E-10  7.09847E-10  6.19995E-10  5.68905E-10  5.09510E-10  4.51257E-10
   4.32272E-10  4.31800E-10  4.29004E-10  4.25327E-10  4.16786E-10  3.98126E-10  3.74869E-10  3.66431E-10  3.66098E-10  3.70618E-10
   3.78496E-10  3.88935E-10  4.01465E-10  4.15790E-10  4.31713E-10  4.49102E-10  4.67863E-10  4.87930E-10  5.09258E-10  5.31813E-10
   5.55571E-10  5.80520E-10  6.06647E-10  6.33949E-10  6.62422E-10  6.92046E-10  7.22773E-10  7.54560E-10  7.87364E-10  8.21141E-10
   8.55851E-10  8.91452E-10  9.27907E-10  9.65174E-10  1.00322E-09  1.04199E-09  1.08147E-09  1.12161E-09  1.16236E-09  1.20371E-09
   1.24560E-09  1.28801E-09  1.33089E-09  1.37420E-09  1.41792E-09  1.46201E-09  1.50642E-09  1.55113E-09  1.59609E-09  1.64128E-09
   1.68665E-09  1.73217E-09  1.77780E-09  1.82347E-09  1.86909E-09  1.91456E-09  1.95979E-09  2.00469E-09  2.04916E-09  2.09312E-09
   2.13646E-09  2.17910E-09  2.22093E-09  2.26188E-09  2.30184E-09  2.34072E-09  2.37842E-09  2.41486E-09  2.44995E-09  2.48358E-09
   2.51566E-09  2.54611E-09  2.57483E-09  2.60172E-09  2.62670E-09  2.64967E-09  2.67054E-09  2.68921E-09  2.70559E-09  2.71960E-09
   2.73112E-09  2.74000E-09  2.74601E-09  2.74897E-09  2.74865E-09  2.74487E-09  2.73741E-09  2.72607E-09  2.71066E-09  2.69095E-09
   2.66677E-09  2.63790E-09  2.60415E-09  2.56534E-09  2.52127E-09  2.47175E-09  2.41662E-09  2.35572E-09  2.28891E-09  2.21607E-09
   2.13716E-09  2.05222E-09  1.96148E-09  1.86553E-09  1.76596E-09  1.66735E-09  1.58861E-09  1.60142E-09  1.63917E-09  1.69325E-09
   1.77484E-09  1.85956E-09  1.87743E-09  1.75060E-09  1.45556E-09  1.03041E-09  5.46093E-10  6.43528E-11 -3.58151E-10 -6.27574E-10
  -8.50684E-10 -1.06007E-09 -1.26323E-09 -1.46245E-09 -1.65844E-09 -1.85126E-09 -2.04070E-09 -2.22638E-09 -2.40783E-09 -2.58455E-09
  -2.75602E-09 -2.92167E-09 -3.08093E-09 -3.23321E-09 -3.37794E-09 -3.51453E-09 -3.64254E-09 -3.76204E-09 -3.87321E-09 -3.97623E-09
  -4.07127E-09 -4.15850E-09 -4.23809E-09 -4.31022E-09 -4.37505E-09 -4.43274E-09 -4.48349E-09 -4.52744E-09 -4.56477E-09 -4.59565E-09
  -4.62025E-09 -4.63873E-09 -4.65127E-09 -4.65803E-09 -4.65918E-09 -4.65489E-09 -4.64533E-09 -4.63065E-09 -4.61105E-09 -4.58667E-09
  -4.55770E-09 -4.52428E-09 -4.48661E-09 -4.44483E-09 -4.39915E-09 -4.34981E-09 -4.29706E-09 -4.24114E-09 -4.18232E-09 -4.12083E-09
