 LCModel (Version 6.3-1R) Copyright: S.W. Provencher.          Ref.: Magn. Reson. Med. 30:672-679 (1993).                
 onepulse 19x26_ftSpec_smooth_lcm
 26 lines in following concentration table = NCONC+1
    Conc.  %SD /Cr+PCr  Metabolite                                         
    0.000 999%   0.000 Ala                                                 
    0.000 999%   0.000 Asp                                                 
    0.000 999%   0.000 Cr                                                  
    0.000 999%   0.000 GABA                                                
 4.41E-10 173%   0.908 Glc                                                 
 6.57E-10 119%   1.352 Gln                                                 
 9.11E-10  71%   1.874 Glu                                                 
    0.000 999%   0.000 Glyc                                                
    0.000 999%   0.000 GPC                                                 
    0.000 999%   0.000 GSH                                                 
 1.49E-09  30%   3.059 Ins                                                 
    0.000 999%   0.000 Lac                                                 
    0.000 999%   0.000 NAAG                                                
 1.01E-09  27%   2.078 NAA                                                 
 1.99E-10  41%   0.410 PCh                                                 
 4.86E-10  50%   1.000 PCr                                                 
    0.000 999%   0.000 PE                                                  
 2.14E-10  80%   0.439 Scyllo                                              
 3.47E-09  24%   7.137 Ser                                                 
    0.000 999%   0.000 Tau                                                 
 1.99E-10  41%   0.410 GPC+PCh                                             
 1.01E-09  27%   2.078 NAA+NAAG                                            
 1.49E-09  30%   3.059 Ins+Glyc                                            
 4.86E-10  50%   1.000 Cr+PCr                                              
 1.57E-09  35%   3.226 Glu+Gln                                             
   6 lines in following misc. output table
  FWHM = 0.089 ppm    S/N =   3                                            
  Data shift = 0.347 ppm                                                   
  Ph: -25 deg     -19.2 deg/ppm                                            
  alphaB,S = 1.8E-01,   2.4E+01                                            
   16 spline knots.   Ns = 5(1)                                            
  (10) 2 infls.   ( 9) 1 extrs.                                            
  363 points on ppm-axis = NY
      4.250000     4.238821     4.227641     4.216462     4.205282     4.194103     4.182923     4.171744     4.160564     4.149385
      4.138206     4.127026     4.115847     4.104667     4.093488     4.082308     4.071129     4.059949     4.048770     4.037591
      4.026411     4.015232     4.004052     3.992873     3.981693     3.970514     3.959334     3.948155     3.936975     3.925796
      3.914617     3.903437     3.892258     3.881078     3.869899     3.858719     3.847540     3.836360     3.825181     3.814002
      3.802822     3.791643     3.780463     3.769284     3.758104     3.746925     3.735745     3.724566     3.713387     3.702207
      3.691028     3.679848     3.668669     3.657489     3.646310     3.635130     3.623951     3.612772     3.601592     3.590413
      3.579233     3.568054     3.556874     3.545695     3.534515     3.523336     3.512156     3.500977     3.489798     3.478618
      3.467439     3.456259     3.445080     3.433900     3.422721     3.411541     3.400362     3.389183     3.378003     3.366824
      3.355644     3.344465     3.333285     3.322106     3.310926     3.299747     3.288568     3.277388     3.266209     3.255029
      3.243850     3.232670     3.221491     3.210311     3.199132     3.187953     3.176773     3.165594     3.154414     3.143235
      3.132055     3.120876     3.109696     3.098517     3.087337     3.076158     3.064979     3.053799     3.042620     3.031440
      3.020261     3.009081     2.997902     2.986722     2.975543     2.964364     2.953184     2.942005     2.930825     2.919646
      2.908466     2.897287     2.886107     2.874928     2.863749     2.852569     2.841390     2.830210     2.819031     2.807851
      2.796672     2.785492     2.774313     2.763134     2.751954     2.740775     2.729595     2.718416     2.707236     2.696057
      2.684877     2.673698     2.662519     2.651339     2.640160     2.628980     2.617801     2.606621     2.595442     2.584262
      2.573083     2.561903     2.550724     2.539545     2.528365     2.517186     2.506006     2.494827     2.483647     2.472468
      2.461288     2.450109     2.438930     2.427750     2.416571     2.405391     2.394212     2.383032     2.371853     2.360673
      2.349494     2.338315     2.327135     2.315956     2.304776     2.293597     2.282417     2.271238     2.260058     2.248879
      2.237700     2.226520     2.215341     2.204161     2.192982     2.181802     2.170623     2.159443     2.148264     2.137084
      2.125905     2.114726     2.103546     2.092367     2.081187     2.070008     2.058828     2.047649     2.036469     2.025290
      2.014111     2.002931     1.991752     1.980572     1.969393     1.958213     1.947034     1.935854     1.924675     1.913496
      1.902316     1.891137     1.879957     1.868778     1.857598     1.846419     1.835239     1.824060     1.812881     1.801701
      1.790522     1.779342     1.768163     1.756983     1.745804     1.734624     1.723445     1.712265     1.701086     1.689907
      1.678727     1.667548     1.656368     1.645189     1.634009     1.622830     1.611650     1.600471     1.589292     1.578112
      1.566933     1.555753     1.544574     1.533394     1.522215     1.511035     1.499856     1.488677     1.477497     1.466318
      1.455138     1.443959     1.432779     1.421600     1.410420     1.399241     1.388062     1.376882     1.365703     1.354523
      1.343344     1.332164     1.320985     1.309805     1.298626     1.287446     1.276267     1.265088     1.253908     1.242729
      1.231549     1.220370     1.209190     1.198011     1.186831     1.175652     1.164473     1.153293     1.142114     1.130934
      1.119755     1.108575     1.097396     1.086216     1.075037     1.063858     1.052678     1.041499     1.030319     1.019140
      1.007960     0.996781     0.985601     0.974422     0.963243     0.952063     0.940884     0.929704     0.918525     0.907345
      0.896166     0.884986     0.873807     0.862628     0.851448     0.840269     0.829089     0.817910     0.806730     0.795551
      0.784371     0.773192     0.762012     0.750833     0.739654     0.728474     0.717295     0.706115     0.694936     0.683756
      0.672577     0.661397     0.650218     0.639039     0.627859     0.616680     0.605500     0.594321     0.583141     0.571962
      0.560782     0.549603     0.538424     0.527244     0.516065     0.504885     0.493706     0.482526     0.471347     0.460167
      0.448988     0.437809     0.426629     0.415450     0.404270     0.393091     0.381911     0.370732     0.359552     0.348373
      0.337193     0.326014     0.314835     0.303655     0.292476     0.281296     0.270117     0.258937     0.247758     0.236578
      0.225399     0.214220     0.203040
 NY phased data points follow
   8.51948E-09  1.29926E-08  1.33683E-08  1.43963E-08  1.19628E-08  1.23504E-08  9.77914E-09  1.07977E-08  8.82045E-09  1.01854E-08
   8.49072E-09  1.03858E-08  9.47379E-09  1.06195E-08  1.01117E-08  1.22548E-08  1.17883E-08  1.20856E-08  1.12246E-08  1.23560E-08
   1.16798E-08  1.19090E-08  9.76766E-09  1.08495E-08  9.58909E-09  1.15244E-08  1.14544E-08  1.23961E-08  1.04461E-08  1.06147E-08
   8.49740E-09  1.07517E-08  1.12494E-08  1.42093E-08  1.48169E-08  1.50962E-08  1.31178E-08  1.23464E-08  1.09848E-08  1.12470E-08
   9.73377E-09  1.09434E-08  9.24885E-09  9.94137E-09  9.26123E-09  9.56112E-09  8.33484E-09  8.19311E-09  7.19829E-09  7.29246E-09
   6.61278E-09  7.10898E-09  6.71406E-09  7.84375E-09  6.98941E-09  6.60526E-09  5.16553E-09  6.18280E-09  5.28858E-09  5.92059E-09
   5.76108E-09  5.93172E-09  5.75913E-09  8.63295E-09  1.05163E-08  1.31679E-08  1.17852E-08  1.17740E-08  9.92306E-09  9.27410E-09
   8.02216E-09  8.30029E-09  6.68784E-09  6.56390E-09  5.58412E-09  5.76544E-09  4.40603E-09  4.07488E-09  3.83266E-09  7.56113E-09
   1.19378E-08  1.69055E-08  1.68186E-08  1.57885E-08  1.42552E-08  1.38393E-08  1.22901E-08  1.23853E-08  1.11072E-08  1.15217E-08
   1.06272E-08  1.08491E-08  9.80136E-09  9.58784E-09  8.47382E-09  9.09224E-09  7.42123E-09  7.80211E-09  6.55351E-09  6.91128E-09
   5.76873E-09  6.00580E-09  5.93877E-09  7.10119E-09  5.84255E-09  6.52661E-09  5.87876E-09  6.28866E-09  5.79603E-09  4.82756E-09
   3.75805E-09  3.79677E-09  2.52618E-09  4.05175E-09  3.88004E-09  4.86879E-09  3.95422E-09  4.25923E-09  4.52995E-09  4.85469E-09
   4.64397E-09  5.48791E-09  4.94352E-09  4.57997E-09  3.36836E-09  3.18950E-09  2.09777E-09  2.54768E-09  2.50073E-09  2.82233E-09
   2.59306E-09  2.96481E-09  2.55897E-09  3.40600E-09  2.65406E-09  3.54237E-09  2.52727E-09  2.84614E-09  1.93286E-09  3.51995E-09
   4.17272E-09  5.14402E-09  5.39051E-09  5.50257E-09  4.33055E-09  5.36798E-09  5.37471E-09  6.04040E-09  6.01992E-09  5.51159E-09
   5.30322E-09  5.35028E-09  4.42927E-09  4.46208E-09  3.68163E-09  4.18525E-09  3.57615E-09  4.03665E-09  3.45908E-09  4.30535E-09
   3.57424E-09  4.34295E-09  4.10435E-09  4.58960E-09  4.06792E-09  4.69439E-09  4.35264E-09  5.15532E-09  5.12223E-09  6.61214E-09
   9.18055E-09  1.53294E-08  1.91548E-08  1.87821E-08  1.55693E-08  1.35080E-08  1.16794E-08  1.02008E-08  8.31413E-09  7.48304E-09
   6.30601E-09  5.56124E-09  4.67710E-09  3.24048E-09  1.83734E-09  1.15198E-09 -5.12296E-10 -1.52587E-09 -3.37344E-09 -4.95232E-09
  -6.66046E-09 -7.44547E-09 -9.78476E-09 -1.11491E-08 -1.31174E-08 -1.45726E-08 -1.55461E-08 -1.62627E-08 -1.77851E-08 -1.76443E-08
  -1.79018E-08 -1.73496E-08 -1.67332E-08 -1.51613E-08 -1.45897E-08 -1.26577E-08 -1.12146E-08 -9.14193E-09 -7.15197E-09 -5.46527E-09
  -4.67277E-09 -2.61652E-09 -2.38326E-09 -1.44423E-09 -1.42018E-09 -6.83480E-10 -1.06200E-09 -1.12507E-09 -1.22140E-09 -1.48074E-09
  -2.11207E-09 -1.64301E-09 -1.90001E-09 -1.59322E-09 -1.38816E-09 -8.53123E-10 -1.46482E-09 -1.16831E-09 -1.33936E-09 -8.11296E-10
  -1.67593E-09 -1.42302E-09 -1.57941E-09 -1.44746E-09 -1.50029E-09 -1.50686E-09 -1.30522E-09 -6.48959E-10 -1.15196E-09 -6.16455E-10
  -1.54312E-09 -7.37759E-10 -1.26021E-09 -8.41865E-10 -1.00025E-09 -1.34442E-09 -1.72888E-09 -9.92364E-10 -1.11031E-09 -5.88142E-10
  -7.29989E-10 -3.79042E-10 -5.79404E-10  1.12662E-10 -2.02578E-10 -6.07606E-11 -3.28482E-10 -5.16429E-10 -7.58093E-10 -7.73377E-10
  -1.73046E-09 -1.22779E-09 -1.91994E-09 -1.35186E-09 -1.73363E-09 -1.12917E-09 -1.38893E-09 -8.90949E-10 -3.06920E-10  1.81675E-10
  -3.26411E-11  7.72961E-10  2.61355E-10  7.98097E-10  3.80242E-10  9.42248E-10  7.20077E-10  4.89967E-10 -1.94306E-10  5.17704E-10
  -4.63286E-10 -1.00519E-10 -1.04930E-09 -4.04794E-10 -1.02552E-09 -5.39149E-10 -6.47830E-10 -5.01554E-10 -1.21095E-09 -8.95297E-10
  -1.10608E-09 -8.42783E-10 -1.02160E-09 -5.46328E-10 -6.86962E-10 -8.57168E-10 -9.13989E-10 -3.47034E-10 -7.63088E-10 -3.56276E-10
  -2.99395E-10 -1.13307E-09 -2.67176E-10 -7.54611E-10 -5.38105E-10 -4.10777E-10 -7.01075E-10 -5.57013E-10 -5.15395E-10 -1.70443E-10
  -5.68147E-10  7.75102E-11 -2.13569E-11  2.94738E-11  1.97211E-10 -5.07503E-11  1.17961E-11  5.69266E-10  5.73542E-11  3.13967E-10
   3.21306E-10  6.91922E-10  9.81334E-11  7.40634E-10  6.56676E-10  4.05411E-10  2.24787E-10  7.85637E-10  4.93549E-10  9.54444E-10
   6.01172E-11  1.20658E-09  2.02233E-10  1.20590E-09  4.57246E-10  1.41374E-09  3.37755E-10  7.14105E-10  6.14172E-10  1.34858E-09
   8.86481E-10  4.78765E-10  8.59351E-10  1.22859E-09  6.98220E-10  1.17735E-09  9.46942E-10  1.26918E-09  9.04185E-10  7.72064E-10
   8.76262E-10  1.51273E-09  1.04436E-09  1.10256E-09  1.36318E-09  1.27413E-09  1.07031E-09  1.73611E-09  9.43797E-10  1.32868E-09
   9.19013E-10  1.60664E-09  8.99895E-10
 NY points of the fit to the data follow
   1.03996E-08  1.25261E-08  1.30943E-08  1.19689E-08  1.14187E-08  1.17127E-08  1.18628E-08  1.11146E-08  1.00450E-08  9.59625E-09
   9.34225E-09  9.19934E-09  9.54484E-09  1.02237E-08  1.13479E-08  1.20526E-08  1.17552E-08  1.16712E-08  1.22539E-08  1.22205E-08
   1.12668E-08  1.05637E-08  1.05235E-08  1.04487E-08  1.01941E-08  9.88264E-09  1.01112E-08  1.10567E-08  1.19459E-08  1.19884E-08
   1.19572E-08  1.19165E-08  1.20287E-08  1.22522E-08  1.24205E-08  1.18566E-08  1.18001E-08  1.16968E-08  1.13888E-08  1.10796E-08
   1.09882E-08  1.08682E-08  1.00638E-08  9.09819E-09  8.54735E-09  8.19883E-09  7.96399E-09  7.78819E-09  7.62374E-09  7.44053E-09
   7.24519E-09  7.09144E-09  7.03120E-09  6.99509E-09  6.93801E-09  6.92227E-09  6.89757E-09  6.93921E-09  7.07641E-09  7.26754E-09
   7.48668E-09  7.78869E-09  8.17655E-09  8.46156E-09  8.76005E-09  9.08586E-09  9.39662E-09  9.64084E-09  9.58519E-09  9.07576E-09
   8.63381E-09  8.43790E-09  8.02420E-09  7.30793E-09  6.94817E-09  6.73854E-09  6.56949E-09  7.02235E-09  7.82920E-09  9.02919E-09
   1.08352E-08  1.29828E-08  1.46229E-08  1.52359E-08  1.51069E-08  1.48657E-08  1.48462E-08  1.42564E-08  1.18241E-08  1.02328E-08
   9.36770E-09  8.77946E-09  8.35046E-09  7.99445E-09  7.70657E-09  7.46800E-09  7.25226E-09  7.06170E-09  6.89170E-09  6.73764E-09
   6.59620E-09  6.46513E-09  6.34277E-09  6.22791E-09  6.11934E-09  6.01617E-09  5.91764E-09  5.82314E-09  5.73220E-09  5.64438E-09
   5.55934E-09  5.47676E-09  5.39634E-09  5.31787E-09  5.24104E-09  5.16558E-09  5.09128E-09  5.01792E-09  4.94528E-09  4.87317E-09
   4.80143E-09  4.72987E-09  4.65834E-09  4.58668E-09  4.51474E-09  4.44238E-09  4.36947E-09  4.29587E-09  4.22146E-09  4.14611E-09
   4.06969E-09  3.99210E-09  3.91322E-09  3.83292E-09  3.75113E-09  3.66771E-09  3.58258E-09  3.49564E-09  3.40679E-09  3.31595E-09
   3.22299E-09  3.12794E-09  3.03079E-09  2.93155E-09  2.83023E-09  2.72685E-09  2.62146E-09  2.51409E-09  2.40480E-09  2.29366E-09
   2.18080E-09  2.06632E-09  1.95039E-09  1.83324E-09  1.71513E-09  1.59644E-09  1.47770E-09  1.35957E-09  1.24307E-09  1.12963E-09
   1.02142E-09  9.21906E-10  8.36962E-10  7.77357E-10  7.65894E-10  8.62341E-10  1.30037E-09  2.78220E-09  5.13658E-09  8.22687E-09
   1.23114E-08  1.64796E-08  1.88690E-08  1.85003E-08  1.64611E-08  1.46041E-08  1.32347E-08  1.01363E-08  4.10604E-09 -8.62532E-12
  -1.24640E-09 -1.82997E-09 -2.20540E-09 -2.48891E-09 -2.72284E-09 -2.92602E-09 -3.10794E-09 -3.27377E-09 -3.42647E-09 -3.56781E-09
  -3.69882E-09 -3.82012E-09 -3.93202E-09 -4.03463E-09 -4.12799E-09 -4.21200E-09 -4.28664E-09 -4.35225E-09 -4.40919E-09 -4.45783E-09
  -4.49848E-09 -4.53146E-09 -4.55707E-09 -4.57560E-09 -4.58735E-09 -4.59259E-09 -4.59159E-09 -4.58463E-09 -4.57197E-09 -4.55388E-09
  -4.53061E-09 -4.50245E-09 -4.46962E-09 -4.43241E-09 -4.39105E-09 -4.34581E-09 -4.29693E-09 -4.24466E-09 -4.18925E-09 -4.13096E-09
  -4.07001E-09 -4.00665E-09 -3.94113E-09 -3.87368E-09 -3.80452E-09 -3.73378E-09 -3.66161E-09 -3.58815E-09 -3.51353E-09 -3.43789E-09
  -3.36137E-09 -3.28410E-09 -3.20621E-09 -3.12784E-09 -3.04910E-09 -2.97014E-09 -2.89107E-09 -2.81204E-09 -2.73314E-09 -2.65452E-09
  -2.57630E-09 -2.49858E-09 -2.42149E-09 -2.34516E-09 -2.26966E-09 -2.19514E-09 -2.12170E-09 -2.04944E-09 -1.97848E-09 -1.90891E-09
  -1.84083E-09 -1.77436E-09 -1.70951E-09 -1.64627E-09 -1.58459E-09 -1.52443E-09 -1.46576E-09 -1.40854E-09 -1.35272E-09 -1.29828E-09
  -1.24517E-09 -1.19336E-09 -1.14281E-09 -1.09348E-09 -1.04534E-09 -9.98357E-10 -9.52480E-10 -9.07699E-10 -8.63968E-10 -8.21247E-10
  -7.79506E-10 -7.38721E-10 -6.98846E-10 -6.59857E-10 -6.21730E-10 -5.84416E-10 -5.47905E-10 -5.12157E-10 -4.77147E-10 -4.42842E-10
  -4.09222E-10 -3.76263E-10 -3.43942E-10 -3.12236E-10 -2.81127E-10 -2.50592E-10 -2.20613E-10 -1.91169E-10 -1.62241E-10 -1.33813E-10
  -1.05868E-10 -7.83879E-11 -5.13573E-11 -2.47613E-11  1.41354E-12  2.71824E-11  5.25571E-11  7.75507E-11  1.02172E-10  1.26437E-10
   1.50348E-10  1.73920E-10  1.97160E-10  2.20071E-10  2.42665E-10  2.64946E-10  2.86917E-10  3.08583E-10  3.29928E-10  3.50928E-10
   3.71557E-10  3.91790E-10  4.11606E-10  4.30979E-10  4.49887E-10  4.68306E-10  4.86213E-10  5.03588E-10  5.20407E-10  5.36650E-10
   5.52295E-10  5.67322E-10  5.81711E-10  5.95442E-10  6.08495E-10  6.20851E-10  6.32492E-10  6.43400E-10  6.53557E-10  6.62945E-10
   6.71548E-10  6.79350E-10  6.86334E-10  6.92484E-10  6.97787E-10  7.02227E-10  7.05793E-10  7.08472E-10  7.10252E-10  7.11123E-10
   7.11073E-10  7.10093E-10  7.08171E-10  7.05299E-10  7.01468E-10  6.96667E-10  6.90889E-10  6.84125E-10  6.76368E-10  6.67611E-10
   6.57845E-10  6.47065E-10  6.35263E-10  6.22435E-10  6.08574E-10  5.93676E-10  5.77735E-10  5.60747E-10  5.42709E-10  5.23616E-10
   5.03466E-10  4.82256E-10  4.59982E-10
 NY background values follow
     3.188E-09    3.234E-09    3.279E-09    3.324E-09    3.368E-09    3.410E-09    3.452E-09    3.493E-09    3.533E-09    3.573E-09
     3.611E-09    3.649E-09    3.685E-09    3.721E-09    3.756E-09    3.790E-09    3.824E-09    3.856E-09    3.888E-09    3.918E-09
     3.948E-09    3.977E-09    4.005E-09    4.032E-09    4.058E-09    4.083E-09    4.108E-09    4.131E-09    4.154E-09    4.176E-09
     4.197E-09    4.217E-09    4.236E-09    4.254E-09    4.272E-09    4.288E-09    4.304E-09    4.319E-09    4.333E-09    4.347E-09
     4.359E-09    4.371E-09    4.382E-09    4.392E-09    4.402E-09    4.411E-09    4.419E-09    4.426E-09    4.433E-09    4.439E-09
     4.444E-09    4.449E-09    4.453E-09    4.457E-09    4.460E-09    4.462E-09    4.464E-09    4.465E-09    4.466E-09    4.466E-09
     4.465E-09    4.464E-09    4.463E-09    4.461E-09    4.458E-09    4.455E-09    4.451E-09    4.447E-09    4.442E-09    4.437E-09
     4.431E-09    4.424E-09    4.417E-09    4.410E-09    4.401E-09    4.393E-09    4.383E-09    4.373E-09    4.363E-09    4.352E-09
     4.340E-09    4.328E-09    4.316E-09    4.302E-09    4.288E-09    4.274E-09    4.259E-09    4.243E-09    4.227E-09    4.210E-09
     4.193E-09    4.175E-09    4.156E-09    4.137E-09    4.117E-09    4.097E-09    4.076E-09    4.055E-09    4.033E-09    4.011E-09
     3.988E-09    3.965E-09    3.941E-09    3.916E-09    3.892E-09    3.866E-09    3.840E-09    3.814E-09    3.787E-09    3.759E-09
     3.731E-09    3.703E-09    3.674E-09    3.645E-09    3.615E-09    3.584E-09    3.553E-09    3.520E-09    3.487E-09    3.453E-09
     3.418E-09    3.382E-09    3.344E-09    3.305E-09    3.265E-09    3.223E-09    3.180E-09    3.135E-09    3.089E-09    3.040E-09
     2.990E-09    2.938E-09    2.884E-09    2.827E-09    2.769E-09    2.708E-09    2.644E-09    2.579E-09    2.510E-09    2.439E-09
     2.366E-09    2.289E-09    2.210E-09    2.128E-09    2.043E-09    1.955E-09    1.865E-09    1.772E-09    1.676E-09    1.578E-09
     1.476E-09    1.372E-09    1.265E-09    1.156E-09    1.044E-09    9.285E-10    8.108E-10    6.903E-10    5.670E-10    4.411E-10
     3.125E-10    1.813E-10    4.734E-11   -8.926E-11   -2.285E-10   -3.703E-10   -5.148E-10   -6.619E-10   -8.115E-10   -9.633E-10
    -1.117E-09   -1.272E-09   -1.428E-09   -1.584E-09   -1.741E-09   -1.898E-09   -2.053E-09   -2.208E-09   -2.362E-09   -2.513E-09
    -2.662E-09   -2.809E-09   -2.952E-09   -3.092E-09   -3.229E-09   -3.361E-09   -3.488E-09   -3.610E-09   -3.727E-09   -3.838E-09
    -3.943E-09   -4.041E-09   -4.132E-09   -4.216E-09   -4.292E-09   -4.360E-09   -4.420E-09   -4.472E-09   -4.515E-09   -4.552E-09
    -4.580E-09   -4.602E-09   -4.616E-09   -4.624E-09   -4.626E-09   -4.621E-09   -4.610E-09   -4.594E-09   -4.572E-09   -4.545E-09
    -4.513E-09   -4.476E-09   -4.435E-09   -4.389E-09   -4.340E-09   -4.286E-09   -4.230E-09   -4.170E-09   -4.107E-09   -4.041E-09
    -3.973E-09   -3.902E-09   -3.829E-09   -3.755E-09   -3.679E-09   -3.601E-09   -3.522E-09   -3.442E-09   -3.361E-09   -3.279E-09
    -3.196E-09   -3.112E-09   -3.028E-09   -2.943E-09   -2.858E-09   -2.773E-09   -2.688E-09   -2.603E-09   -2.518E-09   -2.434E-09
    -2.350E-09   -2.267E-09   -2.184E-09   -2.102E-09   -2.021E-09   -1.941E-09   -1.862E-09   -1.785E-09   -1.708E-09   -1.634E-09
    -1.560E-09   -1.489E-09   -1.419E-09   -1.351E-09   -1.284E-09   -1.219E-09   -1.155E-09   -1.093E-09   -1.033E-09   -9.735E-10
    -9.157E-10   -8.592E-10   -8.041E-10   -7.502E-10   -6.976E-10   -6.461E-10   -5.958E-10   -5.466E-10   -4.986E-10   -4.516E-10
    -4.056E-10   -3.606E-10   -3.165E-10   -2.734E-10   -2.312E-10   -1.898E-10   -1.493E-10   -1.095E-10   -7.057E-11   -3.236E-11
     5.132E-12    4.192E-11    7.804E-11    1.135E-10    1.483E-10    1.826E-10    2.162E-10    2.493E-10    2.818E-10    3.138E-10
     3.452E-10    3.762E-10    4.067E-10    4.367E-10    4.663E-10    4.954E-10    5.241E-10    5.524E-10    5.803E-10    6.078E-10
     6.349E-10    6.616E-10    6.880E-10    7.140E-10    7.397E-10    7.650E-10    7.900E-10    8.146E-10    8.389E-10    8.629E-10
     8.864E-10    9.095E-10    9.322E-10    9.543E-10    9.760E-10    9.972E-10    1.018E-09    1.038E-09    1.057E-09    1.076E-09
     1.095E-09    1.112E-09    1.129E-09    1.145E-09    1.161E-09    1.176E-09    1.190E-09    1.203E-09    1.216E-09    1.228E-09
     1.239E-09    1.249E-09    1.258E-09    1.266E-09    1.274E-09    1.281E-09    1.286E-09    1.291E-09    1.295E-09    1.298E-09
     1.300E-09    1.301E-09    1.302E-09    1.301E-09    1.299E-09    1.296E-09    1.292E-09    1.287E-09    1.282E-09    1.275E-09
     1.267E-09    1.258E-09    1.248E-09    1.237E-09    1.225E-09    1.212E-09    1.197E-09    1.182E-09    1.166E-09    1.148E-09
     1.130E-09    1.110E-09    1.090E-09
 Glc      Conc. = 4.41E-10
   2.76175E-09  2.98560E-09  3.19646E-09  3.43418E-09  3.64916E-09  3.82750E-09  3.91197E-09  3.99247E-09  4.03592E-09  3.97131E-09
   3.92499E-09  3.88583E-09  3.83071E-09  3.82122E-09  3.88964E-09  3.99596E-09  4.14366E-09  4.39480E-09  4.71176E-09  5.01264E-09
   5.25569E-09  5.40113E-09  5.48151E-09  5.58134E-09  5.62046E-09  5.50335E-09  5.36368E-09  5.27109E-09  5.22823E-09  5.22682E-09
   5.21295E-09  5.17841E-09  5.17142E-09  5.16442E-09  5.11385E-09  5.06769E-09  5.04500E-09  5.01371E-09  4.97318E-09  4.94151E-09
   4.91710E-09  4.89705E-09  4.88033E-09  4.86598E-09  4.85345E-09  4.84229E-09  4.83222E-09  4.82298E-09  4.81435E-09  4.80620E-09
   4.79841E-09  4.79085E-09  4.78347E-09  4.77618E-09  4.76900E-09  4.76174E-09  4.75444E-09  4.74710E-09  4.73964E-09  4.73203E-09
   4.72425E-09  4.71626E-09  4.70804E-09  4.69957E-09  4.69082E-09  4.68178E-09  4.67243E-09  4.66275E-09  4.65273E-09  4.64236E-09
   4.63161E-09  4.62048E-09  4.60896E-09  4.59704E-09  4.58469E-09  4.57193E-09  4.55874E-09  4.54509E-09  4.53100E-09  4.51646E-09
   4.50142E-09  4.48594E-09  4.46994E-09  4.45348E-09  4.43648E-09  4.41900E-09  4.40102E-09  4.38253E-09  4.36355E-09  4.34405E-09
   4.32407E-09  4.30357E-09  4.28258E-09  4.26110E-09  4.23912E-09  4.21663E-09  4.19366E-09  4.17020E-09  4.14625E-09  4.12184E-09
   4.09691E-09  4.07152E-09  4.04565E-09  4.01931E-09  3.99249E-09  3.96520E-09  3.93746E-09  3.90924E-09  3.88056E-09  3.85144E-09
   3.82187E-09  3.79184E-09  3.76135E-09  3.73038E-09  3.69885E-09  3.66667E-09  3.63379E-09  3.60011E-09  3.56556E-09  3.53005E-09
   3.49351E-09  3.45585E-09  3.41700E-09  3.37688E-09  3.33539E-09  3.29247E-09  3.24801E-09  3.20195E-09  3.15421E-09  3.10469E-09
   3.05330E-09  2.99997E-09  2.94461E-09  2.88712E-09  2.82745E-09  2.76548E-09  2.70115E-09  2.63436E-09  2.56504E-09  2.49309E-09
   2.41841E-09  2.34102E-09  2.26089E-09  2.17803E-09  2.09244E-09  2.00411E-09  1.91305E-09  1.81926E-09  1.72275E-09  1.62351E-09
   1.52157E-09  1.41691E-09  1.30958E-09  1.19956E-09  1.08690E-09  9.71612E-10  8.53735E-10  7.33304E-10  6.10396E-10  4.85083E-10
   3.57503E-10  2.27856E-10  9.65130E-11 -3.59168E-11 -1.68001E-10 -2.95907E-10 -4.03627E-10 -4.39417E-10 -4.54890E-10 -4.24399E-10
  -3.41654E-10 -2.85434E-10 -3.61083E-10 -5.84332E-10 -8.54321E-10 -1.07920E-09 -1.28815E-09 -1.64925E-09 -2.16497E-09 -2.41379E-09
  -2.59556E-09 -2.75776E-09 -2.91040E-09 -3.05644E-09 -3.19688E-09 -3.33202E-09 -3.46183E-09 -3.58613E-09 -3.70467E-09 -3.81715E-09
  -3.92325E-09 -4.02264E-09 -4.11495E-09 -4.19984E-09 -4.27696E-09 -4.34596E-09 -4.40660E-09 -4.45906E-09 -4.50358E-09 -4.54040E-09
  -4.56978E-09 -4.59196E-09 -4.60718E-09 -4.61569E-09 -4.61773E-09 -4.61356E-09 -4.60343E-09 -4.58757E-09 -4.56624E-09 -4.53968E-09
  -4.50814E-09 -4.47188E-09 -4.43112E-09 -4.38612E-09 -4.33712E-09 -4.28438E-09 -4.22813E-09 -4.16862E-09 -4.10608E-09 -4.04076E-09
  -3.97290E-09 -3.90274E-09 -3.83050E-09 -3.75643E-09 -3.68074E-09 -3.60357E-09 -3.52505E-09 -3.44531E-09 -3.36450E-09 -3.28275E-09
  -3.20019E-09 -3.11695E-09 -3.03317E-09 -2.94897E-09 -2.86447E-09 -2.77982E-09 -2.69514E-09 -2.61054E-09 -2.52614E-09 -2.44209E-09
  -2.35848E-09 -2.27544E-09 -2.19309E-09 -2.11154E-09 -2.03090E-09 -1.95128E-09 -1.87279E-09 -1.79554E-09 -1.71964E-09 -1.64518E-09
  -1.57226E-09 -1.50100E-09 -1.43141E-09 -1.36347E-09 -1.29714E-09 -1.23239E-09 -1.16916E-09 -1.10743E-09 -1.04714E-09 -9.88276E-10
  -9.30790E-10 -8.74639E-10 -8.19794E-10 -7.66213E-10 -7.13864E-10 -6.62709E-10 -6.12702E-10 -5.63830E-10 -5.16047E-10 -4.69314E-10
  -4.23598E-10 -3.78877E-10 -3.35104E-10 -2.92254E-10 -2.50302E-10 -2.09201E-10 -1.68939E-10 -1.29474E-10 -9.07848E-11 -5.28344E-11
  -1.56031E-11  2.09324E-11  5.67964E-11  9.20122E-11  1.26596E-10  1.60575E-10  1.93964E-10  2.26786E-10  2.59060E-10  2.90800E-10
   3.22028E-10  3.52758E-10  3.83008E-10  4.12793E-10  4.42126E-10  4.71022E-10  4.99494E-10  5.27556E-10  5.55214E-10  5.82488E-10
   6.09378E-10  6.35901E-10  6.62063E-10  6.87867E-10  7.13326E-10  7.38443E-10  7.63223E-10  7.87671E-10  8.11770E-10  8.35496E-10
   8.58824E-10  8.81730E-10  9.04191E-10  9.26183E-10  9.47682E-10  9.68667E-10  9.89115E-10  1.00900E-09  1.02831E-09  1.04702E-09
   1.06510E-09  1.08254E-09  1.09931E-09  1.11541E-09  1.13080E-09  1.14547E-09  1.15939E-09  1.17257E-09  1.18496E-09  1.19656E-09
   1.20736E-09  1.21733E-09  1.22645E-09  1.23472E-09  1.24212E-09  1.24864E-09  1.25425E-09  1.25896E-09  1.26274E-09  1.26559E-09
   1.26750E-09  1.26846E-09  1.26845E-09  1.26747E-09  1.26550E-09  1.26255E-09  1.25859E-09  1.25363E-09  1.24765E-09  1.24065E-09
   1.23262E-09  1.22356E-09  1.21345E-09  1.20229E-09  1.19008E-09  1.17681E-09  1.16247E-09  1.14707E-09  1.13059E-09  1.11305E-09
   1.09442E-09  1.07471E-09  1.05392E-09
 Gln      Conc. = 6.57E-10
   2.68415E-09  2.78796E-09  2.92768E-09  3.10886E-09  3.32792E-09  3.56540E-09  3.78999E-09  3.95899E-09  4.05037E-09  4.17856E-09
   4.23634E-09  4.16361E-09  4.17904E-09  4.11714E-09  4.06417E-09  4.03512E-09  4.02054E-09  4.01487E-09  4.01497E-09  4.01896E-09
   4.02566E-09  4.03420E-09  4.04397E-09  4.05446E-09  4.06544E-09  4.07689E-09  4.08829E-09  4.09950E-09  4.11054E-09  4.12117E-09
   4.13129E-09  4.14080E-09  4.14964E-09  4.15776E-09  4.16509E-09  4.17158E-09  4.17719E-09  4.18187E-09  4.18555E-09  4.18817E-09
   4.18971E-09  4.19006E-09  4.18922E-09  4.18711E-09  4.18367E-09  4.17885E-09  4.17256E-09  4.16455E-09  4.15478E-09  4.14331E-09
   4.12970E-09  4.11425E-09  4.09794E-09  4.08337E-09  4.08547E-09  4.12796E-09  4.18893E-09  4.30779E-09  4.51808E-09  4.75449E-09
   4.97220E-09  5.20567E-09  5.44844E-09  5.64972E-09  5.74200E-09  5.67622E-09  5.55197E-09  5.53446E-09  5.36964E-09  5.07715E-09
   4.90794E-09  4.82929E-09  4.72561E-09  4.67625E-09  4.70227E-09  4.81142E-09  4.95360E-09  5.11537E-09  5.28779E-09  5.44954E-09
   5.59958E-09  5.71856E-09  5.69722E-09  5.64955E-09  5.64438E-09  5.49966E-09  5.31139E-09  5.21916E-09  5.08321E-09  4.95056E-09
   4.84879E-09  4.76581E-09  4.69571E-09  4.63468E-09  4.57924E-09  4.52823E-09  4.48089E-09  4.43608E-09  4.39329E-09  4.35231E-09
   4.31267E-09  4.27400E-09  4.23609E-09  4.19878E-09  4.16198E-09  4.12560E-09  4.08951E-09  4.05360E-09  4.01781E-09  3.98209E-09
   3.94639E-09  3.91066E-09  3.87484E-09  3.83890E-09  3.80271E-09  3.76616E-09  3.72917E-09  3.69162E-09  3.65342E-09  3.61447E-09
   3.57468E-09  3.53394E-09  3.49218E-09  3.44930E-09  3.40519E-09  3.35978E-09  3.31297E-09  3.26466E-09  3.21478E-09  3.16322E-09
   3.10989E-09  3.05471E-09  2.99759E-09  2.93842E-09  2.87714E-09  2.81364E-09  2.74785E-09  2.67967E-09  2.60902E-09  2.53580E-09
   2.45992E-09  2.38138E-09  2.30016E-09  2.21627E-09  2.12970E-09  2.04045E-09  1.94853E-09  1.85392E-09  1.75665E-09  1.65672E-09
   1.55414E-09  1.44891E-09  1.34108E-09  1.23064E-09  1.11764E-09  1.00210E-09  8.84095E-10  7.63665E-10  6.40920E-10  5.15974E-10
   3.89023E-10  2.60359E-10  1.30494E-10  2.73830E-13 -1.28452E-10 -2.51094E-10 -3.50940E-10 -3.49576E-10 -3.08652E-10 -2.07147E-10
  -2.40417E-11  1.44303E-10  1.40230E-10 -8.75804E-11 -4.12071E-10 -6.85137E-10 -9.12201E-10 -1.32606E-09 -2.01370E-09 -2.36453E-09
  -2.57084E-09 -2.74241E-09 -2.89967E-09 -3.04837E-09 -3.19051E-09 -3.32682E-09 -3.45750E-09 -3.58249E-09 -3.70158E-09 -3.81453E-09
  -3.92103E-09 -4.02078E-09 -4.11343E-09 -4.19862E-09 -4.27603E-09 -4.34530E-09 -4.40621E-09 -4.45892E-09 -4.50368E-09 -4.54074E-09
  -4.57035E-09 -4.59275E-09 -4.60818E-09 -4.61691E-09 -4.61917E-09 -4.61521E-09 -4.60527E-09 -4.58961E-09 -4.56848E-09 -4.54212E-09
  -4.51077E-09 -4.47469E-09 -4.43412E-09 -4.38930E-09 -4.34049E-09 -4.28792E-09 -4.23185E-09 -4.17250E-09 -4.11014E-09 -4.04499E-09
  -3.97729E-09 -3.90729E-09 -3.83521E-09 -3.76131E-09 -3.68577E-09 -3.60875E-09 -3.53038E-09 -3.45080E-09 -3.37013E-09 -3.28853E-09
