 LCModel (Version 6.3-1R) Copyright: S.W. Provencher.          Ref.: Magn. Reson. Med. 30:672-679 (1993).                
 onepulse 19x30_ftSpec_smooth_lcm
 26 lines in following concentration table = NCONC+1
    Conc.  %SD /Cr+PCr  Metabolite                                         
    0.000 999%   0.000 Ala                                                 
 4.22E-10 214%   1.134 Asp                                                 
    0.000 999%   0.000 Cr                                                  
 1.32E-10 507%   0.355 GABA                                                
    0.000 999%   0.000 Glc                                                 
    0.000 999%   0.000 Gln                                                 
    0.000 999%   0.000 Glu                                                 
    0.000 999%   0.000 Glyc                                                
    0.000 999%   0.000 GPC                                                 
 8.44E-10  50%   2.267 GSH                                                 
 1.92E-09  16%   5.149 Ins                                                 
    0.000 999%   0.000 Lac                                                 
    0.000 999%   0.000 NAAG                                                
 4.86E-10  49%   1.304 NAA                                                 
    0.000 999%   0.000 PCh                                                 
 3.72E-10  83%   1.000 PCr                                                 
 1.82E-09  37%   4.898 PE                                                  
 1.86E-10  92%   0.499 Scyllo                                              
 3.10E-09  57%   8.324 Ser                                                 
    0.000 999%   0.000 Tau                                                 
    0.000 999%   0.000 GPC+PCh                                             
 4.86E-10  49%   1.304 NAA+NAAG                                            
 1.92E-09  16%   5.149 Ins+Glyc                                            
 3.72E-10  83%   1.000 Cr+PCr                                              
    0.000 999%   0.000 Glu+Gln                                             
   6 lines in following misc. output table
  FWHM = 0.123 ppm    S/N =   3                                            
  Data shift = 0.436 ppm                                                   
  Ph: 102 deg       8.6 deg/ppm                                            
  alphaB,S = 1.1E+00,   1.8E+01                                            
    8 spline knots.   Ns = 5(1)                                            
  (10) 4 infls.   ( 9) 3 extrs.                                            
  363 points on ppm-axis = NY
      4.250000     4.238821     4.227641     4.216462     4.205282     4.194103     4.182923     4.171744     4.160564     4.149385
      4.138206     4.127026     4.115847     4.104667     4.093488     4.082308     4.071129     4.059949     4.048770     4.037591
      4.026411     4.015232     4.004052     3.992873     3.981693     3.970514     3.959334     3.948155     3.936975     3.925796
      3.914617     3.903437     3.892258     3.881078     3.869899     3.858719     3.847540     3.836360     3.825181     3.814002
      3.802822     3.791643     3.780463     3.769284     3.758104     3.746925     3.735745     3.724566     3.713387     3.702207
      3.691028     3.679848     3.668669     3.657489     3.646310     3.635130     3.623951     3.612772     3.601592     3.590413
      3.579233     3.568054     3.556874     3.545695     3.534515     3.523336     3.512156     3.500977     3.489798     3.478618
      3.467439     3.456259     3.445080     3.433900     3.422721     3.411541     3.400362     3.389183     3.378003     3.366824
      3.355644     3.344465     3.333285     3.322106     3.310926     3.299747     3.288568     3.277388     3.266209     3.255029
      3.243850     3.232670     3.221491     3.210311     3.199132     3.187953     3.176773     3.165594     3.154414     3.143235
      3.132055     3.120876     3.109696     3.098517     3.087337     3.076158     3.064979     3.053799     3.042620     3.031440
      3.020261     3.009081     2.997902     2.986722     2.975543     2.964364     2.953184     2.942005     2.930825     2.919646
      2.908466     2.897287     2.886107     2.874928     2.863749     2.852569     2.841390     2.830210     2.819031     2.807851
      2.796672     2.785492     2.774313     2.763134     2.751954     2.740775     2.729595     2.718416     2.707236     2.696057
      2.684877     2.673698     2.662519     2.651339     2.640160     2.628980     2.617801     2.606621     2.595442     2.584262
      2.573083     2.561903     2.550724     2.539545     2.528365     2.517186     2.506006     2.494827     2.483647     2.472468
      2.461288     2.450109     2.438930     2.427750     2.416571     2.405391     2.394212     2.383032     2.371853     2.360673
      2.349494     2.338315     2.327135     2.315956     2.304776     2.293597     2.282417     2.271238     2.260058     2.248879
      2.237700     2.226520     2.215341     2.204161     2.192982     2.181802     2.170623     2.159443     2.148264     2.137084
      2.125905     2.114726     2.103546     2.092367     2.081187     2.070008     2.058828     2.047649     2.036469     2.025290
      2.014111     2.002931     1.991752     1.980572     1.969393     1.958213     1.947034     1.935854     1.924675     1.913496
      1.902316     1.891137     1.879957     1.868778     1.857598     1.846419     1.835239     1.824060     1.812881     1.801701
      1.790522     1.779342     1.768163     1.756983     1.745804     1.734624     1.723445     1.712265     1.701086     1.689907
      1.678727     1.667548     1.656368     1.645189     1.634009     1.622830     1.611650     1.600471     1.589292     1.578112
      1.566933     1.555753     1.544574     1.533394     1.522215     1.511035     1.499856     1.488677     1.477497     1.466318
      1.455138     1.443959     1.432779     1.421600     1.410420     1.399241     1.388062     1.376882     1.365703     1.354523
      1.343344     1.332164     1.320985     1.309805     1.298626     1.287446     1.276267     1.265088     1.253908     1.242729
      1.231549     1.220370     1.209190     1.198011     1.186831     1.175652     1.164473     1.153293     1.142114     1.130934
      1.119755     1.108575     1.097396     1.086216     1.075037     1.063858     1.052678     1.041499     1.030319     1.019140
      1.007960     0.996781     0.985601     0.974422     0.963243     0.952063     0.940884     0.929704     0.918525     0.907345
      0.896166     0.884986     0.873807     0.862628     0.851448     0.840269     0.829089     0.817910     0.806730     0.795551
      0.784371     0.773192     0.762012     0.750833     0.739654     0.728474     0.717295     0.706115     0.694936     0.683756
      0.672577     0.661397     0.650218     0.639039     0.627859     0.616680     0.605500     0.594321     0.583141     0.571962
      0.560782     0.549603     0.538424     0.527244     0.516065     0.504885     0.493706     0.482526     0.471347     0.460167
      0.448988     0.437809     0.426629     0.415450     0.404270     0.393091     0.381911     0.370732     0.359552     0.348373
      0.337193     0.326014     0.314835     0.303655     0.292476     0.281296     0.270117     0.258937     0.247758     0.236578
      0.225399     0.214220     0.203040
 NY phased data points follow
   8.56022E-09  8.37089E-09  8.28921E-09  8.74799E-09  8.81208E-09  9.23329E-09  9.36158E-09  9.40668E-09  9.77072E-09  9.50688E-09
   9.54694E-09  9.51640E-09  9.42559E-09  9.06061E-09  8.56061E-09  8.89706E-09  8.38840E-09  8.84071E-09  8.80437E-09  9.30045E-09
   8.62986E-09  8.48181E-09  8.04292E-09  8.97458E-09  9.38367E-09  1.04269E-08  1.02737E-08  1.01268E-08  9.72063E-09  9.17015E-09
   8.53026E-09  8.94043E-09  8.25560E-09  8.50066E-09  8.19097E-09  8.09067E-09  8.01604E-09  8.01900E-09  7.51471E-09  7.75004E-09
   6.97793E-09  7.01034E-09  6.65921E-09  7.10799E-09  6.74185E-09  7.19977E-09  6.54263E-09  6.76645E-09  5.96383E-09  6.32205E-09
   6.03868E-09  6.49962E-09  6.08755E-09  5.73988E-09  6.61428E-09  7.14123E-09  7.95689E-09  9.19511E-09  8.35429E-09  8.37699E-09
   8.15277E-09  7.59464E-09  6.98267E-09  7.10047E-09  6.03610E-09  6.13910E-09  5.66119E-09  5.61931E-09  4.89620E-09  4.79603E-09
   4.61913E-09  6.57723E-09  8.06670E-09  1.06780E-08  1.12395E-08  1.12817E-08  1.04168E-08  1.06987E-08  1.00185E-08  1.02839E-08
   9.44944E-09  9.42851E-09  9.51726E-09  9.81724E-09  8.96670E-09  9.02820E-09  8.67576E-09  8.77767E-09  8.41547E-09  8.56415E-09
   7.86777E-09  8.03820E-09  7.56867E-09  7.61782E-09  7.44953E-09  8.10215E-09  7.14199E-09  7.37090E-09  7.04737E-09  7.48728E-09
   7.53314E-09  6.93246E-09  6.47539E-09  6.38899E-09  5.51250E-09  5.98293E-09  5.45186E-09  5.90476E-09  5.21528E-09  5.77277E-09
   5.43231E-09  5.39804E-09  5.51402E-09  6.01397E-09  5.86974E-09  6.04872E-09  5.23301E-09  5.06016E-09  3.91764E-09  4.51186E-09
   3.77318E-09  4.16270E-09  3.79048E-09  4.00335E-09  3.80887E-09  3.64988E-09  3.47283E-09  3.91254E-09  3.46285E-09  3.45014E-09
   2.43676E-09  3.54557E-09  3.23317E-09  4.55669E-09  4.45518E-09  5.08078E-09  4.44273E-09  4.93803E-09  5.27902E-09  5.68616E-09
   6.14103E-09  6.69623E-09  6.20588E-09  6.75597E-09  6.94914E-09  6.82917E-09  6.14715E-09  6.69463E-09  6.80944E-09  6.71781E-09
   6.72840E-09  7.20593E-09  6.83534E-09  6.84005E-09  6.58678E-09  7.44513E-09  6.83052E-09  7.14661E-09  6.80856E-09  7.33157E-09
   6.32010E-09  6.49420E-09  6.71508E-09  8.91302E-09  1.15482E-08  1.43314E-08  1.50663E-08  1.54954E-08  1.51164E-08  1.56299E-08
   1.58356E-08  1.58918E-08  1.56673E-08  1.61063E-08  1.57148E-08  1.61180E-08  1.53775E-08  1.61598E-08  1.57458E-08  1.56426E-08
   1.45874E-08  1.44341E-08  1.30540E-08  1.28129E-08  1.09471E-08  9.78472E-09  7.82626E-09  6.67430E-09  3.60008E-09  2.28712E-09
  -2.58928E-10 -1.83765E-09 -4.38080E-09 -5.87964E-09 -7.51633E-09 -8.77776E-09 -9.92957E-09 -1.03153E-08 -1.06110E-08 -9.86601E-09
  -1.01354E-08 -8.01469E-09 -7.72234E-09 -5.53231E-09 -4.75728E-09 -3.52820E-09 -2.71706E-09 -1.54452E-09 -1.19939E-09 -1.07283E-09
  -1.10638E-09 -1.15549E-09 -1.70054E-09 -1.25308E-09 -1.49621E-09 -1.45986E-09 -1.62677E-09 -5.65108E-10 -9.38913E-10 -3.68260E-10
  -2.48383E-10 -3.97967E-10 -8.12778E-10 -6.40408E-10 -1.30475E-09 -1.08655E-09 -1.55445E-09 -1.14110E-09 -1.41169E-09 -1.09918E-10
  -4.64955E-10 -2.10834E-12 -3.78546E-10 -8.32326E-10 -1.31794E-09 -1.22509E-09 -1.49400E-09 -1.48249E-09 -1.59741E-09 -1.43793E-09
  -1.20598E-09 -8.58814E-10 -8.98297E-10 -6.69660E-10 -6.37444E-10 -5.53734E-10 -9.38664E-10 -4.99979E-10 -8.54839E-10 -5.02502E-10
  -4.32986E-10 -6.61124E-10 -1.02291E-09 -9.37340E-10 -1.17353E-09 -9.97885E-10 -1.53787E-09 -1.47586E-09 -1.85306E-09 -1.66571E-09
  -2.23126E-09 -1.92063E-09 -2.07178E-09 -1.59328E-09 -1.31197E-09 -1.15056E-09 -1.25611E-09 -7.84396E-10 -6.46377E-10 -4.13349E-10
  -5.40268E-10 -4.01840E-10 -1.91004E-10  8.29040E-11 -1.51809E-10  1.59126E-10 -2.51745E-10  1.29121E-10 -8.09441E-10 -3.69520E-10
  -8.19351E-10 -3.68798E-10 -8.08189E-10 -9.43124E-10 -9.25319E-10 -1.02077E-09 -1.31969E-09 -6.38434E-10 -1.09833E-09 -7.53949E-10
  -8.88183E-10 -1.21547E-09 -1.60852E-09 -1.48290E-09 -1.28615E-09 -1.28825E-09 -1.35354E-09 -1.40002E-09 -1.66296E-09 -1.43152E-09
  -1.57716E-09 -1.91114E-09 -1.59730E-09 -1.67221E-09 -1.65189E-09 -2.02624E-09 -1.95892E-09 -1.83973E-09 -2.02709E-09 -1.71684E-09
  -1.90138E-09 -1.32516E-09 -2.09531E-09 -2.17055E-09 -1.77596E-09 -2.03528E-09 -1.94111E-09 -1.85913E-09 -1.69143E-09 -1.98149E-09
  -2.53151E-09 -1.97657E-09 -1.86471E-09 -1.81912E-09 -1.98500E-09 -1.92273E-09 -2.15051E-09 -1.90163E-09 -1.61057E-09 -2.38692E-09
  -1.67689E-09 -2.12306E-09 -2.11775E-09 -2.04216E-09 -2.24533E-09 -2.10520E-09 -2.22307E-09 -2.48082E-09 -2.19781E-09 -2.06754E-09
  -2.19360E-09 -1.94645E-09 -2.45308E-09 -2.13905E-09 -2.31090E-09 -1.98657E-09 -2.34747E-09 -2.14576E-09 -2.39827E-09 -2.23185E-09
  -2.26105E-09 -2.24317E-09 -2.28821E-09 -2.42762E-09 -1.99592E-09 -2.05863E-09 -2.24152E-09 -2.03317E-09 -2.29000E-09 -2.22342E-09
  -1.80163E-09 -2.51332E-09 -1.84387E-09
 NY points of the fit to the data follow
   1.07913E-08  8.48429E-09  8.06486E-09  8.40660E-09  8.80918E-09  8.83053E-09  8.64669E-09  9.18239E-09  9.93193E-09  9.58351E-09
   9.33854E-09  9.07067E-09  9.11075E-09  9.53589E-09  9.35909E-09  8.83736E-09  8.87700E-09  9.64780E-09  8.82386E-09  7.11627E-09
   7.20016E-09  8.53844E-09  9.25988E-09  9.57251E-09  9.81928E-09  1.03721E-08  1.03050E-08  9.68610E-09  8.90497E-09  8.89210E-09
   9.11784E-09  9.24418E-09  8.63274E-09  8.25815E-09  7.98514E-09  7.59448E-09  7.30847E-09  7.45727E-09  7.51545E-09  7.52314E-09
   7.40232E-09  6.97147E-09  6.30624E-09  6.23876E-09  6.24609E-09  6.13239E-09  6.09572E-09  5.94313E-09  6.30385E-09  6.73468E-09
   7.23463E-09  7.55281E-09  7.62751E-09  7.73452E-09  7.73890E-09  7.59402E-09  7.77818E-09  7.93785E-09  7.88161E-09  7.65164E-09
   7.45261E-09  7.24028E-09  7.21230E-09  7.17635E-09  7.06101E-09  7.14877E-09  7.24398E-09  7.21183E-09  7.29903E-09  7.59529E-09
   7.85705E-09  7.95529E-09  8.24383E-09  8.47205E-09  8.59455E-09  8.84441E-09  9.36775E-09  1.03554E-08  1.04477E-08  1.00565E-08
   9.58099E-09  9.34371E-09  9.18484E-09  8.84468E-09  8.75799E-09  8.72220E-09  8.33858E-09  7.44301E-09  6.27276E-09  6.20661E-09
   6.27169E-09  6.34561E-09  6.41059E-09  6.43189E-09  6.45253E-09  6.49487E-09  6.50211E-09  6.49962E-09  6.51612E-09  6.52447E-09
   6.52729E-09  6.53171E-09  6.53520E-09  6.53690E-09  6.53648E-09  6.53391E-09  6.52913E-09  6.52224E-09  6.51326E-09  6.50223E-09
   6.48930E-09  6.47440E-09  6.45765E-09  6.43909E-09  6.41878E-09  6.39680E-09  6.37317E-09  6.34792E-09  6.32106E-09  6.29269E-09
   6.26274E-09  6.23135E-09  6.19847E-09  6.16417E-09  6.12846E-09  6.09136E-09  6.05285E-09  6.01305E-09  5.97191E-09  5.92945E-09
   5.88573E-09  5.84071E-09  5.79448E-09  5.74702E-09  5.69835E-09  5.64846E-09  5.59749E-09  5.54533E-09  5.49209E-09  5.43773E-09
   5.38234E-09  5.32593E-09  5.26856E-09  5.21022E-09  5.15101E-09  5.09099E-09  5.03023E-09  4.96885E-09  4.90697E-09  4.84479E-09
   4.78247E-09  4.72029E-09  4.65852E-09  4.59759E-09  4.53799E-09  4.48043E-09  4.42588E-09  4.37571E-09  4.33200E-09  4.29794E-09
   4.27869E-09  4.28339E-09  4.32927E-09  4.45337E-09  4.75028E-09  5.54021E-09  8.47560E-09  1.47134E-08  1.75033E-08  1.74075E-08
   1.67685E-08  1.63531E-08  1.61681E-08  1.63871E-08  1.71556E-08  1.81985E-08  1.79205E-08  1.37196E-08  6.83052E-09  4.48933E-09
   3.64048E-09  3.19049E-09  2.89641E-09  2.67841E-09  2.50291E-09  2.35352E-09  2.22128E-09  2.10098E-09  1.98925E-09  1.88399E-09
   1.78378E-09  1.68756E-09  1.59462E-09  1.50443E-09  1.41664E-09  1.33093E-09  1.24705E-09  1.16490E-09  1.08433E-09  1.00521E-09
   9.27488E-10  8.51114E-10  7.76056E-10  7.02267E-10  6.29712E-10  5.58426E-10  4.88364E-10  4.19527E-10  3.51907E-10  2.85566E-10
   2.20424E-10  1.56558E-10  9.39604E-11  3.26350E-11 -2.74241E-11 -8.61476E-11 -1.43557E-10 -1.99651E-10 -2.54368E-10 -3.07764E-10
  -3.59842E-10 -4.10639E-10 -4.60162E-10 -5.08448E-10 -5.55503E-10 -6.01369E-10 -6.46054E-10 -6.89582E-10 -7.31976E-10 -7.73252E-10
  -8.13442E-10 -8.52558E-10 -8.90621E-10 -9.27654E-10 -9.63679E-10 -9.98713E-10 -1.03278E-09 -1.06589E-09 -1.09808E-09 -1.12936E-09
  -1.15974E-09 -1.18926E-09 -1.21793E-09 -1.24577E-09 -1.27279E-09 -1.29902E-09 -1.32448E-09 -1.34919E-09 -1.37316E-09 -1.39641E-09
  -1.41896E-09 -1.44083E-09 -1.46205E-09 -1.48261E-09 -1.50254E-09 -1.52188E-09 -1.54062E-09 -1.55878E-09 -1.57639E-09 -1.59345E-09
  -1.60998E-09 -1.62602E-09 -1.64156E-09 -1.65663E-09 -1.67124E-09 -1.68540E-09 -1.69913E-09 -1.71244E-09 -1.72536E-09 -1.73790E-09
  -1.75005E-09 -1.76185E-09 -1.77331E-09 -1.78442E-09 -1.79523E-09 -1.80573E-09 -1.81593E-09 -1.82586E-09 -1.83550E-09 -1.84489E-09
  -1.85404E-09 -1.86294E-09 -1.87162E-09 -1.88007E-09 -1.88832E-09 -1.89637E-09 -1.90424E-09 -1.91190E-09 -1.91940E-09 -1.92673E-09
  -1.93390E-09 -1.94090E-09 -1.94774E-09 -1.95438E-09 -1.96083E-09 -1.96708E-09 -1.97309E-09 -1.97888E-09 -1.98442E-09 -1.98971E-09
  -1.99473E-09 -1.99947E-09 -2.00392E-09 -2.00807E-09 -2.01191E-09 -2.01543E-09 -2.01861E-09 -2.02146E-09 -2.02395E-09 -2.02607E-09
  -2.02782E-09 -2.02918E-09 -2.03016E-09 -2.03073E-09 -2.03088E-09 -2.03061E-09 -2.02992E-09 -2.02878E-09 -2.02719E-09 -2.02514E-09
  -2.02262E-09 -2.01963E-09 -2.01615E-09 -2.01218E-09 -2.00771E-09 -2.00273E-09 -1.99723E-09 -1.99121E-09 -1.98466E-09 -1.97756E-09
  -1.96993E-09 -1.96174E-09 -1.95299E-09 -1.94367E-09 -1.93378E-09 -1.92332E-09 -1.91227E-09 -1.90063E-09 -1.88839E-09 -1.87555E-09
  -1.86211E-09 -1.84805E-09 -1.83337E-09 -1.81808E-09 -1.80216E-09 -1.78561E-09 -1.76842E-09 -1.75060E-09 -1.73214E-09 -1.71303E-09
  -1.69327E-09 -1.67286E-09 -1.65180E-09 -1.63008E-09 -1.60770E-09 -1.58465E-09 -1.56095E-09 -1.53658E-09 -1.51154E-09 -1.48583E-09
  -1.45946E-09 -1.43241E-09 -1.40469E-09
 NY background values follow
     6.594E-09    6.651E-09    6.706E-09    6.761E-09    6.814E-09    6.866E-09    6.917E-09    6.966E-09    7.015E-09    7.062E-09
     7.108E-09    7.153E-09    7.197E-09    7.239E-09    7.281E-09    7.321E-09    7.360E-09    7.398E-09    7.435E-09    7.470E-09
     7.504E-09    7.538E-09    7.570E-09    7.601E-09    7.630E-09    7.659E-09    7.687E-09    7.713E-09    7.738E-09    7.762E-09
     7.785E-09    7.807E-09    7.828E-09    7.848E-09    7.866E-09    7.884E-09    7.900E-09    7.916E-09    7.930E-09    7.943E-09
     7.955E-09    7.966E-09    7.976E-09    7.985E-09    7.993E-09    8.000E-09    8.006E-09    8.011E-09    8.014E-09    8.017E-09
     8.019E-09    8.020E-09    8.020E-09    8.019E-09    8.017E-09    8.014E-09    8.010E-09    8.005E-09    7.999E-09    7.992E-09
     7.984E-09    7.976E-09    7.966E-09    7.956E-09    7.944E-09    7.932E-09    7.919E-09    7.905E-09    7.890E-09    7.875E-09
     7.858E-09    7.841E-09    7.823E-09    7.804E-09    7.785E-09    7.764E-09    7.743E-09    7.721E-09    7.698E-09    7.674E-09
     7.650E-09    7.625E-09    7.598E-09    7.572E-09    7.544E-09    7.516E-09    7.486E-09    7.456E-09    7.425E-09    7.394E-09
     7.361E-09    7.328E-09    7.294E-09    7.259E-09    7.223E-09    7.187E-09    7.149E-09    7.111E-09    7.072E-09    7.032E-09
     6.992E-09    6.950E-09    6.908E-09    6.865E-09    6.821E-09    6.776E-09    6.731E-09    6.684E-09    6.637E-09    6.589E-09
     6.540E-09    6.491E-09    6.440E-09    6.389E-09    6.336E-09    6.283E-09    6.229E-09    6.174E-09    6.119E-09    6.062E-09
     6.005E-09    5.947E-09    5.888E-09    5.828E-09    5.767E-09    5.705E-09    5.643E-09    5.579E-09    5.515E-09    5.450E-09
     5.384E-09    5.317E-09    5.249E-09    5.181E-09    5.111E-09    5.041E-09    4.970E-09    4.898E-09    4.825E-09    4.751E-09
     4.676E-09    4.601E-09    4.524E-09    4.447E-09    4.369E-09    4.290E-09    4.210E-09    4.129E-09    4.047E-09    3.965E-09
     3.882E-09    3.798E-09    3.714E-09    3.629E-09    3.543E-09    3.456E-09    3.370E-09    3.282E-09    3.194E-09    3.106E-09
     3.017E-09    2.928E-09    2.839E-09    2.749E-09    2.659E-09    2.569E-09    2.478E-09    2.388E-09    2.297E-09    2.206E-09
     2.115E-09    2.024E-09    1.933E-09    1.842E-09    1.751E-09    1.661E-09    1.570E-09    1.479E-09    1.389E-09    1.299E-09
     1.209E-09    1.120E-09    1.031E-09    9.420E-10    8.537E-10    7.658E-10    6.784E-10    5.915E-10    5.051E-10    4.192E-10
     3.341E-10    2.495E-10    1.655E-10    8.232E-11   -1.546E-13   -8.188E-11   -1.628E-10   -2.429E-10   -3.222E-10   -4.006E-10
    -4.780E-10   -5.546E-10   -6.301E-10   -7.047E-10   -7.782E-10   -8.507E-10   -9.220E-10   -9.923E-10   -1.061E-09   -1.129E-09
    -1.196E-09   -1.262E-09   -1.326E-09   -1.389E-09   -1.451E-09   -1.511E-09   -1.570E-09   -1.628E-09   -1.685E-09   -1.740E-09
    -1.793E-09   -1.845E-09   -1.896E-09   -1.946E-09   -1.994E-09   -2.042E-09   -2.088E-09   -2.132E-09   -2.176E-09   -2.218E-09
    -2.259E-09   -2.299E-09   -2.338E-09   -2.376E-09   -2.412E-09   -2.448E-09   -2.482E-09   -2.516E-09   -2.548E-09   -2.580E-09
    -2.610E-09   -2.640E-09   -2.669E-09   -2.696E-09   -2.723E-09   -2.749E-09   -2.774E-09   -2.799E-09   -2.822E-09   -2.845E-09
    -2.867E-09   -2.888E-09   -2.908E-09   -2.928E-09   -2.947E-09   -2.965E-09   -2.983E-09   -3.000E-09   -3.016E-09   -3.032E-09
    -3.047E-09   -3.062E-09   -3.076E-09   -3.089E-09   -3.102E-09   -3.114E-09   -3.126E-09   -3.137E-09   -3.148E-09   -3.159E-09
    -3.169E-09   -3.178E-09   -3.187E-09   -3.196E-09   -3.204E-09   -3.212E-09   -3.220E-09   -3.227E-09   -3.234E-09   -3.241E-09
    -3.247E-09   -3.253E-09   -3.258E-09   -3.264E-09   -3.269E-09   -3.274E-09   -3.278E-09   -3.282E-09   -3.286E-09   -3.290E-09
    -3.294E-09   -3.297E-09   -3.300E-09   -3.303E-09   -3.306E-09   -3.308E-09   -3.310E-09   -3.312E-09   -3.313E-09   -3.315E-09
    -3.315E-09   -3.316E-09   -3.316E-09   -3.316E-09   -3.315E-09   -3.314E-09   -3.313E-09   -3.311E-09   -3.309E-09   -3.306E-09
    -3.303E-09   -3.300E-09   -3.296E-09   -3.291E-09   -3.287E-09   -3.281E-09   -3.275E-09   -3.269E-09   -3.262E-09   -3.255E-09
    -3.247E-09   -3.239E-09   -3.230E-09   -3.221E-09   -3.211E-09   -3.200E-09   -3.189E-09   -3.177E-09   -3.165E-09   -3.152E-09
    -3.139E-09   -3.125E-09   -3.110E-09   -3.095E-09   -3.079E-09   -3.063E-09   -3.045E-09   -3.028E-09   -3.009E-09   -2.990E-09
    -2.971E-09   -2.950E-09   -2.929E-09   -2.908E-09   -2.885E-09   -2.862E-09   -2.839E-09   -2.815E-09   -2.790E-09   -2.764E-09
    -2.738E-09   -2.711E-09   -2.683E-09   -2.654E-09   -2.625E-09   -2.595E-09   -2.565E-09   -2.534E-09   -2.502E-09   -2.469E-09
    -2.436E-09   -2.402E-09   -2.367E-09
 Asp      Conc. = 4.22E-10
   6.71092E-09  6.69132E-09  6.72876E-09  6.74152E-09  6.76712E-09  6.79768E-09  6.80337E-09  6.86567E-09  6.93611E-09  7.00325E-09
   7.06655E-09  7.12668E-09  7.18433E-09  7.23965E-09  7.29193E-09  7.34212E-09  7.39052E-09  7.43729E-09  7.48257E-09  7.52647E-09
   7.56908E-09  7.61051E-09  7.65085E-09  7.69019E-09  7.72863E-09  7.76630E-09  7.80330E-09  7.83982E-09  7.87603E-09  7.91214E-09
   7.94851E-09  7.98557E-09  8.02395E-09  8.06471E-09  8.10961E-09  8.16184E-09  8.21704E-09  8.24628E-09  8.26691E-09  8.27295E-09
   8.29315E-09  8.34286E-09  8.43960E-09  8.51495E-09  8.62298E-09  8.61901E-09  8.51361E-09  8.44228E-09  8.48951E-09  8.49270E-09
   8.49063E-09  8.48942E-09  8.42144E-09  8.28559E-09  8.17239E-09  8.04348E-09  8.03899E-09  8.07139E-09  8.02966E-09  7.93435E-09
   7.92146E-09  7.90278E-09  7.87585E-09  7.89208E-09  7.89912E-09  7.86704E-09  7.83277E-09  7.81566E-09  7.80268E-09  7.79058E-09
   7.77822E-09  7.76519E-09  7.75136E-09  7.73656E-09  7.72083E-09  7.70411E-09  7.68642E-09  7.66776E-09  7.64813E-09  7.62754E-09
   7.60600E-09  7.58352E-09  7.56011E-09  7.53577E-09  7.51053E-09  7.48437E-09  7.45731E-09  7.42936E-09  7.40052E-09  7.37078E-09
   7.34016E-09  7.30868E-09  7.27629E-09  7.24306E-09  7.20895E-09  7.17395E-09  7.13810E-09  7.10138E-09  7.06380E-09  7.02535E-09
   6.98604E-09  6.94587E-09  6.90483E-09  6.86295E-09  6.82019E-09  6.77657E-09  6.73208E-09  6.68676E-09  6.64057E-09  6.59347E-09
   6.54557E-09  6.49678E-09  6.44711E-09  6.39657E-09  6.34518E-09  6.29291E-09  6.23979E-09  6.18580E-09  6.13092E-09  6.07522E-09
   6.01858E-09  5.96112E-09  5.90276E-09  5.84354E-09  5.78345E-09  5.72247E-09  5.66058E-09  5.59787E-09  5.53426E-09  5.46977E-09
   5.40441E-09  5.33814E-09  5.27103E-09  5.20303E-09  5.13414E-09  5.06434E-09  4.99372E-09  4.92219E-09  4.84979E-09  4.77648E-09
   4.70232E-09  4.62727E-09  4.55137E-09  4.47455E-09  4.39688E-09  4.31834E-09  4.23894E-09  4.15871E-09  4.07770E-09  3.99593E-09
   3.91344E-09  3.83029E-09  3.74650E-09  3.66213E-09  3.57722E-09  3.49185E-09  3.40608E-09  3.32000E-09  3.23374E-09  3.14746E-09
   3.06139E-09  2.97597E-09  2.89196E-09  2.81094E-09  2.73691E-09  2.68293E-09  2.71563E-09  2.94779E-09  2.99324E-09  2.89611E-09
   2.77761E-09  2.67190E-09  2.57600E-09  2.49894E-09  2.44850E-09  2.41594E-09  2.32921E-09  2.05521E-09  1.61397E-09  1.43044E-09
   1.30732E-09  1.20149E-09  1.10282E-09  1.00794E-09  9.15366E-10  8.24399E-10  7.34679E-10  6.46032E-10  5.58262E-10  4.71342E-10
   3.85266E-10  2.99956E-10  2.15445E-10  1.31719E-10  4.88343E-11 -3.32358E-11 -1.14489E-10 -1.94837E-10 -2.74290E-10 -3.52853E-10
  -4.30474E-10 -5.07130E-10 -5.82783E-10 -6.57425E-10 -7.31044E-10 -8.03567E-10 -8.75003E-10 -9.45326E-10 -1.01452E-09 -1.08250E-09
  -1.14932E-09 -1.21491E-09 -1.27924E-09 -1.34230E-09 -1.40410E-09 -1.46455E-09 -1.52366E-09 -1.58143E-09 -1.63779E-09 -1.69278E-09
  -1.74641E-09 -1.79872E-09 -1.84970E-09 -1.89938E-09 -1.94778E-09 -1.99492E-09 -2.04082E-09 -2.08549E-09 -2.12897E-09 -2.17126E-09
  -2.21239E-09 -2.25237E-09 -2.29123E-09 -2.32899E-09 -2.36566E-09 -2.40126E-09 -2.43583E-09 -2.46936E-09 -2.50189E-09 -2.53343E-09
  -2.56400E-09 -2.59363E-09 -2.62233E-09 -2.65012E-09 -2.67701E-09 -2.70304E-09 -2.72821E-09 -2.75256E-09 -2.77609E-09 -2.79882E-09
  -2.82078E-09 -2.84197E-09 -2.86244E-09 -2.88217E-09 -2.90119E-09 -2.91954E-09 -2.93722E-09 -2.95424E-09 -2.97063E-09 -2.98640E-09
  -3.00157E-09 -3.01617E-09 -3.03019E-09 -3.04367E-09 -3.05661E-09 -3.06903E-09 -3.08095E-09 -3.09237E-09 -3.10333E-09 -3.11383E-09
  -3.12388E-09 -3.13350E-09 -3.14271E-09 -3.15151E-09 -3.15993E-09 -3.16796E-09 -3.17564E-09 -3.18296E-09 -3.18994E-09 -3.19659E-09
  -3.20294E-09 -3.20897E-09 -3.21471E-09 -3.22016E-09 -3.22534E-09 -3.23025E-09 -3.23491E-09 -3.23931E-09 -3.24348E-09 -3.24741E-09
  -3.25112E-09 -3.25460E-09 -3.25785E-09 -3.26085E-09 -3.26359E-09 -3.26607E-09 -3.26825E-09 -3.27015E-09 -3.27174E-09 -3.27302E-09
  -3.27397E-09 -3.27459E-09 -3.27485E-09 -3.27476E-09 -3.27430E-09 -3.27346E-09 -3.27224E-09 -3.27062E-09 -3.26858E-09 -3.26613E-09
  -3.26325E-09 -3.25993E-09 -3.25617E-09 -3.25194E-09 -3.24726E-09 -3.24210E-09 -3.23646E-09 -3.23032E-09 -3.22368E-09 -3.21654E-09
  -3.20888E-09 -3.20069E-09 -3.19197E-09 -3.18271E-09 -3.17290E-09 -3.16253E-09 -3.15161E-09 -3.14011E-09 -3.12804E-09 -3.11538E-09
  -3.10213E-09 -3.08829E-09 -3.07384E-09 -3.05878E-09 -3.04311E-09 -3.02682E-09 -3.00990E-09 -2.99235E-09 -2.97417E-09 -2.95534E-09
  -2.93587E-09 -2.91574E-09 -2.89496E-09 -2.87353E-09 -2.85142E-09 -2.82865E-09 -2.80521E-09 -2.78110E-09 -2.75631E-09 -2.73084E-09
  -2.70469E-09 -2.67785E-09 -2.65032E-09 -2.62210E-09 -2.59319E-09 -2.56359E-09 -2.53329E-09 -2.50230E-09 -2.47061E-09 -2.43821E-09
  -2.40512E-09 -2.37133E-09 -2.33684E-09
 GABA     Conc. = 1.32E-10
   6.66092E-09  6.71893E-09  6.77582E-09  6.83157E-09  6.88619E-09  6.93972E-09  6.99214E-09  7.04345E-09  7.09369E-09  7.14285E-09
   7.19096E-09  7.23806E-09  7.28412E-09  7.32919E-09  7.37331E-09  7.41648E-09  7.45875E-09  7.50023E-09  7.54093E-09  7.58093E-09
   7.62037E-09  7.65938E-09  7.69814E-09  7.73695E-09  7.77616E-09  7.81645E-09  7.85887E-09  7.90532E-09  7.95938E-09  8.01581E-09
   8.03281E-09  8.07125E-09  8.13944E-09  8.14459E-09  8.13582E-09  8.16089E-09  8.16815E-09  8.15550E-09  8.13176E-09  8.09990E-09
   8.07869E-09  8.08426E-09  8.03890E-09  7.99128E-09  8.01489E-09  8.01630E-09  7.99272E-09  8.00018E-09  8.01209E-09  8.02374E-09
   8.03430E-09  8.04365E-09  8.05195E-09  8.05949E-09  8.06643E-09  8.07300E-09  8.07967E-09  8.08705E-09  8.09592E-09  8.10808E-09
   8.12657E-09  8.15703E-09  8.16552E-09  8.15390E-09  8.18198E-09  8.18613E-09  8.14648E-09  8.12212E-09  8.10560E-09  8.07723E-09
   8.03617E-09  7.98160E-09  7.92175E-09  7.88779E-09  7.84745E-09  7.76773E-09  7.73682E-09  7.73075E-09  7.70106E-09  7.68711E-09
   7.67888E-09  7.65609E-09  7.65642E-09  7.66515E-09  7.63791E-09  7.61912E-09  7.61551E-09  7.59182E-09  7.56267E-09  7.53000E-09
   7.48547E-09  7.44887E-09  7.41449E-09  7.34661E-09  7.28652E-09  7.25502E-09  7.19429E-09  7.12863E-09  7.08598E-09  7.03850E-09
   6.98836E-09  6.94260E-09  6.89834E-09  6.85444E-09  6.81031E-09  6.76570E-09  6.72047E-09  6.67460E-09  6.62799E-09  6.58058E-09
   6.53242E-09  6.48338E-09  6.43350E-09  6.38277E-09  6.33119E-09  6.27877E-09  6.22551E-09  6.17138E-09  6.11636E-09  6.06053E-09
   6.00376E-09  5.94616E-09  5.88767E-09  5.82832E-09  5.76810E-09  5.70699E-09  5.64498E-09  5.58213E-09  5.51839E-09  5.45377E-09
   5.38827E-09  5.32187E-09  5.25462E-09  5.18648E-09  5.11746E-09  5.04752E-09  4.97676E-09  4.90508E-09  4.83254E-09  4.75908E-09
   4.68476E-09  4.60957E-09  4.53350E-09  4.45651E-09  4.37867E-09  4.29995E-09  4.22036E-09  4.13994E-09  4.05870E-09  3.97670E-09
   3.89395E-09  3.81051E-09  3.72640E-09  3.64166E-09  3.55633E-09  3.47045E-09  3.38407E-09  3.29724E-09  3.21002E-09  3.12248E-09
   3.03472E-09  2.94690E-09  2.85926E-09  2.77233E-09  2.68732E-09  2.60813E-09  2.55434E-09  2.56649E-09  2.52017E-09  2.42775E-09
   2.32806E-09  2.23239E-09  2.13976E-09  2.05300E-09  1.97467E-09  1.90247E-09  1.81446E-09  1.66833E-09  1.46601E-09  1.34571E-09
   1.24540E-09  1.15087E-09  1.05882E-09  9.68230E-10  8.78643E-10  7.89853E-10  7.01777E-10  6.14409E-10  5.27655E-10  4.41557E-10
   3.56156E-10  2.71408E-10  1.87369E-10  1.04044E-10  2.15029E-11 -6.02712E-11 -1.41267E-10 -2.21391E-10 -3.00647E-10 -3.79035E-10
  -4.56502E-10 -5.33021E-10 -6.08552E-10 -6.83083E-10 -7.56603E-10 -8.29036E-10 -9.00391E-10 -9.70639E-10 -1.03976E-09 -1.10768E-09
  -1.17445E-09 -1.23998E-09 -1.30426E-09 -1.36728E-09 -1.42903E-09 -1.48944E-09 -1.54851E-09 -1.60624E-09 -1.66256E-09 -1.71753E-09
  -1.77113E-09 -1.82340E-09 -1.87435E-09 -1.92400E-09 -1.97237E-09 -2.01948E-09 -2.06535E-09 -2.11000E-09 -2.15345E-09 -2.19571E-09
