 LCModel (Version 6.3-1R) Copyright: S.W. Provencher.          Ref.: Magn. Reson. Med. 30:672-679 (1993).                
 onepulse 19x4_ftSpec_smooth_lcm
 26 lines in following concentration table = NCONC+1
    Conc.  %SD /Cr+PCr  Metabolite                                         
 2.17E-10 147%   0.810 Ala                                                 
 3.11E-09  21%  11.620 Asp                                                 
    0.000 999%   0.000 Cr                                                  
 9.94E-10  59%   3.713 GABA                                                
 6.76E-10 171%   2.524 Glc                                                 
    0.000 999%   0.000 Gln                                                 
    0.000 999%   0.000 Glu                                                 
    0.000 999%   0.000 Glyc                                                
 9.44E-11 142%   0.353 GPC                                                 
 3.41E-11 999%   0.127 GSH                                                 
 8.67E-10  54%   3.236 Ins                                                 
    0.000 999%   0.000 Lac                                                 
    0.000 999%   0.000 NAAG                                                
    0.000 999%   0.000 NAA                                                 
    0.000 999%   0.000 PCh                                                 
 2.68E-10 117%   1.000 PCr                                                 
    0.000 999%   0.000 PE                                                  
 1.93E-10 116%   0.722 Scyllo                                              
    0.000 999%   0.000 Ser                                                 
 1.32E-10 843%   0.494 Tau                                                 
 9.44E-11 142%   0.353 GPC+PCh                                             
    0.000 999%   0.000 NAA+NAAG                                            
 8.67E-10  54%   3.236 Ins+Glyc                                            
 2.68E-10 117%   1.000 Cr+PCr                                              
    0.000 999%   0.000 Glu+Gln                                             
   6 lines in following misc. output table
  FWHM = 0.112 ppm    S/N =   2                                            
  Data shift = 0.324 ppm                                                   
  Ph:-168 deg      38.4 deg/ppm                                            
  alphaB,S = 1.1E+00,   1.8E+01                                            
    9 spline knots.   Ns = 5(1)                                            
  ( 4) 2 infls.   ( 1) 1 extrs.                                            
  363 points on ppm-axis = NY
      4.250000     4.238821     4.227641     4.216462     4.205282     4.194103     4.182923     4.171744     4.160564     4.149385
      4.138206     4.127026     4.115847     4.104667     4.093488     4.082308     4.071129     4.059949     4.048770     4.037591
      4.026411     4.015232     4.004052     3.992873     3.981693     3.970514     3.959334     3.948155     3.936975     3.925796
      3.914617     3.903437     3.892258     3.881078     3.869899     3.858719     3.847540     3.836360     3.825181     3.814002
      3.802822     3.791643     3.780463     3.769284     3.758104     3.746925     3.735745     3.724566     3.713387     3.702207
      3.691028     3.679848     3.668669     3.657489     3.646310     3.635130     3.623951     3.612772     3.601592     3.590413
      3.579233     3.568054     3.556874     3.545695     3.534515     3.523336     3.512156     3.500977     3.489798     3.478618
      3.467439     3.456259     3.445080     3.433900     3.422721     3.411541     3.400362     3.389183     3.378003     3.366824
      3.355644     3.344465     3.333285     3.322106     3.310926     3.299747     3.288568     3.277388     3.266209     3.255029
      3.243850     3.232670     3.221491     3.210311     3.199132     3.187953     3.176773     3.165594     3.154414     3.143235
      3.132055     3.120876     3.109696     3.098517     3.087337     3.076158     3.064979     3.053799     3.042620     3.031440
      3.020261     3.009081     2.997902     2.986722     2.975543     2.964364     2.953184     2.942005     2.930825     2.919646
      2.908466     2.897287     2.886107     2.874928     2.863749     2.852569     2.841390     2.830210     2.819031     2.807851
      2.796672     2.785492     2.774313     2.763134     2.751954     2.740775     2.729595     2.718416     2.707236     2.696057
      2.684877     2.673698     2.662519     2.651339     2.640160     2.628980     2.617801     2.606621     2.595442     2.584262
      2.573083     2.561903     2.550724     2.539545     2.528365     2.517186     2.506006     2.494827     2.483647     2.472468
      2.461288     2.450109     2.438930     2.427750     2.416571     2.405391     2.394212     2.383032     2.371853     2.360673
      2.349494     2.338315     2.327135     2.315956     2.304776     2.293597     2.282417     2.271238     2.260058     2.248879
      2.237700     2.226520     2.215341     2.204161     2.192982     2.181802     2.170623     2.159443     2.148264     2.137084
      2.125905     2.114726     2.103546     2.092367     2.081187     2.070008     2.058828     2.047649     2.036469     2.025290
      2.014111     2.002931     1.991752     1.980572     1.969393     1.958213     1.947034     1.935854     1.924675     1.913496
      1.902316     1.891137     1.879957     1.868778     1.857598     1.846419     1.835239     1.824060     1.812881     1.801701
      1.790522     1.779342     1.768163     1.756983     1.745804     1.734624     1.723445     1.712265     1.701086     1.689907
      1.678727     1.667548     1.656368     1.645189     1.634009     1.622830     1.611650     1.600471     1.589292     1.578112
      1.566933     1.555753     1.544574     1.533394     1.522215     1.511035     1.499856     1.488677     1.477497     1.466318
      1.455138     1.443959     1.432779     1.421600     1.410420     1.399241     1.388062     1.376882     1.365703     1.354523
      1.343344     1.332164     1.320985     1.309805     1.298626     1.287446     1.276267     1.265088     1.253908     1.242729
      1.231549     1.220370     1.209190     1.198011     1.186831     1.175652     1.164473     1.153293     1.142114     1.130934
      1.119755     1.108575     1.097396     1.086216     1.075037     1.063858     1.052678     1.041499     1.030319     1.019140
      1.007960     0.996781     0.985601     0.974422     0.963243     0.952063     0.940884     0.929704     0.918525     0.907345
      0.896166     0.884986     0.873807     0.862628     0.851448     0.840269     0.829089     0.817910     0.806730     0.795551
      0.784371     0.773192     0.762012     0.750833     0.739654     0.728474     0.717295     0.706115     0.694936     0.683756
      0.672577     0.661397     0.650218     0.639039     0.627859     0.616680     0.605500     0.594321     0.583141     0.571962
      0.560782     0.549603     0.538424     0.527244     0.516065     0.504885     0.493706     0.482526     0.471347     0.460167
      0.448988     0.437809     0.426629     0.415450     0.404270     0.393091     0.381911     0.370732     0.359552     0.348373
      0.337193     0.326014     0.314835     0.303655     0.292476     0.281296     0.270117     0.258937     0.247758     0.236578
      0.225399     0.214220     0.203040
 NY phased data points follow
   8.14700E-09  6.10020E-09  1.00015E-08  8.14301E-09  1.15215E-08  8.92408E-09  1.12404E-08  8.63268E-09  1.10619E-08  7.79350E-09
   9.89930E-09  7.72252E-09  1.04023E-08  7.79718E-09  9.85663E-09  7.89745E-09  1.01340E-08  8.47103E-09  1.09148E-08  8.81277E-09
   1.08505E-08  8.95086E-09  1.09420E-08  8.71068E-09  1.01611E-08  8.51361E-09  9.92458E-09  8.85975E-09  1.04294E-08  8.61628E-09
   9.86887E-09  8.63741E-09  9.81703E-09  8.60941E-09  1.05654E-08  9.73735E-09  1.17194E-08  1.00579E-08  1.15925E-08  1.01462E-08
   1.08479E-08  9.67722E-09  1.10202E-08  9.54361E-09  1.10207E-08  9.29641E-09  1.11922E-08  9.29488E-09  1.06265E-08  8.99504E-09
   1.00223E-08  9.11877E-09  9.82350E-09  8.65942E-09  9.49215E-09  8.71802E-09  9.46430E-09  8.28322E-09  9.00915E-09  7.49210E-09
   8.44716E-09  7.14927E-09  8.21493E-09  7.25037E-09  8.34344E-09  8.31581E-09  9.76657E-09  9.96878E-09  1.14174E-08  1.04291E-08
   1.13040E-08  1.02975E-08  1.11942E-08  9.91131E-09  1.01991E-08  9.22162E-09  9.50967E-09  7.68044E-09  8.40152E-09  7.13795E-09
   8.08369E-09  7.94442E-09  9.70265E-09  1.02026E-08  1.18289E-08  1.17710E-08  1.25539E-08  1.25353E-08  1.24159E-08  1.19501E-08
   1.24155E-08  1.21301E-08  1.24326E-08  1.19677E-08  1.27564E-08  1.16299E-08  1.24392E-08  1.11202E-08  1.22394E-08  1.08259E-08
   1.15099E-08  1.03620E-08  1.08207E-08  1.01954E-08  1.05373E-08  9.85673E-09  1.02906E-08  9.40951E-09  1.02896E-08  9.81090E-09
   1.02289E-08  9.27072E-09  9.50689E-09  8.59035E-09  9.40144E-09  8.56584E-09  9.18478E-09  8.44042E-09  9.04700E-09  8.67317E-09
   9.18670E-09  8.25282E-09  8.71374E-09  8.39559E-09  8.76293E-09  8.26529E-09  8.24956E-09  7.38211E-09  7.95922E-09  7.52445E-09
   7.77243E-09  6.83735E-09  7.40532E-09  7.47120E-09  8.09260E-09  7.31729E-09  8.06554E-09  8.17739E-09  8.40613E-09  8.07787E-09
   8.07374E-09  7.84491E-09  8.80563E-09  9.05027E-09  9.17054E-09  9.07356E-09  9.64902E-09  9.49868E-09  1.05978E-08  1.01640E-08
   1.05378E-08  1.02543E-08  1.13033E-08  1.08530E-08  1.08508E-08  1.09314E-08  1.09721E-08  1.05214E-08  1.06882E-08  1.08502E-08
   1.13958E-08  1.08897E-08  1.15137E-08  1.07075E-08  1.15137E-08  1.10163E-08  1.12990E-08  1.06350E-08  1.13061E-08  1.05595E-08
   1.04103E-08  1.02131E-08  1.08001E-08  1.21775E-08  1.45526E-08  1.57468E-08  1.59007E-08  1.52957E-08  1.55908E-08  1.48517E-08
   1.40306E-08  1.27119E-08  1.20035E-08  1.03268E-08  8.74311E-09  6.72261E-09  5.11388E-09  2.58969E-09  3.06361E-10 -2.03903E-09
  -4.34625E-09 -6.13918E-09 -8.52831E-09 -1.01333E-08 -1.08420E-08 -1.21977E-08 -1.19244E-08 -1.24474E-08 -1.22535E-08 -1.17317E-08
  -9.93287E-09 -9.55148E-09 -7.63650E-09 -6.28848E-09 -4.84378E-09 -3.89166E-09 -3.20125E-09 -3.04647E-09 -2.69969E-09 -2.59458E-09
  -2.51681E-09 -2.94620E-09 -3.38873E-09 -2.83930E-09 -3.13692E-09 -3.05500E-09 -2.75068E-09 -2.77058E-09 -2.31900E-09 -2.46817E-09
  -2.16338E-09 -2.97716E-09 -2.71949E-09 -3.41614E-09 -2.89823E-09 -2.53774E-09 -1.93301E-09 -2.05179E-09 -2.09265E-09 -2.10744E-09
  -2.53536E-09 -2.18020E-09 -2.25149E-09 -2.19096E-09 -2.23277E-09 -2.01349E-09 -2.17634E-09 -2.33296E-09 -2.58625E-09 -2.23941E-09
  -2.51435E-09 -2.53294E-09 -2.86052E-09 -2.78322E-09 -2.79067E-09 -2.33548E-09 -2.36399E-09 -2.59687E-09 -2.44108E-09 -2.55868E-09
  -2.48626E-09 -2.83778E-09 -3.30710E-09 -2.86843E-09 -3.49847E-09 -3.31465E-09 -3.56962E-09 -3.42215E-09 -3.83570E-09 -4.02773E-09
  -4.64149E-09 -4.34208E-09 -4.28259E-09 -4.28915E-09 -4.65250E-09 -5.20907E-09 -4.89635E-09 -4.89949E-09 -4.87624E-09 -4.95427E-09
  -4.61467E-09 -4.54967E-09 -4.75230E-09 -3.48199E-09 -4.40295E-09 -4.39070E-09 -3.78499E-09 -3.74667E-09 -3.93880E-09 -3.52941E-09
  -3.87872E-09 -3.71590E-09 -3.77939E-09 -4.04155E-09 -3.80990E-09 -3.61737E-09 -3.93409E-09 -4.29727E-09 -4.00651E-09 -3.85583E-09
  -4.19060E-09 -4.00833E-09 -4.73605E-09 -4.68827E-09 -4.80232E-09 -4.69526E-09 -5.07910E-09 -5.15320E-09 -5.13510E-09 -5.14232E-09
  -5.17769E-09 -5.33690E-09 -5.63396E-09 -5.45124E-09 -5.54867E-09 -5.71479E-09 -5.96861E-09 -5.67132E-09 -6.26261E-09 -5.56268E-09
  -5.87371E-09 -6.44386E-09 -6.63527E-09 -5.99389E-09 -6.11215E-09 -6.47132E-09 -6.57882E-09 -6.51159E-09 -6.76775E-09 -6.34059E-09
  -6.59913E-09 -6.70169E-09 -6.73418E-09 -6.90986E-09 -6.90305E-09 -6.53741E-09 -7.08088E-09 -7.22747E-09 -6.88545E-09 -6.51150E-09
  -7.57875E-09 -7.10922E-09 -7.15747E-09 -6.97076E-09 -7.12336E-09 -7.23404E-09 -7.38584E-09 -7.28776E-09 -7.74203E-09 -7.19709E-09
  -7.18683E-09 -7.04852E-09 -7.55203E-09 -7.14370E-09 -7.51151E-09 -7.33674E-09 -7.88865E-09 -7.48253E-09 -7.85070E-09 -7.41523E-09
  -7.91348E-09 -7.09305E-09 -7.96650E-09 -7.67771E-09 -8.09472E-09 -7.41652E-09 -7.54914E-09 -7.50703E-09 -7.57969E-09 -8.01209E-09
  -8.07006E-09 -7.75419E-09 -7.90128E-09
 NY points of the fit to the data follow
   9.37739E-09  8.36292E-09  8.01935E-09  8.45659E-09  8.84662E-09  8.64791E-09  8.49681E-09  8.53708E-09  8.93687E-09  9.12794E-09
   9.22347E-09  9.52690E-09  1.00602E-08  1.03522E-08  1.01810E-08  9.96220E-09  1.01065E-08  9.89371E-09  8.99624E-09  8.63366E-09
   8.92536E-09  9.31372E-09  9.54329E-09  9.74230E-09  9.65359E-09  9.46129E-09  9.22310E-09  8.75977E-09  8.52593E-09  9.32087E-09
   9.93061E-09  1.03429E-08  1.02733E-08  9.54826E-09  8.93720E-09  9.42969E-09  1.00750E-08  1.05282E-08  1.07469E-08  1.05646E-08
   1.01395E-08  9.70060E-09  9.11184E-09  9.57616E-09  1.04220E-08  1.09182E-08  1.03230E-08  9.71625E-09  9.81890E-09  1.04988E-08
   1.12915E-08  1.17818E-08  1.17733E-08  1.09763E-08  9.72315E-09  8.93771E-09  8.38314E-09  9.16108E-09  9.44190E-09  9.07448E-09
   8.89852E-09  9.27160E-09  9.53265E-09  9.72611E-09  1.02556E-08  1.05102E-08  1.01918E-08  1.01189E-08  1.02437E-08  1.03383E-08
   1.02999E-08  1.01172E-08  9.89032E-09  9.80044E-09  9.69784E-09  9.28457E-09  9.22528E-09  9.50238E-09  9.54075E-09  9.61570E-09
   9.82675E-09  9.95817E-09  1.01483E-08  1.04366E-08  1.05571E-08  1.06442E-08  1.08454E-08  1.09803E-08  1.10530E-08  1.10893E-08
   1.10560E-08  1.10849E-08  1.11315E-08  1.08912E-08  1.06937E-08  1.07833E-08  1.06236E-08  1.04015E-08  1.04477E-08  1.05104E-08
   1.05229E-08  1.04753E-08  1.04854E-08  1.05677E-08  1.06010E-08  1.06000E-08  1.05975E-08  1.05885E-08  1.05283E-08  1.03737E-08
   1.01541E-08  1.00279E-08  9.97626E-09  9.72150E-09  9.49887E-09  9.45353E-09  9.42945E-09  9.40545E-09  9.37781E-09  9.34598E-09
   9.30977E-09  9.26963E-09  9.22573E-09  9.17832E-09  9.12759E-09  9.07376E-09  9.01695E-09  8.95735E-09  8.89511E-09  8.83033E-09
   8.76313E-09  8.69365E-09  8.62197E-09  8.54824E-09  8.47252E-09  8.39494E-09  8.31558E-09  8.23455E-09  8.15198E-09  8.06796E-09
   7.98265E-09  7.89613E-09  7.80855E-09  7.72009E-09  7.63080E-09  7.54091E-09  7.45063E-09  7.36018E-09  7.26974E-09  7.17966E-09
   7.09026E-09  7.00184E-09  6.91495E-09  6.83017E-09  6.74813E-09  6.66975E-09  6.59626E-09  6.52917E-09  6.47060E-09  6.42370E-09
   6.39288E-09  6.38542E-09  6.41331E-09  6.49904E-09  6.69067E-09  7.11668E-09  8.26664E-09  1.11600E-08  1.32357E-08  1.32249E-08
   1.23432E-08  1.17824E-08  1.21713E-08  1.35394E-08  1.55389E-08  1.71702E-08  1.67751E-08  1.27462E-08  6.28802E-09  3.16768E-09
   2.49075E-09  2.23580E-09  2.08818E-09  1.97534E-09  1.87468E-09  1.77793E-09  1.68183E-09  1.58503E-09  1.48707E-09  1.38783E-09
   1.28737E-09  1.18583E-09  1.08335E-09  9.80111E-10  8.76251E-10  7.71892E-10  6.67202E-10  5.62284E-10  4.57233E-10  3.52171E-10
   2.47177E-10  1.42307E-10  3.76569E-11 -6.66985E-11 -1.70722E-10 -2.74346E-10 -3.77527E-10 -4.80176E-10 -5.82304E-10 -6.83854E-10
  -7.84782E-10 -8.85034E-10 -9.84595E-10 -1.08342E-09 -1.18152E-09 -1.27882E-09 -1.37530E-09 -1.47095E-09 -1.56576E-09 -1.65967E-09
  -1.75267E-09 -1.84473E-09 -1.93585E-09 -2.02602E-09 -2.11523E-09 -2.20339E-09 -2.29056E-09 -2.37670E-09 -2.46178E-09 -2.54579E-09
  -2.62873E-09 -2.71057E-09 -2.79130E-09 -2.87093E-09 -2.94942E-09 -3.02676E-09 -3.10296E-09 -3.17801E-09 -3.25188E-09 -3.32455E-09
  -3.39605E-09 -3.46634E-09 -3.53543E-09 -3.60331E-09 -3.67002E-09 -3.73556E-09 -3.79997E-09 -3.86326E-09 -3.92545E-09 -3.98656E-09
  -4.04661E-09 -4.10562E-09 -4.16361E-09 -4.22061E-09 -4.27662E-09 -4.33168E-09 -4.38581E-09 -4.43902E-09 -4.49134E-09 -4.54277E-09
  -4.59336E-09 -4.64311E-09 -4.69205E-09 -4.74019E-09 -4.78756E-09 -4.83417E-09 -4.88005E-09 -4.92522E-09 -4.96969E-09 -5.01348E-09
  -5.05661E-09 -5.09911E-09 -5.14098E-09 -5.18225E-09 -5.22294E-09 -5.26306E-09 -5.30263E-09 -5.34167E-09 -5.38019E-09 -5.41821E-09
  -5.45575E-09 -5.49282E-09 -5.52944E-09 -5.56562E-09 -5.60138E-09 -5.63674E-09 -5.67169E-09 -5.70627E-09 -5.74048E-09 -5.77434E-09
  -5.80785E-09 -5.84102E-09 -5.87389E-09 -5.90644E-09 -5.93869E-09 -5.97066E-09 -6.00235E-09 -6.03377E-09 -6.06492E-09 -6.09581E-09
  -6.12647E-09 -6.15688E-09 -6.18705E-09 -6.21699E-09 -6.24665E-09 -6.27600E-09 -6.30501E-09 -6.33366E-09 -6.36191E-09 -6.38973E-09
  -6.41708E-09 -6.44394E-09 -6.47028E-09 -6.49607E-09 -6.52127E-09 -6.54586E-09 -6.56981E-09 -6.59308E-09 -6.61566E-09 -6.63751E-09
  -6.65860E-09 -6.67891E-09 -6.69841E-09 -6.71707E-09 -6.73487E-09 -6.75177E-09 -6.76775E-09 -6.78279E-09 -6.79687E-09 -6.80994E-09
  -6.82201E-09 -6.83303E-09 -6.84298E-09 -6.85184E-09 -6.85961E-09 -6.86622E-09 -6.87168E-09 -6.87596E-09 -6.87905E-09 -6.88091E-09
  -6.88153E-09 -6.88089E-09 -6.87897E-09 -6.87575E-09 -6.87122E-09 -6.86535E-09 -6.85813E-09 -6.84953E-09 -6.83956E-09 -6.82817E-09
  -6.81537E-09 -6.80114E-09 -6.78546E-09 -6.76832E-09 -6.74970E-09 -6.72960E-09 -6.70800E-09 -6.68488E-09 -6.66025E-09 -6.63408E-09
  -6.60637E-09 -6.57710E-09 -6.54627E-09
 NY background values follow
     4.515E-09    4.676E-09    4.834E-09    4.990E-09    5.144E-09    5.296E-09    5.446E-09    5.594E-09    5.741E-09    5.885E-09
     6.027E-09    6.167E-09    6.306E-09    6.442E-09    6.576E-09    6.708E-09    6.839E-09    6.967E-09    7.093E-09    7.217E-09
     7.339E-09    7.459E-09    7.577E-09    7.694E-09    7.808E-09    7.920E-09    8.030E-09    8.138E-09    8.244E-09    8.348E-09
     8.449E-09    8.549E-09    8.647E-09    8.743E-09    8.837E-09    8.929E-09    9.019E-09    9.106E-09    9.192E-09    9.276E-09
     9.358E-09    9.438E-09    9.515E-09    9.591E-09    9.665E-09    9.737E-09    9.807E-09    9.875E-09    9.941E-09    1.000E-08
     1.007E-08    1.013E-08    1.019E-08    1.024E-08    1.030E-08    1.035E-08    1.040E-08    1.045E-08    1.049E-08    1.054E-08
     1.058E-08    1.062E-08    1.066E-08    1.070E-08    1.073E-08    1.077E-08    1.080E-08    1.083E-08    1.086E-08    1.088E-08
     1.091E-08    1.093E-08    1.095E-08    1.097E-08    1.098E-08    1.100E-08    1.101E-08    1.102E-08    1.103E-08    1.104E-08
     1.104E-08    1.104E-08    1.105E-08    1.104E-08    1.104E-08    1.104E-08    1.103E-08    1.102E-08    1.101E-08    1.100E-08
     1.098E-08    1.097E-08    1.095E-08    1.093E-08    1.090E-08    1.088E-08    1.085E-08    1.082E-08    1.079E-08    1.076E-08
     1.073E-08    1.069E-08    1.065E-08    1.061E-08    1.057E-08    1.052E-08    1.048E-08    1.043E-08    1.038E-08    1.032E-08
     1.027E-08    1.021E-08    1.015E-08    1.009E-08    1.002E-08    9.959E-09    9.891E-09    9.821E-09    9.749E-09    9.675E-09
     9.598E-09    9.519E-09    9.439E-09    9.356E-09    9.271E-09    9.184E-09    9.095E-09    9.004E-09    8.911E-09    8.816E-09
     8.720E-09    8.621E-09    8.521E-09    8.419E-09    8.315E-09    8.209E-09    8.102E-09    7.993E-09    7.883E-09    7.771E-09
     7.658E-09    7.543E-09    7.427E-09    7.309E-09    7.190E-09    7.070E-09    6.949E-09    6.826E-09    6.703E-09    6.578E-09
     6.452E-09    6.325E-09    6.197E-09    6.068E-09    5.939E-09    5.808E-09    5.677E-09    5.545E-09    5.412E-09    5.279E-09
     5.145E-09    5.011E-09    4.876E-09    4.741E-09    4.605E-09    4.469E-09    4.333E-09    4.196E-09    4.060E-09    3.923E-09
     3.786E-09    3.649E-09    3.512E-09    3.375E-09    3.238E-09    3.102E-09    2.965E-09    2.829E-09    2.693E-09    2.558E-09
     2.423E-09    2.288E-09    2.154E-09    2.021E-09    1.888E-09    1.755E-09    1.624E-09    1.492E-09    1.362E-09    1.232E-09
     1.103E-09    9.744E-10    8.467E-10    7.197E-10    5.934E-10    4.680E-10    3.433E-10    2.194E-10    9.636E-11   -2.583E-11
    -1.472E-10   -2.676E-10   -3.872E-10   -5.058E-10   -6.236E-10   -7.403E-10   -8.562E-10   -9.710E-10   -1.085E-09   -1.198E-09
    -1.310E-09   -1.420E-09   -1.530E-09   -1.639E-09   -1.747E-09   -1.853E-09   -1.959E-09   -2.063E-09   -2.166E-09   -2.268E-09
    -2.369E-09   -2.469E-09   -2.568E-09   -2.665E-09   -2.761E-09   -2.856E-09   -2.950E-09   -3.043E-09   -3.134E-09   -3.224E-09
    -3.313E-09   -3.401E-09   -3.487E-09   -3.572E-09   -3.656E-09   -3.739E-09   -3.820E-09   -3.900E-09   -3.979E-09   -4.056E-09
    -4.132E-09   -4.207E-09   -4.280E-09   -4.352E-09   -4.423E-09   -4.492E-09   -4.560E-09   -4.627E-09   -4.693E-09   -4.757E-09
    -4.821E-09   -4.883E-09   -4.944E-09   -5.004E-09   -5.063E-09   -5.121E-09   -5.178E-09   -5.234E-09   -5.288E-09   -5.342E-09
    -5.395E-09   -5.447E-09   -5.498E-09   -5.548E-09   -5.598E-09   -5.646E-09   -5.694E-09   -5.741E-09   -5.787E-09   -5.832E-09
    -5.877E-09   -5.921E-09   -5.964E-09   -6.006E-09   -6.048E-09   -6.089E-09   -6.130E-09   -6.170E-09   -6.209E-09   -6.248E-09
    -6.286E-09   -6.324E-09   -6.361E-09   -6.398E-09   -6.434E-09   -6.470E-09   -6.505E-09   -6.540E-09   -6.574E-09   -6.608E-09
    -6.642E-09   -6.675E-09   -6.708E-09   -6.740E-09   -6.772E-09   -6.804E-09   -6.835E-09   -6.866E-09   -6.897E-09   -6.927E-09
    -6.957E-09   -6.987E-09   -7.016E-09   -7.045E-09   -7.074E-09   -7.103E-09   -7.131E-09   -7.158E-09   -7.185E-09   -7.212E-09
    -7.238E-09   -7.264E-09   -7.289E-09   -7.313E-09   -7.337E-09   -7.360E-09   -7.383E-09   -7.405E-09   -7.426E-09   -7.446E-09
    -7.465E-09   -7.484E-09   -7.501E-09   -7.518E-09   -7.534E-09   -7.549E-09   -7.563E-09   -7.576E-09   -7.588E-09   -7.599E-09
    -7.609E-09   -7.618E-09   -7.625E-09   -7.632E-09   -7.637E-09   -7.641E-09   -7.644E-09   -7.646E-09   -7.647E-09   -7.646E-09
    -7.644E-09   -7.641E-09   -7.636E-09   -7.630E-09   -7.623E-09   -7.614E-09   -7.604E-09   -7.593E-09   -7.580E-09   -7.565E-09
    -7.550E-09   -7.532E-09   -7.513E-09   -7.493E-09   -7.471E-09   -7.448E-09   -7.423E-09   -7.397E-09   -7.369E-09   -7.340E-09
    -7.308E-09   -7.276E-09   -7.241E-09
 Ala      Conc. = 2.17E-10
   4.66660E-09  4.80513E-09  4.95069E-09  5.09413E-09  5.23481E-09  5.37175E-09  5.48293E-09  5.60389E-09  5.76880E-09  5.88451E-09
   5.98017E-09  6.13803E-09  6.28109E-09  6.40202E-09  6.53912E-09  6.67815E-09  6.81506E-09  6.94927E-09  7.08078E-09  7.20967E-09
   7.33603E-09  7.45993E-09  7.58145E-09  7.70065E-09  7.81758E-09  7.93228E-09  8.04474E-09  8.15503E-09  8.26318E-09  8.36917E-09
   8.47305E-09  8.57480E-09  8.67444E-09  8.77203E-09  8.86752E-09  8.96094E-09  9.05231E-09  9.14164E-09  9.22891E-09  9.31417E-09
   9.39738E-09  9.47857E-09  9.55776E-09  9.63497E-09  9.71014E-09  9.78336E-09  9.85458E-09  9.92381E-09  9.99111E-09  1.00564E-08
   1.01198E-08  1.01812E-08  1.02408E-08  1.02984E-08  1.03540E-08  1.04077E-08  1.04596E-08  1.05096E-08  1.05576E-08  1.06039E-08
   1.06483E-08  1.06908E-08  1.07315E-08  1.07704E-08  1.08074E-08  1.08426E-08  1.08760E-08  1.09075E-08  1.09372E-08  1.09651E-08
   1.09912E-08  1.10155E-08  1.10381E-08  1.10588E-08  1.10777E-08  1.10949E-08  1.11103E-08  1.11240E-08  1.11359E-08  1.11462E-08
   1.11547E-08  1.11616E-08  1.11669E-08  1.11706E-08  1.11728E-08  1.11735E-08  1.11729E-08  1.11709E-08  1.11678E-08  1.11638E-08
   1.11589E-08  1.11536E-08  1.11482E-08  1.11434E-08  1.11399E-08  1.11393E-08  1.11439E-08  1.11583E-08  1.11928E-08  1.12741E-08
   1.13408E-08  1.12900E-08  1.12747E-08  1.13233E-08  1.13194E-08  1.12804E-08  1.12398E-08  1.11928E-08  1.10950E-08  1.09035E-08
   1.06478E-08  1.04866E-08  1.04009E-08  1.01129E-08  9.85777E-09  9.78048E-09  9.72511E-09  9.67053E-09  9.61297E-09  9.55183E-09
   9.48685E-09  9.41842E-09  9.34669E-09  9.27188E-09  9.19415E-09  9.11368E-09  9.03058E-09  8.94497E-09  8.85699E-09  8.76669E-09
   8.67419E-09  8.57955E-09  8.48283E-09  8.38414E-09  8.28349E-09  8.18099E-09  8.07666E-09  7.97058E-09  7.86282E-09  7.75340E-09
   7.64240E-09  7.52986E-09  7.41584E-09  7.30044E-09  7.18361E-09  7.06545E-09  6.94604E-09  6.82544E-09  6.70364E-09  6.58077E-09
   6.45689E-09  6.33197E-09  6.20616E-09  6.07954E-09  5.95210E-09  5.82395E-09  5.69524E-09  5.56602E-09  5.43639E-09  5.30661E-09
   5.17678E-09  5.04733E-09  4.91873E-09  4.79202E-09  4.66932E-09  4.55684E-09  4.48097E-09  4.46085E-09  4.37031E-09  4.21578E-09
   4.05243E-09  3.91103E-09  3.80592E-09  3.73100E-09  3.66993E-09  3.57899E-09  3.39630E-09  3.08056E-09  2.73326E-09  2.56060E-09
   2.41781E-09  2.28178E-09  2.14816E-09  2.01574E-09  1.88407E-09  1.75302E-09  1.62254E-09  1.49262E-09  1.36328E-09  1.23453E-09
   1.10639E-09  9.78897E-10  8.52055E-10  7.25919E-10  6.00487E-10  4.75768E-10  3.51819E-10  2.28647E-10  1.06259E-10 -1.53020E-11
  -1.36025E-10 -2.55915E-10 -3.74931E-10 -4.93046E-10 -6.10267E-10 -7.26566E-10 -8.41934E-10 -9.56313E-10 -1.06974E-09 -1.18219E-09
  -1.29364E-09 -1.40406E-09 -1.51345E-09 -1.62178E-09 -1.72908E-09 -1.83530E-09 -1.94041E-09 -2.04443E-09 -2.14736E-09 -2.24915E-09
  -2.34979E-09 -2.44928E-09 -2.54762E-09 -2.64479E-09 -2.74081E-09 -2.83558E-09 -2.92918E-09 -3.02158E-09 -3.11273E-09 -3.20265E-09
  -3.29134E-09 -3.37877E-09 -3.46494E-09 -3.54985E-09 -3.63348E-09 -3.71582E-09 -3.79688E-09 -3.87665E-09 -3.95511E-09 -4.03225E-09
  -4.10808E-09 -4.18259E-09 -4.25576E-09 -4.32762E-09 -4.39818E-09 -4.46747E-09 -4.53551E-09 -4.60231E-09 -4.66791E-09 -4.73233E-09
  -4.79558E-09 -4.85769E-09 -4.91869E-09 -4.97858E-09 -5.03740E-09 -5.09517E-09 -5.15191E-09 -5.20764E-09 -5.26238E-09 -5.31616E-09
  -5.36899E-09 -5.42090E-09 -5.47191E-09 -5.52204E-09 -5.57131E-09 -5.61975E-09 -5.66736E-09 -5.71418E-09 -5.76023E-09 -5.80551E-09
  -5.85007E-09 -5.89390E-09 -5.93704E-09 -5.97949E-09 -6.02129E-09 -6.06245E-09 -6.10298E-09 -6.14291E-09 -6.18225E-09 -6.22102E-09
  -6.25924E-09 -6.29692E-09 -6.33408E-09 -6.37073E-09 -6.40689E-09 -6.44259E-09 -6.47781E-09 -6.51259E-09 -6.54694E-09 -6.58088E-09
  -6.61440E-09 -6.64753E-09 -6.68027E-09 -6.71265E-09 -6.74467E-09 -6.77634E-09 -6.80767E-09 -6.83867E-09 -6.86934E-09 -6.89970E-09
  -6.92976E-09 -6.95952E-09 -6.98899E-09 -7.01816E-09 -7.04700E-09 -7.07547E-09 -7.10356E-09 -7.13122E-09 -7.15842E-09 -7.18515E-09
  -7.21136E-09 -7.23702E-09 -7.26211E-09 -7.28659E-09 -7.31044E-09 -7.33362E-09 -7.35611E-09 -7.37789E-09 -7.39891E-09 -7.41915E-09
  -7.43859E-09 -7.45720E-09 -7.47495E-09 -7.49182E-09 -7.50777E-09 -7.52278E-09 -7.53683E-09 -7.54989E-09 -7.56194E-09 -7.57294E-09
  -7.58289E-09 -7.59176E-09 -7.59951E-09 -7.60612E-09 -7.61160E-09 -7.61588E-09 -7.61896E-09 -7.62083E-09 -7.62146E-09 -7.62083E-09
  -7.61892E-09 -7.61570E-09 -7.61116E-09 -7.60529E-09 -7.59806E-09 -7.58946E-09 -7.57947E-09 -7.56807E-09 -7.55524E-09 -7.54098E-09
  -7.52526E-09 -7.50807E-09 -7.48940E-09 -7.46924E-09 -7.44756E-09 -7.42436E-09 -7.39963E-09 -7.37335E-09 -7.34552E-09 -7.31613E-09
  -7.28515E-09 -7.25259E-09 -7.21843E-09
 Asp      Conc. = 3.11E-09
   5.42641E-09  4.91155E-09  4.67641E-09  4.64221E-09  4.54710E-09  4.30655E-09  4.27509E-09  4.20836E-09  4.61393E-09  5.00392E-09
   5.34782E-09  5.65690E-09  5.94183E-09  6.20813E-09  6.45445E-09  6.68274E-09  6.90067E-09  7.11040E-09  7.31344E-09  7.51096E-09
   7.70397E-09  7.89336E-09  8.07992E-09  8.26442E-09  8.44761E-09  8.63023E-09  8.81306E-09  8.99705E-09  9.18322E-09  9.37278E-09
   9.56732E-09  9.76877E-09  9.97986E-09  1.02044E-08  1.04481E-08  1.07197E-08  1.10292E-08  1.12810E-08  1.14746E-08  1.15537E-08
   1.16444E-08  1.19006E-08  1.23694E-08  1.30537E-08  1.34507E-08  1.37878E-08  1.32868E-08  1.24688E-08  1.23111E-08  1.27503E-08
   1.33254E-08  1.36220E-08  1.34364E-08  1.24678E-08  1.10562E-08  1.01204E-08  9.41142E-09  1.00325E-08  1.01507E-08  9.60720E-09
   9.22977E-09  9.35092E-09  9.41868E-09  9.58628E-09  9.94456E-09  9.98596E-09  9.69241E-09  9.64090E-09  9.69737E-09  9.77671E-09
   9.85936E-09  9.93942E-09  1.00150E-08  1.00853E-08  1.01505E-08  1.02106E-08  1.02657E-08  1.03163E-08  1.03625E-08  1.04045E-08
   1.04425E-08  1.04767E-08  1.05072E-08  1.05343E-08  1.05580E-08  1.05784E-08  1.05956E-08  1.06098E-08  1.06210E-08  1.06293E-08
   1.06348E-08  1.06374E-08  1.06374E-08  1.06346E-08  1.06292E-08  1.06211E-08  1.06105E-08  1.05973E-08  1.05817E-08  1.05635E-08
   1.05429E-08  1.05198E-08  1.04943E-08  1.04664E-08  1.04361E-08  1.04034E-08  1.03683E-08  1.03309E-08  1.02911E-08  1.02490E-08
   1.02047E-08  1.01579E-08  1.01089E-08  1.00575E-08  1.00039E-08  9.94796E-09  9.88977E-09  9.82930E-09  9.76655E-09  9.70165E-09
   9.63432E-09  9.56480E-09  9.49303E-09  9.41909E-09  9.34298E-09  9.26477E-09  9.18448E-09  9.10217E-09  9.01789E-09  8.93167E-09
   8.84357E-09  8.75365E-09  8.66193E-09  8.56849E-09  8.47336E-09  8.37662E-09  8.27829E-09  8.17847E-09  8.07721E-09  7.97457E-09
   7.87063E-09  7.76544E-09  7.65909E-09  7.55172E-09  7.44330E-09  7.33397E-09  7.22388E-09  7.11313E-09  7.00179E-09  6.89009E-09
   6.77818E-09  6.66617E-09  6.55437E-09  6.44307E-09  6.33250E-09  6.22311E-09  6.11549E-09  6.01025E-09  5.90831E-09  5.81103E-09
   5.72014E-09  5.63860E-09  5.57097E-09  5.52550E-09  5.51846E-09  5.58838E-09  5.85482E-09  6.84954E-09  8.09392E-09  8.33309E-09
   7.89281E-09  7.44696E-09  7.36877E-09  7.77416E-09  8.55617E-09  9.39172E-09  9.60594E-09  8.34506E-09  5.42535E-09  3.01833E-09
   2.48231E-09  2.25296E-09  2.09808E-09  1.96728E-09  1.84539E-09  1.72694E-09  1.60976E-09  1.49293E-09  1.37609E-09  1.25913E-09
   1.14202E-09  1.02484E-09  9.07640E-10  7.90515E-10  6.73523E-10  5.56720E-10  4.40212E-10  3.24047E-10  2.08271E-10  9.29637E-11
  -2.18348E-11 -1.36102E-10 -2.49773E-10 -3.62799E-10 -4.75167E-10 -5.86831E-10 -6.97768E-10 -8.07906E-10 -9.17269E-10 -1.02582E-09
  -1.13352E-09 -1.24033E-09 -1.34626E-09 -1.45125E-09 -1.55533E-09 -1.65844E-09 -1.76056E-09 -1.86169E-09 -1.96183E-09 -2.06092E-09
  -2.15895E-09 -2.25592E-09 -2.35181E-09 -2.44662E-09 -2.54034E-09 -2.63289E-09 -2.72434E-09 -2.81465E-09 -2.90378E-09 -2.99175E-09
  -3.07853E-09 -3.16412E-09 -3.24850E-09 -3.33169E-09 -3.41364E-09 -3.49435E-09 -3.57383E-09 -3.65206E-09 -3.72904E-09 -3.80473E-09
