 LCModel (Version 6.3-1R) Copyright: S.W. Provencher.          Ref.: Magn. Reson. Med. 30:672-679 (1993).                
 onepulse 19x5_ftSpec_smooth_lcm
 26 lines in following concentration table = NCONC+1
    Conc.  %SD   /Cr    Metabolite                                         
 1.25E-10 253%   0.000 Ala                                                 
 2.13E-09  29%   0.000 Asp                                                 
    0.000 999%   0.000 Cr                                                  
 2.77E-09  15%   0.000 GABA                                                
 1.42E-09  41%   0.000 Glc                                                 
    0.000 999%   0.000 Gln                                                 
    0.000 999%   0.000 Glu                                                 
    0.000 999%   0.000 Glyc                                                
 1.39E-10  61%   0.000 GPC                                                 
    0.000 999%   0.000 GSH                                                 
 3.54E-10 109%   0.000 Ins                                                 
    0.000 999%   0.000 Lac                                                 
    0.000 999%   0.000 NAAG                                                
 6.16E-10  37%   0.000 NAA                                                 
    0.000 999%   0.000 PCh                                                 
    0.000 999%   0.000 PCr                                                 
    0.000 999%   0.000 PE                                                  
 6.10E-11 253%   0.000 Scyllo                                              
    0.000 999%   0.000 Ser                                                 
    0.000 999%   0.000 Tau                                                 
 1.39E-10  61%   0.000 GPC+PCh                                             
 6.16E-10  37%   0.000 NAA+NAAG                                            
 3.54E-10 109%   0.000 Ins+Glyc                                            
    0.000 999%   0.000 Cr+PCr                                              
    0.000 999%   0.000 Glu+Gln                                             
   6 lines in following misc. output table
  FWHM = 0.078 ppm    S/N =   3                                            
  Data shift = 0.347 ppm                                                   
  Ph:  97 deg       4.4 deg/ppm                                            
  alphaB,S = 3.1E-01,   3.9E+01                                            
   10 spline knots.   Ns = 5(1)                                            
  (10) 3 infls.   ( 9) 1 extrs.                                            
  363 points on ppm-axis = NY
      4.250000     4.238821     4.227641     4.216462     4.205282     4.194103     4.182923     4.171744     4.160564     4.149385
      4.138206     4.127026     4.115847     4.104667     4.093488     4.082308     4.071129     4.059949     4.048770     4.037591
      4.026411     4.015232     4.004052     3.992873     3.981693     3.970514     3.959334     3.948155     3.936975     3.925796
      3.914617     3.903437     3.892258     3.881078     3.869899     3.858719     3.847540     3.836360     3.825181     3.814002
      3.802822     3.791643     3.780463     3.769284     3.758104     3.746925     3.735745     3.724566     3.713387     3.702207
      3.691028     3.679848     3.668669     3.657489     3.646310     3.635130     3.623951     3.612772     3.601592     3.590413
      3.579233     3.568054     3.556874     3.545695     3.534515     3.523336     3.512156     3.500977     3.489798     3.478618
      3.467439     3.456259     3.445080     3.433900     3.422721     3.411541     3.400362     3.389183     3.378003     3.366824
      3.355644     3.344465     3.333285     3.322106     3.310926     3.299747     3.288568     3.277388     3.266209     3.255029
      3.243850     3.232670     3.221491     3.210311     3.199132     3.187953     3.176773     3.165594     3.154414     3.143235
      3.132055     3.120876     3.109696     3.098517     3.087337     3.076158     3.064979     3.053799     3.042620     3.031440
      3.020261     3.009081     2.997902     2.986722     2.975543     2.964364     2.953184     2.942005     2.930825     2.919646
      2.908466     2.897287     2.886107     2.874928     2.863749     2.852569     2.841390     2.830210     2.819031     2.807851
      2.796672     2.785492     2.774313     2.763134     2.751954     2.740775     2.729595     2.718416     2.707236     2.696057
      2.684877     2.673698     2.662519     2.651339     2.640160     2.628980     2.617801     2.606621     2.595442     2.584262
      2.573083     2.561903     2.550724     2.539545     2.528365     2.517186     2.506006     2.494827     2.483647     2.472468
      2.461288     2.450109     2.438930     2.427750     2.416571     2.405391     2.394212     2.383032     2.371853     2.360673
      2.349494     2.338315     2.327135     2.315956     2.304776     2.293597     2.282417     2.271238     2.260058     2.248879
      2.237700     2.226520     2.215341     2.204161     2.192982     2.181802     2.170623     2.159443     2.148264     2.137084
      2.125905     2.114726     2.103546     2.092367     2.081187     2.070008     2.058828     2.047649     2.036469     2.025290
      2.014111     2.002931     1.991752     1.980572     1.969393     1.958213     1.947034     1.935854     1.924675     1.913496
      1.902316     1.891137     1.879957     1.868778     1.857598     1.846419     1.835239     1.824060     1.812881     1.801701
      1.790522     1.779342     1.768163     1.756983     1.745804     1.734624     1.723445     1.712265     1.701086     1.689907
      1.678727     1.667548     1.656368     1.645189     1.634009     1.622830     1.611650     1.600471     1.589292     1.578112
      1.566933     1.555753     1.544574     1.533394     1.522215     1.511035     1.499856     1.488677     1.477497     1.466318
      1.455138     1.443959     1.432779     1.421600     1.410420     1.399241     1.388062     1.376882     1.365703     1.354523
      1.343344     1.332164     1.320985     1.309805     1.298626     1.287446     1.276267     1.265088     1.253908     1.242729
      1.231549     1.220370     1.209190     1.198011     1.186831     1.175652     1.164473     1.153293     1.142114     1.130934
      1.119755     1.108575     1.097396     1.086216     1.075037     1.063858     1.052678     1.041499     1.030319     1.019140
      1.007960     0.996781     0.985601     0.974422     0.963243     0.952063     0.940884     0.929704     0.918525     0.907345
      0.896166     0.884986     0.873807     0.862628     0.851448     0.840269     0.829089     0.817910     0.806730     0.795551
      0.784371     0.773192     0.762012     0.750833     0.739654     0.728474     0.717295     0.706115     0.694936     0.683756
      0.672577     0.661397     0.650218     0.639039     0.627859     0.616680     0.605500     0.594321     0.583141     0.571962
      0.560782     0.549603     0.538424     0.527244     0.516065     0.504885     0.493706     0.482526     0.471347     0.460167
      0.448988     0.437809     0.426629     0.415450     0.404270     0.393091     0.381911     0.370732     0.359552     0.348373
      0.337193     0.326014     0.314835     0.303655     0.292476     0.281296     0.270117     0.258937     0.247758     0.236578
      0.225399     0.214220     0.203040
 NY phased data points follow
   1.88271E-08  1.58158E-08  1.94440E-08  1.50772E-08  1.79336E-08  1.42994E-08  1.71437E-08  1.27168E-08  1.64775E-08  1.34086E-08
   1.70132E-08  1.30644E-08  1.67770E-08  1.36634E-08  1.73245E-08  1.47650E-08  1.79787E-08  1.43386E-08  1.73739E-08  1.39982E-08
   1.72365E-08  1.33931E-08  1.63354E-08  1.33627E-08  1.63697E-08  1.40875E-08  1.65161E-08  1.34093E-08  1.61708E-08  1.36824E-08
   1.60856E-08  1.43383E-08  1.73460E-08  1.56394E-08  1.80400E-08  1.49880E-08  1.73771E-08  1.42034E-08  1.59052E-08  1.37989E-08
   1.59706E-08  1.33842E-08  1.54755E-08  1.27669E-08  1.55146E-08  1.24037E-08  1.46416E-08  1.16347E-08  1.40070E-08  1.18439E-08
   1.34124E-08  1.12806E-08  1.32460E-08  1.13974E-08  1.28577E-08  1.07834E-08  1.21224E-08  9.94495E-09  1.18974E-08  9.83643E-09
   1.21844E-08  1.05252E-08  1.31377E-08  1.27451E-08  1.52334E-08  1.44968E-08  1.64222E-08  1.40721E-08  1.54542E-08  1.32354E-08
   1.46472E-08  1.23580E-08  1.30103E-08  1.09921E-08  1.18768E-08  9.46952E-09  1.12926E-08  9.35547E-09  1.18433E-08  1.14669E-08
   1.49002E-08  1.49464E-08  1.72995E-08  1.59112E-08  1.72953E-08  1.61224E-08  1.63282E-08  1.50227E-08  1.60128E-08  1.47879E-08
   1.55876E-08  1.44115E-08  1.55501E-08  1.37634E-08  1.47037E-08  1.27504E-08  1.43577E-08  1.19707E-08  1.31658E-08  1.12704E-08
   1.23993E-08  1.10886E-08  1.20741E-08  1.08172E-08  1.16386E-08  1.02830E-08  1.18060E-08  1.06182E-08  1.13595E-08  9.78395E-09
   1.05397E-08  8.94285E-09  1.03424E-08  8.81593E-09  1.01935E-08  8.81682E-09  1.02311E-08  9.15286E-09  1.03487E-08  8.79471E-09
   9.90010E-09  8.90281E-09  9.81857E-09  8.79372E-09  9.01770E-09  7.82384E-09  8.76551E-09  7.80397E-09  8.47660E-09  7.22579E-09
   8.17234E-09  8.13598E-09  9.19380E-09  7.78663E-09  9.27287E-09  8.91902E-09  9.60186E-09  8.56380E-09  9.01850E-09  8.72573E-09
   9.94756E-09  1.01103E-08  1.06165E-08  1.02694E-08  1.10685E-08  1.07531E-08  1.21097E-08  1.12929E-08  1.19583E-08  1.13689E-08
   1.27631E-08  1.18935E-08  1.21047E-08  1.18359E-08  1.20773E-08  1.12680E-08  1.16579E-08  1.14631E-08  1.23116E-08  1.14154E-08
   1.22159E-08  1.10805E-08  1.23711E-08  1.13324E-08  1.18446E-08  1.08327E-08  1.16374E-08  1.08619E-08  1.06239E-08  1.02493E-08
   1.10914E-08  1.30454E-08  1.64320E-08  1.81305E-08  1.85269E-08  1.79577E-08  1.83529E-08  1.76090E-08  1.67060E-08  1.50588E-08
   1.43869E-08  1.25083E-08  1.07338E-08  8.23208E-09  6.50002E-09  3.73679E-09  9.88096E-10 -1.84534E-09 -4.46217E-09 -6.76916E-09
  -9.77292E-09 -1.16877E-08 -1.27450E-08 -1.45763E-08 -1.45289E-08 -1.52641E-08 -1.53044E-08 -1.50560E-08 -1.33218E-08 -1.26565E-08
  -1.08072E-08 -9.11326E-09 -7.48823E-09 -6.36556E-09 -5.30948E-09 -4.81098E-09 -4.36457E-09 -3.82483E-09 -3.55760E-09 -3.76297E-09
  -4.16715E-09 -3.37621E-09 -3.96510E-09 -3.91443E-09 -3.66716E-09 -3.61819E-09 -3.19953E-09 -3.16839E-09 -2.85924E-09 -3.60337E-09
  -3.28917E-09 -3.91244E-09 -3.84522E-09 -3.13216E-09 -2.75751E-09 -2.56984E-09 -2.92371E-09 -2.63324E-09 -3.42133E-09 -2.86208E-09
  -3.08405E-09 -2.79350E-09 -3.17434E-09 -2.36715E-09 -2.85666E-09 -2.77315E-09 -3.28670E-09 -2.56225E-09 -2.90592E-09 -2.76428E-09
  -3.28782E-09 -2.99875E-09 -3.30622E-09 -2.74741E-09 -2.85734E-09 -2.86278E-09 -3.03228E-09 -2.65826E-09 -2.63137E-09 -2.67097E-09
  -3.43067E-09 -2.29289E-09 -2.98657E-09 -2.52738E-09 -2.90214E-09 -2.29817E-09 -2.94247E-09 -2.72285E-09 -3.71102E-09 -3.27369E-09
  -3.47473E-09 -3.31385E-09 -3.65702E-09 -4.11044E-09 -4.45544E-09 -4.21640E-09 -4.63971E-09 -4.39579E-09 -4.67761E-09 -3.87380E-09
  -4.89829E-09 -2.91189E-09 -3.97628E-09 -4.06779E-09 -3.53034E-09 -3.03269E-09 -3.60924E-09 -2.63406E-09 -3.03772E-09 -2.68853E-09
  -2.76199E-09 -2.82446E-09 -3.09632E-09 -2.16556E-09 -2.58816E-09 -2.75717E-09 -3.04084E-09 -2.17025E-09 -2.70497E-09 -1.96412E-09
  -3.10968E-09 -2.97764E-09 -3.31828E-09 -2.81482E-09 -3.30696E-09 -3.30122E-09 -3.64088E-09 -3.30359E-09 -3.67655E-09 -3.26242E-09
  -4.06442E-09 -3.46905E-09 -4.05470E-09 -3.71329E-09 -4.63352E-09 -3.46511E-09 -4.78196E-09 -3.90956E-09 -4.19747E-09 -4.40943E-09
  -5.36646E-09 -4.34162E-09 -4.76093E-09 -4.63716E-09 -5.24403E-09 -4.80147E-09 -5.48151E-09 -4.80515E-09 -5.30466E-09 -4.97564E-09
  -5.60578E-09 -5.03465E-09 -5.80458E-09 -4.89327E-09 -5.95939E-09 -5.56307E-09 -6.30944E-09 -4.74957E-09 -6.43994E-09 -5.88643E-09
  -6.29332E-09 -5.57516E-09 -6.28346E-09 -5.81908E-09 -6.66530E-09 -5.84820E-09 -7.16035E-09 -6.18997E-09 -6.63050E-09 -5.77563E-09
  -6.88049E-09 -5.98622E-09 -6.98397E-09 -6.18278E-09 -7.21864E-09 -6.51478E-09 -7.41337E-09 -6.48293E-09 -7.78416E-09 -6.50558E-09
  -7.37200E-09 -6.89959E-09 -7.83579E-09 -7.23494E-09 -7.43976E-09 -7.11561E-09 -7.46171E-09 -7.21936E-09 -8.27057E-09 -7.53812E-09
  -8.33162E-09 -7.31957E-09 -8.52269E-09
 NY points of the fit to the data follow
   1.76071E-08  1.71898E-08  1.68894E-08  1.65882E-08  1.62480E-08  1.57423E-08  1.52074E-08  1.48039E-08  1.46029E-08  1.46628E-08
   1.48607E-08  1.50970E-08  1.53794E-08  1.56837E-08  1.58688E-08  1.59604E-08  1.60739E-08  1.61402E-08  1.60279E-08  1.59211E-08
   1.58380E-08  1.56299E-08  1.52424E-08  1.49210E-08  1.45070E-08  1.42414E-08  1.44143E-08  1.47188E-08  1.50913E-08  1.55772E-08
   1.58595E-08  1.57984E-08  1.56931E-08  1.54503E-08  1.51436E-08  1.55306E-08  1.60055E-08  1.62065E-08  1.60913E-08  1.56374E-08
   1.50448E-08  1.45350E-08  1.37911E-08  1.28518E-08  1.25921E-08  1.26878E-08  1.23382E-08  1.21695E-08  1.25142E-08  1.30087E-08
   1.34840E-08  1.36720E-08  1.35170E-08  1.30093E-08  1.23677E-08  1.19710E-08  1.18424E-08  1.21212E-08  1.21461E-08  1.19895E-08
   1.20784E-08  1.24298E-08  1.30384E-08  1.36231E-08  1.42374E-08  1.49584E-08  1.53701E-08  1.56169E-08  1.58725E-08  1.60045E-08
   1.58455E-08  1.52537E-08  1.43626E-08  1.35436E-08  1.29832E-08  1.20584E-08  1.14415E-08  1.21406E-08  1.26229E-08  1.27908E-08
   1.33142E-08  1.39207E-08  1.45025E-08  1.51489E-08  1.55279E-08  1.53660E-08  1.47984E-08  1.38769E-08  1.30632E-08  1.31841E-08
   1.33008E-08  1.33778E-08  1.34567E-08  1.31375E-08  1.25994E-08  1.24479E-08  1.21453E-08  1.15516E-08  1.12883E-08  1.11650E-08
   1.09947E-08  1.09006E-08  1.08806E-08  1.09251E-08  1.09883E-08  1.10451E-08  1.10870E-08  1.11086E-08  1.10963E-08  1.10391E-08
   1.09508E-08  1.08789E-08  1.08427E-08  1.07500E-08  1.06605E-08  1.06435E-08  1.06421E-08  1.06436E-08  1.06446E-08  1.06438E-08
   1.06405E-08  1.06343E-08  1.06252E-08  1.06127E-08  1.05969E-08  1.05775E-08  1.05544E-08  1.05275E-08  1.04968E-08  1.04621E-08
   1.04232E-08  1.03803E-08  1.03330E-08  1.02813E-08  1.02252E-08  1.01646E-08  1.00992E-08  1.00291E-08  9.95414E-09  9.87426E-09
   9.78933E-09  9.69930E-09  9.60410E-09  9.50363E-09  9.39776E-09  9.28649E-09  9.16975E-09  9.04750E-09  8.91968E-09  8.78630E-09
   8.64729E-09  8.50272E-09  8.35266E-09  8.19715E-09  8.03641E-09  7.87064E-09  7.70037E-09  7.52633E-09  7.34983E-09  7.17254E-09
   6.99690E-09  6.82660E-09  6.66783E-09  6.53190E-09  6.44284E-09  6.46389E-09  6.83553E-09  8.55479E-09  1.07064E-08  1.24798E-08
   1.40535E-08  1.57792E-08  1.76821E-08  1.93780E-08  2.03721E-08  2.00155E-08  1.75540E-08  1.26846E-08  6.91765E-09  4.08510E-09
   3.03928E-09  2.42693E-09  1.97452E-09  1.59818E-09  1.26413E-09  9.56516E-10  6.66862E-10  3.90402E-10  1.24412E-10 -1.32868E-10
  -3.82511E-10 -6.25107E-10 -8.61099E-10 -1.09058E-09 -1.31372E-09 -1.53045E-09 -1.74070E-09 -1.94431E-09 -2.14118E-09 -2.33107E-09
  -2.51379E-09 -2.68913E-09 -2.85684E-09 -3.01670E-09 -3.16845E-09 -3.31187E-09 -3.44664E-09 -3.57261E-09 -3.68955E-09 -3.79772E-09
  -3.89735E-09 -3.98870E-09 -4.07201E-09 -4.14755E-09 -4.21555E-09 -4.27628E-09 -4.32996E-09 -4.37684E-09 -4.41719E-09 -4.45125E-09
  -4.47922E-09 -4.50140E-09 -4.51800E-09 -4.52927E-09 -4.53546E-09 -4.53680E-09 -4.53351E-09 -4.52588E-09 -4.51413E-09 -4.49847E-09
  -4.47914E-09 -4.45642E-09 -4.43050E-09 -4.40164E-09 -4.37006E-09 -4.33602E-09 -4.29972E-09 -4.26140E-09 -4.22128E-09 -4.17961E-09
  -4.13660E-09 -4.09247E-09 -4.04746E-09 -4.00180E-09 -3.95568E-09 -3.90934E-09 -3.86302E-09 -3.81691E-09 -3.77121E-09 -3.72615E-09
  -3.68195E-09 -3.63883E-09 -3.59698E-09 -3.55658E-09 -3.51791E-09 -3.48109E-09 -3.44638E-09 -3.41394E-09 -3.38400E-09 -3.35674E-09
  -3.33223E-09 -3.31045E-09 -3.29135E-09 -3.27489E-09 -3.26102E-09 -3.24970E-09 -3.24089E-09 -3.23454E-09 -3.23059E-09 -3.22903E-09
  -3.22979E-09 -3.23283E-09 -3.23812E-09 -3.24559E-09 -3.25520E-09 -3.26692E-09 -3.28070E-09 -3.29648E-09 -3.31423E-09 -3.33391E-09
  -3.35545E-09 -3.37883E-09 -3.40399E-09 -3.43088E-09 -3.45948E-09 -3.48973E-09 -3.52157E-09 -3.55497E-09 -3.58989E-09 -3.62629E-09
  -3.66411E-09 -3.70329E-09 -3.74381E-09 -3.78564E-09 -3.82869E-09 -3.87297E-09 -3.91838E-09 -3.96491E-09 -4.01250E-09 -4.06112E-09
  -4.11073E-09 -4.16126E-09 -4.21269E-09 -4.26496E-09 -4.31804E-09 -4.37190E-09 -4.42647E-09 -4.48170E-09 -4.53759E-09 -4.59405E-09
  -4.65107E-09 -4.70862E-09 -4.76661E-09 -4.82502E-09 -4.88381E-09 -4.94293E-09 -5.00234E-09 -5.06199E-09 -5.12186E-09 -5.18188E-09
  -5.24203E-09 -5.30225E-09 -5.36251E-09 -5.42276E-09 -5.48298E-09 -5.54310E-09 -5.60310E-09 -5.66294E-09 -5.72258E-09 -5.78196E-09
  -5.84108E-09 -5.89987E-09 -5.95830E-09 -6.01635E-09 -6.07396E-09 -6.13110E-09 -6.18774E-09 -6.24384E-09 -6.29937E-09 -6.35429E-09
  -6.40856E-09 -6.46216E-09 -6.51505E-09 -6.56719E-09 -6.61856E-09 -6.66911E-09 -6.71884E-09 -6.76768E-09 -6.81563E-09 -6.86264E-09
  -6.90870E-09 -6.95376E-09 -6.99781E-09 -7.04080E-09 -7.08272E-09 -7.12354E-09 -7.16324E-09 -7.20177E-09 -7.23914E-09 -7.27529E-09
  -7.31022E-09 -7.34389E-09 -7.37629E-09
 NY background values follow
     8.700E-09    8.726E-09    8.751E-09    8.776E-09    8.800E-09    8.824E-09    8.847E-09    8.870E-09    8.893E-09    8.915E-09
     8.937E-09    8.959E-09    8.980E-09    9.001E-09    9.021E-09    9.042E-09    9.062E-09    9.081E-09    9.101E-09    9.120E-09
     9.139E-09    9.158E-09    9.176E-09    9.194E-09    9.212E-09    9.230E-09    9.248E-09    9.265E-09    9.283E-09    9.300E-09
     9.317E-09    9.334E-09    9.351E-09    9.368E-09    9.385E-09    9.402E-09    9.418E-09    9.435E-09    9.452E-09    9.469E-09
     9.485E-09    9.502E-09    9.519E-09    9.536E-09    9.553E-09    9.570E-09    9.587E-09    9.605E-09    9.622E-09    9.640E-09
     9.658E-09    9.676E-09    9.695E-09    9.713E-09    9.732E-09    9.751E-09    9.770E-09    9.789E-09    9.809E-09    9.829E-09
     9.848E-09    9.868E-09    9.888E-09    9.908E-09    9.928E-09    9.948E-09    9.968E-09    9.988E-09    1.001E-08    1.003E-08
     1.005E-08    1.007E-08    1.009E-08    1.011E-08    1.013E-08    1.015E-08    1.016E-08    1.018E-08    1.020E-08    1.022E-08
     1.024E-08    1.026E-08    1.027E-08    1.029E-08    1.031E-08    1.032E-08    1.034E-08    1.036E-08    1.037E-08    1.038E-08
     1.040E-08    1.041E-08    1.043E-08    1.044E-08    1.045E-08    1.046E-08    1.047E-08    1.048E-08    1.049E-08    1.050E-08
     1.051E-08    1.051E-08    1.052E-08    1.052E-08    1.053E-08    1.053E-08    1.053E-08    1.054E-08    1.054E-08    1.054E-08
     1.053E-08    1.053E-08    1.052E-08    1.051E-08    1.050E-08    1.049E-08    1.048E-08    1.046E-08    1.044E-08    1.042E-08
     1.040E-08    1.037E-08    1.034E-08    1.031E-08    1.028E-08    1.024E-08    1.020E-08    1.015E-08    1.010E-08    1.005E-08
     9.997E-09    9.938E-09    9.874E-09    9.807E-09    9.735E-09    9.659E-09    9.578E-09    9.493E-09    9.403E-09    9.309E-09
     9.210E-09    9.105E-09    8.996E-09    8.881E-09    8.761E-09    8.636E-09    8.505E-09    8.368E-09    8.226E-09    8.078E-09
     7.924E-09    7.763E-09    7.597E-09    7.424E-09    7.245E-09    7.059E-09    6.867E-09    6.668E-09    6.463E-09    6.253E-09
     6.037E-09    5.816E-09    5.590E-09    5.359E-09    5.124E-09    4.885E-09    4.643E-09    4.397E-09    4.148E-09    3.897E-09
     3.643E-09    3.387E-09    3.129E-09    2.869E-09    2.609E-09    2.348E-09    2.086E-09    1.824E-09    1.562E-09    1.300E-09
     1.039E-09    7.793E-10    5.208E-10    2.639E-10    8.874E-12   -2.438E-10   -4.940E-10   -7.413E-10   -9.854E-10   -1.226E-09
    -1.463E-09   -1.696E-09   -1.924E-09   -2.148E-09   -2.366E-09   -2.580E-09   -2.788E-09   -2.990E-09   -3.185E-09   -3.375E-09
    -3.557E-09   -3.733E-09   -3.901E-09   -4.061E-09   -4.214E-09   -4.358E-09   -4.494E-09   -4.621E-09   -4.739E-09   -4.849E-09
    -4.950E-09   -5.043E-09   -5.128E-09   -5.205E-09   -5.274E-09   -5.336E-09   -5.392E-09   -5.440E-09   -5.482E-09   -5.518E-09
    -5.547E-09   -5.571E-09   -5.589E-09   -5.601E-09   -5.609E-09   -5.612E-09   -5.610E-09   -5.603E-09   -5.593E-09   -5.578E-09
    -5.560E-09   -5.539E-09   -5.514E-09   -5.486E-09   -5.456E-09   -5.422E-09   -5.387E-09   -5.350E-09   -5.310E-09   -5.270E-09
    -5.227E-09   -5.184E-09   -5.140E-09   -5.095E-09   -5.049E-09   -5.003E-09   -4.957E-09   -4.912E-09   -4.866E-09   -4.822E-09
    -4.778E-09   -4.735E-09   -4.693E-09   -4.653E-09   -4.615E-09   -4.578E-09   -4.543E-09   -4.511E-09   -4.481E-09   -4.454E-09
    -4.429E-09   -4.407E-09   -4.388E-09   -4.371E-09   -4.357E-09   -4.346E-09   -4.336E-09   -4.330E-09   -4.325E-09   -4.323E-09
    -4.323E-09   -4.326E-09   -4.331E-09   -4.338E-09   -4.346E-09   -4.357E-09   -4.371E-09   -4.386E-09   -4.402E-09   -4.421E-09
    -4.442E-09   -4.464E-09   -4.489E-09   -4.514E-09   -4.542E-09   -4.571E-09   -4.602E-09   -4.634E-09   -4.668E-09   -4.703E-09
    -4.740E-09   -4.777E-09   -4.817E-09   -4.857E-09   -4.899E-09   -4.942E-09   -4.985E-09   -5.031E-09   -5.077E-09   -5.124E-09
    -5.172E-09   -5.220E-09   -5.270E-09   -5.321E-09   -5.372E-09   -5.424E-09   -5.477E-09   -5.530E-09   -5.584E-09   -5.639E-09
    -5.694E-09   -5.750E-09   -5.806E-09   -5.862E-09   -5.919E-09   -5.976E-09   -6.033E-09   -6.090E-09   -6.148E-09   -6.206E-09
    -6.264E-09   -6.322E-09   -6.380E-09   -6.438E-09   -6.496E-09   -6.553E-09   -6.611E-09   -6.668E-09   -6.725E-09   -6.782E-09
    -6.839E-09   -6.895E-09   -6.951E-09   -7.006E-09   -7.061E-09   -7.116E-09   -7.170E-09   -7.223E-09   -7.276E-09   -7.328E-09
    -7.380E-09   -7.430E-09   -7.480E-09   -7.530E-09   -7.578E-09   -7.626E-09   -7.672E-09   -7.718E-09   -7.763E-09   -7.807E-09
    -7.850E-09   -7.892E-09   -7.933E-09   -7.973E-09   -8.012E-09   -8.050E-09   -8.086E-09   -8.121E-09   -8.155E-09   -8.188E-09
    -8.220E-09   -8.250E-09   -8.279E-09
 Ala      Conc. = 1.25E-10
   8.81283E-09  8.83817E-09  8.86046E-09  8.88070E-09  8.89879E-09  8.91376E-09  8.92156E-09  8.92848E-09  8.94528E-09  8.95475E-09
   8.95683E-09  8.97349E-09  8.99204E-09  9.00550E-09  9.02324E-09  9.04352E-09  9.06435E-09  9.08511E-09  9.10569E-09  9.12596E-09
   9.14594E-09  9.16564E-09  9.18503E-09  9.20416E-09  9.22305E-09  9.24170E-09  9.26013E-09  9.27837E-09  9.29643E-09  9.31433E-09
   9.33205E-09  9.34969E-09  9.36719E-09  9.38460E-09  9.40193E-09  9.41921E-09  9.43644E-09  9.45362E-09  9.47081E-09  9.48803E-09
   9.50522E-09  9.52245E-09  9.53975E-09  9.55714E-09  9.57459E-09  9.59216E-09  9.60982E-09  9.62764E-09  9.64563E-09  9.66380E-09
   9.68212E-09  9.70065E-09  9.71939E-09  9.73838E-09  9.75760E-09  9.77701E-09  9.79661E-09  9.81638E-09  9.83631E-09  9.85637E-09
   9.87657E-09  9.89687E-09  9.91725E-09  9.93772E-09  9.95826E-09  9.97882E-09  9.99942E-09  1.00200E-08  1.00406E-08  1.00612E-08
   1.00817E-08  1.01022E-08  1.01226E-08  1.01429E-08  1.01631E-08  1.01831E-08  1.02030E-08  1.02228E-08  1.02424E-08  1.02618E-08
   1.02810E-08  1.03000E-08  1.03188E-08  1.03374E-08  1.03557E-08  1.03738E-08  1.03917E-08  1.04094E-08  1.04269E-08  1.04443E-08
   1.04616E-08  1.04789E-08  1.04963E-08  1.05140E-08  1.05323E-08  1.05517E-08  1.05729E-08  1.05976E-08  1.06291E-08  1.06775E-08
   1.07473E-08  1.08005E-08  1.08529E-08  1.09322E-08  1.10093E-08  1.10676E-08  1.11032E-08  1.11131E-08  1.10855E-08  1.10103E-08
   1.09025E-08  1.08108E-08  1.07544E-08  1.06412E-08  1.05310E-08  1.04933E-08  1.04710E-08  1.04520E-08  1.04328E-08  1.04121E-08
   1.03893E-08  1.03640E-08  1.03359E-08  1.03050E-08  1.02710E-08  1.02338E-08  1.01933E-08  1.01494E-08  1.01019E-08  1.00507E-08
   9.99576E-09  9.93693E-09  9.87411E-09  9.80715E-09  9.73598E-09  9.66047E-09  9.58051E-09  9.49598E-09  9.40679E-09  9.31283E-09
   9.21396E-09  9.11007E-09  9.00109E-09  8.88689E-09  8.76732E-09  8.64231E-09  8.51175E-09  8.37553E-09  8.23353E-09  8.08567E-09
   7.93180E-09  7.77184E-09  7.60572E-09  7.43326E-09  7.25441E-09  7.06903E-09  6.87717E-09  6.67891E-09  6.47464E-09  6.26465E-09
   6.04931E-09  5.82897E-09  5.60405E-09  5.37506E-09  5.14283E-09  4.90918E-09  4.68117E-09  4.47512E-09  4.26592E-09  4.04639E-09
   3.82344E-09  3.60240E-09  3.38176E-09  3.15367E-09  2.90973E-09  2.63811E-09  2.32664E-09  1.97601E-09  1.62567E-09  1.33947E-09
   1.06933E-09  8.04790E-10  5.43490E-10  2.84820E-10  2.86041E-11 -2.24953E-10 -4.75741E-10 -7.23548E-10 -9.68026E-10 -1.20895E-09
  -1.44604E-09 -1.67897E-09 -1.90752E-09 -2.13128E-09 -2.35007E-09 -2.56355E-09 -2.77143E-09 -2.97338E-09 -3.16919E-09 -3.35849E-09
  -3.54101E-09 -3.71649E-09 -3.88461E-09 -4.04510E-09 -4.19768E-09 -4.34208E-09 -4.47795E-09 -4.60513E-09 -4.72337E-09 -4.83289E-09
  -4.93394E-09 -5.02674E-09 -5.11154E-09 -5.18858E-09 -5.25810E-09 -5.32035E-09 -5.37556E-09 -5.42396E-09 -5.46582E-09 -5.50137E-09
  -5.53082E-09 -5.55445E-09 -5.57248E-09 -5.58516E-09 -5.59272E-09 -5.59540E-09 -5.59342E-09 -5.58707E-09 -5.57656E-09 -5.56211E-09
  -5.54395E-09 -5.52236E-09 -5.49753E-09 -5.46973E-09 -5.43916E-09 -5.40608E-09 -5.37072E-09 -5.33328E-09 -5.29402E-09 -5.25315E-09
  -5.21090E-09 -5.16749E-09 -5.12316E-09 -5.07812E-09 -5.03260E-09 -4.98681E-09 -4.94098E-09 -4.89534E-09 -4.85006E-09 -4.80537E-09
  -4.76151E-09 -4.71868E-09 -4.67707E-09 -4.63688E-09 -4.59837E-09 -4.56168E-09 -4.52704E-09 -4.49464E-09 -4.46469E-09 -4.43739E-09
  -4.41279E-09 -4.39087E-09 -4.37161E-09 -4.35493E-09 -4.34081E-09 -4.32920E-09 -4.32005E-09 -4.31332E-09 -4.30896E-09 -4.30694E-09
  -4.30721E-09 -4.30972E-09 -4.31443E-09 -4.32129E-09 -4.33025E-09 -4.34128E-09 -4.35433E-09 -4.36935E-09 -4.38629E-09 -4.40513E-09
  -4.42579E-09 -4.44826E-09 -4.47246E-09 -4.49836E-09 -4.52593E-09 -4.55512E-09 -4.58586E-09 -4.61812E-09 -4.65187E-09 -4.68706E-09
  -4.72363E-09 -4.76154E-09 -4.80075E-09 -4.84123E-09 -4.88290E-09 -4.92575E-09 -4.96971E-09 -5.01475E-09 -5.06083E-09 -5.10790E-09
  -5.15593E-09 -5.20483E-09 -5.25461E-09 -5.30520E-09 -5.35656E-09 -5.40866E-09 -5.46145E-09 -5.51487E-09 -5.56891E-09 -5.62349E-09
  -5.67861E-09 -5.73422E-09 -5.79024E-09 -5.84665E-09 -5.90340E-09 -5.96046E-09 -6.01778E-09 -6.07531E-09 -6.13302E-09 -6.19086E-09
  -6.24880E-09 -6.30678E-09 -6.36477E-09 -6.42273E-09 -6.48061E-09 -6.53839E-09 -6.59601E-09 -6.65343E-09 -6.71063E-09 -6.76755E-09
  -6.82417E-09 -6.88044E-09 -6.93632E-09 -6.99179E-09 -7.04680E-09 -7.10131E-09 -7.15530E-09 -7.20872E-09 -7.26154E-09 -7.31373E-09
  -7.36524E-09 -7.41606E-09 -7.46614E-09 -7.51545E-09 -7.56396E-09 -7.61163E-09 -7.65844E-09 -7.70436E-09 -7.74935E-09 -7.79338E-09
  -7.83643E-09 -7.87847E-09 -7.91947E-09 -7.95939E-09 -7.99821E-09 -8.03591E-09 -8.07247E-09 -8.10784E-09 -8.14201E-09 -8.17496E-09
  -8.20665E-09 -8.23708E-09 -8.26620E-09
 Asp      Conc. = 2.13E-09
   1.04593E-08  1.00402E-08  9.71670E-09  9.42154E-09  9.16119E-09  8.86313E-09  8.68227E-09  8.57486E-09  8.63567E-09  8.71887E-09
   8.80184E-09  8.88110E-09  8.95652E-09  9.02765E-09  9.09268E-09  9.15278E-09  9.20999E-09  9.26498E-09  9.31833E-09  9.37043E-09
   9.42169E-09  9.47246E-09  9.52308E-09  9.57392E-09  9.62536E-09  9.67777E-09  9.73162E-09  9.78740E-09  9.84575E-09  9.90740E-09
   9.97333E-09  1.00449E-08  1.01238E-08  1.02129E-08  1.03162E-08  1.04415E-08  1.06022E-08  1.07640E-08  1.09366E-08  1.10756E-08
   1.11936E-08  1.13228E-08  1.14917E-08  1.17339E-08  1.19560E-08  1.22171E-08  1.23236E-08  1.23611E-08  1.25796E-08  1.28933E-08
   1.31793E-08  1.32022E-08  1.29004E-08  1.22611E-08  1.14593E-08  1.08539E-08  1.04700E-08  1.05282E-08  1.03796E-08  1.00680E-08
   9.93641E-09  9.93580E-09  9.93823E-09  9.99615E-09  1.00641E-08  1.00020E-08  9.84499E-09  9.79721E-09  9.79453E-09  9.80933E-09
   9.83214E-09  9.85896E-09  9.88778E-09  9.91755E-09  9.94764E-09  9.97769E-09  1.00075E-08  1.00369E-08  1.00657E-08  1.00940E-08
   1.01217E-08  1.01487E-08  1.01751E-08  1.02008E-08  1.02258E-08  1.02501E-08  1.02737E-08  1.02965E-08  1.03186E-08  1.03400E-08
   1.03607E-08  1.03806E-08  1.03996E-08  1.04180E-08  1.04355E-08  1.04522E-08  1.04680E-08  1.04830E-08  1.04972E-08  1.05105E-08
   1.05229E-08  1.05343E-08  1.05449E-08  1.05545E-08  1.05631E-08  1.05706E-08  1.05771E-08  1.05823E-08  1.05861E-08  1.05885E-08
   1.05894E-08  1.05886E-08  1.05860E-08  1.05815E-08  1.05751E-08  1.05665E-08  1.05558E-08  1.05427E-08  1.05272E-08  1.05092E-08
   1.04885E-08  1.04650E-08  1.04387E-08  1.04094E-08  1.03770E-08  1.03414E-08  1.03025E-08  1.02602E-08  1.02143E-08  1.01647E-08
   1.01114E-08  1.00542E-08  9.99306E-09  9.92777E-09  9.85829E-09  9.78447E-09  9.70623E-09  9.62344E-09  9.53601E-09  9.44384E-09
   9.34678E-09  9.24474E-09  9.13765E-09  9.02539E-09  8.90781E-09  8.78487E-09  8.65644E-09  8.52245E-09  8.38279E-09  8.23741E-09
   8.08617E-09  7.92905E-09  7.76600E-09  7.59691E-09  7.42181E-09  7.24063E-09  7.05357E-09  6.86089E-09  6.66323E-09  6.46125E-09
   6.25587E-09  6.04833E-09  5.84057E-09  5.63588E-09  5.44088E-09  5.27207E-09  5.18743E-09  5.47545E-09  5.89659E-09  6.21072E-09
   6.46138E-09  6.74955E-09  7.08783E-09  7.37267E-09  7.46827E-09  7.19770E-09  6.35081E-09  4.82798E-09  3.01455E-09  1.99899E-09
   1.51252E-09  1.15248E-09  8.39222E-10  5.48728E-10  2.71491E-10  3.30230E-12 -2.58065E-10 -5.13744E-10 -7.64214E-10 -1.00977E-09
  -1.25051E-09 -1.48634E-09 -1.71720E-09 -1.94283E-09 -2.16313E-09 -2.37783E-09 -2.58671E-09 -2.78947E-09 -2.98593E-09 -3.17576E-09
  -3.35871E-09 -3.53451E-09 -3.70289E-09 -3.86358E-09 -4.01631E-09 -4.16080E-09 -4.29673E-09 -4.42394E-09 -4.54218E-09 -4.65169E-09
  -4.75269E-09 -4.84543E-09 -4.93016E-09 -5.00712E-09 -5.07655E-09 -5.13871E-09 -5.19381E-09 -5.24210E-09 -5.28385E-09 -5.31928E-09
  -5.34862E-09 -5.37213E-09 -5.39005E-09 -5.40261E-09 -5.41005E-09 -5.41263E-09 -5.41054E-09 -5.40408E-09 -5.39347E-09 -5.37891E-09
  -5.36067E-09 -5.33898E-09 -5.31406E-09 -5.28618E-09 -5.25553E-09 -5.22238E-09 -5.18695E-09 -5.14944E-09 -5.11012E-09 -5.06920E-09
