 LCModel (Version 6.3-1R) Copyright: S.W. Provencher.          Ref.: Magn. Reson. Med. 30:672-679 (1993).                
 onepulse 19x6_ftSpec_smooth_lcm
 26 lines in following concentration table = NCONC+1
    Conc.  %SD /Cr+PCr  Metabolite                                         
    0.000 999%   0.000 Ala                                                 
 9.26E-10  71%   6.073 Asp                                                 
    0.000 999%   0.000 Cr                                                  
 4.84E-10 143%   3.176 GABA                                                
 3.10E-10 265%   2.035 Glc                                                 
 2.12E-09  33%  13.878 Gln                                                 
    0.000 999%   0.000 Glu                                                 
    0.000 999%   0.000 Glyc                                                
    0.000 999%   0.000 GPC                                                 
 1.16E-09  43%   7.626 GSH                                                 
 2.12E-09  22%  13.927 Ins                                                 
    0.000 999%   0.000 Lac                                                 
 2.50E-10 135%   1.638 NAAG                                                
 2.56E-10 187%   1.677 NAA                                                 
    0.000 999%   0.000 PCh                                                 
 1.52E-10 225%   1.000 PCr                                                 
 2.53E-09  21%  16.597 PE                                                  
 3.88E-10  51%   2.544 Scyllo                                              
    0.000 999%   0.000 Ser                                                 
    0.000 999%   0.000 Tau                                                 
    0.000 999%   0.000 GPC+PCh                                             
 5.05E-10  57%   3.315 NAA+NAAG                                            
 2.12E-09  22%  13.927 Ins+Glyc                                            
 1.52E-10 225%   1.000 Cr+PCr                                              
 2.12E-09  33%  13.878 Glu+Gln                                             
   6 lines in following misc. output table
  FWHM = 0.112 ppm    S/N =   4                                            
  Data shift = 0.402 ppm                                                   
  Ph: -16 deg     -53.3 deg/ppm                                            
  alphaB,S = 1.9E-01,   1.1E+01                                            
   12 spline knots.   Ns = 5(1)                                            
  (11) 5 infls.   (11) 3 extrs.                                            
  363 points on ppm-axis = NY
      4.250000     4.238821     4.227641     4.216462     4.205282     4.194103     4.182923     4.171744     4.160564     4.149385
      4.138206     4.127026     4.115847     4.104667     4.093488     4.082308     4.071129     4.059949     4.048770     4.037591
      4.026411     4.015232     4.004052     3.992873     3.981693     3.970514     3.959334     3.948155     3.936975     3.925796
      3.914617     3.903437     3.892258     3.881078     3.869899     3.858719     3.847540     3.836360     3.825181     3.814002
      3.802822     3.791643     3.780463     3.769284     3.758104     3.746925     3.735745     3.724566     3.713387     3.702207
      3.691028     3.679848     3.668669     3.657489     3.646310     3.635130     3.623951     3.612772     3.601592     3.590413
      3.579233     3.568054     3.556874     3.545695     3.534515     3.523336     3.512156     3.500977     3.489798     3.478618
      3.467439     3.456259     3.445080     3.433900     3.422721     3.411541     3.400362     3.389183     3.378003     3.366824
      3.355644     3.344465     3.333285     3.322106     3.310926     3.299747     3.288568     3.277388     3.266209     3.255029
      3.243850     3.232670     3.221491     3.210311     3.199132     3.187953     3.176773     3.165594     3.154414     3.143235
      3.132055     3.120876     3.109696     3.098517     3.087337     3.076158     3.064979     3.053799     3.042620     3.031440
      3.020261     3.009081     2.997902     2.986722     2.975543     2.964364     2.953184     2.942005     2.930825     2.919646
      2.908466     2.897287     2.886107     2.874928     2.863749     2.852569     2.841390     2.830210     2.819031     2.807851
      2.796672     2.785492     2.774313     2.763134     2.751954     2.740775     2.729595     2.718416     2.707236     2.696057
      2.684877     2.673698     2.662519     2.651339     2.640160     2.628980     2.617801     2.606621     2.595442     2.584262
      2.573083     2.561903     2.550724     2.539545     2.528365     2.517186     2.506006     2.494827     2.483647     2.472468
      2.461288     2.450109     2.438930     2.427750     2.416571     2.405391     2.394212     2.383032     2.371853     2.360673
      2.349494     2.338315     2.327135     2.315956     2.304776     2.293597     2.282417     2.271238     2.260058     2.248879
      2.237700     2.226520     2.215341     2.204161     2.192982     2.181802     2.170623     2.159443     2.148264     2.137084
      2.125905     2.114726     2.103546     2.092367     2.081187     2.070008     2.058828     2.047649     2.036469     2.025290
      2.014111     2.002931     1.991752     1.980572     1.969393     1.958213     1.947034     1.935854     1.924675     1.913496
      1.902316     1.891137     1.879957     1.868778     1.857598     1.846419     1.835239     1.824060     1.812881     1.801701
      1.790522     1.779342     1.768163     1.756983     1.745804     1.734624     1.723445     1.712265     1.701086     1.689907
      1.678727     1.667548     1.656368     1.645189     1.634009     1.622830     1.611650     1.600471     1.589292     1.578112
      1.566933     1.555753     1.544574     1.533394     1.522215     1.511035     1.499856     1.488677     1.477497     1.466318
      1.455138     1.443959     1.432779     1.421600     1.410420     1.399241     1.388062     1.376882     1.365703     1.354523
      1.343344     1.332164     1.320985     1.309805     1.298626     1.287446     1.276267     1.265088     1.253908     1.242729
      1.231549     1.220370     1.209190     1.198011     1.186831     1.175652     1.164473     1.153293     1.142114     1.130934
      1.119755     1.108575     1.097396     1.086216     1.075037     1.063858     1.052678     1.041499     1.030319     1.019140
      1.007960     0.996781     0.985601     0.974422     0.963243     0.952063     0.940884     0.929704     0.918525     0.907345
      0.896166     0.884986     0.873807     0.862628     0.851448     0.840269     0.829089     0.817910     0.806730     0.795551
      0.784371     0.773192     0.762012     0.750833     0.739654     0.728474     0.717295     0.706115     0.694936     0.683756
      0.672577     0.661397     0.650218     0.639039     0.627859     0.616680     0.605500     0.594321     0.583141     0.571962
      0.560782     0.549603     0.538424     0.527244     0.516065     0.504885     0.493706     0.482526     0.471347     0.460167
      0.448988     0.437809     0.426629     0.415450     0.404270     0.393091     0.381911     0.370732     0.359552     0.348373
      0.337193     0.326014     0.314835     0.303655     0.292476     0.281296     0.270117     0.258937     0.247758     0.236578
      0.225399     0.214220     0.203040
 NY phased data points follow
   1.31519E-08  1.44316E-08  1.17684E-08  1.46262E-08  1.28157E-08  1.51504E-08  1.26022E-08  1.56198E-08  1.34292E-08  1.62772E-08
   1.46526E-08  1.65024E-08  1.35319E-08  1.55542E-08  1.31176E-08  1.56832E-08  1.25791E-08  1.50493E-08  1.28746E-08  1.53432E-08
   1.35097E-08  1.53373E-08  1.30548E-08  1.54116E-08  1.32668E-08  1.55538E-08  1.46058E-08  1.68666E-08  1.57732E-08  1.69798E-08
   1.45032E-08  1.60582E-08  1.31001E-08  1.43937E-08  1.28379E-08  1.45619E-08  1.23028E-08  1.38068E-08  1.16831E-08  1.38810E-08
   1.13203E-08  1.29352E-08  1.04362E-08  1.26434E-08  1.07431E-08  1.19103E-08  1.03218E-08  1.21430E-08  1.04672E-08  1.16269E-08
   9.97411E-09  1.08896E-08  9.32762E-09  1.10174E-08  9.62191E-09  1.18960E-08  1.08296E-08  1.35175E-08  1.37238E-08  1.58186E-08
   1.51497E-08  1.67569E-08  1.42606E-08  1.52550E-08  1.30082E-08  1.39366E-08  1.21757E-08  1.21550E-08  1.03233E-08  1.10066E-08
   9.25765E-09  1.09152E-08  9.39101E-09  1.20234E-08  1.21156E-08  1.59590E-08  1.65290E-08  1.84741E-08  1.69616E-08  1.80622E-08
   1.69258E-08  1.69255E-08  1.57133E-08  1.64120E-08  1.52270E-08  1.59269E-08  1.47224E-08  1.57695E-08  1.42312E-08  1.46872E-08
   1.31005E-08  1.42706E-08  1.21301E-08  1.29030E-08  1.15180E-08  1.22883E-08  1.12131E-08  1.20257E-08  1.11222E-08  1.15973E-08
   1.06137E-08  1.18248E-08  1.08005E-08  1.11511E-08  1.00351E-08  1.05894E-08  8.94225E-09  9.97123E-09  8.77308E-09  1.00983E-08
   8.96815E-09  1.01811E-08  9.40398E-09  1.05313E-08  9.35276E-09  1.01593E-08  9.32453E-09  9.97135E-09  9.42038E-09  9.21879E-09
   8.41869E-09  8.81884E-09  8.14297E-09  8.38452E-09  7.68332E-09  7.94450E-09  8.27154E-09  9.23944E-09  7.99370E-09  9.12608E-09
   9.05392E-09  9.58054E-09  8.73584E-09  8.80866E-09  9.08784E-09  9.39380E-09  1.02692E-08  1.07974E-08  1.08126E-08  1.11994E-08
   1.12721E-08  1.22683E-08  1.19502E-08  1.22440E-08  1.20849E-08  1.31057E-08  1.28736E-08  1.27109E-08  1.27795E-08  1.28229E-08
   1.23458E-08  1.24390E-08  1.22696E-08  1.29667E-08  1.22857E-08  1.27541E-08  1.20262E-08  1.30125E-08  1.25206E-08  1.25120E-08
   1.20274E-08  1.18949E-08  1.20657E-08  1.11417E-08  1.08488E-08  1.05267E-08  1.26325E-08  1.61316E-08  1.96529E-08  2.09608E-08
   2.18480E-08  2.24884E-08  2.34171E-08  2.30809E-08  2.25266E-08  2.21170E-08  2.17719E-08  2.05424E-08  1.91723E-08  1.75684E-08
   1.64054E-08  1.36530E-08  1.15412E-08  8.65469E-09  6.72517E-09  2.83678E-09  5.26527E-10 -1.64782E-09 -4.04207E-09 -5.83595E-09
  -7.17612E-09 -8.93925E-09 -9.83377E-09 -1.03486E-08 -9.93865E-09 -9.85826E-09 -8.50037E-09 -7.71778E-09 -6.48286E-09 -5.89974E-09
  -4.48859E-09 -4.51686E-09 -3.11477E-09 -2.84484E-09 -2.06514E-09 -2.71017E-09 -1.18961E-09 -1.95767E-09 -1.85167E-09 -1.98029E-09
  -1.63260E-09 -1.79085E-09 -1.17975E-09 -1.24276E-09 -1.20595E-09 -1.53317E-09 -1.11405E-09 -2.30056E-09 -9.89157E-10 -1.34313E-09
  -3.27063E-10 -1.16669E-09 -3.32812E-10 -1.50556E-09 -7.32696E-10 -1.33472E-09 -4.82696E-10 -1.71425E-09 -1.34969E-10 -8.27797E-10
  -4.32098E-10 -1.35000E-09 -4.57908E-10 -8.15908E-10 -2.24111E-10 -1.06945E-09 -4.02567E-10 -1.16662E-09 -6.42174E-10 -9.08150E-10
  -5.15962E-10 -1.48985E-09 -8.17645E-10 -1.01319E-09 -3.92839E-10 -1.75818E-09 -3.15801E-10 -8.06656E-10 -2.84762E-11 -7.38703E-10
   4.33998E-10 -1.36460E-10  6.08099E-10 -2.94877E-10  1.90021E-10 -7.38132E-11  1.27692E-10 -2.81625E-10  1.32021E-10 -1.02947E-09
  -5.38853E-10 -1.59617E-09 -9.24663E-10 -2.27680E-09 -8.84379E-10 -2.55650E-09 -1.06693E-09 -1.22482E-09 -1.78656E-09 -1.83418E-09
  -7.60039E-10 -1.65558E-09 -8.04104E-10 -8.49239E-10 -2.85122E-10 -4.21249E-10  1.94511E-10 -7.83484E-10  2.94060E-10  2.65374E-10
   8.13091E-10 -3.22081E-10  7.79721E-10  3.76558E-10  1.74839E-09  1.14056E-09  1.12451E-09  5.48614E-10  1.20754E-09  9.93566E-10
   1.46870E-09  6.49114E-10  1.43325E-09  6.41919E-10  1.67972E-09  7.75754E-10  1.71295E-09  9.63117E-10  1.84460E-09  4.13802E-10
   1.81740E-09  1.21364E-09  1.39046E-09  1.39242E-09  1.87990E-09  6.73702E-10  1.35833E-09  1.14512E-09  1.56151E-09  8.77276E-10
   1.46236E-09  6.04847E-10  1.56259E-09  7.31161E-10  1.65510E-09  5.83670E-10  1.59582E-09  7.37306E-10  1.97507E-09  9.05060E-10
   1.65204E-09  3.50831E-10  1.75851E-09  1.30788E-09  1.06618E-09  7.19398E-10  1.55187E-09  9.96463E-10  1.63982E-09  7.29981E-10
   1.68686E-09  7.74449E-10  9.72793E-10  7.42975E-10  1.64893E-09  9.91658E-10  1.75265E-09  1.15710E-09  1.50310E-09  1.09998E-09
   1.63773E-09  9.01798E-10  1.88517E-09  1.02843E-09  1.19748E-09  1.11017E-09  1.52117E-09  1.27946E-09  1.29257E-09  1.05833E-09
   1.57933E-09  1.01760E-09  1.90470E-09  1.06901E-09  1.51772E-09  7.07871E-10  1.42680E-09  8.97225E-10  1.18659E-09  1.02987E-09
   1.28853E-09  2.78772E-10  1.25846E-09
 NY points of the fit to the data follow
   1.34513E-08  1.36203E-08  1.33722E-08  1.34083E-08  1.32371E-08  1.37853E-08  1.42534E-08  1.43759E-08  1.53591E-08  1.63485E-08
   1.49867E-08  1.46600E-08  1.43177E-08  1.41223E-08  1.47598E-08  1.49310E-08  1.35746E-08  1.39639E-08  1.57054E-08  1.52004E-08
   1.32328E-08  1.24580E-08  1.33409E-08  1.40762E-08  1.44452E-08  1.49032E-08  1.60409E-08  1.71362E-08  1.67395E-08  1.51200E-08
   1.49271E-08  1.53185E-08  1.52124E-08  1.41097E-08  1.39273E-08  1.34253E-08  1.31912E-08  1.24871E-08  1.23442E-08  1.22675E-08
   1.20590E-08  1.21443E-08  1.20178E-08  1.16078E-08  1.14725E-08  1.08465E-08  1.07796E-08  1.02225E-08  9.72184E-09  9.66326E-09
   9.92778E-09  1.03328E-08  1.07326E-08  1.11313E-08  1.17668E-08  1.23723E-08  1.24354E-08  1.31442E-08  1.41344E-08  1.44702E-08
   1.45990E-08  1.45854E-08  1.45220E-08  1.47138E-08  1.45176E-08  1.36419E-08  1.30866E-08  1.31772E-08  1.24442E-08  1.16499E-08
   1.17934E-08  1.21825E-08  1.23413E-08  1.26198E-08  1.33543E-08  1.42186E-08  1.49613E-08  1.60887E-08  1.68875E-08  1.74150E-08
   1.76522E-08  1.75420E-08  1.72663E-08  1.67342E-08  1.64798E-08  1.60196E-08  1.50808E-08  1.41724E-08  1.27774E-08  1.20656E-08
   1.16660E-08  1.13839E-08  1.13197E-08  1.12123E-08  1.09248E-08  1.08811E-08  1.08445E-08  1.06496E-08  1.05761E-08  1.05209E-08
   1.04433E-08  1.04012E-08  1.03718E-08  1.03475E-08  1.03328E-08  1.03258E-08  1.03239E-08  1.03263E-08  1.03316E-08  1.03396E-08
   1.03499E-08  1.03619E-08  1.03755E-08  1.03904E-08  1.04064E-08  1.04235E-08  1.04415E-08  1.04604E-08  1.04799E-08  1.05002E-08
   1.05210E-08  1.05424E-08  1.05643E-08  1.05863E-08  1.06081E-08  1.06294E-08  1.06500E-08  1.06695E-08  1.06876E-08  1.07040E-08
   1.07185E-08  1.07308E-08  1.07405E-08  1.07475E-08  1.07514E-08  1.07520E-08  1.07490E-08  1.07421E-08  1.07310E-08  1.07156E-08
   1.06955E-08  1.06706E-08  1.06405E-08  1.06050E-08  1.05639E-08  1.05169E-08  1.04639E-08  1.04046E-08  1.03390E-08  1.02667E-08
   1.01876E-08  1.01018E-08  1.00090E-08  9.90948E-09  9.80322E-09  9.69053E-09  9.57191E-09  9.44812E-09  9.32049E-09  9.19110E-09
   9.06356E-09  8.94386E-09  8.84356E-09  8.78629E-09  8.82652E-09  9.12237E-09  1.03521E-08  1.53801E-08  1.97598E-08  2.17341E-08
   2.25488E-08  2.31337E-08  2.36303E-08  2.32967E-08  2.25902E-08  2.23027E-08  2.31244E-08  2.23898E-08  1.25672E-08  7.12178E-09
   5.44027E-09  4.57256E-09  3.97813E-09  3.50534E-09  3.09721E-09  2.72813E-09  2.38513E-09  2.06115E-09  1.75214E-09  1.45572E-09
   1.17052E-09  8.95747E-10  6.31033E-10  3.76211E-10  1.31377E-10 -1.03273E-10 -3.27529E-10 -5.40973E-10 -7.43257E-10 -9.33985E-10
  -1.11262E-09 -1.27875E-09 -1.43194E-09 -1.57245E-09 -1.70066E-09 -1.81700E-09 -1.92186E-09 -2.01564E-09 -2.09874E-09 -2.17153E-09
  -2.23439E-09 -2.28771E-09 -2.33186E-09 -2.36722E-09 -2.39416E-09 -2.41306E-09 -2.42427E-09 -2.42816E-09 -2.42513E-09 -2.41551E-09
  -2.39969E-09 -2.37802E-09 -2.35088E-09 -2.31863E-09 -2.28161E-09 -2.24023E-09 -2.19479E-09 -2.14573E-09 -2.09336E-09 -2.03803E-09
  -1.98015E-09 -1.92006E-09 -1.85813E-09 -1.79468E-09 -1.73013E-09 -1.66478E-09 -1.59907E-09 -1.53326E-09 -1.46779E-09 -1.40299E-09
  -1.33923E-09 -1.27685E-09 -1.21621E-09 -1.15741E-09 -1.10039E-09 -1.04510E-09 -9.91477E-10 -9.39474E-10 -8.89036E-10 -8.40105E-10
  -7.92627E-10 -7.46556E-10 -7.01813E-10 -6.58365E-10 -6.16146E-10 -5.75122E-10 -5.35207E-10 -4.96358E-10 -4.58529E-10 -4.21646E-10
  -3.85683E-10 -3.50556E-10 -3.16216E-10 -2.82627E-10 -2.49710E-10 -2.17420E-10 -1.85695E-10 -1.54499E-10 -1.23758E-10 -9.34224E-11
  -6.34388E-11 -3.37427E-11 -4.28885E-12  2.49711E-11  5.41042E-11  8.31762E-11  1.12218E-10  1.41304E-10  1.70481E-10  1.99807E-10
   2.29323E-10  2.59111E-10  2.89201E-10  3.19615E-10  3.50311E-10  3.81250E-10  4.12387E-10  4.43683E-10  4.75095E-10  5.06582E-10
   5.38103E-10  5.69616E-10  6.01077E-10  6.32450E-10  6.63687E-10  6.94751E-10  7.25598E-10  7.56190E-10  7.86484E-10  8.16439E-10
   8.46010E-10  8.75161E-10  9.03848E-10  9.32030E-10  9.59663E-10  9.86713E-10  1.01313E-09  1.03888E-09  1.06392E-09  1.08820E-09
   1.11169E-09  1.13435E-09  1.15613E-09  1.17700E-09  1.19691E-09  1.21581E-09  1.23368E-09  1.25047E-09  1.26613E-09  1.28063E-09
   1.29393E-09  1.30599E-09  1.31676E-09  1.32623E-09  1.33443E-09  1.34142E-09  1.34723E-09  1.35192E-09  1.35551E-09  1.35806E-09
   1.35962E-09  1.36022E-09  1.35991E-09  1.35874E-09  1.35674E-09  1.35397E-09  1.35046E-09  1.34626E-09  1.34142E-09  1.33597E-09
   1.32997E-09  1.32346E-09  1.31647E-09  1.30906E-09  1.30127E-09  1.29313E-09  1.28471E-09  1.27603E-09  1.26715E-09  1.25810E-09
   1.24893E-09  1.23969E-09  1.23042E-09  1.22116E-09  1.21195E-09  1.20285E-09  1.19388E-09  1.18511E-09  1.17656E-09  1.16829E-09
   1.16033E-09  1.15274E-09  1.14554E-09
 NY background values follow
     3.304E-10    4.220E-10    5.134E-10    6.047E-10    6.959E-10    7.870E-10    8.781E-10    9.690E-10    1.060E-09    1.151E-09
     1.241E-09    1.332E-09    1.423E-09    1.513E-09    1.604E-09    1.694E-09    1.784E-09    1.875E-09    1.965E-09    2.055E-09
     2.146E-09    2.236E-09    2.326E-09    2.416E-09    2.506E-09    2.597E-09    2.687E-09    2.777E-09    2.867E-09    2.958E-09
     3.048E-09    3.138E-09    3.229E-09    3.319E-09    3.410E-09    3.500E-09    3.591E-09    3.682E-09    3.772E-09    3.863E-09
     3.954E-09    4.045E-09    4.136E-09    4.227E-09    4.318E-09    4.409E-09    4.500E-09    4.591E-09    4.682E-09    4.772E-09
     4.863E-09    4.953E-09    5.043E-09    5.132E-09    5.221E-09    5.310E-09    5.398E-09    5.486E-09    5.573E-09    5.660E-09
     5.746E-09    5.832E-09    5.917E-09    6.001E-09    6.084E-09    6.167E-09    6.249E-09    6.330E-09    6.411E-09    6.490E-09
     6.569E-09    6.646E-09    6.723E-09    6.799E-09    6.873E-09    6.946E-09    7.019E-09    7.090E-09    7.160E-09    7.228E-09
     7.296E-09    7.362E-09    7.427E-09    7.490E-09    7.552E-09    7.614E-09    7.673E-09    7.732E-09    7.790E-09    7.846E-09
     7.901E-09    7.955E-09    8.009E-09    8.061E-09    8.112E-09    8.163E-09    8.212E-09    8.260E-09    8.308E-09    8.355E-09
     8.401E-09    8.446E-09    8.491E-09    8.535E-09    8.578E-09    8.620E-09    8.662E-09    8.703E-09    8.744E-09    8.784E-09
     8.823E-09    8.862E-09    8.901E-09    8.939E-09    8.977E-09    9.015E-09    9.052E-09    9.088E-09    9.125E-09    9.161E-09
     9.197E-09    9.233E-09    9.268E-09    9.303E-09    9.337E-09    9.370E-09    9.402E-09    9.432E-09    9.461E-09    9.487E-09
     9.511E-09    9.532E-09    9.550E-09    9.565E-09    9.577E-09    9.585E-09    9.589E-09    9.588E-09    9.584E-09    9.574E-09
     9.560E-09    9.540E-09    9.514E-09    9.483E-09    9.446E-09    9.402E-09    9.352E-09    9.295E-09    9.230E-09    9.159E-09
     9.079E-09    8.992E-09    8.896E-09    8.792E-09    8.680E-09    8.558E-09    8.427E-09    8.286E-09    8.136E-09    7.976E-09
     7.805E-09    7.624E-09    7.432E-09    7.229E-09    7.018E-09    6.797E-09    6.568E-09    6.331E-09    6.086E-09    5.835E-09
     5.578E-09    5.316E-09    5.048E-09    4.776E-09    4.500E-09    4.221E-09    3.940E-09    3.656E-09    3.371E-09    3.085E-09
     2.798E-09    2.512E-09    2.227E-09    1.943E-09    1.662E-09    1.382E-09    1.106E-09    8.342E-10    5.663E-10    3.033E-10
     4.584E-11   -2.056E-10   -4.503E-10   -6.878E-10   -9.174E-10   -1.139E-09   -1.351E-09   -1.554E-09   -1.746E-09   -1.928E-09
    -2.098E-09   -2.257E-09   -2.403E-09   -2.537E-09   -2.660E-09   -2.770E-09   -2.870E-09   -2.958E-09   -3.037E-09   -3.105E-09
    -3.164E-09   -3.213E-09   -3.253E-09   -3.285E-09   -3.308E-09   -3.323E-09   -3.331E-09   -3.332E-09   -3.326E-09   -3.313E-09
    -3.294E-09   -3.270E-09   -3.240E-09   -3.205E-09   -3.165E-09   -3.122E-09   -3.074E-09   -3.022E-09   -2.967E-09   -2.910E-09
    -2.850E-09   -2.787E-09   -2.723E-09   -2.658E-09   -2.591E-09   -2.524E-09   -2.456E-09   -2.388E-09   -2.321E-09   -2.254E-09
    -2.189E-09   -2.125E-09   -2.062E-09   -2.002E-09   -1.943E-09   -1.886E-09   -1.831E-09   -1.777E-09   -1.725E-09   -1.675E-09
    -1.626E-09   -1.578E-09   -1.532E-09   -1.487E-09   -1.443E-09   -1.401E-09   -1.359E-09   -1.319E-09   -1.280E-09   -1.242E-09
    -1.204E-09   -1.168E-09   -1.132E-09   -1.097E-09   -1.063E-09   -1.030E-09   -9.966E-10   -9.641E-10   -9.322E-10   -9.006E-10
    -8.694E-10   -8.386E-10   -8.079E-10   -7.775E-10   -7.472E-10   -7.170E-10   -6.869E-10   -6.567E-10   -6.264E-10   -5.960E-10
    -5.654E-10   -5.345E-10   -5.034E-10   -4.719E-10   -4.402E-10   -4.082E-10   -3.761E-10   -3.438E-10   -3.114E-10   -2.789E-10
    -2.464E-10   -2.139E-10   -1.815E-10   -1.491E-10   -1.170E-10   -8.496E-11   -5.318E-11   -2.167E-11    9.543E-12    4.040E-11
     7.087E-11    1.009E-10    1.305E-10    1.595E-10    1.881E-10    2.160E-10    2.432E-10    2.698E-10    2.957E-10    3.208E-10
     3.452E-10    3.687E-10    3.913E-10    4.129E-10    4.337E-10    4.534E-10    4.720E-10    4.896E-10    5.061E-10    5.213E-10
     5.354E-10    5.482E-10    5.598E-10    5.700E-10    5.790E-10    5.867E-10    5.933E-10    5.987E-10    6.030E-10    6.063E-10
     6.086E-10    6.099E-10    6.103E-10    6.099E-10    6.086E-10    6.065E-10    6.037E-10    6.002E-10    5.961E-10    5.913E-10
     5.860E-10    5.802E-10    5.739E-10    5.672E-10    5.601E-10    5.526E-10    5.448E-10    5.368E-10    5.286E-10    5.202E-10
     5.117E-10    5.032E-10    4.945E-10    4.859E-10    4.774E-10    4.689E-10    4.606E-10    4.525E-10    4.446E-10    4.369E-10
     4.296E-10    4.226E-10    4.161E-10
 Asp      Conc. = 9.26E-10
   1.41178E-09  1.37441E-09  1.37242E-09  1.31345E-09  1.37127E-09  1.33469E-09  1.34113E-09  1.26599E-09  1.27779E-09  1.32313E-09
   1.38402E-09  1.45311E-09  1.52728E-09  1.60713E-09  1.68946E-09  1.77275E-09  1.85711E-09  1.94239E-09  2.02845E-09  2.11518E-09
   2.20247E-09  2.29029E-09  2.37859E-09  2.46737E-09  2.55662E-09  2.64639E-09  2.73671E-09  2.82769E-09  2.91946E-09  3.01221E-09
   3.10626E-09  3.20207E-09  3.30045E-09  3.40283E-09  3.51222E-09  3.63619E-09  3.79673E-09  3.94397E-09  4.10897E-09  4.23131E-09
   4.32761E-09  4.42859E-09  4.57133E-09  4.80826E-09  5.08274E-09  5.46119E-09  5.67881E-09  5.72957E-09  5.93135E-09  6.05117E-09
   6.23204E-09  6.41498E-09  6.60846E-09  6.71064E-09  6.63879E-09  6.55430E-09  6.21343E-09  6.30527E-09  6.48131E-09  6.35641E-09
   6.32273E-09  6.37384E-09  6.35328E-09  6.36500E-09  6.47669E-09  6.60772E-09  6.59388E-09  6.61649E-09  6.65896E-09  6.71130E-09
   6.76915E-09  6.83027E-09  6.89339E-09  6.95768E-09  7.02259E-09  7.08772E-09  7.15278E-09  7.21752E-09  7.28178E-09  7.34539E-09
   7.40824E-09  7.47020E-09  7.53124E-09  7.59132E-09  7.65042E-09  7.70855E-09  7.76570E-09  7.82188E-09  7.87709E-09  7.93135E-09
   7.98467E-09  8.03705E-09  8.08852E-09  8.13910E-09  8.18880E-09  8.23765E-09  8.28566E-09  8.33286E-09  8.37927E-09  8.42491E-09
   8.46981E-09  8.51399E-09  8.55748E-09  8.60029E-09  8.64246E-09  8.68402E-09  8.72498E-09  8.76537E-09  8.80522E-09  8.84457E-09
   8.88342E-09  8.92181E-09  8.95977E-09  8.99732E-09  9.03450E-09  9.07132E-09  9.10782E-09  9.14403E-09  9.17996E-09  9.21566E-09
   9.25113E-09  9.28641E-09  9.32144E-09  9.35594E-09  9.38966E-09  9.42233E-09  9.45369E-09  9.48347E-09  9.51140E-09  9.53724E-09
   9.56071E-09  9.58153E-09  9.59946E-09  9.61424E-09  9.62557E-09  9.63321E-09  9.63692E-09  9.63639E-09  9.63137E-09  9.62162E-09
   9.60686E-09  9.58682E-09  9.56125E-09  9.52988E-09  9.49244E-09  9.44869E-09  9.39836E-09  9.34118E-09  9.27692E-09  9.20529E-09
   9.12605E-09  9.03895E-09  8.94377E-09  8.84022E-09  8.72811E-09  8.60719E-09  8.47730E-09  8.33823E-09  8.18987E-09  8.03215E-09
   7.86522E-09  7.68932E-09  7.50555E-09  7.31668E-09  7.12893E-09  6.96051E-09  6.89590E-09  7.20169E-09  7.31776E-09  7.22076E-09
   7.04626E-09  6.85900E-09  6.65553E-09  6.36030E-09  6.04749E-09  5.78572E-09  5.62261E-09  5.21795E-09  3.92124E-09  3.35106E-09
   2.97422E-09  2.64645E-09  2.33777E-09  2.03913E-09  1.74718E-09  1.46063E-09  1.17907E-09  9.02501E-10  6.31125E-10  3.65315E-10
   1.05487E-10 -1.47897E-10 -3.94311E-10 -6.33280E-10 -8.64226E-10 -1.08659E-09 -1.29987E-09 -1.50345E-09 -1.69679E-09 -1.87937E-09
  -2.05052E-09 -2.20975E-09 -2.35654E-09 -2.49110E-09 -2.61375E-09 -2.72487E-09 -2.82481E-09 -2.91395E-09 -2.99264E-09 -3.06125E-09
  -3.12013E-09 -3.16964E-09 -3.21016E-09 -3.24204E-09 -3.26562E-09 -3.28130E-09 -3.28940E-09 -3.29030E-09 -3.28437E-09 -3.27195E-09
  -3.25341E-09 -3.22911E-09 -3.19941E-09 -3.16467E-09 -3.12523E-09 -3.08150E-09 -3.03377E-09 -2.98247E-09 -2.92791E-09 -2.87044E-09
  -2.81048E-09 -2.74834E-09 -2.68441E-09 -2.61900E-09 -2.55254E-09 -2.48532E-09 -2.41776E-09 -2.35014E-09 -2.28290E-09 -2.21636E-09
  -2.15089E-09 -2.08682E-09 -2.02453E-09 -1.96410E-09 -1.90548E-09 -1.84861E-09 -1.79344E-09 -1.73991E-09 -1.68797E-09 -1.63756E-09
  -1.58863E-09 -1.54112E-09 -1.49496E-09 -1.45011E-09 -1.40652E-09 -1.36413E-09 -1.32287E-09 -1.28270E-09 -1.24357E-09 -1.20539E-09
  -1.16816E-09 -1.13177E-09 -1.09619E-09 -1.06137E-09 -1.02724E-09 -9.93751E-10 -9.60842E-10 -9.28475E-10 -8.96576E-10 -8.65095E-10
  -8.33978E-10 -8.03162E-10 -7.72601E-10 -7.42244E-10 -7.12027E-10 -6.81882E-10 -6.51779E-10 -6.21642E-10 -5.91425E-10 -5.61068E-10
  -5.30533E-10 -4.99736E-10 -4.68647E-10 -4.37243E-10 -4.05567E-10 -3.73657E-10 -3.41557E-10 -3.09308E-10 -2.76951E-10 -2.44528E-10
  -2.12080E-10 -1.79648E-10 -1.47274E-10 -1.14998E-10 -8.28648E-11 -5.09113E-11 -1.91840E-11  1.22821E-11  4.34420E-11  7.42565E-11
   1.04680E-10  1.34676E-10  1.64202E-10  1.93216E-10  2.21675E-10  2.49544E-10  2.76774E-10  3.03332E-10  3.29170E-10  3.54250E-10
   3.78530E-10  4.01973E-10  4.24531E-10  4.46166E-10  4.66845E-10  4.86509E-10  5.05135E-10  5.22677E-10  5.39086E-10  5.54329E-10
   5.68364E-10  5.81155E-10  5.92649E-10  6.02841E-10  6.11765E-10  6.19465E-10  6.25988E-10  6.31374E-10  6.35670E-10  6.38920E-10
   6.41168E-10  6.42459E-10  6.42834E-10  6.42342E-10  6.41023E-10  6.38922E-10  6.36085E-10  6.32555E-10  6.28376E-10  6.23591E-10
   6.18246E-10  6.12383E-10  6.06047E-10  5.99284E-10  5.92135E-10  5.84644E-10  5.76857E-10  5.68815E-10  5.60566E-10  5.52149E-10
   5.43613E-10  5.34997E-10  5.26348E-10  5.17706E-10  5.09120E-10  5.00629E-10  4.92281E-10  4.84116E-10  4.76178E-10  4.68513E-10
   4.61162E-10  4.54170E-10  4.47581E-10
 GABA     Conc. = 4.84E-10
   3.36217E-10  4.27712E-10  5.19106E-10  6.10404E-10  7.01617E-10  7.92749E-10  8.83811E-10  9.74813E-10  1.06576E-09  1.15668E-09
   1.24758E-09  1.33846E-09  1.42938E-09  1.52031E-09  1.61135E-09  1.70247E-09  1.79367E-09  1.88508E-09  1.97679E-09  2.06880E-09
   2.16127E-09  2.25444E-09  2.34855E-09  2.44399E-09  2.54155E-09  2.64219E-09  2.74839E-09  2.86545E-09  3.00777E-09  3.22126E-09
   3.38111E-09  3.51301E-09  3.79758E-09  4.05300E-09  4.20366E-09  4.38808E-09  4.58159E-09  4.75732E-09  4.88990E-09  4.94352E-09
   4.84644E-09  4.98228E-09  5.11517E-09  4.84031E-09  4.80002E-09  4.93747E-09  4.86150E-09  4.84290E-09  4.87831E-09  4.93600E-09
   5.00521E-09  5.08107E-09  5.16123E-09  5.24470E-09  5.33097E-09  5.41967E-09  5.51109E-09  5.60599E-09  5.70586E-09  5.81482E-09
   5.94187E-09  6.11570E-09  6.33164E-09  6.47116E-09  6.65317E-09  6.92305E-09  7.09537E-09  7.21086E-09  7.34061E-09  7.47088E-09
   7.58215E-09  7.64302E-09  7.58860E-09  7.49025E-09  7.63183E-09  7.56399E-09  7.33079E-09  7.40018E-09  7.45654E-09  7.44630E-09
   7.51912E-09  7.56701E-09  7.63928E-09  7.80610E-09  7.92352E-09  8.01208E-09  8.15712E-09  8.28626E-09  8.40042E-09  8.52856E-09
   8.58359E-09  8.59205E-09  8.74574E-09  8.79542E-09  8.64753E-09  8.72633E-09  8.79016E-09  8.67672E-09  8.67078E-09  8.69559E-09
   8.68242E-09  8.68580E-09  8.70070E-09  8.72229E-09  8.74812E-09  8.77656E-09  8.80677E-09  8.83820E-09  8.87048E-09  8.90341E-09
   8.93684E-09  8.97045E-09  9.00418E-09  9.03798E-09  9.07176E-09  9.10561E-09  9.13947E-09  9.17330E-09  9.20707E-09  9.24080E-09
   9.27446E-09  9.30810E-09  9.34162E-09  9.37473E-09  9.40716E-09  9.43865E-09  9.46891E-09  9.49766E-09  9.52464E-09  9.54959E-09
   9.57222E-09  9.59226E-09  9.60945E-09  9.62353E-09  9.63421E-09  9.64123E-09  9.64435E-09  9.64326E-09  9.63771E-09  9.62744E-09
   9.61218E-09  9.59167E-09  9.56564E-09  9.53382E-09  9.49594E-09  9.45176E-09  9.40099E-09  9.34337E-09  9.27867E-09  9.20659E-09
   9.12687E-09  9.03927E-09  8.94355E-09  8.83942E-09  8.72665E-09  8.60500E-09  8.47424E-09  8.33414E-09  8.18451E-09  8.02518E-09
   7.85614E-09  7.67733E-09  7.48935E-09  7.29386E-09  7.09449E-09  6.90142E-09  6.76222E-09  6.80999E-09  6.75088E-09  6.57848E-09
   6.36418E-09  6.14105E-09  5.90630E-09  5.62156E-09  5.32692E-09  5.05864E-09  4.83890E-09  4.48172E-09  3.66806E-09  3.24035E-09
   2.90783E-09  2.60013E-09  2.30258E-09  2.01088E-09  1.72362E-09  1.44043E-09  1.16136E-09  8.86700E-10  6.16826E-10  3.52221E-10
   9.33751E-11 -1.59195E-10 -4.04930E-10 -6.43323E-10 -8.73778E-10 -1.09572E-09 -1.30864E-09 -1.51190E-09 -1.70496E-09 -1.88729E-09
  -2.05822E-09 -2.21726E-09 -2.36388E-09 -2.49829E-09 -2.62080E-09 -2.73179E-09 -2.83161E-09 -2.92065E-09 -2.99925E-09 -3.06778E-09
  -3.12658E-09 -3.17603E-09 -3.21648E-09 -3.24830E-09 -3.27182E-09 -3.28745E-09 -3.29551E-09 -3.29637E-09 -3.29040E-09 -3.27794E-09
  -3.25937E-09 -3.23504E-09 -3.20531E-09 -3.17055E-09 -3.13108E-09 -3.08732E-09 -3.03957E-09 -2.98825E-09 -2.93367E-09 -2.87619E-09
  -2.81621E-09 -2.75406E-09 -2.69012E-09 -2.62469E-09 -2.55822E-09 -2.49098E-09 -2.42341E-09 -2.35579E-09 -2.28853E-09 -2.22198E-09
