 LCModel (Version 6.3-1R) Copyright: S.W. Provencher.          Ref.: Magn. Reson. Med. 30:672-679 (1993).                
 onepulse 19x7_ftSpec_smooth_lcm
 26 lines in following concentration table = NCONC+1
    Conc.  %SD /Cr+PCr  Metabolite                                         
    0.000 999%   0.000 Ala                                                 
 8.84E-10  74%   1.934 Asp                                                 
    0.000 999%   0.000 Cr                                                  
 8.94E-11 838%   0.196 GABA                                                
 2.54E-11 999% 5.5E-02 Glc                                                 
 2.97E-09  23%   6.489 Gln                                                 
    0.000 999%   0.000 Glu                                                 
    0.000 999%   0.000 Glyc                                                
    0.000 999%   0.000 GPC                                                 
 5.56E-10  93%   1.215 GSH                                                 
 1.54E-09  28%   3.368 Ins                                                 
    0.000 999%   0.000 Lac                                                 
 3.96E-10  88%   0.866 NAAG                                                
 6.30E-11 828%   0.138 NAA                                                 
    0.000 999%   0.000 PCh                                                 
 4.57E-10  73%   1.000 PCr                                                 
 1.75E-09  45%   3.827 PE                                                  
 1.57E-10 173%   0.344 Scyllo                                              
    0.000 999%   0.000 Ser                                                 
 7.95E-10 137%   1.740 Tau                                                 
    0.000 999%   0.000 GPC+PCh                                             
 4.59E-10  67%   1.003 NAA+NAAG                                            
 1.54E-09  28%   3.368 Ins+Glyc                                            
 4.57E-10  73%   1.000 Cr+PCr                                              
 2.97E-09  23%   6.489 Glu+Gln                                             
   6 lines in following misc. output table
  FWHM = 0.112 ppm    S/N =   3                                            
  Data shift = 0.391 ppm                                                   
  Ph: -22 deg     -48.8 deg/ppm                                            
  alphaB,S = 1.9E-01,   1.2E+01                                            
   12 spline knots.   Ns = 5(1)                                            
  (11) 4 infls.   ( 9) 3 extrs.                                            
  363 points on ppm-axis = NY
      4.250000     4.238821     4.227641     4.216462     4.205282     4.194103     4.182923     4.171744     4.160564     4.149385
      4.138206     4.127026     4.115847     4.104667     4.093488     4.082308     4.071129     4.059949     4.048770     4.037591
      4.026411     4.015232     4.004052     3.992873     3.981693     3.970514     3.959334     3.948155     3.936975     3.925796
      3.914617     3.903437     3.892258     3.881078     3.869899     3.858719     3.847540     3.836360     3.825181     3.814002
      3.802822     3.791643     3.780463     3.769284     3.758104     3.746925     3.735745     3.724566     3.713387     3.702207
      3.691028     3.679848     3.668669     3.657489     3.646310     3.635130     3.623951     3.612772     3.601592     3.590413
      3.579233     3.568054     3.556874     3.545695     3.534515     3.523336     3.512156     3.500977     3.489798     3.478618
      3.467439     3.456259     3.445080     3.433900     3.422721     3.411541     3.400362     3.389183     3.378003     3.366824
      3.355644     3.344465     3.333285     3.322106     3.310926     3.299747     3.288568     3.277388     3.266209     3.255029
      3.243850     3.232670     3.221491     3.210311     3.199132     3.187953     3.176773     3.165594     3.154414     3.143235
      3.132055     3.120876     3.109696     3.098517     3.087337     3.076158     3.064979     3.053799     3.042620     3.031440
      3.020261     3.009081     2.997902     2.986722     2.975543     2.964364     2.953184     2.942005     2.930825     2.919646
      2.908466     2.897287     2.886107     2.874928     2.863749     2.852569     2.841390     2.830210     2.819031     2.807851
      2.796672     2.785492     2.774313     2.763134     2.751954     2.740775     2.729595     2.718416     2.707236     2.696057
      2.684877     2.673698     2.662519     2.651339     2.640160     2.628980     2.617801     2.606621     2.595442     2.584262
      2.573083     2.561903     2.550724     2.539545     2.528365     2.517186     2.506006     2.494827     2.483647     2.472468
      2.461288     2.450109     2.438930     2.427750     2.416571     2.405391     2.394212     2.383032     2.371853     2.360673
      2.349494     2.338315     2.327135     2.315956     2.304776     2.293597     2.282417     2.271238     2.260058     2.248879
      2.237700     2.226520     2.215341     2.204161     2.192982     2.181802     2.170623     2.159443     2.148264     2.137084
      2.125905     2.114726     2.103546     2.092367     2.081187     2.070008     2.058828     2.047649     2.036469     2.025290
      2.014111     2.002931     1.991752     1.980572     1.969393     1.958213     1.947034     1.935854     1.924675     1.913496
      1.902316     1.891137     1.879957     1.868778     1.857598     1.846419     1.835239     1.824060     1.812881     1.801701
      1.790522     1.779342     1.768163     1.756983     1.745804     1.734624     1.723445     1.712265     1.701086     1.689907
      1.678727     1.667548     1.656368     1.645189     1.634009     1.622830     1.611650     1.600471     1.589292     1.578112
      1.566933     1.555753     1.544574     1.533394     1.522215     1.511035     1.499856     1.488677     1.477497     1.466318
      1.455138     1.443959     1.432779     1.421600     1.410420     1.399241     1.388062     1.376882     1.365703     1.354523
      1.343344     1.332164     1.320985     1.309805     1.298626     1.287446     1.276267     1.265088     1.253908     1.242729
      1.231549     1.220370     1.209190     1.198011     1.186831     1.175652     1.164473     1.153293     1.142114     1.130934
      1.119755     1.108575     1.097396     1.086216     1.075037     1.063858     1.052678     1.041499     1.030319     1.019140
      1.007960     0.996781     0.985601     0.974422     0.963243     0.952063     0.940884     0.929704     0.918525     0.907345
      0.896166     0.884986     0.873807     0.862628     0.851448     0.840269     0.829089     0.817910     0.806730     0.795551
      0.784371     0.773192     0.762012     0.750833     0.739654     0.728474     0.717295     0.706115     0.694936     0.683756
      0.672577     0.661397     0.650218     0.639039     0.627859     0.616680     0.605500     0.594321     0.583141     0.571962
      0.560782     0.549603     0.538424     0.527244     0.516065     0.504885     0.493706     0.482526     0.471347     0.460167
      0.448988     0.437809     0.426629     0.415450     0.404270     0.393091     0.381911     0.370732     0.359552     0.348373
      0.337193     0.326014     0.314835     0.303655     0.292476     0.281296     0.270117     0.258937     0.247758     0.236578
      0.225399     0.214220     0.203040
 NY phased data points follow
   1.23586E-08  1.07073E-08  1.14591E-08  9.70162E-09  1.18076E-08  1.07474E-08  1.24129E-08  1.08840E-08  1.32405E-08  1.15531E-08
   1.36177E-08  1.25546E-08  1.35559E-08  1.10946E-08  1.24330E-08  1.08612E-08  1.27188E-08  1.04291E-08  1.23699E-08  1.08203E-08
   1.23655E-08  1.11700E-08  1.26152E-08  1.10888E-08  1.27202E-08  1.10703E-08  1.31389E-08  1.27971E-08  1.41924E-08  1.36725E-08
   1.37784E-08  1.20825E-08  1.26549E-08  1.02700E-08  1.08880E-08  1.01133E-08  1.11994E-08  9.51714E-09  1.03853E-08  9.00272E-09
   1.04067E-08  8.57102E-09  9.55869E-09  7.87380E-09  9.56373E-09  8.14597E-09  8.75759E-09  8.01783E-09  9.39299E-09  8.07658E-09
   8.86205E-09  7.87751E-09  8.23675E-09  7.51555E-09  8.90532E-09  8.48488E-09  1.03668E-08  1.01525E-08  1.25598E-08  1.32895E-08
   1.45627E-08  1.40768E-08  1.49392E-08  1.24619E-08  1.28707E-08  1.08450E-08  1.11147E-08  1.01560E-08  9.48671E-09  8.28490E-09
   8.65648E-09  8.09321E-09  9.38604E-09  8.75748E-09  1.13829E-08  1.20962E-08  1.59719E-08  1.67571E-08  1.76118E-08  1.60253E-08
   1.65146E-08  1.53143E-08  1.50435E-08  1.40409E-08  1.42051E-08  1.32915E-08  1.35947E-08  1.25138E-08  1.32277E-08  1.19574E-08
   1.19292E-08  1.08866E-08  1.12747E-08  9.60140E-09  1.00594E-08  9.40603E-09  9.69466E-09  8.89771E-09  9.51201E-09  9.00851E-09
   9.15440E-09  8.64228E-09  9.39006E-09  8.37819E-09  8.33403E-09  7.94232E-09  8.10394E-09  6.64726E-09  7.29221E-09  6.80470E-09
   8.02519E-09  7.24609E-09  8.13264E-09  7.81638E-09  8.67071E-09  7.76207E-09  8.31840E-09  7.61671E-09  8.16200E-09  7.71232E-09
   7.29009E-09  6.82685E-09  6.95055E-09  6.53933E-09  6.50772E-09  6.47319E-09  6.46414E-09  7.04515E-09  7.78121E-09  6.83451E-09
   7.85966E-09  7.63079E-09  8.16343E-09  7.38509E-09  7.71426E-09  8.25821E-09  8.14046E-09  9.46316E-09  9.97079E-09  1.01745E-08
   1.01942E-08  1.04611E-08  1.10303E-08  1.08011E-08  1.07799E-08  1.10116E-08  1.15605E-08  1.12053E-08  1.09376E-08  1.10245E-08
   1.07469E-08  1.03798E-08  1.04693E-08  1.02426E-08  1.05779E-08  9.68778E-09  1.01645E-08  9.52083E-09  1.03758E-08  9.81108E-09
   9.75268E-09  9.14788E-09  8.90687E-09  8.97710E-09  8.56462E-09  8.31608E-09  8.48845E-09  1.11661E-08  1.51025E-08  1.82535E-08
   1.93226E-08  1.97979E-08  1.99175E-08  2.04333E-08  1.95392E-08  1.85269E-08  1.77357E-08  1.70380E-08  1.58254E-08  1.41955E-08
   1.26393E-08  1.13917E-08  8.86809E-09  6.70977E-09  4.36757E-09  2.31095E-09 -1.32945E-09 -3.09018E-09 -4.99475E-09 -7.03647E-09
  -8.63785E-09 -1.00804E-08 -1.13184E-08 -1.22428E-08 -1.27755E-08 -1.22989E-08 -1.19940E-08 -1.10772E-08 -1.00367E-08 -9.33227E-09
  -8.39504E-09 -7.09240E-09 -6.72805E-09 -5.43983E-09 -4.73296E-09 -4.15588E-09 -4.00629E-09 -2.59459E-09 -3.28374E-09 -3.25221E-09
  -3.01559E-09 -2.92711E-09 -3.03312E-09 -2.55532E-09 -2.66051E-09 -2.65875E-09 -2.75077E-09 -2.49318E-09 -3.13478E-09 -1.90937E-09
  -2.26479E-09 -1.66366E-09 -1.99769E-09 -1.90070E-09 -2.50009E-09 -2.05701E-09 -2.19017E-09 -1.81302E-09 -2.75772E-09 -1.09933E-09
  -1.83992E-09 -1.84487E-09 -2.23107E-09 -1.67491E-09 -1.75617E-09 -1.42304E-09 -1.96346E-09 -1.47042E-09 -2.10122E-09 -1.95240E-09
  -1.72621E-09 -1.96013E-09 -2.71565E-09 -2.30558E-09 -2.03141E-09 -2.10198E-09 -2.52423E-09 -1.44266E-09 -1.54226E-09 -1.13578E-09
  -1.69954E-09 -7.41602E-10 -1.05135E-09 -6.71917E-10 -1.14082E-09 -7.90633E-10 -7.86358E-10 -1.29112E-09 -1.44804E-09 -1.31921E-09
  -2.18117E-09 -2.13417E-09 -2.64000E-09 -2.37448E-09 -3.36171E-09 -2.18267E-09 -3.51798E-09 -2.28784E-09 -2.63148E-09 -3.00201E-09
  -2.63939E-09 -1.85839E-09 -2.47231E-09 -1.84156E-09 -1.56694E-09 -1.14126E-09 -1.08892E-09 -8.52017E-10 -1.30920E-09 -7.25376E-10
  -5.35459E-10 -2.28794E-10 -1.22726E-09 -3.82036E-10 -4.30815E-10  6.10525E-10 -2.35341E-11 -3.64891E-10 -5.87401E-10 -3.47078E-10
  -1.92470E-10 -1.03631E-10 -5.87340E-10 -1.88869E-10 -5.97652E-10 -1.22580E-10 -4.08468E-10 -2.53668E-11 -3.79411E-10 -3.33360E-11
  -1.02142E-09  1.38381E-10 -2.42144E-10 -4.01555E-10 -2.62833E-10 -3.14897E-10 -8.74005E-10 -5.47868E-10 -5.41358E-10 -5.57443E-10
  -8.91548E-10 -7.51367E-10 -1.25660E-09 -3.25753E-10 -1.16576E-09 -6.02016E-10 -1.30345E-09 -6.60283E-10 -1.10666E-09 -1.65669E-10
  -1.22706E-09 -7.06134E-10 -1.59472E-09 -4.58210E-10 -9.73186E-10 -1.43231E-09 -1.29105E-09 -6.84253E-10 -1.25219E-09 -8.33678E-10
  -1.45498E-09 -7.25703E-10 -1.55140E-09 -1.40043E-09 -1.19722E-09 -7.52504E-10 -1.22091E-09 -5.74546E-10 -1.23629E-09 -1.20984E-09
  -1.29544E-09 -9.18998E-10 -1.49390E-09 -4.63274E-10 -1.50528E-09 -1.35415E-09 -1.67753E-09 -1.09257E-09 -1.28131E-09 -1.12241E-09
  -1.47817E-09 -1.05832E-09 -1.62898E-09 -9.86069E-10 -1.63958E-09 -1.33899E-09 -1.92524E-09 -1.45194E-09 -1.86933E-09 -1.56955E-09
  -1.78653E-09 -1.49333E-09 -2.51974E-09
 NY points of the fit to the data follow
   1.16319E-08  1.16210E-08  1.11102E-08  1.08908E-08  1.09628E-08  1.14048E-08  1.17601E-08  1.19362E-08  1.23364E-08  1.26875E-08
   1.26274E-08  1.21377E-08  1.20437E-08  1.20488E-08  1.23916E-08  1.21269E-08  1.16067E-08  1.21945E-08  1.24839E-08  1.11909E-08
   1.03500E-08  1.06507E-08  1.13311E-08  1.20022E-08  1.24727E-08  1.28480E-08  1.35118E-08  1.37021E-08  1.34389E-08  1.28882E-08
   1.28837E-08  1.27471E-08  1.22139E-08  1.15911E-08  1.12806E-08  1.06993E-08  1.00408E-08  9.64306E-09  9.60115E-09  9.58195E-09
   9.64101E-09  9.61093E-09  8.90547E-09  8.06935E-09  7.88870E-09  7.71969E-09  7.83356E-09  7.59707E-09  7.57375E-09  7.71133E-09
   8.03356E-09  8.39878E-09  8.75083E-09  9.05706E-09  9.53506E-09  1.01674E-08  1.06470E-08  1.14228E-08  1.24073E-08  1.29976E-08
   1.33869E-08  1.35396E-08  1.35747E-08  1.37510E-08  1.35520E-08  1.27246E-08  1.17419E-08  1.16210E-08  1.10304E-08  9.84234E-09
   9.68297E-09  1.01206E-08  1.03224E-08  1.08047E-08  1.15178E-08  1.25789E-08  1.37655E-08  1.49230E-08  1.58142E-08  1.62524E-08
   1.63804E-08  1.64962E-08  1.58710E-08  1.49876E-08  1.48832E-08  1.42806E-08  1.25645E-08  1.12907E-08  1.03987E-08  9.73663E-09
   9.35790E-09  9.13274E-09  8.99396E-09  8.89316E-09  8.78617E-09  8.72958E-09  8.68428E-09  8.63757E-09  8.62026E-09  8.58558E-09
   8.56756E-09  8.57428E-09  8.57943E-09  8.58155E-09  8.58974E-09  8.60294E-09  8.61878E-09  8.63675E-09  8.65551E-09  8.67499E-09
   8.69490E-09  8.71498E-09  8.73501E-09  8.75480E-09  8.77420E-09  8.79308E-09  8.81133E-09  8.82884E-09  8.84551E-09  8.86126E-09
   8.87602E-09  8.88974E-09  8.90228E-09  8.91345E-09  8.92302E-09  8.93080E-09  8.93658E-09  8.94015E-09  8.94132E-09  8.93990E-09
   8.93569E-09  8.92850E-09  8.91814E-09  8.90443E-09  8.88718E-09  8.86620E-09  8.84134E-09  8.81240E-09  8.77919E-09  8.74158E-09
   8.69938E-09  8.65243E-09  8.60058E-09  8.54366E-09  8.48153E-09  8.41407E-09  8.34114E-09  8.26263E-09  8.17846E-09  8.08854E-09
   7.99281E-09  7.89128E-09  7.78401E-09  7.67107E-09  7.55269E-09  7.42919E-09  7.30112E-09  7.16926E-09  7.03489E-09  6.89999E-09
   6.76782E-09  6.64373E-09  6.53769E-09  6.46959E-09  6.48392E-09  6.70557E-09  7.65248E-09  1.12612E-08  1.54108E-08  1.84725E-08
   1.98733E-08  2.03050E-08  2.03413E-08  2.02344E-08  1.95587E-08  1.92004E-08  1.94446E-08  1.73063E-08  8.58322E-09  4.34143E-09
   2.97570E-09  2.24695E-09  1.73601E-09  1.32353E-09  9.64116E-10  6.37199E-10  3.32332E-10  4.38166E-11 -2.31618E-10 -4.95848E-10
  -7.49974E-10 -9.94594E-10 -1.22996E-09 -1.45618E-09 -1.67312E-09 -1.88058E-09 -2.07836E-09 -2.26606E-09 -2.44336E-09 -2.60989E-09
  -2.76519E-09 -2.90886E-09 -3.04052E-09 -3.16041E-09 -3.26888E-09 -3.36633E-09 -3.45311E-09 -3.52961E-09 -3.59618E-09 -3.65318E-09
  -3.70096E-09 -3.73988E-09 -3.77030E-09 -3.79256E-09 -3.80700E-09 -3.81399E-09 -3.81386E-09 -3.80695E-09 -3.79363E-09 -3.77422E-09
  -3.74907E-09 -3.71854E-09 -3.68295E-09 -3.64266E-09 -3.59798E-09 -3.54931E-09 -3.49692E-09 -3.44122E-09 -3.38250E-09 -3.32112E-09
  -3.25742E-09 -3.19175E-09 -3.12445E-09 -3.05583E-09 -2.98627E-09 -2.91607E-09 -2.84561E-09 -2.77519E-09 -2.70518E-09 -2.63592E-09
  -2.56773E-09 -2.50095E-09 -2.43592E-09 -2.37274E-09 -2.31137E-09 -2.25179E-09 -2.19395E-09 -2.13782E-09 -2.08337E-09 -2.03056E-09
  -1.97936E-09 -1.92974E-09 -1.88164E-09 -1.83506E-09 -1.78994E-09 -1.74628E-09 -1.70399E-09 -1.66308E-09 -1.62350E-09 -1.58520E-09
  -1.54819E-09 -1.51239E-09 -1.47778E-09 -1.44434E-09 -1.41202E-09 -1.38078E-09 -1.35059E-09 -1.32143E-09 -1.29325E-09 -1.26602E-09
  -1.23971E-09 -1.21426E-09 -1.18967E-09 -1.16589E-09 -1.14289E-09 -1.12061E-09 -1.09905E-09 -1.07815E-09 -1.05789E-09 -1.03822E-09
  -1.01914E-09 -1.00057E-09 -9.82509E-10 -9.64927E-10 -9.47841E-10 -9.31262E-10 -9.15203E-10 -8.99678E-10 -8.84697E-10 -8.70276E-10
  -8.56425E-10 -8.43156E-10 -8.30485E-10 -8.18420E-10 -8.06981E-10 -7.96173E-10 -7.86017E-10 -7.76514E-10 -7.67685E-10 -7.59537E-10
  -7.52092E-10 -7.45354E-10 -7.39336E-10 -7.34055E-10 -7.29525E-10 -7.25749E-10 -7.22751E-10 -7.20533E-10 -7.19118E-10 -7.18513E-10
  -7.18733E-10 -7.19781E-10 -7.21685E-10 -7.24451E-10 -7.28079E-10 -7.32611E-10 -7.38032E-10 -7.44360E-10 -7.51622E-10 -7.59819E-10
  -7.68963E-10 -7.79062E-10 -7.90146E-10 -8.02200E-10 -8.15199E-10 -8.29113E-10 -8.43907E-10 -8.59552E-10 -8.76014E-10 -8.93263E-10
  -9.11268E-10 -9.29993E-10 -9.49411E-10 -9.69484E-10 -9.90187E-10 -1.01149E-09 -1.03335E-09 -1.05574E-09 -1.07863E-09 -1.10199E-09
  -1.12578E-09 -1.14998E-09 -1.17456E-09 -1.19947E-09 -1.22469E-09 -1.25019E-09 -1.27593E-09 -1.30188E-09 -1.32802E-09 -1.35431E-09
  -1.38071E-09 -1.40720E-09 -1.43374E-09 -1.46031E-09 -1.48686E-09 -1.51337E-09 -1.53981E-09 -1.56614E-09 -1.59234E-09 -1.61836E-09
  -1.64419E-09 -1.66978E-09 -1.69511E-09
 NY background values follow
     3.506E-10    4.223E-10    4.939E-10    5.653E-10    6.366E-10    7.077E-10    7.787E-10    8.496E-10    9.204E-10    9.911E-10
     1.062E-09    1.132E-09    1.203E-09    1.273E-09    1.344E-09    1.414E-09    1.484E-09    1.555E-09    1.625E-09    1.695E-09
     1.766E-09    1.836E-09    1.907E-09    1.977E-09    2.048E-09    2.118E-09    2.189E-09    2.260E-09    2.330E-09    2.401E-09
     2.473E-09    2.544E-09    2.615E-09    2.687E-09    2.758E-09    2.830E-09    2.902E-09    2.975E-09    3.047E-09    3.120E-09
     3.193E-09    3.266E-09    3.339E-09    3.413E-09    3.486E-09    3.560E-09    3.634E-09    3.708E-09    3.783E-09    3.857E-09
     3.931E-09    4.005E-09    4.080E-09    4.154E-09    4.228E-09    4.302E-09    4.376E-09    4.450E-09    4.524E-09    4.597E-09
     4.671E-09    4.744E-09    4.817E-09    4.889E-09    4.962E-09    5.034E-09    5.105E-09    5.177E-09    5.248E-09    5.318E-09
     5.389E-09    5.458E-09    5.527E-09    5.596E-09    5.664E-09    5.732E-09    5.799E-09    5.866E-09    5.932E-09    5.997E-09
     6.061E-09    6.125E-09    6.189E-09    6.251E-09    6.313E-09    6.374E-09    6.434E-09    6.494E-09    6.552E-09    6.610E-09
     6.667E-09    6.723E-09    6.778E-09    6.832E-09    6.885E-09    6.937E-09    6.989E-09    7.039E-09    7.088E-09    7.136E-09
     7.183E-09    7.229E-09    7.274E-09    7.317E-09    7.360E-09    7.401E-09    7.441E-09    7.480E-09    7.518E-09    7.554E-09
     7.589E-09    7.623E-09    7.655E-09    7.686E-09    7.716E-09    7.744E-09    7.771E-09    7.797E-09    7.821E-09    7.843E-09
     7.864E-09    7.884E-09    7.902E-09    7.918E-09    7.932E-09    7.944E-09    7.953E-09    7.961E-09    7.965E-09    7.967E-09
     7.965E-09    7.960E-09    7.952E-09    7.941E-09    7.925E-09    7.906E-09    7.882E-09    7.854E-09    7.822E-09    7.784E-09
     7.742E-09    7.695E-09    7.643E-09    7.585E-09    7.522E-09    7.452E-09    7.377E-09    7.296E-09    7.208E-09    7.114E-09
     7.013E-09    6.906E-09    6.791E-09    6.669E-09    6.539E-09    6.402E-09    6.257E-09    6.104E-09    5.943E-09    5.774E-09
     5.596E-09    5.409E-09    5.214E-09    5.010E-09    4.799E-09    4.580E-09    4.355E-09    4.123E-09    3.885E-09    3.643E-09
     3.395E-09    3.144E-09    2.888E-09    2.630E-09    2.369E-09    2.105E-09    1.840E-09    1.574E-09    1.308E-09    1.041E-09
     7.744E-10    5.090E-10    2.450E-10   -1.712E-11   -2.767E-10   -5.334E-10   -7.865E-10   -1.036E-09   -1.280E-09   -1.520E-09
    -1.754E-09   -1.982E-09   -2.204E-09   -2.418E-09   -2.625E-09   -2.823E-09   -3.014E-09   -3.195E-09   -3.366E-09   -3.527E-09
    -3.678E-09   -3.817E-09   -3.945E-09   -4.061E-09   -4.167E-09   -4.261E-09   -4.345E-09   -4.419E-09   -4.483E-09   -4.538E-09
    -4.584E-09   -4.621E-09   -4.650E-09   -4.670E-09   -4.683E-09   -4.689E-09   -4.687E-09   -4.679E-09   -4.664E-09   -4.644E-09
    -4.617E-09   -4.586E-09   -4.549E-09   -4.508E-09   -4.462E-09   -4.412E-09   -4.359E-09   -4.303E-09   -4.243E-09   -4.181E-09
    -4.116E-09   -4.050E-09   -3.982E-09   -3.913E-09   -3.842E-09   -3.771E-09   -3.700E-09   -3.629E-09   -3.559E-09   -3.489E-09
    -3.420E-09   -3.353E-09   -3.287E-09   -3.223E-09   -3.161E-09   -3.101E-09   -3.043E-09   -2.986E-09   -2.931E-09   -2.878E-09
    -2.826E-09   -2.776E-09   -2.728E-09   -2.680E-09   -2.635E-09   -2.591E-09   -2.548E-09   -2.507E-09   -2.467E-09   -2.428E-09
    -2.390E-09   -2.354E-09   -2.319E-09   -2.285E-09   -2.253E-09   -2.221E-09   -2.190E-09   -2.161E-09   -2.132E-09   -2.105E-09
    -2.078E-09   -2.052E-09   -2.027E-09   -2.003E-09   -1.980E-09   -1.957E-09   -1.935E-09   -1.914E-09   -1.893E-09   -1.873E-09
    -1.854E-09   -1.835E-09   -1.816E-09   -1.798E-09   -1.781E-09   -1.764E-09   -1.747E-09   -1.732E-09   -1.716E-09   -1.701E-09
    -1.687E-09   -1.674E-09   -1.661E-09   -1.648E-09   -1.636E-09   -1.625E-09   -1.615E-09   -1.605E-09   -1.596E-09   -1.587E-09
    -1.579E-09   -1.572E-09   -1.566E-09   -1.560E-09   -1.555E-09   -1.551E-09   -1.548E-09   -1.545E-09   -1.544E-09   -1.543E-09
    -1.542E-09   -1.543E-09   -1.545E-09   -1.547E-09   -1.550E-09   -1.555E-09   -1.560E-09   -1.566E-09   -1.572E-09   -1.580E-09
    -1.589E-09   -1.599E-09   -1.610E-09   -1.621E-09   -1.634E-09   -1.647E-09   -1.662E-09   -1.677E-09   -1.693E-09   -1.710E-09
    -1.728E-09   -1.746E-09   -1.765E-09   -1.785E-09   -1.805E-09   -1.826E-09   -1.848E-09   -1.870E-09   -1.892E-09   -1.915E-09
    -1.939E-09   -1.962E-09   -1.987E-09   -2.011E-09   -2.036E-09   -2.061E-09   -2.086E-09   -2.112E-09   -2.138E-09   -2.164E-09
    -2.190E-09   -2.216E-09   -2.242E-09   -2.268E-09   -2.294E-09   -2.320E-09   -2.346E-09   -2.372E-09   -2.398E-09   -2.424E-09
    -2.449E-09   -2.474E-09   -2.499E-09
 Asp      Conc. = 8.84E-10
   1.38524E-09  1.29130E-09  1.27544E-09  1.19267E-09  1.20911E-09  1.16622E-09  1.11863E-09  1.05909E-09  1.07354E-09  1.11414E-09
   1.16633E-09  1.22440E-09  1.28647E-09  1.35291E-09  1.42034E-09  1.48828E-09  1.55691E-09  1.62615E-09  1.69593E-09  1.76621E-09
   1.83694E-09  1.90813E-09  1.97978E-09  2.05192E-09  2.12459E-09  2.19786E-09  2.27182E-09  2.34659E-09  2.42235E-09  2.49933E-09
   2.57788E-09  2.65851E-09  2.74203E-09  2.82985E-09  2.92469E-09  3.03293E-09  3.17013E-09  3.30592E-09  3.45109E-09  3.56522E-09
   3.65624E-09  3.73916E-09  3.86029E-09  4.04483E-09  4.30358E-09  4.61822E-09  4.82744E-09  4.89718E-09  5.03440E-09  5.12644E-09
   5.30355E-09  5.47628E-09  5.59852E-09  5.61577E-09  5.51969E-09  5.31784E-09  5.06474E-09  5.18723E-09  5.30412E-09  5.15550E-09
   5.13721E-09  5.17561E-09  5.14696E-09  5.18103E-09  5.28788E-09  5.37366E-09  5.35904E-09  5.38203E-09  5.42276E-09  5.47226E-09
   5.52673E-09  5.58426E-09  5.64374E-09  5.70449E-09  5.76604E-09  5.82808E-09  5.89037E-09  5.95272E-09  6.01500E-09  6.07708E-09
   6.13887E-09  6.20030E-09  6.26129E-09  6.32179E-09  6.38174E-09  6.44109E-09  6.49981E-09  6.55786E-09  6.61519E-09  6.67178E-09
   6.72759E-09  6.78259E-09  6.83676E-09  6.89006E-09  6.94246E-09  6.99394E-09  7.04448E-09  7.09405E-09  7.14262E-09  7.19016E-09
   7.23666E-09  7.28210E-09  7.32644E-09  7.36966E-09  7.41174E-09  7.45267E-09  7.49240E-09  7.53093E-09  7.56823E-09  7.60429E-09
   7.63906E-09  7.67254E-09  7.70470E-09  7.73552E-09  7.76498E-09  7.79306E-09  7.81973E-09  7.84498E-09  7.86877E-09  7.89111E-09
   7.91194E-09  7.93126E-09  7.94899E-09  7.96495E-09  7.97895E-09  7.99082E-09  8.00038E-09  8.00743E-09  8.01180E-09  8.01331E-09
   8.01177E-09  8.00701E-09  7.99883E-09  7.98707E-09  7.97152E-09  7.95202E-09  7.92839E-09  7.90043E-09  7.86797E-09  7.83084E-09
   7.78885E-09  7.74181E-09  7.68956E-09  7.63190E-09  7.56866E-09  7.49966E-09  7.42473E-09  7.34368E-09  7.25636E-09  7.16257E-09
   7.06214E-09  6.95493E-09  6.84077E-09  6.71948E-09  6.59094E-09  6.45499E-09  6.31155E-09  6.16049E-09  6.00178E-09  5.83544E-09
   5.66166E-09  5.48074E-09  5.29373E-09  5.10306E-09  4.91407E-09  4.74176E-09  4.65292E-09  4.82981E-09  4.99080E-09  5.02530E-09
   4.89911E-09  4.69824E-09  4.46631E-09  4.21848E-09  3.91140E-09  3.65550E-09  3.43909E-09  2.91002E-09  1.76831E-09  1.27160E-09
   9.29667E-10  6.28887E-10  3.44906E-10  7.02020E-11 -1.98019E-10 -4.60848E-10 -7.18637E-10 -9.71368E-10 -1.21886E-09 -1.46077E-09
  -1.69674E-09 -1.92635E-09 -2.14914E-09 -2.36470E-09 -2.57250E-09 -2.77206E-09 -2.96294E-09 -3.14458E-09 -3.31651E-09 -3.47827E-09
  -3.62929E-09 -3.76910E-09 -3.89727E-09 -4.01398E-09 -4.11956E-09 -4.21434E-09 -4.29868E-09 -4.37291E-09 -4.43738E-09 -4.49243E-09
  -4.53839E-09 -4.57561E-09 -4.60443E-09 -4.62518E-09 -4.63821E-09 -4.64386E-09 -4.64246E-09 -4.63435E-09 -4.61988E-09 -4.59938E-09
  -4.57320E-09 -4.54167E-09 -4.50513E-09 -4.46392E-09 -4.41837E-09 -4.36885E-09 -4.31565E-09 -4.25916E-09 -4.19969E-09 -4.13757E-09
  -4.07317E-09 -4.00681E-09 -3.93884E-09 -3.86957E-09 -3.79938E-09 -3.72857E-09 -3.65751E-09 -3.58651E-09 -3.51593E-09 -3.44611E-09
  -3.37738E-09 -3.31007E-09 -3.24452E-09 -3.18082E-09 -3.11896E-09 -3.05888E-09 -3.00056E-09 -2.94396E-09 -2.88904E-09 -2.83577E-09
  -2.78412E-09 -2.73406E-09 -2.68552E-09 -2.63850E-09 -2.59296E-09 -2.54887E-09 -2.50617E-09 -2.46485E-09 -2.42486E-09 -2.38617E-09
  -2.34876E-09 -2.31257E-09 -2.27756E-09 -2.24374E-09 -2.21103E-09 -2.17942E-09 -2.14885E-09 -2.11932E-09 -2.09078E-09 -2.06318E-09
  -2.03650E-09 -2.01069E-09 -1.98574E-09 -1.96161E-09 -1.93825E-09 -1.91562E-09 -1.89371E-09 -1.87246E-09 -1.85185E-09 -1.83184E-09
  -1.81242E-09 -1.79350E-09 -1.77510E-09 -1.75718E-09 -1.73976E-09 -1.72284E-09 -1.70645E-09 -1.69058E-09 -1.67527E-09 -1.66051E-09
  -1.64633E-09 -1.63273E-09 -1.61973E-09 -1.60733E-09 -1.59556E-09 -1.58442E-09 -1.57394E-09 -1.56410E-09 -1.55495E-09 -1.54647E-09
  -1.53869E-09 -1.53163E-09 -1.52528E-09 -1.51967E-09 -1.51481E-09 -1.51071E-09 -1.50738E-09 -1.50483E-09 -1.50309E-09 -1.50215E-09
  -1.50204E-09 -1.50276E-09 -1.50434E-09 -1.50677E-09 -1.51007E-09 -1.51427E-09 -1.51935E-09 -1.52535E-09 -1.53228E-09 -1.54014E-09
  -1.54895E-09 -1.55871E-09 -1.56946E-09 -1.58117E-09 -1.59384E-09 -1.60741E-09 -1.62186E-09 -1.63717E-09 -1.65329E-09 -1.67020E-09
  -1.68786E-09 -1.70623E-09 -1.72531E-09 -1.74503E-09 -1.76539E-09 -1.78634E-09 -1.80785E-09 -1.82989E-09 -1.85242E-09 -1.87543E-09
  -1.89887E-09 -1.92271E-09 -1.94692E-09 -1.97147E-09 -1.99633E-09 -2.02146E-09 -2.04684E-09 -2.07243E-09 -2.09819E-09 -2.12411E-09
  -2.15014E-09 -2.17625E-09 -2.20242E-09 -2.22861E-09 -2.25478E-09 -2.28091E-09 -2.30697E-09 -2.33291E-09 -2.35873E-09 -2.38436E-09
  -2.40979E-09 -2.43499E-09 -2.45992E-09
 GABA     Conc. = 8.94E-11
   3.59889E-10  4.31745E-10  5.03443E-10  5.74994E-10  6.46413E-10  7.17708E-10  7.88892E-10  8.59979E-10  9.30978E-10  1.00190E-09
   1.07277E-09  1.14359E-09  1.21438E-09  1.28515E-09  1.35592E-09  1.42671E-09  1.49753E-09  1.56842E-09  1.63939E-09  1.71048E-09
   1.78173E-09  1.85320E-09  1.92494E-09  1.99707E-09  2.06974E-09  2.14317E-09  2.21783E-09  2.29465E-09  2.37595E-09  2.46780E-09
   2.55538E-09  2.63990E-09  2.73980E-09  2.83970E-09  2.92931E-09  3.01767E-09  3.10241E-09  3.18668E-09  3.26532E-09  3.32167E-09
   3.35927E-09  3.44189E-09  3.50555E-09  3.51206E-09  3.57094E-09  3.64786E-09  3.68986E-09  3.74740E-09  3.81385E-09  3.88389E-09
   3.95576E-09  4.02870E-09  4.10235E-09  4.17655E-09  4.25121E-09  4.32629E-09  4.40186E-09  4.47804E-09  4.55513E-09  4.63384E-09
   4.71560E-09  4.80473E-09  4.89998E-09  4.98852E-09  5.08086E-09  5.18005E-09  5.27099E-09  5.35315E-09  5.43044E-09  5.50458E-09
   5.57787E-09  5.63966E-09  5.67794E-09  5.72145E-09  5.79419E-09  5.82454E-09  5.84804E-09  5.91693E-09  5.97699E-09  6.03013E-09
   6.09603E-09  6.16113E-09  6.22877E-09  6.30578E-09  6.37993E-09  6.45116E-09  6.52465E-09  6.59566E-09  6.66761E-09  6.73752E-09
   6.79005E-09  6.84146E-09  6.91286E-09  6.95705E-09  6.97935E-09  7.03743E-09  7.08341E-09  7.10615E-09  7.14730E-09  7.18985E-09
   7.22652E-09  7.26548E-09  7.30545E-09  7.34554E-09  7.38530E-09  7.42442E-09  7.46273E-09  7.50011E-09  7.53648E-09  7.57178E-09
   7.60595E-09  7.63891E-09  7.67063E-09  7.70107E-09  7.73020E-09  7.75800E-09  7.78445E-09  7.80950E-09  7.83312E-09  7.85530E-09
   7.87600E-09  7.89520E-09  7.91283E-09  7.92869E-09  7.94261E-09  7.95440E-09  7.96388E-09  7.97086E-09  7.97517E-09  7.97661E-09
   7.97501E-09  7.97017E-09  7.96193E-09  7.95010E-09  7.93448E-09  7.91490E-09  7.89119E-09  7.86314E-09  7.83058E-09  7.79334E-09
   7.75121E-09  7.70404E-09  7.65164E-09  7.59380E-09  7.53037E-09  7.46115E-09  7.38596E-09  7.30462E-09  7.21696E-09  7.12279E-09
   7.02190E-09  6.91416E-09  6.79937E-09  6.67733E-09  6.54788E-09  6.41084E-09  6.26605E-09  6.11330E-09  5.95244E-09  5.78329E-09
   5.60577E-09  5.41967E-09  5.22512E-09  5.02273E-09  4.81352E-09  4.59952E-09  4.38830E-09  4.19811E-09  4.00072E-09  3.78570E-09
   3.55029E-09  3.30372E-09  3.05077E-09  2.79328E-09  2.52754E-09  2.26522E-09  2.00496E-09  1.71090E-09  1.35616E-09  1.06701E-09
   7.93160E-10  5.24176E-10  2.58139E-10 -5.22241E-12 -2.65716E-10 -5.22992E-10 -7.76628E-10 -1.02616E-09 -1.27111E-09 -1.51098E-09
  -1.74527E-09 -1.97348E-09 -2.19509E-09 -2.40964E-09 -2.61658E-09 -2.81538E-09 -3.00560E-09 -3.18666E-09 -3.35808E-09 -3.51938E-09
  -3.66998E-09 -3.80942E-09 -3.93725E-09 -4.05366E-09 -4.15895E-09 -4.25348E-09 -4.33758E-09 -4.41160E-09 -4.47587E-09 -4.53073E-09
  -4.57651E-09 -4.61357E-09 -4.64224E-09 -4.66285E-09 -4.67574E-09 -4.68126E-09 -4.67974E-09 -4.67152E-09 -4.65695E-09 -4.63635E-09
  -4.61007E-09 -4.57845E-09 -4.54182E-09 -4.50053E-09 -4.45491E-09 -4.40531E-09 -4.35204E-09 -4.29548E-09 -4.23595E-09 -4.17376E-09
  -4.10930E-09 -4.04288E-09 -3.97485E-09 -3.90553E-09 -3.83528E-09 -3.76442E-09 -3.69332E-09 -3.62226E-09 -3.55164E-09 -3.48178E-09
