 LCModel (Version 6.3-1R) Copyright: S.W. Provencher.          Ref.: Magn. Reson. Med. 30:672-679 (1993).                
 onepulse 19x8_ftSpec_smooth_lcm
 26 lines in following concentration table = NCONC+1
    Conc.  %SD   /Cr    Metabolite                                         
    0.000 999%   0.000 Ala                                                 
 4.46E-10 131%   0.000 Asp                                                 
    0.000 999%   0.000 Cr                                                  
 4.57E-10 111%   0.000 GABA                                                
    0.000 999%   0.000 Glc                                                 
 2.11E-09  27%   0.000 Gln                                                 
    0.000 999%   0.000 Glu                                                 
    0.000 999%   0.000 Glyc                                                
    0.000 999%   0.000 GPC                                                 
 1.64E-09  28%   0.000 GSH                                                 
 2.36E-09  17%   0.000 Ins                                                 
    0.000 999%   0.000 Lac                                                 
 4.63E-10  65%   0.000 NAAG                                                
 5.40E-11 796%   0.000 NAA                                                 
    0.000 999%   0.000 PCh                                                 
    0.000 999%   0.000 PCr                                                 
 2.64E-09  28%   0.000 PE                                                  
 3.09E-10  79%   0.000 Scyllo                                              
    0.000 999%   0.000 Ser                                                 
 3.64E-10 242%   0.000 Tau                                                 
    0.000 999%   0.000 GPC+PCh                                             
 5.17E-10  52%   0.000 NAA+NAAG                                            
 2.36E-09  17%   0.000 Ins+Glyc                                            
    0.000 999%   0.000 Cr+PCr                                              
 2.11E-09  27%   0.000 Glu+Gln                                             
   6 lines in following misc. output table
  FWHM = 0.123 ppm    S/N =   4                                            
  Data shift = 0.425 ppm                                                   
  Ph:  -5 deg     -46.8 deg/ppm                                            
  alphaB,S = 4.3E-01,   1.5E+01                                            
   10 spline knots.   Ns = 5(1)                                            
  (12) 6 infls.   (11) 5 extrs.                                            
  363 points on ppm-axis = NY
      4.250000     4.238821     4.227641     4.216462     4.205282     4.194103     4.182923     4.171744     4.160564     4.149385
      4.138206     4.127026     4.115847     4.104667     4.093488     4.082308     4.071129     4.059949     4.048770     4.037591
      4.026411     4.015232     4.004052     3.992873     3.981693     3.970514     3.959334     3.948155     3.936975     3.925796
      3.914617     3.903437     3.892258     3.881078     3.869899     3.858719     3.847540     3.836360     3.825181     3.814002
      3.802822     3.791643     3.780463     3.769284     3.758104     3.746925     3.735745     3.724566     3.713387     3.702207
      3.691028     3.679848     3.668669     3.657489     3.646310     3.635130     3.623951     3.612772     3.601592     3.590413
      3.579233     3.568054     3.556874     3.545695     3.534515     3.523336     3.512156     3.500977     3.489798     3.478618
      3.467439     3.456259     3.445080     3.433900     3.422721     3.411541     3.400362     3.389183     3.378003     3.366824
      3.355644     3.344465     3.333285     3.322106     3.310926     3.299747     3.288568     3.277388     3.266209     3.255029
      3.243850     3.232670     3.221491     3.210311     3.199132     3.187953     3.176773     3.165594     3.154414     3.143235
      3.132055     3.120876     3.109696     3.098517     3.087337     3.076158     3.064979     3.053799     3.042620     3.031440
      3.020261     3.009081     2.997902     2.986722     2.975543     2.964364     2.953184     2.942005     2.930825     2.919646
      2.908466     2.897287     2.886107     2.874928     2.863749     2.852569     2.841390     2.830210     2.819031     2.807851
      2.796672     2.785492     2.774313     2.763134     2.751954     2.740775     2.729595     2.718416     2.707236     2.696057
      2.684877     2.673698     2.662519     2.651339     2.640160     2.628980     2.617801     2.606621     2.595442     2.584262
      2.573083     2.561903     2.550724     2.539545     2.528365     2.517186     2.506006     2.494827     2.483647     2.472468
      2.461288     2.450109     2.438930     2.427750     2.416571     2.405391     2.394212     2.383032     2.371853     2.360673
      2.349494     2.338315     2.327135     2.315956     2.304776     2.293597     2.282417     2.271238     2.260058     2.248879
      2.237700     2.226520     2.215341     2.204161     2.192982     2.181802     2.170623     2.159443     2.148264     2.137084
      2.125905     2.114726     2.103546     2.092367     2.081187     2.070008     2.058828     2.047649     2.036469     2.025290
      2.014111     2.002931     1.991752     1.980572     1.969393     1.958213     1.947034     1.935854     1.924675     1.913496
      1.902316     1.891137     1.879957     1.868778     1.857598     1.846419     1.835239     1.824060     1.812881     1.801701
      1.790522     1.779342     1.768163     1.756983     1.745804     1.734624     1.723445     1.712265     1.701086     1.689907
      1.678727     1.667548     1.656368     1.645189     1.634009     1.622830     1.611650     1.600471     1.589292     1.578112
      1.566933     1.555753     1.544574     1.533394     1.522215     1.511035     1.499856     1.488677     1.477497     1.466318
      1.455138     1.443959     1.432779     1.421600     1.410420     1.399241     1.388062     1.376882     1.365703     1.354523
      1.343344     1.332164     1.320985     1.309805     1.298626     1.287446     1.276267     1.265088     1.253908     1.242729
      1.231549     1.220370     1.209190     1.198011     1.186831     1.175652     1.164473     1.153293     1.142114     1.130934
      1.119755     1.108575     1.097396     1.086216     1.075037     1.063858     1.052678     1.041499     1.030319     1.019140
      1.007960     0.996781     0.985601     0.974422     0.963243     0.952063     0.940884     0.929704     0.918525     0.907345
      0.896166     0.884986     0.873807     0.862628     0.851448     0.840269     0.829089     0.817910     0.806730     0.795551
      0.784371     0.773192     0.762012     0.750833     0.739654     0.728474     0.717295     0.706115     0.694936     0.683756
      0.672577     0.661397     0.650218     0.639039     0.627859     0.616680     0.605500     0.594321     0.583141     0.571962
      0.560782     0.549603     0.538424     0.527244     0.516065     0.504885     0.493706     0.482526     0.471347     0.460167
      0.448988     0.437809     0.426629     0.415450     0.404270     0.393091     0.381911     0.370732     0.359552     0.348373
      0.337193     0.326014     0.314835     0.303655     0.292476     0.281296     0.270117     0.258937     0.247758     0.236578
      0.225399     0.214220     0.203040
 NY phased data points follow
   1.20135E-08  1.35303E-08  1.25677E-08  1.41498E-08  1.28927E-08  1.50077E-08  1.35948E-08  1.51396E-08  1.44415E-08  1.56120E-08
   1.34337E-08  1.42526E-08  1.30938E-08  1.43107E-08  1.27042E-08  1.41275E-08  1.29742E-08  1.35370E-08  1.28438E-08  1.41050E-08
   1.30180E-08  1.39680E-08  1.27223E-08  1.39779E-08  1.45490E-08  1.53854E-08  1.56881E-08  1.56603E-08  1.45768E-08  1.46882E-08
   1.28592E-08  1.24157E-08  1.20335E-08  1.27361E-08  1.15316E-08  1.18764E-08  1.08794E-08  1.15557E-08  1.02328E-08  1.07485E-08
   9.51496E-09  1.02995E-08  9.59487E-09  9.32480E-09  9.09904E-09  9.91185E-09  9.06553E-09  9.15676E-09  8.85941E-09  8.28535E-09
   7.82595E-09  8.58698E-09  8.62057E-09  9.71118E-09  1.00501E-08  1.18460E-08  1.34267E-08  1.46767E-08  1.49081E-08  1.57129E-08
   1.39308E-08  1.35831E-08  1.23227E-08  1.14330E-08  1.13571E-08  1.01845E-08  9.14169E-09  8.61154E-09  8.39010E-09  8.99115E-09
   8.35815E-09  1.01793E-08  1.11595E-08  1.46981E-08  1.69228E-08  1.76603E-08  1.70271E-08  1.70289E-08  1.64472E-08  1.59772E-08
   1.54366E-08  1.51217E-08  1.47455E-08  1.46197E-08  1.39555E-08  1.41376E-08  1.36249E-08  1.31237E-08  1.26514E-08  1.22619E-08
   1.12545E-08  1.09619E-08  1.11460E-08  1.06988E-08  1.02001E-08  1.02658E-08  1.03770E-08  1.00868E-08  9.82915E-09  1.01130E-08
   9.51361E-09  8.80523E-09  9.07078E-09  8.82894E-09  7.70332E-09  7.28415E-09  7.41037E-09  8.02826E-09  8.01733E-09  7.91552E-09
   8.41359E-09  8.71889E-09  8.49538E-09  8.29297E-09  8.36357E-09  8.40228E-09  8.54700E-09  7.50284E-09  7.49672E-09  6.93045E-09
   6.96609E-09  6.20810E-09  6.92061E-09  6.16919E-09  6.71799E-09  7.24636E-09  6.75163E-09  7.10209E-09  7.08554E-09  7.21478E-09
   6.98885E-09  6.72779E-09  7.59803E-09  6.88407E-09  8.47855E-09  8.85143E-09  9.71769E-09  9.28786E-09  9.72528E-09  9.92112E-09
   1.03160E-08  9.76903E-09  1.06469E-08  1.07138E-08  1.07260E-08  1.02083E-08  1.06603E-08  1.00297E-08  9.86734E-09  9.88122E-09
   9.95398E-09  9.81140E-09  8.98885E-09  9.32306E-09  8.93433E-09  9.10337E-09  9.31746E-09  8.87186E-09  8.53576E-09  7.76172E-09
   7.66968E-09  7.36611E-09  7.08465E-09  6.45281E-09  8.80089E-09  1.26570E-08  1.66148E-08  1.83349E-08  1.96733E-08  1.98672E-08
   2.12092E-08  2.06754E-08  2.03984E-08  1.96668E-08  1.97572E-08  1.91731E-08  1.85121E-08  1.73168E-08  1.68605E-08  1.51930E-08
   1.37771E-08  1.19961E-08  1.06311E-08  7.34609E-09  5.65690E-09  3.83428E-09  1.86938E-09 -2.36523E-10 -2.11139E-09 -3.83552E-09
  -5.39219E-09 -7.10995E-09 -7.54974E-09 -8.25226E-09 -8.43209E-09 -8.09781E-09 -8.13535E-09 -7.86404E-09 -6.80163E-09 -6.59420E-09
  -5.67612E-09 -4.97043E-09 -4.21659E-09 -3.94153E-09 -2.32770E-09 -2.55999E-09 -2.49948E-09 -2.08520E-09 -1.91029E-09 -2.31965E-09
  -1.74609E-09 -2.06170E-09 -1.74366E-09 -2.17725E-09 -1.81007E-09 -2.42005E-09 -1.17840E-09 -1.62342E-09 -1.10832E-09 -9.73721E-10
  -1.19115E-09 -1.66028E-09 -1.44093E-09 -1.41130E-09 -1.14958E-09 -2.15870E-09 -6.32833E-10 -9.72381E-10 -1.40152E-09 -1.41492E-09
  -1.15050E-09 -1.12191E-09 -7.47203E-10 -1.11173E-09 -8.16608E-10 -1.26052E-09 -1.45245E-09 -8.54660E-10 -1.37195E-09 -2.06441E-09
  -2.02067E-09 -1.52432E-09 -1.80411E-09 -1.89589E-09 -1.15375E-09 -1.02318E-09 -6.82905E-10 -1.33718E-09 -5.48133E-10 -5.34992E-10
  -3.30226E-10 -3.34834E-10 -2.08723E-10  2.25812E-10 -4.48008E-10 -7.77615E-10 -6.15456E-10 -1.42362E-09 -1.46569E-09 -1.78083E-09
  -1.65098E-09 -2.80275E-09 -1.69370E-09 -2.79365E-09 -2.23311E-09 -2.47125E-09 -2.59688E-09 -2.50651E-09 -1.58201E-09 -2.15843E-09
  -1.73214E-09 -1.26187E-09 -9.00427E-10 -7.40731E-10 -6.09385E-10 -6.25775E-10 -4.97525E-10 -3.32866E-10  2.02430E-10 -8.35988E-10
  -1.88414E-10 -1.01866E-10  7.56440E-10  3.79571E-10  1.43967E-11 -1.03551E-10 -1.33616E-10  9.52350E-11  2.37263E-10 -1.07331E-10
   1.64784E-10 -1.82261E-11  1.51990E-13  2.75439E-10  8.28888E-11  1.13788E-10  2.42232E-10 -3.94800E-10  2.82120E-10  3.18414E-10
  -1.22474E-10  1.43798E-10 -4.90494E-11 -2.14476E-10 -2.63287E-10 -6.06566E-11 -1.09391E-10 -4.69083E-10 -3.63372E-10 -9.82145E-10
   1.43897E-10 -6.55225E-10 -4.52646E-10 -7.59911E-10 -5.05112E-10 -8.35338E-10 -2.34304E-11 -7.31293E-10 -5.94719E-10 -1.00024E-09
  -3.98187E-10 -5.57284E-10 -1.23003E-09 -1.00597E-09 -3.98385E-10 -1.06122E-09 -6.76172E-10 -9.82529E-10 -5.12663E-10 -1.18372E-09
  -1.19071E-09 -7.27345E-10 -6.61681E-10 -9.02825E-10 -3.52337E-10 -9.57928E-10 -1.15504E-09 -1.00761E-09 -7.26672E-10 -1.24183E-09
  -2.55355E-10 -1.08253E-09 -1.06392E-09 -1.61904E-09 -9.97193E-10 -1.17096E-09 -7.70406E-10 -1.25857E-09 -9.09539E-10 -1.34044E-09
  -9.50231E-10 -1.35289E-09 -1.25246E-09 -1.48727E-09 -1.38916E-09 -1.51154E-09 -1.41747E-09 -1.61823E-09 -1.27903E-09 -2.14619E-09
  -1.46197E-09 -1.72873E-09 -1.68911E-09
 NY points of the fit to the data follow
   1.32332E-08  1.32588E-08  1.35893E-08  1.29298E-08  1.27504E-08  1.38028E-08  1.43497E-08  1.43574E-08  1.57422E-08  1.53635E-08
   1.43210E-08  1.41533E-08  1.33816E-08  1.33397E-08  1.38440E-08  1.37483E-08  1.27754E-08  1.33889E-08  1.49140E-08  1.41718E-08
   1.23398E-08  1.22915E-08  1.33570E-08  1.41799E-08  1.42259E-08  1.50785E-08  1.58117E-08  1.58412E-08  1.50115E-08  1.39958E-08
   1.37729E-08  1.33945E-08  1.25021E-08  1.16695E-08  1.15072E-08  1.13489E-08  1.07708E-08  1.07322E-08  1.06102E-08  1.04483E-08
   1.02714E-08  1.03044E-08  1.04081E-08  1.02656E-08  9.86275E-09  9.07435E-09  8.95580E-09  8.13347E-09  7.83905E-09  7.99408E-09
   8.52287E-09  9.08207E-09  9.44381E-09  1.03807E-08  1.15529E-08  1.16689E-08  1.22106E-08  1.33288E-08  1.37111E-08  1.34743E-08
   1.36152E-08  1.33486E-08  1.31370E-08  1.30675E-08  1.21777E-08  1.13940E-08  1.16130E-08  1.10994E-08  1.02906E-08  1.05224E-08
   1.14193E-08  1.17413E-08  1.22928E-08  1.30622E-08  1.40260E-08  1.49990E-08  1.61346E-08  1.67766E-08  1.69473E-08  1.70589E-08
   1.67834E-08  1.59838E-08  1.54280E-08  1.49098E-08  1.42588E-08  1.36058E-08  1.26193E-08  1.10992E-08  1.03146E-08  9.97755E-09
   9.70480E-09  9.51965E-09  9.48355E-09  9.37593E-09  9.15750E-09  9.13381E-09  9.08377E-09  8.93577E-09  8.89055E-09  8.83513E-09
   8.77642E-09  8.75638E-09  8.74054E-09  8.72521E-09  8.71883E-09  8.71858E-09  8.72189E-09  8.72785E-09  8.73473E-09  8.74235E-09
   8.75028E-09  8.75798E-09  8.76520E-09  8.77163E-09  8.77707E-09  8.78138E-09  8.78437E-09  8.78585E-09  8.78566E-09  8.78370E-09
   8.77982E-09  8.77395E-09  8.76598E-09  8.75582E-09  8.74337E-09  8.72855E-09  8.71129E-09  8.69150E-09  8.66911E-09  8.64406E-09
   8.61627E-09  8.58570E-09  8.55228E-09  8.51593E-09  8.47664E-09  8.43432E-09  8.38895E-09  8.34047E-09  8.28885E-09  8.23405E-09
   8.17603E-09  8.11479E-09  8.05029E-09  7.98255E-09  7.91154E-09  7.83728E-09  7.75983E-09  7.67921E-09  7.59552E-09  7.50887E-09
   7.41940E-09  7.32734E-09  7.23299E-09  7.13673E-09  7.03915E-09  6.94099E-09  6.84346E-09  6.74829E-09  6.65823E-09  6.57729E-09
   6.51197E-09  6.47332E-09  6.48223E-09  6.58311E-09  6.88970E-09  7.79262E-09  1.13318E-08  1.80084E-08  2.09648E-08  2.12747E-08
   2.14271E-08  2.12858E-08  2.06597E-08  1.99711E-08  1.96930E-08  2.00398E-08  2.02392E-08  1.64759E-08  8.63808E-09  5.06402E-09
   3.91232E-09  3.32290E-09  2.92673E-09  2.61809E-09  2.35622E-09  2.12240E-09  1.90686E-09  1.70413E-09  1.51102E-09  1.32549E-09
   1.14626E-09  9.72534E-10  8.03749E-10  6.39645E-10  4.79958E-10  3.24626E-10  1.73608E-10  2.69531E-11 -1.15330E-10 -2.53110E-10
  -3.86296E-10 -5.14767E-10 -6.38378E-10 -7.56994E-10 -8.70450E-10 -9.78595E-10 -1.08122E-09 -1.17823E-09 -1.26946E-09 -1.35504E-09
  -1.43511E-09 -1.50981E-09 -1.57926E-09 -1.64360E-09 -1.70296E-09 -1.75749E-09 -1.80729E-09 -1.85249E-09 -1.89324E-09 -1.92966E-09
  -1.96186E-09 -1.98999E-09 -2.01417E-09 -2.03451E-09 -2.05115E-09 -2.06421E-09 -2.07381E-09 -2.08009E-09 -2.08318E-09 -2.08317E-09
  -2.08019E-09 -2.07440E-09 -2.06589E-09 -2.05480E-09 -2.04125E-09 -2.02537E-09 -2.00728E-09 -1.98708E-09 -1.96493E-09 -1.94094E-09
  -1.91522E-09 -1.88790E-09 -1.85911E-09 -1.82897E-09 -1.79760E-09 -1.76513E-09 -1.73168E-09 -1.69739E-09 -1.66234E-09 -1.62667E-09
  -1.59052E-09 -1.55402E-09 -1.51727E-09 -1.48038E-09 -1.44352E-09 -1.40676E-09 -1.37027E-09 -1.33413E-09 -1.29850E-09 -1.26350E-09
  -1.22916E-09 -1.19552E-09 -1.16257E-09 -1.13033E-09 -1.09878E-09 -1.06795E-09 -1.03782E-09 -1.00841E-09 -9.79722E-10 -9.51755E-10
  -9.24517E-10 -8.98005E-10 -8.72233E-10 -8.47193E-10 -8.22892E-10 -7.99343E-10 -7.76539E-10 -7.54489E-10 -7.33191E-10 -7.12662E-10
  -6.92887E-10 -6.73890E-10 -6.55652E-10 -6.38190E-10 -6.21516E-10 -6.05623E-10 -5.90509E-10 -5.76186E-10 -5.62663E-10 -5.49940E-10
  -5.38014E-10 -5.26889E-10 -5.16571E-10 -5.07077E-10 -4.98388E-10 -4.90529E-10 -4.83486E-10 -4.77270E-10 -4.71883E-10 -4.67337E-10
  -4.63634E-10 -4.60754E-10 -4.58736E-10 -4.57558E-10 -4.57232E-10 -4.57774E-10 -4.59173E-10 -4.61424E-10 -4.64561E-10 -4.68553E-10
  -4.73432E-10 -4.79198E-10 -4.85816E-10 -4.93279E-10 -5.01566E-10 -5.10659E-10 -5.20535E-10 -5.31174E-10 -5.42558E-10 -5.54663E-10
  -5.67475E-10 -5.80964E-10 -5.95117E-10 -6.09913E-10 -6.25331E-10 -6.41349E-10 -6.57947E-10 -6.75107E-10 -6.92806E-10 -7.11024E-10
  -7.29745E-10 -7.48943E-10 -7.68597E-10 -7.88696E-10 -8.09209E-10 -8.30119E-10 -8.51410E-10 -8.73057E-10 -8.95041E-10 -9.17340E-10
  -9.39938E-10 -9.62811E-10 -9.85940E-10 -1.00931E-09 -1.03288E-09 -1.05666E-09 -1.08061E-09 -1.10471E-09 -1.12895E-09 -1.15330E-09
  -1.17774E-09 -1.20226E-09 -1.22683E-09 -1.25143E-09 -1.27604E-09 -1.30064E-09 -1.32522E-09 -1.34975E-09 -1.37421E-09 -1.39858E-09
  -1.42284E-09 -1.44696E-09 -1.47094E-09
 NY background values follow
    -1.529E-09   -1.425E-09   -1.321E-09   -1.217E-09   -1.113E-09   -1.008E-09   -9.039E-10   -7.994E-10   -6.949E-10   -5.904E-10
    -4.859E-10   -3.815E-10   -2.770E-10   -1.726E-10   -6.829E-11    3.599E-11    1.402E-10    2.443E-10    3.483E-10    4.522E-10
     5.559E-10    6.595E-10    7.630E-10    8.663E-10    9.694E-10    1.072E-09    1.175E-09    1.278E-09    1.380E-09    1.482E-09
     1.584E-09    1.685E-09    1.786E-09    1.887E-09    1.988E-09    2.088E-09    2.188E-09    2.288E-09    2.387E-09    2.486E-09
     2.584E-09    2.683E-09    2.780E-09    2.878E-09    2.974E-09    3.071E-09    3.167E-09    3.262E-09    3.357E-09    3.452E-09
     3.546E-09    3.639E-09    3.732E-09    3.825E-09    3.917E-09    4.008E-09    4.098E-09    4.188E-09    4.278E-09    4.367E-09
     4.455E-09    4.542E-09    4.628E-09    4.714E-09    4.799E-09    4.883E-09    4.967E-09    5.049E-09    5.131E-09    5.212E-09
     5.291E-09    5.370E-09    5.448E-09    5.525E-09    5.601E-09    5.676E-09    5.750E-09    5.823E-09    5.895E-09    5.966E-09
     6.035E-09    6.104E-09    6.171E-09    6.237E-09    6.302E-09    6.366E-09    6.428E-09    6.489E-09    6.549E-09    6.608E-09
     6.665E-09    6.721E-09    6.775E-09    6.828E-09    6.880E-09    6.930E-09    6.979E-09    7.026E-09    7.072E-09    7.116E-09
     7.158E-09    7.199E-09    7.239E-09    7.277E-09    7.313E-09    7.348E-09    7.381E-09    7.412E-09    7.441E-09    7.468E-09
     7.493E-09    7.517E-09    7.538E-09    7.557E-09    7.574E-09    7.589E-09    7.602E-09    7.612E-09    7.619E-09    7.625E-09
     7.628E-09    7.628E-09    7.625E-09    7.620E-09    7.613E-09    7.602E-09    7.589E-09    7.572E-09    7.553E-09    7.531E-09
     7.506E-09    7.477E-09    7.446E-09    7.411E-09    7.373E-09    7.331E-09    7.286E-09    7.238E-09    7.186E-09    7.131E-09
     7.072E-09    7.009E-09    6.943E-09    6.873E-09    6.799E-09    6.721E-09    6.639E-09    6.554E-09    6.464E-09    6.370E-09
     6.272E-09    6.169E-09    6.063E-09    5.952E-09    5.836E-09    5.716E-09    5.592E-09    5.464E-09    5.331E-09    5.194E-09
     5.054E-09    4.910E-09    4.762E-09    4.612E-09    4.458E-09    4.302E-09    4.143E-09    3.982E-09    3.819E-09    3.653E-09
     3.486E-09    3.318E-09    3.148E-09    2.976E-09    2.804E-09    2.631E-09    2.457E-09    2.283E-09    2.109E-09    1.934E-09
     1.760E-09    1.586E-09    1.413E-09    1.241E-09    1.069E-09    8.991E-10    7.301E-10    5.627E-10    3.971E-10    2.334E-10
     7.186E-11   -8.732E-11   -2.440E-10   -3.979E-10   -5.489E-10   -6.968E-10   -8.413E-10   -9.823E-10   -1.120E-09   -1.253E-09
    -1.382E-09   -1.507E-09   -1.628E-09   -1.744E-09   -1.854E-09   -1.960E-09   -2.061E-09   -2.156E-09   -2.245E-09   -2.329E-09
    -2.407E-09   -2.481E-09   -2.549E-09   -2.612E-09   -2.670E-09   -2.723E-09   -2.772E-09   -2.816E-09   -2.856E-09   -2.892E-09
    -2.923E-09   -2.950E-09   -2.974E-09   -2.993E-09   -3.009E-09   -3.022E-09   -3.031E-09   -3.036E-09   -3.039E-09   -3.038E-09
    -3.035E-09   -3.028E-09   -3.019E-09   -3.008E-09   -2.994E-09   -2.977E-09   -2.959E-09   -2.938E-09   -2.915E-09   -2.891E-09
    -2.865E-09   -2.837E-09   -2.808E-09   -2.777E-09   -2.745E-09   -2.713E-09   -2.679E-09   -2.644E-09   -2.609E-09   -2.573E-09
    -2.536E-09   -2.499E-09   -2.462E-09   -2.425E-09   -2.388E-09   -2.351E-09   -2.314E-09   -2.277E-09   -2.241E-09   -2.206E-09
    -2.171E-09   -2.137E-09   -2.104E-09   -2.071E-09   -2.040E-09   -2.008E-09   -1.978E-09   -1.948E-09   -1.919E-09   -1.891E-09
    -1.863E-09   -1.837E-09   -1.811E-09   -1.785E-09   -1.761E-09   -1.737E-09   -1.714E-09   -1.691E-09   -1.670E-09   -1.649E-09
    -1.629E-09   -1.610E-09   -1.591E-09   -1.573E-09   -1.556E-09   -1.540E-09   -1.525E-09   -1.510E-09   -1.496E-09   -1.483E-09
    -1.471E-09   -1.460E-09   -1.449E-09   -1.439E-09   -1.430E-09   -1.422E-09   -1.415E-09   -1.408E-09   -1.403E-09   -1.398E-09
    -1.394E-09   -1.391E-09   -1.388E-09   -1.387E-09   -1.386E-09   -1.387E-09   -1.388E-09   -1.390E-09   -1.392E-09   -1.396E-09
    -1.401E-09   -1.406E-09   -1.413E-09   -1.420E-09   -1.428E-09   -1.436E-09   -1.446E-09   -1.456E-09   -1.467E-09   -1.479E-09
    -1.492E-09   -1.505E-09   -1.519E-09   -1.533E-09   -1.548E-09   -1.564E-09   -1.580E-09   -1.597E-09   -1.615E-09   -1.633E-09
    -1.651E-09   -1.670E-09   -1.689E-09   -1.709E-09   -1.729E-09   -1.750E-09   -1.771E-09   -1.792E-09   -1.814E-09   -1.836E-09
    -1.858E-09   -1.880E-09   -1.903E-09   -1.926E-09   -1.949E-09   -1.973E-09   -1.997E-09   -2.020E-09   -2.044E-09   -2.068E-09
    -2.092E-09   -2.116E-09   -2.141E-09   -2.165E-09   -2.189E-09   -2.213E-09   -2.238E-09   -2.262E-09   -2.286E-09   -2.310E-09
    -2.334E-09   -2.357E-09   -2.381E-09
 Asp      Conc. = 4.46E-10
  -1.04529E-09 -1.02438E-09 -9.59895E-10 -9.26376E-10 -8.44423E-10 -7.89764E-10 -7.43298E-10 -6.99277E-10 -6.20930E-10 -5.30497E-10
  -4.34692E-10 -3.36129E-10 -2.35666E-10 -1.33101E-10 -3.01331E-11  7.30407E-11  1.76465E-10  2.80121E-10  3.83928E-10  4.87873E-10
   5.91907E-10  6.96017E-10  8.00207E-10  9.04465E-10  1.00879E-09  1.11322E-09  1.21779E-09  1.32255E-09  1.42760E-09  1.53307E-09
   1.63918E-09  1.74620E-09  1.85473E-09  1.96575E-09  2.08136E-09  2.20697E-09  2.35547E-09  2.47652E-09  2.61226E-09  2.71178E-09
   2.80367E-09  2.91142E-09  3.06053E-09  3.24948E-09  3.46865E-09  3.70584E-09  3.79385E-09  3.83013E-09  4.00282E-09  4.09708E-09
   4.19677E-09  4.34037E-09  4.46325E-09  4.50919E-09  4.51301E-09  4.49399E-09  4.43926E-09  4.54706E-09  4.65680E-09  4.63725E-09
   4.68088E-09  4.74648E-09  4.78171E-09  4.85077E-09  4.95395E-09  5.04385E-09  5.08673E-09  5.14670E-09  5.21422E-09  5.28510E-09
   5.35760E-09  5.43079E-09  5.50417E-09  5.57740E-09  5.65026E-09  5.72258E-09  5.79424E-09  5.86516E-09  5.93525E-09  6.00444E-09
   6.07269E-09  6.13994E-09  6.20615E-09  6.27128E-09  6.33529E-09  6.39816E-09  6.45985E-09  6.52033E-09  6.57957E-09  6.63755E-09
   6.69423E-09  6.74960E-09  6.80363E-09  6.85628E-09  6.90754E-09  6.95739E-09  7.00580E-09  7.05275E-09  7.09820E-09  7.14215E-09
   7.18456E-09  7.22542E-09  7.26471E-09  7.30239E-09  7.33846E-09  7.37285E-09  7.40553E-09  7.43643E-09  7.46550E-09  7.49268E-09
   7.51792E-09  7.54116E-09  7.56234E-09  7.58141E-09  7.59832E-09  7.61301E-09  7.62541E-09  7.63549E-09  7.64317E-09  7.64841E-09
   7.65114E-09  7.65132E-09  7.64889E-09  7.64380E-09  7.63598E-09  7.62539E-09  7.61196E-09  7.59565E-09  7.57639E-09  7.55413E-09
   7.52882E-09  7.50040E-09  7.46882E-09  7.43401E-09  7.39594E-09  7.35453E-09  7.30975E-09  7.26152E-09  7.20980E-09  7.15454E-09
   7.09568E-09  7.03315E-09  6.96693E-09  6.89695E-09  6.82314E-09  6.74547E-09  6.66388E-09  6.57831E-09  6.48873E-09  6.39508E-09
   6.29731E-09  6.19538E-09  6.08926E-09  5.97888E-09  5.86424E-09  5.74529E-09  5.62210E-09  5.49480E-09  5.36373E-09  5.22921E-09
   5.09171E-09  4.95182E-09  4.81056E-09  4.66977E-09  4.53390E-09  4.41696E-09  4.38888E-09  4.58914E-09  4.53245E-09  4.36809E-09
   4.21936E-09  4.05275E-09  3.86044E-09  3.66467E-09  3.48842E-09  3.33810E-09  3.20110E-09  2.89904E-09  2.31056E-09  2.03326E-09
   1.82580E-09  1.63672E-09  1.45501E-09  1.27729E-09  1.10225E-09  9.29446E-10  7.58651E-10  5.89825E-10  4.23091E-10  2.58528E-10
   9.62622E-11 -6.35141E-11 -2.20684E-10 -3.75000E-10 -5.26352E-10 -6.74521E-10 -8.19332E-10 -9.60568E-10 -1.09809E-09 -1.23165E-09
  -1.36109E-09 -1.48620E-09 -1.60679E-09 -1.72268E-09 -1.83366E-09 -1.93955E-09 -2.04011E-09 -2.13522E-09 -2.22469E-09 -2.30866E-09
  -2.38722E-09 -2.46052E-09 -2.52866E-09 -2.59178E-09 -2.65000E-09 -2.70344E-09 -2.75222E-09 -2.79646E-09 -2.83630E-09 -2.87185E-09
  -2.90322E-09 -2.93056E-09 -2.95399E-09 -2.97361E-09 -2.98956E-09 -3.00196E-09 -3.01092E-09 -3.01658E-09 -3.01908E-09 -3.01850E-09
  -3.01497E-09 -3.00864E-09 -2.99961E-09 -2.98802E-09 -2.97398E-09 -2.95762E-09 -2.93906E-09 -2.91841E-09 -2.89582E-09 -2.87139E-09
  -2.84524E-09 -2.81751E-09 -2.78831E-09 -2.75778E-09 -2.72602E-09 -2.69316E-09 -2.65934E-09 -2.62467E-09 -2.58926E-09 -2.55323E-09
  -2.51672E-09 -2.47987E-09 -2.44277E-09 -2.40554E-09 -2.36835E-09 -2.33126E-09 -2.29443E-09 -2.25797E-09 -2.22201E-09 -2.18669E-09
  -2.15203E-09 -2.11808E-09 -2.08482E-09 -2.05226E-09 -2.02041E-09 -1.98927E-09 -1.95885E-09 -1.92914E-09 -1.90015E-09 -1.87188E-09
  -1.84435E-09 -1.81754E-09 -1.79148E-09 -1.76615E-09 -1.74155E-09 -1.71772E-09 -1.69462E-09 -1.67229E-09 -1.65070E-09 -1.62989E-09
  -1.60983E-09 -1.59055E-09 -1.57203E-09 -1.55429E-09 -1.53733E-09 -1.52116E-09 -1.50576E-09 -1.49116E-09 -1.47735E-09 -1.46435E-09
  -1.45214E-09 -1.44074E-09 -1.43014E-09 -1.42036E-09 -1.41140E-09 -1.40326E-09 -1.39593E-09 -1.38943E-09 -1.38376E-09 -1.37894E-09
  -1.37495E-09 -1.37179E-09 -1.36949E-09 -1.36803E-09 -1.36742E-09 -1.36768E-09 -1.36879E-09 -1.37076E-09 -1.37361E-09 -1.37731E-09
  -1.38191E-09 -1.38738E-09 -1.39371E-09 -1.40089E-09 -1.40888E-09 -1.41768E-09 -1.42727E-09 -1.43761E-09 -1.44870E-09 -1.46051E-09
  -1.47303E-09 -1.48622E-09 -1.50007E-09 -1.51457E-09 -1.52968E-09 -1.54540E-09 -1.56169E-09 -1.57855E-09 -1.59594E-09 -1.61385E-09
  -1.63226E-09 -1.65115E-09 -1.67049E-09 -1.69027E-09 -1.71047E-09 -1.73106E-09 -1.75204E-09 -1.77336E-09 -1.79503E-09 -1.81700E-09
  -1.83927E-09 -1.86182E-09 -1.88462E-09 -1.90765E-09 -1.93090E-09 -1.95434E-09 -1.97795E-09 -2.00171E-09 -2.02561E-09 -2.04962E-09
  -2.07372E-09 -2.09788E-09 -2.12210E-09 -2.14635E-09 -2.17061E-09 -2.19486E-09 -2.21908E-09 -2.24324E-09 -2.26734E-09 -2.29134E-09
  -2.31523E-09 -2.33899E-09 -2.36260E-09
 GABA     Conc. = 4.57E-10
  -1.48231E-09 -1.37761E-09 -1.27276E-09 -1.16778E-09 -1.06267E-09 -9.57438E-10 -8.52090E-10 -7.46628E-10 -6.41054E-10 -5.35342E-10
  -4.29540E-10 -3.23594E-10 -2.17476E-10 -1.11260E-10 -4.78576E-12  1.01884E-10  2.08688E-10  3.15942E-10  4.23613E-10  5.31704E-10
   6.40551E-10  7.50391E-10  8.61544E-10  9.74622E-10  1.09058E-09  1.21088E-09  1.33887E-09  1.48166E-09  1.65876E-09  1.92253E-09
   2.04983E-09  2.18203E-09  2.55859E-09  2.76097E-09  2.82358E-09  3.04349E-09  3.22408E-09  3.32965E-09  3.41880E-09  3.44623E-09
   3.37912E-09  3.51217E-09  3.57471E-09  3.35505E-09  3.37788E-09  3.49482E-09  3.44097E-09  3.45531E-09  3.51297E-09  3.58751E-09
   3.67063E-09  3.75828E-09  3.84901E-09  3.94237E-09  4.03795E-09  4.13576E-09  4.23647E-09  4.34122E-09  4.45228E-09  4.57496E-09
   4.72132E-09  4.92884E-09  5.15346E-09  5.24601E-09  5.45863E-09  5.74480E-09  5.82024E-09  5.89048E-09  6.03178E-09  6.12662E-09
   6.18697E-09  6.22038E-09  6.16493E-09  6.11647E-09  6.22068E-09  6.13064E-09  5.98819E-09  6.07382E-09  6.12032E-09  6.15271E-09
   6.25403E-09  6.28694E-09  6.38704E-09  6.60520E-09  6.68065E-09  6.75386E-09  6.94137E-09  7.04886E-09  7.12661E-09  7.24214E-09
   7.28549E-09  7.30165E-09  7.42303E-09  7.43407E-09  7.33093E-09  7.40703E-09  7.43691E-09  7.35008E-09  7.35633E-09  7.37604E-09
   7.36876E-09  7.37614E-09  7.39229E-09  7.41300E-09  7.43607E-09  7.46008E-09  7.48429E-09  7.50816E-09  7.53133E-09  7.55357E-09
   7.57462E-09  7.59417E-09  7.61211E-09  7.62829E-09  7.64261E-09  7.65503E-09  7.66545E-09  7.67372E-09  7.67977E-09  7.68352E-09
   7.68489E-09  7.68384E-09  7.68028E-09  7.67415E-09  7.66537E-09  7.65390E-09  7.63966E-09  7.62259E-09  7.60262E-09  7.57972E-09
   7.55379E-09  7.52480E-09  7.49269E-09  7.45738E-09  7.41884E-09  7.37700E-09  7.33180E-09  7.28319E-09  7.23111E-09  7.17551E-09
   7.11632E-09  7.05349E-09  6.98698E-09  6.91673E-09  6.84267E-09  6.76475E-09  6.68293E-09  6.59715E-09  6.50737E-09  6.41354E-09
   6.31558E-09  6.21349E-09  6.10721E-09  5.99669E-09  5.88192E-09  5.76285E-09  5.63955E-09  5.51216E-09  5.38101E-09  5.24644E-09
   5.10890E-09  4.96901E-09  4.82777E-09  4.68705E-09  4.55128E-09  4.43429E-09  4.40403E-09  4.61768E-09  4.56761E-09  4.40311E-09
   4.25467E-09  4.08838E-09  3.89542E-09  3.69837E-09  3.52122E-09  3.37057E-09  3.23652E-09  2.93819E-09  2.33358E-09  2.04991E-09
   1.84095E-09  1.65131E-09  1.46932E-09  1.29144E-09  1.11629E-09  9.43403E-10  7.72540E-10  6.03657E-10  4.36873E-10  2.72263E-10
   1.09954E-10 -4.98631E-11 -2.07072E-10 -3.61426E-10 -5.12814E-10 -6.61019E-10 -8.05864E-10 -9.47133E-10 -1.08468E-09 -1.21828E-09
  -1.34775E-09 -1.47289E-09 -1.59351E-09 -1.70943E-09 -1.82044E-09 -1.92635E-09 -2.02694E-09 -2.12208E-09 -2.21158E-09 -2.29557E-09
  -2.37416E-09 -2.44748E-09 -2.51564E-09 -2.57879E-09 -2.63703E-09 -2.69049E-09 -2.73929E-09 -2.78355E-09 -2.82341E-09 -2.85899E-09
  -2.89038E-09 -2.91774E-09 -2.94119E-09 -2.96083E-09 -2.97680E-09 -2.98922E-09 -2.99819E-09 -3.00388E-09 -3.00639E-09 -3.00582E-09
  -3.00232E-09 -2.99600E-09 -2.98699E-09 -2.97541E-09 -2.96138E-09 -2.94504E-09 -2.92650E-09 -2.90587E-09 -2.88329E-09 -2.85887E-09
