 LCModel (Version 6.3-1R) Copyright: S.W. Provencher.          Ref.: Magn. Reson. Med. 30:672-679 (1993).                
 onepulse 19x9_ftSpec_smooth_lcm
 26 lines in following concentration table = NCONC+1
    Conc.  %SD   /Cr    Metabolite                                         
 1.39E-10 179%   0.000 Ala                                                 
    0.000 999%   0.000 Asp                                                 
    0.000 999%   0.000 Cr                                                  
 4.54E-10 109%   0.000 GABA                                                
 2.69E-10 337%   0.000 Glc                                                 
 1.04E-09  55%   0.000 Gln                                                 
    0.000 999%   0.000 Glu                                                 
 1.87E-09  56%   0.000 Glyc                                                
    0.000 999%   0.000 GPC                                                 
 1.81E-09  24%   0.000 GSH                                                 
 5.18E-10 176%   0.000 Ins                                                 
    0.000 999%   0.000 Lac                                                 
 6.31E-10  47%   0.000 NAAG                                                
 6.62E-12 999%   0.000 NAA                                                 
    0.000 999%   0.000 PCh                                                 
    0.000 999%   0.000 PCr                                                 
 3.04E-09  28%   0.000 PE                                                  
 2.07E-10 115%   0.000 Scyllo                                              
    0.000 999%   0.000 Ser                                                 
 5.15E-10 195%   0.000 Tau                                                 
    0.000 999%   0.000 GPC+PCh                                             
 6.37E-10  45%   0.000 NAA+NAAG                                            
 2.39E-09  20%   0.000 Ins+Glyc                                            
    0.000 999%   0.000 Cr+PCr                                              
 1.04E-09  55%   0.000 Glu+Gln                                             
   6 lines in following misc. output table
  FWHM = 0.123 ppm    S/N =   4                                            
  Data shift = 0.458 ppm                                                   
  Ph:  44 deg     -30.7 deg/ppm                                            
  alphaB,S = 6.0E-01,   2.5E+01                                            
   10 spline knots.   Ns = 5(1)                                            
  (10) 6 infls.   ( 9) 3 extrs.                                            
  363 points on ppm-axis = NY
      4.250000     4.238821     4.227641     4.216462     4.205282     4.194103     4.182923     4.171744     4.160564     4.149385
      4.138206     4.127026     4.115847     4.104667     4.093488     4.082308     4.071129     4.059949     4.048770     4.037591
      4.026411     4.015232     4.004052     3.992873     3.981693     3.970514     3.959334     3.948155     3.936975     3.925796
      3.914617     3.903437     3.892258     3.881078     3.869899     3.858719     3.847540     3.836360     3.825181     3.814002
      3.802822     3.791643     3.780463     3.769284     3.758104     3.746925     3.735745     3.724566     3.713387     3.702207
      3.691028     3.679848     3.668669     3.657489     3.646310     3.635130     3.623951     3.612772     3.601592     3.590413
      3.579233     3.568054     3.556874     3.545695     3.534515     3.523336     3.512156     3.500977     3.489798     3.478618
      3.467439     3.456259     3.445080     3.433900     3.422721     3.411541     3.400362     3.389183     3.378003     3.366824
      3.355644     3.344465     3.333285     3.322106     3.310926     3.299747     3.288568     3.277388     3.266209     3.255029
      3.243850     3.232670     3.221491     3.210311     3.199132     3.187953     3.176773     3.165594     3.154414     3.143235
      3.132055     3.120876     3.109696     3.098517     3.087337     3.076158     3.064979     3.053799     3.042620     3.031440
      3.020261     3.009081     2.997902     2.986722     2.975543     2.964364     2.953184     2.942005     2.930825     2.919646
      2.908466     2.897287     2.886107     2.874928     2.863749     2.852569     2.841390     2.830210     2.819031     2.807851
      2.796672     2.785492     2.774313     2.763134     2.751954     2.740775     2.729595     2.718416     2.707236     2.696057
      2.684877     2.673698     2.662519     2.651339     2.640160     2.628980     2.617801     2.606621     2.595442     2.584262
      2.573083     2.561903     2.550724     2.539545     2.528365     2.517186     2.506006     2.494827     2.483647     2.472468
      2.461288     2.450109     2.438930     2.427750     2.416571     2.405391     2.394212     2.383032     2.371853     2.360673
      2.349494     2.338315     2.327135     2.315956     2.304776     2.293597     2.282417     2.271238     2.260058     2.248879
      2.237700     2.226520     2.215341     2.204161     2.192982     2.181802     2.170623     2.159443     2.148264     2.137084
      2.125905     2.114726     2.103546     2.092367     2.081187     2.070008     2.058828     2.047649     2.036469     2.025290
      2.014111     2.002931     1.991752     1.980572     1.969393     1.958213     1.947034     1.935854     1.924675     1.913496
      1.902316     1.891137     1.879957     1.868778     1.857598     1.846419     1.835239     1.824060     1.812881     1.801701
      1.790522     1.779342     1.768163     1.756983     1.745804     1.734624     1.723445     1.712265     1.701086     1.689907
      1.678727     1.667548     1.656368     1.645189     1.634009     1.622830     1.611650     1.600471     1.589292     1.578112
      1.566933     1.555753     1.544574     1.533394     1.522215     1.511035     1.499856     1.488677     1.477497     1.466318
      1.455138     1.443959     1.432779     1.421600     1.410420     1.399241     1.388062     1.376882     1.365703     1.354523
      1.343344     1.332164     1.320985     1.309805     1.298626     1.287446     1.276267     1.265088     1.253908     1.242729
      1.231549     1.220370     1.209190     1.198011     1.186831     1.175652     1.164473     1.153293     1.142114     1.130934
      1.119755     1.108575     1.097396     1.086216     1.075037     1.063858     1.052678     1.041499     1.030319     1.019140
      1.007960     0.996781     0.985601     0.974422     0.963243     0.952063     0.940884     0.929704     0.918525     0.907345
      0.896166     0.884986     0.873807     0.862628     0.851448     0.840269     0.829089     0.817910     0.806730     0.795551
      0.784371     0.773192     0.762012     0.750833     0.739654     0.728474     0.717295     0.706115     0.694936     0.683756
      0.672577     0.661397     0.650218     0.639039     0.627859     0.616680     0.605500     0.594321     0.583141     0.571962
      0.560782     0.549603     0.538424     0.527244     0.516065     0.504885     0.493706     0.482526     0.471347     0.460167
      0.448988     0.437809     0.426629     0.415450     0.404270     0.393091     0.381911     0.370732     0.359552     0.348373
      0.337193     0.326014     0.314835     0.303655     0.292476     0.281296     0.270117     0.258937     0.247758     0.236578
      0.225399     0.214220     0.203040
 NY phased data points follow
   1.19534E-08  1.15494E-08  1.25926E-08  1.24386E-08  1.28140E-08  1.30678E-08  1.39347E-08  1.33603E-08  1.28374E-08  1.28834E-08
   1.27740E-08  1.21665E-08  1.27319E-08  1.27941E-08  1.21727E-08  1.19526E-08  1.24883E-08  1.25070E-08  1.23683E-08  1.20458E-08
   1.14141E-08  1.29508E-08  1.34835E-08  1.47303E-08  1.50268E-08  1.51017E-08  1.48967E-08  1.43172E-08  1.28828E-08  1.24932E-08
   1.28118E-08  1.22369E-08  1.20772E-08  1.16960E-08  1.16516E-08  1.08510E-08  1.06448E-08  1.01742E-08  9.69075E-09  9.94904E-09
   8.84085E-09  8.75060E-09  8.91374E-09  8.79111E-09  7.92863E-09  8.31691E-09  6.96093E-09  6.25774E-09  6.03620E-09  6.04219E-09
   6.14262E-09  6.36289E-09  7.25320E-09  9.30763E-09  1.09217E-08  1.24679E-08  1.36210E-08  1.33011E-08  1.23895E-08  1.21117E-08
   1.05499E-08  1.07188E-08  9.65539E-09  8.68894E-09  7.35615E-09  6.53579E-09  6.62690E-09  5.38106E-09  5.72659E-09  6.35083E-09
   8.82291E-09  1.24051E-08  1.39828E-08  1.45931E-08  1.48703E-08  1.49028E-08  1.45724E-08  1.46095E-08  1.41005E-08  1.42478E-08
   1.39756E-08  1.38693E-08  1.35749E-08  1.37285E-08  1.31859E-08  1.30860E-08  1.24268E-08  1.19303E-08  1.10867E-08  1.16894E-08
   1.10822E-08  1.05999E-08  1.03184E-08  1.07575E-08  1.05434E-08  1.01638E-08  1.01733E-08  1.02009E-08  8.97938E-09  9.49094E-09
   9.03750E-09  8.49588E-09  7.10754E-09  7.20065E-09  7.25841E-09  7.88409E-09  7.07763E-09  7.64816E-09  7.95451E-09  8.09882E-09
   7.53834E-09  7.94235E-09  8.01402E-09  8.59123E-09  7.25794E-09  7.45966E-09  6.61126E-09  6.53228E-09  5.45025E-09  6.39452E-09
   5.59369E-09  5.53900E-09  6.13852E-09  5.63186E-09  5.83981E-09  5.72073E-09  5.56809E-09  5.44890E-09  4.95570E-09  5.49674E-09
   4.77828E-09  6.08109E-09  6.31284E-09  7.62454E-09  7.25878E-09  7.45871E-09  7.49130E-09  8.28375E-09  7.67663E-09  8.71022E-09
   8.92297E-09  8.86495E-09  8.49720E-09  8.95041E-09  8.43099E-09  8.00544E-09  8.12333E-09  8.44897E-09  8.30286E-09  7.31943E-09
   7.66847E-09  7.30606E-09  6.93055E-09  7.44340E-09  7.22110E-09  6.68971E-09  5.98857E-09  5.24705E-09  4.85610E-09  4.44384E-09
   3.04650E-09  4.51484E-09  8.15499E-09  1.25467E-08  1.49457E-08  1.69497E-08  1.75605E-08  1.92954E-08  1.93707E-08  1.96033E-08
   1.92026E-08  1.97081E-08  1.98126E-08  1.98294E-08  1.93930E-08  1.91780E-08  1.85561E-08  1.78662E-08  1.68549E-08  1.61786E-08
   1.39494E-08  1.24747E-08  1.11820E-08  9.54437E-09  7.59508E-09  5.69102E-09  3.90945E-09  2.09093E-09  3.12614E-11 -1.37264E-09
  -2.69143E-09 -3.89830E-09 -4.24183E-09 -5.11009E-09 -5.53385E-09 -5.23598E-09 -5.27561E-09 -5.00451E-09 -4.65168E-09 -4.08320E-09
  -3.82922E-09 -2.39041E-09 -2.08778E-09 -1.96245E-09 -1.39883E-09 -1.10667E-09 -1.56198E-09 -1.01498E-09 -1.40793E-09 -9.26491E-10
  -1.47291E-09 -1.40551E-09 -1.91576E-09 -8.32841E-10 -1.17690E-09 -7.27463E-10 -2.20274E-10 -5.58468E-10 -9.64559E-10 -9.98164E-10
  -8.36143E-10 -7.24122E-10 -1.62842E-09 -4.68904E-10 -4.11521E-10 -1.22221E-09 -9.37265E-10 -7.21293E-10 -7.46697E-10 -3.69482E-10
  -5.89243E-10 -5.65108E-10 -7.47371E-10 -1.03851E-09 -4.40621E-10 -1.11061E-09 -1.58064E-09 -1.77317E-09 -1.21255E-09 -1.54282E-09
  -1.58389E-09 -1.04728E-09 -9.04197E-10 -5.16583E-10 -1.12978E-09 -5.33280E-10 -3.74071E-10 -2.84458E-10  1.98100E-11 -4.64093E-11
   5.62986E-10  2.94348E-11 -5.82065E-10 -3.95529E-10 -1.21959E-09 -1.18034E-09 -1.51754E-09 -1.43322E-09 -2.69415E-09 -1.64619E-09
  -2.53185E-09 -2.29365E-09 -2.62647E-09 -2.31687E-09 -2.61966E-09 -1.40212E-09 -2.13423E-09 -1.57219E-09 -1.04616E-09 -8.35585E-10
  -7.24036E-10 -6.16578E-10 -3.43580E-10 -3.89290E-10 -4.10541E-10  1.12846E-10 -7.41491E-10 -1.69285E-10 -1.02265E-10  5.36941E-10
   6.05236E-11  3.30082E-11 -2.61839E-10 -2.66796E-10 -2.16414E-10  7.35861E-11 -2.88467E-10  7.26891E-11 -9.18799E-11 -2.46190E-10
   1.52094E-10 -4.81802E-10 -1.86410E-10 -3.27996E-10 -6.32545E-10 -2.46805E-10 -2.66178E-10 -6.46912E-10 -4.09544E-10 -6.16916E-10
  -7.35220E-10 -8.47542E-10 -5.87424E-10 -7.30227E-10 -1.08694E-09 -9.89258E-10 -1.66783E-09 -5.27315E-10 -1.35827E-09 -1.30586E-09
  -1.43134E-09 -1.29602E-09 -1.72824E-09 -1.03876E-09 -1.50998E-09 -1.63884E-09 -1.64193E-09 -1.41036E-09 -1.62204E-09 -2.08078E-09
  -1.97507E-09 -1.34869E-09 -2.20520E-09 -1.71634E-09 -1.88817E-09 -1.61551E-09 -2.39212E-09 -2.07425E-09 -1.72210E-09 -2.01578E-09
  -2.08807E-09 -1.59889E-09 -2.45211E-09 -2.40876E-09 -2.18102E-09 -2.10155E-09 -2.54651E-09 -1.76894E-09 -2.51056E-09 -2.38990E-09
  -3.09632E-09 -2.33113E-09 -2.86430E-09 -2.13641E-09 -2.85885E-09 -2.45523E-09 -2.89310E-09 -2.49513E-09 -3.07041E-09 -2.85719E-09
  -2.99536E-09 -2.87698E-09 -2.94599E-09 -2.98855E-09 -3.32034E-09 -2.97602E-09 -3.53977E-09 -3.09245E-09 -3.49956E-09 -3.20866E-09
  -2.83215E-09 -3.25972E-09 -3.38836E-09
 NY points of the fit to the data follow
   1.38449E-08  1.30563E-08  1.26593E-08  1.21547E-08  1.21812E-08  1.23892E-08  1.26115E-08  1.30374E-08  1.32938E-08  1.29503E-08
   1.28243E-08  1.22152E-08  1.16804E-08  1.18568E-08  1.22784E-08  1.24126E-08  1.28784E-08  1.38935E-08  1.43654E-08  1.27522E-08
   1.08897E-08  1.16588E-08  1.26770E-08  1.37133E-08  1.41758E-08  1.48040E-08  1.51595E-08  1.48944E-08  1.42883E-08  1.38143E-08
   1.35052E-08  1.25951E-08  1.17237E-08  1.14870E-08  1.10638E-08  1.05474E-08  1.02888E-08  1.03741E-08  1.02280E-08  1.00197E-08
   9.93664E-09  1.00467E-08  1.00701E-08  9.55049E-09  8.67072E-09  8.08630E-09  7.57426E-09  6.75278E-09  6.63103E-09  6.88433E-09
   7.44464E-09  7.81542E-09  8.03716E-09  8.87160E-09  9.70780E-09  9.93487E-09  1.02923E-08  1.09024E-08  1.12168E-08  1.10356E-08
   1.08277E-08  1.06340E-08  1.06971E-08  1.03723E-08  9.60780E-09  9.53614E-09  9.72821E-09  9.33966E-09  9.10595E-09  9.75800E-09
   1.03602E-08  1.07504E-08  1.15278E-08  1.20072E-08  1.26211E-08  1.36510E-08  1.50344E-08  1.56778E-08  1.56973E-08  1.53732E-08
   1.48890E-08  1.45520E-08  1.39274E-08  1.33588E-08  1.31893E-08  1.24953E-08  1.11488E-08  9.67697E-09  9.13153E-09  8.86568E-09
   8.63348E-09  8.48559E-09  8.43091E-09  8.30942E-09  8.12920E-09  8.08662E-09  8.01687E-09  7.89555E-09  7.86172E-09  7.85863E-09
   7.94416E-09  7.94028E-09  7.90692E-09  8.00216E-09  8.06445E-09  8.06186E-09  8.04425E-09  8.04190E-09  8.04607E-09  8.01913E-09
   7.92048E-09  7.80305E-09  7.81646E-09  7.76061E-09  7.61680E-09  7.56301E-09  7.53537E-09  7.51658E-09  7.50131E-09  7.48737E-09
   7.47368E-09  7.45963E-09  7.44483E-09  7.42902E-09  7.41203E-09  7.39371E-09  7.37395E-09  7.35267E-09  7.32981E-09  7.30529E-09
   7.27908E-09  7.25112E-09  7.22140E-09  7.18985E-09  7.15648E-09  7.12124E-09  7.08413E-09  7.04512E-09  7.00421E-09  6.96139E-09
   6.91666E-09  6.87001E-09  6.82148E-09  6.77108E-09  6.71883E-09  6.66477E-09  6.60897E-09  6.55150E-09  6.49246E-09  6.43200E-09
   6.37026E-09  6.30749E-09  6.24401E-09  6.18021E-09  6.11667E-09  6.05414E-09  5.99380E-09  5.93731E-09  5.88726E-09  5.84758E-09
   5.82474E-09  5.83001E-09  5.88507E-09  6.03709E-09  6.41005E-09  7.44447E-09  1.14777E-08  1.85553E-08  2.14866E-08  2.10445E-08
   2.02472E-08  2.00274E-08  1.99862E-08  1.99474E-08  2.02049E-08  2.06522E-08  1.94969E-08  1.41709E-08  7.44994E-09  5.20339E-09
   4.36900E-09  3.91015E-09  3.59760E-09  3.35621E-09  3.15448E-09  2.97715E-09  2.81585E-09  2.66575E-09  2.52390E-09  2.38837E-09
   2.25786E-09  2.13155E-09  2.00880E-09  1.88926E-09  1.77260E-09  1.65865E-09  1.54728E-09  1.43843E-09  1.33202E-09  1.22808E-09
   1.12659E-09  1.02760E-09  9.31128E-10  8.37231E-10  7.45969E-10  6.57399E-10  5.71625E-10  4.88660E-10  4.08608E-10  3.31383E-10
   2.56934E-10  1.85190E-10  1.16098E-10  4.95896E-11 -1.43849E-11 -7.58922E-11 -1.34977E-10 -1.91695E-10 -2.46111E-10 -2.98275E-10
  -3.48224E-10 -3.96030E-10 -4.41739E-10 -4.85397E-10 -5.27064E-10 -5.66785E-10 -6.04597E-10 -6.40580E-10 -6.74777E-10 -7.07213E-10
  -7.37953E-10 -7.67055E-10 -7.94551E-10 -8.20508E-10 -8.44962E-10 -8.67975E-10 -8.89590E-10 -9.09845E-10 -9.28802E-10 -9.46504E-10
  -9.63000E-10 -9.78336E-10 -9.92566E-10 -1.00574E-09 -1.01789E-09 -1.02909E-09 -1.03937E-09 -1.04880E-09 -1.05739E-09 -1.06521E-09
  -1.07231E-09 -1.07874E-09 -1.08454E-09 -1.08976E-09 -1.09447E-09 -1.09867E-09 -1.10245E-09 -1.10584E-09 -1.10890E-09 -1.11167E-09
  -1.11418E-09 -1.11646E-09 -1.11854E-09 -1.12043E-09 -1.12216E-09 -1.12375E-09 -1.12522E-09 -1.12660E-09 -1.12791E-09 -1.12917E-09
  -1.13041E-09 -1.13165E-09 -1.13291E-09 -1.13421E-09 -1.13558E-09 -1.13703E-09 -1.13860E-09 -1.14030E-09 -1.14216E-09 -1.14421E-09
  -1.14645E-09 -1.14892E-09 -1.15163E-09 -1.15461E-09 -1.15789E-09 -1.16149E-09 -1.16542E-09 -1.16972E-09 -1.17440E-09 -1.17949E-09
  -1.18501E-09 -1.19098E-09 -1.19742E-09 -1.20437E-09 -1.21183E-09 -1.21984E-09 -1.22841E-09 -1.23757E-09 -1.24734E-09 -1.25774E-09
  -1.26881E-09 -1.28054E-09 -1.29299E-09 -1.30615E-09 -1.32006E-09 -1.33475E-09 -1.35022E-09 -1.36651E-09 -1.38364E-09 -1.40162E-09
  -1.42050E-09 -1.44027E-09 -1.46094E-09 -1.48249E-09 -1.50488E-09 -1.52810E-09 -1.55213E-09 -1.57693E-09 -1.60250E-09 -1.62880E-09
  -1.65582E-09 -1.68352E-09 -1.71190E-09 -1.74092E-09 -1.77057E-09 -1.80081E-09 -1.83163E-09 -1.86300E-09 -1.89491E-09 -1.92732E-09
  -1.96023E-09 -1.99359E-09 -2.02739E-09 -2.06162E-09 -2.09623E-09 -2.13122E-09 -2.16656E-09 -2.20223E-09 -2.23820E-09 -2.27445E-09
  -2.31096E-09 -2.34770E-09 -2.38466E-09 -2.42181E-09 -2.45912E-09 -2.49658E-09 -2.53417E-09 -2.57185E-09 -2.60960E-09 -2.64741E-09
  -2.68525E-09 -2.72310E-09 -2.76094E-09 -2.79873E-09 -2.83646E-09 -2.87412E-09 -2.91167E-09 -2.94908E-09 -2.98635E-09 -3.02344E-09
  -3.06034E-09 -3.09701E-09 -3.13345E-09
 NY background values follow
    -9.863E-10   -9.016E-10   -8.167E-10   -7.318E-10   -6.468E-10   -5.617E-10   -4.766E-10   -3.914E-10   -3.062E-10   -2.209E-10
    -1.356E-10   -5.035E-11    3.495E-11    1.202E-10    2.055E-10    2.907E-10    3.759E-10    4.610E-10    5.461E-10    6.311E-10
     7.160E-10    8.008E-10    8.855E-10    9.701E-10    1.055E-09    1.139E-09    1.223E-09    1.307E-09    1.391E-09    1.475E-09
     1.558E-09    1.641E-09    1.724E-09    1.807E-09    1.890E-09    1.972E-09    2.054E-09    2.136E-09    2.218E-09    2.299E-09
     2.380E-09    2.461E-09    2.541E-09    2.621E-09    2.701E-09    2.780E-09    2.859E-09    2.938E-09    3.016E-09    3.094E-09
     3.172E-09    3.249E-09    3.326E-09    3.402E-09    3.478E-09    3.553E-09    3.628E-09    3.702E-09    3.776E-09    3.849E-09
     3.921E-09    3.993E-09    4.065E-09    4.135E-09    4.205E-09    4.275E-09    4.343E-09    4.411E-09    4.478E-09    4.544E-09
     4.610E-09    4.675E-09    4.738E-09    4.801E-09    4.863E-09    4.924E-09    4.984E-09    5.044E-09    5.102E-09    5.159E-09
     5.215E-09    5.270E-09    5.324E-09    5.377E-09    5.429E-09    5.480E-09    5.529E-09    5.577E-09    5.624E-09    5.670E-09
     5.715E-09    5.758E-09    5.800E-09    5.841E-09    5.880E-09    5.918E-09    5.955E-09    5.990E-09    6.024E-09    6.056E-09
     6.087E-09    6.116E-09    6.144E-09    6.170E-09    6.195E-09    6.218E-09    6.239E-09    6.259E-09    6.277E-09    6.294E-09
     6.309E-09    6.322E-09    6.333E-09    6.343E-09    6.351E-09    6.357E-09    6.362E-09    6.364E-09    6.365E-09    6.364E-09
     6.361E-09    6.356E-09    6.349E-09    6.340E-09    6.329E-09    6.317E-09    6.302E-09    6.285E-09    6.266E-09    6.245E-09
     6.222E-09    6.197E-09    6.170E-09    6.141E-09    6.110E-09    6.076E-09    6.040E-09    6.002E-09    5.962E-09    5.920E-09
     5.875E-09    5.828E-09    5.778E-09    5.727E-09    5.673E-09    5.616E-09    5.558E-09    5.496E-09    5.433E-09    5.367E-09
     5.298E-09    5.227E-09    5.154E-09    5.077E-09    4.999E-09    4.918E-09    4.834E-09    4.748E-09    4.659E-09    4.568E-09
     4.475E-09    4.380E-09    4.283E-09    4.184E-09    4.083E-09    3.980E-09    3.876E-09    3.770E-09    3.663E-09    3.555E-09
     3.446E-09    3.335E-09    3.224E-09    3.112E-09    2.999E-09    2.885E-09    2.771E-09    2.656E-09    2.541E-09    2.426E-09
     2.311E-09    2.195E-09    2.080E-09    1.965E-09    1.850E-09    1.735E-09    1.621E-09    1.508E-09    1.395E-09    1.283E-09
     1.172E-09    1.062E-09    9.527E-10    8.449E-10    7.384E-10    6.333E-10    5.297E-10    4.277E-10    3.274E-10    2.289E-10
     1.323E-10    3.776E-11   -5.466E-11   -1.449E-10   -2.327E-10   -3.182E-10   -4.011E-10   -4.814E-10   -5.590E-10   -6.339E-10
    -7.061E-10   -7.759E-10   -8.431E-10   -9.078E-10   -9.700E-10   -1.030E-09   -1.088E-09   -1.143E-09   -1.196E-09   -1.247E-09
    -1.295E-09   -1.342E-09   -1.387E-09   -1.429E-09   -1.470E-09   -1.508E-09   -1.545E-09   -1.580E-09   -1.614E-09   -1.645E-09
    -1.675E-09   -1.703E-09   -1.730E-09   -1.755E-09   -1.779E-09   -1.801E-09   -1.822E-09   -1.842E-09   -1.860E-09   -1.877E-09
    -1.893E-09   -1.907E-09   -1.921E-09   -1.934E-09   -1.945E-09   -1.956E-09   -1.965E-09   -1.974E-09   -1.982E-09   -1.990E-09
    -1.996E-09   -2.002E-09   -2.007E-09   -2.012E-09   -2.016E-09   -2.020E-09   -2.023E-09   -2.026E-09   -2.029E-09   -2.031E-09
    -2.033E-09   -2.035E-09   -2.036E-09   -2.038E-09   -2.039E-09   -2.040E-09   -2.041E-09   -2.042E-09   -2.043E-09   -2.044E-09
    -2.045E-09   -2.045E-09   -2.046E-09   -2.047E-09   -2.048E-09   -2.049E-09   -2.050E-09   -2.052E-09   -2.053E-09   -2.055E-09
    -2.056E-09   -2.059E-09   -2.061E-09   -2.063E-09   -2.066E-09   -2.069E-09   -2.073E-09   -2.077E-09   -2.081E-09   -2.086E-09
    -2.091E-09   -2.097E-09   -2.103E-09   -2.109E-09   -2.116E-09   -2.124E-09   -2.132E-09   -2.141E-09   -2.150E-09   -2.160E-09
    -2.171E-09   -2.182E-09   -2.194E-09   -2.207E-09   -2.221E-09   -2.235E-09   -2.250E-09   -2.266E-09   -2.283E-09   -2.300E-09
    -2.319E-09   -2.338E-09   -2.358E-09   -2.380E-09   -2.402E-09   -2.424E-09   -2.448E-09   -2.472E-09   -2.498E-09   -2.523E-09
    -2.550E-09   -2.577E-09   -2.605E-09   -2.634E-09   -2.663E-09   -2.693E-09   -2.724E-09   -2.755E-09   -2.786E-09   -2.818E-09
    -2.851E-09   -2.883E-09   -2.917E-09   -2.951E-09   -2.985E-09   -3.019E-09   -3.054E-09   -3.090E-09   -3.125E-09   -3.161E-09
    -3.197E-09   -3.233E-09   -3.270E-09   -3.307E-09   -3.344E-09   -3.381E-09   -3.418E-09   -3.455E-09   -3.492E-09   -3.530E-09
    -3.567E-09   -3.605E-09   -3.642E-09   -3.679E-09   -3.717E-09   -3.754E-09   -3.791E-09   -3.828E-09   -3.865E-09   -3.901E-09
    -3.938E-09   -3.974E-09   -4.010E-09
 Ala      Conc. = 1.39E-10
  -8.82188E-10 -7.90563E-10 -7.06294E-10 -6.19084E-10 -5.34142E-10 -4.48938E-10 -3.65059E-10 -2.98190E-10 -2.25635E-10 -1.34697E-10
  -6.53766E-11 -2.02664E-13  8.30887E-11  1.61710E-10  2.37524E-10  3.17275E-10  3.98919E-10  4.81586E-10  5.64826E-10  6.48429E-10
   7.32237E-10  8.16162E-10  9.00150E-10  9.84144E-10  1.06810E-09  1.15199E-09  1.23580E-09  1.31950E-09  1.40307E-09  1.48650E-09
   1.56978E-09  1.65286E-09  1.73577E-09  1.81847E-09  1.90096E-09  1.98321E-09  2.06523E-09  2.14700E-09  2.22851E-09  2.30972E-09
   2.39067E-09  2.47133E-09  2.55166E-09  2.63168E-09  2.71137E-09  2.79071E-09  2.86972E-09  2.94835E-09  3.02661E-09  3.10447E-09
   3.18196E-09  3.25904E-09  3.33571E-09  3.41194E-09  3.48772E-09  3.56302E-09  3.63783E-09  3.71212E-09  3.78587E-09  3.85906E-09
   3.93167E-09  4.00367E-09  4.07504E-09  4.14576E-09  4.21580E-09  4.28516E-09  4.35380E-09  4.42171E-09  4.48885E-09  4.55522E-09
   4.62078E-09  4.68552E-09  4.74942E-09  4.81246E-09  4.87461E-09  4.93586E-09  4.99618E-09  5.05556E-09  5.11399E-09  5.17143E-09
   5.22787E-09  5.28330E-09  5.33771E-09  5.39107E-09  5.44338E-09  5.49465E-09  5.54485E-09  5.59400E-09  5.64211E-09  5.68921E-09
   5.73535E-09  5.78059E-09  5.82508E-09  5.86901E-09  5.91275E-09  5.95694E-09  6.00285E-09  6.05330E-09  6.11601E-09  6.21996E-09
   6.40192E-09  6.45673E-09  6.47850E-09  6.62768E-09  6.73273E-09  6.76471E-09  6.77610E-09  6.79831E-09  6.82427E-09  6.81651E-09
   6.73483E-09  6.63259E-09  6.65966E-09  6.61614E-09  6.48353E-09  6.43988E-09  6.42145E-09  6.41109E-09  6.40356E-09  6.39673E-09
   6.38958E-09  6.38154E-09  6.37228E-09  6.36157E-09  6.34927E-09  6.33526E-09  6.31947E-09  6.30183E-09  6.28228E-09  6.26078E-09
   6.23729E-09  6.21178E-09  6.18422E-09  6.15458E-09  6.12282E-09  6.08893E-09  6.05288E-09  6.01465E-09  5.97421E-09  5.93154E-09
   5.88662E-09  5.83943E-09  5.78994E-09  5.73815E-09  5.68402E-09  5.62753E-09  5.56868E-09  5.50742E-09  5.44375E-09  5.37767E-09
   5.30912E-09  5.23811E-09  5.16463E-09  5.08863E-09  5.01014E-09  4.92911E-09  4.84559E-09  4.75962E-09  4.67137E-09  4.58096E-09
   4.48859E-09  4.39447E-09  4.29894E-09  4.20261E-09  4.10688E-09  4.01611E-09  3.95207E-09  3.96102E-09  3.90393E-09  3.78981E-09
   3.66876E-09  3.55683E-09  3.44701E-09  3.33545E-09  3.22663E-09  3.12320E-09  3.00513E-09  2.82933E-09  2.60462E-09  2.46094E-09
   2.33571E-09  2.21553E-09  2.09742E-09  1.98047E-09  1.86431E-09  1.74890E-09  1.63418E-09  1.52015E-09  1.40695E-09  1.29461E-09
   1.18320E-09  1.07285E-09  9.63601E-10  8.55618E-10  7.48932E-10  6.43673E-10  5.39929E-10  4.37825E-10  3.37419E-10  2.38852E-10
   1.42208E-10  4.75874E-11 -4.49007E-11 -1.35165E-10 -2.23097E-10 -3.08603E-10 -3.91548E-10 -4.71890E-10 -5.49506E-10 -6.24458E-10
  -6.96783E-10 -7.66536E-10 -8.33756E-10 -8.98502E-10 -9.60812E-10 -1.02074E-09 -1.07834E-09 -1.13364E-09 -1.18670E-09 -1.23758E-09
  -1.28630E-09 -1.33293E-09 -1.37751E-09 -1.42009E-09 -1.46071E-09 -1.49943E-09 -1.53628E-09 -1.57133E-09 -1.60463E-09 -1.63620E-09
  -1.66609E-09 -1.69438E-09 -1.72108E-09 -1.74627E-09 -1.76997E-09 -1.79226E-09 -1.81316E-09 -1.83272E-09 -1.85100E-09 -1.86805E-09
  -1.88390E-09 -1.89860E-09 -1.91221E-09 -1.92478E-09 -1.93634E-09 -1.94695E-09 -1.95666E-09 -1.96553E-09 -1.97357E-09 -1.98084E-09
  -1.98741E-09 -1.99332E-09 -1.99860E-09 -2.00330E-09 -2.00750E-09 -2.01121E-09 -2.01450E-09 -2.01740E-09 -2.01998E-09 -2.02228E-09
  -2.02432E-09 -2.02614E-09 -2.02776E-09 -2.02919E-09 -2.03047E-09 -2.03162E-09 -2.03265E-09 -2.03359E-09 -2.03447E-09 -2.03530E-09
  -2.03611E-09 -2.03692E-09 -2.03776E-09 -2.03864E-09 -2.03959E-09 -2.04063E-09 -2.04179E-09 -2.04308E-09 -2.04454E-09 -2.04617E-09
  -2.04801E-09 -2.05008E-09 -2.05239E-09 -2.05498E-09 -2.05786E-09 -2.06107E-09 -2.06461E-09 -2.06851E-09 -2.07280E-09 -2.07750E-09
  -2.08263E-09 -2.08821E-09 -2.09426E-09 -2.10082E-09 -2.10790E-09 -2.11552E-09 -2.12370E-09 -2.13248E-09 -2.14186E-09 -2.15189E-09
  -2.16257E-09 -2.17392E-09 -2.18598E-09 -2.19876E-09 -2.21229E-09 -2.22659E-09 -2.24169E-09 -2.25759E-09 -2.27434E-09 -2.29194E-09
  -2.31043E-09 -2.32982E-09 -2.35011E-09 -2.37127E-09 -2.39327E-09 -2.41611E-09 -2.43975E-09 -2.46416E-09 -2.48934E-09 -2.51526E-09
  -2.54189E-09 -2.56920E-09 -2.59719E-09 -2.62582E-09 -2.65507E-09 -2.68492E-09 -2.71534E-09 -2.74632E-09 -2.77783E-09 -2.80985E-09
  -2.84235E-09 -2.87532E-09 -2.90872E-09 -2.94254E-09 -2.97675E-09 -3.01134E-09 -3.04627E-09 -3.08153E-09 -3.11709E-09 -3.15293E-09
  -3.18903E-09 -3.22536E-09 -3.26190E-09 -3.29863E-09 -3.33553E-09 -3.37256E-09 -3.40973E-09 -3.44698E-09 -3.48431E-09 -3.52169E-09
  -3.55910E-09 -3.59652E-09 -3.63392E-09 -3.67128E-09 -3.70857E-09 -3.74579E-09 -3.78289E-09 -3.81986E-09 -3.85668E-09 -3.89333E-09
  -3.92977E-09 -3.96599E-09 -4.00197E-09
 GABA     Conc. = 4.54E-10
  -9.38325E-10 -8.52978E-10 -7.67481E-10 -6.81842E-10 -5.96060E-10 -5.10148E-10 -4.24101E-10 -3.37926E-10 -2.51617E-10 -1.65153E-10
  -7.85664E-11  8.18038E-12  9.51275E-11  1.82213E-10  2.69570E-10  3.57173E-10  4.44953E-10  5.33180E-10  6.21895E-10  7.11089E-10
   8.01052E-10  8.92052E-10  9.84427E-10  1.07877E-09  1.17601E-09  1.27766E-09  1.38697E-09  1.51082E-09  1.66805E-09  1.91133E-09
   2.04405E-09  2.13953E-09  2.46259E-09  2.69688E-09  2.75465E-09  2.90601E-09  3.07717E-09  3.19060E-09  3.24083E-09  3.22747E-09
   3.19657E-09  3.28950E-09  3.27690E-09  3.09970E-09  3.11526E-09  3.17546E-09  3.12049E-09  3.12469E-09  3.16815E-09  3.22718E-09
   3.29430E-09  3.36591E-09  3.44051E-09  3.51770E-09  3.59719E-09  3.67897E-09  3.76368E-09  3.85245E-09  3.94762E-09  4.05422E-09
   4.18393E-09  4.37286E-09  4.59480E-09  4.68453E-09  4.84347E-09  5.11807E-09  5.22200E-09  5.25635E-09  5.35800E-09  5.45837E-09
   5.51478E-09  5.50988E-09  5.44480E-09  5.41178E-09  5.45666E-09  5.34773E-09  5.23328E-09  5.29529E-09  5.31763E-09  5.33754E-09
   5.43296E-09  5.46590E-09  5.53269E-09  5.73069E-09  5.82727E-09  5.87430E-09  6.02294E-09  6.14300E-09  6.21732E-09  6.29256E-09
   6.32605E-09  6.36107E-09  6.44369E-09  6.42334E-09  6.34763E-09  6.39805E-09  6.39494E-09  6.31578E-09  6.31056E-09  6.31303E-09
   6.29648E-09  6.29343E-09  6.29860E-09  6.30809E-09  6.31982E-09  6.33247E-09  6.34539E-09  6.35812E-09  6.37035E-09  6.38184E-09
   6.39239E-09  6.40173E-09  6.40979E-09  6.41646E-09  6.42170E-09  6.42548E-09  6.42772E-09  6.42835E-09  6.42730E-09  6.42455E-09
   6.42004E-09  6.41377E-09  6.40569E-09  6.39576E-09  6.38397E-09  6.37028E-09  6.35465E-09  6.33708E-09  6.31753E-09  6.29598E-09
   6.27240E-09  6.24677E-09  6.21907E-09  6.18928E-09  6.15737E-09  6.12332E-09  6.08712E-09  6.04873E-09  6.00814E-09  5.96533E-09
   5.92028E-09  5.87297E-09  5.82338E-09  5.77150E-09  5.71728E-09  5.66073E-09  5.60183E-09  5.54056E-09  5.47690E-09  5.41085E-09
   5.34238E-09  5.27149E-09  5.19817E-09  5.12241E-09  5.04421E-09  4.96359E-09  4.88060E-09  4.79534E-09  4.70803E-09  4.61889E-09
   4.52828E-09  4.43669E-09  4.34497E-09  4.25482E-09  4.17029E-09  4.10417E-09  4.11851E-09  4.39084E-09  4.45855E-09  4.33472E-09
   4.18537E-09  4.06839E-09  3.96171E-09  3.85101E-09  3.75002E-09  3.66977E-09  3.54955E-09  3.24593E-09  2.76364E-09  2.54752E-09
   2.39856E-09  2.26725E-09  2.14284E-09  2.02188E-09  1.90297E-09  1.78558E-09  1.66935E-09  1.55417E-09  1.44003E-09  1.32694E-09
   1.21490E-09  1.10402E-09  9.94324E-10  8.85951E-10  7.78926E-10  6.73368E-10  5.69359E-10  4.67018E-10  3.66398E-10  2.67637E-10
   1.70817E-10  7.60346E-11 -1.66019E-11 -1.07004E-10 -1.95063E-10 -2.80687E-10 -3.63743E-10 -4.44189E-10 -5.21902E-10 -5.96946E-10
  -6.69358E-10 -7.39192E-10 -8.06491E-10 -8.71311E-10 -9.33691E-10 -9.93691E-10 -1.05135E-09 -1.10671E-09 -1.15983E-09 -1.21077E-09
  -1.25954E-09 -1.30623E-09 -1.35086E-09 -1.39348E-09 -1.43416E-09 -1.47292E-09 -1.50981E-09 -1.54491E-09 -1.57825E-09 -1.60986E-09
  -1.63979E-09 -1.66812E-09 -1.69486E-09 -1.72008E-09 -1.74382E-09 -1.76614E-09 -1.78708E-09 -1.80667E-09 -1.82498E-09 -1.84206E-09
