 LCModel (Version 6.3-1R) Copyright: S.W. Provencher.          Ref.: Magn. Reson. Med. 30:672-679 (1993).                
 onepulse 20x18_ftSpec_smooth_lcm
 26 lines in following concentration table = NCONC+1
    Conc.  %SD   /Cr    Metabolite                                         
 7.17E-11 244%   0.000 Ala                                                 
 4.99E-10  72%   0.000 Asp                                                 
    0.000 999%   0.000 Cr                                                  
 2.60E-09  13%   0.000 GABA                                                
 1.62E-09  18%   0.000 Glc                                                 
    0.000 999%   0.000 Gln                                                 
 4.37E-10  85%   0.000 Glu                                                 
    0.000 999%   0.000 Glyc                                                
    0.000 999%   0.000 GPC                                                 
 9.18E-11 208%   0.000 GSH                                                 
 2.55E-10  78%   0.000 Ins                                                 
    0.000 999%   0.000 Lac                                                 
    0.000 999%   0.000 NAAG                                                
 9.88E-10  16%   0.000 NAA                                                 
 9.78E-11  49%   0.000 PCh                                                 
    0.000 999%   0.000 PCr                                                 
    0.000 999%   0.000 PE                                                  
    0.000 999%   0.000 Scyllo                                              
    0.000 999%   0.000 Ser                                                 
    0.000 999%   0.000 Tau                                                 
 9.78E-11  49%   0.000 GPC+PCh                                             
 9.88E-10  16%   0.000 NAA+NAAG                                            
 2.55E-10  78%   0.000 Ins+Glyc                                            
    0.000 999%   0.000 Cr+PCr                                              
 4.37E-10  85%   0.000 Glu+Gln                                             
   6 lines in following misc. output table
  FWHM = 0.067 ppm    S/N =   5                                            
  Data shift = 0.324 ppm                                                   
  Ph:  44 deg      30.7 deg/ppm                                            
  alphaB,S = 1.6E-01,   7.7E+01                                            
   16 spline knots.   Ns = 5(1)                                            
  ( 5) 2 infls.   ( 3) 1 extrs.                                            
  363 points on ppm-axis = NY
      4.250000     4.238821     4.227641     4.216462     4.205282     4.194103     4.182923     4.171744     4.160564     4.149385
      4.138206     4.127026     4.115847     4.104667     4.093488     4.082308     4.071129     4.059949     4.048770     4.037591
      4.026411     4.015232     4.004052     3.992873     3.981693     3.970514     3.959334     3.948155     3.936975     3.925796
      3.914617     3.903437     3.892258     3.881078     3.869899     3.858719     3.847540     3.836360     3.825181     3.814002
      3.802822     3.791643     3.780463     3.769284     3.758104     3.746925     3.735745     3.724566     3.713387     3.702207
      3.691028     3.679848     3.668669     3.657489     3.646310     3.635130     3.623951     3.612772     3.601592     3.590413
      3.579233     3.568054     3.556874     3.545695     3.534515     3.523336     3.512156     3.500977     3.489798     3.478618
      3.467439     3.456259     3.445080     3.433900     3.422721     3.411541     3.400362     3.389183     3.378003     3.366824
      3.355644     3.344465     3.333285     3.322106     3.310926     3.299747     3.288568     3.277388     3.266209     3.255029
      3.243850     3.232670     3.221491     3.210311     3.199132     3.187953     3.176773     3.165594     3.154414     3.143235
      3.132055     3.120876     3.109696     3.098517     3.087337     3.076158     3.064979     3.053799     3.042620     3.031440
      3.020261     3.009081     2.997902     2.986722     2.975543     2.964364     2.953184     2.942005     2.930825     2.919646
      2.908466     2.897287     2.886107     2.874928     2.863749     2.852569     2.841390     2.830210     2.819031     2.807851
      2.796672     2.785492     2.774313     2.763134     2.751954     2.740775     2.729595     2.718416     2.707236     2.696057
      2.684877     2.673698     2.662519     2.651339     2.640160     2.628980     2.617801     2.606621     2.595442     2.584262
      2.573083     2.561903     2.550724     2.539545     2.528365     2.517186     2.506006     2.494827     2.483647     2.472468
      2.461288     2.450109     2.438930     2.427750     2.416571     2.405391     2.394212     2.383032     2.371853     2.360673
      2.349494     2.338315     2.327135     2.315956     2.304776     2.293597     2.282417     2.271238     2.260058     2.248879
      2.237700     2.226520     2.215341     2.204161     2.192982     2.181802     2.170623     2.159443     2.148264     2.137084
      2.125905     2.114726     2.103546     2.092367     2.081187     2.070008     2.058828     2.047649     2.036469     2.025290
      2.014111     2.002931     1.991752     1.980572     1.969393     1.958213     1.947034     1.935854     1.924675     1.913496
      1.902316     1.891137     1.879957     1.868778     1.857598     1.846419     1.835239     1.824060     1.812881     1.801701
      1.790522     1.779342     1.768163     1.756983     1.745804     1.734624     1.723445     1.712265     1.701086     1.689907
      1.678727     1.667548     1.656368     1.645189     1.634009     1.622830     1.611650     1.600471     1.589292     1.578112
      1.566933     1.555753     1.544574     1.533394     1.522215     1.511035     1.499856     1.488677     1.477497     1.466318
      1.455138     1.443959     1.432779     1.421600     1.410420     1.399241     1.388062     1.376882     1.365703     1.354523
      1.343344     1.332164     1.320985     1.309805     1.298626     1.287446     1.276267     1.265088     1.253908     1.242729
      1.231549     1.220370     1.209190     1.198011     1.186831     1.175652     1.164473     1.153293     1.142114     1.130934
      1.119755     1.108575     1.097396     1.086216     1.075037     1.063858     1.052678     1.041499     1.030319     1.019140
      1.007960     0.996781     0.985601     0.974422     0.963243     0.952063     0.940884     0.929704     0.918525     0.907345
      0.896166     0.884986     0.873807     0.862628     0.851448     0.840269     0.829089     0.817910     0.806730     0.795551
      0.784371     0.773192     0.762012     0.750833     0.739654     0.728474     0.717295     0.706115     0.694936     0.683756
      0.672577     0.661397     0.650218     0.639039     0.627859     0.616680     0.605500     0.594321     0.583141     0.571962
      0.560782     0.549603     0.538424     0.527244     0.516065     0.504885     0.493706     0.482526     0.471347     0.460167
      0.448988     0.437809     0.426629     0.415450     0.404270     0.393091     0.381911     0.370732     0.359552     0.348373
      0.337193     0.326014     0.314835     0.303655     0.292476     0.281296     0.270117     0.258937     0.247758     0.236578
      0.225399     0.214220     0.203040
 NY phased data points follow
  -1.62611E-10  1.64020E-09  5.70099E-09  6.71175E-09  9.08105E-09  7.92912E-09  7.07257E-09  5.72100E-09  5.05685E-09  3.79420E-09
   4.40411E-09  3.98124E-09  4.14923E-09  3.90567E-09  4.96441E-09  4.97519E-09  5.63117E-09  6.47302E-09  7.06418E-09  6.25699E-09
   6.49257E-09  5.70070E-09  6.76389E-09  6.08559E-09  4.94725E-09  5.31363E-09  5.62168E-09  6.68375E-09  7.06494E-09  6.94948E-09
   6.47927E-09  5.67443E-09  5.39273E-09  6.33905E-09  8.19868E-09  9.63920E-09  1.01259E-08  9.55046E-09  8.45394E-09  6.22238E-09
   5.57594E-09  5.25714E-09  5.61290E-09  3.48454E-09  5.16506E-09  4.57429E-09  4.28375E-09  4.14933E-09  4.49721E-09  3.73053E-09
   2.90880E-09  2.87529E-09  3.42895E-09  3.34242E-09  4.37129E-09  4.05386E-09  3.44348E-09  2.73714E-09  3.53659E-09  2.68842E-09
   2.31502E-09  3.58021E-09  4.49184E-09  4.57930E-09  6.02628E-09  8.94570E-09  1.18445E-08  1.23289E-08  1.06345E-08  8.26393E-09
   6.48237E-09  5.52683E-09  5.64971E-09  4.17662E-09  3.37125E-09  2.74183E-09  3.75649E-09  2.24790E-09  2.89624E-09  3.42758E-09
   4.82753E-09  7.65275E-09  1.16546E-08  1.42203E-08  1.30300E-08  1.03232E-08  9.31785E-09  7.66384E-09  7.78187E-09  6.23702E-09
   6.23188E-09  5.94770E-09  5.34752E-09  5.31752E-09  5.53118E-09  4.29828E-09  4.24864E-09  3.35241E-09  4.25687E-09  3.01169E-09
   2.54283E-09  2.71568E-09  3.15593E-09  3.61617E-09  2.93655E-09  4.33480E-09  3.52889E-09  3.69716E-09  3.76519E-09  3.46463E-09
   3.58528E-09  2.24985E-09  2.43773E-09  2.03576E-09  2.66543E-09  2.71757E-09  3.61913E-09  3.40715E-09  4.37879E-09  3.80169E-09
   4.10843E-09  4.11005E-09  4.26571E-09  3.20688E-09  3.54351E-09  2.66502E-09  2.12829E-09  1.98835E-09  2.61550E-09  2.19516E-09
   2.62996E-09  3.26765E-09  3.15026E-09  2.78288E-09  3.13746E-09  3.81614E-09  3.01780E-09  2.98790E-09  2.91574E-09  2.30492E-09
   3.15380E-09  3.69683E-09  4.25100E-09  5.30256E-09  5.17751E-09  3.76102E-09  3.83941E-09  4.45851E-09  5.13277E-09  4.96776E-09
   5.03291E-09  4.52817E-09  4.10413E-09  4.26931E-09  4.73542E-09  4.35206E-09  4.39755E-09  4.22070E-09  4.86429E-09  4.76746E-09
   5.65182E-09  5.80139E-09  6.10523E-09  5.78624E-09  6.33696E-09  6.82672E-09  7.23652E-09  7.70104E-09  7.91562E-09  8.34890E-09
   1.07146E-08  1.22124E-08  1.49256E-08  1.76973E-08  1.81698E-08  1.41171E-08  1.04878E-08  6.83117E-09  5.08935E-09  4.62178E-09
   4.62836E-09  2.75752E-09  3.50102E-09  2.25279E-09  2.29461E-09  1.22764E-09  1.77580E-09  6.15675E-10  1.14477E-09  3.38134E-10
   3.53594E-10 -8.77480E-11 -6.01547E-10 -2.07202E-09 -2.24038E-09 -3.09575E-09 -3.83045E-09 -5.04898E-09 -5.50342E-09 -6.70569E-09
  -7.79672E-09 -8.49862E-09 -9.38129E-09 -1.00001E-08 -1.02946E-08 -1.08478E-08 -1.10930E-08 -1.11096E-08 -1.08818E-08 -1.04912E-08
  -9.77622E-09 -9.60055E-09 -7.72957E-09 -6.74327E-09 -5.93549E-09 -5.11014E-09 -3.47088E-09 -3.31812E-09 -2.98159E-09 -2.19980E-09
  -2.35049E-09 -2.04214E-09 -2.95627E-09 -2.74815E-09 -2.23715E-09 -3.60630E-09 -2.44629E-09 -1.94253E-09 -2.60172E-09 -2.38089E-09
  -2.40308E-09 -2.10828E-09 -2.09360E-09 -2.26009E-09 -2.27452E-09 -3.23248E-09 -2.53939E-09 -2.73922E-09 -2.09267E-09 -1.87713E-09
  -2.55956E-09 -1.22427E-09 -1.85726E-09 -1.78275E-09 -2.03905E-09 -2.74188E-09 -2.18774E-09 -2.14829E-09 -2.16909E-09 -2.37175E-09
  -2.19227E-09 -1.61892E-09 -1.48032E-09 -1.36719E-09 -1.23896E-09 -1.36766E-09 -1.48359E-09 -1.41081E-09 -1.79213E-09 -2.17918E-09
  -2.01335E-09 -1.95692E-09 -2.39725E-09 -3.22992E-09 -2.59245E-09 -2.43049E-09 -1.27862E-09 -1.89120E-09 -1.02303E-09 -1.32238E-09
  -7.33443E-10 -7.82806E-10 -9.14228E-10 -8.69004E-10 -6.50049E-10 -5.21454E-10 -1.11134E-09 -1.67690E-09 -1.52865E-09 -2.05228E-09
  -1.93248E-09 -1.68252E-09 -2.15825E-09 -2.06869E-09 -1.79168E-09 -2.13359E-09 -1.60018E-09 -1.77686E-09 -1.37363E-09 -1.58292E-09
  -1.21204E-09 -1.76004E-09 -1.44678E-09 -1.65039E-09 -1.15887E-09 -1.21428E-09 -1.70305E-09 -1.37655E-09 -9.51947E-10 -1.69377E-09
  -1.55733E-09 -9.10500E-10 -1.28427E-09 -1.47193E-09 -1.27177E-09 -1.33920E-09 -1.05943E-09 -1.26963E-09 -1.21827E-09 -1.39859E-09
  -1.11548E-09 -1.87977E-09 -1.08251E-09 -8.86800E-10 -7.74567E-10 -1.40062E-09 -1.08723E-09 -8.71164E-10 -1.16725E-09 -1.29541E-09
  -6.31574E-10 -1.12566E-09 -1.03892E-09 -9.76484E-10 -1.56897E-09 -5.41366E-10 -8.64344E-10 -1.08016E-09 -7.67444E-10 -1.05115E-09
  -3.01225E-10 -1.11386E-09 -8.61296E-10 -1.31226E-09 -9.61172E-10 -1.31621E-09 -7.52471E-10 -1.35252E-09 -8.50446E-10 -8.75505E-10
  -6.10808E-10 -1.02211E-09 -5.79625E-10 -2.98025E-10 -8.09668E-10 -1.09443E-09 -6.15002E-10 -9.99659E-10 -4.53812E-10 -7.48578E-10
  -7.96566E-10 -6.17130E-10 -6.36229E-10 -2.62226E-10 -5.00750E-10 -3.57037E-10 -7.18933E-10 -6.31780E-10 -6.89044E-10 -6.19151E-10
  -7.62339E-10 -9.07153E-10 -2.43734E-10
 NY points of the fit to the data follow
   3.45388E-09  4.13956E-09  4.92316E-09  5.71182E-09  6.30902E-09  6.55183E-09  6.37724E-09  5.86485E-09  5.25681E-09  4.63233E-09
   4.25505E-09  4.13609E-09  4.19407E-09  4.37501E-09  4.67340E-09  5.02070E-09  5.40239E-09  5.84635E-09  6.32315E-09  6.79821E-09
   7.24210E-09  7.39843E-09  7.08991E-09  6.45160E-09  5.67171E-09  4.98167E-09  4.70006E-09  5.00288E-09  5.66968E-09  6.30283E-09
   6.74796E-09  7.15517E-09  7.40993E-09  7.49410E-09  7.63014E-09  7.94474E-09  8.23306E-09  8.26678E-09  7.97941E-09  7.50068E-09
   6.94982E-09  6.02984E-09  5.04784E-09  4.47099E-09  3.85356E-09  3.23613E-09  2.97531E-09  2.91456E-09  3.01515E-09  3.17235E-09
   3.30452E-09  3.34175E-09  3.30465E-09  3.23999E-09  3.22906E-09  3.31619E-09  3.46113E-09  3.58821E-09  3.60861E-09  3.59188E-09
   3.73863E-09  4.10959E-09  4.68483E-09  5.54156E-09  6.60402E-09  7.54672E-09  8.30313E-09  8.86887E-09  9.15397E-09  9.02756E-09
   8.47195E-09  7.53824E-09  6.46583E-09  5.39285E-09  4.38086E-09  3.83018E-09  3.72146E-09  4.04152E-09  4.70658E-09  5.70207E-09
   6.96458E-09  8.55913E-09  1.03057E-08  1.15888E-08  1.19849E-08  1.14219E-08  1.00371E-08  8.30531E-09  6.85386E-09  6.40526E-09
   6.28082E-09  6.13465E-09  5.76010E-09  5.37843E-09  5.08058E-09  4.60454E-09  4.14853E-09  3.87045E-09  3.60953E-09  3.39286E-09
   3.27111E-09  3.20241E-09  3.17304E-09  3.18602E-09  3.22366E-09  3.27018E-09  3.31222E-09  3.33990E-09  3.34985E-09  3.34116E-09
   3.31575E-09  3.28654E-09  3.26762E-09  3.23667E-09  3.21454E-09  3.22629E-09  3.24973E-09  3.27832E-09  3.30970E-09  3.34272E-09
   3.37669E-09  3.41114E-09  3.44568E-09  3.48006E-09  3.51403E-09  3.54738E-09  3.57994E-09  3.61155E-09  3.64205E-09  3.67131E-09
   3.69918E-09  3.72555E-09  3.75028E-09  3.77326E-09  3.79436E-09  3.81347E-09  3.83048E-09  3.84530E-09  3.85784E-09  3.86798E-09
   3.87562E-09  3.88062E-09  3.88281E-09  3.88204E-09  3.87818E-09  3.87108E-09  3.86061E-09  3.84663E-09  3.82904E-09  3.80773E-09
   3.78264E-09  3.75373E-09  3.72098E-09  3.68442E-09  3.64417E-09  3.60040E-09  3.55347E-09  3.50387E-09  3.45245E-09  3.40051E-09
   3.35018E-09  3.30510E-09  3.27196E-09  3.26456E-09  3.31851E-09  3.56871E-09  4.28600E-09  5.55606E-09  7.26558E-09  9.37297E-09
   1.19413E-08  1.47324E-08  1.70585E-08  1.80157E-08  1.69801E-08  1.39951E-08  9.79905E-09  5.63331E-09  2.72891E-09  1.29988E-09
   6.94597E-10  3.06133E-10  4.28046E-13 -2.64427E-10 -5.05698E-10 -7.31689E-10 -9.46720E-10 -1.15315E-09 -1.35224E-09 -1.54468E-09
  -1.73074E-09 -1.91046E-09 -2.08373E-09 -2.25030E-09 -2.40988E-09 -2.56211E-09 -2.70673E-09 -2.84381E-09 -2.97352E-09 -3.09600E-09
  -3.21135E-09 -3.31971E-09 -3.42116E-09 -3.51582E-09 -3.60378E-09 -3.68513E-09 -3.75995E-09 -3.82833E-09 -3.89035E-09 -3.94609E-09
  -3.99563E-09 -4.03905E-09 -4.07642E-09 -4.10783E-09 -4.13334E-09 -4.15304E-09 -4.16699E-09 -4.17527E-09 -4.17795E-09 -4.17510E-09
  -4.16680E-09 -4.15311E-09 -4.13412E-09 -4.10989E-09 -4.08056E-09 -4.04640E-09 -4.00768E-09 -3.96471E-09 -3.91775E-09 -3.86710E-09
  -3.81304E-09 -3.75586E-09 -3.69583E-09 -3.63325E-09 -3.56839E-09 -3.50154E-09 -3.43299E-09 -3.36301E-09 -3.29189E-09 -3.21992E-09
  -3.14738E-09 -3.07454E-09 -3.00169E-09 -2.92913E-09 -2.85712E-09 -2.78596E-09 -2.71592E-09 -2.64728E-09 -2.58034E-09 -2.51538E-09
  -2.45266E-09 -2.39249E-09 -2.33498E-09 -2.28006E-09 -2.22767E-09 -2.17772E-09 -2.13013E-09 -2.08482E-09 -2.04170E-09 -2.00070E-09
  -1.96175E-09 -1.92475E-09 -1.88963E-09 -1.85630E-09 -1.82469E-09 -1.79472E-09 -1.76629E-09 -1.73936E-09 -1.71382E-09 -1.68959E-09
  -1.66660E-09 -1.64476E-09 -1.62400E-09 -1.60422E-09 -1.58537E-09 -1.56734E-09 -1.55008E-09 -1.53349E-09 -1.51750E-09 -1.50201E-09
  -1.48699E-09 -1.47243E-09 -1.45828E-09 -1.44454E-09 -1.43119E-09 -1.41820E-09 -1.40557E-09 -1.39325E-09 -1.38124E-09 -1.36953E-09
  -1.35807E-09 -1.34687E-09 -1.33589E-09 -1.32511E-09 -1.31453E-09 -1.30410E-09 -1.29383E-09 -1.28368E-09 -1.27365E-09 -1.26369E-09
  -1.25381E-09 -1.24398E-09 -1.23416E-09 -1.22437E-09 -1.21456E-09 -1.20471E-09 -1.19482E-09 -1.18485E-09 -1.17480E-09 -1.16468E-09
  -1.15449E-09 -1.14422E-09 -1.13387E-09 -1.12346E-09 -1.11297E-09 -1.10241E-09 -1.09178E-09 -1.08108E-09 -1.07032E-09 -1.05948E-09
  -1.04859E-09 -1.03762E-09 -1.02659E-09 -1.01550E-09 -1.00434E-09 -9.93126E-10 -9.81848E-10 -9.70508E-10 -9.59110E-10 -9.47658E-10
  -9.36143E-10 -9.24574E-10 -9.12947E-10 -9.01268E-10 -8.89537E-10 -8.77748E-10 -8.65911E-10 -8.54028E-10 -8.42099E-10 -8.30128E-10
  -8.18120E-10 -8.06074E-10 -7.93995E-10 -7.81884E-10 -7.69749E-10 -7.57585E-10 -7.45404E-10 -7.33202E-10 -7.20984E-10 -7.08753E-10
  -6.96510E-10 -6.84261E-10 -6.72006E-10 -6.59750E-10 -6.47495E-10 -6.35244E-10 -6.23000E-10 -6.10762E-10 -5.98538E-10 -5.86331E-10
  -5.74142E-10 -5.61974E-10 -5.49826E-10
 NY background values follow
    -1.375E-09   -1.336E-09   -1.298E-09   -1.259E-09   -1.221E-09   -1.182E-09   -1.144E-09   -1.106E-09   -1.068E-09   -1.030E-09
    -9.928E-10   -9.556E-10   -9.187E-10   -8.821E-10   -8.459E-10   -8.100E-10   -7.745E-10   -7.394E-10   -7.047E-10   -6.705E-10
    -6.368E-10   -6.036E-10   -5.709E-10   -5.388E-10   -5.072E-10   -4.763E-10   -4.460E-10   -4.163E-10   -3.873E-10   -3.590E-10
    -3.314E-10   -3.044E-10   -2.781E-10   -2.523E-10   -2.272E-10   -2.026E-10   -1.786E-10   -1.551E-10   -1.321E-10   -1.096E-10
    -8.760E-11   -6.601E-11   -4.484E-11   -2.408E-11   -3.701E-12    1.632E-11    3.600E-11    5.535E-11    7.442E-11    9.320E-11
     1.117E-10    1.300E-10    1.481E-10    1.660E-10    1.837E-10    2.012E-10    2.186E-10    2.360E-10    2.532E-10    2.705E-10
     2.879E-10    3.053E-10    3.230E-10    3.408E-10    3.589E-10    3.774E-10    3.962E-10    4.155E-10    4.353E-10    4.556E-10
     4.765E-10    4.981E-10    5.204E-10    5.434E-10    5.673E-10    5.920E-10    6.176E-10    6.443E-10    6.719E-10    7.006E-10
     7.305E-10    7.616E-10    7.939E-10    8.275E-10    8.625E-10    8.988E-10    9.365E-10    9.753E-10    1.015E-09    1.057E-09
     1.099E-09    1.142E-09    1.187E-09    1.232E-09    1.278E-09    1.325E-09    1.373E-09    1.421E-09    1.470E-09    1.520E-09
     1.570E-09    1.620E-09    1.671E-09    1.723E-09    1.775E-09    1.827E-09    1.879E-09    1.932E-09    1.984E-09    2.037E-09
     2.089E-09    2.142E-09    2.194E-09    2.246E-09    2.298E-09    2.350E-09    2.401E-09    2.452E-09    2.501E-09    2.550E-09
     2.598E-09    2.646E-09    2.692E-09    2.737E-09    2.780E-09    2.822E-09    2.863E-09    2.902E-09    2.940E-09    2.976E-09
     3.010E-09    3.042E-09    3.072E-09    3.099E-09    3.125E-09    3.148E-09    3.169E-09    3.187E-09    3.202E-09    3.215E-09
     3.225E-09    3.232E-09    3.236E-09    3.236E-09    3.233E-09    3.226E-09    3.215E-09    3.201E-09    3.182E-09    3.159E-09
     3.131E-09    3.098E-09    3.061E-09    3.018E-09    2.970E-09    2.917E-09    2.858E-09    2.793E-09    2.723E-09    2.646E-09
     2.563E-09    2.474E-09    2.378E-09    2.275E-09    2.165E-09    2.048E-09    1.924E-09    1.792E-09    1.653E-09    1.506E-09
     1.353E-09    1.194E-09    1.029E-09    8.588E-10    6.843E-10    5.058E-10    3.238E-10    1.388E-10   -4.853E-11   -2.378E-10
    -4.284E-10   -6.198E-10   -8.115E-10   -1.003E-09   -1.194E-09   -1.383E-09   -1.570E-09   -1.756E-09   -1.938E-09   -2.117E-09
    -2.292E-09   -2.462E-09   -2.627E-09   -2.787E-09   -2.941E-09   -3.088E-09   -3.228E-09   -3.361E-09   -3.488E-09   -3.607E-09
    -3.719E-09   -3.825E-09   -3.924E-09   -4.016E-09   -4.102E-09   -4.182E-09   -4.255E-09   -4.322E-09   -4.382E-09   -4.436E-09
    -4.484E-09   -4.526E-09   -4.563E-09   -4.593E-09   -4.617E-09   -4.636E-09   -4.649E-09   -4.656E-09   -4.658E-09   -4.654E-09
    -4.645E-09   -4.630E-09   -4.610E-09   -4.585E-09   -4.555E-09   -4.520E-09   -4.481E-09   -4.437E-09   -4.389E-09   -4.338E-09
    -4.283E-09   -4.225E-09   -4.165E-09   -4.101E-09   -4.036E-09   -3.968E-09   -3.899E-09   -3.829E-09   -3.757E-09   -3.685E-09
    -3.611E-09   -3.538E-09   -3.465E-09   -3.392E-09   -3.319E-09   -3.247E-09   -3.177E-09   -3.108E-09   -3.040E-09   -2.975E-09
    -2.912E-09   -2.851E-09   -2.793E-09   -2.738E-09   -2.685E-09   -2.634E-09   -2.586E-09   -2.541E-09   -2.497E-09   -2.456E-09
    -2.416E-09   -2.379E-09   -2.343E-09   -2.310E-09   -2.278E-09   -2.247E-09   -2.219E-09   -2.191E-09   -2.165E-09   -2.141E-09
    -2.117E-09   -2.095E-09   -2.074E-09   -2.054E-09   -2.035E-09   -2.016E-09   -1.999E-09   -1.982E-09   -1.965E-09   -1.950E-09
    -1.934E-09   -1.919E-09   -1.905E-09   -1.891E-09   -1.877E-09   -1.864E-09   -1.851E-09   -1.838E-09   -1.826E-09   -1.814E-09
    -1.802E-09   -1.791E-09   -1.779E-09   -1.768E-09   -1.757E-09   -1.747E-09   -1.736E-09   -1.726E-09   -1.715E-09   -1.705E-09
    -1.695E-09   -1.685E-09   -1.675E-09   -1.665E-09   -1.655E-09   -1.644E-09   -1.634E-09   -1.624E-09   -1.614E-09   -1.603E-09
    -1.593E-09   -1.582E-09   -1.572E-09   -1.561E-09   -1.550E-09   -1.540E-09   -1.529E-09   -1.518E-09   -1.507E-09   -1.496E-09
    -1.484E-09   -1.473E-09   -1.462E-09   -1.451E-09   -1.439E-09   -1.428E-09   -1.416E-09   -1.405E-09   -1.393E-09   -1.381E-09
    -1.369E-09   -1.358E-09   -1.346E-09   -1.334E-09   -1.322E-09   -1.310E-09   -1.298E-09   -1.286E-09   -1.273E-09   -1.261E-09
    -1.249E-09   -1.237E-09   -1.224E-09   -1.212E-09   -1.200E-09   -1.187E-09   -1.175E-09   -1.162E-09   -1.150E-09   -1.138E-09
    -1.125E-09   -1.113E-09   -1.100E-09   -1.088E-09   -1.075E-09   -1.063E-09   -1.050E-09   -1.038E-09   -1.025E-09   -1.013E-09
    -1.000E-09   -9.879E-10   -9.755E-10
 Ala      Conc. = 7.17E-11
  -1.33212E-09 -1.28644E-09 -1.24199E-09 -1.19885E-09 -1.15761E-09 -1.11805E-09 -1.08094E-09 -1.04771E-09 -1.01466E-09 -9.81336E-10
  -9.52464E-10 -9.23030E-10 -8.90604E-10 -8.59287E-10 -8.27763E-10 -7.94851E-10 -7.61385E-10 -7.27780E-10 -6.94251E-10 -6.60936E-10
  -6.27930E-10 -5.95299E-10 -5.63107E-10 -5.31391E-10 -5.00190E-10 -4.69553E-10 -4.39502E-10 -4.10066E-10 -3.81283E-10 -3.53166E-10
  -3.25705E-10 -2.98878E-10 -2.72669E-10 -2.47059E-10 -2.22027E-10 -1.97556E-10 -1.73625E-10 -1.50216E-10 -1.27306E-10 -1.04874E-10
  -8.29061E-11 -6.13734E-11 -4.02633E-11 -1.95493E-11  7.82397E-13  2.07613E-11  4.04010E-11  5.97205E-11  7.87507E-11  9.75030E-11
   1.15998E-10  1.34265E-10  1.52316E-10  1.70176E-10  1.87854E-10  2.05395E-10  2.22808E-10  2.40120E-10  2.57387E-10  2.74664E-10
   2.92003E-10  3.09460E-10  3.27088E-10  3.44940E-10  3.63072E-10  3.81536E-10  4.00387E-10  4.19680E-10  4.39468E-10  4.59805E-10
   4.80746E-10  5.02344E-10  5.24656E-10  5.47733E-10  5.71633E-10  5.96408E-10  6.22114E-10  6.48806E-10  6.76539E-10  7.05368E-10
   7.35351E-10  7.66541E-10  7.98997E-10  8.32775E-10  8.67933E-10  9.04477E-10  9.42364E-10  9.81548E-10  1.02199E-09  1.06364E-09
   1.10647E-09  1.15046E-09  1.19559E-09  1.24187E-09  1.28933E-09  1.33808E-09  1.38832E-09  1.44050E-09  1.49578E-09  1.55785E-09
   1.63376E-09  1.71172E-09  1.79619E-09  1.90047E-09  2.01320E-09  2.12237E-09  2.21731E-09  2.29030E-09  2.33961E-09  2.36567E-09
   2.37124E-09  2.36967E-09  2.37544E-09  2.36657E-09  2.36429E-09  2.39409E-09  2.43406E-09  2.47783E-09  2.52316E-09  2.56900E-09
   2.61479E-09  2.66014E-09  2.70481E-09  2.74858E-09  2.79129E-09  2.83278E-09  2.87293E-09  2.91160E-09  2.94869E-09  2.98408E-09
   3.01767E-09  3.04933E-09  3.07898E-09  3.10649E-09  3.13179E-09  3.15475E-09  3.17528E-09  3.19329E-09  3.20866E-09  3.22130E-09
   3.23110E-09  3.23792E-09  3.24158E-09  3.24191E-09  3.23872E-09  3.23185E-09  3.22113E-09  3.20638E-09  3.18744E-09  3.16411E-09
   3.13624E-09  3.10365E-09  3.06618E-09  3.02364E-09  2.97587E-09  2.92270E-09  2.86396E-09  2.79948E-09  2.72911E-09  2.65267E-09
   2.57002E-09  2.48102E-09  2.38556E-09  2.28355E-09  2.17505E-09  2.06050E-09  1.94228E-09  1.82650E-09  1.70638E-09  1.58254E-09
   1.45834E-09  1.33345E-09  1.20125E-09  1.05048E-09  8.71506E-10  6.63701E-10  4.35384E-10  2.00263E-10 -2.40251E-11 -2.23509E-10
  -4.18036E-10 -6.11458E-10 -8.04355E-10 -9.96593E-10 -1.18780E-09 -1.37757E-09 -1.56540E-09 -1.75080E-09 -1.93325E-09 -2.11224E-09
  -2.28724E-09 -2.45775E-09 -2.62322E-09 -2.78312E-09 -2.93693E-09 -3.08413E-09 -3.22431E-09 -3.35746E-09 -3.48365E-09 -3.60296E-09
  -3.71545E-09 -3.82118E-09 -3.92025E-09 -4.01270E-09 -4.09862E-09 -4.17806E-09 -4.25112E-09 -4.31784E-09 -4.37830E-09 -4.43257E-09
  -4.48073E-09 -4.52284E-09 -4.55896E-09 -4.58918E-09 -4.61355E-09 -4.63216E-09 -4.64507E-09 -4.65234E-09 -4.65406E-09 -4.65028E-09
  -4.64108E-09 -4.62652E-09 -4.60669E-09 -4.58164E-09 -4.55152E-09 -4.51659E-09 -4.47713E-09 -4.43342E-09 -4.38576E-09 -4.33442E-09
  -4.27969E-09 -4.22184E-09 -4.16118E-09 -4.09796E-09 -4.03249E-09 -3.96504E-09 -3.89589E-09 -3.82534E-09 -3.75364E-09 -3.68111E-09
  -3.60802E-09 -3.53464E-09 -3.46127E-09 -3.38819E-09 -3.31567E-09 -3.24400E-09 -3.17347E-09 -3.10434E-09 -3.03692E-09 -2.97149E-09
  -2.90830E-09 -2.84767E-09 -2.78971E-09 -2.73435E-09 -2.68151E-09 -2.63113E-09 -2.58311E-09 -2.53737E-09 -2.49384E-09 -2.45243E-09
  -2.41307E-09 -2.37566E-09 -2.34014E-09 -2.30642E-09 -2.27443E-09 -2.24407E-09 -2.21526E-09 -2.18795E-09 -2.16204E-09 -2.13745E-09
  -2.11409E-09 -2.09189E-09 -2.07077E-09 -2.05064E-09 -2.03144E-09 -2.01307E-09 -1.99546E-09 -1.97853E-09 -1.96220E-09 -1.94638E-09
  -1.93103E-09 -1.91614E-09 -1.90167E-09 -1.88760E-09 -1.87394E-09 -1.86063E-09 -1.84768E-09 -1.83506E-09 -1.82274E-09 -1.81071E-09
  -1.79896E-09 -1.78745E-09 -1.77617E-09 -1.76510E-09 -1.75422E-09 -1.74350E-09 -1.73294E-09 -1.72250E-09 -1.71218E-09 -1.70194E-09
  -1.69178E-09 -1.68166E-09 -1.67157E-09 -1.66149E-09 -1.65140E-09 -1.64129E-09 -1.63112E-09 -1.62088E-09 -1.61056E-09 -1.60018E-09
  -1.58971E-09 -1.57918E-09 -1.56857E-09 -1.55789E-09 -1.54715E-09 -1.53633E-09 -1.52544E-09 -1.51449E-09 -1.50346E-09 -1.49238E-09
  -1.48122E-09 -1.47001E-09 -1.45872E-09 -1.44738E-09 -1.43598E-09 -1.42451E-09 -1.41299E-09 -1.40140E-09 -1.38976E-09 -1.37806E-09
  -1.36630E-09 -1.35449E-09 -1.34262E-09 -1.33070E-09 -1.31873E-09 -1.30670E-09 -1.29462E-09 -1.28250E-09 -1.27033E-09 -1.25812E-09
  -1.24587E-09 -1.23359E-09 -1.22128E-09 -1.20893E-09 -1.19656E-09 -1.18416E-09 -1.17174E-09 -1.15931E-09 -1.14685E-09 -1.13439E-09
  -1.12191E-09 -1.10943E-09 -1.09694E-09 -1.08445E-09 -1.07196E-09 -1.05948E-09 -1.04700E-09 -1.03453E-09 -1.02207E-09 -1.00963E-09
  -9.97210E-10 -9.84810E-10 -9.72428E-10
 Asp      Conc. = 4.99E-10
  -7.45094E-10 -7.57513E-10 -7.77519E-10 -8.13277E-10 -8.57953E-10 -9.13602E-10 -9.53048E-10 -9.75815E-10 -9.69250E-10 -9.50452E-10
  -9.25354E-10 -8.96501E-10 -8.65315E-10 -8.32768E-10 -7.99743E-10 -7.66530E-10 -7.33178E-10 -6.99796E-10 -6.66474E-10 -6.33286E-10
  -6.00296E-10 -5.67551E-10 -5.35096E-10 -5.02950E-10 -4.71131E-10 -4.39663E-10 -4.08530E-10 -3.77716E-10 -3.47192E-10 -3.16886E-10
  -2.86660E-10 -2.56312E-10 -2.25547E-10 -1.93893E-10 -1.60516E-10 -1.23667E-10 -7.90018E-11 -2.98804E-11  2.81970E-11  8.91276E-11
   1.51473E-10  2.13278E-10  2.71398E-10  3.26200E-10  3.71552E-10  4.28936E-10  4.92507E-10  5.83886E-10  7.35773E-10  9.12278E-10
   1.06598E-09  1.14000E-09  1.11825E-09  1.02053E-09  8.95333E-10  7.95780E-10  7.24593E-10  6.96263E-10  6.41558E-10  5.75387E-10
   5.51211E-10  5.54734E-10  5.65109E-10  5.80096E-10  5.86789E-10  5.74083E-10  5.51737E-10  5.45448E-10  5.48033E-10  5.55809E-10
   5.67092E-10  5.80996E-10  5.97018E-10  6.14849E-10  6.34300E-10  6.55252E-10  6.77634E-10  7.01405E-10  7.26548E-10  7.53058E-10
   7.80948E-10  8.10233E-10  8.40943E-10  8.73102E-10  9.06748E-10  9.41864E-10  9.78385E-10  1.01625E-09  1.05538E-09  1.09573E-09
   1.13723E-09  1.17982E-09  1.22344E-09  1.26803E-09  1.31353E-09  1.35989E-09  1.40704E-09  1.45492E-09  1.50349E-09  1.55269E-09
   1.60245E-09  1.65272E-09  1.70345E-09  1.75458E-09  1.80605E-09  1.85781E-09  1.90980E-09  1.96197E-09  2.01425E-09  2.06661E-09
   2.11898E-09  2.17130E-09  2.22351E-09  2.27555E-09  2.32731E-09  2.37869E-09  2.42959E-09  2.47991E-09  2.52956E-09  2.57844E-09
   2.62645E-09  2.67348E-09  2.71945E-09  2.76425E-09  2.80779E-09  2.84997E-09  2.89068E-09  2.92984E-09  2.96734E-09  3.00309E-09
   3.03698E-09  3.06892E-09  3.09882E-09  3.12656E-09  3.15207E-09  3.17523E-09  3.19596E-09  3.21415E-09  3.22971E-09  3.24254E-09
   3.25253E-09  3.25954E-09  3.26340E-09  3.26394E-09  3.26098E-09  3.25436E-09  3.24391E-09  3.22946E-09  3.21083E-09  3.18787E-09
   3.16040E-09  3.12827E-09  3.09131E-09  3.04937E-09  3.00229E-09  2.94992E-09  2.89214E-09  2.82880E-09  2.75981E-09  2.68508E-09
   2.60459E-09  2.51838E-09  2.42667E-09  2.32994E-09  2.22946E-09  2.12875E-09  2.04172E-09  2.01766E-09  2.01101E-09  2.01942E-09
   2.06366E-09  2.14205E-09  2.20962E-09  2.18600E-09  1.99666E-09  1.62734E-09  1.12815E-09  5.88446E-10  1.25591E-10 -1.46747E-10
  -3.66788E-10 -5.72543E-10 -7.72465E-10 -9.69115E-10 -1.16328E-09 -1.35512E-09 -1.54446E-09 -1.73100E-09 -1.91431E-09 -2.09397E-09
  -2.26951E-09 -2.44045E-09 -2.60627E-09 -2.76645E-09 -2.92050E-09 -3.06791E-09 -3.20825E-09 -3.34155E-09 -3.46786E-09 -3.58727E-09
  -3.69985E-09 -3.80567E-09 -3.90480E-09 -3.99731E-09 -4.08329E-09 -4.16278E-09 -4.23588E-09 -4.30264E-09 -4.36314E-09 -4.41744E-09
  -4.46563E-09 -4.50776E-09 -4.54391E-09 -4.57415E-09 -4.59855E-09 -4.61717E-09 -4.63010E-09 -4.63739E-09 -4.63912E-09 -4.63535E-09
  -4.62617E-09 -4.61163E-09 -4.59180E-09 -4.56677E-09 -4.53666E-09 -4.50174E-09 -4.46229E-09 -4.41859E-09 -4.37094E-09 -4.31961E-09
