 LCModel (Version 6.3-1R) Copyright: S.W. Provencher.          Ref.: Magn. Reson. Med. 30:672-679 (1993).                
 onepulse 20x14_ftSpec_smooth_lcm
 26 lines in following concentration table = NCONC+1
    Conc.  %SD   /Cr    Metabolite                                         
 1.57E-10 110%   0.000 Ala                                                 
 6.12E-10  55%   0.000 Asp                                                 
    0.000 999%   0.000 Cr                                                  
 3.36E-09   8%   0.000 GABA                                                
 1.19E-09  41%   0.000 Glc                                                 
    0.000 999%   0.000 Gln                                                 
    0.000 999%   0.000 Glu                                                 
    0.000 999%   0.000 Glyc                                                
    0.000 999%   0.000 GPC                                                 
    0.000 999%   0.000 GSH                                                 
 1.21E-10 167%   0.000 Ins                                                 
    0.000 999%   0.000 Lac                                                 
    0.000 999%   0.000 NAAG                                                
 1.20E-09  11%   0.000 NAA                                                 
 9.84E-11  84%   0.000 PCh                                                 
    0.000 999%   0.000 PCr                                                 
    0.000 999%   0.000 PE                                                  
 2.36E-11 570%   0.000 Scyllo                                              
    0.000 999%   0.000 Ser                                                 
 1.30E-11 999%   0.000 Tau                                                 
 9.84E-11  84%   0.000 GPC+PCh                                             
 1.20E-09  11%   0.000 NAA+NAAG                                            
 1.21E-10 167%   0.000 Ins+Glyc                                            
    0.000 999%   0.000 Cr+PCr                                              
    0.000 999%   0.000 Glu+Gln                                             
   6 lines in following misc. output table
  FWHM = 0.067 ppm    S/N =   5                                            
  Data shift = 0.347 ppm                                                   
  Ph:  87 deg      37.6 deg/ppm                                            
  alphaB,S = 1.7E-01,   7.8E+01                                            
   16 spline knots.   Ns = 5(1)                                            
  ( 7) 2 infls.   ( 3) 1 extrs.                                            
  363 points on ppm-axis = NY
      4.250000     4.238821     4.227641     4.216462     4.205282     4.194103     4.182923     4.171744     4.160564     4.149385
      4.138206     4.127026     4.115847     4.104667     4.093488     4.082308     4.071129     4.059949     4.048770     4.037591
      4.026411     4.015232     4.004052     3.992873     3.981693     3.970514     3.959334     3.948155     3.936975     3.925796
      3.914617     3.903437     3.892258     3.881078     3.869899     3.858719     3.847540     3.836360     3.825181     3.814002
      3.802822     3.791643     3.780463     3.769284     3.758104     3.746925     3.735745     3.724566     3.713387     3.702207
      3.691028     3.679848     3.668669     3.657489     3.646310     3.635130     3.623951     3.612772     3.601592     3.590413
      3.579233     3.568054     3.556874     3.545695     3.534515     3.523336     3.512156     3.500977     3.489798     3.478618
      3.467439     3.456259     3.445080     3.433900     3.422721     3.411541     3.400362     3.389183     3.378003     3.366824
      3.355644     3.344465     3.333285     3.322106     3.310926     3.299747     3.288568     3.277388     3.266209     3.255029
      3.243850     3.232670     3.221491     3.210311     3.199132     3.187953     3.176773     3.165594     3.154414     3.143235
      3.132055     3.120876     3.109696     3.098517     3.087337     3.076158     3.064979     3.053799     3.042620     3.031440
      3.020261     3.009081     2.997902     2.986722     2.975543     2.964364     2.953184     2.942005     2.930825     2.919646
      2.908466     2.897287     2.886107     2.874928     2.863749     2.852569     2.841390     2.830210     2.819031     2.807851
      2.796672     2.785492     2.774313     2.763134     2.751954     2.740775     2.729595     2.718416     2.707236     2.696057
      2.684877     2.673698     2.662519     2.651339     2.640160     2.628980     2.617801     2.606621     2.595442     2.584262
      2.573083     2.561903     2.550724     2.539545     2.528365     2.517186     2.506006     2.494827     2.483647     2.472468
      2.461288     2.450109     2.438930     2.427750     2.416571     2.405391     2.394212     2.383032     2.371853     2.360673
      2.349494     2.338315     2.327135     2.315956     2.304776     2.293597     2.282417     2.271238     2.260058     2.248879
      2.237700     2.226520     2.215341     2.204161     2.192982     2.181802     2.170623     2.159443     2.148264     2.137084
      2.125905     2.114726     2.103546     2.092367     2.081187     2.070008     2.058828     2.047649     2.036469     2.025290
      2.014111     2.002931     1.991752     1.980572     1.969393     1.958213     1.947034     1.935854     1.924675     1.913496
      1.902316     1.891137     1.879957     1.868778     1.857598     1.846419     1.835239     1.824060     1.812881     1.801701
      1.790522     1.779342     1.768163     1.756983     1.745804     1.734624     1.723445     1.712265     1.701086     1.689907
      1.678727     1.667548     1.656368     1.645189     1.634009     1.622830     1.611650     1.600471     1.589292     1.578112
      1.566933     1.555753     1.544574     1.533394     1.522215     1.511035     1.499856     1.488677     1.477497     1.466318
      1.455138     1.443959     1.432779     1.421600     1.410420     1.399241     1.388062     1.376882     1.365703     1.354523
      1.343344     1.332164     1.320985     1.309805     1.298626     1.287446     1.276267     1.265088     1.253908     1.242729
      1.231549     1.220370     1.209190     1.198011     1.186831     1.175652     1.164473     1.153293     1.142114     1.130934
      1.119755     1.108575     1.097396     1.086216     1.075037     1.063858     1.052678     1.041499     1.030319     1.019140
      1.007960     0.996781     0.985601     0.974422     0.963243     0.952063     0.940884     0.929704     0.918525     0.907345
      0.896166     0.884986     0.873807     0.862628     0.851448     0.840269     0.829089     0.817910     0.806730     0.795551
      0.784371     0.773192     0.762012     0.750833     0.739654     0.728474     0.717295     0.706115     0.694936     0.683756
      0.672577     0.661397     0.650218     0.639039     0.627859     0.616680     0.605500     0.594321     0.583141     0.571962
      0.560782     0.549603     0.538424     0.527244     0.516065     0.504885     0.493706     0.482526     0.471347     0.460167
      0.448988     0.437809     0.426629     0.415450     0.404270     0.393091     0.381911     0.370732     0.359552     0.348373
      0.337193     0.326014     0.314835     0.303655     0.292476     0.281296     0.270117     0.258937     0.247758     0.236578
      0.225399     0.214220     0.203040
 NY phased data points follow
  -1.01389E-10  3.04791E-09  5.09275E-09  5.38920E-09  4.42274E-09  3.66661E-09  3.15812E-09  3.03690E-09  2.16458E-09  2.10759E-09
   2.49280E-09  2.36393E-09  2.54681E-09  3.25714E-09  3.05212E-09  4.36134E-09  5.44232E-09  5.27830E-09  4.78445E-09  4.97199E-09
   5.02509E-09  4.87167E-09  3.94391E-09  4.17378E-09  4.38436E-09  5.12797E-09  5.82321E-09  6.46787E-09  5.51692E-09  4.86317E-09
   5.04139E-09  5.14955E-09  7.70708E-09  9.38469E-09  1.05146E-08  1.04890E-08  9.84100E-09  8.31460E-09  7.14103E-09  7.05667E-09
   6.79590E-09  6.43719E-09  5.59035E-09  6.20001E-09  5.85717E-09  5.52777E-09  4.82757E-09  4.12376E-09  3.62599E-09  3.48436E-09
   3.88440E-09  4.20701E-09  3.37322E-09  4.42282E-09  4.14818E-09  3.09266E-09  2.48128E-09  2.26532E-09  1.88482E-09  1.83190E-09
   2.41874E-09  3.08739E-09  3.95749E-09  7.26134E-09  1.16093E-08  1.33042E-08  1.24106E-08  1.05284E-08  8.92180E-09  7.63625E-09
   6.82379E-09  6.11782E-09  5.30677E-09  3.97166E-09  3.41541E-09  3.50447E-09  2.21953E-09  2.83177E-09  3.71195E-09  5.17976E-09
   9.58638E-09  1.40647E-08  1.42801E-08  1.26642E-08  1.12767E-08  1.00736E-08  9.57138E-09  9.68573E-09  8.87111E-09  8.32260E-09
   8.30903E-09  7.69585E-09  7.13908E-09  6.88583E-09  6.53628E-09  5.48948E-09  5.69262E-09  5.09717E-09  4.65648E-09  4.64697E-09
   4.58497E-09  3.64973E-09  4.54543E-09  4.88404E-09  4.82668E-09  4.33192E-09  4.66958E-09  4.13376E-09  3.98380E-09  4.00402E-09
   2.57794E-09  2.71764E-09  1.93859E-09  2.74937E-09  2.88191E-09  3.73046E-09  3.43399E-09  3.64333E-09  4.32902E-09  3.90417E-09
   4.28172E-09  3.98060E-09  3.83648E-09  3.16423E-09  2.30074E-09  2.29643E-09  2.21438E-09  1.98252E-09  1.39163E-09  2.63282E-09
   2.19122E-09  2.24490E-09  2.71500E-09  2.19891E-09  2.79263E-09  2.77043E-09  2.11958E-09  2.06481E-09  1.85259E-09  2.91621E-09
   3.81698E-09  4.84507E-09  4.83541E-09  3.76779E-09  3.90242E-09  3.65628E-09  4.87254E-09  3.95803E-09  5.24198E-09  3.76293E-09
   3.99449E-09  3.61477E-09  3.38870E-09  3.30157E-09  2.97287E-09  3.17522E-09  3.11897E-09  3.14331E-09  3.51803E-09  3.15520E-09
   3.64879E-09  3.91449E-09  3.98900E-09  4.16404E-09  3.81711E-09  4.23838E-09  4.80577E-09  5.14473E-09  6.93184E-09  7.58721E-09
   1.03222E-08  1.53591E-08  1.79644E-08  1.63845E-08  1.21450E-08  9.67355E-09  8.12327E-09  6.84924E-09  5.23243E-09  4.21470E-09
   3.85069E-09  2.99295E-09  2.30662E-09  1.85725E-09  9.05239E-10  1.85118E-10 -1.18136E-10 -5.29975E-10 -1.90997E-09 -2.81299E-09
  -2.69041E-09 -3.55455E-09 -4.21826E-09 -4.85895E-09 -6.53820E-09 -7.51113E-09 -7.33852E-09 -8.05691E-09 -9.47268E-09 -9.50629E-09
  -9.58618E-09 -9.80618E-09 -9.27915E-09 -9.10740E-09 -8.21423E-09 -7.46572E-09 -7.00997E-09 -6.41292E-09 -5.37209E-09 -4.14836E-09
  -2.98020E-09 -3.34522E-09 -1.99435E-09 -1.66398E-09 -1.71584E-09 -1.07560E-09 -1.43771E-09 -7.51566E-10 -1.64639E-09 -1.40982E-09
  -1.93551E-09 -1.77125E-09 -1.16244E-09 -1.46162E-09 -1.18392E-09 -7.94874E-10 -1.23319E-09 -1.59539E-09 -9.05161E-10 -1.12526E-09
  -1.34974E-09 -1.33728E-09 -1.59277E-09 -1.38979E-09 -1.51368E-09 -1.43923E-09 -9.77243E-10 -6.66037E-10 -1.16524E-09 -7.76019E-10
  -1.34195E-09 -7.20550E-10 -1.09927E-09 -1.48010E-09 -1.58943E-09 -7.11305E-10 -1.58849E-09 -1.38768E-09 -5.30306E-10 -8.72149E-10
  -7.00673E-10 -1.48330E-11 -3.72341E-10 -5.87360E-11 -4.12805E-10 -6.02070E-10 -9.31614E-10 -1.36827E-09 -1.38250E-09 -1.39199E-09
  -1.53527E-09 -1.61664E-09 -1.74490E-09 -1.92938E-09 -1.02015E-09 -1.08745E-09 -5.35080E-10 -1.25051E-09 -4.82401E-11  9.10758E-13
   7.67401E-10  4.16472E-10  5.32858E-10  4.92377E-10  1.72639E-10 -1.37307E-10 -1.51201E-10 -6.71854E-11 -8.21165E-10 -9.35648E-10
  -9.22756E-10 -9.28108E-10 -1.48626E-09 -1.22591E-09 -1.38103E-09 -1.10072E-09 -1.22681E-09 -1.45003E-09 -1.22439E-09 -3.55385E-10
  -1.20147E-09 -1.17774E-09 -8.94858E-10 -6.81596E-10 -5.34456E-10 -1.01922E-09 -7.30403E-10 -8.27055E-10 -9.84610E-10 -5.90141E-10
  -4.45992E-10 -6.66116E-10 -6.35458E-10 -3.25381E-10 -7.81649E-10 -2.81067E-10 -4.39508E-10 -1.10936E-10 -2.21724E-10 -6.22266E-10
   2.48994E-10 -6.73230E-10 -5.13174E-10  2.25831E-10 -8.11121E-10 -1.82823E-10  6.84884E-10  1.72085E-10 -4.21287E-10  3.04260E-12
  -4.28558E-12  1.17640E-10 -4.21350E-11 -2.31111E-10 -8.68914E-11  7.14242E-10  2.10726E-10  3.73595E-10  3.66484E-10 -4.06694E-11
   3.20648E-10 -1.54571E-10  2.20947E-10  4.07490E-10 -3.30226E-11  2.48304E-10  1.79111E-10  3.52418E-10 -2.23550E-10  1.01176E-09
   4.91096E-10  1.19282E-10  3.52394E-10  7.03015E-10  6.87743E-10 -4.39682E-10  4.73923E-10  4.84080E-10  6.39609E-10  4.76532E-10
   4.24656E-10  5.88438E-10  9.11267E-10  5.94702E-10  3.22208E-10  9.07025E-10  7.39268E-10  7.89503E-10  8.04680E-10  5.81764E-10
   2.87033E-11  3.87578E-10  6.08598E-10
 NY points of the fit to the data follow
   3.12337E-09  3.49766E-09  3.76795E-09  3.88950E-09  3.81557E-09  3.58105E-09  3.25514E-09  2.93752E-09  2.71799E-09  2.58151E-09
   2.58131E-09  2.66442E-09  2.80542E-09  3.01895E-09  3.33291E-09  3.74244E-09  4.24162E-09  4.78740E-09  5.24378E-09  5.47540E-09
   5.45732E-09  5.18273E-09  4.75637E-09  4.41027E-09  4.23069E-09  4.23786E-09  4.49577E-09  4.95372E-09  5.45735E-09  5.97686E-09
   6.35164E-09  6.76362E-09  7.46611E-09  8.09921E-09  8.52900E-09  9.05669E-09  9.48879E-09  9.49400E-09  9.02995E-09  8.27386E-09
   7.43015E-09  6.56122E-09  5.40045E-09  4.41420E-09  3.98651E-09  3.66499E-09  3.41676E-09  3.43102E-09  3.52257E-09  3.58196E-09
   3.60445E-09  3.61481E-09  3.66948E-09  3.72888E-09  3.75384E-09  3.75340E-09  3.73600E-09  3.73144E-09  3.73476E-09  3.81671E-09
   4.09648E-09  4.65686E-09  5.39528E-09  6.20468E-09  7.32400E-09  8.45924E-09  9.27376E-09  9.82001E-09  1.00847E-08  9.88668E-09
   9.20287E-09  8.15668E-09  7.02502E-09  6.07911E-09  5.14596E-09  4.27694E-09  4.10759E-09  4.77903E-09  5.90764E-09  7.58808E-09
   9.59086E-09  1.13693E-08  1.24817E-08  1.26588E-08  1.19601E-08  1.09261E-08  9.88610E-09  8.78088E-09  7.77510E-09  7.50765E-09
   7.41594E-09  7.30823E-09  7.00306E-09  6.45405E-09  5.99875E-09  5.59548E-09  5.03944E-09  4.59771E-09  4.32411E-09  4.08692E-09
   3.95087E-09  3.90127E-09  3.90873E-09  3.97230E-09  4.04568E-09  4.09298E-09  4.10848E-09  4.09478E-09  4.04198E-09  3.94020E-09
   3.80361E-09  3.67465E-09  3.58909E-09  3.49699E-09  3.41566E-09  3.38501E-09  3.37094E-09  3.36364E-09  3.35960E-09  3.35714E-09
   3.35534E-09  3.35360E-09  3.35148E-09  3.34866E-09  3.34490E-09  3.34000E-09  3.33379E-09  3.32613E-09  3.31690E-09  3.30600E-09
   3.29330E-09  3.27871E-09  3.26215E-09  3.24351E-09  3.22274E-09  3.19974E-09  3.17446E-09  3.14683E-09  3.11677E-09  3.08422E-09
   3.04912E-09  3.01144E-09  2.97116E-09  2.92826E-09  2.88274E-09  2.83458E-09  2.78379E-09  2.73038E-09  2.67435E-09  2.61576E-09
   2.55466E-09  2.49112E-09  2.42527E-09  2.35726E-09  2.28731E-09  2.21574E-09  2.14297E-09  2.06966E-09  1.99673E-09  1.92559E-09
   1.85849E-09  1.79911E-09  1.75405E-09  1.73609E-09  1.77434E-09  1.95341E-09  2.64634E-09  4.42730E-09  7.02003E-09  1.01401E-08
   1.33877E-08  1.59171E-08  1.67936E-08  1.57412E-08  1.32974E-08  1.02247E-08  6.96681E-09  3.78167E-09  1.35440E-09  3.51145E-10
  -1.25269E-10 -4.42784E-10 -6.90531E-10 -9.00282E-10 -1.08626E-09 -1.25576E-09 -1.41281E-09 -1.55975E-09 -1.69796E-09 -1.82825E-09
  -1.95110E-09 -2.06673E-09 -2.17520E-09 -2.27646E-09 -2.37038E-09 -2.45680E-09 -2.53561E-09 -2.60704E-09 -2.67139E-09 -2.72893E-09
  -2.77992E-09 -2.82461E-09 -2.86323E-09 -2.89602E-09 -2.92320E-09 -2.94499E-09 -2.96161E-09 -2.97326E-09 -2.98016E-09 -2.98252E-09
  -2.98053E-09 -2.97441E-09 -2.96435E-09 -2.95056E-09 -2.93323E-09 -2.91257E-09 -2.88877E-09 -2.86202E-09 -2.83254E-09 -2.80050E-09
  -2.76612E-09 -2.72957E-09 -2.69106E-09 -2.65079E-09 -2.60892E-09 -2.56558E-09 -2.52089E-09 -2.47496E-09 -2.42792E-09 -2.37988E-09
  -2.33096E-09 -2.28129E-09 -2.23097E-09 -2.18013E-09 -2.12888E-09 -2.07734E-09 -2.02563E-09 -1.97388E-09 -1.92217E-09 -1.87066E-09
  -1.81944E-09 -1.76864E-09 -1.71837E-09 -1.66876E-09 -1.61991E-09 -1.57194E-09 -1.52498E-09 -1.47913E-09 -1.43453E-09 -1.39128E-09
  -1.34948E-09 -1.30929E-09 -1.27072E-09 -1.23373E-09 -1.19829E-09 -1.16433E-09 -1.13180E-09 -1.10067E-09 -1.07086E-09 -1.04233E-09
  -1.01504E-09 -9.88916E-10 -9.63930E-10 -9.40017E-10 -9.17135E-10 -8.95228E-10 -8.74234E-10 -8.54127E-10 -8.34842E-10 -8.16323E-10
  -7.98521E-10 -7.81394E-10 -7.64879E-10 -7.48930E-10 -7.33504E-10 -7.18530E-10 -7.03980E-10 -6.89788E-10 -6.75911E-10 -6.62289E-10
  -6.48893E-10 -6.35702E-10 -6.22691E-10 -6.09838E-10 -5.97126E-10 -5.84528E-10 -5.72027E-10 -5.59598E-10 -5.47218E-10 -5.34872E-10
  -5.22532E-10 -5.10178E-10 -4.97790E-10 -4.85344E-10 -4.72821E-10 -4.60196E-10 -4.47451E-10 -4.34562E-10 -4.21512E-10 -4.08268E-10
  -3.94822E-10 -3.81143E-10 -3.67212E-10 -3.53012E-10 -3.38516E-10 -3.23702E-10 -3.08553E-10 -2.93043E-10 -2.77180E-10 -2.60981E-10
  -2.44463E-10 -2.27644E-10 -2.10543E-10 -1.93174E-10 -1.75557E-10 -1.57710E-10 -1.39649E-10 -1.21392E-10 -1.02958E-10 -8.43616E-11
  -6.56251E-11 -4.67604E-11 -2.77876E-11 -8.72763E-12  1.04084E-11  2.95960E-11  4.88226E-11  6.80704E-11  8.73196E-11  1.06551E-10
   1.25754E-10  1.44904E-10  1.63988E-10  1.82986E-10  2.01879E-10  2.20657E-10  2.39315E-10  2.57857E-10  2.76289E-10  2.94616E-10
   3.12841E-10  3.30970E-10  3.49008E-10  3.66958E-10  3.84823E-10  4.02612E-10  4.20325E-10  4.37970E-10  4.55548E-10  4.73067E-10
   4.90532E-10  5.07943E-10  5.25308E-10  5.42631E-10  5.59916E-10  5.77167E-10  5.94390E-10  6.11589E-10  6.28769E-10  6.45932E-10
   6.63085E-10  6.80231E-10  6.97378E-10
 NY background values follow
    -1.768E-09   -1.725E-09   -1.681E-09   -1.638E-09   -1.595E-09   -1.552E-09   -1.509E-09   -1.466E-09   -1.423E-09   -1.381E-09
    -1.338E-09   -1.295E-09   -1.253E-09   -1.211E-09   -1.169E-09   -1.127E-09   -1.085E-09   -1.044E-09   -1.003E-09   -9.619E-10
    -9.212E-10   -8.809E-10   -8.409E-10   -8.013E-10   -7.620E-10   -7.230E-10   -6.845E-10   -6.463E-10   -6.086E-10   -5.713E-10
    -5.344E-10   -4.978E-10   -4.616E-10   -4.258E-10   -3.902E-10   -3.549E-10   -3.198E-10   -2.849E-10   -2.502E-10   -2.157E-10
    -1.812E-10   -1.469E-10   -1.127E-10   -7.844E-11   -4.424E-11   -1.002E-11    2.424E-11    5.857E-11    9.301E-11    1.276E-10
     1.623E-10    1.972E-10    2.323E-10    2.676E-10    3.032E-10    3.391E-10    3.753E-10    4.119E-10    4.488E-10    4.859E-10
     5.234E-10    5.612E-10    5.992E-10    6.375E-10    6.761E-10    7.148E-10    7.538E-10    7.930E-10    8.324E-10    8.720E-10
     9.117E-10    9.516E-10    9.916E-10    1.032E-09    1.072E-09    1.112E-09    1.153E-09    1.193E-09    1.234E-09    1.275E-09
     1.315E-09    1.356E-09    1.397E-09    1.437E-09    1.478E-09    1.519E-09    1.559E-09    1.600E-09    1.640E-09    1.680E-09
     1.720E-09    1.759E-09    1.798E-09    1.837E-09    1.875E-09    1.913E-09    1.951E-09    1.987E-09    2.023E-09    2.059E-09
     2.094E-09    2.128E-09    2.161E-09    2.194E-09    2.226E-09    2.256E-09    2.286E-09    2.315E-09    2.343E-09    2.370E-09
     2.395E-09    2.420E-09    2.443E-09    2.465E-09    2.486E-09    2.505E-09    2.523E-09    2.540E-09    2.555E-09    2.568E-09
     2.580E-09    2.590E-09    2.598E-09    2.604E-09    2.609E-09    2.611E-09    2.612E-09    2.610E-09    2.607E-09    2.601E-09
     2.593E-09    2.583E-09    2.570E-09    2.555E-09    2.538E-09    2.518E-09    2.495E-09    2.470E-09    2.442E-09    2.411E-09
     2.378E-09    2.341E-09    2.302E-09    2.260E-09    2.215E-09    2.167E-09    2.116E-09    2.062E-09    2.005E-09    1.945E-09
     1.882E-09    1.816E-09    1.746E-09    1.674E-09    1.598E-09    1.519E-09    1.436E-09    1.351E-09    1.262E-09    1.169E-09
     1.073E-09    9.742E-10    8.716E-10    7.654E-10    6.558E-10    5.426E-10    4.259E-10    3.056E-10    1.817E-10    5.454E-11
    -7.552E-11   -2.081E-10   -3.428E-10   -4.793E-10   -6.172E-10   -7.560E-10   -8.955E-10   -1.035E-09   -1.175E-09   -1.314E-09
    -1.452E-09   -1.589E-09   -1.724E-09   -1.858E-09   -1.989E-09   -2.117E-09   -2.242E-09   -2.363E-09   -2.480E-09   -2.594E-09
    -2.702E-09   -2.806E-09   -2.904E-09   -2.996E-09   -3.082E-09   -3.161E-09   -3.234E-09   -3.300E-09   -3.359E-09   -3.412E-09
    -3.459E-09   -3.500E-09   -3.536E-09   -3.565E-09   -3.590E-09   -3.609E-09   -3.623E-09   -3.633E-09   -3.637E-09   -3.638E-09
    -3.634E-09   -3.626E-09   -3.614E-09   -3.599E-09   -3.580E-09   -3.558E-09   -3.533E-09   -3.505E-09   -3.475E-09   -3.442E-09
    -3.406E-09   -3.369E-09   -3.329E-09   -3.288E-09   -3.245E-09   -3.201E-09   -3.155E-09   -3.109E-09   -3.061E-09   -3.012E-09
    -2.963E-09   -2.912E-09   -2.861E-09   -2.810E-09   -2.758E-09   -2.706E-09   -2.653E-09   -2.601E-09   -2.549E-09   -2.497E-09
    -2.445E-09   -2.394E-09   -2.343E-09   -2.293E-09   -2.243E-09   -2.195E-09   -2.148E-09   -2.101E-09   -2.056E-09   -2.013E-09
    -1.970E-09   -1.930E-09   -1.891E-09   -1.853E-09   -1.817E-09   -1.783E-09   -1.750E-09   -1.719E-09   -1.688E-09   -1.660E-09
    -1.632E-09   -1.605E-09   -1.580E-09   -1.556E-09   -1.533E-09   -1.510E-09   -1.489E-09   -1.468E-09   -1.449E-09   -1.430E-09
    -1.412E-09   -1.394E-09   -1.378E-09   -1.361E-09   -1.346E-09   -1.330E-09   -1.315E-09   -1.301E-09   -1.287E-09   -1.273E-09
    -1.259E-09   -1.246E-09   -1.232E-09   -1.219E-09   -1.206E-09   -1.193E-09   -1.180E-09   -1.168E-09   -1.155E-09   -1.142E-09
    -1.130E-09   -1.117E-09   -1.104E-09   -1.091E-09   -1.079E-09   -1.066E-09   -1.053E-09   -1.039E-09   -1.026E-09   -1.013E-09
    -9.988E-10   -9.848E-10   -9.706E-10   -9.561E-10   -9.413E-10   -9.262E-10   -9.107E-10   -8.949E-10   -8.788E-10   -8.623E-10
    -8.454E-10   -8.283E-10   -8.109E-10   -7.932E-10   -7.753E-10   -7.572E-10   -7.388E-10   -7.202E-10   -7.015E-10   -6.826E-10
    -6.635E-10   -6.443E-10   -6.251E-10   -6.057E-10   -5.862E-10   -5.667E-10   -5.472E-10   -5.276E-10   -5.081E-10   -4.885E-10
    -4.690E-10   -4.495E-10   -4.301E-10   -4.108E-10   -3.916E-10   -3.724E-10   -3.535E-10   -3.346E-10   -3.158E-10   -2.972E-10
    -2.786E-10   -2.601E-10   -2.418E-10   -2.235E-10   -2.053E-10   -1.871E-10   -1.691E-10   -1.511E-10   -1.332E-10   -1.153E-10
    -9.749E-11   -7.973E-11   -6.201E-11   -4.433E-11   -2.669E-11   -9.076E-12    8.508E-12    2.607E-11    4.361E-11    6.114E-11
     7.867E-11    9.618E-11    1.137E-10
 Ala      Conc. = 1.57E-10
  -1.64744E-09 -1.59225E-09 -1.54221E-09 -1.49553E-09 -1.45194E-09 -1.41253E-09 -1.37905E-09 -1.35171E-09 -1.32240E-09 -1.29144E-09
  -1.26675E-09 -1.23912E-09 -1.20527E-09 -1.17201E-09 -1.13731E-09 -1.09997E-09 -1.06138E-09 -1.02216E-09 -9.82634E-10 -9.43002E-10
  -9.03387E-10 -8.63875E-10 -8.24539E-10 -7.85420E-10 -7.46557E-10 -7.08002E-10 -6.69770E-10 -6.31889E-10 -5.94391E-10 -5.57286E-10
  -5.20557E-10 -4.84175E-10 -4.48121E-10 -4.12368E-10 -3.76890E-10 -3.41662E-10 -3.06658E-10 -2.71852E-10 -2.37215E-10 -2.02719E-10
  -1.68343E-10 -1.34052E-10 -9.98269E-11 -6.56331E-11 -3.14516E-11  2.75647E-12  3.70095E-11  7.13331E-11  1.05768E-10  1.40330E-10
   1.75047E-10  2.09956E-10  2.45076E-10  2.80438E-10  3.16057E-10  3.51989E-10  3.88249E-10  4.24841E-10  4.61761E-10  4.98997E-10
   5.36534E-10  5.74361E-10  6.12465E-10  6.50833E-10  6.89452E-10  7.28309E-10  7.67393E-10  8.06692E-10  8.46192E-10  8.85882E-10
   9.25750E-10  9.65783E-10  1.00597E-09  1.04630E-09  1.08676E-09  1.12735E-09  1.16804E-09  1.20884E-09  1.24972E-09  1.29069E-09
   1.33173E-09  1.37285E-09  1.41402E-09  1.45526E-09  1.49656E-09  1.53790E-09  1.57927E-09  1.62065E-09  1.66203E-09  1.70341E-09
   1.74482E-09  1.78628E-09  1.82789E-09  1.86977E-09  1.91217E-09  1.95549E-09  2.00049E-09  2.04869E-09  2.10367E-09  2.17658E-09
   2.28790E-09  2.41370E-09  2.55201E-09  2.71697E-09  2.87112E-09  2.98426E-09  3.05428E-09  3.08647E-09  3.07281E-09  3.00474E-09
   2.89757E-09  2.79439E-09  2.73150E-09  2.65941E-09  2.59582E-09  2.58094E-09  2.58107E-09  2.58661E-09  2.59421E-09  2.60231E-09
   2.61011E-09  2.61710E-09  2.62297E-09  2.62748E-09  2.63045E-09  2.63175E-09  2.63125E-09  2.62886E-09  2.62449E-09  2.61806E-09
   2.60949E-09  2.59870E-09  2.58563E-09  2.57021E-09  2.55237E-09  2.53206E-09  2.50920E-09  2.48374E-09  2.45562E-09  2.42477E-09
   2.39113E-09  2.35467E-09  2.31536E-09  2.27317E-09  2.22807E-09  2.18002E-09  2.12900E-09  2.07498E-09  2.01793E-09  1.95782E-09
   1.89464E-09  1.82833E-09  1.75888E-09  1.68627E-09  1.61048E-09  1.53147E-09  1.44923E-09  1.36375E-09  1.27501E-09  1.18302E-09
   1.08779E-09  9.89381E-10  8.87907E-10  7.83587E-10  6.77018E-10  5.69868E-10  4.69389E-10  3.94810E-10  3.35966E-10  2.86925E-10
   2.39958E-10  1.74670E-10  6.66071E-11 -9.17003E-11 -2.85804E-10 -4.95385E-10 -7.09504E-10 -9.23273E-10 -1.12141E-09 -1.27823E-09
  -1.42392E-09 -1.56500E-09 -1.70292E-09 -1.83800E-09 -1.97018E-09 -2.09926E-09 -2.22497E-09 -2.34699E-09 -2.46498E-09 -2.57858E-09
  -2.68744E-09 -2.79121E-09 -2.88951E-09 -2.98196E-09 -3.06819E-09 -3.14785E-09 -3.22065E-09 -3.28674E-09 -3.34629E-09 -3.39952E-09
  -3.44659E-09 -3.48772E-09 -3.52309E-09 -3.55290E-09 -3.57734E-09 -3.59659E-09 -3.61086E-09 -3.62034E-09 -3.62520E-09 -3.62566E-09
  -3.62190E-09 -3.61411E-09 -3.60248E-09 -3.58722E-09 -3.56849E-09 -3.54651E-09 -3.52146E-09 -3.49353E-09 -3.46291E-09 -3.42980E-09
  -3.39439E-09 -3.35686E-09 -3.31742E-09 -3.27624E-09 -3.23351E-09 -3.18935E-09 -3.14385E-09 -3.09716E-09 -3.04938E-09 -3.00062E-09
  -2.95102E-09 -2.90067E-09 -2.84971E-09 -2.79824E-09 -2.74638E-09 -2.69426E-09 -2.64197E-09 -2.58966E-09 -2.53741E-09 -2.48537E-09
  -2.43364E-09 -2.38233E-09 -2.33157E-09 -2.28148E-09 -2.23216E-09 -2.18373E-09 -2.13632E-09 -2.09003E-09 -2.04499E-09 -2.00131E-09
  -1.95910E-09 -1.91849E-09 -1.87952E-09 -1.84214E-09 -1.80630E-09 -1.77196E-09 -1.73905E-09 -1.70754E-09 -1.67736E-09 -1.64847E-09
  -1.62081E-09 -1.59434E-09 -1.56900E-09 -1.54474E-09 -1.52151E-09 -1.49927E-09 -1.47793E-09 -1.45749E-09 -1.43788E-09 -1.41903E-09
  -1.40090E-09 -1.38345E-09 -1.36661E-09 -1.35035E-09 -1.33460E-09 -1.31931E-09 -1.30445E-09 -1.28995E-09 -1.27576E-09 -1.26183E-09
  -1.24813E-09 -1.23463E-09 -1.22131E-09 -1.20816E-09 -1.19514E-09 -1.18224E-09 -1.16944E-09 -1.15671E-09 -1.14404E-09 -1.13139E-09
  -1.11875E-09 -1.10610E-09 -1.09342E-09 -1.08068E-09 -1.06786E-09 -1.05494E-09 -1.04190E-09 -1.02872E-09 -1.01537E-09 -1.00183E-09
  -9.88092E-10 -9.74118E-10 -9.59892E-10 -9.45397E-10 -9.30606E-10 -9.15497E-10 -9.00052E-10 -8.84245E-10 -8.68086E-10 -8.51590E-10
  -8.34775E-10 -8.17659E-10 -8.00259E-10 -7.82591E-10 -7.64675E-10 -7.46527E-10 -7.28165E-10 -7.09607E-10 -6.90870E-10 -6.71971E-10
  -6.52930E-10 -6.33761E-10 -6.14482E-10 -5.95116E-10 -5.75673E-10 -5.56176E-10 -5.36640E-10 -5.17082E-10 -4.97521E-10 -4.77976E-10
  -4.58460E-10 -4.38994E-10 -4.19593E-10 -4.00278E-10 -3.81066E-10 -3.61968E-10 -3.42989E-10 -3.24124E-10 -3.05367E-10 -2.86715E-10
  -2.68163E-10 -2.49705E-10 -2.31338E-10 -2.13057E-10 -1.94859E-10 -1.76735E-10 -1.58687E-10 -1.40705E-10 -1.22787E-10 -1.04927E-10
  -8.71201E-11 -6.93646E-11 -5.16534E-11 -3.39830E-11 -1.63482E-11  1.25440E-12  1.88304E-11  3.63852E-11  5.39220E-11  7.14442E-11
   8.89580E-11  1.06467E-10  1.23979E-10
 Asp      Conc. = 6.12E-10
  -1.04355E-09 -1.09602E-09 -1.15835E-09 -1.22366E-09 -1.27715E-09 -1.32479E-09 -1.34881E-09 -1.35728E-09 -1.33854E-09 -1.30898E-09
  -1.27418E-09 -1.23646E-09 -1.19700E-09 -1.15645E-09 -1.11550E-09 -1.07436E-09 -1.03304E-09 -9.91599E-10 -9.50101E-10 -9.08586E-10
  -8.67088E-10 -8.25624E-10 -7.84215E-10 -7.42847E-10 -7.01509E-10 -6.60191E-10 -6.18838E-10 -5.77387E-10 -5.35756E-10 -4.93800E-10
  -4.51288E-10 -4.07885E-10 -3.63108E-10 -3.16186E-10 -2.65769E-10 -2.09106E-10 -1.39619E-10 -6.03094E-11  3.20845E-11  1.25124E-10
   2.07372E-10  2.70528E-10  3.16472E-10  3.67085E-10  4.39726E-10  5.76184E-10  7.52626E-10  9.41325E-10  1.13163E-09  1.27131E-09
   1.33400E-09  1.32096E-09  1.26432E-09  1.17564E-09  1.06116E-09  9.56703E-10  8.71964E-10  8.48772E-10  8.27297E-10  8.07119E-10
   8.20186E-10  8.43478E-10  8.57568E-10  8.73192E-10  8.90570E-10  8.98371E-10  8.98453E-10  9.13687E-10  9.37120E-10  9.65148E-10
   9.96102E-10  1.02907E-09  1.06352E-09  1.09908E-09  1.13552E-09  1.17264E-09  1.21032E-09  1.24846E-09  1.28697E-09  1.32579E-09
   1.36486E-09  1.40413E-09  1.44357E-09  1.48314E-09  1.52281E-09  1.56254E-09  1.60226E-09  1.64193E-09  1.68150E-09  1.72091E-09
   1.76012E-09  1.79908E-09  1.83773E-09  1.87604E-09  1.91396E-09  1.95143E-09  1.98842E-09  2.02488E-09  2.06076E-09  2.09602E-09
   2.13061E-09  2.16450E-09  2.19763E-09  2.22996E-09  2.26145E-09  2.29206E-09  2.32174E-09  2.35044E-09  2.37813E-09  2.40476E-09
   2.43029E-09  2.45467E-09  2.47786E-09  2.49981E-09  2.52047E-09  2.53976E-09  2.55764E-09  2.57404E-09  2.58892E-09  2.60220E-09
   2.61384E-09  2.62377E-09  2.63194E-09  2.63829E-09  2.64277E-09  2.64530E-09  2.64585E-09  2.64434E-09  2.64073E-09  2.63495E-09
   2.62694E-09  2.61666E-09  2.60404E-09  2.58902E-09  2.57155E-09  2.55157E-09  2.52903E-09  2.50386E-09  2.47602E-09  2.44544E-09
   2.41206E-09  2.37586E-09  2.33680E-09  2.29486E-09  2.25002E-09  2.20225E-09  2.15151E-09  2.09779E-09  2.04107E-09  1.98131E-09
   1.91851E-09  1.85263E-09  1.78367E-09  1.71162E-09  1.63647E-09  1.55821E-09  1.47687E-09  1.39247E-09  1.30507E-09  1.21475E-09
   1.12167E-09  1.02612E-09  9.28573E-10  8.29958E-10  7.32310E-10  6.40932E-10  5.75796E-10  6.18862E-10  7.38545E-10  9.08576E-10
   1.10242E-09  1.24611E-09  1.23988E-09  1.04089E-09  6.95358E-10  2.83288E-10 -1.47602E-10 -5.79979E-10 -9.66830E-10 -1.19100E-09
  -1.36108E-09 -1.51449E-09 -1.65978E-09 -1.79970E-09 -1.93527E-09 -2.06683E-09 -2.19441E-09 -2.31788E-09 -2.43702E-09 -2.55155E-09
  -2.66118E-09 -2.76558E-09 -2.86441E-09 -2.95731E-09 -3.04393E-09 -3.12392E-09 -3.19702E-09 -3.26335E-09 -3.32313E-09 -3.37655E-09
  -3.42381E-09 -3.46509E-09 -3.50060E-09 -3.53054E-09 -3.55509E-09 -3.57445E-09 -3.58881E-09 -3.59837E-09 -3.60332E-09 -3.60385E-09
  -3.60015E-09 -3.59242E-09 -3.58085E-09 -3.56564E-09 -3.54696E-09 -3.52503E-09 -3.50002E-09 -3.47213E-09 -3.44155E-09 -3.40847E-09
  -3.37309E-09 -3.33559E-09 -3.29618E-09 -3.25503E-09 -3.21233E-09 -3.16818E-09 -3.12271E-09 -3.07604E-09 -3.02828E-09 -2.97955E-09
