 LCModel (Version 6.3-1R) Copyright: S.W. Provencher.          Ref.: Magn. Reson. Med. 30:672-679 (1993).                
 onepulse 20x12_ftSpec_smooth_lcm
 26 lines in following concentration table = NCONC+1
    Conc.  %SD /Cr+PCr  Metabolite                                         
    0.000 999%   0.000 Ala                                                 
    0.000 999%   0.000 Asp                                                 
 3.10E-10  60%   1.000 Cr                                                  
    0.000 999%   0.000 GABA                                                
    0.000 999%   0.000 Glc                                                 
 2.56E-09  16%   8.261 Gln                                                 
    0.000 999%   0.000 Glu                                                 
    0.000 999%   0.000 Glyc                                                
 1.87E-10  45%   0.605 GPC                                                 
    0.000 999%   0.000 GSH                                                 
 1.00E-09  30%   3.228 Ins                                                 
    0.000 999%   0.000 Lac                                                 
 1.53E-10 167%   0.493 NAAG                                                
 3.19E-10 108%   1.030 NAA                                                 
    0.000 999%   0.000 PCh                                                 
    0.000 999%   0.000 PCr                                                 
    0.000 999%   0.000 PE                                                  
 1.25E-10 166%   0.405 Scyllo                                              
 2.61E-09  21%   8.420 Ser                                                 
 5.16E-10 122%   1.664 Tau                                                 
 1.87E-10  45%   0.605 GPC+PCh                                             
 4.72E-10  45%   1.523 NAA+NAAG                                            
 1.00E-09  30%   3.228 Ins+Glyc                                            
 3.10E-10  60%   1.000 Cr+PCr                                              
 2.56E-09  16%   8.261 Glu+Gln                                             
   6 lines in following misc. output table
  FWHM = 0.089 ppm    S/N =   3                                            
  Data shift = 0.358 ppm                                                   
  Ph: -27 deg     -24.7 deg/ppm                                            
  alphaB,S = 1.1E+00,   3.8E+01                                            
    9 spline knots.   Ns = 5(1)                                            
  ( 7) 2 infls.   ( 5) 1 extrs.                                            
  363 points on ppm-axis = NY
      4.250000     4.238821     4.227641     4.216462     4.205282     4.194103     4.182923     4.171744     4.160564     4.149385
      4.138206     4.127026     4.115847     4.104667     4.093488     4.082308     4.071129     4.059949     4.048770     4.037591
      4.026411     4.015232     4.004052     3.992873     3.981693     3.970514     3.959334     3.948155     3.936975     3.925796
      3.914617     3.903437     3.892258     3.881078     3.869899     3.858719     3.847540     3.836360     3.825181     3.814002
      3.802822     3.791643     3.780463     3.769284     3.758104     3.746925     3.735745     3.724566     3.713387     3.702207
      3.691028     3.679848     3.668669     3.657489     3.646310     3.635130     3.623951     3.612772     3.601592     3.590413
      3.579233     3.568054     3.556874     3.545695     3.534515     3.523336     3.512156     3.500977     3.489798     3.478618
      3.467439     3.456259     3.445080     3.433900     3.422721     3.411541     3.400362     3.389183     3.378003     3.366824
      3.355644     3.344465     3.333285     3.322106     3.310926     3.299747     3.288568     3.277388     3.266209     3.255029
      3.243850     3.232670     3.221491     3.210311     3.199132     3.187953     3.176773     3.165594     3.154414     3.143235
      3.132055     3.120876     3.109696     3.098517     3.087337     3.076158     3.064979     3.053799     3.042620     3.031440
      3.020261     3.009081     2.997902     2.986722     2.975543     2.964364     2.953184     2.942005     2.930825     2.919646
      2.908466     2.897287     2.886107     2.874928     2.863749     2.852569     2.841390     2.830210     2.819031     2.807851
      2.796672     2.785492     2.774313     2.763134     2.751954     2.740775     2.729595     2.718416     2.707236     2.696057
      2.684877     2.673698     2.662519     2.651339     2.640160     2.628980     2.617801     2.606621     2.595442     2.584262
      2.573083     2.561903     2.550724     2.539545     2.528365     2.517186     2.506006     2.494827     2.483647     2.472468
      2.461288     2.450109     2.438930     2.427750     2.416571     2.405391     2.394212     2.383032     2.371853     2.360673
      2.349494     2.338315     2.327135     2.315956     2.304776     2.293597     2.282417     2.271238     2.260058     2.248879
      2.237700     2.226520     2.215341     2.204161     2.192982     2.181802     2.170623     2.159443     2.148264     2.137084
      2.125905     2.114726     2.103546     2.092367     2.081187     2.070008     2.058828     2.047649     2.036469     2.025290
      2.014111     2.002931     1.991752     1.980572     1.969393     1.958213     1.947034     1.935854     1.924675     1.913496
      1.902316     1.891137     1.879957     1.868778     1.857598     1.846419     1.835239     1.824060     1.812881     1.801701
      1.790522     1.779342     1.768163     1.756983     1.745804     1.734624     1.723445     1.712265     1.701086     1.689907
      1.678727     1.667548     1.656368     1.645189     1.634009     1.622830     1.611650     1.600471     1.589292     1.578112
      1.566933     1.555753     1.544574     1.533394     1.522215     1.511035     1.499856     1.488677     1.477497     1.466318
      1.455138     1.443959     1.432779     1.421600     1.410420     1.399241     1.388062     1.376882     1.365703     1.354523
      1.343344     1.332164     1.320985     1.309805     1.298626     1.287446     1.276267     1.265088     1.253908     1.242729
      1.231549     1.220370     1.209190     1.198011     1.186831     1.175652     1.164473     1.153293     1.142114     1.130934
      1.119755     1.108575     1.097396     1.086216     1.075037     1.063858     1.052678     1.041499     1.030319     1.019140
      1.007960     0.996781     0.985601     0.974422     0.963243     0.952063     0.940884     0.929704     0.918525     0.907345
      0.896166     0.884986     0.873807     0.862628     0.851448     0.840269     0.829089     0.817910     0.806730     0.795551
      0.784371     0.773192     0.762012     0.750833     0.739654     0.728474     0.717295     0.706115     0.694936     0.683756
      0.672577     0.661397     0.650218     0.639039     0.627859     0.616680     0.605500     0.594321     0.583141     0.571962
      0.560782     0.549603     0.538424     0.527244     0.516065     0.504885     0.493706     0.482526     0.471347     0.460167
      0.448988     0.437809     0.426629     0.415450     0.404270     0.393091     0.381911     0.370732     0.359552     0.348373
      0.337193     0.326014     0.314835     0.303655     0.292476     0.281296     0.270117     0.258937     0.247758     0.236578
      0.225399     0.214220     0.203040
 NY phased data points follow
   1.35390E-08  1.34296E-08  1.28757E-08  1.13093E-08  1.09161E-08  9.80793E-09  9.60331E-09  8.65688E-09  8.99804E-09  8.88823E-09
   9.23402E-09  9.64091E-09  9.97091E-09  9.88078E-09  1.08925E-08  1.13196E-08  1.11256E-08  1.01492E-08  1.08923E-08  9.65693E-09
   9.71968E-09  9.60271E-09  9.88536E-09  9.79900E-09  9.87907E-09  9.99365E-09  1.07464E-08  9.88887E-09  9.49040E-09  9.50210E-09
   1.07560E-08  1.22990E-08  1.35042E-08  1.36134E-08  1.34939E-08  1.19127E-08  1.10413E-08  9.71023E-09  9.41089E-09  9.02862E-09
   8.85771E-09  8.44159E-09  8.70472E-09  8.27166E-09  7.59805E-09  6.58575E-09  6.18636E-09  5.78515E-09  6.42605E-09  6.37754E-09
   6.30489E-09  5.52611E-09  6.31626E-09  5.93454E-09  5.31253E-09  4.11987E-09  4.33668E-09  4.36008E-09  4.44449E-09  5.19763E-09
   6.17534E-09  8.04901E-09  1.05732E-08  1.27812E-08  1.45131E-08  1.36941E-08  1.18347E-08  1.01623E-08  8.67905E-09  7.76074E-09
   7.38020E-09  6.42898E-09  5.78712E-09  4.61448E-09  4.92549E-09  4.58046E-09  5.03312E-09  6.21644E-09  8.28846E-09  1.20253E-08
   1.53611E-08  1.53138E-08  1.44362E-08  1.33616E-08  1.19614E-08  1.16850E-08  1.13560E-08  1.06977E-08  1.01697E-08  9.96335E-09
   9.32640E-09  8.69304E-09  8.68220E-09  8.20191E-09  6.95412E-09  7.14864E-09  6.61587E-09  6.30104E-09  6.14891E-09  5.56724E-09
   5.18275E-09  6.14925E-09  6.01613E-09  5.92320E-09  5.06838E-09  5.44803E-09  5.12012E-09  4.55676E-09  4.90138E-09  3.32207E-09
   3.61655E-09  2.46285E-09  3.36459E-09  3.69041E-09  4.24315E-09  3.42055E-09  4.26046E-09  4.92372E-09  4.48347E-09  4.54956E-09
   4.52587E-09  4.80916E-09  3.87314E-09  3.04072E-09  3.15816E-09  2.92492E-09  2.36224E-09  1.92685E-09  3.24332E-09  2.87132E-09
   3.19383E-09  3.18695E-09  2.87471E-09  3.61791E-09  3.25124E-09  2.91242E-09  3.03860E-09  3.05285E-09  3.22848E-09  4.61515E-09
   5.21587E-09  5.22771E-09  5.19260E-09  4.92673E-09  4.78333E-09  5.44435E-09  5.28830E-09  6.20234E-09  5.51110E-09  4.86629E-09
   4.59624E-09  4.56084E-09  4.32950E-09  3.69935E-09  3.89102E-09  3.81208E-09  4.01183E-09  3.99232E-09  3.71424E-09  3.63422E-09
   3.50445E-09  3.96795E-09  4.37780E-09  3.80023E-09  3.93813E-09  4.18583E-09  4.03994E-09  5.41077E-09  6.58469E-09  8.18389E-09
   1.28793E-08  1.59163E-08  1.71738E-08  1.52793E-08  1.37497E-08  1.21692E-08  1.09017E-08  9.10200E-09  7.86191E-09  7.08926E-09
   6.39413E-09  5.42368E-09  4.55384E-09  3.47168E-09  2.51387E-09  1.74816E-09  9.36636E-10 -4.06071E-10 -1.82551E-09 -2.23948E-09
  -3.28551E-09 -4.59314E-09 -5.49189E-09 -7.32759E-09 -8.47425E-09 -9.36158E-09 -9.61389E-09 -1.10835E-08 -1.13260E-08 -1.14285E-08
  -1.16895E-08 -1.11655E-08 -1.10629E-08 -1.04483E-08 -9.55843E-09 -8.43689E-09 -7.40223E-09 -6.50946E-09 -5.16181E-09 -3.35965E-09
  -3.20713E-09 -2.23397E-09 -1.55390E-09 -1.63570E-09 -1.52474E-09 -1.21485E-09 -1.36616E-09 -1.55835E-09 -1.62978E-09 -2.22507E-09
  -2.20897E-09 -1.40249E-09 -1.03899E-09 -7.70413E-10 -4.89425E-10 -1.11638E-09 -1.48778E-09 -1.33844E-09 -1.04253E-09 -1.09374E-09
  -1.52441E-09 -1.23251E-09 -9.15661E-10 -1.47554E-09 -9.80588E-10 -8.53733E-10 -4.33851E-10 -1.11686E-09 -8.56372E-10 -1.23915E-09
  -7.55522E-10 -8.12705E-10 -1.09233E-09 -1.45664E-09 -7.60499E-10 -1.02611E-09 -1.42296E-09 -5.85238E-10 -5.94613E-10 -7.20176E-10
  -5.08478E-10 -2.27975E-10  1.87569E-10  1.39742E-10 -7.38424E-11  8.89138E-11 -4.64000E-10 -5.97162E-10 -1.08369E-09 -8.69152E-10
  -1.91645E-09 -1.10492E-09 -1.74821E-09 -1.41717E-09 -1.81048E-09 -1.12060E-09 -1.33029E-09 -8.27869E-10 -5.96722E-10  5.18063E-12
   3.44347E-10  3.94196E-10  6.73569E-10  4.09757E-10  9.00578E-10  4.03793E-10  1.17755E-09  1.85235E-10  1.26782E-10  1.13277E-10
   2.58853E-10 -2.68095E-10 -1.41270E-10 -7.73972E-10 -2.49483E-10 -5.72843E-10 -6.95008E-10 -9.41857E-10 -5.07525E-10 -6.64393E-10
  -1.23533E-09 -9.81504E-10 -9.43697E-10 -7.13688E-10 -9.69622E-10 -1.02665E-09 -8.17106E-10 -1.04015E-09 -1.17190E-09 -1.33832E-09
  -7.09216E-10 -1.29926E-09 -6.58080E-10 -8.49232E-10 -8.90205E-10 -7.37032E-10 -7.80197E-10 -8.21044E-10 -9.75312E-10 -4.75164E-10
  -2.62327E-10 -1.35428E-09 -4.64557E-10 -6.96943E-10 -1.40714E-09 -3.52048E-10 -3.43814E-10 -6.46369E-10 -4.64867E-10 -2.47346E-10
  -2.68334E-10 -2.55305E-10 -2.48716E-10 -1.09878E-09 -4.66738E-11 -5.60590E-11 -2.48094E-10  3.25916E-10 -5.28365E-10 -3.28904E-12
  -8.79867E-11 -2.06265E-10  2.61219E-10 -3.57044E-10  5.60934E-11  1.39113E-10  2.52436E-10 -3.44559E-10  1.51076E-10  7.12667E-10
  -2.86712E-10  3.30410E-10  1.98367E-10  8.11638E-10  1.04723E-10  3.08680E-10  4.60426E-10  5.97877E-10  4.99151E-10  4.87868E-10
   4.36953E-10  7.56184E-10  1.06324E-09  5.89325E-10  8.57665E-10  8.57068E-10  6.78644E-10  1.14696E-09  1.61584E-09  9.87496E-10
   7.15990E-10  8.89398E-10  7.24402E-10
 NY points of the fit to the data follow
   1.17736E-08  1.18160E-08  1.12125E-08  1.09143E-08  1.09256E-08  1.08134E-08  1.04331E-08  9.99385E-09  9.77789E-09  9.74818E-09
   9.90281E-09  9.87085E-09  1.01762E-08  1.05620E-08  1.08308E-08  1.08296E-08  1.06360E-08  1.06402E-08  1.05813E-08  1.00503E-08
   9.43995E-09  9.08947E-09  8.91825E-09  8.75834E-09  8.79736E-09  9.13857E-09  9.85102E-09  1.06770E-08  1.13631E-08  1.17573E-08
   1.20946E-08  1.22341E-08  1.22519E-08  1.19513E-08  1.13130E-08  1.04349E-08  9.99697E-09  9.74703E-09  9.55470E-09  9.39172E-09
   9.21797E-09  8.89617E-09  8.29111E-09  7.59247E-09  7.18811E-09  6.90655E-09  6.68407E-09  6.48979E-09  6.30975E-09  6.14212E-09
   5.98694E-09  5.84843E-09  5.73202E-09  5.62975E-09  5.56987E-09  5.67230E-09  5.93534E-09  6.33446E-09  6.99471E-09  7.83248E-09
   8.70070E-09  9.59290E-09  1.04397E-08  1.10930E-08  1.13967E-08  1.12468E-08  1.07709E-08  1.02952E-08  9.54565E-09  8.40784E-09
   7.66752E-09  7.23230E-09  6.83837E-09  6.66294E-09  6.72379E-09  7.06653E-09  7.64300E-09  8.48017E-09  9.56538E-09  1.07940E-08
   1.20303E-08  1.30470E-08  1.35357E-08  1.36361E-08  1.36019E-08  1.31153E-08  1.20720E-08  1.09290E-08  9.68446E-09  8.74323E-09
   8.14354E-09  7.70966E-09  7.37040E-09  7.09233E-09  6.85206E-09  6.64099E-09  6.45614E-09  6.29077E-09  6.13748E-09  5.99308E-09
   5.86175E-09  5.74130E-09  5.62639E-09  5.51575E-09  5.41094E-09  5.31129E-09  5.21569E-09  5.12349E-09  5.03407E-09  4.94706E-09
   4.86214E-09  4.77899E-09  4.69737E-09  4.61701E-09  4.53775E-09  4.45939E-09  4.38177E-09  4.30476E-09  4.22822E-09  4.15207E-09
   4.07613E-09  4.00036E-09  3.92469E-09  3.84908E-09  3.77351E-09  3.69795E-09  3.62239E-09  3.54683E-09  3.47127E-09  3.39570E-09
   3.32014E-09  3.24460E-09  3.16909E-09  3.09363E-09  3.01824E-09  2.94296E-09  2.86781E-09  2.79283E-09  2.71807E-09  2.64356E-09
   2.56936E-09  2.49554E-09  2.42215E-09  2.34928E-09  2.27699E-09  2.20538E-09  2.13456E-09  2.06467E-09  1.99583E-09  1.92822E-09
   1.86205E-09  1.79754E-09  1.73498E-09  1.67476E-09  1.61730E-09  1.56318E-09  1.51319E-09  1.46831E-09  1.42993E-09  1.40005E-09
   1.38155E-09  1.37897E-09  1.39979E-09  1.45754E-09  1.58014E-09  1.83938E-09  2.50746E-09  4.24083E-09  6.86210E-09  1.00397E-08
   1.33063E-08  1.58691E-08  1.70934E-08  1.69980E-08  1.60505E-08  1.43922E-08  1.14806E-08  6.95029E-09  2.28105E-09  3.47540E-10
  -1.99123E-10 -4.46677E-10 -5.94160E-10 -6.97711E-10 -7.78629E-10 -8.46525E-10 -9.06273E-10 -9.60554E-10 -1.01092E-09 -1.05833E-09
  -1.10339E-09 -1.14648E-09 -1.18787E-09 -1.22773E-09 -1.26618E-09 -1.30332E-09 -1.33920E-09 -1.37385E-09 -1.40733E-09 -1.43964E-09
  -1.47079E-09 -1.50082E-09 -1.52971E-09 -1.55749E-09 -1.58415E-09 -1.60969E-09 -1.63413E-09 -1.65746E-09 -1.67969E-09 -1.70083E-09
  -1.72087E-09 -1.73981E-09 -1.75766E-09 -1.77442E-09 -1.79011E-09 -1.80471E-09 -1.81824E-09 -1.83070E-09 -1.84210E-09 -1.85244E-09
  -1.86172E-09 -1.86995E-09 -1.87713E-09 -1.88329E-09 -1.88842E-09 -1.89252E-09 -1.89561E-09 -1.89770E-09 -1.89878E-09 -1.89888E-09
  -1.89799E-09 -1.89613E-09 -1.89330E-09 -1.88952E-09 -1.88479E-09 -1.87913E-09 -1.87255E-09 -1.86505E-09 -1.85664E-09 -1.84734E-09
  -1.83716E-09 -1.82612E-09 -1.81421E-09 -1.80146E-09 -1.78791E-09 -1.77356E-09 -1.75846E-09 -1.74263E-09 -1.72609E-09 -1.70887E-09
  -1.69099E-09 -1.67249E-09 -1.65338E-09 -1.63370E-09 -1.61347E-09 -1.59271E-09 -1.57145E-09 -1.54971E-09 -1.52753E-09 -1.50492E-09
  -1.48192E-09 -1.45854E-09 -1.43480E-09 -1.41075E-09 -1.38639E-09 -1.36175E-09 -1.33687E-09 -1.31175E-09 -1.28642E-09 -1.26092E-09
  -1.23525E-09 -1.20945E-09 -1.18353E-09 -1.15753E-09 -1.13145E-09 -1.10532E-09 -1.07917E-09 -1.05302E-09 -1.02688E-09 -1.00078E-09
  -9.74737E-10 -9.48770E-10 -9.22903E-10 -8.97154E-10 -8.71543E-10 -8.46086E-10 -8.20806E-10 -7.95718E-10 -7.70839E-10 -7.46192E-10
  -7.21789E-10 -6.97650E-10 -6.73789E-10 -6.50225E-10 -6.26972E-10 -6.04045E-10 -5.81460E-10 -5.59234E-10 -5.37379E-10 -5.15909E-10
  -4.94835E-10 -4.74172E-10 -4.53937E-10 -4.34133E-10 -4.14763E-10 -3.95829E-10 -3.77330E-10 -3.59270E-10 -3.41646E-10 -3.24464E-10
  -3.07723E-10 -2.91423E-10 -2.75566E-10 -2.60155E-10 -2.45188E-10 -2.30668E-10 -2.16596E-10 -2.02974E-10 -1.89801E-10 -1.77082E-10
  -1.64814E-10 -1.53000E-10 -1.41642E-10 -1.30742E-10 -1.20299E-10 -1.10314E-10 -1.00790E-10 -9.17285E-11 -8.31317E-11 -7.49971E-11
  -6.73305E-11 -6.01326E-11 -5.34002E-11 -4.71392E-11 -4.13524E-11 -3.60359E-11 -3.11930E-11 -2.68288E-11 -2.29411E-11 -1.95313E-11
  -1.66047E-11 -1.41573E-11 -1.21957E-11 -1.07185E-11 -9.72972E-12 -9.22845E-12 -9.21691E-12 -9.69741E-12 -1.06712E-11 -1.21388E-11
  -1.41044E-11 -1.65681E-11 -1.95323E-11 -2.29983E-11 -2.69662E-11 -3.14405E-11 -3.64229E-11 -4.19135E-11 -4.79152E-11 -5.44308E-11
  -6.14591E-11 -6.90052E-11 -7.70682E-11
 NY background values follow
     3.754E-09    3.780E-09    3.806E-09    3.831E-09    3.855E-09    3.878E-09    3.901E-09    3.923E-09    3.945E-09    3.965E-09
     3.985E-09    4.005E-09    4.023E-09    4.041E-09    4.059E-09    4.075E-09    4.092E-09    4.107E-09    4.122E-09    4.136E-09
     4.149E-09    4.162E-09    4.174E-09    4.186E-09    4.197E-09    4.207E-09    4.217E-09    4.226E-09    4.235E-09    4.243E-09
     4.250E-09    4.257E-09    4.263E-09    4.269E-09    4.274E-09    4.279E-09    4.283E-09    4.287E-09    4.290E-09    4.292E-09
     4.294E-09    4.296E-09    4.297E-09    4.297E-09    4.297E-09    4.297E-09    4.296E-09    4.295E-09    4.293E-09    4.291E-09
     4.288E-09    4.285E-09    4.282E-09    4.278E-09    4.274E-09    4.269E-09    4.264E-09    4.259E-09    4.253E-09    4.247E-09
     4.241E-09    4.234E-09    4.227E-09    4.220E-09    4.212E-09    4.204E-09    4.196E-09    4.187E-09    4.178E-09    4.169E-09
     4.159E-09    4.149E-09    4.138E-09    4.127E-09    4.115E-09    4.103E-09    4.091E-09    4.078E-09    4.065E-09    4.051E-09
     4.036E-09    4.022E-09    4.006E-09    3.990E-09    3.974E-09    3.957E-09    3.939E-09    3.921E-09    3.902E-09    3.882E-09
     3.862E-09    3.841E-09    3.820E-09    3.798E-09    3.775E-09    3.752E-09    3.727E-09    3.702E-09    3.677E-09    3.650E-09
     3.623E-09    3.595E-09    3.566E-09    3.536E-09    3.506E-09    3.475E-09    3.442E-09    3.409E-09    3.375E-09    3.341E-09
     3.305E-09    3.268E-09    3.230E-09    3.192E-09    3.152E-09    3.111E-09    3.070E-09    3.027E-09    2.983E-09    2.939E-09
     2.893E-09    2.846E-09    2.798E-09    2.749E-09    2.699E-09    2.648E-09    2.596E-09    2.543E-09    2.489E-09    2.435E-09
     2.379E-09    2.323E-09    2.266E-09    2.208E-09    2.150E-09    2.091E-09    2.032E-09    1.971E-09    1.911E-09    1.850E-09
     1.788E-09    1.726E-09    1.663E-09    1.601E-09    1.538E-09    1.474E-09    1.411E-09    1.347E-09    1.283E-09    1.219E-09
     1.155E-09    1.091E-09    1.026E-09    9.624E-10    8.983E-10    8.344E-10    7.706E-10    7.070E-10    6.436E-10    5.805E-10
     5.177E-10    4.553E-10    3.932E-10    3.315E-10    2.703E-10    2.096E-10    1.494E-10    8.983E-11    3.082E-11   -2.755E-11
    -8.523E-11   -1.422E-10   -1.984E-10   -2.538E-10   -3.085E-10   -3.622E-10   -4.151E-10   -4.670E-10   -5.179E-10   -5.679E-10
    -6.168E-10   -6.647E-10   -7.115E-10   -7.572E-10   -8.018E-10   -8.452E-10   -8.876E-10   -9.288E-10   -9.690E-10   -1.008E-09
    -1.046E-09   -1.083E-09   -1.118E-09   -1.153E-09   -1.186E-09   -1.219E-09   -1.250E-09   -1.280E-09   -1.309E-09   -1.337E-09
    -1.363E-09   -1.389E-09   -1.413E-09   -1.437E-09   -1.459E-09   -1.480E-09   -1.500E-09   -1.519E-09   -1.537E-09   -1.554E-09
    -1.570E-09   -1.584E-09   -1.598E-09   -1.610E-09   -1.621E-09   -1.632E-09   -1.641E-09   -1.649E-09   -1.656E-09   -1.662E-09
    -1.667E-09   -1.671E-09   -1.674E-09   -1.676E-09   -1.677E-09   -1.677E-09   -1.676E-09   -1.674E-09   -1.671E-09   -1.667E-09
    -1.662E-09   -1.656E-09   -1.650E-09   -1.642E-09   -1.633E-09   -1.624E-09   -1.613E-09   -1.602E-09   -1.590E-09   -1.577E-09
    -1.563E-09   -1.548E-09   -1.532E-09   -1.516E-09   -1.498E-09   -1.480E-09   -1.462E-09   -1.442E-09   -1.422E-09   -1.401E-09
    -1.380E-09   -1.358E-09   -1.335E-09   -1.312E-09   -1.289E-09   -1.265E-09   -1.240E-09   -1.215E-09   -1.189E-09   -1.163E-09
    -1.137E-09   -1.111E-09   -1.084E-09   -1.056E-09   -1.029E-09   -1.001E-09   -9.731E-10   -9.449E-10   -9.165E-10   -8.879E-10
    -8.592E-10   -8.305E-10   -8.016E-10   -7.726E-10   -7.436E-10   -7.146E-10   -6.856E-10   -6.566E-10   -6.276E-10   -5.987E-10
    -5.699E-10   -5.412E-10   -5.126E-10   -4.841E-10   -4.558E-10   -4.277E-10   -3.998E-10   -3.721E-10   -3.446E-10   -3.174E-10
    -2.904E-10   -2.637E-10   -2.374E-10   -2.113E-10   -1.856E-10   -1.602E-10   -1.352E-10   -1.106E-10   -8.634E-11   -6.251E-11
    -3.909E-11   -1.611E-11    6.428E-12    2.851E-11    5.014E-11    7.132E-11    9.204E-11    1.123E-10    1.321E-10    1.514E-10
     1.703E-10    1.887E-10    2.067E-10    2.242E-10    2.412E-10    2.578E-10    2.739E-10    2.895E-10    3.047E-10    3.194E-10
     3.336E-10    3.473E-10    3.606E-10    3.734E-10    3.857E-10    3.975E-10    4.089E-10    4.198E-10    4.302E-10    4.401E-10
     4.495E-10    4.585E-10    4.670E-10    4.749E-10    4.824E-10    4.894E-10    4.959E-10    5.019E-10    5.074E-10    5.124E-10
     5.170E-10    5.210E-10    5.245E-10    5.275E-10    5.300E-10    5.320E-10    5.335E-10    5.345E-10    5.350E-10    5.350E-10
     5.344E-10    5.334E-10    5.318E-10    5.297E-10    5.271E-10    5.240E-10    5.203E-10    5.161E-10    5.114E-10    5.062E-10
     5.004E-10    4.941E-10    4.873E-10
 Cr       Conc. = 3.10E-10
   4.79462E-09  4.93100E-09  4.86516E-09  4.55597E-09  4.36358E-09  4.26178E-09  4.20034E-09  4.16038E-09  4.13322E-09  4.11422E-09
   4.10065E-09  4.09075E-09  4.08334E-09  4.07754E-09  4.07273E-09  4.06841E-09  4.06414E-09  4.05958E-09  4.05439E-09  4.04824E-09
   4.04078E-09  4.03164E-09  4.02039E-09  4.00648E-09  3.98924E-09  3.96778E-09  3.94082E-09  3.90660E-09  3.86246E-09  3.80437E-09
   3.72838E-09  3.67435E-09  3.75278E-09  3.96406E-09  4.31721E-09  4.78225E-09  5.26194E-09  5.65668E-09  5.94212E-09  6.15786E-09
   6.30064E-09  6.25031E-09  5.87722E-09  5.37178E-09  5.13087E-09  4.98867E-09  4.89196E-09  4.82048E-09  4.76468E-09  4.71930E-09
   4.68124E-09  4.64849E-09  4.61974E-09  4.59402E-09  4.57066E-09  4.54915E-09  4.52913E-09  4.51031E-09  4.49244E-09  4.47537E-09
   4.45891E-09  4.44297E-09  4.42745E-09  4.41224E-09  4.39725E-09  4.38244E-09  4.36771E-09  4.35304E-09  4.33835E-09  4.32361E-09
   4.30879E-09  4.29384E-09  4.27872E-09  4.26341E-09  4.24788E-09  4.23210E-09  4.21604E-09  4.19969E-09  4.18300E-09  4.16597E-09
   4.14857E-09  4.13078E-09  4.11257E-09  4.09393E-09  4.07486E-09  4.05529E-09  4.03526E-09  4.01470E-09  3.99362E-09  3.97200E-09
   3.94981E-09  3.92706E-09  3.90371E-09  3.87974E-09  3.85514E-09  3.82989E-09  3.80398E-09  3.77738E-09  3.75008E-09  3.72209E-09
   3.69334E-09  3.66386E-09  3.63361E-09  3.60258E-09  3.57075E-09  3.53812E-09  3.50464E-09  3.47033E-09  3.43516E-09  3.39911E-09
   3.36218E-09  3.32432E-09  3.28555E-09  3.24583E-09  3.20517E-09  3.16353E-09  3.12091E-09  3.07729E-09  3.03266E-09  2.98703E-09
   2.94031E-09  2.89255E-09  2.84373E-09  2.79389E-09  2.74305E-09  2.69125E-09  2.63852E-09  2.58489E-09  2.53041E-09  2.47509E-09
   2.41897E-09  2.36210E-09  2.30450E-09  2.24622E-09  2.18727E-09  2.12771E-09  2.06756E-09  2.00687E-09  1.94568E-09  1.88401E-09
   1.82191E-09  1.75942E-09  1.69657E-09  1.63342E-09  1.56998E-09  1.50629E-09  1.44242E-09  1.37840E-09  1.31426E-09  1.25005E-09
   1.18584E-09  1.12163E-09  1.05750E-09  9.93502E-10  9.29673E-10  8.66081E-10  8.02812E-10  7.39927E-10  6.77519E-10  6.15731E-10
   5.54696E-10  4.94681E-10  4.36047E-10  3.79478E-10  3.26377E-10  2.80578E-10  2.58158E-10  2.85185E-10  3.42423E-10  4.18764E-10
   4.91331E-10  5.25680E-10  5.02336E-10  4.31332E-10  3.33202E-10  2.05025E-10  1.80940E-11 -2.30433E-10 -4.48166E-10 -5.36192E-10
  -5.98359E-10 -6.52476E-10 -7.02731E-10 -7.50559E-10 -7.96580E-10 -8.41082E-10 -8.84219E-10 -9.26084E-10 -9.66727E-10 -1.00618E-09
  -1.04447E-09 -1.08159E-09 -1.11758E-09 -1.15242E-09 -1.18613E-09 -1.21871E-09 -1.25016E-09 -1.28048E-09 -1.30969E-09 -1.33776E-09
  -1.36471E-09 -1.39056E-09 -1.41528E-09 -1.43889E-09 -1.46139E-09 -1.48278E-09 -1.50307E-09 -1.52225E-09 -1.54033E-09 -1.55732E-09
  -1.57322E-09 -1.58803E-09 -1.60176E-09 -1.61441E-09 -1.62599E-09 -1.63650E-09 -1.64594E-09 -1.65433E-09 -1.66168E-09 -1.66797E-09
  -1.67323E-09 -1.67745E-09 -1.68065E-09 -1.68283E-09 -1.68401E-09 -1.68418E-09 -1.68336E-09 -1.68155E-09 -1.67876E-09 -1.67501E-09
  -1.67029E-09 -1.66462E-09 -1.65802E-09 -1.65048E-09 -1.64202E-09 -1.63264E-09 -1.62237E-09 -1.61121E-09 -1.59916E-09 -1.58625E-09
  -1.57248E-09 -1.55786E-09 -1.54241E-09 -1.52615E-09 -1.50910E-09 -1.49129E-09 -1.47275E-09 -1.45350E-09 -1.43356E-09 -1.41298E-09
  -1.39176E-09 -1.36994E-09 -1.34754E-09 -1.32458E-09 -1.30110E-09 -1.27713E-09 -1.25267E-09 -1.22777E-09 -1.20244E-09 -1.17670E-09
  -1.15060E-09 -1.12414E-09 -1.09736E-09 -1.07028E-09 -1.04291E-09 -1.01530E-09 -9.87456E-10 -9.59406E-10 -9.31172E-10 -9.02781E-10
  -8.74251E-10 -8.45610E-10 -8.16877E-10 -7.88076E-10 -7.59226E-10 -7.30353E-10 -7.01477E-10 -6.72618E-10 -6.43797E-10 -6.15037E-10
  -5.86357E-10 -5.57774E-10 -5.29313E-10 -5.00992E-10 -4.72830E-10 -4.44843E-10 -4.17054E-10 -3.89479E-10 -3.62133E-10 -3.35041E-10
  -3.08212E-10 -2.81670E-10 -2.55425E-10 -2.29499E-10 -2.03902E-10 -1.78653E-10 -1.53766E-10 -1.29258E-10 -1.05140E-10 -8.14273E-11
  -5.81311E-11 -3.52649E-11 -1.28467E-11  9.12185E-12  3.06361E-11  5.16965E-11  7.23022E-11  9.24502E-11  1.12142E-10  1.31374E-10
   1.50147E-10  1.68459E-10  1.86310E-10  2.03696E-10  2.20619E-10  2.37077E-10  2.53070E-10  2.68595E-10  2.83652E-10  2.98238E-10
   3.12354E-10  3.25999E-10  3.39170E-10  3.51866E-10  3.64086E-10  3.75831E-10  3.87099E-10  3.97886E-10  4.08192E-10  4.18019E-10
   4.27360E-10  4.36216E-10  4.44589E-10  4.52474E-10  4.59868E-10  4.66775E-10  4.73192E-10  4.79113E-10  4.84541E-10  4.89475E-10
   4.93910E-10  4.97849E-10  5.01286E-10  5.04222E-10  5.06654E-10  5.08583E-10  5.10006E-10  5.10920E-10  5.11326E-10  5.11221E-10
   5.10603E-10  5.09471E-10  5.07823E-10  5.05657E-10  5.02974E-10  4.99769E-10  4.96040E-10  4.91787E-10  4.87008E-10  4.81700E-10
   4.75864E-10  4.69494E-10  4.62593E-10
 Gln      Conc. = 2.56E-09
   2.12266E-09  2.42762E-09  2.87166E-09  3.47896E-09  4.19500E-09  4.93845E-09  5.62268E-09  6.16477E-09  6.50776E-09  6.68490E-09
   6.67449E-09  6.26299E-09  6.02058E-09  5.70911E-09  5.34635E-09  5.09755E-09  4.91841E-09  4.78191E-09  4.67349E-09  4.58465E-09
   4.50998E-09  4.44585E-09  4.38968E-09  4.33971E-09  4.29486E-09  4.25443E-09  4.21722E-09  4.18241E-09  4.14991E-09  4.11888E-09
   4.08888E-09  4.05955E-09  4.03066E-09  4.00197E-09  3.97324E-09  3.94429E-09  3.91493E-09  3.88499E-09  3.85426E-09  3.82253E-09
   3.78965E-09  3.75540E-09  3.71969E-09  3.68242E-09  3.64342E-09  3.60257E-09  3.55971E-09  3.51439E-09  3.46642E-09  3.41634E-09
   3.36401E-09  3.31014E-09  3.25825E-09  3.21686E-09  3.21697E-09  3.36918E-09  3.68123E-09  4.12507E-09  4.83334E-09  5.73536E-09
   6.68159E-09  7.66285E-09  8.60252E-09  9.33161E-09  9.67627E-09  9.56302E-09  9.13723E-09  8.74048E-09  8.05633E-09  6.96787E-09
   6.24268E-09  5.81387E-09  5.43284E-09  5.28747E-09  5.38045E-09  5.75771E-09  6.31450E-09  6.96132E-09  7.66934E-09  8.36683E-09
   8.98817E-09  9.44619E-09  9.54317E-09  9.40051E-09  9.24444E-09  8.79871E-09  8.09177E-09  7.62585E-09  7.13865E-09  6.63092E-09
   6.26261E-09  5.98183E-09  5.75763E-09  5.57248E-09  5.41317E-09  5.27291E-09  5.14829E-09  5.03576E-09  4.93269E-09  4.83767E-09
   4.74907E-09  4.66536E-09  4.58574E-09  4.50958E-09  4.43646E-09  4.36602E-09  4.29762E-09  4.23091E-09  4.16560E-09  4.10143E-09
   4.03820E-09  3.97570E-09  3.91378E-09  3.85226E-09  3.79104E-09  3.72998E-09  3.66899E-09  3.60796E-09  3.54681E-09  3.48548E-09
   3.42382E-09  3.36184E-09  3.29946E-09  3.23669E-09  3.17351E-09  3.10991E-09  3.04591E-09  2.98149E-09  2.91669E-09  2.85149E-09
   2.78592E-09  2.72000E-09  2.65374E-09  2.58716E-09  2.52028E-09  2.45314E-09  2.38574E-09  2.31814E-09  2.25036E-09  2.18242E-09
   2.11438E-09  2.04626E-09  1.97811E-09  1.90999E-09  1.84190E-09  1.77393E-09  1.70612E-09  1.63855E-09  1.57126E-09  1.50434E-09
   1.43789E-09  1.37196E-09  1.30670E-09  1.24224E-09  1.17872E-09  1.11633E-09  1.05534E-09  9.96051E-10  9.38865E-10  8.84379E-10
   8.33371E-10  7.87083E-10  7.47402E-10  7.17585E-10  7.03732E-10  7.19306E-10  8.02952E-10  1.12588E-09  1.81698E-09  2.73311E-09
   3.77081E-09  4.71973E-09  5.31260E-09  5.43593E-09  5.19988E-09  4.74628E-09  4.00347E-09  2.74772E-09  1.07430E-09 -1.07730E-10
  -4.14600E-10 -5.55358E-10 -6.46153E-10 -7.16161E-10 -7.75641E-10 -8.28970E-10 -8.78285E-10 -9.24727E-10 -9.68940E-10 -1.01131E-09
  -1.05208E-09 -1.09140E-09 -1.12938E-09 -1.16608E-09 -1.20154E-09 -1.23582E-09 -1.26891E-09 -1.30084E-09 -1.33162E-09 -1.36126E-09
  -1.38977E-09 -1.41715E-09 -1.44341E-09 -1.46855E-09 -1.49257E-09 -1.51548E-09 -1.53728E-09 -1.55797E-09 -1.57756E-09 -1.59605E-09
  -1.61345E-09 -1.62975E-09 -1.64496E-09 -1.65909E-09 -1.67214E-09 -1.68412E-09 -1.69503E-09 -1.70487E-09 -1.71366E-09 -1.72139E-09
  -1.72807E-09 -1.73371E-09 -1.73832E-09 -1.74191E-09 -1.74449E-09 -1.74604E-09 -1.74659E-09 -1.74616E-09 -1.74473E-09 -1.74232E-09
