 LCModel (Version 6.3-1R) Copyright: S.W. Provencher.          Ref.: Magn. Reson. Med. 30:672-679 (1993).                
 onepulse 20x16_ftSpec_smooth_lcm
 26 lines in following concentration table = NCONC+1
    Conc.  %SD   /Cr    Metabolite                                         
 1.31E-10 117%   0.000 Ala                                                 
 5.01E-10  58%   0.000 Asp                                                 
    0.000 999%   0.000 Cr                                                  
 3.03E-09  11%   0.000 GABA                                                
 1.14E-09  47%   0.000 Glc                                                 
    0.000 999%   0.000 Gln                                                 
 2.47E-10 150%   0.000 Glu                                                 
    0.000 999%   0.000 Glyc                                                
    0.000 999%   0.000 GPC                                                 
    0.000 999%   0.000 GSH                                                 
 1.36E-10 130%   0.000 Ins                                                 
    0.000 999%   0.000 Lac                                                 
    0.000 999%   0.000 NAAG                                                
 1.09E-09  13%   0.000 NAA                                                 
 8.88E-11  90%   0.000 PCh                                                 
    0.000 999%   0.000 PCr                                                 
    0.000 999%   0.000 PE                                                  
 1.50E-11 773%   0.000 Scyllo                                              
    0.000 999%   0.000 Ser                                                 
 8.82E-11 628%   0.000 Tau                                                 
 8.88E-11  90%   0.000 GPC+PCh                                             
 1.09E-09  13%   0.000 NAA+NAAG                                            
 1.36E-10 130%   0.000 Ins+Glyc                                            
    0.000 999%   0.000 Cr+PCr                                              
 2.47E-10 150%   0.000 Glu+Gln                                             
   6 lines in following misc. output table
  FWHM = 0.067 ppm    S/N =   5                                            
  Data shift = 0.335 ppm                                                   
  Ph:  73 deg      39.2 deg/ppm                                            
  alphaB,S = 1.6E-01,   6.3E+01                                            
   16 spline knots.   Ns = 5(1)                                            
  ( 5) 2 infls.   ( 3) 1 extrs.                                            
  363 points on ppm-axis = NY
      4.250000     4.238821     4.227641     4.216462     4.205282     4.194103     4.182923     4.171744     4.160564     4.149385
      4.138206     4.127026     4.115847     4.104667     4.093488     4.082308     4.071129     4.059949     4.048770     4.037591
      4.026411     4.015232     4.004052     3.992873     3.981693     3.970514     3.959334     3.948155     3.936975     3.925796
      3.914617     3.903437     3.892258     3.881078     3.869899     3.858719     3.847540     3.836360     3.825181     3.814002
      3.802822     3.791643     3.780463     3.769284     3.758104     3.746925     3.735745     3.724566     3.713387     3.702207
      3.691028     3.679848     3.668669     3.657489     3.646310     3.635130     3.623951     3.612772     3.601592     3.590413
      3.579233     3.568054     3.556874     3.545695     3.534515     3.523336     3.512156     3.500977     3.489798     3.478618
      3.467439     3.456259     3.445080     3.433900     3.422721     3.411541     3.400362     3.389183     3.378003     3.366824
      3.355644     3.344465     3.333285     3.322106     3.310926     3.299747     3.288568     3.277388     3.266209     3.255029
      3.243850     3.232670     3.221491     3.210311     3.199132     3.187953     3.176773     3.165594     3.154414     3.143235
      3.132055     3.120876     3.109696     3.098517     3.087337     3.076158     3.064979     3.053799     3.042620     3.031440
      3.020261     3.009081     2.997902     2.986722     2.975543     2.964364     2.953184     2.942005     2.930825     2.919646
      2.908466     2.897287     2.886107     2.874928     2.863749     2.852569     2.841390     2.830210     2.819031     2.807851
      2.796672     2.785492     2.774313     2.763134     2.751954     2.740775     2.729595     2.718416     2.707236     2.696057
      2.684877     2.673698     2.662519     2.651339     2.640160     2.628980     2.617801     2.606621     2.595442     2.584262
      2.573083     2.561903     2.550724     2.539545     2.528365     2.517186     2.506006     2.494827     2.483647     2.472468
      2.461288     2.450109     2.438930     2.427750     2.416571     2.405391     2.394212     2.383032     2.371853     2.360673
      2.349494     2.338315     2.327135     2.315956     2.304776     2.293597     2.282417     2.271238     2.260058     2.248879
      2.237700     2.226520     2.215341     2.204161     2.192982     2.181802     2.170623     2.159443     2.148264     2.137084
      2.125905     2.114726     2.103546     2.092367     2.081187     2.070008     2.058828     2.047649     2.036469     2.025290
      2.014111     2.002931     1.991752     1.980572     1.969393     1.958213     1.947034     1.935854     1.924675     1.913496
      1.902316     1.891137     1.879957     1.868778     1.857598     1.846419     1.835239     1.824060     1.812881     1.801701
      1.790522     1.779342     1.768163     1.756983     1.745804     1.734624     1.723445     1.712265     1.701086     1.689907
      1.678727     1.667548     1.656368     1.645189     1.634009     1.622830     1.611650     1.600471     1.589292     1.578112
      1.566933     1.555753     1.544574     1.533394     1.522215     1.511035     1.499856     1.488677     1.477497     1.466318
      1.455138     1.443959     1.432779     1.421600     1.410420     1.399241     1.388062     1.376882     1.365703     1.354523
      1.343344     1.332164     1.320985     1.309805     1.298626     1.287446     1.276267     1.265088     1.253908     1.242729
      1.231549     1.220370     1.209190     1.198011     1.186831     1.175652     1.164473     1.153293     1.142114     1.130934
      1.119755     1.108575     1.097396     1.086216     1.075037     1.063858     1.052678     1.041499     1.030319     1.019140
      1.007960     0.996781     0.985601     0.974422     0.963243     0.952063     0.940884     0.929704     0.918525     0.907345
      0.896166     0.884986     0.873807     0.862628     0.851448     0.840269     0.829089     0.817910     0.806730     0.795551
      0.784371     0.773192     0.762012     0.750833     0.739654     0.728474     0.717295     0.706115     0.694936     0.683756
      0.672577     0.661397     0.650218     0.639039     0.627859     0.616680     0.605500     0.594321     0.583141     0.571962
      0.560782     0.549603     0.538424     0.527244     0.516065     0.504885     0.493706     0.482526     0.471347     0.460167
      0.448988     0.437809     0.426629     0.415450     0.404270     0.393091     0.381911     0.370732     0.359552     0.348373
      0.337193     0.326014     0.314835     0.303655     0.292476     0.281296     0.270117     0.258937     0.247758     0.236578
      0.225399     0.214220     0.203040
 NY phased data points follow
  -2.19241E-09  9.45265E-10  3.52034E-09  5.59020E-09  5.35263E-09  4.17475E-09  3.43499E-09  2.71557E-09  2.12468E-09  1.65536E-09
   1.85474E-09  1.94595E-09  1.89344E-09  2.18460E-09  3.19376E-09  2.95586E-09  4.23318E-09  5.11117E-09  4.50930E-09  4.41286E-09
   4.32532E-09  4.69262E-09  4.72962E-09  3.19880E-09  3.80854E-09  3.67160E-09  5.36560E-09  5.71633E-09  6.10987E-09  4.94043E-09
   4.73201E-09  4.32360E-09  4.85047E-09  7.19159E-09  8.78107E-09  9.69254E-09  9.12592E-09  8.56766E-09  6.42433E-09  5.35576E-09
   5.46402E-09  5.73510E-09  4.29236E-09  4.37545E-09  5.05910E-09  4.05101E-09  3.64339E-09  3.83915E-09  3.46022E-09  2.61221E-09
   2.31073E-09  2.74978E-09  3.12602E-09  3.25777E-09  3.88588E-09  2.78980E-09  2.22948E-09  2.44122E-09  2.16665E-09  1.32823E-09
   1.83291E-09  2.94279E-09  3.18733E-09  4.16929E-09  7.84490E-09  1.20602E-08  1.27737E-08  1.08337E-08  8.98426E-09  7.00324E-09
   6.22923E-09  5.80515E-09  4.74433E-09  3.73261E-09  2.59210E-09  3.29258E-09  2.42259E-09  1.65921E-09  2.65611E-09  3.64747E-09
   5.81952E-09  1.01644E-08  1.38710E-08  1.34876E-08  1.09026E-08  9.54167E-09  8.21848E-09  7.98991E-09  7.43388E-09  6.60002E-09
   6.62120E-09  6.25499E-09  5.67644E-09  5.44764E-09  4.76803E-09  4.73811E-09  3.76735E-09  4.37278E-09  3.44971E-09  2.67700E-09
   2.98971E-09  3.46931E-09  3.18242E-09  2.78978E-09  4.34284E-09  3.81315E-09  3.49805E-09  3.64886E-09  3.30137E-09  3.57115E-09
   2.65527E-09  1.92679E-09  1.95314E-09  1.76082E-09  2.21640E-09  2.81672E-09  3.72976E-09  3.69897E-09  3.26013E-09  3.76830E-09
   3.92843E-09  4.32887E-09  3.19782E-09  3.15904E-09  2.88323E-09  1.84067E-09  1.89241E-09  2.00215E-09  2.00345E-09  1.94817E-09
   2.93247E-09  2.44064E-09  2.43806E-09  2.61226E-09  2.80472E-09  2.70435E-09  2.64620E-09  2.17122E-09  1.66992E-09  2.03465E-09
   3.27081E-09  3.54767E-09  4.91681E-09  4.98560E-09  3.37707E-09  3.17532E-09  3.63248E-09  4.68317E-09  4.03858E-09  4.69680E-09
   3.68307E-09  3.78225E-09  3.65942E-09  3.60198E-09  3.55897E-09  3.45069E-09  3.20647E-09  3.80790E-09  3.67734E-09  4.13019E-09
   4.37829E-09  5.13716E-09  4.97520E-09  4.98249E-09  5.28917E-09  5.31710E-09  5.87552E-09  6.57403E-09  7.05824E-09  9.01714E-09
   1.02714E-08  1.30224E-08  1.72086E-08  1.91609E-08  1.53585E-08  1.06646E-08  7.69300E-09  6.14197E-09  5.54146E-09  4.86846E-09
   3.17997E-09  3.71627E-09  2.64691E-09  2.36852E-09  1.69805E-09  1.51191E-09  8.92326E-10  1.13116E-09  4.87201E-10 -5.45005E-11
  -3.55427E-10 -6.31761E-10 -1.64551E-09 -1.89762E-09 -2.86300E-09 -3.78906E-09 -4.75918E-09 -4.76352E-09 -5.81948E-09 -7.23475E-09
  -7.56685E-09 -7.74314E-09 -8.47296E-09 -8.29366E-09 -8.60159E-09 -8.17063E-09 -7.96677E-09 -8.15682E-09 -7.62274E-09 -6.94226E-09
  -6.62878E-09 -5.26120E-09 -5.04062E-09 -3.74468E-09 -3.40474E-09 -2.69873E-09 -2.12246E-09 -2.70950E-09 -1.33963E-09 -2.29912E-09
  -1.36815E-09 -2.52919E-09 -2.47296E-09 -1.87222E-09 -2.89537E-09 -1.98020E-09 -1.33583E-09 -1.90815E-09 -2.07115E-09 -1.57211E-09
  -1.75738E-09 -1.95620E-09 -1.79754E-09 -2.17940E-09 -2.36490E-09 -2.10016E-09 -2.31713E-09 -1.66241E-09 -1.39415E-09 -1.72548E-09
  -1.13186E-09 -1.68770E-09 -1.36399E-09 -1.66820E-09 -2.39944E-09 -2.03071E-09 -1.55972E-09 -1.87571E-09 -1.84944E-09 -1.66270E-09
  -1.45467E-09 -1.26342E-09 -5.45478E-10 -8.94811E-10 -1.27436E-09 -1.07748E-09 -9.91621E-10 -1.50913E-09 -2.00573E-09 -2.06749E-09
  -1.73048E-09 -2.19010E-09 -2.34410E-09 -2.58578E-09 -2.36213E-09 -1.25420E-09 -1.41803E-09 -1.03998E-09 -1.45941E-09 -2.98398E-10
  -3.59884E-10 -2.88744E-10 -5.97169E-10 -2.27033E-10  2.98127E-11 -7.37257E-10 -1.44827E-09 -7.63483E-10 -1.40747E-09 -1.89906E-09
  -1.93076E-09 -1.68975E-09 -1.81021E-09 -2.16206E-09 -1.71439E-09 -1.46637E-09 -1.88563E-09 -1.38684E-09 -1.69148E-09 -1.34884E-09
  -1.20735E-09 -1.25890E-09 -1.57418E-09 -1.01276E-09 -1.02900E-09 -1.09380E-09 -1.37689E-09 -1.04561E-09 -1.48785E-09 -1.57909E-09
  -8.30953E-10 -1.06498E-09 -1.33780E-09 -1.19935E-09 -8.48680E-10 -1.09316E-09 -9.85210E-10 -1.03000E-09 -1.01387E-09 -8.75772E-10
  -1.43977E-09 -7.11155E-10 -1.04213E-09 -5.82576E-10 -1.15736E-09 -1.25088E-09 -7.63375E-10 -3.28893E-10 -9.46299E-10 -9.34683E-10
  -6.96807E-10 -9.02788E-10 -6.86780E-10 -1.22002E-09 -6.27160E-10 -6.80538E-10 -5.90200E-10 -5.48070E-10 -8.32411E-10 -1.59552E-10
  -7.13755E-10 -7.48996E-10 -9.16343E-10 -5.82140E-10 -8.04455E-10 -6.40777E-10 -8.81515E-10 -5.84562E-10 -7.07756E-10 -6.45020E-10
  -2.94089E-10 -2.81118E-10 -5.94702E-10 -3.41243E-10 -6.03440E-10 -5.97030E-10 -1.03810E-09 -3.70065E-10 -3.91034E-10 -3.97722E-10
  -2.69673E-10 -3.83182E-10 -1.16338E-10 -2.37396E-10 -4.46979E-10 -3.85638E-10 -1.92114E-10 -2.69997E-10 -1.69390E-10 -7.84519E-10
  -6.35440E-10 -3.89356E-10 -2.87608E-10
 NY points of the fit to the data follow
   2.15672E-09  2.63584E-09  3.07710E-09  3.39460E-09  3.50252E-09  3.37782E-09  3.06369E-09  2.68093E-09  2.36927E-09  2.15193E-09
   2.09033E-09  2.14158E-09  2.27078E-09  2.47532E-09  2.77495E-09  3.13166E-09  3.55156E-09  4.05230E-09  4.57222E-09  4.98990E-09
   5.18962E-09  5.02687E-09  4.55996E-09  4.08257E-09  3.73677E-09  3.61057E-09  3.80317E-09  4.30197E-09  4.94230E-09  5.46930E-09
   5.68626E-09  5.92749E-09  6.40437E-09  6.85258E-09  7.23564E-09  7.73180E-09  8.16653E-09  8.26463E-09  7.86021E-09  7.10132E-09
   6.29273E-09  5.42892E-09  4.36270E-09  3.51898E-09  3.01326E-09  2.59778E-09  2.38512E-09  2.42884E-09  2.58961E-09  2.72148E-09
   2.76415E-09  2.71823E-09  2.68566E-09  2.70937E-09  2.78982E-09  2.89581E-09  2.97803E-09  2.99693E-09  2.95171E-09  2.95398E-09
   3.19388E-09  3.77965E-09  4.51632E-09  5.33219E-09  6.46858E-09  7.56529E-09  8.37275E-09  8.94284E-09  9.24243E-09  9.13802E-09
   8.49963E-09  7.36230E-09  6.10562E-09  5.12402E-09  4.20752E-09  3.43587E-09  3.30764E-09  3.82289E-09  4.62476E-09  5.88074E-09
   7.54683E-09  9.48937E-09  1.13189E-08  1.21503E-08  1.15873E-08  1.02557E-08  8.82511E-09  7.57511E-09  6.61771E-09  6.34608E-09
   6.24374E-09  6.16814E-09  5.86473E-09  5.35175E-09  4.96376E-09  4.55343E-09  4.03388E-09  3.66716E-09  3.40827E-09  3.18486E-09
   3.06677E-09  3.01553E-09  3.01678E-09  3.08235E-09  3.17550E-09  3.25441E-09  3.29556E-09  3.30563E-09  3.29539E-09  3.25271E-09
   3.16886E-09  3.07250E-09  3.00604E-09  2.94272E-09  2.89605E-09  2.89356E-09  2.90613E-09  2.92524E-09  2.94776E-09  2.97218E-09
   2.99765E-09  3.02360E-09  3.04959E-09  3.07534E-09  3.10059E-09  3.12514E-09  3.14882E-09  3.17150E-09  3.19303E-09  3.21329E-09
   3.23217E-09  3.24956E-09  3.26537E-09  3.27948E-09  3.29181E-09  3.30227E-09  3.31077E-09  3.31725E-09  3.32162E-09  3.32381E-09
   3.32372E-09  3.32125E-09  3.31627E-09  3.30867E-09  3.29834E-09  3.28516E-09  3.26904E-09  3.24986E-09  3.22754E-09  3.20200E-09
   3.17319E-09  3.14108E-09  3.10566E-09  3.06696E-09  3.02507E-09  2.98016E-09  2.93251E-09  2.88255E-09  2.83102E-09  2.77905E-09
   2.72849E-09  2.68252E-09  2.64690E-09  2.63320E-09  2.66874E-09  2.83984E-09  3.54353E-09  5.00252E-09  6.93272E-09  9.35955E-09
   1.23979E-08  1.55743E-08  1.76744E-08  1.75629E-08  1.52080E-08  1.16056E-08  7.81540E-09  4.47199E-09  2.24209E-09  1.24893E-09
   7.55560E-10  4.15444E-10  1.42698E-10 -9.36087E-11 -3.07432E-10 -5.05956E-10 -6.93137E-10 -8.71263E-10 -1.04165E-09 -1.20507E-09
  -1.36192E-09 -1.51237E-09 -1.65641E-09 -1.79392E-09 -1.92472E-09 -2.04858E-09 -2.16530E-09 -2.27504E-09 -2.37803E-09 -2.47444E-09
  -2.56445E-09 -2.64822E-09 -2.72591E-09 -2.79766E-09 -2.86362E-09 -2.92391E-09 -2.97867E-09 -3.02802E-09 -3.07208E-09 -3.11099E-09
  -3.14486E-09 -3.17380E-09 -3.19793E-09 -3.21738E-09 -3.23225E-09 -3.24265E-09 -3.24871E-09 -3.25052E-09 -3.24821E-09 -3.24187E-09
  -3.23163E-09 -3.21758E-09 -3.19985E-09 -3.17854E-09 -3.15378E-09 -3.12578E-09 -3.09472E-09 -3.06080E-09 -3.02423E-09 -2.98520E-09
  -2.94392E-09 -2.90058E-09 -2.85538E-09 -2.80851E-09 -2.76017E-09 -2.71058E-09 -2.65990E-09 -2.60837E-09 -2.55614E-09 -2.50345E-09
  -2.45048E-09 -2.39742E-09 -2.34448E-09 -2.29186E-09 -2.23973E-09 -2.18832E-09 -2.13781E-09 -2.08839E-09 -2.04028E-09 -1.99366E-09
  -1.94872E-09 -1.90568E-09 -1.86461E-09 -1.82545E-09 -1.78815E-09 -1.75265E-09 -1.71888E-09 -1.68678E-09 -1.65628E-09 -1.62732E-09
  -1.59984E-09 -1.57377E-09 -1.54905E-09 -1.52562E-09 -1.50342E-09 -1.48238E-09 -1.46242E-09 -1.44352E-09 -1.42558E-09 -1.40855E-09
  -1.39236E-09 -1.37696E-09 -1.36227E-09 -1.34823E-09 -1.33479E-09 -1.32187E-09 -1.30942E-09 -1.29737E-09 -1.28566E-09 -1.27422E-09
  -1.26302E-09 -1.25205E-09 -1.24127E-09 -1.23068E-09 -1.22027E-09 -1.21000E-09 -1.19988E-09 -1.18988E-09 -1.17998E-09 -1.17018E-09
  -1.16045E-09 -1.15077E-09 -1.14113E-09 -1.13152E-09 -1.12192E-09 -1.11230E-09 -1.10266E-09 -1.09298E-09 -1.08325E-09 -1.07343E-09
  -1.06354E-09 -1.05353E-09 -1.04339E-09 -1.03312E-09 -1.02270E-09 -1.01210E-09 -1.00132E-09 -9.90324E-10 -9.79131E-10 -9.67745E-10
  -9.56174E-10 -9.44430E-10 -9.32524E-10 -9.20460E-10 -9.08252E-10 -8.95909E-10 -8.83439E-10 -8.70854E-10 -8.58163E-10 -8.45373E-10
  -8.32500E-10 -8.19545E-10 -8.06522E-10 -7.93445E-10 -7.80314E-10 -7.67150E-10 -7.53954E-10 -7.40736E-10 -7.27510E-10 -7.14287E-10
  -7.01068E-10 -6.87870E-10 -6.74699E-10 -6.61568E-10 -6.48485E-10 -6.35455E-10 -6.22484E-10 -6.09570E-10 -5.96709E-10 -5.83901E-10
  -5.71145E-10 -5.58437E-10 -5.45777E-10 -5.33162E-10 -5.20595E-10 -5.08067E-10 -4.95584E-10 -4.83140E-10 -4.70734E-10 -4.58365E-10
  -4.46029E-10 -4.33729E-10 -4.21460E-10 -4.09222E-10 -3.97011E-10 -3.84830E-10 -3.72673E-10 -3.60539E-10 -3.48427E-10 -3.36338E-10
  -3.24268E-10 -3.12217E-10 -3.00178E-10
 NY background values follow
    -2.355E-09   -2.305E-09   -2.255E-09   -2.205E-09   -2.155E-09   -2.106E-09   -2.056E-09   -2.007E-09   -1.958E-09   -1.909E-09
    -1.861E-09   -1.812E-09   -1.765E-09   -1.717E-09   -1.670E-09   -1.623E-09   -1.577E-09   -1.532E-09   -1.487E-09   -1.442E-09
    -1.398E-09   -1.355E-09   -1.312E-09   -1.270E-09   -1.229E-09   -1.188E-09   -1.149E-09   -1.110E-09   -1.072E-09   -1.034E-09
    -9.981E-10   -9.624E-10   -9.276E-10   -8.935E-10   -8.600E-10   -8.273E-10   -7.952E-10   -7.637E-10   -7.328E-10   -7.024E-10
    -6.726E-10   -6.432E-10   -6.143E-10   -5.859E-10   -5.578E-10   -5.301E-10   -5.027E-10   -4.757E-10   -4.489E-10   -4.224E-10
    -3.960E-10   -3.699E-10   -3.439E-10   -3.180E-10   -2.923E-10   -2.665E-10   -2.408E-10   -2.151E-10   -1.894E-10   -1.636E-10
    -1.376E-10   -1.116E-10   -8.531E-11   -5.884E-11   -3.211E-11   -5.088E-12    2.226E-11    4.997E-11    7.807E-11    1.066E-10
     1.356E-10    1.651E-10    1.952E-10    2.258E-10    2.571E-10    2.890E-10    3.216E-10    3.549E-10    3.889E-10    4.238E-10
     4.595E-10    4.960E-10    5.335E-10    5.718E-10    6.112E-10    6.515E-10    6.927E-10    7.348E-10    7.777E-10    8.213E-10
     8.656E-10    9.106E-10    9.561E-10    1.002E-09    1.049E-09    1.096E-09    1.143E-09    1.190E-09    1.238E-09    1.286E-09
     1.334E-09    1.382E-09    1.431E-09    1.479E-09    1.527E-09    1.575E-09    1.622E-09    1.670E-09    1.717E-09    1.764E-09
     1.810E-09    1.856E-09    1.901E-09    1.946E-09    1.990E-09    2.033E-09    2.076E-09    2.117E-09    2.158E-09    2.198E-09
     2.236E-09    2.274E-09    2.310E-09    2.344E-09    2.378E-09    2.410E-09    2.440E-09    2.469E-09    2.497E-09    2.522E-09
     2.546E-09    2.568E-09    2.587E-09    2.605E-09    2.621E-09    2.635E-09    2.646E-09    2.655E-09    2.662E-09    2.667E-09
     2.669E-09    2.668E-09    2.664E-09    2.658E-09    2.649E-09    2.636E-09    2.620E-09    2.601E-09    2.579E-09    2.552E-09
     2.522E-09    2.488E-09    2.450E-09    2.408E-09    2.361E-09    2.310E-09    2.255E-09    2.195E-09    2.130E-09    2.060E-09
     1.984E-09    1.904E-09    1.819E-09    1.728E-09    1.631E-09    1.528E-09    1.420E-09    1.306E-09    1.186E-09    1.060E-09
     9.284E-10    7.924E-10    6.519E-10    5.076E-10    3.598E-10    2.090E-10    5.564E-11   -9.984E-11   -2.570E-10   -4.153E-10
    -5.744E-10   -7.339E-10   -8.931E-10   -1.052E-09   -1.209E-09   -1.366E-09   -1.520E-09   -1.672E-09   -1.821E-09   -1.966E-09
    -2.108E-09   -2.246E-09   -2.379E-09   -2.508E-09   -2.630E-09   -2.747E-09   -2.857E-09   -2.961E-09   -3.059E-09   -3.150E-09
    -3.236E-09   -3.316E-09   -3.390E-09   -3.459E-09   -3.522E-09   -3.579E-09   -3.631E-09   -3.678E-09   -3.720E-09   -3.757E-09
    -3.789E-09   -3.816E-09   -3.838E-09   -3.856E-09   -3.869E-09   -3.878E-09   -3.883E-09   -3.883E-09   -3.880E-09   -3.872E-09
    -3.861E-09   -3.845E-09   -3.827E-09   -3.804E-09   -3.778E-09   -3.750E-09   -3.718E-09   -3.683E-09   -3.645E-09   -3.605E-09
    -3.563E-09   -3.519E-09   -3.473E-09   -3.426E-09   -3.377E-09   -3.326E-09   -3.275E-09   -3.223E-09   -3.170E-09   -3.117E-09
    -3.063E-09   -3.009E-09   -2.956E-09   -2.903E-09   -2.850E-09   -2.798E-09   -2.747E-09   -2.697E-09   -2.648E-09   -2.601E-09
    -2.556E-09   -2.512E-09   -2.471E-09   -2.431E-09   -2.393E-09   -2.358E-09   -2.323E-09   -2.291E-09   -2.260E-09   -2.230E-09
    -2.203E-09   -2.176E-09   -2.151E-09   -2.127E-09   -2.104E-09   -2.083E-09   -2.063E-09   -2.043E-09   -2.025E-09   -2.008E-09
    -1.991E-09   -1.975E-09   -1.960E-09   -1.946E-09   -1.932E-09   -1.919E-09   -1.906E-09   -1.893E-09   -1.881E-09   -1.870E-09
    -1.858E-09   -1.847E-09   -1.836E-09   -1.825E-09   -1.814E-09   -1.803E-09   -1.793E-09   -1.782E-09   -1.772E-09   -1.762E-09
    -1.752E-09   -1.742E-09   -1.732E-09   -1.722E-09   -1.712E-09   -1.702E-09   -1.692E-09   -1.682E-09   -1.672E-09   -1.662E-09
    -1.652E-09   -1.641E-09   -1.631E-09   -1.620E-09   -1.609E-09   -1.598E-09   -1.587E-09   -1.576E-09   -1.564E-09   -1.553E-09
    -1.541E-09   -1.529E-09   -1.517E-09   -1.504E-09   -1.492E-09   -1.479E-09   -1.466E-09   -1.453E-09   -1.440E-09   -1.427E-09
    -1.414E-09   -1.400E-09   -1.387E-09   -1.374E-09   -1.360E-09   -1.347E-09   -1.333E-09   -1.320E-09   -1.306E-09   -1.292E-09
    -1.279E-09   -1.265E-09   -1.252E-09   -1.238E-09   -1.225E-09   -1.212E-09   -1.198E-09   -1.185E-09   -1.172E-09   -1.159E-09
    -1.145E-09   -1.132E-09   -1.119E-09   -1.106E-09   -1.093E-09   -1.081E-09   -1.068E-09   -1.055E-09   -1.042E-09   -1.029E-09
    -1.017E-09   -1.004E-09   -9.913E-10   -9.787E-10   -9.661E-10   -9.535E-10   -9.410E-10   -9.285E-10   -9.160E-10   -9.035E-10
    -8.911E-10   -8.786E-10   -8.662E-10
 Ala      Conc. = 1.31E-10
  -2.25970E-09 -2.19808E-09 -2.14032E-09 -2.08684E-09 -2.03619E-09 -1.98754E-09 -1.94392E-09 -1.90716E-09 -1.87000E-09 -1.83131E-09
  -1.79764E-09 -1.76246E-09 -1.72283E-09 -1.68355E-09 -1.64300E-09 -1.60040E-09 -1.55696E-09 -1.51328E-09 -1.46964E-09 -1.42622E-09
  -1.38317E-09 -1.34057E-09 -1.29850E-09 -1.25700E-09 -1.21614E-09 -1.17598E-09 -1.13653E-09 -1.09784E-09 -1.05996E-09 -1.02290E-09
  -9.86651E-10 -9.51170E-10 -9.16438E-10 -8.82426E-10 -8.49104E-10 -8.16444E-10 -7.84419E-10 -7.52997E-10 -7.22147E-10 -6.91837E-10
  -6.62047E-10 -6.32733E-10 -6.03878E-10 -5.75442E-10 -5.47404E-10 -5.19720E-10 -4.92372E-10 -4.65332E-10 -4.38551E-10 -4.12015E-10
  -3.85693E-10 -3.59541E-10 -3.33542E-10 -3.07660E-10 -2.81882E-10 -2.56138E-10 -2.30417E-10 -2.04697E-10 -1.78932E-10 -1.53088E-10
  -1.27130E-10 -1.01020E-10 -7.47233E-11 -4.82019E-11 -2.14211E-11  5.65425E-12  3.30632E-11  6.08409E-11  8.90234E-11  1.17648E-10
   1.46752E-10  1.76369E-10  2.06541E-10  2.37300E-10  2.68688E-10  3.00737E-10  3.33490E-10  3.66984E-10  4.01257E-10  4.36345E-10
   4.72297E-10  5.09143E-10  5.46935E-10  5.85707E-10  6.25512E-10  6.66345E-10  7.08173E-10  7.50957E-10  7.94668E-10  8.39282E-10
   8.84788E-10  9.31194E-10  9.78530E-10  1.02687E-09  1.07637E-09  1.12729E-09  1.18014E-09  1.23599E-09  1.29737E-09  1.37230E-09
   1.47468E-09  1.58200E-09  1.70317E-09  1.86272E-09  2.03141E-09  2.17209E-09  2.26447E-09  2.31772E-09  2.34451E-09  2.33399E-09
   2.27843E-09  2.20693E-09  2.16233E-09  2.11833E-09  2.08883E-09  2.10168E-09  2.12815E-09  2.15986E-09  2.19383E-09  2.22868E-09
   2.26365E-09  2.29828E-09  2.33225E-09  2.36533E-09  2.39736E-09  2.42818E-09  2.45767E-09  2.48572E-09  2.51224E-09  2.53712E-09
   2.56029E-09  2.58166E-09  2.60115E-09  2.61868E-09  2.63417E-09  2.64755E-09  2.65874E-09  2.66766E-09  2.67426E-09  2.67844E-09
   2.68014E-09  2.67924E-09  2.67562E-09  2.66913E-09  2.65965E-09  2.64705E-09  2.63120E-09  2.61196E-09  2.58922E-09  2.56283E-09
   2.53268E-09  2.49862E-09  2.46053E-09  2.41830E-09  2.37178E-09  2.32085E-09  2.26540E-09  2.20529E-09  2.14043E-09  2.07068E-09
   1.99596E-09  1.91620E-09  1.83136E-09  1.74149E-09  1.64690E-09  1.54864E-09  1.45189E-09  1.37002E-09  1.29076E-09  1.21473E-09
   1.14800E-09  1.08536E-09  1.00184E-09  8.67803E-10  6.77618E-10  4.54154E-10  2.23438E-10 -9.51100E-13 -2.08542E-10 -3.82642E-10
  -5.48565E-10 -7.11805E-10 -8.73535E-10 -1.03393E-09 -1.19282E-09 -1.34994E-09 -1.50491E-09 -1.65736E-09 -1.80685E-09 -1.95298E-09
  -2.09531E-09 -2.23342E-09 -2.36685E-09 -2.49515E-09 -2.61789E-09 -2.73464E-09 -2.84504E-09 -2.94914E-09 -3.04706E-09 -3.13889E-09
  -3.22474E-09 -3.30472E-09 -3.37894E-09 -3.44750E-09 -3.51051E-09 -3.56807E-09 -3.62030E-09 -3.66729E-09 -3.70916E-09 -3.74601E-09
  -3.77795E-09 -3.80507E-09 -3.82749E-09 -3.84532E-09 -3.85866E-09 -3.86762E-09 -3.87229E-09 -3.87279E-09 -3.86923E-09 -3.86170E-09
  -3.85031E-09 -3.83518E-09 -3.81640E-09 -3.79408E-09 -3.76836E-09 -3.73942E-09 -3.70747E-09 -3.67269E-09 -3.63529E-09 -3.59546E-09
  -3.55339E-09 -3.50929E-09 -3.46336E-09 -3.41579E-09 -3.36676E-09 -3.31649E-09 -3.26517E-09 -3.21299E-09 -3.16015E-09 -3.10685E-09
  -3.05329E-09 -2.99966E-09 -2.94616E-09 -2.89298E-09 -2.84032E-09 -2.78837E-09 -2.73734E-09 -2.68742E-09 -2.63881E-09 -2.59170E-09
  -2.54628E-09 -2.50277E-09 -2.46123E-09 -2.42161E-09 -2.38387E-09 -2.34792E-09 -2.31371E-09 -2.28118E-09 -2.25025E-09 -2.22087E-09
  -2.19298E-09 -2.16650E-09 -2.14138E-09 -2.11755E-09 -2.09495E-09 -2.07352E-09 -2.05317E-09 -2.03388E-09 -2.01557E-09 -1.99816E-09
  -1.98159E-09 -1.96582E-09 -1.95075E-09 -1.93635E-09 -1.92255E-09 -1.90927E-09 -1.89646E-09 -1.88405E-09 -1.87199E-09 -1.86020E-09
  -1.84865E-09 -1.83732E-09 -1.82620E-09 -1.81527E-09 -1.80451E-09 -1.79390E-09 -1.78344E-09 -1.77310E-09 -1.76286E-09 -1.75272E-09
  -1.74265E-09 -1.73264E-09 -1.72266E-09 -1.71272E-09 -1.70278E-09 -1.69283E-09 -1.68286E-09 -1.67285E-09 -1.66279E-09 -1.65264E-09
  -1.64241E-09 -1.63207E-09 -1.62161E-09 -1.61101E-09 -1.60025E-09 -1.58932E-09 -1.57821E-09 -1.56689E-09 -1.55537E-09 -1.54365E-09
  -1.53175E-09 -1.51967E-09 -1.50744E-09 -1.49504E-09 -1.48250E-09 -1.46983E-09 -1.45703E-09 -1.44411E-09 -1.43108E-09 -1.41796E-09
  -1.40475E-09 -1.39146E-09 -1.37810E-09 -1.36469E-09 -1.35122E-09 -1.33772E-09 -1.32419E-09 -1.31063E-09 -1.29706E-09 -1.28350E-09
  -1.26994E-09 -1.25640E-09 -1.24288E-09 -1.22940E-09 -1.21598E-09 -1.20260E-09 -1.18928E-09 -1.17602E-09 -1.16280E-09 -1.14964E-09
  -1.13653E-09 -1.12347E-09 -1.11046E-09 -1.09749E-09 -1.08456E-09 -1.07167E-09 -1.05883E-09 -1.04602E-09 -1.03326E-09 -1.02052E-09
  -1.00782E-09 -9.95150E-10 -9.82511E-10 -9.69902E-10 -9.57319E-10 -9.44763E-10 -9.32230E-10 -9.19717E-10 -9.07226E-10 -8.94756E-10
  -8.82303E-10 -8.69867E-10 -8.57441E-10
 Asp      Conc. = 5.01E-10
  -1.74897E-09 -1.76586E-09 -1.79565E-09 -1.84064E-09 -1.88013E-09 -1.91318E-09 -1.92373E-09 -1.91641E-09 -1.88771E-09 -1.85028E-09
  -1.80848E-09 -1.76435E-09 -1.71899E-09 -1.67302E-09 -1.62703E-09 -1.58113E-09 -1.53537E-09 -1.48982E-09 -1.44455E-09 -1.39961E-09
  -1.35505E-09 -1.31089E-09 -1.26719E-09 -1.22394E-09 -1.18114E-09 -1.13883E-09 -1.09696E-09 -1.05551E-09 -1.01443E-09 -9.73629E-10
  -9.32923E-10 -8.92045E-10 -8.50627E-10 -8.08076E-10 -7.63367E-10 -7.14402E-10 -6.56279E-10 -5.93262E-10 -5.20441E-10 -4.45229E-10
  -3.71338E-10 -3.04748E-10 -2.50359E-10 -2.04302E-10 -1.60248E-10 -8.50092E-11  1.92815E-11  1.61570E-10  3.49898E-10  5.19780E-10
   6.14482E-10  6.07762E-10  5.33893E-10  4.40025E-10  3.49605E-10  2.74289E-10  2.06970E-10  1.69727E-10  1.26227E-10  8.99188E-11
   9.70544E-11  1.21642E-10  1.37845E-10  1.48088E-10  1.53041E-10  1.50488E-10  1.45029E-10  1.52607E-10  1.67186E-10  1.85897E-10
   2.07408E-10  2.31007E-10  2.56283E-10  2.82977E-10  3.10932E-10  3.40037E-10  3.70230E-10  4.01470E-10  4.33734E-10  4.67009E-10
   5.01303E-10  5.36614E-10  5.72963E-10  6.10358E-10  6.48828E-10  6.88343E-10  7.28844E-10  7.70265E-10  8.12542E-10  8.55613E-10
   8.99416E-10  9.43892E-10  9.88979E-10  1.03462E-09  1.08075E-09  1.12732E-09  1.17426E-09  1.22153E-09  1.26905E-09  1.31678E-09
   1.36465E-09  1.41261E-09  1.46061E-09  1.50858E-09  1.55646E-09  1.60421E-09  1.65176E-09  1.69907E-09  1.74606E-09  1.79269E-09
   1.83890E-09  1.88463E-09  1.92983E-09  1.97443E-09  2.01837E-09  2.06156E-09  2.10394E-09  2.14545E-09  2.18600E-09  2.22554E-09
   2.26398E-09  2.30126E-09  2.33731E-09  2.37205E-09  2.40543E-09  2.43736E-09  2.46778E-09  2.49661E-09  2.52379E-09  2.54925E-09
   2.57292E-09  2.59472E-09  2.61459E-09  2.63246E-09  2.64825E-09  2.66190E-09  2.67334E-09  2.68249E-09  2.68929E-09  2.69367E-09
   2.69555E-09  2.69483E-09  2.69137E-09  2.68505E-09  2.67574E-09  2.66330E-09  2.64762E-09  2.62856E-09  2.60601E-09  2.57982E-09
   2.54988E-09  2.51607E-09  2.47827E-09  2.43635E-09  2.39020E-09  2.33971E-09  2.28478E-09  2.22533E-09  2.16127E-09  2.09255E-09
   2.01918E-09  1.94124E-09  1.85896E-09  1.77287E-09  1.68435E-09  1.59724E-09  1.52736E-09  1.53274E-09  1.56779E-09  1.62929E-09
   1.74056E-09  1.88728E-09  1.97772E-09  1.89209E-09  1.59572E-09  1.16943E-09  7.15424E-10  2.88659E-10 -7.53062E-11 -3.02517E-10
  -4.89340E-10 -6.63677E-10 -8.32248E-10 -9.97249E-10 -1.15943E-09 -1.31899E-09 -1.47585E-09 -1.62979E-09 -1.78048E-09 -1.92759E-09
  -2.07074E-09 -2.20953E-09 -2.34355E-09 -2.47235E-09 -2.59554E-09 -2.71266E-09 -2.82341E-09 -2.92781E-09 -3.02599E-09 -3.11806E-09
  -3.20412E-09 -3.28430E-09 -3.35869E-09 -3.42741E-09 -3.49057E-09 -3.54827E-09 -3.60062E-09 -3.64773E-09 -3.68970E-09 -3.72665E-09
  -3.75868E-09 -3.78589E-09 -3.80839E-09 -3.82629E-09 -3.83970E-09 -3.84872E-09 -3.85346E-09 -3.85402E-09 -3.85051E-09 -3.84303E-09
  -3.83170E-09 -3.81661E-09 -3.79788E-09 -3.77560E-09 -3.74992E-09 -3.72102E-09 -3.68910E-09 -3.65436E-09 -3.61699E-09 -3.57719E-09
