 LCModel (Version 6.3-1R) Copyright: S.W. Provencher.          Ref.: Magn. Reson. Med. 30:672-679 (1993).                
 onepulse 20x15_ftSpec_smooth_lcm
 26 lines in following concentration table = NCONC+1
    Conc.  %SD   /Cr    Metabolite                                         
 1.32E-10 116%   0.000 Ala                                                 
 4.53E-10  64%   0.000 Asp                                                 
    0.000 999%   0.000 Cr                                                  
 3.21E-09   9%   0.000 GABA                                                
 1.23E-09  39%   0.000 Glc                                                 
    0.000 999%   0.000 Gln                                                 
 1.15E-10 270%   0.000 Glu                                                 
    0.000 999%   0.000 Glyc                                                
    0.000 999%   0.000 GPC                                                 
    0.000 999%   0.000 GSH                                                 
 1.33E-10 132%   0.000 Ins                                                 
    0.000 999%   0.000 Lac                                                 
    0.000 999%   0.000 NAAG                                                
 1.11E-09  12%   0.000 NAA                                                 
 9.53E-11  75%   0.000 PCh                                                 
    0.000 999%   0.000 PCr                                                 
    0.000 999%   0.000 PE                                                  
 6.20E-12 999%   0.000 Scyllo                                              
    0.000 999%   0.000 Ser                                                 
 1.33E-11 999%   0.000 Tau                                                 
 9.53E-11  75%   0.000 GPC+PCh                                             
 1.11E-09  12%   0.000 NAA+NAAG                                            
 1.33E-10 132%   0.000 Ins+Glyc                                            
    0.000 999%   0.000 Cr+PCr                                              
 1.15E-10 270%   0.000 Glu+Gln                                             
   6 lines in following misc. output table
  FWHM = 0.056 ppm    S/N =   5                                            
  Data shift = 0.335 ppm                                                   
  Ph:  80 deg      38.7 deg/ppm                                            
  alphaB,S = 1.7E-01,   4.1E+01                                            
   16 spline knots.   Ns = 5(1)                                            
  ( 5) 2 infls.   ( 3) 1 extrs.                                            
  363 points on ppm-axis = NY
      4.250000     4.238821     4.227641     4.216462     4.205282     4.194103     4.182923     4.171744     4.160564     4.149385
      4.138206     4.127026     4.115847     4.104667     4.093488     4.082308     4.071129     4.059949     4.048770     4.037591
      4.026411     4.015232     4.004052     3.992873     3.981693     3.970514     3.959334     3.948155     3.936975     3.925796
      3.914617     3.903437     3.892258     3.881078     3.869899     3.858719     3.847540     3.836360     3.825181     3.814002
      3.802822     3.791643     3.780463     3.769284     3.758104     3.746925     3.735745     3.724566     3.713387     3.702207
      3.691028     3.679848     3.668669     3.657489     3.646310     3.635130     3.623951     3.612772     3.601592     3.590413
      3.579233     3.568054     3.556874     3.545695     3.534515     3.523336     3.512156     3.500977     3.489798     3.478618
      3.467439     3.456259     3.445080     3.433900     3.422721     3.411541     3.400362     3.389183     3.378003     3.366824
      3.355644     3.344465     3.333285     3.322106     3.310926     3.299747     3.288568     3.277388     3.266209     3.255029
      3.243850     3.232670     3.221491     3.210311     3.199132     3.187953     3.176773     3.165594     3.154414     3.143235
      3.132055     3.120876     3.109696     3.098517     3.087337     3.076158     3.064979     3.053799     3.042620     3.031440
      3.020261     3.009081     2.997902     2.986722     2.975543     2.964364     2.953184     2.942005     2.930825     2.919646
      2.908466     2.897287     2.886107     2.874928     2.863749     2.852569     2.841390     2.830210     2.819031     2.807851
      2.796672     2.785492     2.774313     2.763134     2.751954     2.740775     2.729595     2.718416     2.707236     2.696057
      2.684877     2.673698     2.662519     2.651339     2.640160     2.628980     2.617801     2.606621     2.595442     2.584262
      2.573083     2.561903     2.550724     2.539545     2.528365     2.517186     2.506006     2.494827     2.483647     2.472468
      2.461288     2.450109     2.438930     2.427750     2.416571     2.405391     2.394212     2.383032     2.371853     2.360673
      2.349494     2.338315     2.327135     2.315956     2.304776     2.293597     2.282417     2.271238     2.260058     2.248879
      2.237700     2.226520     2.215341     2.204161     2.192982     2.181802     2.170623     2.159443     2.148264     2.137084
      2.125905     2.114726     2.103546     2.092367     2.081187     2.070008     2.058828     2.047649     2.036469     2.025290
      2.014111     2.002931     1.991752     1.980572     1.969393     1.958213     1.947034     1.935854     1.924675     1.913496
      1.902316     1.891137     1.879957     1.868778     1.857598     1.846419     1.835239     1.824060     1.812881     1.801701
      1.790522     1.779342     1.768163     1.756983     1.745804     1.734624     1.723445     1.712265     1.701086     1.689907
      1.678727     1.667548     1.656368     1.645189     1.634009     1.622830     1.611650     1.600471     1.589292     1.578112
      1.566933     1.555753     1.544574     1.533394     1.522215     1.511035     1.499856     1.488677     1.477497     1.466318
      1.455138     1.443959     1.432779     1.421600     1.410420     1.399241     1.388062     1.376882     1.365703     1.354523
      1.343344     1.332164     1.320985     1.309805     1.298626     1.287446     1.276267     1.265088     1.253908     1.242729
      1.231549     1.220370     1.209190     1.198011     1.186831     1.175652     1.164473     1.153293     1.142114     1.130934
      1.119755     1.108575     1.097396     1.086216     1.075037     1.063858     1.052678     1.041499     1.030319     1.019140
      1.007960     0.996781     0.985601     0.974422     0.963243     0.952063     0.940884     0.929704     0.918525     0.907345
      0.896166     0.884986     0.873807     0.862628     0.851448     0.840269     0.829089     0.817910     0.806730     0.795551
      0.784371     0.773192     0.762012     0.750833     0.739654     0.728474     0.717295     0.706115     0.694936     0.683756
      0.672577     0.661397     0.650218     0.639039     0.627859     0.616680     0.605500     0.594321     0.583141     0.571962
      0.560782     0.549603     0.538424     0.527244     0.516065     0.504885     0.493706     0.482526     0.471347     0.460167
      0.448988     0.437809     0.426629     0.415450     0.404270     0.393091     0.381911     0.370732     0.359552     0.348373
      0.337193     0.326014     0.314835     0.303655     0.292476     0.281296     0.270117     0.258937     0.247758     0.236578
      0.225399     0.214220     0.203040
 NY phased data points follow
  -8.17755E-10  1.94875E-09  4.80136E-09  6.63799E-09  6.43573E-09  5.14620E-09  4.32026E-09  3.71347E-09  3.40052E-09  2.59972E-09
   2.77388E-09  3.05352E-09  2.96805E-09  3.14745E-09  4.11402E-09  3.84104E-09  5.18952E-09  6.09531E-09  5.53528E-09  5.22265E-09
   5.29471E-09  5.46829E-09  5.37285E-09  4.05936E-09  4.59448E-09  4.62842E-09  5.95470E-09  6.51066E-09  6.90891E-09  5.66756E-09
   5.37024E-09  5.32397E-09  5.65247E-09  8.25623E-09  9.75124E-09  1.06464E-08  1.00990E-08  9.43221E-09  7.45602E-09  6.34600E-09
   6.42865E-09  6.40274E-09  5.55180E-09  5.01224E-09  5.78004E-09  4.98219E-09  4.63608E-09  4.35665E-09  3.84358E-09  3.26145E-09
   2.98479E-09  3.47150E-09  3.86170E-09  3.46052E-09  4.43265E-09  3.59395E-09  2.79302E-09  2.62838E-09  2.52555E-09  1.90302E-09
   2.21293E-09  3.16602E-09  3.70804E-09  4.65068E-09  8.38018E-09  1.27251E-08  1.34617E-08  1.16273E-08  9.70343E-09  7.87637E-09
   6.91932E-09  6.22614E-09  5.41746E-09  4.47514E-09  3.18208E-09  3.42009E-09  3.12934E-09  2.03145E-09  3.06671E-09  4.06514E-09
   5.95344E-09  1.04891E-08  1.43648E-08  1.39344E-08  1.16065E-08  1.00937E-08  8.90580E-09  8.47215E-09  8.33052E-09  7.34345E-09
   7.13857E-09  6.95727E-09  6.29999E-09  5.83472E-09  5.43276E-09  5.22632E-09  4.24437E-09  4.63940E-09  3.89689E-09  3.32405E-09
   3.57257E-09  3.78377E-09  3.06341E-09  3.40066E-09  4.36869E-09  4.09667E-09  3.66757E-09  3.90162E-09  3.39698E-09  3.55943E-09
   3.06051E-09  1.95911E-09  2.09542E-09  1.65631E-09  2.35143E-09  2.67753E-09  3.72261E-09  3.44445E-09  3.31871E-09  3.87717E-09
   3.72401E-09  4.19255E-09  3.40391E-09  3.17678E-09  2.78654E-09  1.83699E-09  1.92957E-09  1.83793E-09  1.82534E-09  1.52384E-09
   2.69074E-09  2.09055E-09  2.21113E-09  2.59455E-09  2.28871E-09  2.61863E-09  2.55704E-09  1.97271E-09  1.69656E-09  1.78503E-09
   3.14021E-09  3.58510E-09  4.86312E-09  4.78593E-09  3.42324E-09  3.35845E-09  3.49056E-09  4.62862E-09  3.75316E-09  4.75639E-09
   3.40542E-09  3.77902E-09  3.42513E-09  3.22270E-09  3.21946E-09  3.01884E-09  2.98184E-09  3.26721E-09  3.23773E-09  3.60687E-09
   3.51811E-09  4.30117E-09  4.37303E-09  4.33298E-09  4.54895E-09  4.39387E-09  4.92113E-09  5.63723E-09  6.19064E-09  8.02403E-09
   8.87323E-09  1.18128E-08  1.64139E-08  1.85967E-08  1.53588E-08  1.05751E-08  7.87001E-09  6.40980E-09  5.46811E-09  4.33932E-09
   3.05685E-09  3.16561E-09  2.23671E-09  1.79298E-09  1.33558E-09  6.71371E-10  9.62440E-11  1.21135E-10 -3.96212E-10 -1.42864E-09
  -1.90454E-09 -1.91157E-09 -2.75138E-09 -3.13875E-09 -3.95372E-09 -5.22665E-09 -6.10899E-09 -5.90221E-09 -6.86647E-09 -8.21542E-09
  -8.33834E-09 -8.38660E-09 -8.80319E-09 -8.41785E-09 -8.45009E-09 -7.66583E-09 -7.22280E-09 -7.19582E-09 -6.65314E-09 -5.77041E-09
  -5.06741E-09 -3.89044E-09 -4.07320E-09 -2.66892E-09 -2.40828E-09 -2.16457E-09 -1.46167E-09 -2.08873E-09 -9.31690E-10 -2.02718E-09
  -1.33100E-09 -2.14861E-09 -2.09917E-09 -1.47963E-09 -2.19068E-09 -1.58762E-09 -1.07059E-09 -1.49642E-09 -1.82885E-09 -1.13535E-09
  -1.45571E-09 -1.64925E-09 -1.55166E-09 -1.93260E-09 -1.83750E-09 -1.79631E-09 -1.87760E-09 -1.27570E-09 -1.08192E-09 -1.36199E-09
  -9.22494E-10 -1.49425E-09 -1.04709E-09 -1.41626E-09 -1.95189E-09 -1.81266E-09 -1.11250E-09 -1.77005E-09 -1.54055E-09 -1.06348E-09
  -1.22950E-09 -9.34150E-10 -1.94146E-10 -6.42150E-10 -7.49954E-10 -7.63418E-10 -8.62973E-10 -1.25539E-09 -1.73139E-09 -1.72541E-09
  -1.54134E-09 -1.87910E-09 -1.91458E-09 -2.27604E-09 -2.13893E-09 -1.12473E-09 -1.14869E-09 -8.31515E-10 -1.45727E-09 -1.18681E-10
  -1.68633E-10  3.06207E-10 -8.99922E-11  1.15570E-10  2.68027E-10 -2.55934E-10 -9.01809E-10 -4.26185E-10 -7.77338E-10 -1.41828E-09
  -1.57908E-09 -1.32393E-09 -1.43781E-09 -2.00269E-09 -1.51750E-09 -1.43879E-09 -1.59950E-09 -1.32225E-09 -1.66186E-09 -1.27563E-09
  -7.57794E-10 -1.26003E-09 -1.35046E-09 -9.31267E-10 -8.62137E-10 -7.48258E-10 -1.23374E-09 -9.25044E-10 -1.20735E-09 -1.34191E-09
  -6.56210E-10 -7.55374E-10 -1.06271E-09 -9.35895E-10 -6.05476E-10 -9.73849E-10 -6.35459E-10 -7.23869E-10 -5.19310E-10 -5.65885E-10
  -1.08041E-09 -2.20724E-10 -9.96789E-10 -5.06088E-10 -4.83773E-10 -1.09859E-09 -5.00289E-10  2.54019E-10 -4.38778E-10 -8.36718E-10
  -3.99821E-10 -5.32005E-10 -3.46819E-10 -6.64187E-10 -5.28139E-10 -3.80387E-10  1.53018E-12 -1.86161E-10 -3.26020E-10  5.85995E-11
  -4.04281E-10 -3.09833E-10 -6.35154E-10 -1.88272E-10 -2.24990E-10 -4.14068E-10 -4.02043E-10 -2.83690E-10 -2.68761E-10 -5.45239E-10
   3.30848E-10  4.36737E-11 -3.47655E-10 -4.12222E-11 -2.41151E-12 -6.51722E-11 -8.97121E-10 -3.27980E-11 -3.82644E-11  7.66739E-11
  -4.94536E-12 -9.11077E-11  1.24095E-10  2.59635E-10 -1.22943E-10 -8.28368E-11  2.60481E-10  2.07636E-10  2.42019E-10 -1.33047E-10
  -1.91417E-10 -3.52980E-10 -1.40028E-10
 NY points of the fit to the data follow
   3.29530E-09  3.77196E-09  4.19443E-09  4.51819E-09  4.63943E-09  4.49943E-09  4.14505E-09  3.71433E-09  3.39887E-09  3.15496E-09
   3.09055E-09  3.14638E-09  3.27008E-09  3.46984E-09  3.76368E-09  4.08059E-09  4.43067E-09  4.88617E-09  5.41416E-09  5.87855E-09
   6.13454E-09  5.95567E-09  5.40355E-09  4.86478E-09  4.48780E-09  4.29847E-09  4.42108E-09  4.97884E-09  5.72725E-09  6.34351E-09
   6.49118E-09  6.62767E-09  7.23855E-09  7.86378E-09  8.17900E-09  8.60744E-09  9.15416E-09  9.45372E-09  9.05331E-09  8.11806E-09
   7.23655E-09  6.58189E-09  5.44497E-09  4.27491E-09  3.75872E-09  3.34454E-09  2.97984E-09  2.98624E-09  3.15618E-09  3.29183E-09
   3.32264E-09  3.25195E-09  3.22415E-09  3.28255E-09  3.40496E-09  3.54315E-09  3.64335E-09  3.67850E-09  3.61537E-09  3.57229E-09
   3.80575E-09  4.39397E-09  5.08838E-09  5.76446E-09  6.84850E-09  8.00889E-09  8.86576E-09  9.43384E-09  9.81652E-09  9.91520E-09
   9.41946E-09  8.21634E-09  6.82483E-09  5.91623E-09  5.08206E-09  4.07191E-09  3.84433E-09  4.45380E-09  5.10051E-09  6.10664E-09
   7.68228E-09  9.82819E-09  1.19781E-08  1.28737E-08  1.20350E-08  1.04781E-08  9.16187E-09  8.09906E-09  7.00815E-09  6.71966E-09
   6.61086E-09  6.64419E-09  6.46173E-09  5.85219E-09  5.38628E-09  5.05947E-09  4.48599E-09  4.01268E-09  3.74343E-09  3.49660E-09
   3.34212E-09  3.26051E-09  3.23801E-09  3.29479E-09  3.38784E-09  3.45791E-09  3.47428E-09  3.46735E-09  3.46143E-09  3.42108E-09
   3.31488E-09  3.18629E-09  3.11731E-09  3.04939E-09  2.98092E-09  2.96518E-09  2.96596E-09  2.97329E-09  2.98375E-09  2.99575E-09
   3.00844E-09  3.02128E-09  3.03386E-09  3.04590E-09  3.05716E-09  3.06748E-09  3.07669E-09  3.08467E-09  3.09131E-09  3.09648E-09
   3.10010E-09  3.10208E-09  3.10233E-09  3.10075E-09  3.09727E-09  3.09181E-09  3.08431E-09  3.07471E-09  3.06295E-09  3.04896E-09
   3.03265E-09  3.01398E-09  2.99288E-09  2.96930E-09  2.94320E-09  2.91451E-09  2.88320E-09  2.84925E-09  2.81261E-09  2.77330E-09
   2.73132E-09  2.68673E-09  2.63959E-09  2.59002E-09  2.53821E-09  2.48440E-09  2.42898E-09  2.37253E-09  2.31587E-09  2.26027E-09
   2.20774E-09  2.16154E-09  2.12748E-09  2.11671E-09  2.15469E-09  2.31687E-09  2.94621E-09  4.31589E-09  5.94609E-09  7.92311E-09
   1.07802E-08  1.43938E-08  1.72410E-08  1.75227E-08  1.51108E-08  1.14932E-08  7.92419E-09  4.57367E-09  1.87490E-09  6.79298E-10
   1.61281E-10 -1.68267E-10 -4.21432E-10 -6.35183E-10 -8.25319E-10 -9.99670E-10 -1.16244E-09 -1.31600E-09 -1.46172E-09 -1.60038E-09
  -1.73239E-09 -1.85791E-09 -1.97697E-09 -2.08945E-09 -2.19520E-09 -2.29400E-09 -2.38569E-09 -2.47046E-09 -2.54856E-09 -2.62020E-09
  -2.68558E-09 -2.74491E-09 -2.79838E-09 -2.84617E-09 -2.88846E-09 -2.92542E-09 -2.95722E-09 -2.98404E-09 -3.00602E-09 -3.02335E-09
  -3.03617E-09 -3.04465E-09 -3.04895E-09 -3.04922E-09 -3.04563E-09 -3.03832E-09 -3.02746E-09 -3.01320E-09 -2.99570E-09 -2.97510E-09
  -2.95156E-09 -2.92524E-09 -2.89628E-09 -2.86485E-09 -2.83110E-09 -2.79517E-09 -2.75721E-09 -2.71738E-09 -2.67583E-09 -2.63270E-09
  -2.58815E-09 -2.54233E-09 -2.49539E-09 -2.44748E-09 -2.39873E-09 -2.34933E-09 -2.29939E-09 -2.24909E-09 -2.19855E-09 -2.14794E-09
  -2.09742E-09 -2.04711E-09 -1.99717E-09 -1.94777E-09 -1.89903E-09 -1.85112E-09 -1.80417E-09 -1.75834E-09 -1.71379E-09 -1.67066E-09
  -1.62908E-09 -1.58923E-09 -1.55116E-09 -1.51481E-09 -1.48013E-09 -1.44708E-09 -1.41557E-09 -1.38557E-09 -1.35701E-09 -1.32984E-09
  -1.30401E-09 -1.27944E-09 -1.25609E-09 -1.23389E-09 -1.21281E-09 -1.19276E-09 -1.17369E-09 -1.15557E-09 -1.13832E-09 -1.12188E-09
  -1.10620E-09 -1.09123E-09 -1.07689E-09 -1.06315E-09 -1.04994E-09 -1.03720E-09 -1.02488E-09 -1.01292E-09 -1.00127E-09 -9.89854E-10
  -9.78654E-10 -9.67648E-10 -9.56814E-10 -9.46133E-10 -9.35594E-10 -9.25170E-10 -9.14852E-10 -9.04613E-10 -8.94439E-10 -8.84313E-10
  -8.74215E-10 -8.64128E-10 -8.54032E-10 -8.43910E-10 -8.33745E-10 -8.23517E-10 -8.13209E-10 -8.02802E-10 -7.92283E-10 -7.81621E-10
  -7.70813E-10 -7.59832E-10 -7.48660E-10 -7.37286E-10 -7.25685E-10 -7.13840E-10 -7.01736E-10 -6.89350E-10 -6.76692E-10 -6.63774E-10
  -6.50611E-10 -6.37218E-10 -6.23612E-10 -6.09802E-10 -5.95809E-10 -5.81644E-10 -5.67323E-10 -5.52861E-10 -5.38273E-10 -5.23572E-10
  -5.08778E-10 -4.93898E-10 -4.78951E-10 -4.63955E-10 -4.48917E-10 -4.33861E-10 -4.18795E-10 -4.03735E-10 -3.88697E-10 -3.73699E-10
  -3.58748E-10 -3.43864E-10 -3.29060E-10 -3.14352E-10 -2.99757E-10 -2.85280E-10 -2.70929E-10 -2.56698E-10 -2.42582E-10 -2.28576E-10
  -2.14678E-10 -2.00881E-10 -1.87182E-10 -1.73577E-10 -1.60063E-10 -1.46631E-10 -1.33283E-10 -1.20011E-10 -1.06813E-10 -9.36816E-11
  -8.06133E-11 -6.76071E-11 -5.46554E-11 -4.17557E-11 -2.89023E-11 -1.60932E-11 -3.32223E-12  9.41586E-12  2.21236E-11  3.48033E-11
   4.74616E-11  6.01014E-11  7.27314E-11
 NY background values follow
    -1.571E-09   -1.527E-09   -1.482E-09   -1.438E-09   -1.393E-09   -1.349E-09   -1.305E-09   -1.261E-09   -1.217E-09   -1.173E-09
    -1.130E-09   -1.087E-09   -1.044E-09   -1.002E-09   -9.596E-10   -9.178E-10   -8.764E-10   -8.354E-10   -7.948E-10   -7.547E-10
    -7.151E-10   -6.760E-10   -6.374E-10   -5.994E-10   -5.620E-10   -5.252E-10   -4.891E-10   -4.536E-10   -4.188E-10   -3.847E-10
    -3.513E-10   -3.185E-10   -2.864E-10   -2.548E-10   -2.238E-10   -1.934E-10   -1.635E-10   -1.340E-10   -1.050E-10   -7.647E-11
    -4.831E-11   -2.050E-11    6.963E-12    3.412E-11    6.099E-11    8.761E-11    1.140E-10    1.402E-10    1.662E-10    1.921E-10
     2.179E-10    2.436E-10    2.692E-10    2.949E-10    3.205E-10    3.461E-10    3.718E-10    3.976E-10    4.235E-10    4.496E-10
     4.757E-10    5.020E-10    5.284E-10    5.551E-10    5.819E-10    6.089E-10    6.362E-10    6.636E-10    6.914E-10    7.193E-10
     7.476E-10    7.762E-10    8.051E-10    8.343E-10    8.638E-10    8.937E-10    9.240E-10    9.546E-10    9.857E-10    1.017E-09
     1.049E-09    1.081E-09    1.114E-09    1.147E-09    1.181E-09    1.215E-09    1.250E-09    1.285E-09    1.321E-09    1.356E-09
     1.392E-09    1.428E-09    1.465E-09    1.501E-09    1.538E-09    1.574E-09    1.611E-09    1.647E-09    1.683E-09    1.719E-09
     1.755E-09    1.791E-09    1.826E-09    1.861E-09    1.896E-09    1.930E-09    1.963E-09    1.997E-09    2.029E-09    2.061E-09
     2.092E-09    2.123E-09    2.152E-09    2.181E-09    2.209E-09    2.236E-09    2.263E-09    2.288E-09    2.311E-09    2.334E-09
     2.355E-09    2.376E-09    2.394E-09    2.411E-09    2.427E-09    2.441E-09    2.454E-09    2.464E-09    2.473E-09    2.481E-09
     2.486E-09    2.489E-09    2.490E-09    2.489E-09    2.486E-09    2.481E-09    2.474E-09    2.464E-09    2.452E-09    2.437E-09
     2.420E-09    2.400E-09    2.377E-09    2.352E-09    2.324E-09    2.293E-09    2.259E-09    2.222E-09    2.182E-09    2.138E-09
     2.091E-09    2.041E-09    1.988E-09    1.930E-09    1.870E-09    1.805E-09    1.737E-09    1.665E-09    1.589E-09    1.509E-09
     1.425E-09    1.337E-09    1.245E-09    1.148E-09    1.047E-09    9.419E-10    8.319E-10    7.173E-10    5.981E-10    4.746E-10
     3.472E-10    2.163E-10    8.224E-11   -5.449E-11   -1.935E-10   -3.344E-10   -4.769E-10   -6.204E-10   -7.645E-10   -9.090E-10
    -1.053E-09   -1.197E-09   -1.340E-09   -1.482E-09   -1.621E-09   -1.759E-09   -1.894E-09   -2.027E-09   -2.155E-09   -2.280E-09
    -2.401E-09   -2.518E-09   -2.629E-09   -2.735E-09   -2.836E-09   -2.930E-09   -3.017E-09   -3.099E-09   -3.174E-09   -3.243E-09
    -3.306E-09   -3.363E-09   -3.415E-09   -3.461E-09   -3.502E-09   -3.538E-09   -3.568E-09   -3.594E-09   -3.615E-09   -3.632E-09
    -3.644E-09   -3.652E-09   -3.655E-09   -3.655E-09   -3.651E-09   -3.643E-09   -3.632E-09   -3.617E-09   -3.599E-09   -3.579E-09
    -3.555E-09   -3.528E-09   -3.499E-09   -3.467E-09   -3.433E-09   -3.397E-09   -3.359E-09   -3.319E-09   -3.278E-09   -3.234E-09
    -3.190E-09   -3.144E-09   -3.097E-09   -3.049E-09   -3.000E-09   -2.951E-09   -2.901E-09   -2.850E-09   -2.800E-09   -2.749E-09
    -2.698E-09   -2.648E-09   -2.598E-09   -2.549E-09   -2.500E-09   -2.452E-09   -2.405E-09   -2.359E-09   -2.315E-09   -2.271E-09
    -2.230E-09   -2.190E-09   -2.152E-09   -2.115E-09   -2.081E-09   -2.048E-09   -2.016E-09   -1.986E-09   -1.958E-09   -1.930E-09
    -1.905E-09   -1.880E-09   -1.857E-09   -1.834E-09   -1.813E-09   -1.793E-09   -1.774E-09   -1.756E-09   -1.739E-09   -1.722E-09
    -1.706E-09   -1.691E-09   -1.677E-09   -1.663E-09   -1.650E-09   -1.637E-09   -1.625E-09   -1.613E-09   -1.601E-09   -1.590E-09
    -1.578E-09   -1.567E-09   -1.556E-09   -1.546E-09   -1.535E-09   -1.524E-09   -1.514E-09   -1.504E-09   -1.493E-09   -1.483E-09
    -1.473E-09   -1.463E-09   -1.453E-09   -1.442E-09   -1.432E-09   -1.422E-09   -1.411E-09   -1.401E-09   -1.390E-09   -1.380E-09
    -1.369E-09   -1.358E-09   -1.346E-09   -1.335E-09   -1.323E-09   -1.311E-09   -1.299E-09   -1.286E-09   -1.273E-09   -1.260E-09
    -1.247E-09   -1.234E-09   -1.220E-09   -1.206E-09   -1.192E-09   -1.177E-09   -1.163E-09   -1.148E-09   -1.134E-09   -1.119E-09
    -1.104E-09   -1.089E-09   -1.074E-09   -1.058E-09   -1.043E-09   -1.028E-09   -1.013E-09   -9.974E-10   -9.821E-10   -9.669E-10
    -9.518E-10   -9.367E-10   -9.217E-10   -9.068E-10   -8.919E-10   -8.773E-10   -8.627E-10   -8.482E-10   -8.339E-10   -8.196E-10
    -8.055E-10   -7.915E-10   -7.775E-10   -7.637E-10   -7.499E-10   -7.362E-10   -7.226E-10   -7.091E-10   -6.957E-10   -6.823E-10
    -6.689E-10   -6.556E-10   -6.424E-10   -6.292E-10   -6.161E-10   -6.030E-10   -5.900E-10   -5.769E-10   -5.639E-10   -5.510E-10
    -5.380E-10   -5.251E-10   -5.121E-10
 Ala      Conc. = 1.32E-10
  -1.47112E-09 -1.41423E-09 -1.36253E-09 -1.31690E-09 -1.27263E-09 -1.22802E-09 -1.18947E-09 -1.16137E-09 -1.13078E-09 -1.09471E-09
  -1.06721E-09 -1.03914E-09 -1.00374E-09 -9.69148E-10 -9.33682E-10 -8.95780E-10 -8.56878E-10 -8.17615E-10 -7.78305E-10 -7.39137E-10
  -7.00236E-10 -6.61687E-10 -6.23565E-10 -5.85914E-10 -5.48779E-10 -5.12215E-10 -4.76246E-10 -4.40903E-10 -4.06226E-10 -3.72231E-10
  -3.38897E-10 -3.06197E-10 -2.74108E-10 -2.42603E-10 -2.11653E-10 -1.81233E-10 -1.51316E-10 -1.21874E-10 -9.28781E-11 -6.42985E-11
  -3.61140E-11 -8.28755E-12  1.92005E-11  4.63851E-11  7.32874E-11  9.99455E-11  1.26380E-10  1.52618E-10  1.78699E-10  2.04641E-10
   2.30472E-10  2.56232E-10  2.81938E-10  3.07625E-10  3.33307E-10  3.59040E-10  3.84840E-10  4.10725E-10  4.36715E-10  4.62826E-10
   4.89072E-10  5.15469E-10  5.42033E-10  5.68779E-10  5.95723E-10  6.22880E-10  6.50266E-10  6.77896E-10  7.05787E-10  7.33955E-10
   7.62416E-10  7.91185E-10  8.20281E-10  8.49718E-10  8.79515E-10  9.09688E-10  9.40255E-10  9.71235E-10  1.00265E-09  1.03451E-09
   1.06684E-09  1.09966E-09  1.13300E-09  1.16688E-09  1.20132E-09  1.23633E-09  1.27187E-09  1.30792E-09  1.34448E-09  1.38152E-09
   1.41905E-09  1.45710E-09  1.49573E-09  1.53502E-09  1.57515E-09  1.61641E-09  1.65938E-09  1.70516E-09  1.75636E-09  1.82114E-09
   1.91208E-09  1.99929E-09  2.09973E-09  2.24987E-09  2.41574E-09  2.54374E-09  2.60684E-09  2.63828E-09  2.66447E-09  2.65132E-09
   2.56852E-09  2.46000E-09  2.40818E-09  2.35500E-09  2.29927E-09  2.29451E-09  2.30496E-09  2.32080E-09  2.33874E-09  2.35732E-09
   2.37578E-09  2.39366E-09  2.41067E-09  2.42659E-09  2.44127E-09  2.45456E-09  2.46637E-09  2.47658E-09  2.48512E-09  2.49190E-09
   2.49684E-09  2.49986E-09  2.50091E-09  2.49989E-09  2.49675E-09  2.49142E-09  2.48384E-09  2.47392E-09  2.46162E-09  2.44687E-09
   2.42958E-09  2.40971E-09  2.38716E-09  2.36186E-09  2.33374E-09  2.30271E-09  2.26870E-09  2.23164E-09  2.19144E-09  2.14803E-09
   2.10133E-09  2.05128E-09  1.99779E-09  1.94080E-09  1.88023E-09  1.81600E-09  1.74806E-09  1.67634E-09  1.60077E-09  1.52131E-09
   1.43791E-09  1.35057E-09  1.25931E-09  1.16426E-09  1.06580E-09  9.65116E-10  8.67601E-10  7.86518E-10  7.03349E-10  6.21190E-10
   5.54937E-10  5.06799E-10  4.42959E-10  3.17638E-10  1.26809E-10 -9.09954E-11 -3.04940E-10 -5.14608E-10 -7.18836E-10 -8.80536E-10
  -1.03166E-09 -1.17904E-09 -1.32411E-09 -1.46712E-09 -1.60795E-09 -1.74639E-09 -1.88211E-09 -2.01476E-09 -2.14397E-09 -2.26936E-09
  -2.39054E-09 -2.50714E-09 -2.61874E-09 -2.72495E-09 -2.82537E-09 -2.91962E-09 -3.00738E-09 -3.08876E-09 -3.16390E-09 -3.23295E-09
  -3.29607E-09 -3.35341E-09 -3.40511E-09 -3.45134E-09 -3.49224E-09 -3.52796E-09 -3.55866E-09 -3.58448E-09 -3.60558E-09 -3.62210E-09
  -3.63421E-09 -3.64205E-09 -3.64576E-09 -3.64551E-09 -3.64145E-09 -3.63372E-09 -3.62247E-09 -3.60786E-09 -3.59003E-09 -3.56915E-09
  -3.54535E-09 -3.51880E-09 -3.48963E-09 -3.45801E-09 -3.42408E-09 -3.38799E-09 -3.34989E-09 -3.30993E-09 -3.26826E-09 -3.22503E-09
  -3.18039E-09 -3.13449E-09 -3.08747E-09 -3.03949E-09 -2.99068E-09 -2.94121E-09 -2.89123E-09 -2.84088E-09 -2.79029E-09 -2.73965E-09
  -2.68909E-09 -2.63875E-09 -2.58879E-09 -2.53936E-09 -2.49059E-09 -2.44265E-09 -2.39569E-09 -2.34984E-09 -2.30526E-09 -2.26211E-09
  -2.22052E-09 -2.18065E-09 -2.14255E-09 -2.10619E-09 -2.07149E-09 -2.03841E-09 -2.00689E-09 -1.97687E-09 -1.94829E-09 -1.92110E-09
  -1.89523E-09 -1.87064E-09 -1.84726E-09 -1.82504E-09 -1.80392E-09 -1.78385E-09 -1.76475E-09 -1.74659E-09 -1.72930E-09 -1.71283E-09
  -1.69711E-09 -1.68209E-09 -1.66771E-09 -1.65392E-09 -1.64067E-09 -1.62787E-09 -1.61550E-09 -1.60349E-09 -1.59178E-09 -1.58031E-09
  -1.56905E-09 -1.55797E-09 -1.54708E-09 -1.53633E-09 -1.52572E-09 -1.51522E-09 -1.50482E-09 -1.49451E-09 -1.48425E-09 -1.47404E-09
  -1.46386E-09 -1.45368E-09 -1.44350E-09 -1.43328E-09 -1.42302E-09 -1.41269E-09 -1.40228E-09 -1.39177E-09 -1.38115E-09 -1.37037E-09
  -1.35945E-09 -1.34836E-09 -1.33707E-09 -1.32557E-09 -1.31385E-09 -1.30188E-09 -1.28964E-09 -1.27713E-09 -1.26433E-09 -1.25128E-09
  -1.23798E-09 -1.22444E-09 -1.21069E-09 -1.19673E-09 -1.18258E-09 -1.16826E-09 -1.15378E-09 -1.13916E-09 -1.12441E-09 -1.10954E-09
  -1.09458E-09 -1.07953E-09 -1.06441E-09 -1.04923E-09 -1.03401E-09 -1.01877E-09 -1.00352E-09 -9.88270E-10 -9.73039E-10 -9.57845E-10
  -9.42694E-10 -9.27608E-10 -9.12599E-10 -8.97683E-10 -8.82876E-10 -8.68186E-10 -8.53617E-10 -8.39166E-10 -8.24825E-10 -8.10593E-10
  -7.96464E-10 -7.82434E-10 -7.68499E-10 -7.54655E-10 -7.40899E-10 -7.27221E-10 -7.13625E-10 -7.00102E-10 -6.86648E-10 -6.73259E-10
  -6.59929E-10 -6.46658E-10 -6.33438E-10 -6.20266E-10 -6.07138E-10 -5.94051E-10 -5.80999E-10 -5.67976E-10 -5.54981E-10 -5.42010E-10
  -5.29057E-10 -5.16119E-10 -5.03187E-10
 Asp      Conc. = 4.53E-10
  -1.01990E-09 -1.03665E-09 -1.06791E-09 -1.11490E-09 -1.15101E-09 -1.18220E-09 -1.19009E-09 -1.18755E-09 -1.16166E-09 -1.12700E-09
  -1.08828E-09 -1.04757E-09 -1.00588E-09 -9.63628E-10 -9.21378E-10 -8.79296E-10 -8.37364E-10 -7.95636E-10 -7.54153E-10 -7.12954E-10
  -6.72070E-10 -6.31521E-10 -5.91334E-10 -5.51504E-10 -5.12032E-10 -4.72926E-10 -4.34151E-10 -3.95674E-10 -3.57446E-10 -3.19373E-10
  -2.81284E-10 -2.42936E-10 -2.03992E-10 -1.63923E-10 -1.21830E-10 -7.59150E-11 -2.20698E-11  3.46636E-11  9.96691E-11  1.66777E-10
   2.36112E-10  3.02622E-10  3.58956E-10  4.05091E-10  4.39425E-10  4.98616E-10  5.81390E-10  7.05834E-10  8.86976E-10  1.05352E-09
   1.14354E-09  1.12300E-09  1.04453E-09  9.67174E-10  8.96329E-10  8.29920E-10  7.51930E-10  7.23935E-10  6.91029E-10  6.55290E-10
   6.68009E-10  7.00586E-10  7.15422E-10  7.22472E-10  7.32364E-10  7.37504E-10  7.32884E-10  7.41710E-10  7.57524E-10  7.77184E-10
   7.99299E-10  8.23144E-10  8.48306E-10  8.74523E-10  9.01631E-10  9.29517E-10  9.58106E-10  9.87344E-10  1.01720E-09  1.04764E-09
   1.07866E-09  1.11024E-09  1.14239E-09  1.17509E-09  1.20836E-09  1.24217E-09  1.27647E-09  1.31119E-09  1.34630E-09  1.38173E-09
   1.41745E-09  1.45339E-09  1.48952E-09  1.52577E-09  1.56211E-09  1.59848E-09  1.63484E-09  1.67114E-09  1.70733E-09  1.74336E-09
   1.77919E-09  1.81478E-09  1.85006E-09  1.88500E-09  1.91956E-09  1.95367E-09  1.98730E-09  2.02041E-09  2.05293E-09  2.08484E-09
   2.11607E-09  2.14659E-09  2.17635E-09  2.20529E-09  2.23335E-09  2.26045E-09  2.28656E-09  2.31159E-09  2.33548E-09  2.35817E-09
   2.37961E-09  2.39971E-09  2.41843E-09  2.43569E-09  2.45144E-09  2.46561E-09  2.47814E-09  2.48896E-09  2.49801E-09  2.50523E-09
   2.51056E-09  2.51393E-09  2.51528E-09  2.51454E-09  2.51166E-09  2.50657E-09  2.49920E-09  2.48950E-09  2.47741E-09  2.46286E-09
   2.44577E-09  2.42610E-09  2.40376E-09  2.37867E-09  2.35077E-09  2.31997E-09  2.28620E-09  2.24940E-09  2.20948E-09  2.16638E-09
   2.12003E-09  2.07035E-09  2.01729E-09  1.96078E-09  1.90076E-09  1.83717E-09  1.76998E-09  1.69914E-09  1.62465E-09  1.54651E-09
   1.46478E-09  1.37958E-09  1.29122E-09  1.20025E-09  1.10797E-09  1.01790E-09  9.43714E-10  9.39076E-10  9.42979E-10  9.55627E-10
   1.02627E-09  1.17400E-09  1.29564E-09  1.22615E-09  9.28425E-10  5.24947E-10  1.31780E-10 -2.40904E-10 -6.04319E-10 -8.21139E-10
  -9.90974E-10 -1.14735E-09 -1.29756E-09 -1.44382E-09 -1.58685E-09 -1.72684E-09 -1.86369E-09 -1.99719E-09 -2.12705E-09 -2.25294E-09
  -2.37453E-09 -2.49145E-09 -2.60332E-09 -2.70974E-09 -2.81034E-09 -2.90473E-09 -2.99262E-09 -3.07409E-09 -3.14932E-09 -3.21844E-09
  -3.28162E-09 -3.33901E-09 -3.39076E-09 -3.43702E-09 -3.47795E-09 -3.51369E-09 -3.54441E-09 -3.57025E-09 -3.59137E-09 -3.60791E-09
  -3.62002E-09 -3.62787E-09 -3.63159E-09 -3.63135E-09 -3.62728E-09 -3.61955E-09 -3.60831E-09 -3.59370E-09 -3.57587E-09 -3.55499E-09
  -3.53119E-09 -3.50463E-09 -3.47546E-09 -3.44383E-09 -3.40990E-09 -3.37381E-09 -3.33571E-09 -3.29575E-09 -3.25407E-09 -3.21084E-09
