 LCModel (Version 6.3-1R) Copyright: S.W. Provencher.          Ref.: Magn. Reson. Med. 30:672-679 (1993).                
 onepulse 20x11_ftSpec_smooth_lcm
 26 lines in following concentration table = NCONC+1
    Conc.  %SD   /Cr    Metabolite                                         
    0.000 999%   0.000 Ala                                                 
    0.000 999%   0.000 Asp                                                 
    0.000 999%   0.000 Cr                                                  
 2.60E-11 999%   0.000 GABA                                                
    0.000 999%   0.000 Glc                                                 
 2.63E-09  19%   0.000 Gln                                                 
    0.000 999%   0.000 Glu                                                 
    0.000 999%   0.000 Glyc                                                
    0.000 999%   0.000 GPC                                                 
 1.27E-09  34%   0.000 GSH                                                 
 1.89E-09  17%   0.000 Ins                                                 
    0.000 999%   0.000 Lac                                                 
 4.27E-10  40%   0.000 NAAG                                                
    0.000 999%   0.000 NAA                                                 
 1.53E-11 993%   0.000 PCh                                                 
    0.000 999%   0.000 PCr                                                 
 2.25E-09  48%   0.000 PE                                                  
 2.14E-10  93%   0.000 Scyllo                                              
    0.000 999%   0.000 Ser                                                 
 5.56E-10 133%   0.000 Tau                                                 
 1.53E-11 993%   0.000 GPC+PCh                                             
 4.27E-10  40%   0.000 NAA+NAAG                                            
 1.89E-09  17%   0.000 Ins+Glyc                                            
    0.000 999%   0.000 Cr+PCr                                              
 2.63E-09  19%   0.000 Glu+Gln                                             
   6 lines in following misc. output table
  FWHM = 0.123 ppm    S/N =   4                                            
  Data shift = 0.436 ppm                                                   
  Ph:  10 deg     -28.0 deg/ppm                                            
  alphaB,S = 5.3E-01,   1.3E+01                                            
   10 spline knots.   Ns = 5(1)                                            
  (12) 6 infls.   (11) 3 extrs.                                            
  363 points on ppm-axis = NY
      4.250000     4.238821     4.227641     4.216462     4.205282     4.194103     4.182923     4.171744     4.160564     4.149385
      4.138206     4.127026     4.115847     4.104667     4.093488     4.082308     4.071129     4.059949     4.048770     4.037591
      4.026411     4.015232     4.004052     3.992873     3.981693     3.970514     3.959334     3.948155     3.936975     3.925796
      3.914617     3.903437     3.892258     3.881078     3.869899     3.858719     3.847540     3.836360     3.825181     3.814002
      3.802822     3.791643     3.780463     3.769284     3.758104     3.746925     3.735745     3.724566     3.713387     3.702207
      3.691028     3.679848     3.668669     3.657489     3.646310     3.635130     3.623951     3.612772     3.601592     3.590413
      3.579233     3.568054     3.556874     3.545695     3.534515     3.523336     3.512156     3.500977     3.489798     3.478618
      3.467439     3.456259     3.445080     3.433900     3.422721     3.411541     3.400362     3.389183     3.378003     3.366824
      3.355644     3.344465     3.333285     3.322106     3.310926     3.299747     3.288568     3.277388     3.266209     3.255029
      3.243850     3.232670     3.221491     3.210311     3.199132     3.187953     3.176773     3.165594     3.154414     3.143235
      3.132055     3.120876     3.109696     3.098517     3.087337     3.076158     3.064979     3.053799     3.042620     3.031440
      3.020261     3.009081     2.997902     2.986722     2.975543     2.964364     2.953184     2.942005     2.930825     2.919646
      2.908466     2.897287     2.886107     2.874928     2.863749     2.852569     2.841390     2.830210     2.819031     2.807851
      2.796672     2.785492     2.774313     2.763134     2.751954     2.740775     2.729595     2.718416     2.707236     2.696057
      2.684877     2.673698     2.662519     2.651339     2.640160     2.628980     2.617801     2.606621     2.595442     2.584262
      2.573083     2.561903     2.550724     2.539545     2.528365     2.517186     2.506006     2.494827     2.483647     2.472468
      2.461288     2.450109     2.438930     2.427750     2.416571     2.405391     2.394212     2.383032     2.371853     2.360673
      2.349494     2.338315     2.327135     2.315956     2.304776     2.293597     2.282417     2.271238     2.260058     2.248879
      2.237700     2.226520     2.215341     2.204161     2.192982     2.181802     2.170623     2.159443     2.148264     2.137084
      2.125905     2.114726     2.103546     2.092367     2.081187     2.070008     2.058828     2.047649     2.036469     2.025290
      2.014111     2.002931     1.991752     1.980572     1.969393     1.958213     1.947034     1.935854     1.924675     1.913496
      1.902316     1.891137     1.879957     1.868778     1.857598     1.846419     1.835239     1.824060     1.812881     1.801701
      1.790522     1.779342     1.768163     1.756983     1.745804     1.734624     1.723445     1.712265     1.701086     1.689907
      1.678727     1.667548     1.656368     1.645189     1.634009     1.622830     1.611650     1.600471     1.589292     1.578112
      1.566933     1.555753     1.544574     1.533394     1.522215     1.511035     1.499856     1.488677     1.477497     1.466318
      1.455138     1.443959     1.432779     1.421600     1.410420     1.399241     1.388062     1.376882     1.365703     1.354523
      1.343344     1.332164     1.320985     1.309805     1.298626     1.287446     1.276267     1.265088     1.253908     1.242729
      1.231549     1.220370     1.209190     1.198011     1.186831     1.175652     1.164473     1.153293     1.142114     1.130934
      1.119755     1.108575     1.097396     1.086216     1.075037     1.063858     1.052678     1.041499     1.030319     1.019140
      1.007960     0.996781     0.985601     0.974422     0.963243     0.952063     0.940884     0.929704     0.918525     0.907345
      0.896166     0.884986     0.873807     0.862628     0.851448     0.840269     0.829089     0.817910     0.806730     0.795551
      0.784371     0.773192     0.762012     0.750833     0.739654     0.728474     0.717295     0.706115     0.694936     0.683756
      0.672577     0.661397     0.650218     0.639039     0.627859     0.616680     0.605500     0.594321     0.583141     0.571962
      0.560782     0.549603     0.538424     0.527244     0.516065     0.504885     0.493706     0.482526     0.471347     0.460167
      0.448988     0.437809     0.426629     0.415450     0.404270     0.393091     0.381911     0.370732     0.359552     0.348373
      0.337193     0.326014     0.314835     0.303655     0.292476     0.281296     0.270117     0.258937     0.247758     0.236578
      0.225399     0.214220     0.203040
 NY phased data points follow
   1.13799E-08  1.17428E-08  1.16640E-08  1.22294E-08  1.25878E-08  1.26954E-08  1.27164E-08  1.32585E-08  1.35743E-08  1.28176E-08
   1.20458E-08  1.27062E-08  1.11328E-08  1.15694E-08  1.17924E-08  1.19196E-08  1.14369E-08  1.13658E-08  1.16232E-08  1.20793E-08
   1.14152E-08  1.11328E-08  1.11589E-08  1.28312E-08  1.35378E-08  1.44619E-08  1.40400E-08  1.37736E-08  1.21882E-08  1.16266E-08
   9.99679E-09  9.90386E-09  9.60620E-09  9.48499E-09  9.27866E-09  9.22746E-09  8.72506E-09  7.94664E-09  7.28648E-09  7.04668E-09
   6.74095E-09  7.44024E-09  6.93495E-09  7.04661E-09  6.43031E-09  6.83224E-09  6.39602E-09  6.27817E-09  4.80795E-09  5.25290E-09
   5.24756E-09  5.59064E-09  6.25659E-09  7.21059E-09  9.16379E-09  1.13090E-08  1.27240E-08  1.44014E-08  1.38219E-08  1.23763E-08
   1.07860E-08  9.65700E-09  8.47320E-09  8.31626E-09  7.18074E-09  6.72119E-09  5.38090E-09  5.56868E-09  5.56484E-09  5.55875E-09
   6.73365E-09  8.71504E-09  1.18199E-08  1.48778E-08  1.54147E-08  1.51761E-08  1.45159E-08  1.34279E-08  1.31443E-08  1.26776E-08
   1.20933E-08  1.18726E-08  1.15819E-08  1.10739E-08  1.04317E-08  1.04270E-08  1.01962E-08  8.99741E-09  8.96924E-09  8.61609E-09
   8.12409E-09  8.22846E-09  7.45941E-09  7.12577E-09  7.64978E-09  7.85925E-09  7.79075E-09  7.01564E-09  7.01011E-09  7.02640E-09
   6.17723E-09  6.79011E-09  5.24256E-09  5.53234E-09  4.12951E-09  4.66232E-09  4.93982E-09  5.74297E-09  4.72692E-09  5.35584E-09
   6.08903E-09  5.87362E-09  5.75133E-09  5.90186E-09  6.28050E-09  5.92813E-09  4.72419E-09  5.07344E-09  4.40175E-09  3.95901E-09
   3.19365E-09  4.43826E-09  3.95532E-09  4.25427E-09  4.42513E-09  3.84775E-09  4.54549E-09  4.15409E-09  3.90252E-09  3.71742E-09
   3.86524E-09  3.71721E-09  4.42288E-09  5.49778E-09  5.44221E-09  6.36645E-09  5.87925E-09  5.84390E-09  6.10030E-09  6.49967E-09
   6.74270E-09  7.45413E-09  6.75844E-09  6.49015E-09  6.34182E-09  6.49630E-09  5.69824E-09  5.50036E-09  5.33305E-09  5.76177E-09
   5.47463E-09  5.14383E-09  5.09785E-09  4.57028E-09  4.46335E-09  5.17015E-09  4.65469E-09  4.34189E-09  4.09696E-09  3.42514E-09
   3.43333E-09  4.30020E-09  4.34271E-09  7.55411E-09  1.16522E-08  1.54140E-08  1.66774E-08  1.72758E-08  1.71173E-08  1.71324E-08
   1.65222E-08  1.57443E-08  1.51118E-08  1.51238E-08  1.48053E-08  1.43718E-08  1.37412E-08  1.30317E-08  1.25186E-08  1.19817E-08
   1.10705E-08  1.00036E-08  9.03629E-09  8.40396E-09  7.10484E-09  6.09661E-09  4.23553E-09  2.88644E-09  1.11612E-09  4.36326E-11
  -1.55846E-09 -3.17689E-09 -4.08120E-09 -5.42541E-09 -5.82326E-09 -6.70971E-09 -7.24051E-09 -7.51650E-09 -7.40251E-09 -7.03895E-09
  -6.57639E-09 -6.40430E-09 -5.07439E-09 -4.14780E-09 -3.57873E-09 -2.54805E-09 -1.95611E-09 -1.96690E-09 -1.53237E-09 -1.25738E-09
  -1.50552E-09 -1.11536E-09 -1.59884E-09 -2.15424E-09 -2.10048E-09 -1.38718E-09 -1.29681E-09 -3.25207E-10 -3.92230E-10 -7.51298E-10
  -1.05473E-09 -1.05051E-09 -6.87590E-10 -1.05206E-09 -1.50054E-09 -5.04378E-10 -1.08908E-09 -1.08943E-09 -8.51843E-10 -3.73012E-10
  -6.04437E-10 -7.08820E-10 -8.09407E-10 -8.36582E-10 -5.71106E-10 -7.35896E-10 -9.76506E-10 -1.26266E-09 -7.97601E-10 -1.48314E-09
  -1.04615E-09 -1.04684E-09 -9.13932E-10 -1.19382E-09 -9.17673E-10 -7.15755E-10 -4.48422E-10 -4.28953E-10  4.95330E-11  2.74181E-12
   2.39507E-10 -1.81337E-10  4.12690E-10 -4.10221E-10 -9.50739E-10 -7.06014E-10 -1.25274E-09 -1.38169E-09 -1.84587E-09 -1.72833E-09
  -2.32563E-09 -1.74981E-09 -2.34539E-09 -1.62591E-09 -1.86330E-09 -1.22763E-09 -1.58967E-09 -6.17182E-10 -1.18155E-09 -1.93934E-10
   1.17438E-10 -2.33324E-10 -3.23190E-10  9.63770E-11  8.64062E-11 -2.31198E-11 -5.44003E-11 -2.40299E-10  4.01190E-12 -1.51261E-10
  -6.56611E-11 -1.97824E-10  7.16650E-12 -3.02793E-10 -6.14592E-10 -4.79417E-10 -6.54807E-10 -3.63640E-10 -7.28957E-10 -4.86385E-10
  -6.34507E-10 -5.32185E-10 -1.08104E-09 -1.25874E-09 -9.23511E-10 -1.64787E-09 -1.00236E-09 -1.30531E-09 -1.23715E-09 -1.24857E-09
  -1.20446E-09 -1.54381E-09 -1.73631E-09 -1.32814E-09 -1.09897E-09 -1.99203E-09 -1.20162E-09 -1.78527E-09 -2.27489E-09 -1.53180E-09
  -2.00020E-09 -2.12997E-09 -2.02836E-09 -1.90938E-09 -2.01690E-09 -1.61878E-09 -1.86472E-09 -2.67951E-09 -1.83154E-09 -2.39483E-09
  -2.08442E-09 -2.05248E-09 -2.45675E-09 -2.13787E-09 -2.58746E-09 -2.19015E-09 -2.08448E-09 -2.61868E-09 -2.53846E-09 -2.34416E-09
  -2.10779E-09 -3.10519E-09 -2.26147E-09 -2.34444E-09 -2.97939E-09 -2.61353E-09 -2.64322E-09 -2.56233E-09 -2.85792E-09 -2.75171E-09
  -2.84187E-09 -2.65386E-09 -2.89701E-09 -2.75149E-09 -3.23240E-09 -2.68359E-09 -2.91136E-09 -2.92085E-09 -2.88802E-09 -2.88155E-09
  -3.46758E-09 -3.04733E-09 -2.54128E-09 -2.57109E-09 -2.72720E-09 -3.00445E-09 -3.40140E-09 -2.95302E-09 -2.91820E-09 -3.02637E-09
  -2.94213E-09 -3.23535E-09 -2.73504E-09
 NY points of the fit to the data follow
   1.26770E-08  1.25896E-08  1.23720E-08  1.15644E-08  1.14710E-08  1.25375E-08  1.26431E-08  1.26532E-08  1.40989E-08  1.32838E-08
   1.30476E-08  1.24443E-08  1.13381E-08  1.13571E-08  1.18774E-08  1.16193E-08  1.07192E-08  1.14281E-08  1.26351E-08  1.17662E-08
   1.07031E-08  1.12456E-08  1.24737E-08  1.32965E-08  1.30806E-08  1.36079E-08  1.38006E-08  1.33542E-08  1.24477E-08  1.14751E-08
   1.11953E-08  1.07555E-08  9.84906E-09  9.33190E-09  9.07437E-09  8.63096E-09  8.12363E-09  7.85468E-09  7.50251E-09  7.27477E-09
   7.13633E-09  7.04674E-09  7.13172E-09  7.05602E-09  6.52344E-09  6.11125E-09  6.10444E-09  5.62310E-09  5.61777E-09  5.91691E-09
   6.53587E-09  6.98049E-09  7.41706E-09  8.90553E-09  1.00331E-08  9.83655E-09  1.09208E-08  1.19452E-08  1.18149E-08  1.14567E-08
   1.13738E-08  1.09235E-08  1.07233E-08  1.03650E-08  9.07472E-09  8.51930E-09  8.87819E-09  7.97994E-09  7.32900E-09  7.94090E-09
   8.90968E-09  9.38236E-09  1.00437E-08  1.10647E-08  1.19233E-08  1.29396E-08  1.42809E-08  1.44256E-08  1.41654E-08  1.39280E-08
   1.33319E-08  1.25724E-08  1.19718E-08  1.12812E-08  1.04591E-08  9.87125E-09  8.91580E-09  7.52870E-09  6.97096E-09  6.65524E-09
   6.40768E-09  6.25384E-09  6.14516E-09  6.06250E-09  5.97635E-09  5.90954E-09  5.85555E-09  5.81462E-09  5.78698E-09  5.73797E-09
   5.70700E-09  5.69643E-09  5.68141E-09  5.66305E-09  5.64933E-09  5.63894E-09  5.63040E-09  5.62334E-09  5.61660E-09  5.61016E-09
   5.60381E-09  5.59735E-09  5.59062E-09  5.58346E-09  5.57575E-09  5.56738E-09  5.55827E-09  5.54833E-09  5.53749E-09  5.52568E-09
   5.51285E-09  5.49895E-09  5.48394E-09  5.46776E-09  5.45038E-09  5.43177E-09  5.41188E-09  5.39070E-09  5.36820E-09  5.34434E-09
   5.31910E-09  5.29247E-09  5.26444E-09  5.23496E-09  5.20405E-09  5.17168E-09  5.13785E-09  5.10255E-09  5.06578E-09  5.02754E-09
   4.98783E-09  4.94667E-09  4.90408E-09  4.86008E-09  4.81471E-09  4.76801E-09  4.72005E-09  4.67090E-09  4.62067E-09  4.56951E-09
   4.51758E-09  4.46513E-09  4.41249E-09  4.36007E-09  4.30847E-09  4.25850E-09  4.21137E-09  4.16888E-09  4.13380E-09  4.11046E-09
   4.10610E-09  4.13377E-09  4.21939E-09  4.42211E-09  4.90842E-09  6.33779E-09  1.20882E-08  1.83954E-08  1.95747E-08  1.81643E-08
   1.68880E-08  1.61635E-08  1.56884E-08  1.50680E-08  1.45774E-08  1.49142E-08  1.48407E-08  1.07317E-08  5.66125E-09  3.56369E-09
   2.84150E-09  2.45900E-09  2.20260E-09  2.00614E-09  1.84277E-09  1.69967E-09  1.56991E-09  1.44952E-09  1.33608E-09  1.22800E-09
   1.12426E-09  1.02418E-09  9.27234E-10  8.33155E-10  7.41669E-10  6.52645E-10  5.65981E-10  4.81634E-10  3.99545E-10  3.19739E-10
   2.42215E-10  1.66996E-10  9.41256E-11  2.36403E-11 -4.44018E-11 -1.09952E-10 -1.72925E-10 -2.33296E-10 -2.90988E-10 -3.46083E-10
  -3.98643E-10 -4.48739E-10 -4.96434E-10 -5.41799E-10 -5.84892E-10 -6.25785E-10 -6.64532E-10 -7.01194E-10 -7.35841E-10 -7.68531E-10
  -7.99313E-10 -8.28259E-10 -8.55427E-10 -8.80870E-10 -9.04651E-10 -9.26828E-10 -9.47450E-10 -9.66592E-10 -9.84310E-10 -1.00064E-09
  -1.01566E-09 -1.02942E-09 -1.04197E-09 -1.05339E-09 -1.06371E-09 -1.07301E-09 -1.08134E-09 -1.08874E-09 -1.09529E-09 -1.10103E-09
  -1.10603E-09 -1.11033E-09 -1.11400E-09 -1.11709E-09 -1.11966E-09 -1.12176E-09 -1.12346E-09 -1.12481E-09 -1.12586E-09 -1.12666E-09
  -1.12728E-09 -1.12778E-09 -1.12821E-09 -1.12861E-09 -1.12907E-09 -1.12961E-09 -1.13031E-09 -1.13122E-09 -1.13239E-09 -1.13389E-09
  -1.13574E-09 -1.13794E-09 -1.14050E-09 -1.14343E-09 -1.14671E-09 -1.15036E-09 -1.15437E-09 -1.15875E-09 -1.16350E-09 -1.16862E-09
  -1.17412E-09 -1.18000E-09 -1.18625E-09 -1.19288E-09 -1.19989E-09 -1.20729E-09 -1.21507E-09 -1.22324E-09 -1.23180E-09 -1.24075E-09
  -1.25009E-09 -1.25983E-09 -1.26996E-09 -1.28049E-09 -1.29142E-09 -1.30276E-09 -1.31450E-09 -1.32665E-09 -1.33920E-09 -1.35217E-09
  -1.36555E-09 -1.37934E-09 -1.39355E-09 -1.40818E-09 -1.42322E-09 -1.43869E-09 -1.45458E-09 -1.47090E-09 -1.48764E-09 -1.50481E-09
  -1.52242E-09 -1.54045E-09 -1.55892E-09 -1.57783E-09 -1.59717E-09 -1.61696E-09 -1.63718E-09 -1.65785E-09 -1.67897E-09 -1.70053E-09
  -1.72255E-09 -1.74502E-09 -1.76793E-09 -1.79126E-09 -1.81502E-09 -1.83917E-09 -1.86372E-09 -1.88865E-09 -1.91394E-09 -1.93959E-09
  -1.96557E-09 -1.99188E-09 -2.01851E-09 -2.04543E-09 -2.07265E-09 -2.10014E-09 -2.12789E-09 -2.15590E-09 -2.18413E-09 -2.21260E-09
  -2.24127E-09 -2.27014E-09 -2.29920E-09 -2.32843E-09 -2.35782E-09 -2.38736E-09 -2.41703E-09 -2.44682E-09 -2.47672E-09 -2.50671E-09
  -2.53679E-09 -2.56694E-09 -2.59714E-09 -2.62739E-09 -2.65766E-09 -2.68796E-09 -2.71826E-09 -2.74856E-09 -2.77883E-09 -2.80907E-09
  -2.83926E-09 -2.86939E-09 -2.89946E-09 -2.92943E-09 -2.95931E-09 -2.98908E-09 -3.01873E-09 -3.04823E-09 -3.07759E-09 -3.10679E-09
  -3.13581E-09 -3.16465E-09 -3.19328E-09
 NY background values follow
    -5.443E-10   -4.844E-10   -4.246E-10   -3.647E-10   -3.048E-10   -2.449E-10   -1.850E-10   -1.251E-10   -6.521E-11   -5.319E-12
     5.455E-11    1.144E-10    1.742E-10    2.340E-10    2.937E-10    3.534E-10    4.130E-10    4.726E-10    5.321E-10    5.915E-10
     6.509E-10    7.101E-10    7.693E-10    8.284E-10    8.873E-10    9.462E-10    1.005E-09    1.064E-09    1.122E-09    1.180E-09
     1.239E-09    1.297E-09    1.354E-09    1.412E-09    1.470E-09    1.527E-09    1.584E-09    1.641E-09    1.698E-09    1.755E-09
     1.811E-09    1.868E-09    1.924E-09    1.979E-09    2.035E-09    2.090E-09    2.145E-09    2.200E-09    2.255E-09    2.309E-09
     2.363E-09    2.417E-09    2.470E-09    2.524E-09    2.576E-09    2.629E-09    2.681E-09    2.733E-09    2.785E-09    2.836E-09
     2.886E-09    2.937E-09    2.986E-09    3.036E-09    3.085E-09    3.133E-09    3.181E-09    3.228E-09    3.275E-09    3.321E-09
     3.366E-09    3.411E-09    3.455E-09    3.499E-09    3.542E-09    3.584E-09    3.626E-09    3.667E-09    3.707E-09    3.746E-09
     3.785E-09    3.822E-09    3.859E-09    3.895E-09    3.930E-09    3.965E-09    3.998E-09    4.031E-09    4.062E-09    4.093E-09
     4.123E-09    4.152E-09    4.179E-09    4.206E-09    4.232E-09    4.256E-09    4.280E-09    4.302E-09    4.324E-09    4.344E-09
     4.363E-09    4.381E-09    4.398E-09    4.413E-09    4.427E-09    4.441E-09    4.452E-09    4.463E-09    4.472E-09    4.480E-09
     4.487E-09    4.492E-09    4.496E-09    4.499E-09    4.500E-09    4.500E-09    4.498E-09    4.495E-09    4.491E-09    4.485E-09
     4.478E-09    4.469E-09    4.458E-09    4.447E-09    4.433E-09    4.418E-09    4.402E-09    4.384E-09    4.364E-09    4.343E-09
     4.320E-09    4.295E-09    4.269E-09    4.241E-09    4.212E-09    4.180E-09    4.147E-09    4.113E-09    4.076E-09    4.038E-09
     3.998E-09    3.956E-09    3.912E-09    3.867E-09    3.820E-09    3.770E-09    3.719E-09    3.666E-09    3.611E-09    3.555E-09
     3.496E-09    3.435E-09    3.373E-09    3.308E-09    3.241E-09    3.173E-09    3.102E-09    3.029E-09    2.955E-09    2.878E-09
     2.800E-09    2.721E-09    2.640E-09    2.557E-09    2.473E-09    2.388E-09    2.302E-09    2.214E-09    2.126E-09    2.037E-09
     1.946E-09    1.856E-09    1.764E-09    1.672E-09    1.580E-09    1.487E-09    1.394E-09    1.300E-09    1.207E-09    1.113E-09
     1.020E-09    9.268E-10    8.338E-10    7.411E-10    6.489E-10    5.572E-10    4.661E-10    3.756E-10    2.860E-10    1.972E-10
     1.094E-10    2.259E-11   -6.309E-11   -1.475E-10   -2.307E-10   -3.124E-10   -3.927E-10   -4.714E-10   -5.484E-10   -6.237E-10
    -6.972E-10   -7.687E-10   -8.382E-10   -9.056E-10   -9.709E-10   -1.034E-09   -1.094E-09   -1.153E-09   -1.208E-09   -1.261E-09
    -1.312E-09   -1.360E-09   -1.407E-09   -1.450E-09   -1.492E-09   -1.532E-09   -1.569E-09   -1.605E-09   -1.638E-09   -1.670E-09
    -1.699E-09   -1.727E-09   -1.754E-09   -1.778E-09   -1.801E-09   -1.822E-09   -1.842E-09   -1.860E-09   -1.877E-09   -1.893E-09
    -1.907E-09   -1.920E-09   -1.932E-09   -1.943E-09   -1.953E-09   -1.961E-09   -1.969E-09   -1.976E-09   -1.982E-09   -1.987E-09
    -1.991E-09   -1.995E-09   -1.998E-09   -2.001E-09   -2.003E-09   -2.004E-09   -2.006E-09   -2.006E-09   -2.007E-09   -2.007E-09
    -2.007E-09   -2.007E-09   -2.007E-09   -2.007E-09   -2.007E-09   -2.007E-09   -2.008E-09   -2.008E-09   -2.009E-09   -2.010E-09
    -2.011E-09   -2.013E-09   -2.015E-09   -2.018E-09   -2.021E-09   -2.024E-09   -2.028E-09   -2.032E-09   -2.036E-09   -2.041E-09
    -2.046E-09   -2.051E-09   -2.057E-09   -2.064E-09   -2.070E-09   -2.077E-09   -2.085E-09   -2.092E-09   -2.101E-09   -2.109E-09
    -2.118E-09   -2.128E-09   -2.137E-09   -2.147E-09   -2.158E-09   -2.169E-09   -2.180E-09   -2.192E-09   -2.204E-09   -2.217E-09
    -2.230E-09   -2.243E-09   -2.257E-09   -2.272E-09   -2.286E-09   -2.301E-09   -2.317E-09   -2.333E-09   -2.349E-09   -2.366E-09
    -2.383E-09   -2.401E-09   -2.419E-09   -2.438E-09   -2.457E-09   -2.476E-09   -2.496E-09   -2.516E-09   -2.537E-09   -2.558E-09
    -2.580E-09   -2.602E-09   -2.625E-09   -2.648E-09   -2.671E-09   -2.695E-09   -2.719E-09   -2.744E-09   -2.769E-09   -2.794E-09
    -2.819E-09   -2.845E-09   -2.872E-09   -2.898E-09   -2.925E-09   -2.952E-09   -2.980E-09   -3.007E-09   -3.035E-09   -3.063E-09
    -3.092E-09   -3.120E-09   -3.149E-09   -3.178E-09   -3.207E-09   -3.236E-09   -3.265E-09   -3.294E-09   -3.324E-09   -3.354E-09
    -3.383E-09   -3.413E-09   -3.443E-09   -3.473E-09   -3.503E-09   -3.532E-09   -3.562E-09   -3.592E-09   -3.622E-09   -3.652E-09
    -3.682E-09   -3.711E-09   -3.741E-09   -3.771E-09   -3.800E-09   -3.830E-09   -3.859E-09   -3.888E-09   -3.917E-09   -3.946E-09
    -3.974E-09   -4.003E-09   -4.031E-09
 GABA     Conc. = 2.60E-11
  -5.41515E-10 -4.81662E-10 -4.21775E-10 -3.61862E-10 -3.01924E-10 -2.41974E-10 -1.82012E-10 -1.22045E-10 -6.20794E-11 -2.11563E-12
   5.78306E-11  1.17764E-10  1.77681E-10  2.37567E-10  2.97430E-10  3.57261E-10  4.17041E-10  4.76803E-10  5.36523E-10  5.96207E-10
   6.55866E-10  7.15510E-10  7.75164E-10  8.34859E-10  8.94648E-10  9.54643E-10  1.01508E-09  1.07648E-09  1.14037E-09  1.21064E-09
   1.26846E-09  1.32671E-09  1.40444E-09  1.46727E-09  1.51893E-09  1.58249E-09  1.64284E-09  1.69942E-09  1.75487E-09  1.80534E-09
   1.85203E-09  1.91102E-09  1.96484E-09  2.00364E-09  2.05589E-09  2.11241E-09  2.15971E-09  2.21053E-09  2.26325E-09  2.31657E-09
   2.37010E-09  2.42361E-09  2.47704E-09  2.53036E-09  2.58354E-09  2.63656E-09  2.68947E-09  2.74232E-09  2.79527E-09  2.84870E-09
   2.90351E-09  2.96266E-09  3.02135E-09  3.06871E-09  3.12574E-09  3.18686E-09  3.23135E-09  3.27551E-09  3.32414E-09  3.37003E-09
   3.41448E-09  3.45610E-09  3.49185E-09  3.52940E-09  3.57426E-09  3.60747E-09  3.63853E-09  3.68017E-09  3.71860E-09  3.75721E-09
   3.79874E-09  3.83335E-09  3.87258E-09  3.91965E-09  3.95437E-09  3.98843E-09  4.02977E-09  4.06417E-09  4.09624E-09  4.12945E-09
   4.15716E-09  4.18366E-09  4.21483E-09  4.23831E-09  4.25579E-09  4.28195E-09  4.30418E-09  4.31971E-09  4.33909E-09  4.35796E-09
   4.37447E-09  4.39064E-09  4.40615E-09  4.42078E-09  4.43439E-09  4.44689E-09  4.45825E-09  4.46841E-09  4.47736E-09  4.48505E-09
   4.49147E-09  4.49659E-09  4.50039E-09  4.50284E-09  4.50394E-09  4.50366E-09  4.50199E-09  4.49891E-09  4.49439E-09  4.48843E-09
   4.48101E-09  4.47210E-09  4.46170E-09  4.44979E-09  4.43635E-09  4.42137E-09  4.40482E-09  4.38671E-09  4.36699E-09  4.34567E-09
   4.32272E-09  4.29813E-09  4.27189E-09  4.24398E-09  4.21438E-09  4.18307E-09  4.15004E-09  4.11528E-09  4.07877E-09  4.04050E-09
   4.00044E-09  3.95858E-09  3.91491E-09  3.86942E-09  3.82207E-09  3.77287E-09  3.72179E-09  3.66882E-09  3.61394E-09  3.55715E-09
   3.49841E-09  3.43772E-09  3.37507E-09  3.31044E-09  3.24380E-09  3.17515E-09  3.10451E-09  3.03191E-09  2.95746E-09  2.88125E-09
   2.80341E-09  2.72402E-09  2.64325E-09  2.56129E-09  2.47855E-09  2.39617E-09  2.31980E-09  2.26060E-09  2.17756E-09  2.08308E-09
   1.98912E-09  1.89621E-09  1.80387E-09  1.71064E-09  1.61632E-09  1.52392E-09  1.43358E-09  1.33425E-09  1.21915E-09  1.12022E-09
   1.02500E-09  9.30897E-10  8.37413E-10  7.44451E-10  6.51991E-10  5.60127E-10  4.68894E-10  3.78355E-10  2.88630E-10  1.99782E-10
   1.11887E-10  2.50538E-11 -6.06618E-11 -1.45129E-10 -2.28305E-10 -3.10079E-10 -3.90373E-10 -4.69081E-10 -5.46146E-10 -6.21450E-10
  -6.94918E-10 -7.66464E-10 -8.35993E-10 -9.03425E-10 -9.68667E-10 -1.03164E-09 -1.09222E-09 -1.15038E-09 -1.20602E-09 -1.25919E-09
  -1.30995E-09 -1.35836E-09 -1.40447E-09 -1.44834E-09 -1.49002E-09 -1.52958E-09 -1.56705E-09 -1.60251E-09 -1.63600E-09 -1.66760E-09
  -1.69733E-09 -1.72527E-09 -1.75147E-09 -1.77599E-09 -1.79888E-09 -1.82020E-09 -1.83999E-09 -1.85833E-09 -1.87528E-09 -1.89086E-09
  -1.90515E-09 -1.91821E-09 -1.93008E-09 -1.94083E-09 -1.95050E-09 -1.95917E-09 -1.96688E-09 -1.97369E-09 -1.97964E-09 -1.98481E-09
  -1.98924E-09 -1.99300E-09 -1.99613E-09 -1.99869E-09 -2.00074E-09 -2.00233E-09 -2.00353E-09 -2.00439E-09 -2.00495E-09 -2.00528E-09
  -2.00543E-09 -2.00547E-09 -2.00544E-09 -2.00539E-09 -2.00540E-09 -2.00551E-09 -2.00577E-09 -2.00625E-09 -2.00700E-09 -2.00808E-09
  -2.00952E-09 -2.01131E-09 -2.01346E-09 -2.01598E-09 -2.01886E-09 -2.02211E-09 -2.02573E-09 -2.02973E-09 -2.03409E-09 -2.03883E-09
  -2.04394E-09 -2.04944E-09 -2.05531E-09 -2.06157E-09 -2.06821E-09 -2.07523E-09 -2.08265E-09 -2.09045E-09 -2.09864E-09 -2.10723E-09
  -2.11620E-09 -2.12558E-09 -2.13536E-09 -2.14553E-09 -2.15611E-09 -2.16709E-09 -2.17847E-09 -2.19026E-09 -2.20247E-09 -2.21508E-09
  -2.22811E-09 -2.24155E-09 -2.25540E-09 -2.26968E-09 -2.28437E-09 -2.29949E-09 -2.31503E-09 -2.33100E-09 -2.34739E-09 -2.36421E-09
  -2.38147E-09 -2.39915E-09 -2.41728E-09 -2.43583E-09 -2.45482E-09 -2.47426E-09 -2.49414E-09 -2.51446E-09 -2.53523E-09 -2.55644E-09
  -2.57810E-09 -2.60022E-09 -2.62277E-09 -2.64576E-09 -2.66916E-09 -2.69296E-09 -2.71715E-09 -2.74172E-09 -2.76666E-09 -2.79194E-09
  -2.81757E-09 -2.84352E-09 -2.86979E-09 -2.89635E-09 -2.92321E-09 -2.95033E-09 -2.97772E-09 -3.00536E-09 -3.03323E-09 -3.06132E-09
  -3.08963E-09 -3.11813E-09 -3.14682E-09 -3.17568E-09 -3.20469E-09 -3.23385E-09 -3.26315E-09 -3.29256E-09 -3.32208E-09 -3.35169E-09
  -3.38138E-09 -3.41115E-09 -3.44096E-09 -3.47082E-09 -3.50071E-09 -3.53061E-09 -3.56052E-09 -3.59042E-09 -3.62029E-09 -3.65013E-09
  -3.67992E-09 -3.70965E-09 -3.73931E-09 -3.76888E-09 -3.79834E-09 -3.82770E-09 -3.85694E-09 -3.88602E-09 -3.91496E-09 -3.94374E-09
  -3.97234E-09 -4.00075E-09 -4.02895E-09
 Gln      Conc. = 2.63E-09
   2.38405E-09  2.83454E-09  3.00484E-09  2.96713E-09  2.95151E-09  2.91621E-09  2.72726E-09  2.45148E-09  2.48731E-09  1.89556E-09
   1.58763E-09  1.51347E-09  1.10614E-09  9.57221E-10  9.12086E-10  9.08900E-10  9.26750E-10  9.57431E-10  9.96271E-10  1.04060E-09
   1.08881E-09  1.13965E-09  1.19246E-09  1.24754E-09  1.30467E-09  1.36239E-09  1.42155E-09  1.48188E-09  1.54290E-09  1.60467E-09
   1.66721E-09  1.73052E-09  1.79469E-09  1.85976E-09  1.92582E-09  1.99296E-09  2.06131E-09  2.13096E-09  2.20267E-09  2.27636E-09
   2.35277E-09  2.43253E-09  2.51577E-09  2.60308E-09  2.69680E-09  2.79724E-09  2.90637E-09  3.03372E-09  3.18112E-09  3.35248E-09
   3.57664E-09  3.89070E-09  4.38654E-09  5.36595E-09  6.26279E-09  6.29356E-09  7.23317E-09  8.26170E-09  8.27668E-09  8.08962E-09
   8.20490E-09  8.14320E-09  8.01792E-09  7.70555E-09  6.92223E-09  6.41598E-09  6.53165E-09  5.82415E-09  5.13464E-09  5.11166E-09
   5.74167E-09  6.08413E-09  6.10475E-09  6.94907E-09  7.71359E-09  7.80884E-09  8.15840E-09  8.37061E-09  8.33446E-09  8.36690E-09
   8.32219E-09  7.75318E-09  7.44710E-09  7.40801E-09  6.66842E-09  6.12393E-09  5.97454E-09  5.56279E-09  5.27231E-09  5.10836E-09
   5.00546E-09  4.94049E-09  4.89839E-09  4.86706E-09  4.84569E-09  4.83254E-09  4.82388E-09  4.81903E-09  4.81761E-09  4.81828E-09
   4.81999E-09  4.82246E-09  4.82538E-09  4.82882E-09  4.83246E-09  4.83592E-09  4.83906E-09  4.84174E-09  4.84387E-09  4.84533E-09
   4.84605E-09  4.84594E-09  4.84493E-09  4.84297E-09  4.83999E-09  4.83595E-09  4.83080E-09  4.82450E-09  4.81701E-09  4.80829E-09
   4.79830E-09  4.78703E-09  4.77444E-09  4.76049E-09  4.74517E-09  4.72844E-09  4.71029E-09  4.69069E-09  4.66963E-09  4.64707E-09
   4.62299E-09  4.59739E-09  4.57024E-09  4.54152E-09  4.51122E-09  4.47932E-09  4.44581E-09  4.41068E-09  4.37391E-09  4.33549E-09
   4.29542E-09  4.25368E-09  4.21028E-09  4.16522E-09  4.11847E-09  4.07007E-09  4.02002E-09  3.96833E-09  3.91504E-09  3.86018E-09
   3.80379E-09  3.74596E-09  3.68679E-09  3.62641E-09  3.56502E-09  3.50289E-09  3.44047E-09  3.37841E-09  3.31779E-09  3.26025E-09
   3.20856E-09  3.16778E-09  3.14827E-09  3.17485E-09  3.32270E-09  3.92428E-09  6.56966E-09  7.46088E-09  6.97733E-09  6.45101E-09
   6.10547E-09  5.90220E-09  5.69610E-09  5.40390E-09  5.27860E-09  5.46928E-09  5.07193E-09  2.89868E-09  1.97226E-09  1.64536E-09
   1.45287E-09  1.30695E-09  1.18203E-09  1.06831E-09  9.61309E-10  8.58805E-10  7.59516E-10  6.62713E-10  5.68006E-10  4.75122E-10
   3.83906E-10  2.94302E-10  2.06247E-10  1.19782E-10  3.48850E-11 -4.83854E-11 -1.29989E-10 -2.09854E-10 -2.87946E-10 -3.64169E-10
  -4.38462E-10 -5.10752E-10 -5.80958E-10 -6.49007E-10 -7.14814E-10 -7.78304E-10 -8.39371E-10 -8.97975E-10 -9.54025E-10 -1.00759E-09
  -1.05871E-09 -1.10746E-09 -1.15389E-09 -1.19806E-09 -1.24003E-09 -1.27985E-09 -1.31759E-09 -1.35329E-09 -1.38702E-09 -1.41884E-09
  -1.44878E-09 -1.47693E-09 -1.50333E-09 -1.52804E-09 -1.55111E-09 -1.57261E-09 -1.59258E-09 -1.61108E-09 -1.62819E-09 -1.64393E-09
