 LCModel (Version 6.3-1R) Copyright: S.W. Provencher.          Ref.: Magn. Reson. Med. 30:672-679 (1993).                
 onepulse 20x17_ftSpec_smooth_lcm
 26 lines in following concentration table = NCONC+1
    Conc.  %SD   /Cr    Metabolite                                         
 1.30E-10 128%   0.000 Ala                                                 
 6.25E-10  51%   0.000 Asp                                                 
    0.000 999%   0.000 Cr                                                  
 2.98E-09  11%   0.000 GABA                                                
 1.28E-09  28%   0.000 Glc                                                 
    0.000 999%   0.000 Gln                                                 
 2.01E-10 168%   0.000 Glu                                                 
    0.000 999%   0.000 Glyc                                                
    0.000 999%   0.000 GPC                                                 
    0.000 999%   0.000 GSH                                                 
 1.72E-10 103%   0.000 Ins                                                 
    0.000 999%   0.000 Lac                                                 
    0.000 999%   0.000 NAAG                                                
 1.09E-09  14%   0.000 NAA                                                 
 1.05E-10  45%   0.000 PCh                                                 
    0.000 999%   0.000 PCr                                                 
    0.000 999%   0.000 PE                                                  
 3.08E-11 278%   0.000 Scyllo                                              
    0.000 999%   0.000 Ser                                                 
    0.000 999%   0.000 Tau                                                 
 1.05E-10  45%   0.000 GPC+PCh                                             
 1.09E-09  14%   0.000 NAA+NAAG                                            
 1.72E-10 103%   0.000 Ins+Glyc                                            
    0.000 999%   0.000 Cr+PCr                                              
 2.01E-10 168%   0.000 Glu+Gln                                             
   6 lines in following misc. output table
  FWHM = 0.067 ppm    S/N =   5                                            
  Data shift = 0.335 ppm                                                   
  Ph:  70 deg      38.6 deg/ppm                                            
  alphaB,S = 1.7E-01,   6.4E+01                                            
   16 spline knots.   Ns = 5(1)                                            
  ( 7) 2 infls.   ( 3) 1 extrs.                                            
  363 points on ppm-axis = NY
      4.250000     4.238821     4.227641     4.216462     4.205282     4.194103     4.182923     4.171744     4.160564     4.149385
      4.138206     4.127026     4.115847     4.104667     4.093488     4.082308     4.071129     4.059949     4.048770     4.037591
      4.026411     4.015232     4.004052     3.992873     3.981693     3.970514     3.959334     3.948155     3.936975     3.925796
      3.914617     3.903437     3.892258     3.881078     3.869899     3.858719     3.847540     3.836360     3.825181     3.814002
      3.802822     3.791643     3.780463     3.769284     3.758104     3.746925     3.735745     3.724566     3.713387     3.702207
      3.691028     3.679848     3.668669     3.657489     3.646310     3.635130     3.623951     3.612772     3.601592     3.590413
      3.579233     3.568054     3.556874     3.545695     3.534515     3.523336     3.512156     3.500977     3.489798     3.478618
      3.467439     3.456259     3.445080     3.433900     3.422721     3.411541     3.400362     3.389183     3.378003     3.366824
      3.355644     3.344465     3.333285     3.322106     3.310926     3.299747     3.288568     3.277388     3.266209     3.255029
      3.243850     3.232670     3.221491     3.210311     3.199132     3.187953     3.176773     3.165594     3.154414     3.143235
      3.132055     3.120876     3.109696     3.098517     3.087337     3.076158     3.064979     3.053799     3.042620     3.031440
      3.020261     3.009081     2.997902     2.986722     2.975543     2.964364     2.953184     2.942005     2.930825     2.919646
      2.908466     2.897287     2.886107     2.874928     2.863749     2.852569     2.841390     2.830210     2.819031     2.807851
      2.796672     2.785492     2.774313     2.763134     2.751954     2.740775     2.729595     2.718416     2.707236     2.696057
      2.684877     2.673698     2.662519     2.651339     2.640160     2.628980     2.617801     2.606621     2.595442     2.584262
      2.573083     2.561903     2.550724     2.539545     2.528365     2.517186     2.506006     2.494827     2.483647     2.472468
      2.461288     2.450109     2.438930     2.427750     2.416571     2.405391     2.394212     2.383032     2.371853     2.360673
      2.349494     2.338315     2.327135     2.315956     2.304776     2.293597     2.282417     2.271238     2.260058     2.248879
      2.237700     2.226520     2.215341     2.204161     2.192982     2.181802     2.170623     2.159443     2.148264     2.137084
      2.125905     2.114726     2.103546     2.092367     2.081187     2.070008     2.058828     2.047649     2.036469     2.025290
      2.014111     2.002931     1.991752     1.980572     1.969393     1.958213     1.947034     1.935854     1.924675     1.913496
      1.902316     1.891137     1.879957     1.868778     1.857598     1.846419     1.835239     1.824060     1.812881     1.801701
      1.790522     1.779342     1.768163     1.756983     1.745804     1.734624     1.723445     1.712265     1.701086     1.689907
      1.678727     1.667548     1.656368     1.645189     1.634009     1.622830     1.611650     1.600471     1.589292     1.578112
      1.566933     1.555753     1.544574     1.533394     1.522215     1.511035     1.499856     1.488677     1.477497     1.466318
      1.455138     1.443959     1.432779     1.421600     1.410420     1.399241     1.388062     1.376882     1.365703     1.354523
      1.343344     1.332164     1.320985     1.309805     1.298626     1.287446     1.276267     1.265088     1.253908     1.242729
      1.231549     1.220370     1.209190     1.198011     1.186831     1.175652     1.164473     1.153293     1.142114     1.130934
      1.119755     1.108575     1.097396     1.086216     1.075037     1.063858     1.052678     1.041499     1.030319     1.019140
      1.007960     0.996781     0.985601     0.974422     0.963243     0.952063     0.940884     0.929704     0.918525     0.907345
      0.896166     0.884986     0.873807     0.862628     0.851448     0.840269     0.829089     0.817910     0.806730     0.795551
      0.784371     0.773192     0.762012     0.750833     0.739654     0.728474     0.717295     0.706115     0.694936     0.683756
      0.672577     0.661397     0.650218     0.639039     0.627859     0.616680     0.605500     0.594321     0.583141     0.571962
      0.560782     0.549603     0.538424     0.527244     0.516065     0.504885     0.493706     0.482526     0.471347     0.460167
      0.448988     0.437809     0.426629     0.415450     0.404270     0.393091     0.381911     0.370732     0.359552     0.348373
      0.337193     0.326014     0.314835     0.303655     0.292476     0.281296     0.270117     0.258937     0.247758     0.236578
      0.225399     0.214220     0.203040
 NY phased data points follow
  -2.42783E-09  1.31033E-09  3.31503E-09  5.59979E-09  5.21828E-09  4.28011E-09  3.40004E-09  2.67089E-09  1.72949E-09  1.78376E-09
   1.79364E-09  1.77903E-09  1.65564E-09  2.27880E-09  2.92866E-09  3.00427E-09  4.16957E-09  4.94578E-09  4.34662E-09  4.42598E-09
   4.02243E-09  4.72024E-09  4.62389E-09  3.14811E-09  3.66878E-09  3.61032E-09  5.20976E-09  5.50848E-09  5.77749E-09  4.90636E-09
   4.54005E-09  3.95744E-09  4.72561E-09  6.79427E-09  8.40866E-09  9.26545E-09  8.76118E-09  8.12945E-09  5.88011E-09  4.99137E-09
   4.90945E-09  5.37745E-09  3.36960E-09  4.28410E-09  4.51169E-09  3.68413E-09  3.32436E-09  3.76001E-09  3.34169E-09  2.33368E-09
   2.12844E-09  2.57647E-09  2.75204E-09  3.39688E-09  3.57002E-09  2.55576E-09  2.02839E-09  2.57353E-09  1.99990E-09  1.17535E-09
   2.00823E-09  3.08353E-09  3.15031E-09  4.29523E-09  7.68207E-09  1.14423E-08  1.22336E-08  1.05233E-08  8.48419E-09  6.51081E-09
   5.69239E-09  5.62446E-09  4.25304E-09  3.31542E-09  2.34146E-09  3.30487E-09  1.93013E-09  1.76905E-09  2.55072E-09  3.62444E-09
   6.11361E-09  1.02560E-08  1.36877E-08  1.31960E-08  1.05147E-08  9.36948E-09  7.86708E-09  7.88833E-09  6.81207E-09  6.34349E-09
   6.32715E-09  5.79193E-09  5.42686E-09  5.51117E-09  4.49393E-09  4.51081E-09  3.55822E-09  4.35882E-09  3.29529E-09  2.49067E-09
   2.70215E-09  3.24325E-09  3.44904E-09  2.69619E-09  4.36200E-09  3.68652E-09  3.56075E-09  3.68744E-09  3.37299E-09  3.65824E-09
   2.38381E-09  2.16709E-09  1.96786E-09  2.13279E-09  2.34446E-09  3.15141E-09  3.57184E-09  4.03943E-09  3.47030E-09  3.89821E-09
   4.12007E-09  4.37466E-09  3.17566E-09  3.42865E-09  2.90754E-09  1.99944E-09  1.91143E-09  2.35552E-09  2.15152E-09  2.32990E-09
   3.11708E-09  2.85429E-09  2.65295E-09  2.74029E-09  3.38912E-09  2.89343E-09  2.81169E-09  2.53978E-09  1.88942E-09  2.52231E-09
   3.40442E-09  3.80160E-09  5.04884E-09  5.16644E-09  3.51212E-09  3.38113E-09  3.98062E-09  4.93033E-09  4.52379E-09  4.86440E-09
   4.14707E-09  3.91831E-09  3.97569E-09  4.22938E-09  3.99982E-09  3.99263E-09  3.66883E-09  4.41038E-09  4.23577E-09  4.90742E-09
   5.26673E-09  5.82997E-09  5.49936E-09  5.72633E-09  6.12399E-09  6.38158E-09  6.89693E-09  7.40962E-09  7.73286E-09  9.95631E-09
   1.14596E-08  1.41420E-08  1.77578E-08  1.92167E-08  1.53562E-08  1.11766E-08  7.85676E-09  6.13350E-09  5.68255E-09  5.39828E-09
   3.46983E-09  4.22633E-09  3.02952E-09  2.88329E-09  1.93459E-09  2.25718E-09  1.38267E-09  1.77857E-09  1.05083E-09  8.95538E-10
   5.83635E-10  1.17723E-10 -1.16833E-09 -1.37974E-09 -2.35892E-09 -3.10029E-09 -4.20792E-09 -4.47152E-09 -5.58664E-09 -6.97594E-09
  -7.54316E-09 -8.04827E-09 -8.89242E-09 -8.96283E-09 -9.46721E-09 -9.47500E-09 -9.43238E-09 -9.54213E-09 -9.08613E-09 -8.44485E-09
  -8.30831E-09 -6.72077E-09 -6.05503E-09 -4.98028E-09 -4.46436E-09 -3.19420E-09 -2.85601E-09 -3.02420E-09 -1.85463E-09 -2.41204E-09
  -1.65313E-09 -2.83516E-09 -2.70292E-09 -2.16666E-09 -3.40929E-09 -2.28585E-09 -1.62118E-09 -2.33757E-09 -2.25838E-09 -2.06179E-09
  -1.99403E-09 -2.11513E-09 -2.03155E-09 -2.28793E-09 -2.88507E-09 -2.35901E-09 -2.63982E-09 -1.97806E-09 -1.61374E-09 -2.20445E-09
  -1.27073E-09 -1.84004E-09 -1.60433E-09 -1.85678E-09 -2.68105E-09 -2.17380E-09 -1.93270E-09 -2.01224E-09 -2.19266E-09 -2.06930E-09
  -1.57957E-09 -1.47775E-09 -9.97236E-10 -1.09804E-09 -1.46356E-09 -1.32278E-09 -1.15545E-09 -1.70818E-09 -2.13813E-09 -2.18318E-09
  -1.89039E-09 -2.34838E-09 -2.84116E-09 -2.66498E-09 -2.51509E-09 -1.31630E-09 -1.74289E-09 -1.09413E-09 -1.39543E-09 -5.53877E-10
  -5.81101E-10 -7.45746E-10 -8.80040E-10 -4.56708E-10 -2.53683E-10 -1.05628E-09 -1.69824E-09 -1.17751E-09 -1.82388E-09 -2.03582E-09
  -1.91459E-09 -2.01397E-09 -2.01244E-09 -2.00878E-09 -1.94951E-09 -1.52233E-09 -1.91260E-09 -1.41400E-09 -1.64431E-09 -1.36484E-09
  -1.56614E-09 -1.31526E-09 -1.73224E-09 -1.14843E-09 -1.15350E-09 -1.46061E-09 -1.42063E-09 -1.01880E-09 -1.64650E-09 -1.62564E-09
  -9.80624E-10 -1.22843E-09 -1.47393E-09 -1.30641E-09 -1.15203E-09 -1.12351E-09 -1.22911E-09 -1.22415E-09 -1.37004E-09 -1.03598E-09
  -1.74331E-09 -1.02337E-09 -9.84581E-10 -6.93436E-10 -1.49699E-09 -1.21485E-09 -9.02547E-10 -8.51212E-10 -1.22974E-09 -8.09141E-10
  -9.60083E-10 -1.05335E-09 -9.02311E-10 -1.54852E-09 -6.10968E-10 -8.33519E-10 -9.69171E-10 -7.61879E-10 -1.07270E-09 -2.98727E-10
  -9.67217E-10 -8.94930E-10 -1.13831E-09 -8.72638E-10 -1.20913E-09 -7.24863E-10 -1.23781E-09 -7.37326E-10 -9.26793E-10 -6.18066E-10
  -7.75898E-10 -4.72543E-10 -5.92194E-10 -6.27452E-10 -9.74760E-10 -7.58285E-10 -1.04720E-09 -5.16861E-10 -6.33974E-10 -7.13397E-10
  -4.47452E-10 -5.29219E-10 -2.17776E-10 -4.63907E-10 -4.54673E-10 -6.22124E-10 -4.42030E-10 -5.85088E-10 -4.46859E-10 -9.45302E-10
  -8.25282E-10 -2.60439E-10 -2.27913E-10
 NY points of the fit to the data follow
   2.14236E-09  2.63594E-09  3.07875E-09  3.38077E-09  3.45823E-09  3.29418E-09  2.94146E-09  2.53407E-09  2.21697E-09  2.00524E-09
   1.96516E-09  2.04253E-09  2.19446E-09  2.41549E-09  2.71603E-09  3.06570E-09  3.47751E-09  3.97590E-09  4.48852E-09  4.88565E-09
   5.07134E-09  4.91518E-09  4.46435E-09  4.00417E-09  3.64669E-09  3.48766E-09  3.65487E-09  4.14260E-09  4.76423E-09  5.27997E-09
   5.50523E-09  5.73902E-09  6.15412E-09  6.51530E-09  6.83360E-09  7.30211E-09  7.68865E-09  7.72867E-09  7.31512E-09  6.59161E-09
   5.80676E-09  4.94512E-09  3.90492E-09  3.11674E-09  2.66344E-09  2.29567E-09  2.13117E-09  2.21890E-09  2.42110E-09  2.58524E-09
   2.65686E-09  2.63307E-09  2.60737E-09  2.61588E-09  2.66708E-09  2.74504E-09  2.80983E-09  2.82865E-09  2.79484E-09  2.81384E-09
   3.06905E-09  3.65085E-09  4.37086E-09  5.17681E-09  6.28625E-09  7.31931E-09  8.06536E-09  8.59597E-09  8.84867E-09  8.69224E-09
   8.04253E-09  6.96035E-09  5.77998E-09  4.84128E-09  3.95123E-09  3.23501E-09  3.17431E-09  3.74638E-09  4.60385E-09  5.93079E-09
   7.62746E-09  9.48439E-09  1.11307E-08  1.18092E-08  1.12401E-08  9.99212E-09  8.60002E-09  7.32194E-09  6.35032E-09  6.10775E-09
   6.02392E-09  5.94389E-09  5.63823E-09  5.14681E-09  4.78247E-09  4.38467E-09  3.88465E-09  3.54561E-09  3.31090E-09  3.10927E-09
   3.01238E-09  2.98146E-09  3.00205E-09  3.08150E-09  3.18150E-09  3.26646E-09  3.31758E-09  3.33804E-09  3.33338E-09  3.29445E-09
   3.21990E-09  3.13840E-09  3.08561E-09  3.03318E-09  2.99781E-09  3.00670E-09  3.03000E-09  3.05930E-09  3.09158E-09  3.12541E-09
   3.15999E-09  3.19478E-09  3.22939E-09  3.26355E-09  3.29703E-09  3.32965E-09  3.36126E-09  3.39172E-09  3.42091E-09  3.44872E-09
   3.47505E-09  3.49979E-09  3.52287E-09  3.54418E-09  3.56364E-09  3.58117E-09  3.59671E-09  3.61018E-09  3.62152E-09  3.63066E-09
   3.63753E-09  3.64202E-09  3.64400E-09  3.64339E-09  3.64006E-09  3.63391E-09  3.62487E-09  3.61283E-09  3.59773E-09  3.57952E-09
   3.55819E-09  3.53373E-09  3.50620E-09  3.47569E-09  3.44237E-09  3.40652E-09  3.36856E-09  3.32912E-09  3.28916E-09  3.25018E-09
   3.21451E-09  3.18606E-09  3.17172E-09  3.18490E-09  3.25628E-09  3.47884E-09  4.25839E-09  5.82245E-09  7.88923E-09  1.04431E-08
   1.34716E-08  1.64176E-08  1.81778E-08  1.78286E-08  1.54101E-08  1.17972E-08  7.93877E-09  4.50129E-09  2.22990E-09  1.25120E-09
   7.85267E-10  4.66517E-10  2.09111E-10 -1.65837E-11 -2.23472E-10 -4.17982E-10 -6.03535E-10 -7.82029E-10 -9.54494E-10 -1.12149E-09
  -1.28324E-09 -1.43980E-09 -1.59106E-09 -1.73682E-09 -1.87684E-09 -2.01082E-09 -2.13854E-09 -2.26007E-09 -2.37553E-09 -2.48504E-09
  -2.58868E-09 -2.68654E-09 -2.77872E-09 -2.86529E-09 -2.94632E-09 -3.02188E-09 -3.09204E-09 -3.15686E-09 -3.21641E-09 -3.27074E-09
  -3.31993E-09 -3.36402E-09 -3.40308E-09 -3.43717E-09 -3.46633E-09 -3.49063E-09 -3.51013E-09 -3.52488E-09 -3.53493E-09 -3.54034E-09
  -3.54116E-09 -3.53745E-09 -3.52927E-09 -3.51667E-09 -3.49975E-09 -3.47873E-09 -3.45384E-09 -3.42530E-09 -3.39335E-09 -3.35821E-09
  -3.32010E-09 -3.27926E-09 -3.23591E-09 -3.19028E-09 -3.14259E-09 -3.09309E-09 -3.04198E-09 -2.98950E-09 -2.93586E-09 -2.88132E-09
  -2.82609E-09 -2.77038E-09 -2.71444E-09 -2.65850E-09 -2.60277E-09 -2.54748E-09 -2.49286E-09 -2.43913E-09 -2.38654E-09 -2.33529E-09
  -2.28562E-09 -2.23776E-09 -2.19181E-09 -2.14772E-09 -2.10544E-09 -2.06493E-09 -2.02611E-09 -1.98895E-09 -1.95337E-09 -1.91933E-09
  -1.88678E-09 -1.85565E-09 -1.82590E-09 -1.79745E-09 -1.77027E-09 -1.74430E-09 -1.71947E-09 -1.69575E-09 -1.67307E-09 -1.65136E-09
  -1.63059E-09 -1.61070E-09 -1.59162E-09 -1.57330E-09 -1.55570E-09 -1.53874E-09 -1.52240E-09 -1.50659E-09 -1.49127E-09 -1.47639E-09
  -1.46190E-09 -1.44780E-09 -1.43405E-09 -1.42065E-09 -1.40757E-09 -1.39480E-09 -1.38232E-09 -1.37010E-09 -1.35814E-09 -1.34641E-09
  -1.33490E-09 -1.32358E-09 -1.31244E-09 -1.30145E-09 -1.29062E-09 -1.27990E-09 -1.26929E-09 -1.25876E-09 -1.24831E-09 -1.23789E-09
  -1.22752E-09 -1.21715E-09 -1.20678E-09 -1.19639E-09 -1.18596E-09 -1.17546E-09 -1.16489E-09 -1.15422E-09 -1.14345E-09 -1.13258E-09
  -1.12162E-09 -1.11055E-09 -1.09940E-09 -1.08815E-09 -1.07682E-09 -1.06539E-09 -1.05388E-09 -1.04229E-09 -1.03061E-09 -1.01885E-09
  -1.00702E-09 -9.95111E-10 -9.83124E-10 -9.71069E-10 -9.58939E-10 -9.46746E-10 -9.34484E-10 -9.22155E-10 -9.09766E-10 -8.97319E-10
  -8.84808E-10 -8.72242E-10 -8.59619E-10 -8.46945E-10 -8.34222E-10 -8.21446E-10 -8.08623E-10 -7.95758E-10 -7.82849E-10 -7.69899E-10
  -7.56912E-10 -7.43888E-10 -7.30830E-10 -7.17740E-10 -7.04623E-10 -6.91475E-10 -6.78306E-10 -6.65113E-10 -6.51901E-10 -6.38669E-10
  -6.25420E-10 -6.12160E-10 -5.98886E-10 -5.85604E-10 -5.72314E-10 -5.59021E-10 -5.45725E-10 -5.32425E-10 -5.19129E-10 -5.05838E-10
  -4.92554E-10 -4.79279E-10 -4.66010E-10
 NY background values follow
    -3.002E-09   -2.947E-09   -2.892E-09   -2.837E-09   -2.782E-09   -2.728E-09   -2.673E-09   -2.619E-09   -2.565E-09   -2.511E-09
    -2.457E-09   -2.404E-09   -2.351E-09   -2.298E-09   -2.245E-09   -2.193E-09   -2.142E-09   -2.091E-09   -2.040E-09   -1.990E-09
    -1.940E-09   -1.890E-09   -1.842E-09   -1.794E-09   -1.746E-09   -1.699E-09   -1.653E-09   -1.607E-09   -1.562E-09   -1.518E-09
    -1.475E-09   -1.432E-09   -1.390E-09   -1.348E-09   -1.307E-09   -1.267E-09   -1.227E-09   -1.187E-09   -1.148E-09   -1.110E-09
    -1.072E-09   -1.034E-09   -9.966E-10   -9.596E-10   -9.230E-10   -8.866E-10   -8.505E-10   -8.147E-10   -7.790E-10   -7.435E-10
    -7.082E-10   -6.730E-10   -6.380E-10   -6.030E-10   -5.680E-10   -5.331E-10   -4.982E-10   -4.632E-10   -4.282E-10   -3.931E-10
    -3.578E-10   -3.224E-10   -2.868E-10   -2.510E-10   -2.150E-10   -1.786E-10   -1.419E-10   -1.049E-10   -6.753E-11   -2.971E-11
     8.547E-12    4.728E-11    8.653E-11    1.263E-10    1.667E-10    2.076E-10    2.492E-10    2.915E-10    3.345E-10    3.782E-10
     4.226E-10    4.679E-10    5.140E-10    5.609E-10    6.088E-10    6.575E-10    7.070E-10    7.573E-10    8.084E-10    8.601E-10
     9.124E-10    9.652E-10    1.019E-09    1.072E-09    1.126E-09    1.181E-09    1.236E-09    1.291E-09    1.346E-09    1.401E-09
     1.456E-09    1.512E-09    1.567E-09    1.622E-09    1.677E-09    1.731E-09    1.786E-09    1.840E-09    1.893E-09    1.947E-09
     1.999E-09    2.051E-09    2.103E-09    2.154E-09    2.204E-09    2.253E-09    2.301E-09    2.349E-09    2.395E-09    2.440E-09
     2.484E-09    2.527E-09    2.568E-09    2.608E-09    2.647E-09    2.684E-09    2.720E-09    2.754E-09    2.786E-09    2.816E-09
     2.844E-09    2.871E-09    2.895E-09    2.918E-09    2.938E-09    2.956E-09    2.972E-09    2.985E-09    2.996E-09    3.005E-09
     3.011E-09    3.014E-09    3.014E-09    3.012E-09    3.006E-09    2.997E-09    2.984E-09    2.969E-09    2.949E-09    2.926E-09
     2.898E-09    2.867E-09    2.831E-09    2.791E-09    2.747E-09    2.697E-09    2.643E-09    2.585E-09    2.521E-09    2.451E-09
     2.377E-09    2.297E-09    2.211E-09    2.120E-09    2.023E-09    1.919E-09    1.810E-09    1.694E-09    1.572E-09    1.443E-09
     1.309E-09    1.170E-09    1.026E-09    8.780E-10    7.260E-10    5.706E-10    4.121E-10    2.512E-10    8.817E-11   -7.652E-11
    -2.424E-10   -4.090E-10   -5.760E-10   -7.428E-10   -9.091E-10   -1.074E-09   -1.238E-09   -1.400E-09   -1.560E-09   -1.716E-09
    -1.870E-09   -2.020E-09   -2.166E-09   -2.307E-09   -2.443E-09   -2.574E-09   -2.699E-09   -2.818E-09   -2.932E-09   -3.040E-09
    -3.142E-09   -3.239E-09   -3.330E-09   -3.415E-09   -3.496E-09   -3.570E-09   -3.640E-09   -3.704E-09   -3.763E-09   -3.817E-09
    -3.866E-09   -3.910E-09   -3.949E-09   -3.983E-09   -4.012E-09   -4.036E-09   -4.055E-09   -4.070E-09   -4.080E-09   -4.085E-09
    -4.086E-09   -4.082E-09   -4.074E-09   -4.061E-09   -4.044E-09   -4.023E-09   -3.998E-09   -3.970E-09   -3.938E-09   -3.903E-09
    -3.864E-09   -3.824E-09   -3.780E-09   -3.735E-09   -3.687E-09   -3.638E-09   -3.586E-09   -3.534E-09   -3.480E-09   -3.426E-09
    -3.371E-09   -3.315E-09   -3.259E-09   -3.203E-09   -3.148E-09   -3.092E-09   -3.038E-09   -2.984E-09   -2.931E-09   -2.880E-09
    -2.831E-09   -2.783E-09   -2.737E-09   -2.693E-09   -2.650E-09   -2.610E-09   -2.571E-09   -2.534E-09   -2.498E-09   -2.464E-09
    -2.432E-09   -2.401E-09   -2.371E-09   -2.343E-09   -2.315E-09   -2.289E-09   -2.265E-09   -2.241E-09   -2.218E-09   -2.197E-09
    -2.176E-09   -2.156E-09   -2.137E-09   -2.118E-09   -2.101E-09   -2.084E-09   -2.068E-09   -2.052E-09   -2.036E-09   -2.021E-09
    -2.007E-09   -1.993E-09   -1.979E-09   -1.966E-09   -1.953E-09   -1.940E-09   -1.927E-09   -1.915E-09   -1.903E-09   -1.891E-09
    -1.880E-09   -1.868E-09   -1.857E-09   -1.846E-09   -1.835E-09   -1.824E-09   -1.814E-09   -1.803E-09   -1.793E-09   -1.782E-09
    -1.772E-09   -1.761E-09   -1.751E-09   -1.740E-09   -1.730E-09   -1.719E-09   -1.709E-09   -1.698E-09   -1.687E-09   -1.676E-09
    -1.665E-09   -1.654E-09   -1.643E-09   -1.631E-09   -1.620E-09   -1.608E-09   -1.597E-09   -1.585E-09   -1.573E-09   -1.561E-09
    -1.549E-09   -1.537E-09   -1.525E-09   -1.513E-09   -1.501E-09   -1.489E-09   -1.476E-09   -1.464E-09   -1.451E-09   -1.439E-09
    -1.426E-09   -1.413E-09   -1.401E-09   -1.388E-09   -1.375E-09   -1.362E-09   -1.349E-09   -1.336E-09   -1.323E-09   -1.310E-09
    -1.297E-09   -1.284E-09   -1.270E-09   -1.257E-09   -1.244E-09   -1.230E-09   -1.217E-09   -1.204E-09   -1.190E-09   -1.177E-09
    -1.164E-09   -1.150E-09   -1.137E-09   -1.123E-09   -1.110E-09   -1.096E-09   -1.083E-09   -1.069E-09   -1.056E-09   -1.042E-09
    -1.029E-09   -1.015E-09   -1.002E-09
 Ala      Conc. = 1.30E-10
  -2.90494E-09 -2.83918E-09 -2.77709E-09 -2.71877E-09 -2.66338E-09 -2.61050E-09 -2.56255E-09 -2.52071E-09 -2.47822E-09 -2.43463E-09
  -2.39594E-09 -2.35523E-09 -2.31007E-09 -2.26536E-09 -2.21929E-09 -2.17111E-09 -2.12204E-09 -2.07265E-09 -2.02324E-09 -1.97398E-09
  -1.92500E-09 -1.87637E-09 -1.82817E-09 -1.78045E-09 -1.73324E-09 -1.68662E-09 -1.64058E-09 -1.59518E-09 -1.55045E-09 -1.50640E-09
  -1.46302E-09 -1.42028E-09 -1.37816E-09 -1.33663E-09 -1.29568E-09 -1.25527E-09 -1.21538E-09 -1.17599E-09 -1.13706E-09 -1.09857E-09
  -1.06051E-09 -1.02283E-09 -9.85523E-10 -9.48547E-10 -9.11892E-10 -8.75511E-10 -8.39396E-10 -8.03520E-10 -7.67837E-10 -7.32340E-10
  -6.97002E-10 -6.61779E-10 -6.26663E-10 -5.91618E-10 -5.56643E-10 -5.21660E-10 -4.86666E-10 -4.51647E-10 -4.16560E-10 -3.81373E-10
  -3.46054E-10 -3.10573E-10 -2.74895E-10 -2.38988E-10 -2.02820E-10 -1.66361E-10 -1.29575E-10 -9.24301E-11 -5.48952E-11 -1.69358E-11
   2.14816E-11  6.03861E-11  9.98162E-11  1.39800E-10  1.80378E-10  2.21576E-10  2.63434E-10  3.05987E-10  3.49269E-10  3.93312E-10
   4.38163E-10  4.83846E-10  5.30416E-10  5.77898E-10  6.26347E-10  6.75756E-10  7.26093E-10  7.77324E-10  8.29421E-10  8.82367E-10
   9.36152E-10  9.90795E-10  1.04633E-09  1.10286E-09  1.16053E-09  1.21964E-09  1.28075E-09  1.34497E-09  1.41493E-09  1.49883E-09
   1.61003E-09  1.72639E-09  1.85680E-09  2.02119E-09  2.18860E-09  2.32805E-09  2.42380E-09  2.48142E-09  2.50819E-09  2.49621E-09
   2.44508E-09  2.38389E-09  2.34870E-09  2.31156E-09  2.28953E-09  2.31013E-09  2.34385E-09  2.38242E-09  2.42294E-09  2.46410E-09
   2.50519E-09  2.54575E-09  2.58552E-09  2.62426E-09  2.66182E-09  2.69806E-09  2.73286E-09  2.76613E-09  2.79776E-09  2.82766E-09
   2.85576E-09  2.88197E-09  2.90621E-09  2.92841E-09  2.94848E-09  2.96637E-09  2.98198E-09  2.99526E-09  3.00613E-09  3.01451E-09
   3.02033E-09  3.02347E-09  3.02379E-09  3.02115E-09  3.01541E-09  3.00644E-09  2.99408E-09  2.97820E-09  2.95867E-09  2.93533E-09
   2.90807E-09  2.87673E-09  2.84118E-09  2.80129E-09  2.75692E-09  2.70793E-09  2.65420E-09  2.59560E-09  2.53201E-09  2.46331E-09
   2.38941E-09  2.31024E-09  2.22577E-09  2.13607E-09  2.04148E-09  1.94317E-09  1.84649E-09  1.76438E-09  1.68469E-09  1.60813E-09
   1.53789E-09  1.46570E-09  1.36893E-09  1.22419E-09  1.02919E-09  8.03565E-10  5.69135E-10  3.39460E-10  1.27069E-10 -5.19049E-11
  -2.23585E-10 -3.93310E-10 -5.62157E-10 -7.30251E-10 -8.97393E-10 -1.06330E-09 -1.22759E-09 -1.38988E-09 -1.54975E-09 -1.70678E-09
  -1.86055E-09 -2.01062E-09 -2.15657E-09 -2.29792E-09 -2.43427E-09 -2.56518E-09 -2.69030E-09 -2.80962E-09 -2.92320E-09 -3.03109E-09
  -3.13335E-09 -3.23003E-09 -3.32118E-09 -3.40686E-09 -3.48711E-09 -3.56200E-09 -3.63158E-09 -3.69590E-09 -3.75501E-09 -3.80897E-09
  -3.85783E-09 -3.90163E-09 -3.94044E-09 -3.97432E-09 -4.00330E-09 -4.02745E-09 -4.04681E-09 -4.06144E-09 -4.07140E-09 -4.07673E-09
  -4.07750E-09 -4.07374E-09 -4.06552E-09 -4.05288E-09 -4.03595E-09 -4.01492E-09 -3.99002E-09 -3.96149E-09 -3.92954E-09 -3.89441E-09
  -3.85632E-09 -3.81549E-09 -3.77217E-09 -3.72656E-09 -3.67890E-09 -3.62942E-09 -3.57834E-09 -3.52590E-09 -3.47229E-09 -3.41779E-09
  -3.36259E-09 -3.30692E-09 -3.25101E-09 -3.19510E-09 -3.13940E-09 -3.08414E-09 -3.02956E-09 -2.97587E-09 -2.92330E-09 -2.87209E-09
  -2.82244E-09 -2.77461E-09 -2.72868E-09 -2.68462E-09 -2.64237E-09 -2.60188E-09 -2.56309E-09 -2.52594E-09 -2.49038E-09 -2.45636E-09
  -2.42383E-09 -2.39271E-09 -2.36297E-09 -2.33453E-09 -2.30736E-09 -2.28140E-09 -2.25657E-09 -2.23285E-09 -2.21017E-09 -2.18847E-09
  -2.16770E-09 -2.14780E-09 -2.12871E-09 -2.11039E-09 -2.09278E-09 -2.07581E-09 -2.05945E-09 -2.04363E-09 -2.02830E-09 -2.01339E-09
  -1.99888E-09 -1.98476E-09 -1.97099E-09 -1.95755E-09 -1.94445E-09 -1.93164E-09 -1.91913E-09 -1.90688E-09 -1.89488E-09 -1.88311E-09
  -1.87155E-09 -1.86019E-09 -1.84901E-09 -1.83798E-09 -1.82709E-09 -1.81632E-09 -1.80565E-09 -1.79507E-09 -1.78456E-09 -1.77408E-09
  -1.76365E-09 -1.75322E-09 -1.74278E-09 -1.73232E-09 -1.72182E-09 -1.71125E-09 -1.70061E-09 -1.68986E-09 -1.67901E-09 -1.66806E-09
  -1.65701E-09 -1.64586E-09 -1.63462E-09 -1.62328E-09 -1.61185E-09 -1.60033E-09 -1.58872E-09 -1.57703E-09 -1.56525E-09 -1.55339E-09
  -1.54146E-09 -1.52944E-09 -1.51734E-09 -1.50517E-09 -1.49293E-09 -1.48062E-09 -1.46824E-09 -1.45579E-09 -1.44328E-09 -1.43070E-09
  -1.41806E-09 -1.40537E-09 -1.39261E-09 -1.37980E-09 -1.36694E-09 -1.35403E-09 -1.34106E-09 -1.32806E-09 -1.31500E-09 -1.30190E-09
  -1.28876E-09 -1.27559E-09 -1.26237E-09 -1.24912E-09 -1.23585E-09 -1.22254E-09 -1.20920E-09 -1.19584E-09 -1.18246E-09 -1.16905E-09
  -1.15563E-09 -1.14219E-09 -1.12874E-09 -1.11527E-09 -1.10180E-09 -1.08832E-09 -1.07483E-09 -1.06134E-09 -1.04785E-09 -1.03436E-09
  -1.02087E-09 -1.00740E-09 -9.93922E-10
 Asp      Conc. = 6.25E-10
  -2.25330E-09 -2.28678E-09 -2.33283E-09 -2.39507E-09 -2.44912E-09 -2.49595E-09 -2.51564E-09 -2.51218E-09 -2.48210E-09 -2.44130E-09
  -2.39517E-09 -2.34613E-09 -2.29550E-09 -2.24402E-09 -2.19241E-09 -2.14078E-09 -2.08915E-09 -2.03762E-09 -1.98623E-09 -1.93503E-09
  -1.88406E-09 -1.83336E-09 -1.78294E-09 -1.73279E-09 -1.68292E-09 -1.63332E-09 -1.58393E-09 -1.53471E-09 -1.48558E-09 -1.43640E-09
  -1.38695E-09 -1.33689E-09 -1.28575E-09 -1.23277E-09 -1.17665E-09 -1.11471E-09 -1.04081E-09 -9.60495E-10 -8.67734E-10 -7.72937E-10
  -6.81506E-10 -6.00643E-10 -5.34339E-10 -4.75285E-10 -4.12766E-10 -3.08708E-10 -1.71019E-10  6.97881E-12  2.32679E-10  4.28097E-10
   5.35193E-10  5.28682E-10  4.44345E-10  3.29620E-10  2.13509E-10  1.17613E-10  3.86605E-11 -1.28422E-12 -4.95314E-11 -8.99370E-11
  -7.87253E-11 -4.86741E-11 -2.70963E-11 -9.75639E-12  7.45154E-13  6.58862E-13 -2.91867E-12  9.88067E-12  3.12263E-11  5.75064E-11
   8.70567E-11  1.18987E-10  1.52784E-10  1.88121E-10  2.24796E-10  2.62664E-10  3.01639E-10  3.41664E-10  3.82697E-10  4.24714E-10
   4.67714E-10  5.11683E-10  5.56640E-10  6.02578E-10  6.49526E-10  6.97446E-10  7.46278E-10  7.95955E-10  8.46412E-10  8.97587E-10
   9.49415E-10  1.00184E-09  1.05479E-09  1.10822E-09  1.16206E-09  1.21626E-09  1.27075E-09  1.32548E-09  1.38039E-09  1.43542E-09
   1.49052E-09  1.54562E-09  1.60068E-09  1.65562E-09  1.71041E-09  1.76497E-09  1.81925E-09  1.87321E-09  1.92677E-09  1.97989E-09
   2.03250E-09  2.08456E-09  2.13600E-09  2.18676E-09  2.23677E-09  2.28596E-09  2.33426E-09  2.38160E-09  2.42792E-09  2.47313E-09
   2.51717E-09  2.55998E-09  2.60148E-09  2.64160E-09  2.68027E-09  2.71742E-09  2.75299E-09  2.78690E-09  2.81909E-09  2.84948E-09
   2.87801E-09  2.90460E-09  2.92919E-09  2.95171E-09  2.97209E-09  2.99025E-09  3.00614E-09  3.01968E-09  3.03081E-09  3.03945E-09
   3.04554E-09  3.04895E-09  3.04955E-09  3.04720E-09  3.04177E-09  3.03312E-09  3.02111E-09  3.00561E-09  2.98649E-09  2.96362E-09
   2.93686E-09  2.90610E-09  2.87119E-09  2.83204E-09  2.78852E-09  2.74052E-09  2.68797E-09  2.63077E-09  2.56889E-09  2.50231E-09
   2.43110E-09  2.35542E-09  2.27570E-09  2.19277E-09  2.10861E-09  2.02860E-09  1.97386E-09  2.01531E-09  2.09557E-09  2.21226E-09
   2.38158E-09  2.56892E-09  2.66714E-09  2.55590E-09  2.21107E-09  1.72089E-09  1.19209E-09  6.91542E-10  2.74043E-10  3.06916E-11
  -1.64928E-10 -3.46739E-10 -5.22699E-10 -6.95375E-10 -8.65653E-10 -1.03380E-09 -1.19974E-09 -1.36329E-09 -1.52413E-09 -1.68192E-09
  -1.83629E-09 -1.98686E-09 -2.13320E-09 -2.27489E-09 -2.41151E-09 -2.54265E-09 -2.66796E-09 -2.78744E-09 -2.90116E-09 -3.00917E-09
  -3.11153E-09 -3.20829E-09 -3.29952E-09 -3.38526E-09 -3.46558E-09 -3.54051E-09 -3.61013E-09 -3.67449E-09 -3.73363E-09 -3.78761E-09
  -3.83649E-09 -3.88032E-09 -3.91915E-09 -3.95304E-09 -3.98203E-09 -4.00619E-09 -4.02556E-09 -4.04020E-09 -4.05017E-09 -4.05550E-09
  -4.05627E-09 -4.05252E-09 -4.04430E-09 -4.03167E-09 -4.01473E-09 -3.99370E-09 -3.96881E-09 -3.94027E-09 -3.90832E-09 -3.87319E-09
