 LCModel (Version 6.3-1R) Copyright: S.W. Provencher.          Ref.: Magn. Reson. Med. 30:672-679 (1993).                
 onepulse 20x10_ftSpec_smooth_lcm
 26 lines in following concentration table = NCONC+1
    Conc.  %SD /Cr+PCr  Metabolite                                         
    0.000 999%   0.000 Ala                                                 
    0.000 999%   0.000 Asp                                                 
 3.53E-10  74%   1.000 Cr                                                  
 5.42E-10 116%   1.534 GABA                                                
 2.88E-10 266%   0.814 Glc                                                 
 1.98E-09  25%   5.613 Gln                                                 
    0.000 999%   0.000 Glu                                                 
    0.000 999%   0.000 Glyc                                                
 1.78E-10  64%   0.502 GPC                                                 
    0.000 999%   0.000 GSH                                                 
 9.62E-10  39%   2.723 Ins                                                 
    0.000 999%   0.000 Lac                                                 
 3.12E-11 960% 8.8E-02 NAAG                                                
 7.47E-10  56%   2.113 NAA                                                 
    0.000 999%   0.000 PCh                                                 
    0.000 999%   0.000 PCr                                                 
    0.000 999%   0.000 PE                                                  
 8.20E-11 272%   0.232 Scyllo                                              
 1.99E-09  39%   5.640 Ser                                                 
 5.77E-10 149%   1.632 Tau                                                 
 1.78E-10  64%   0.502 GPC+PCh                                             
 7.78E-10  31%   2.202 NAA+NAAG                                            
 9.62E-10  39%   2.723 Ins+Glyc                                            
 3.53E-10  74%   1.000 Cr+PCr                                              
 1.98E-09  25%   5.613 Glu+Gln                                             
   6 lines in following misc. output table
  FWHM = 0.101 ppm    S/N =   3                                            
  Data shift = 0.358 ppm                                                   
  Ph:   3 deg     -14.9 deg/ppm                                            
  alphaB,S = 2.9E-01,   2.4E+01                                            
   10 spline knots.   Ns = 5(1)                                            
  ( 7) 4 infls.   ( 3) 1 extrs.                                            
  363 points on ppm-axis = NY
      4.250000     4.238821     4.227641     4.216462     4.205282     4.194103     4.182923     4.171744     4.160564     4.149385
      4.138206     4.127026     4.115847     4.104667     4.093488     4.082308     4.071129     4.059949     4.048770     4.037591
      4.026411     4.015232     4.004052     3.992873     3.981693     3.970514     3.959334     3.948155     3.936975     3.925796
      3.914617     3.903437     3.892258     3.881078     3.869899     3.858719     3.847540     3.836360     3.825181     3.814002
      3.802822     3.791643     3.780463     3.769284     3.758104     3.746925     3.735745     3.724566     3.713387     3.702207
      3.691028     3.679848     3.668669     3.657489     3.646310     3.635130     3.623951     3.612772     3.601592     3.590413
      3.579233     3.568054     3.556874     3.545695     3.534515     3.523336     3.512156     3.500977     3.489798     3.478618
      3.467439     3.456259     3.445080     3.433900     3.422721     3.411541     3.400362     3.389183     3.378003     3.366824
      3.355644     3.344465     3.333285     3.322106     3.310926     3.299747     3.288568     3.277388     3.266209     3.255029
      3.243850     3.232670     3.221491     3.210311     3.199132     3.187953     3.176773     3.165594     3.154414     3.143235
      3.132055     3.120876     3.109696     3.098517     3.087337     3.076158     3.064979     3.053799     3.042620     3.031440
      3.020261     3.009081     2.997902     2.986722     2.975543     2.964364     2.953184     2.942005     2.930825     2.919646
      2.908466     2.897287     2.886107     2.874928     2.863749     2.852569     2.841390     2.830210     2.819031     2.807851
      2.796672     2.785492     2.774313     2.763134     2.751954     2.740775     2.729595     2.718416     2.707236     2.696057
      2.684877     2.673698     2.662519     2.651339     2.640160     2.628980     2.617801     2.606621     2.595442     2.584262
      2.573083     2.561903     2.550724     2.539545     2.528365     2.517186     2.506006     2.494827     2.483647     2.472468
      2.461288     2.450109     2.438930     2.427750     2.416571     2.405391     2.394212     2.383032     2.371853     2.360673
      2.349494     2.338315     2.327135     2.315956     2.304776     2.293597     2.282417     2.271238     2.260058     2.248879
      2.237700     2.226520     2.215341     2.204161     2.192982     2.181802     2.170623     2.159443     2.148264     2.137084
      2.125905     2.114726     2.103546     2.092367     2.081187     2.070008     2.058828     2.047649     2.036469     2.025290
      2.014111     2.002931     1.991752     1.980572     1.969393     1.958213     1.947034     1.935854     1.924675     1.913496
      1.902316     1.891137     1.879957     1.868778     1.857598     1.846419     1.835239     1.824060     1.812881     1.801701
      1.790522     1.779342     1.768163     1.756983     1.745804     1.734624     1.723445     1.712265     1.701086     1.689907
      1.678727     1.667548     1.656368     1.645189     1.634009     1.622830     1.611650     1.600471     1.589292     1.578112
      1.566933     1.555753     1.544574     1.533394     1.522215     1.511035     1.499856     1.488677     1.477497     1.466318
      1.455138     1.443959     1.432779     1.421600     1.410420     1.399241     1.388062     1.376882     1.365703     1.354523
      1.343344     1.332164     1.320985     1.309805     1.298626     1.287446     1.276267     1.265088     1.253908     1.242729
      1.231549     1.220370     1.209190     1.198011     1.186831     1.175652     1.164473     1.153293     1.142114     1.130934
      1.119755     1.108575     1.097396     1.086216     1.075037     1.063858     1.052678     1.041499     1.030319     1.019140
      1.007960     0.996781     0.985601     0.974422     0.963243     0.952063     0.940884     0.929704     0.918525     0.907345
      0.896166     0.884986     0.873807     0.862628     0.851448     0.840269     0.829089     0.817910     0.806730     0.795551
      0.784371     0.773192     0.762012     0.750833     0.739654     0.728474     0.717295     0.706115     0.694936     0.683756
      0.672577     0.661397     0.650218     0.639039     0.627859     0.616680     0.605500     0.594321     0.583141     0.571962
      0.560782     0.549603     0.538424     0.527244     0.516065     0.504885     0.493706     0.482526     0.471347     0.460167
      0.448988     0.437809     0.426629     0.415450     0.404270     0.393091     0.381911     0.370732     0.359552     0.348373
      0.337193     0.326014     0.314835     0.303655     0.292476     0.281296     0.270117     0.258937     0.247758     0.236578
      0.225399     0.214220     0.203040
 NY phased data points follow
   7.33392E-09  8.17936E-09  9.28151E-09  8.62327E-09  8.52329E-09  7.55331E-09  7.74519E-09  6.51267E-09  6.98631E-09  6.31733E-09
   7.05907E-09  7.06233E-09  7.94593E-09  7.63897E-09  8.68250E-09  9.07906E-09  9.96436E-09  8.46743E-09  9.83041E-09  8.67078E-09
   8.67586E-09  8.80799E-09  9.79592E-09  8.96767E-09  8.98231E-09  8.81518E-09  9.74683E-09  9.12371E-09  9.43834E-09  8.25520E-09
   1.01929E-08  1.04724E-08  1.22404E-08  1.23893E-08  1.32177E-08  1.25207E-08  1.27891E-08  1.11210E-08  1.07785E-08  1.05078E-08
   1.04530E-08  1.02607E-08  1.02154E-08  9.85640E-09  9.37403E-09  8.49647E-09  8.48592E-09  7.55976E-09  8.36510E-09  7.34308E-09
   7.69921E-09  7.06850E-09  7.16602E-09  6.43597E-09  7.04409E-09  5.24717E-09  4.95934E-09  4.70113E-09  4.91450E-09  4.94357E-09
   5.59301E-09  6.84423E-09  9.29825E-09  1.05805E-08  1.25866E-08  1.31983E-08  1.28008E-08  1.15192E-08  1.10785E-08  9.48157E-09
   9.49302E-09  8.27849E-09  7.66164E-09  6.09488E-09  5.85970E-09  5.89259E-09  5.35638E-09  6.15609E-09  7.83920E-09  1.03582E-08
   1.36463E-08  1.48203E-08  1.54015E-08  1.50697E-08  1.46461E-08  1.42208E-08  1.39218E-08  1.32599E-08  1.33945E-08  1.30347E-08
   1.25753E-08  1.19734E-08  1.19383E-08  1.16262E-08  1.07720E-08  1.03888E-08  1.00351E-08  9.26922E-09  9.65427E-09  8.75356E-09
   8.40031E-09  8.55786E-09  8.85738E-09  8.67922E-09  8.06209E-09  7.87021E-09  7.64084E-09  6.78895E-09  7.35074E-09  6.02461E-09
   6.13139E-09  4.72802E-09  5.37907E-09  5.54195E-09  6.34806E-09  5.29740E-09  6.22869E-09  6.51297E-09  6.37997E-09  5.94050E-09
   6.32781E-09  6.35705E-09  6.07798E-09  4.80228E-09  5.31940E-09  4.24446E-09  4.17715E-09  3.59135E-09  4.94847E-09  3.95367E-09
   4.71151E-09  4.65299E-09  4.31377E-09  4.77261E-09  4.39660E-09  4.36535E-09  4.18331E-09  4.62673E-09  4.82064E-09  5.27699E-09
   6.47485E-09  6.34256E-09  7.47587E-09  6.49735E-09  6.82727E-09  6.82844E-09  7.29957E-09  6.77469E-09  7.88523E-09  6.73650E-09
   6.53638E-09  6.14292E-09  6.35606E-09  5.30649E-09  5.30509E-09  5.21890E-09  5.70566E-09  4.80380E-09  4.71498E-09  4.80466E-09
   4.30452E-09  4.52876E-09  5.09165E-09  4.48138E-09  4.51160E-09  4.16497E-09  4.22865E-09  5.17361E-09  6.24849E-09  7.53864E-09
   1.12796E-08  1.46069E-08  1.62076E-08  1.55822E-08  1.49087E-08  1.32781E-08  1.24390E-08  1.03621E-08  9.05280E-09  7.57003E-09
   7.17671E-09  5.63630E-09  4.47712E-09  2.75626E-09  1.49498E-09 -1.37408E-11 -1.38836E-09 -3.11368E-09 -4.55544E-09 -6.35378E-09
  -7.29588E-09 -8.97798E-09 -1.03206E-08 -1.20144E-08 -1.25386E-08 -1.37143E-08 -1.39579E-08 -1.47551E-08 -1.43140E-08 -1.44259E-08
  -1.35586E-08 -1.26939E-08 -1.20657E-08 -1.08479E-08 -9.55141E-09 -8.42386E-09 -6.93447E-09 -5.90251E-09 -4.88085E-09 -3.48152E-09
  -2.75680E-09 -2.53352E-09 -1.92294E-09 -2.07981E-09 -2.45003E-09 -2.15973E-09 -2.41934E-09 -2.44959E-09 -2.31621E-09 -2.84960E-09
  -2.56821E-09 -1.93671E-09 -1.39636E-09 -1.53101E-09 -8.48286E-10 -1.88168E-09 -1.94330E-09 -2.19197E-09 -1.74989E-09 -1.75453E-09
  -2.18047E-09 -1.53886E-09 -9.47284E-10 -1.91277E-09 -1.22893E-09 -1.29301E-09 -1.11372E-09 -1.62898E-09 -1.35717E-09 -1.68777E-09
  -1.21990E-09 -1.73015E-09 -1.28795E-09 -1.79773E-09 -1.42298E-09 -1.49997E-09 -1.03301E-09 -8.23037E-10 -8.92618E-10 -7.29987E-10
  -7.17581E-10 -3.95114E-10 -6.71557E-10 -5.23462E-10 -2.83578E-10 -5.58912E-10 -6.80885E-10 -9.07186E-10 -9.11032E-10 -1.23646E-09
  -2.35063E-09 -1.64849E-09 -1.91297E-09 -1.72237E-09 -1.69595E-09 -1.37325E-09 -1.56445E-09 -7.18823E-10 -7.35587E-10 -5.74582E-10
   3.48944E-11  1.23977E-10  3.87522E-10  7.44431E-10  7.55341E-10  5.12709E-10  1.37386E-09  1.17794E-10  3.37885E-10 -3.69662E-11
   2.99349E-10 -5.42370E-10 -2.11735E-10 -4.72597E-10 -5.28267E-10 -5.85274E-10 -4.13033E-10 -7.08258E-10 -8.47065E-10 -1.26508E-09
  -1.16786E-09 -1.04035E-09 -9.34091E-10 -1.07763E-09 -9.47155E-10 -1.27686E-09 -9.62515E-10 -1.53368E-09 -1.09214E-09 -1.86969E-09
  -8.14686E-10 -1.42772E-09 -9.68542E-10 -8.97178E-10 -1.03422E-09 -1.15275E-09 -8.86239E-10 -1.18779E-09 -1.03039E-09 -9.24416E-10
  -5.69298E-10 -1.18656E-09 -9.34706E-10 -6.43302E-10 -1.14110E-09 -1.22179E-10 -7.22410E-10 -8.00780E-10 -1.57843E-10 -3.99717E-10
  -1.64779E-10 -8.91304E-11 -2.77770E-10 -6.77699E-10  2.26730E-10 -1.47361E-10 -3.94969E-11  5.06934E-11  6.49498E-11  3.22050E-10
   8.38459E-11  5.66231E-10  5.85640E-10  6.14979E-11  3.58929E-10  6.24297E-10  9.20734E-10  1.33888E-10  9.83304E-10  9.13658E-10
   3.48943E-10  1.15062E-09  1.19869E-09  8.97901E-10  1.07712E-09  1.25299E-09  1.09436E-09  1.38468E-09  1.25494E-09  1.62118E-09
   1.37297E-09  1.79810E-09  1.50821E-09  1.60301E-09  1.80083E-09  1.78036E-09  1.78161E-09  2.19575E-09  2.50127E-09  1.83872E-09
   1.94577E-09  1.65779E-09  2.20057E-09
 NY points of the fit to the data follow
   7.19054E-09  8.00557E-09  7.98818E-09  7.55707E-09  7.62328E-09  7.88473E-09  7.81154E-09  7.55113E-09  7.33876E-09  7.32948E-09
   7.49561E-09  7.44070E-09  7.74359E-09  8.17130E-09  8.65137E-09  8.87337E-09  8.85880E-09  9.21280E-09  9.60469E-09  9.34459E-09
   8.84572E-09  8.53181E-09  8.36198E-09  8.19644E-09  8.17159E-09  8.28416E-09  8.76224E-09  9.44458E-09  1.01142E-08  1.05657E-08
   1.10057E-08  1.12804E-08  1.16510E-08  1.18032E-08  1.15371E-08  1.09039E-08  1.07206E-08  1.07139E-08  1.07363E-08  1.07509E-08
   1.07671E-08  1.07751E-08  1.03492E-08  9.29451E-09  8.66632E-09  8.30842E-09  7.94879E-09  7.62685E-09  7.35812E-09  7.12806E-09
   6.92517E-09  6.76266E-09  6.64400E-09  6.52509E-09  6.40899E-09  6.44107E-09  6.57021E-09  6.83152E-09  7.34599E-09  7.97121E-09
   8.56513E-09  9.22140E-09  9.88930E-09  1.04392E-08  1.08669E-08  1.10703E-08  1.09842E-08  1.09214E-08  1.05930E-08  9.76375E-09
   9.25102E-09  8.96192E-09  8.51584E-09  8.11946E-09  7.97583E-09  7.91495E-09  7.89273E-09  8.42589E-09  9.34275E-09  1.04662E-08
   1.18720E-08  1.33277E-08  1.43096E-08  1.48980E-08  1.53937E-08  1.55516E-08  1.53004E-08  1.46110E-08  1.29048E-08  1.16044E-08
   1.08960E-08  1.04345E-08  1.01527E-08  9.85621E-09  9.52231E-09  9.32786E-09  9.12212E-09  8.84551E-09  8.64188E-09  8.46609E-09
   8.28336E-09  8.12265E-09  7.98034E-09  7.85172E-09  7.73437E-09  7.62622E-09  7.52531E-09  7.43032E-09  7.34024E-09  7.25429E-09
   7.17177E-09  7.09201E-09  7.01451E-09  6.93886E-09  6.86471E-09  6.79175E-09  6.71970E-09  6.64826E-09  6.57717E-09  6.50622E-09
   6.43519E-09  6.36394E-09  6.29225E-09  6.21998E-09  6.14697E-09  6.07308E-09  5.99815E-09  5.92207E-09  5.84470E-09  5.76593E-09
   5.68563E-09  5.60372E-09  5.52007E-09  5.43456E-09  5.34712E-09  5.25764E-09  5.16603E-09  5.07218E-09  4.97603E-09  4.87748E-09
   4.77643E-09  4.67282E-09  4.56657E-09  4.45761E-09  4.34583E-09  4.23120E-09  4.11365E-09  3.99312E-09  3.86955E-09  3.74292E-09
   3.61316E-09  3.48028E-09  3.34430E-09  3.20520E-09  3.06310E-09  2.91807E-09  2.77042E-09  2.62061E-09  2.46948E-09  2.31812E-09
   2.16822E-09  2.02241E-09  1.88531E-09  1.76583E-09  1.68385E-09  1.69535E-09  2.03606E-09  3.67080E-09  6.03082E-09  8.87635E-09
   1.20105E-08  1.46515E-08  1.60712E-08  1.63335E-08  1.59982E-08  1.53515E-08  1.36712E-08  9.53437E-09  3.55237E-09  1.01599E-09
   7.35739E-11 -4.66161E-10 -8.50369E-10 -1.15748E-09 -1.42000E-09 -1.65367E-09 -1.86712E-09 -2.06535E-09 -2.25139E-09 -2.42721E-09
  -2.59411E-09 -2.75290E-09 -2.90418E-09 -3.04825E-09 -3.18537E-09 -3.31566E-09 -3.43916E-09 -3.55586E-09 -3.66574E-09 -3.76870E-09
  -3.86465E-09 -3.95350E-09 -4.03509E-09 -4.10930E-09 -4.17599E-09 -4.23501E-09 -4.28617E-09 -4.32937E-09 -4.36451E-09 -4.39182E-09
  -4.41156E-09 -4.42399E-09 -4.42936E-09 -4.42793E-09 -4.41995E-09 -4.40568E-09 -4.38536E-09 -4.35924E-09 -4.32758E-09 -4.29062E-09
  -4.24861E-09 -4.20179E-09 -4.15041E-09 -4.09472E-09 -4.03496E-09 -3.97137E-09 -3.90419E-09 -3.83367E-09 -3.76005E-09 -3.68355E-09
  -3.60442E-09 -3.52290E-09 -3.43922E-09 -3.35361E-09 -3.26631E-09 -3.17754E-09 -3.08754E-09 -2.99652E-09 -2.90472E-09 -2.81235E-09
  -2.71964E-09 -2.62680E-09 -2.53405E-09 -2.44160E-09 -2.34966E-09 -2.25846E-09 -2.16818E-09 -2.07904E-09 -1.99123E-09 -1.90495E-09
  -1.82040E-09 -1.73778E-09 -1.65726E-09 -1.57904E-09 -1.50331E-09 -1.43022E-09 -1.35997E-09 -1.29274E-09 -1.22868E-09 -1.16797E-09
  -1.11063E-09 -1.05654E-09 -1.00561E-09 -9.57678E-10 -9.12646E-10 -8.70391E-10 -8.30789E-10 -7.93727E-10 -7.59077E-10 -7.26732E-10
  -6.96578E-10 -6.68490E-10 -6.42368E-10 -6.18084E-10 -5.95531E-10 -5.74613E-10 -5.55206E-10 -5.37211E-10 -5.20511E-10 -5.05022E-10
  -4.90620E-10 -4.77228E-10 -4.64714E-10 -4.53000E-10 -4.41998E-10 -4.31604E-10 -4.21713E-10 -4.12247E-10 -4.03122E-10 -3.94250E-10
  -3.85534E-10 -3.76889E-10 -3.68238E-10 -3.59520E-10 -3.50627E-10 -3.41513E-10 -3.32079E-10 -3.22268E-10 -3.12004E-10 -3.01236E-10
  -2.89892E-10 -2.77887E-10 -2.65202E-10 -2.51747E-10 -2.37480E-10 -2.22361E-10 -2.06326E-10 -1.89313E-10 -1.71317E-10 -1.52254E-10
  -1.32116E-10 -1.10872E-10 -8.85287E-11 -6.51776E-11 -4.08914E-11 -1.57420E-11  1.01991E-11  3.68617E-11  6.41762E-11  9.20736E-11
   1.20487E-10  1.49348E-10  1.78591E-10  2.08152E-10  2.37966E-10  2.67970E-10  2.98103E-10  3.28303E-10  3.58509E-10  3.88664E-10
   4.18710E-10  4.48590E-10  4.78247E-10  5.07629E-10  5.36681E-10  5.65351E-10  5.93590E-10  6.21345E-10  6.48570E-10  6.75216E-10
   7.01239E-10  7.26592E-10  7.51233E-10  7.75119E-10  7.98209E-10  8.20463E-10  8.41844E-10  8.62314E-10  8.81839E-10  9.00382E-10
   9.17914E-10  9.34400E-10  9.49811E-10  9.64119E-10  9.77296E-10  9.89317E-10  1.00016E-09  1.00979E-09  1.01821E-09  1.02537E-09
   1.03128E-09  1.03590E-09  1.03923E-09
 NY background values follow
     3.430E-09    3.477E-09    3.523E-09    3.568E-09    3.612E-09    3.655E-09    3.698E-09    3.740E-09    3.781E-09    3.821E-09
     3.860E-09    3.899E-09    3.936E-09    3.973E-09    4.009E-09    4.045E-09    4.079E-09    4.113E-09    4.146E-09    4.178E-09
     4.210E-09    4.241E-09    4.271E-09    4.300E-09    4.329E-09    4.357E-09    4.384E-09    4.411E-09    4.437E-09    4.463E-09
     4.488E-09    4.512E-09    4.535E-09    4.558E-09    4.581E-09    4.603E-09    4.624E-09    4.645E-09    4.666E-09    4.686E-09
     4.705E-09    4.724E-09    4.743E-09    4.761E-09    4.779E-09    4.796E-09    4.813E-09    4.830E-09    4.847E-09    4.863E-09
     4.879E-09    4.895E-09    4.910E-09    4.926E-09    4.941E-09    4.956E-09    4.970E-09    4.985E-09    4.999E-09    5.013E-09
     5.027E-09    5.040E-09    5.053E-09    5.066E-09    5.079E-09    5.092E-09    5.104E-09    5.116E-09    5.127E-09    5.139E-09
     5.150E-09    5.160E-09    5.171E-09    5.181E-09    5.190E-09    5.200E-09    5.208E-09    5.217E-09    5.225E-09    5.233E-09
     5.240E-09    5.246E-09    5.253E-09    5.258E-09    5.264E-09    5.268E-09    5.273E-09    5.276E-09    5.279E-09    5.282E-09
     5.284E-09    5.285E-09    5.285E-09    5.285E-09    5.285E-09    5.283E-09    5.281E-09    5.278E-09    5.275E-09    5.270E-09
     5.265E-09    5.259E-09    5.252E-09    5.245E-09    5.236E-09    5.227E-09    5.216E-09    5.205E-09    5.193E-09    5.179E-09
     5.164E-09    5.148E-09    5.131E-09    5.112E-09    5.092E-09    5.070E-09    5.047E-09    5.023E-09    4.996E-09    4.968E-09
     4.938E-09    4.907E-09    4.873E-09    4.838E-09    4.800E-09    4.760E-09    4.719E-09    4.675E-09    4.628E-09    4.580E-09
     4.529E-09    4.475E-09    4.419E-09    4.361E-09    4.300E-09    4.236E-09    4.169E-09    4.099E-09    4.027E-09    3.952E-09
     3.873E-09    3.792E-09    3.708E-09    3.620E-09    3.529E-09    3.434E-09    3.337E-09    3.236E-09    3.131E-09    3.023E-09
     2.911E-09    2.796E-09    2.677E-09    2.554E-09    2.427E-09    2.296E-09    2.162E-09    2.023E-09    1.882E-09    1.736E-09
     1.588E-09    1.437E-09    1.283E-09    1.127E-09    9.688E-10    8.085E-10    6.464E-10    4.829E-10    3.181E-10    1.523E-10
    -1.428E-11   -1.814E-10   -3.489E-10   -5.164E-10   -6.837E-10   -8.507E-10   -1.017E-09   -1.182E-09   -1.347E-09   -1.510E-09
    -1.671E-09   -1.831E-09   -1.988E-09   -2.143E-09   -2.296E-09   -2.446E-09   -2.592E-09   -2.736E-09   -2.876E-09   -3.012E-09
    -3.145E-09   -3.273E-09   -3.397E-09   -3.516E-09   -3.630E-09   -3.740E-09   -3.844E-09   -3.942E-09   -4.035E-09   -4.121E-09
    -4.202E-09   -4.276E-09   -4.344E-09   -4.405E-09   -4.458E-09   -4.505E-09   -4.544E-09   -4.576E-09   -4.600E-09   -4.616E-09
    -4.626E-09   -4.628E-09   -4.623E-09   -4.612E-09   -4.594E-09   -4.571E-09   -4.541E-09   -4.506E-09   -4.466E-09   -4.420E-09
    -4.370E-09   -4.315E-09   -4.256E-09   -4.192E-09   -4.124E-09   -4.053E-09   -3.978E-09   -3.900E-09   -3.820E-09   -3.736E-09
    -3.650E-09   -3.561E-09   -3.471E-09   -3.378E-09   -3.284E-09   -3.189E-09   -3.092E-09   -2.995E-09   -2.897E-09   -2.798E-09
    -2.699E-09   -2.600E-09   -2.501E-09   -2.403E-09   -2.305E-09   -2.208E-09   -2.112E-09   -2.017E-09   -1.924E-09   -1.832E-09
    -1.742E-09   -1.654E-09   -1.568E-09   -1.485E-09   -1.404E-09   -1.325E-09   -1.250E-09   -1.178E-09   -1.109E-09   -1.043E-09
    -9.806E-10   -9.216E-10   -8.658E-10   -8.131E-10   -7.634E-10   -7.164E-10   -6.722E-10   -6.305E-10   -5.913E-10   -5.544E-10
    -5.198E-10   -4.873E-10   -4.568E-10   -4.282E-10   -4.013E-10   -3.761E-10   -3.525E-10   -3.303E-10   -3.095E-10   -2.899E-10
    -2.714E-10   -2.540E-10   -2.375E-10   -2.218E-10   -2.069E-10   -1.926E-10   -1.789E-10   -1.656E-10   -1.527E-10   -1.401E-10
    -1.277E-10   -1.153E-10   -1.030E-10   -9.069E-11   -7.821E-11   -6.555E-11   -5.259E-11   -3.929E-11   -2.556E-11   -1.136E-11
     3.380E-12    1.876E-11    3.478E-11    5.155E-11    6.910E-11    8.747E-11    1.067E-10    1.269E-10    1.481E-10    1.703E-10
     1.936E-10    2.179E-10    2.433E-10    2.697E-10    2.970E-10    3.251E-10    3.540E-10    3.836E-10    4.138E-10    4.446E-10
     4.759E-10    5.076E-10    5.396E-10    5.720E-10    6.045E-10    6.373E-10    6.701E-10    7.030E-10    7.359E-10    7.687E-10
     8.013E-10    8.338E-10    8.660E-10    8.980E-10    9.296E-10    9.607E-10    9.914E-10    1.022E-09    1.051E-09    1.080E-09
     1.109E-09    1.137E-09    1.164E-09    1.190E-09    1.215E-09    1.240E-09    1.263E-09    1.286E-09    1.308E-09    1.329E-09
     1.348E-09    1.367E-09    1.384E-09    1.401E-09    1.416E-09    1.430E-09    1.443E-09    1.455E-09    1.465E-09    1.474E-09
     1.482E-09    1.489E-09    1.494E-09
 Cr       Conc. = 3.53E-10
   4.31729E-09  4.61438E-09  4.74130E-09  4.48448E-09  4.24548E-09  4.12701E-09  4.06237E-09  4.02589E-09  4.00597E-09  3.99650E-09
   3.99392E-09  3.99598E-09  4.00114E-09  4.00833E-09  4.01673E-09  4.02572E-09  4.03477E-09  4.04341E-09  4.05124E-09  4.05782E-09
   4.06273E-09  4.06547E-09  4.06546E-09  4.06201E-09  4.05423E-09  4.04088E-09  4.02027E-09  3.98991E-09  3.94593E-09  3.88208E-09
   3.78923E-09  3.69237E-09  3.76887E-09  3.96924E-09  4.30997E-09  4.80078E-09  5.34470E-09  5.81501E-09  6.18009E-09  6.49947E-09
   6.82797E-09  7.05550E-09  6.86351E-09  6.20794E-09  5.88933E-09  5.71249E-09  5.60000E-09  5.52279E-09  5.46730E-09  5.42627E-09
   5.39539E-09  5.37196E-09  5.35417E-09  5.34075E-09  5.33078E-09  5.32356E-09  5.31856E-09  5.31539E-09  5.31371E-09  5.31328E-09
   5.31387E-09  5.31533E-09  5.31748E-09  5.32023E-09  5.32347E-09  5.32708E-09  5.33102E-09  5.33519E-09  5.33954E-09  5.34402E-09
   5.34858E-09  5.35316E-09  5.35773E-09  5.36224E-09  5.36667E-09  5.37098E-09  5.37513E-09  5.37910E-09  5.38284E-09  5.38635E-09
   5.38959E-09  5.39254E-09  5.39514E-09  5.39742E-09  5.39934E-09  5.40085E-09  5.40195E-09  5.40259E-09  5.40278E-09  5.40248E-09
   5.40167E-09  5.40034E-09  5.39843E-09  5.39597E-09  5.39291E-09  5.38920E-09  5.38485E-09  5.37984E-09  5.37415E-09  5.36774E-09
   5.36063E-09  5.35272E-09  5.34404E-09  5.33458E-09  5.32425E-09  5.31309E-09  5.30101E-09  5.28794E-09  5.27385E-09  5.25866E-09
   5.24232E-09  5.22478E-09  5.20597E-09  5.18583E-09  5.16431E-09  5.14134E-09  5.11687E-09  5.09083E-09  5.06315E-09  5.03380E-09
   5.00268E-09  4.96976E-09  4.93496E-09  4.89822E-09  4.85949E-09  4.81869E-09  4.77576E-09  4.73066E-09  4.68330E-09  4.63362E-09
   4.58157E-09  4.52708E-09  4.47009E-09  4.41053E-09  4.34834E-09  4.28346E-09  4.21583E-09  4.14539E-09  4.07206E-09  3.99581E-09
   3.91655E-09  3.83422E-09  3.74877E-09  3.66015E-09  3.56826E-09  3.47308E-09  3.37453E-09  3.27256E-09  3.16710E-09  3.05813E-09
   2.94553E-09  2.82929E-09  2.70937E-09  2.58566E-09  2.45816E-09  2.32677E-09  2.19157E-09  2.05263E-09  1.91024E-09  1.76464E-09
   1.61614E-09  1.46507E-09  1.31187E-09  1.15721E-09  1.00238E-09  8.50855E-10  7.18335E-10  6.50029E-10  6.06852E-10  5.84695E-10
   5.71395E-10  5.26503E-10  4.20822E-10  2.65373E-10  8.79758E-11 -1.04371E-10 -3.55510E-10 -7.28796E-10 -1.15823E-09 -1.39643E-09
  -1.58709E-09 -1.76220E-09 -1.92944E-09 -2.09135E-09 -2.24898E-09 -2.40269E-09 -2.55263E-09 -2.69880E-09 -2.84108E-09 -2.97935E-09
  -3.11345E-09 -3.24318E-09 -3.36837E-09 -3.48879E-09 -3.60427E-09 -3.71458E-09 -3.81953E-09 -3.91887E-09 -4.01245E-09 -4.10001E-09
  -4.18137E-09 -4.25631E-09 -4.32463E-09 -4.38613E-09 -4.44060E-09 -4.48785E-09 -4.52767E-09 -4.55989E-09 -4.58440E-09 -4.60140E-09
  -4.61113E-09 -4.61381E-09 -4.60969E-09 -4.59901E-09 -4.58199E-09 -4.55890E-09 -4.52994E-09 -4.49538E-09 -4.45545E-09 -4.41038E-09
  -4.36041E-09 -4.30580E-09 -4.24676E-09 -4.18355E-09 -4.11639E-09 -4.04554E-09 -3.97120E-09 -3.89365E-09 -3.81311E-09 -3.72979E-09
  -3.64394E-09 -3.55581E-09 -3.46561E-09 -3.37357E-09 -3.27993E-09 -3.18491E-09 -3.08874E-09 -2.99163E-09 -2.89382E-09 -2.79553E-09
  -2.69695E-09 -2.59833E-09 -2.49987E-09 -2.40178E-09 -2.30427E-09 -2.20755E-09 -2.11184E-09 -2.01731E-09 -1.92418E-09 -1.83264E-09
  -1.74290E-09 -1.65513E-09 -1.56953E-09 -1.48627E-09 -1.40557E-09 -1.32756E-09 -1.25244E-09 -1.18039E-09 -1.11156E-09 -1.04613E-09
  -9.84116E-10 -9.25409E-10 -8.69895E-10 -8.17437E-10 -7.67920E-10 -7.21225E-10 -6.77226E-10 -6.35810E-10 -5.96850E-10 -5.60235E-10
  -5.25853E-10 -4.93577E-10 -4.63309E-10 -4.34917E-10 -4.08295E-10 -3.83346E-10 -3.59946E-10 -3.37996E-10 -3.17378E-10 -2.98007E-10
  -2.79758E-10 -2.62554E-10 -2.46264E-10 -2.30808E-10 -2.16099E-10 -2.02030E-10 -1.88497E-10 -1.75423E-10 -1.62723E-10 -1.50307E-10
  -1.38078E-10 -1.25952E-10 -1.13852E-10 -1.01715E-10 -8.94332E-11 -7.69602E-11 -6.41968E-11 -5.10854E-11 -3.75512E-11 -2.35404E-11
  -8.98292E-12  6.20739E-12  2.20496E-11  3.86349E-11  5.60047E-11  7.41995E-11  9.32837E-11  1.13319E-10  1.34311E-10  1.56343E-10
   1.79426E-10  2.03588E-10  2.28823E-10  2.55042E-10  2.82171E-10  3.10138E-10  3.38872E-10  3.68304E-10  3.98363E-10  4.28981E-10
   4.60092E-10  4.91627E-10  5.23520E-10  5.55708E-10  5.88126E-10  6.20712E-10  6.53402E-10  6.86138E-10  7.18859E-10  7.51506E-10
   7.84021E-10  8.16349E-10  8.48432E-10  8.80219E-10  9.11654E-10  9.42686E-10  9.73265E-10  1.00334E-09  1.03286E-09  1.06179E-09
   1.09007E-09  1.11766E-09  1.14452E-09  1.17060E-09  1.19587E-09  1.22028E-09  1.24379E-09  1.26638E-09  1.28800E-09  1.30863E-09
   1.32822E-09  1.34674E-09  1.36417E-09  1.38048E-09  1.39564E-09  1.40962E-09  1.42241E-09  1.43397E-09  1.44429E-09  1.45334E-09
   1.46112E-09  1.46759E-09  1.47275E-09
 GABA     Conc. = 5.42E-10
   3.19093E-09  3.23368E-09  3.27541E-09  3.31611E-09  3.35575E-09  3.39432E-09  3.43180E-09  3.46818E-09  3.50343E-09  3.53751E-09
   3.57042E-09  3.60210E-09  3.63253E-09  3.66166E-09  3.68945E-09  3.71584E-09  3.74076E-09  3.76410E-09  3.78580E-09  3.80567E-09
   3.82358E-09  3.83934E-09  3.85270E-09  3.86335E-09  3.87101E-09  3.87517E-09  3.87553E-09  3.87221E-09  3.86824E-09  3.89058E-09
   3.93378E-09  3.98037E-09  4.08834E-09  4.25005E-09  4.41825E-09  4.62446E-09  4.87190E-09  5.12115E-09  5.33581E-09  5.47851E-09
   5.54636E-09  5.66103E-09  5.71952E-09  5.56135E-09  5.45496E-09  5.43359E-09  5.32188E-09  5.20805E-09  5.13179E-09  5.07773E-09
   5.03742E-09  5.00614E-09  4.98095E-09  4.96008E-09  4.94226E-09  4.92639E-09  4.91176E-09  4.89787E-09  4.88449E-09  4.87225E-09
   4.86369E-09  4.87232E-09  4.92666E-09  4.99419E-09  5.09321E-09  5.26814E-09  5.45412E-09  5.63484E-09  5.83718E-09  6.03259E-09
   6.18229E-09  6.25452E-09  6.22810E-09  6.16920E-09  6.18010E-09  6.03636E-09  5.79816E-09  5.73377E-09  5.67025E-09  5.55939E-09
   5.50141E-09  5.46062E-09  5.43646E-09  5.46457E-09  5.50484E-09  5.54728E-09  5.63031E-09  5.73272E-09  5.83900E-09  5.94768E-09
   6.01583E-09  6.07403E-09  6.17658E-09  6.18089E-09  6.09467E-09  6.10978E-09  6.08342E-09  5.96307E-09  5.89826E-09  5.84743E-09
   5.77696E-09  5.71779E-09  5.66875E-09  5.62667E-09  5.58937E-09  5.55539E-09  5.52370E-09  5.49358E-09  5.46451E-09  5.43611E-09
   5.40803E-09  5.37989E-09  5.35147E-09  5.32256E-09  5.29303E-09  5.26274E-09  5.23156E-09  5.19932E-09  5.16591E-09  5.13120E-09
   5.09510E-09  5.05753E-09  5.01838E-09  4.97757E-09  4.93499E-09  4.89059E-09  4.84426E-09  4.79593E-09  4.74552E-09  4.69295E-09
   4.63815E-09  4.58106E-09  4.52159E-09  4.45966E-09  4.39523E-09  4.32819E-09  4.25851E-09  4.18609E-09  4.11089E-09  4.03283E-09
   3.95183E-09  3.86783E-09  3.78079E-09  3.69062E-09  3.59725E-09  3.50064E-09  3.40071E-09  3.29741E-09  3.19067E-09  3.08045E-09
   2.96666E-09  2.84927E-09  2.72822E-09  2.60344E-09  2.47490E-09  2.34252E-09  2.20636E-09  2.06653E-09  1.92331E-09  1.77697E-09
   1.62784E-09  1.47632E-09  1.32298E-09  1.16871E-09  1.01540E-09  8.68434E-10  7.52845E-10  7.35787E-10  7.57523E-10  8.11875E-10
   8.79287E-10  8.97635E-10  8.23121E-10  6.73237E-10  4.90167E-10  2.83139E-10 -1.63359E-11 -5.03136E-10 -1.06880E-09 -1.34471E-09
  -1.55066E-09 -1.73414E-09 -1.90674E-09 -2.07244E-09 -2.23292E-09 -2.38888E-09 -2.54065E-09 -2.68837E-09 -2.83198E-09 -2.97140E-09
  -3.10653E-09 -3.23718E-09 -3.36321E-09 -3.48439E-09 -3.60057E-09 -3.71154E-09 -3.81709E-09 -3.91701E-09 -4.01112E-09 -4.09919E-09
  -4.18103E-09 -4.25643E-09 -4.32518E-09 -4.38709E-09 -4.44196E-09 -4.48959E-09 -4.52977E-09 -4.56235E-09 -4.58720E-09 -4.60452E-09
  -4.61456E-09 -4.61755E-09 -4.61372E-09 -4.60332E-09 -4.58658E-09 -4.56375E-09 -4.53506E-09 -4.50075E-09 -4.46105E-09 -4.41622E-09
  -4.36649E-09 -4.31209E-09 -4.25328E-09 -4.19027E-09 -4.12332E-09 -4.05267E-09 -3.97853E-09 -3.90116E-09 -3.82081E-09 -3.73767E-09
