 LCModel (Version 6.3-1R) Copyright: S.W. Provencher.          Ref.: Magn. Reson. Med. 30:672-679 (1993).                
 onepulse 20x19_ftSpec_smooth_lcm
 26 lines in following concentration table = NCONC+1
    Conc.  %SD   /Cr    Metabolite                                         
 8.14E-11 223%   0.000 Ala                                                 
 3.95E-10  93%   0.000 Asp                                                 
    0.000 999%   0.000 Cr                                                  
 2.55E-09  12%   0.000 GABA                                                
 1.69E-09  17%   0.000 Glc                                                 
    0.000 999%   0.000 Gln                                                 
 4.59E-10  75%   0.000 Glu                                                 
    0.000 999%   0.000 Glyc                                                
    0.000 999%   0.000 GPC                                                 
 8.37E-11 239%   0.000 GSH                                                 
 2.24E-10  91%   0.000 Ins                                                 
    0.000 999%   0.000 Lac                                                 
    0.000 999%   0.000 NAAG                                                
 1.09E-09  15%   0.000 NAA                                                 
 1.17E-10  41%   0.000 PCh                                                 
    0.000 999%   0.000 PCr                                                 
    0.000 999%   0.000 PE                                                  
    0.000 999%   0.000 Scyllo                                              
    0.000 999%   0.000 Ser                                                 
    0.000 999%   0.000 Tau                                                 
 1.17E-10  41%   0.000 GPC+PCh                                             
 1.09E-09  15%   0.000 NAA+NAAG                                            
 2.24E-10  91%   0.000 Ins+Glyc                                            
    0.000 999%   0.000 Cr+PCr                                              
 4.59E-10  75%   0.000 Glu+Gln                                             
   6 lines in following misc. output table
  FWHM = 0.078 ppm    S/N =   4                                            
  Data shift = 0.324 ppm                                                   
  Ph:  41 deg      30.2 deg/ppm                                            
  alphaB,S = 1.6E-01,   1.2E+02                                            
   16 spline knots.   Ns = 5(1)                                            
  ( 7) 2 infls.   ( 3) 1 extrs.                                            
  363 points on ppm-axis = NY
      4.250000     4.238821     4.227641     4.216462     4.205282     4.194103     4.182923     4.171744     4.160564     4.149385
      4.138206     4.127026     4.115847     4.104667     4.093488     4.082308     4.071129     4.059949     4.048770     4.037591
      4.026411     4.015232     4.004052     3.992873     3.981693     3.970514     3.959334     3.948155     3.936975     3.925796
      3.914617     3.903437     3.892258     3.881078     3.869899     3.858719     3.847540     3.836360     3.825181     3.814002
      3.802822     3.791643     3.780463     3.769284     3.758104     3.746925     3.735745     3.724566     3.713387     3.702207
      3.691028     3.679848     3.668669     3.657489     3.646310     3.635130     3.623951     3.612772     3.601592     3.590413
      3.579233     3.568054     3.556874     3.545695     3.534515     3.523336     3.512156     3.500977     3.489798     3.478618
      3.467439     3.456259     3.445080     3.433900     3.422721     3.411541     3.400362     3.389183     3.378003     3.366824
      3.355644     3.344465     3.333285     3.322106     3.310926     3.299747     3.288568     3.277388     3.266209     3.255029
      3.243850     3.232670     3.221491     3.210311     3.199132     3.187953     3.176773     3.165594     3.154414     3.143235
      3.132055     3.120876     3.109696     3.098517     3.087337     3.076158     3.064979     3.053799     3.042620     3.031440
      3.020261     3.009081     2.997902     2.986722     2.975543     2.964364     2.953184     2.942005     2.930825     2.919646
      2.908466     2.897287     2.886107     2.874928     2.863749     2.852569     2.841390     2.830210     2.819031     2.807851
      2.796672     2.785492     2.774313     2.763134     2.751954     2.740775     2.729595     2.718416     2.707236     2.696057
      2.684877     2.673698     2.662519     2.651339     2.640160     2.628980     2.617801     2.606621     2.595442     2.584262
      2.573083     2.561903     2.550724     2.539545     2.528365     2.517186     2.506006     2.494827     2.483647     2.472468
      2.461288     2.450109     2.438930     2.427750     2.416571     2.405391     2.394212     2.383032     2.371853     2.360673
      2.349494     2.338315     2.327135     2.315956     2.304776     2.293597     2.282417     2.271238     2.260058     2.248879
      2.237700     2.226520     2.215341     2.204161     2.192982     2.181802     2.170623     2.159443     2.148264     2.137084
      2.125905     2.114726     2.103546     2.092367     2.081187     2.070008     2.058828     2.047649     2.036469     2.025290
      2.014111     2.002931     1.991752     1.980572     1.969393     1.958213     1.947034     1.935854     1.924675     1.913496
      1.902316     1.891137     1.879957     1.868778     1.857598     1.846419     1.835239     1.824060     1.812881     1.801701
      1.790522     1.779342     1.768163     1.756983     1.745804     1.734624     1.723445     1.712265     1.701086     1.689907
      1.678727     1.667548     1.656368     1.645189     1.634009     1.622830     1.611650     1.600471     1.589292     1.578112
      1.566933     1.555753     1.544574     1.533394     1.522215     1.511035     1.499856     1.488677     1.477497     1.466318
      1.455138     1.443959     1.432779     1.421600     1.410420     1.399241     1.388062     1.376882     1.365703     1.354523
      1.343344     1.332164     1.320985     1.309805     1.298626     1.287446     1.276267     1.265088     1.253908     1.242729
      1.231549     1.220370     1.209190     1.198011     1.186831     1.175652     1.164473     1.153293     1.142114     1.130934
      1.119755     1.108575     1.097396     1.086216     1.075037     1.063858     1.052678     1.041499     1.030319     1.019140
      1.007960     0.996781     0.985601     0.974422     0.963243     0.952063     0.940884     0.929704     0.918525     0.907345
      0.896166     0.884986     0.873807     0.862628     0.851448     0.840269     0.829089     0.817910     0.806730     0.795551
      0.784371     0.773192     0.762012     0.750833     0.739654     0.728474     0.717295     0.706115     0.694936     0.683756
      0.672577     0.661397     0.650218     0.639039     0.627859     0.616680     0.605500     0.594321     0.583141     0.571962
      0.560782     0.549603     0.538424     0.527244     0.516065     0.504885     0.493706     0.482526     0.471347     0.460167
      0.448988     0.437809     0.426629     0.415450     0.404270     0.393091     0.381911     0.370732     0.359552     0.348373
      0.337193     0.326014     0.314835     0.303655     0.292476     0.281296     0.270117     0.258937     0.247758     0.236578
      0.225399     0.214220     0.203040
 NY phased data points follow
   1.04257E-09  3.02374E-09  6.89985E-09  7.65840E-09  1.03939E-08  9.05936E-09  8.17620E-09  6.74307E-09  6.02688E-09  4.63316E-09
   5.28261E-09  4.67643E-09  5.01005E-09  4.74583E-09  5.90089E-09  5.62781E-09  6.53499E-09  7.18369E-09  7.82889E-09  6.91256E-09
   7.25548E-09  6.42534E-09  7.38083E-09  6.65284E-09  5.62250E-09  5.82234E-09  6.23057E-09  6.92687E-09  7.44027E-09  7.21337E-09
   7.07071E-09  5.81711E-09  5.88153E-09  6.63865E-09  8.26787E-09  9.80471E-09  1.02120E-08  9.86575E-09  8.51939E-09  6.59351E-09
   5.89169E-09  5.23633E-09  5.48978E-09  3.70337E-09  5.40490E-09  4.42691E-09  4.42311E-09  4.63728E-09  4.64863E-09  3.61791E-09
   3.06232E-09  3.07063E-09  3.61748E-09  3.32968E-09  4.52369E-09  4.11380E-09  3.95648E-09  2.83697E-09  3.64916E-09  2.85164E-09
   2.77071E-09  4.11934E-09  4.85721E-09  4.95064E-09  6.35590E-09  8.70163E-09  1.10618E-08  1.19691E-08  1.06037E-08  8.27770E-09
   6.72000E-09  5.41045E-09  5.53935E-09  4.27861E-09  3.33787E-09  2.98846E-09  3.76623E-09  2.49018E-09  3.28151E-09  3.51346E-09
   4.86401E-09  7.78063E-09  1.18387E-08  1.41324E-08  1.29562E-08  1.05817E-08  9.60629E-09  7.78813E-09  7.78053E-09  6.19037E-09
   6.26814E-09  5.86131E-09  5.24643E-09  5.46588E-09  5.65566E-09  4.45550E-09  4.22591E-09  3.46239E-09  4.20307E-09  2.92335E-09
   2.67706E-09  2.93564E-09  3.07636E-09  3.67637E-09  3.09243E-09  4.13699E-09  3.35733E-09  3.63813E-09  3.84816E-09  3.42047E-09
   3.52936E-09  2.41687E-09  2.53475E-09  1.99673E-09  2.89654E-09  2.83299E-09  3.79062E-09  3.10083E-09  4.37192E-09  3.91961E-09
   4.06900E-09  3.88275E-09  4.16474E-09  3.35368E-09  3.39512E-09  2.53406E-09  2.23149E-09  2.02963E-09  2.54234E-09  2.09251E-09
   2.60657E-09  3.25761E-09  3.14500E-09  2.76047E-09  3.41301E-09  3.91472E-09  3.04118E-09  3.02566E-09  3.12614E-09  2.55119E-09
   3.29437E-09  3.76543E-09  4.32120E-09  5.26047E-09  5.07381E-09  4.01757E-09  4.12911E-09  4.64223E-09  4.96075E-09  5.16377E-09
   5.14819E-09  4.74984E-09  4.27780E-09  4.38323E-09  4.91268E-09  4.48160E-09  4.56923E-09  4.57052E-09  4.98155E-09  4.95924E-09
   5.91258E-09  5.79469E-09  5.99097E-09  5.79877E-09  6.56738E-09  7.08350E-09  7.54147E-09  7.97151E-09  8.06311E-09  8.63563E-09
   1.08476E-08  1.23713E-08  1.51436E-08  1.75590E-08  1.80013E-08  1.42023E-08  1.10514E-08  7.16720E-09  5.35359E-09  4.46138E-09
   4.79592E-09  3.04620E-09  3.53536E-09  2.31585E-09  2.59415E-09  1.60221E-09  1.90430E-09  6.59034E-10  1.16225E-09  3.77477E-10
   3.05006E-10 -1.64170E-10 -6.08521E-10 -2.05404E-09 -2.25266E-09 -2.84610E-09 -3.74883E-09 -4.97650E-09 -5.64238E-09 -6.86059E-09
  -7.73013E-09 -8.44380E-09 -9.75399E-09 -1.01424E-08 -1.06772E-08 -1.12974E-08 -1.16951E-08 -1.18117E-08 -1.14294E-08 -1.11228E-08
  -1.05482E-08 -1.03930E-08 -8.40657E-09 -7.22979E-09 -6.70844E-09 -5.47606E-09 -3.91062E-09 -3.54812E-09 -3.03013E-09 -2.33086E-09
  -2.21681E-09 -2.25733E-09 -2.90029E-09 -2.74952E-09 -2.07129E-09 -3.39347E-09 -2.71142E-09 -2.16495E-09 -2.64956E-09 -2.44674E-09
  -2.48109E-09 -2.07485E-09 -2.00421E-09 -2.38756E-09 -2.10761E-09 -3.23515E-09 -2.70212E-09 -2.66010E-09 -2.16295E-09 -2.11968E-09
  -2.72615E-09 -1.21307E-09 -1.64321E-09 -1.88565E-09 -2.06814E-09 -2.66568E-09 -2.16293E-09 -2.23996E-09 -2.28632E-09 -2.34136E-09
  -2.22709E-09 -1.71177E-09 -1.44203E-09 -1.60668E-09 -1.36462E-09 -1.12421E-09 -1.52254E-09 -1.56798E-09 -1.67419E-09 -2.21550E-09
  -1.73779E-09 -1.96918E-09 -2.37836E-09 -3.30894E-09 -2.56842E-09 -2.34479E-09 -1.41264E-09 -1.89356E-09 -1.02182E-09 -1.29794E-09
  -8.82426E-10 -9.79222E-10 -9.52960E-10 -7.64128E-10 -8.74411E-10 -7.52184E-10 -9.04087E-10 -1.44328E-09 -1.58244E-09 -2.13292E-09
  -1.83032E-09 -1.48143E-09 -2.08885E-09 -2.09519E-09 -1.66470E-09 -2.18848E-09 -1.69638E-09 -1.77959E-09 -1.38659E-09 -1.63603E-09
  -1.04090E-09 -1.85025E-09 -1.68851E-09 -1.44730E-09 -1.03943E-09 -1.27228E-09 -1.81282E-09 -1.42995E-09 -1.03050E-09 -1.66994E-09
  -1.60192E-09 -8.24962E-10 -1.28831E-09 -1.50100E-09 -1.22895E-09 -1.38328E-09 -9.52634E-10 -1.25375E-09 -1.14304E-09 -1.29570E-09
  -1.24359E-09 -1.84173E-09 -1.09846E-09 -8.27411E-10 -8.57018E-10 -1.18436E-09 -1.11573E-09 -8.57783E-10 -1.29073E-09 -1.34726E-09
  -5.61223E-10 -1.21723E-09 -1.05289E-09 -1.05506E-09 -1.41263E-09 -6.35933E-10 -9.29264E-10 -1.18652E-09 -6.68103E-10 -1.00586E-09
  -2.57625E-10 -1.16989E-09 -8.33986E-10 -1.41762E-09 -9.52077E-10 -1.21595E-09 -8.56866E-10 -1.24769E-09 -1.07339E-09 -7.78682E-10
  -7.58270E-10 -1.16237E-09 -7.92337E-10  1.74920E-11 -7.97497E-10 -1.19268E-09 -4.48294E-10 -1.03436E-09 -4.22712E-10 -7.56031E-10
  -7.59547E-10 -7.68227E-10 -8.67936E-10 -4.08200E-10 -6.22064E-10 -3.84502E-10 -7.17808E-10 -9.28160E-10 -7.68146E-10 -8.03350E-10
  -6.11269E-10 -1.00721E-09 -5.63486E-10
 NY points of the fit to the data follow
   4.73761E-09  5.48038E-09  6.24735E-09  6.92743E-09  7.35698E-09  7.43309E-09  7.15123E-09  6.60469E-09  6.00397E-09  5.42948E-09
   5.08038E-09  4.95714E-09  4.98696E-09  5.12675E-09  5.39604E-09  5.78208E-09  6.26520E-09  6.81160E-09  7.33684E-09  7.75331E-09
   8.01262E-09  7.95104E-09  7.49553E-09  6.83988E-09  6.18293E-09  5.68757E-09  5.55926E-09  5.87232E-09  6.38798E-09  6.93097E-09
   7.22095E-09  7.30859E-09  7.43052E-09  7.50493E-09  7.58394E-09  7.90330E-09  8.24825E-09  8.36983E-09  8.19334E-09  7.76565E-09
   7.17656E-09  6.45852E-09  5.50886E-09  4.70675E-09  4.20576E-09  3.71589E-09  3.33742E-09  3.22089E-09  3.24036E-09  3.31177E-09
   3.36459E-09  3.37238E-09  3.35120E-09  3.32954E-09  3.34327E-09  3.41397E-09  3.51644E-09  3.61323E-09  3.63963E-09  3.65126E-09
   3.76643E-09  4.13527E-09  4.72430E-09  5.44922E-09  6.40972E-09  7.38800E-09  8.15311E-09  8.71401E-09  9.03360E-09  8.98561E-09
   8.54944E-09  7.73312E-09  6.69298E-09  5.69821E-09  4.76822E-09  4.01995E-09  3.83671E-09  4.16756E-09  4.90723E-09  6.08492E-09
   7.53089E-09  9.04654E-09  1.05039E-08  1.15565E-08  1.18105E-08  1.12403E-08  1.00101E-08  8.43903E-09  7.03748E-09  6.35982E-09
   6.16787E-09  6.04587E-09  5.79361E-09  5.39605E-09  5.07074E-09  4.71901E-09  4.25529E-09  3.90748E-09  3.66572E-09  3.44247E-09
   3.29957E-09  3.22599E-09  3.19814E-09  3.21408E-09  3.25401E-09  3.30012E-09  3.33863E-09  3.36048E-09  3.36202E-09  3.34322E-09
   3.30995E-09  3.27660E-09  3.25454E-09  3.22476E-09  3.20695E-09  3.22183E-09  3.24844E-09  3.28043E-09  3.31542E-09  3.35226E-09
   3.39024E-09  3.42887E-09  3.46776E-09  3.50660E-09  3.54515E-09  3.58318E-09  3.62049E-09  3.65692E-09  3.69229E-09  3.72645E-09
   3.75925E-09  3.79055E-09  3.82021E-09  3.84810E-09  3.87409E-09  3.89805E-09  3.91986E-09  3.93940E-09  3.95658E-09  3.97126E-09
   3.98335E-09  3.99266E-09  3.99900E-09  4.00219E-09  4.00207E-09  3.99844E-09  3.99116E-09  3.98006E-09  3.96499E-09  3.94581E-09
   3.92242E-09  3.89472E-09  3.86266E-09  3.82621E-09  3.78542E-09  3.74041E-09  3.69140E-09  3.63882E-09  3.58332E-09  3.52598E-09
   3.46858E-09  3.41411E-09  3.36790E-09  3.34034E-09  3.35470E-09  3.47812E-09  4.00231E-09  5.33870E-09  7.34660E-09  9.76025E-09
   1.24192E-08  1.50182E-08  1.70055E-08  1.77178E-08  1.67029E-08  1.39926E-08  1.01343E-08  6.07831E-09  3.00890E-09  1.52007E-09
   8.68221E-10  4.45893E-10  1.12857E-10 -1.75496E-10 -4.37770E-10 -6.83007E-10 -9.15962E-10 -1.13926E-09 -1.35435E-09 -1.56199E-09
  -1.76255E-09 -1.95611E-09 -2.14257E-09 -2.32167E-09 -2.49314E-09 -2.65660E-09 -2.81176E-09 -2.95874E-09 -3.09772E-09 -3.22885E-09
  -3.35226E-09 -3.46810E-09 -3.57647E-09 -3.67749E-09 -3.77127E-09 -3.85789E-09 -3.93747E-09 -4.01010E-09 -4.07586E-09 -4.13483E-09
  -4.18713E-09 -4.23281E-09 -4.27197E-09 -4.30470E-09 -4.33106E-09 -4.35115E-09 -4.36504E-09 -4.37281E-09 -4.37454E-09 -4.37030E-09
  -4.36018E-09 -4.34425E-09 -4.32259E-09 -4.29528E-09 -4.26247E-09 -4.22444E-09 -4.18151E-09 -4.13398E-09 -4.08218E-09 -4.02641E-09
  -3.96697E-09 -3.90419E-09 -3.83837E-09 -3.76983E-09 -3.69885E-09 -3.62578E-09 -3.55090E-09 -3.47454E-09 -3.39698E-09 -3.31857E-09
  -3.23959E-09 -3.16036E-09 -3.08119E-09 -3.00239E-09 -2.92426E-09 -2.84711E-09 -2.77126E-09 -2.69701E-09 -2.62468E-09 -2.55457E-09
  -2.48698E-09 -2.42224E-09 -2.36048E-09 -2.30161E-09 -2.24556E-09 -2.19224E-09 -2.14153E-09 -2.09337E-09 -2.04765E-09 -2.00429E-09
  -1.96320E-09 -1.92427E-09 -1.88742E-09 -1.85256E-09 -1.81961E-09 -1.78846E-09 -1.75900E-09 -1.73119E-09 -1.70492E-09 -1.68007E-09
  -1.65657E-09 -1.63434E-09 -1.61326E-09 -1.59326E-09 -1.57425E-09 -1.55612E-09 -1.53879E-09 -1.52218E-09 -1.50618E-09 -1.49070E-09
  -1.47570E-09 -1.46115E-09 -1.44704E-09 -1.43334E-09 -1.42004E-09 -1.40712E-09 -1.39455E-09 -1.38232E-09 -1.37042E-09 -1.35881E-09
  -1.34749E-09 -1.33643E-09 -1.32562E-09 -1.31502E-09 -1.30464E-09 -1.29444E-09 -1.28441E-09 -1.27453E-09 -1.26479E-09 -1.25514E-09
  -1.24560E-09 -1.23612E-09 -1.22670E-09 -1.21732E-09 -1.20795E-09 -1.19858E-09 -1.18918E-09 -1.17975E-09 -1.17027E-09 -1.16074E-09
  -1.15118E-09 -1.14157E-09 -1.13193E-09 -1.12225E-09 -1.11254E-09 -1.10280E-09 -1.09303E-09 -1.08323E-09 -1.07341E-09 -1.06357E-09
  -1.05371E-09 -1.04382E-09 -1.03392E-09 -1.02401E-09 -1.01408E-09 -1.00415E-09 -9.94209E-10 -9.84259E-10 -9.74307E-10 -9.64358E-10
  -9.54403E-10 -9.44454E-10 -9.34507E-10 -9.24570E-10 -9.14643E-10 -9.04722E-10 -8.94815E-10 -8.84923E-10 -8.75043E-10 -8.65177E-10
  -8.55328E-10 -8.45493E-10 -8.35674E-10 -8.25872E-10 -8.16091E-10 -8.06324E-10 -7.96582E-10 -7.86858E-10 -7.77156E-10 -7.67475E-10
  -7.57815E-10 -7.48181E-10 -7.38570E-10 -7.28984E-10 -7.19424E-10 -7.09891E-10 -7.00385E-10 -6.90905E-10 -6.81454E-10 -6.72035E-10
  -6.62645E-10 -6.53289E-10 -6.43958E-10
 NY background values follow
    -4.868E-10   -4.648E-10   -4.430E-10   -4.212E-10   -3.996E-10   -3.781E-10   -3.567E-10   -3.356E-10   -3.146E-10   -2.939E-10
    -2.733E-10   -2.530E-10   -2.329E-10   -2.131E-10   -1.935E-10   -1.743E-10   -1.553E-10   -1.367E-10   -1.184E-10   -1.004E-10
    -8.278E-11   -6.553E-11   -4.867E-11   -3.221E-11   -1.617E-11   -5.517E-13    1.462E-11    2.934E-11    4.359E-11    5.736E-11
     7.067E-11    8.353E-11    9.597E-11    1.080E-10    1.196E-10    1.309E-10    1.418E-10    1.524E-10    1.626E-10    1.726E-10
     1.823E-10    1.917E-10    2.008E-10    2.097E-10    2.184E-10    2.269E-10    2.353E-10    2.435E-10    2.515E-10    2.594E-10
     2.672E-10    2.749E-10    2.826E-10    2.902E-10    2.977E-10    3.052E-10    3.128E-10    3.204E-10    3.280E-10    3.359E-10
     3.439E-10    3.522E-10    3.609E-10    3.699E-10    3.794E-10    3.894E-10    4.001E-10    4.113E-10    4.233E-10    4.360E-10
     4.495E-10    4.639E-10    4.793E-10    4.957E-10    5.132E-10    5.317E-10    5.515E-10    5.726E-10    5.949E-10    6.186E-10
     6.438E-10    6.704E-10    6.986E-10    7.284E-10    7.600E-10    7.931E-10    8.280E-10    8.643E-10    9.022E-10    9.415E-10
     9.823E-10    1.024E-09    1.068E-09    1.112E-09    1.158E-09    1.205E-09    1.252E-09    1.301E-09    1.351E-09    1.401E-09
     1.453E-09    1.505E-09    1.558E-09    1.611E-09    1.665E-09    1.719E-09    1.774E-09    1.829E-09    1.885E-09    1.940E-09
     1.996E-09    2.053E-09    2.109E-09    2.165E-09    2.221E-09    2.277E-09    2.332E-09    2.387E-09    2.442E-09    2.496E-09
     2.549E-09    2.601E-09    2.652E-09    2.702E-09    2.751E-09    2.799E-09    2.845E-09    2.890E-09    2.933E-09    2.974E-09
     3.014E-09    3.051E-09    3.087E-09    3.120E-09    3.151E-09    3.180E-09    3.206E-09    3.230E-09    3.251E-09    3.269E-09
     3.284E-09    3.296E-09    3.305E-09    3.310E-09    3.312E-09    3.310E-09    3.304E-09    3.293E-09    3.278E-09    3.258E-09
     3.234E-09    3.204E-09    3.169E-09    3.129E-09    3.083E-09    3.031E-09    2.973E-09    2.909E-09    2.839E-09    2.761E-09
     2.677E-09    2.586E-09    2.488E-09    2.382E-09    2.269E-09    2.148E-09    2.019E-09    1.882E-09    1.736E-09    1.583E-09
     1.422E-09    1.254E-09    1.080E-09    9.012E-10    7.169E-10    5.281E-10    3.355E-10    1.396E-10   -5.893E-11   -2.596E-10
    -4.619E-10   -6.652E-10   -8.688E-10   -1.072E-09   -1.275E-09   -1.476E-09   -1.676E-09   -1.873E-09   -2.067E-09   -2.257E-09
    -2.443E-09   -2.625E-09   -2.801E-09   -2.971E-09   -3.135E-09   -3.291E-09   -3.440E-09   -3.581E-09   -3.715E-09   -3.842E-09
    -3.961E-09   -4.073E-09   -4.178E-09   -4.276E-09   -4.367E-09   -4.451E-09   -4.528E-09   -4.598E-09   -4.661E-09   -4.718E-09
    -4.769E-09   -4.812E-09   -4.850E-09   -4.881E-09   -4.905E-09   -4.924E-09   -4.936E-09   -4.942E-09   -4.943E-09   -4.937E-09
    -4.926E-09   -4.909E-09   -4.886E-09   -4.857E-09   -4.823E-09   -4.784E-09   -4.740E-09   -4.691E-09   -4.639E-09   -4.582E-09
    -4.522E-09   -4.458E-09   -4.391E-09   -4.322E-09   -4.250E-09   -4.176E-09   -4.100E-09   -4.023E-09   -3.945E-09   -3.865E-09
    -3.786E-09   -3.706E-09   -3.626E-09   -3.546E-09   -3.467E-09   -3.390E-09   -3.313E-09   -3.238E-09   -3.165E-09   -3.094E-09
    -3.026E-09   -2.961E-09   -2.898E-09   -2.839E-09   -2.782E-09   -2.728E-09   -2.677E-09   -2.628E-09   -2.582E-09   -2.538E-09
    -2.496E-09   -2.457E-09   -2.420E-09   -2.384E-09   -2.351E-09   -2.319E-09   -2.289E-09   -2.261E-09   -2.234E-09   -2.209E-09
    -2.185E-09   -2.162E-09   -2.140E-09   -2.120E-09   -2.101E-09   -2.082E-09   -2.064E-09   -2.047E-09   -2.031E-09   -2.015E-09
    -1.999E-09   -1.984E-09   -1.970E-09   -1.956E-09   -1.942E-09   -1.929E-09   -1.916E-09   -1.903E-09   -1.891E-09   -1.879E-09
    -1.867E-09   -1.855E-09   -1.844E-09   -1.833E-09   -1.822E-09   -1.812E-09   -1.801E-09   -1.791E-09   -1.781E-09   -1.771E-09
    -1.761E-09   -1.751E-09   -1.741E-09   -1.732E-09   -1.722E-09   -1.712E-09   -1.702E-09   -1.693E-09   -1.683E-09   -1.673E-09
    -1.663E-09   -1.653E-09   -1.643E-09   -1.633E-09   -1.623E-09   -1.613E-09   -1.603E-09   -1.593E-09   -1.583E-09   -1.572E-09
    -1.562E-09   -1.552E-09   -1.542E-09   -1.531E-09   -1.521E-09   -1.511E-09   -1.501E-09   -1.490E-09   -1.480E-09   -1.470E-09
    -1.460E-09   -1.449E-09   -1.439E-09   -1.429E-09   -1.418E-09   -1.408E-09   -1.398E-09   -1.388E-09   -1.378E-09   -1.367E-09
    -1.357E-09   -1.347E-09   -1.337E-09   -1.327E-09   -1.317E-09   -1.307E-09   -1.297E-09   -1.287E-09   -1.277E-09   -1.267E-09
    -1.257E-09   -1.247E-09   -1.237E-09   -1.227E-09   -1.217E-09   -1.207E-09   -1.197E-09   -1.187E-09   -1.178E-09   -1.168E-09
    -1.158E-09   -1.149E-09   -1.139E-09
 Ala      Conc. = 8.14E-11
  -4.34255E-10 -4.04757E-10 -3.77011E-10 -3.51040E-10 -3.27197E-10 -3.05538E-10 -2.86806E-10 -2.71629E-10 -2.56571E-10 -2.41638E-10
  -2.30467E-10 -2.18277E-10 -2.03245E-10 -1.88975E-10 -1.74201E-10 -1.57977E-10 -1.41114E-10 -1.24008E-10 -1.06868E-10 -8.98215E-11
  -7.29530E-11 -5.63220E-11 -3.99781E-11 -2.39532E-11 -8.27765E-12  7.01619E-12  2.19104E-11  3.63838E-11  5.04144E-11  6.39916E-11
   7.71267E-11  8.98358E-11  1.02133E-10  1.14034E-10  1.25556E-10  1.36715E-10  1.47527E-10  1.58009E-10  1.68179E-10  1.78054E-10
   1.87649E-10  1.96984E-10  2.06074E-10  2.14938E-10  2.23592E-10  2.32057E-10  2.40346E-10  2.48478E-10  2.56473E-10  2.64346E-10
   2.72115E-10  2.79800E-10  2.87415E-10  2.94981E-10  3.02511E-10  3.10030E-10  3.17553E-10  3.25111E-10  3.32764E-10  3.40573E-10
   3.48600E-10  3.56904E-10  3.65548E-10  3.74593E-10  3.84098E-10  3.94127E-10  4.04740E-10  4.15998E-10  4.27962E-10  4.40694E-10
   4.54256E-10  4.68708E-10  4.84112E-10  5.00531E-10  5.18024E-10  5.36656E-10  5.56487E-10  5.77580E-10  5.99997E-10  6.23802E-10
   6.49057E-10  6.75825E-10  7.04172E-10  7.34162E-10  7.65858E-10  7.99273E-10  8.34356E-10  8.71060E-10  9.09337E-10  9.49146E-10
   9.90454E-10  1.03323E-09  1.07748E-09  1.12320E-09  1.17046E-09  1.21937E-09  1.27023E-09  1.32362E-09  1.38103E-09  1.44724E-09
   1.53212E-09  1.62345E-09  1.72108E-09  1.83623E-09  1.95692E-09  2.07014E-09  2.16517E-09  2.23524E-09  2.27848E-09  2.29625E-09
   2.29549E-09  2.29119E-09  2.29512E-09  2.28865E-09  2.29182E-09  2.32567E-09  2.36963E-09  2.41757E-09  2.46725E-09  2.51762E-09
   2.56811E-09  2.61830E-09  2.66794E-09  2.71679E-09  2.76467E-09  2.81142E-09  2.85691E-09  2.90098E-09  2.94352E-09  2.98440E-09
   3.02350E-09  3.06070E-09  3.09589E-09  3.12895E-09  3.15978E-09  3.18825E-09  3.21426E-09  3.23770E-09  3.25846E-09  3.27643E-09
   3.29149E-09  3.30348E-09  3.31218E-09  3.31742E-09  3.31898E-09  3.31668E-09  3.31031E-09  3.29968E-09  3.28460E-09  3.26485E-09
   3.24026E-09  3.21061E-09  3.17572E-09  3.13540E-09  3.08944E-09  3.03766E-09  2.97986E-09  2.91585E-09  2.84545E-09  2.76847E-09
   2.68473E-09  2.59409E-09  2.49640E-09  2.39159E-09  2.27975E-09  2.16142E-09  2.03962E-09  1.92289E-09  1.80522E-09  1.68438E-09
   1.55962E-09  1.42749E-09  1.28107E-09  1.11184E-09  9.14633E-10  6.91226E-10  4.49997E-10  2.04135E-10 -3.00665E-11 -2.41354E-10
  -4.47954E-10 -6.53536E-10 -8.58642E-10 -1.06311E-09 -1.26654E-09 -1.46848E-09 -1.66840E-09 -1.86576E-09 -2.06001E-09 -2.25058E-09
  -2.43692E-09 -2.61846E-09 -2.79463E-09 -2.96483E-09 -3.12853E-09 -3.28513E-09 -3.43420E-09 -3.57573E-09 -3.70980E-09 -3.83648E-09
  -3.95583E-09 -4.06795E-09 -4.17290E-09 -4.27075E-09 -4.36159E-09 -4.44548E-09 -4.52250E-09 -4.59273E-09 -4.65623E-09 -4.71308E-09
  -4.76336E-09 -4.80713E-09 -4.84447E-09 -4.87547E-09 -4.90018E-09 -4.91869E-09 -4.93107E-09 -4.93739E-09 -4.93772E-09 -4.93214E-09
  -4.92073E-09 -4.90355E-09 -4.88069E-09 -4.85221E-09 -4.81827E-09 -4.77914E-09 -4.73515E-09 -4.68660E-09 -4.63379E-09 -4.57704E-09
  -4.51666E-09 -4.45295E-09 -4.38623E-09 -4.31681E-09 -4.24497E-09 -4.17106E-09 -4.09536E-09 -4.01820E-09 -3.93985E-09 -3.86067E-09
  -3.78094E-09 -3.70097E-09 -3.62107E-09 -3.54156E-09 -3.46273E-09 -3.38490E-09 -3.30837E-09 -3.23346E-09 -3.16047E-09 -3.08973E-09
  -3.02151E-09 -2.95615E-09 -2.89378E-09 -2.83431E-09 -2.77767E-09 -2.72376E-09 -2.67248E-09 -2.62375E-09 -2.57748E-09 -2.53356E-09
  -2.49192E-09 -2.45246E-09 -2.41508E-09 -2.37970E-09 -2.34623E-09 -2.31457E-09 -2.28461E-09 -2.25630E-09 -2.22953E-09 -2.20420E-09
  -2.18022E-09 -2.15751E-09 -2.13596E-09 -2.11549E-09 -2.09602E-09 -2.07743E-09 -2.05966E-09 -2.04259E-09 -2.02615E-09 -2.01024E-09
  -1.99480E-09 -1.97982E-09 -1.96529E-09 -1.95116E-09 -1.93744E-09 -1.92410E-09 -1.91113E-09 -1.89849E-09 -1.88618E-09 -1.87417E-09
  -1.86245E-09 -1.85100E-09 -1.83979E-09 -1.82881E-09 -1.81804E-09 -1.80745E-09 -1.79704E-09 -1.78678E-09 -1.77666E-09 -1.76665E-09
  -1.75673E-09 -1.74689E-09 -1.73710E-09 -1.72735E-09 -1.71762E-09 -1.70789E-09 -1.69814E-09 -1.68834E-09 -1.67851E-09 -1.66863E-09
  -1.65872E-09 -1.64876E-09 -1.63878E-09 -1.62876E-09 -1.61870E-09 -1.60862E-09 -1.59851E-09 -1.58838E-09 -1.57822E-09 -1.56804E-09
  -1.55784E-09 -1.54763E-09 -1.53739E-09 -1.52715E-09 -1.51690E-09 -1.50664E-09 -1.49637E-09 -1.48609E-09 -1.47582E-09 -1.46555E-09
  -1.45527E-09 -1.44500E-09 -1.43473E-09 -1.42447E-09 -1.41423E-09 -1.40399E-09 -1.39376E-09 -1.38356E-09 -1.37336E-09 -1.36318E-09
  -1.35301E-09 -1.34286E-09 -1.33273E-09 -1.32262E-09 -1.31252E-09 -1.30245E-09 -1.29239E-09 -1.28236E-09 -1.27234E-09 -1.26235E-09
  -1.25238E-09 -1.24244E-09 -1.23251E-09 -1.22262E-09 -1.21275E-09 -1.20290E-09 -1.19309E-09 -1.18330E-09 -1.17354E-09 -1.16381E-09
  -1.15411E-09 -1.14444E-09 -1.13480E-09
 Asp      Conc. = 3.95E-10
  -2.53542E-12 -2.84192E-11 -5.98650E-11 -1.01343E-10 -1.45069E-10 -1.91905E-10 -2.25401E-10 -2.44214E-10 -2.44102E-10 -2.35992E-10
  -2.23721E-10 -2.08984E-10 -1.92743E-10 -1.75667E-10 -1.58325E-10 -1.40870E-10 -1.23343E-10 -1.05816E-10 -8.83496E-11 -7.09917E-11
  -5.37816E-11 -3.67471E-11 -1.99135E-11 -3.28972E-12  1.31179E-11  2.93051E-11  4.52886E-11  6.10915E-11  7.67510E-11  9.23374E-11
   1.07975E-10  1.23846E-10  1.40219E-10  1.57527E-10  1.76550E-10  1.98938E-10  2.28771E-10  2.63543E-10  3.05913E-10  3.49411E-10
   3.89919E-10  4.24503E-10  4.53325E-10  4.82440E-10  5.15580E-10  5.70346E-10  6.38364E-10  7.21439E-10  8.32092E-10  9.42961E-10
   1.02571E-09  1.05088E-09  1.01504E-09  9.32750E-10  8.33651E-10  7.51825E-10  6.93808E-10  6.62326E-10  6.16826E-10  5.69537E-10
   5.51368E-10  5.48164E-10  5.48385E-10  5.51530E-10  5.48517E-10  5.34051E-10  5.16094E-10  5.09416E-10  5.09097E-10  5.12747E-10
   5.19260E-10  5.28057E-10  5.38812E-10  5.51332E-10  5.65506E-10  5.81273E-10  5.98602E-10  6.17488E-10  6.37938E-10  6.59973E-10
   6.83621E-10  7.08919E-10  7.35904E-10  7.64622E-10  7.95115E-10  8.27378E-10  8.61343E-10  8.96941E-10  9.34107E-10  9.72773E-10
   1.01288E-09  1.05435E-09  1.09713E-09  1.14116E-09  1.18636E-09  1.23269E-09  1.28007E-09  1.32845E-09  1.37777E-09  1.42796E-09
   1.47895E-09  1.53070E-09  1.58314E-09  1.63620E-09  1.68984E-09  1.74398E-09  1.79857E-09  1.85354E-09  1.90884E-09  1.96441E-09
   2.02019E-09  2.07611E-09  2.13211E-09  2.18811E-09  2.24400E-09  2.29966E-09  2.35500E-09  2.40991E-09  2.46427E-09  2.51798E-09
   2.57094E-09  2.62302E-09  2.67414E-09  2.72417E-09  2.77301E-09  2.82056E-09  2.86670E-09  2.91133E-09  2.95435E-09  2.99563E-09
   3.03508E-09  3.07259E-09  3.10805E-09  3.14136E-09  3.17240E-09  3.20107E-09  3.22726E-09  3.25086E-09  3.27178E-09  3.28989E-09
   3.30509E-09  3.31721E-09  3.32606E-09  3.33143E-09  3.33313E-09  3.33097E-09  3.32475E-09  3.31429E-09  3.29937E-09  3.27982E-09
   3.25544E-09  3.22603E-09  3.19142E-09  3.15141E-09  3.10583E-09  3.05448E-09  2.99721E-09  2.93385E-09  2.86425E-09  2.78828E-09
   2.70586E-09  2.61697E-09  2.52174E-09  2.42051E-09  2.31437E-09  2.20645E-09  2.10981E-09  2.06954E-09  2.05825E-09  2.06236E-09
   2.07622E-09  2.08201E-09  2.04477E-09  1.92061E-09  1.68027E-09  1.32799E-09  9.00518E-10  4.58468E-10  7.84082E-11 -1.78686E-10
  -4.02895E-10 -6.17613E-10 -8.28239E-10 -1.03636E-09 -1.24236E-09 -1.44619E-09 -1.64754E-09 -1.84603E-09 -2.04117E-09 -2.23247E-09
  -2.41941E-09 -2.60145E-09 -2.77804E-09 -2.94862E-09 -3.11262E-09 -3.26950E-09 -3.41882E-09 -3.56056E-09 -3.69481E-09 -3.82166E-09
  -3.94117E-09 -4.05342E-09 -4.15850E-09 -4.25647E-09 -4.34741E-09 -4.43139E-09 -4.50851E-09 -4.57881E-09 -4.64239E-09 -4.69931E-09
  -4.74965E-09 -4.79349E-09 -4.83089E-09 -4.86194E-09 -4.88670E-09 -4.90526E-09 -4.91769E-09 -4.92405E-09 -4.92442E-09 -4.91889E-09
  -4.90751E-09 -4.89037E-09 -4.86754E-09 -4.83909E-09 -4.80518E-09 -4.76609E-09 -4.72212E-09 -4.67360E-09 -4.62082E-09 -4.56410E-09
