 LCModel (Version 6.3-1R) Copyright: S.W. Provencher.          Ref.: Magn. Reson. Med. 30:672-679 (1993).                
 onepulse 20x13_ftSpec_smooth_lcm
 26 lines in following concentration table = NCONC+1
    Conc.  %SD /Cr+PCr  Metabolite                                         
    0.000 999%   0.000 Ala                                                 
    0.000 999%   0.000 Asp                                                 
 3.49E-10  46%   1.000 Cr                                                  
    0.000 999%   0.000 GABA                                                
    0.000 999%   0.000 Glc                                                 
 3.01E-09  12%   8.624 Gln                                                 
    0.000 999%   0.000 Glu                                                 
 1.17E-09  19%   3.363 Glyc                                                
 2.95E-10  18%   0.845 GPC                                                 
    0.000 999%   0.000 GSH                                                 
    0.000 999%   0.000 Ins                                                 
    0.000 999%   0.000 Lac                                                 
 4.48E-11 472%   0.128 NAAG                                                
 3.61E-10  73%   1.035 NAA                                                 
    0.000 999%   0.000 PCh                                                 
    0.000 999%   0.000 PCr                                                 
    0.000 999%   0.000 PE                                                  
 3.31E-10  22%   0.950 Scyllo                                              
 1.81E-09  21%   5.199 Ser                                                 
    0.000 999%   0.000 Tau                                                 
 2.95E-10  18%   0.845 GPC+PCh                                             
 4.06E-10  40%   1.163 NAA+NAAG                                            
 1.17E-09  19%   3.363 Ins+Glyc                                            
 3.49E-10  46%   1.000 Cr+PCr                                              
 3.01E-09  12%   8.624 Glu+Gln                                             
   6 lines in following misc. output table
  FWHM = 0.078 ppm    S/N =   4                                            
  Data shift = 0.347 ppm                                                   
  Ph: -45 deg     -23.6 deg/ppm                                            
  alphaB,S = 1.8E-01,   4.7E+01                                            
   16 spline knots.   Ns = 5(1)                                            
  ( 7) 2 infls.   ( 3) 1 extrs.                                            
  363 points on ppm-axis = NY
      4.250000     4.238821     4.227641     4.216462     4.205282     4.194103     4.182923     4.171744     4.160564     4.149385
      4.138206     4.127026     4.115847     4.104667     4.093488     4.082308     4.071129     4.059949     4.048770     4.037591
      4.026411     4.015232     4.004052     3.992873     3.981693     3.970514     3.959334     3.948155     3.936975     3.925796
      3.914617     3.903437     3.892258     3.881078     3.869899     3.858719     3.847540     3.836360     3.825181     3.814002
      3.802822     3.791643     3.780463     3.769284     3.758104     3.746925     3.735745     3.724566     3.713387     3.702207
      3.691028     3.679848     3.668669     3.657489     3.646310     3.635130     3.623951     3.612772     3.601592     3.590413
      3.579233     3.568054     3.556874     3.545695     3.534515     3.523336     3.512156     3.500977     3.489798     3.478618
      3.467439     3.456259     3.445080     3.433900     3.422721     3.411541     3.400362     3.389183     3.378003     3.366824
      3.355644     3.344465     3.333285     3.322106     3.310926     3.299747     3.288568     3.277388     3.266209     3.255029
      3.243850     3.232670     3.221491     3.210311     3.199132     3.187953     3.176773     3.165594     3.154414     3.143235
      3.132055     3.120876     3.109696     3.098517     3.087337     3.076158     3.064979     3.053799     3.042620     3.031440
      3.020261     3.009081     2.997902     2.986722     2.975543     2.964364     2.953184     2.942005     2.930825     2.919646
      2.908466     2.897287     2.886107     2.874928     2.863749     2.852569     2.841390     2.830210     2.819031     2.807851
      2.796672     2.785492     2.774313     2.763134     2.751954     2.740775     2.729595     2.718416     2.707236     2.696057
      2.684877     2.673698     2.662519     2.651339     2.640160     2.628980     2.617801     2.606621     2.595442     2.584262
      2.573083     2.561903     2.550724     2.539545     2.528365     2.517186     2.506006     2.494827     2.483647     2.472468
      2.461288     2.450109     2.438930     2.427750     2.416571     2.405391     2.394212     2.383032     2.371853     2.360673
      2.349494     2.338315     2.327135     2.315956     2.304776     2.293597     2.282417     2.271238     2.260058     2.248879
      2.237700     2.226520     2.215341     2.204161     2.192982     2.181802     2.170623     2.159443     2.148264     2.137084
      2.125905     2.114726     2.103546     2.092367     2.081187     2.070008     2.058828     2.047649     2.036469     2.025290
      2.014111     2.002931     1.991752     1.980572     1.969393     1.958213     1.947034     1.935854     1.924675     1.913496
      1.902316     1.891137     1.879957     1.868778     1.857598     1.846419     1.835239     1.824060     1.812881     1.801701
      1.790522     1.779342     1.768163     1.756983     1.745804     1.734624     1.723445     1.712265     1.701086     1.689907
      1.678727     1.667548     1.656368     1.645189     1.634009     1.622830     1.611650     1.600471     1.589292     1.578112
      1.566933     1.555753     1.544574     1.533394     1.522215     1.511035     1.499856     1.488677     1.477497     1.466318
      1.455138     1.443959     1.432779     1.421600     1.410420     1.399241     1.388062     1.376882     1.365703     1.354523
      1.343344     1.332164     1.320985     1.309805     1.298626     1.287446     1.276267     1.265088     1.253908     1.242729
      1.231549     1.220370     1.209190     1.198011     1.186831     1.175652     1.164473     1.153293     1.142114     1.130934
      1.119755     1.108575     1.097396     1.086216     1.075037     1.063858     1.052678     1.041499     1.030319     1.019140
      1.007960     0.996781     0.985601     0.974422     0.963243     0.952063     0.940884     0.929704     0.918525     0.907345
      0.896166     0.884986     0.873807     0.862628     0.851448     0.840269     0.829089     0.817910     0.806730     0.795551
      0.784371     0.773192     0.762012     0.750833     0.739654     0.728474     0.717295     0.706115     0.694936     0.683756
      0.672577     0.661397     0.650218     0.639039     0.627859     0.616680     0.605500     0.594321     0.583141     0.571962
      0.560782     0.549603     0.538424     0.527244     0.516065     0.504885     0.493706     0.482526     0.471347     0.460167
      0.448988     0.437809     0.426629     0.415450     0.404270     0.393091     0.381911     0.370732     0.359552     0.348373
      0.337193     0.326014     0.314835     0.303655     0.292476     0.281296     0.270117     0.258937     0.247758     0.236578
      0.225399     0.214220     0.203040
 NY phased data points follow
   1.75256E-08  1.60504E-08  1.30327E-08  1.10295E-08  9.60218E-09  9.52175E-09  9.05254E-09  9.14973E-09  8.89862E-09  9.93778E-09
   9.64636E-09  1.01142E-08  1.02491E-08  1.01982E-08  1.03606E-08  1.08822E-08  9.72186E-09  8.84400E-09  8.44761E-09  8.65020E-09
   7.80106E-09  8.07367E-09  7.91698E-09  8.70505E-09  8.54506E-09  8.93335E-09  8.77652E-09  8.50169E-09  7.26040E-09  8.23773E-09
   8.63989E-09  1.01899E-08  1.06855E-08  9.80758E-09  8.34365E-09  6.58219E-09  4.83456E-09  4.06917E-09  3.87657E-09  4.13367E-09
   3.92610E-09  3.82592E-09  3.77508E-09  4.23007E-09  3.42574E-09  3.10475E-09  2.52684E-09  2.95127E-09  3.31094E-09  4.16916E-09
   4.27426E-09  3.99673E-09  3.96565E-09  5.03474E-09  3.79689E-09  3.63121E-09  3.61577E-09  4.74994E-09  5.07104E-09  6.26810E-09
   7.44126E-09  8.96019E-09  1.06634E-08  1.29978E-08  1.31475E-08  1.13688E-08  7.92120E-09  5.66042E-09  4.20062E-09  3.51643E-09
   3.35312E-09  3.21485E-09  2.82045E-09  2.57884E-09  3.02926E-09  3.97758E-09  4.15428E-09  6.35079E-09  7.82595E-09  1.06696E-08
   1.38062E-08  1.41299E-08  1.07994E-08  8.72819E-09  6.78586E-09  5.91127E-09  5.66909E-09  5.51955E-09  4.42459E-09  4.27372E-09
   3.93156E-09  3.39234E-09  2.90948E-09  3.05233E-09  2.13751E-09  1.78741E-09  2.05513E-09  1.65812E-09  1.60270E-09  1.73600E-09
   1.32513E-09  1.48145E-09  2.66066E-09  2.20934E-09  2.11337E-09  1.58240E-09  2.19738E-09  1.31947E-09  1.52230E-09  1.23009E-09
   2.19952E-10  7.08987E-10  2.47008E-10  1.66393E-09  1.72479E-09  2.35462E-09  1.72639E-09  2.82160E-09  2.90385E-09  2.47054E-09
   2.56011E-09  2.45985E-09  2.28780E-09  1.27867E-09  8.52002E-10  1.10449E-09  1.13510E-09  7.07015E-10  6.67739E-10  2.07942E-09
   1.50473E-09  1.97603E-09  1.98989E-09  1.84279E-09  2.53802E-09  2.25500E-09  1.80213E-09  2.15863E-09  2.03114E-09  3.03018E-09
   4.13925E-09  4.71681E-09  4.28142E-09  3.77611E-09  3.77077E-09  3.71483E-09  4.55297E-09  3.97410E-09  5.11054E-09  3.55906E-09
   3.60427E-09  3.19782E-09  3.24076E-09  2.96476E-09  2.67631E-09  3.03052E-09  2.90844E-09  3.04561E-09  3.35321E-09  2.96542E-09
   3.20367E-09  3.38783E-09  3.77269E-09  3.96414E-09  3.52663E-09  3.92060E-09  4.35928E-09  4.47533E-09  6.20750E-09  7.02461E-09
   9.30764E-09  1.42551E-08  1.68451E-08  1.67696E-08  1.35965E-08  1.15866E-08  1.00786E-08  8.80002E-09  7.05670E-09  6.11555E-09
   5.62273E-09  4.91172E-09  4.18926E-09  3.66460E-09  2.79158E-09  2.02473E-09  1.56116E-09  1.17684E-09 -4.04315E-11 -1.33332E-09
  -1.25104E-09 -2.07218E-09 -3.01265E-09 -3.52385E-09 -5.28164E-09 -6.56252E-09 -6.87917E-09 -7.24421E-09 -8.81285E-09 -9.22717E-09
  -9.40700E-09 -9.98446E-09 -9.63279E-09 -9.72241E-09 -9.24467E-09 -8.58171E-09 -7.85535E-09 -7.28856E-09 -6.51348E-09 -5.24435E-09
  -3.54268E-09 -3.67704E-09 -2.66703E-09 -1.79307E-09 -1.91035E-09 -1.39094E-09 -1.29695E-09 -9.08742E-10 -1.26084E-09 -1.32479E-09
  -1.81569E-09 -1.95455E-09 -1.27009E-09 -1.05648E-09 -8.95480E-10 -4.55215E-10 -7.14016E-10 -1.27470E-09 -9.34149E-10 -6.56387E-10
  -8.45916E-10 -9.76274E-10 -1.13681E-09 -8.34285E-10 -1.20146E-09 -1.04407E-09 -9.50251E-10 -2.18832E-10 -7.53319E-10 -5.12249E-10
  -9.45217E-10 -5.93319E-10 -3.77275E-10 -7.48974E-10 -1.24072E-09 -6.36334E-10 -6.85559E-10 -1.63274E-09 -6.67916E-10 -5.63225E-10
  -8.06353E-10 -4.13250E-10 -2.54830E-10  1.71673E-10  5.37419E-10  1.15497E-10  4.79486E-10 -1.80148E-10 -1.33057E-10 -6.89098E-10
  -4.31542E-10 -1.21648E-09 -7.72075E-10 -1.59248E-09 -1.29469E-09 -1.66113E-09 -1.17235E-09 -1.45869E-09 -1.45407E-09 -1.04246E-09
  -6.52301E-10  1.07826E-10 -7.89198E-11  6.47004E-10  1.71436E-10  7.94297E-10  2.82812E-10  1.02760E-09  6.61864E-10  4.32195E-10
   3.00796E-10  5.43956E-10  1.51492E-10  2.05500E-10 -3.51501E-10 -1.80272E-10 -1.14501E-10 -4.21159E-10 -9.03732E-10 -4.29167E-10
  -3.61236E-11 -8.86322E-10 -7.67695E-10 -9.02478E-10 -4.47234E-10 -6.62180E-10 -8.68003E-10 -6.53733E-10 -8.05078E-10 -9.73076E-10
  -1.08439E-09 -7.03697E-10 -1.12798E-09 -7.95635E-10 -8.66294E-10 -1.10406E-09 -8.60349E-10 -1.05360E-09 -6.71396E-10 -1.14830E-09
  -9.24393E-10 -1.86636E-10 -1.41583E-09 -9.52543E-10 -5.73269E-10 -1.80833E-09 -1.22214E-09 -6.00573E-10 -8.24980E-10 -1.10345E-09
  -9.02831E-10 -8.51871E-10 -7.51158E-10 -6.22713E-10 -1.46924E-09 -1.31310E-09 -5.88411E-10 -1.14652E-09 -3.16016E-10 -8.61163E-10
  -8.92313E-10 -5.62102E-10 -1.16712E-09 -6.50930E-10 -8.48570E-10 -1.00819E-09 -8.50230E-10 -7.40101E-10 -9.02528E-10 -1.60593E-09
  -2.28123E-10 -9.82077E-10 -9.01302E-10 -1.32983E-09 -3.69173E-10 -4.92925E-10 -1.22787E-09 -8.98045E-10 -9.70275E-10 -7.27339E-10
  -9.52438E-10 -1.00792E-09 -1.19438E-09 -5.10622E-10 -7.54920E-10 -1.04008E-09 -6.76980E-10 -9.35843E-10 -9.05256E-10 -2.41085E-10
  -1.27330E-10 -7.98422E-10 -6.20215E-10
 NY points of the fit to the data follow
   1.48509E-08  1.38412E-08  1.26219E-08  1.18813E-08  1.16214E-08  1.12166E-08  1.06297E-08  1.00846E-08  9.74572E-09  9.78760E-09
   9.85119E-09  9.86727E-09  1.03471E-08  1.05396E-08  1.03588E-08  9.74905E-09  9.04123E-09  8.68146E-09  8.34988E-09  7.73319E-09
   7.26975E-09  7.74596E-09  8.12130E-09  8.20549E-09  8.46208E-09  8.85067E-09  9.26718E-09  9.43779E-09  9.27541E-09  9.41614E-09
   9.22300E-09  8.84983E-09  8.50074E-09  7.96126E-09  6.92384E-09  5.71706E-09  5.50032E-09  5.36199E-09  5.12371E-09  4.85182E-09
   4.52833E-09  4.03313E-09  3.41073E-09  3.10046E-09  3.04563E-09  3.05367E-09  3.08373E-09  3.12002E-09  3.16209E-09  3.20839E-09
   3.27657E-09  3.37659E-09  3.52357E-09  3.71839E-09  4.01398E-09  4.50754E-09  5.12103E-09  5.83531E-09  6.80420E-09  7.78717E-09
   8.58003E-09  9.22028E-09  9.66358E-09  9.74209E-09  9.32758E-09  8.43207E-09  7.39910E-09  6.58017E-09  5.54187E-09  4.35244E-09
   3.84040E-09  3.70855E-09  3.64855E-09  3.86086E-09  4.32592E-09  5.09329E-09  5.99333E-09  7.04667E-09  8.12678E-09  9.14864E-09
   1.00427E-08  1.05647E-08  1.04036E-08  9.78867E-09  9.04943E-09  7.96351E-09  6.60956E-09  5.41947E-09  4.19752E-09  3.49013E-09
   3.11759E-09  2.88344E-09  2.72137E-09  2.60341E-09  2.51108E-09  2.43774E-09  2.38031E-09  2.33436E-09  2.29634E-09  2.26485E-09
   2.24051E-09  2.22128E-09  2.20540E-09  2.19286E-09  2.18381E-09  2.17787E-09  2.17442E-09  2.17318E-09  2.17394E-09  2.17654E-09
   2.18086E-09  2.18679E-09  2.19422E-09  2.20299E-09  2.21292E-09  2.22382E-09  2.23551E-09  2.24782E-09  2.26059E-09  2.27365E-09
   2.28687E-09  2.30008E-09  2.31315E-09  2.32592E-09  2.33827E-09  2.35005E-09  2.36112E-09  2.37136E-09  2.38063E-09  2.38880E-09
   2.39574E-09  2.40132E-09  2.40543E-09  2.40793E-09  2.40870E-09  2.40762E-09  2.40458E-09  2.39945E-09  2.39211E-09  2.38246E-09
   2.37038E-09  2.35584E-09  2.33882E-09  2.31930E-09  2.29729E-09  2.27277E-09  2.24575E-09  2.21625E-09  2.18429E-09  2.14991E-09
   2.11317E-09  2.07414E-09  2.03295E-09  1.98974E-09  1.94472E-09  1.89818E-09  1.85052E-09  1.80231E-09  1.75436E-09  1.70786E-09
   1.66464E-09  1.62762E-09  1.60172E-09  1.59597E-09  1.62912E-09  1.74889E-09  2.13003E-09  3.32666E-09  5.42278E-09  8.03022E-09
   1.11162E-08  1.42063E-08  1.63277E-08  1.67887E-08  1.58171E-08  1.41711E-08  1.19885E-08  8.63285E-09  4.31028E-09  1.36443E-09
   4.38903E-10 -1.94075E-11 -3.20115E-10 -5.48968E-10 -7.38625E-10 -9.04099E-10 -1.05313E-09 -1.19004E-09 -1.31732E-09 -1.43652E-09
  -1.54852E-09 -1.65388E-09 -1.75287E-09 -1.84561E-09 -1.93211E-09 -2.01232E-09 -2.08618E-09 -2.15392E-09 -2.21577E-09 -2.27197E-09
  -2.32271E-09 -2.36818E-09 -2.40855E-09 -2.44399E-09 -2.47466E-09 -2.50072E-09 -2.52230E-09 -2.53957E-09 -2.55265E-09 -2.56168E-09
  -2.56681E-09 -2.56817E-09 -2.56589E-09 -2.56010E-09 -2.55093E-09 -2.53852E-09 -2.52299E-09 -2.50447E-09 -2.48309E-09 -2.45897E-09
  -2.43224E-09 -2.40302E-09 -2.37145E-09 -2.33765E-09 -2.30174E-09 -2.26386E-09 -2.22415E-09 -2.18274E-09 -2.13977E-09 -2.09537E-09
  -2.04968E-09 -2.00283E-09 -1.95495E-09 -1.90619E-09 -1.85667E-09 -1.80654E-09 -1.75591E-09 -1.70494E-09 -1.65374E-09 -1.60248E-09
  -1.55126E-09 -1.50022E-09 -1.44951E-09 -1.39925E-09 -1.34957E-09 -1.30062E-09 -1.25252E-09 -1.20540E-09 -1.15942E-09 -1.11469E-09
  -1.07134E-09 -1.02953E-09 -9.89311E-10 -9.50669E-10 -9.13594E-10 -8.78074E-10 -8.44082E-10 -8.11611E-10 -7.80636E-10 -7.51146E-10
  -7.23124E-10 -6.96548E-10 -6.71408E-10 -6.47682E-10 -6.25358E-10 -6.04416E-10 -5.84830E-10 -5.66605E-10 -5.49712E-10 -5.34130E-10
  -5.19843E-10 -5.06844E-10 -4.95104E-10 -4.84611E-10 -4.75357E-10 -4.67305E-10 -4.60461E-10 -4.54793E-10 -4.50292E-10 -4.46932E-10
  -4.44687E-10 -4.43510E-10 -4.43352E-10 -4.44164E-10 -4.45906E-10 -4.48524E-10 -4.51978E-10 -4.56214E-10 -4.61188E-10 -4.66856E-10
  -4.73167E-10 -4.80077E-10 -4.87536E-10 -4.95499E-10 -5.03920E-10 -5.12750E-10 -5.21943E-10 -5.31451E-10 -5.41232E-10 -5.51230E-10
  -5.61408E-10 -5.71711E-10 -5.82095E-10 -5.92518E-10 -6.02926E-10 -6.13274E-10 -6.23518E-10 -6.33608E-10 -6.43529E-10 -6.53274E-10
  -6.62838E-10 -6.72217E-10 -6.81407E-10 -6.90400E-10 -6.99195E-10 -7.07786E-10 -7.16167E-10 -7.24334E-10 -7.32283E-10 -7.40007E-10
  -7.47505E-10 -7.54768E-10 -7.61793E-10 -7.68578E-10 -7.75113E-10 -7.81398E-10 -7.87426E-10 -7.93191E-10 -7.98690E-10 -8.03920E-10
  -8.08872E-10 -8.13543E-10 -8.17929E-10 -8.22025E-10 -8.25827E-10 -8.29329E-10 -8.32541E-10 -8.35475E-10 -8.38142E-10 -8.40554E-10
  -8.42724E-10 -8.44662E-10 -8.46381E-10 -8.47892E-10 -8.49211E-10 -8.50343E-10 -8.51308E-10 -8.52112E-10 -8.52769E-10 -8.53290E-10
  -8.53686E-10 -8.53972E-10 -8.54157E-10 -8.54255E-10 -8.54277E-10 -8.54235E-10 -8.54141E-10 -8.54004E-10 -8.53840E-10 -8.53661E-10
  -8.53478E-10 -8.53303E-10 -8.53144E-10
 NY background values follow
     2.280E-09    2.265E-09    2.251E-09    2.236E-09    2.221E-09    2.207E-09    2.192E-09    2.178E-09    2.164E-09    2.150E-09
     2.135E-09    2.121E-09    2.107E-09    2.093E-09    2.079E-09    2.065E-09    2.052E-09    2.038E-09    2.024E-09    2.010E-09
     1.996E-09    1.982E-09    1.968E-09    1.955E-09    1.941E-09    1.927E-09    1.913E-09    1.899E-09    1.885E-09    1.870E-09
     1.856E-09    1.842E-09    1.828E-09    1.814E-09    1.799E-09    1.785E-09    1.771E-09    1.756E-09    1.742E-09    1.728E-09
     1.714E-09    1.699E-09    1.685E-09    1.671E-09    1.657E-09    1.643E-09    1.629E-09    1.615E-09    1.601E-09    1.588E-09
     1.574E-09    1.561E-09    1.547E-09    1.534E-09    1.521E-09    1.508E-09    1.495E-09    1.482E-09    1.469E-09    1.457E-09
     1.445E-09    1.433E-09    1.421E-09    1.409E-09    1.398E-09    1.387E-09    1.376E-09    1.366E-09    1.356E-09    1.346E-09
     1.337E-09    1.328E-09    1.319E-09    1.311E-09    1.303E-09    1.295E-09    1.288E-09    1.282E-09    1.276E-09    1.270E-09
     1.265E-09    1.261E-09    1.257E-09    1.253E-09    1.251E-09    1.248E-09    1.247E-09    1.246E-09    1.245E-09    1.245E-09
     1.246E-09    1.247E-09    1.249E-09    1.252E-09    1.255E-09    1.259E-09    1.264E-09    1.269E-09    1.275E-09    1.281E-09
     1.288E-09    1.296E-09    1.305E-09    1.314E-09    1.324E-09    1.334E-09    1.346E-09    1.358E-09    1.370E-09    1.384E-09
     1.398E-09    1.413E-09    1.428E-09    1.445E-09    1.461E-09    1.479E-09    1.496E-09    1.514E-09    1.531E-09    1.549E-09
     1.567E-09    1.584E-09    1.600E-09    1.616E-09    1.632E-09    1.647E-09    1.660E-09    1.673E-09    1.684E-09    1.695E-09
     1.703E-09    1.711E-09    1.716E-09    1.720E-09    1.722E-09    1.722E-09    1.720E-09    1.715E-09    1.709E-09    1.699E-09
     1.687E-09    1.672E-09    1.655E-09    1.635E-09    1.612E-09    1.586E-09    1.558E-09    1.526E-09    1.492E-09    1.455E-09
     1.414E-09    1.371E-09    1.325E-09    1.275E-09    1.223E-09    1.167E-09    1.109E-09    1.047E-09    9.813E-10    9.128E-10
     8.410E-10    7.659E-10    6.874E-10    6.055E-10    5.201E-10    4.314E-10    3.391E-10    2.433E-10    1.439E-10    4.136E-11
    -6.416E-11   -1.723E-10   -2.827E-10   -3.951E-10   -5.091E-10   -6.244E-10   -7.407E-10   -8.577E-10   -9.749E-10   -1.092E-09
    -1.209E-09   -1.326E-09   -1.441E-09   -1.555E-09   -1.667E-09   -1.778E-09   -1.886E-09   -1.992E-09   -2.094E-09   -2.194E-09
    -2.290E-09   -2.381E-09   -2.469E-09   -2.552E-09   -2.631E-09   -2.704E-09   -2.771E-09   -2.834E-09   -2.891E-09   -2.942E-09
    -2.989E-09   -3.031E-09   -3.068E-09   -3.101E-09   -3.129E-09   -3.153E-09   -3.172E-09   -3.187E-09   -3.198E-09   -3.206E-09
    -3.209E-09   -3.209E-09   -3.205E-09   -3.198E-09   -3.188E-09   -3.174E-09   -3.157E-09   -3.138E-09   -3.115E-09   -3.090E-09
    -3.063E-09   -3.033E-09   -3.000E-09   -2.966E-09   -2.929E-09   -2.890E-09   -2.850E-09   -2.808E-09   -2.764E-09   -2.719E-09
    -2.673E-09   -2.625E-09   -2.577E-09   -2.528E-09   -2.478E-09   -2.427E-09   -2.376E-09   -2.324E-09   -2.273E-09   -2.221E-09
    -2.169E-09   -2.118E-09   -2.067E-09   -2.016E-09   -1.966E-09   -1.916E-09   -1.868E-09   -1.820E-09   -1.774E-09   -1.729E-09
    -1.685E-09   -1.643E-09   -1.602E-09   -1.563E-09   -1.526E-09   -1.490E-09   -1.456E-09   -1.423E-09   -1.392E-09   -1.362E-09
    -1.334E-09   -1.307E-09   -1.281E-09   -1.257E-09   -1.235E-09   -1.213E-09   -1.193E-09   -1.175E-09   -1.158E-09   -1.142E-09
    -1.127E-09   -1.114E-09   -1.102E-09   -1.091E-09   -1.082E-09   -1.073E-09   -1.066E-09   -1.060E-09   -1.055E-09   -1.052E-09
    -1.049E-09   -1.048E-09   -1.047E-09   -1.048E-09   -1.049E-09   -1.052E-09   -1.055E-09   -1.059E-09   -1.064E-09   -1.069E-09
    -1.075E-09   -1.082E-09   -1.089E-09   -1.097E-09   -1.105E-09   -1.113E-09   -1.122E-09   -1.132E-09   -1.141E-09   -1.151E-09
    -1.161E-09   -1.171E-09   -1.181E-09   -1.191E-09   -1.201E-09   -1.211E-09   -1.221E-09   -1.231E-09   -1.241E-09   -1.250E-09
    -1.260E-09   -1.269E-09   -1.278E-09   -1.287E-09   -1.295E-09   -1.303E-09   -1.312E-09   -1.319E-09   -1.327E-09   -1.335E-09
    -1.342E-09   -1.349E-09   -1.356E-09   -1.362E-09   -1.368E-09   -1.374E-09   -1.380E-09   -1.386E-09   -1.391E-09   -1.396E-09
    -1.401E-09   -1.405E-09   -1.409E-09   -1.413E-09   -1.417E-09   -1.420E-09   -1.423E-09   -1.425E-09   -1.428E-09   -1.430E-09
    -1.432E-09   -1.434E-09   -1.435E-09   -1.436E-09   -1.437E-09   -1.438E-09   -1.439E-09   -1.439E-09   -1.440E-09   -1.440E-09
    -1.440E-09   -1.440E-09   -1.440E-09   -1.440E-09   -1.439E-09   -1.439E-09   -1.439E-09   -1.438E-09   -1.438E-09   -1.437E-09
    -1.437E-09   -1.436E-09   -1.436E-09
 Cr       Conc. = 3.49E-10
   3.57530E-09  3.30850E-09  2.89728E-09  2.49870E-09  2.38138E-09  2.32652E-09  2.29111E-09  2.26416E-09  2.24166E-09  2.22179E-09
   2.20363E-09  2.18665E-09  2.17054E-09  2.15509E-09  2.14017E-09  2.12571E-09  2.11164E-09  2.09796E-09  2.08465E-09  2.07172E-09
   2.05922E-09  2.04721E-09  2.03581E-09  2.02520E-09  2.01562E-09  2.00752E-09  2.00163E-09  1.99924E-09  2.00305E-09  2.01955E-09
   2.07025E-09  2.26215E-09  2.56524E-09  2.93954E-09  3.38593E-09  3.82282E-09  4.10237E-09  4.13333E-09  3.97139E-09  3.73532E-09
   3.42352E-09  2.92256E-09  2.27571E-09  1.92487E-09  1.81458E-09  1.75847E-09  1.72156E-09  1.69351E-09  1.67024E-09  1.64985E-09
   1.63134E-09  1.61410E-09  1.59780E-09  1.58222E-09  1.56721E-09  1.55265E-09  1.53848E-09  1.52467E-09  1.51117E-09  1.49799E-09
   1.48510E-09  1.47252E-09  1.46023E-09  1.44824E-09  1.43656E-09  1.42520E-09  1.41416E-09  1.40346E-09  1.39310E-09  1.38311E-09
   1.37349E-09  1.36425E-09  1.35542E-09  1.34700E-09  1.33900E-09  1.33145E-09  1.32436E-09  1.31774E-09  1.31160E-09  1.30597E-09
   1.30085E-09  1.29627E-09  1.29222E-09  1.28875E-09  1.28585E-09  1.28354E-09  1.28182E-09  1.28071E-09  1.28019E-09  1.28029E-09
   1.28100E-09  1.28233E-09  1.28429E-09  1.28687E-09  1.29009E-09  1.29395E-09  1.29846E-09  1.30361E-09  1.30943E-09  1.31591E-09
   1.32305E-09  1.33086E-09  1.33936E-09  1.34854E-09  1.35840E-09  1.36896E-09  1.38022E-09  1.39219E-09  1.40486E-09  1.41825E-09
   1.43236E-09  1.44720E-09  1.46276E-09  1.47899E-09  1.49575E-09  1.51292E-09  1.53040E-09  1.54804E-09  1.56573E-09  1.58336E-09
   1.60079E-09  1.61790E-09  1.63458E-09  1.65070E-09  1.66615E-09  1.68079E-09  1.69450E-09  1.70718E-09  1.71869E-09  1.72891E-09
   1.73772E-09  1.74500E-09  1.75063E-09  1.75448E-09  1.75644E-09  1.75639E-09  1.75419E-09  1.74974E-09  1.74290E-09  1.73357E-09
   1.72161E-09  1.70698E-09  1.68965E-09  1.66958E-09  1.64673E-09  1.62109E-09  1.59262E-09  1.56128E-09  1.52706E-09  1.48991E-09
   1.44981E-09  1.40674E-09  1.36067E-09  1.31158E-09  1.25944E-09  1.20424E-09  1.14598E-09  1.08464E-09  1.02025E-09  9.52853E-10
   8.82515E-10  8.09395E-10  7.33795E-10  6.56320E-10  5.78441E-10  5.04599E-10  4.55763E-10  4.56592E-10  4.78114E-10  5.21809E-10
   5.76452E-10  5.97548E-10  5.40748E-10  4.02684E-10  2.22033E-10  2.24848E-11 -2.24648E-10 -5.40747E-10 -8.35863E-10 -1.00067E-09
  -1.13694E-09 -1.26353E-09 -1.38518E-09 -1.50346E-09 -1.61889E-09 -1.73159E-09 -1.84151E-09 -1.94846E-09 -2.05222E-09 -2.15253E-09
  -2.24911E-09 -2.34167E-09 -2.42992E-09 -2.51352E-09 -2.59219E-09 -2.66560E-09 -2.73353E-09 -2.79605E-09 -2.85329E-09 -2.90537E-09
  -2.95242E-09 -2.99456E-09 -3.03193E-09 -3.06463E-09 -3.09281E-09 -3.11657E-09 -3.13605E-09 -3.15137E-09 -3.16265E-09 -3.17002E-09
  -3.17359E-09 -3.17350E-09 -3.16985E-09 -3.16278E-09 -3.15241E-09 -3.13887E-09 -3.12226E-09 -3.10273E-09 -3.08038E-09 -3.05534E-09
  -3.02774E-09 -2.99769E-09 -2.96533E-09 -2.93076E-09 -2.89413E-09 -2.85555E-09 -2.81517E-09 -2.77311E-09 -2.72951E-09 -2.68451E-09
  -2.63824E-09 -2.59083E-09 -2.54241E-09 -2.49312E-09 -2.44309E-09 -2.39246E-09 -2.34136E-09 -2.28992E-09 -2.23826E-09 -2.18655E-09
  -2.13489E-09 -2.08343E-09 -2.03230E-09 -1.98164E-09 -1.93156E-09 -1.88222E-09 -1.83374E-09 -1.78626E-09 -1.73990E-09 -1.69482E-09
  -1.65112E-09 -1.60896E-09 -1.56840E-09 -1.52942E-09 -1.49202E-09 -1.45617E-09 -1.42186E-09 -1.38907E-09 -1.35779E-09 -1.32799E-09
  -1.29966E-09 -1.27279E-09 -1.24735E-09 -1.22333E-09 -1.20071E-09 -1.17948E-09 -1.15961E-09 -1.14111E-09 -1.12394E-09 -1.10808E-09
  -1.09352E-09 -1.08024E-09 -1.06824E-09 -1.05748E-09 -1.04796E-09 -1.03964E-09 -1.03253E-09 -1.02661E-09 -1.02185E-09 -1.01823E-09
  -1.01573E-09 -1.01430E-09 -1.01389E-09 -1.01445E-09 -1.01594E-09 -1.01831E-09 -1.02151E-09 -1.02550E-09 -1.03023E-09 -1.03565E-09
  -1.04171E-09 -1.04838E-09 -1.05560E-09 -1.06331E-09 -1.07149E-09 -1.08008E-09 -1.08903E-09 -1.09830E-09 -1.10784E-09 -1.11760E-09
  -1.12753E-09 -1.13760E-09 -1.14774E-09 -1.15792E-09 -1.16809E-09 -1.17820E-09 -1.18821E-09 -1.19806E-09 -1.20774E-09 -1.21724E-09
  -1.22657E-09 -1.23571E-09 -1.24466E-09 -1.25341E-09 -1.26196E-09 -1.27031E-09 -1.27845E-09 -1.28638E-09 -1.29409E-09 -1.30157E-09
  -1.30882E-09 -1.31585E-09 -1.32263E-09 -1.32917E-09 -1.33546E-09 -1.34150E-09 -1.34728E-09 -1.35280E-09 -1.35805E-09 -1.36304E-09
  -1.36774E-09 -1.37216E-09 -1.37630E-09 -1.38015E-09 -1.38370E-09 -1.38695E-09 -1.38991E-09 -1.39259E-09 -1.39500E-09 -1.39716E-09
  -1.39907E-09 -1.40075E-09 -1.40221E-09 -1.40346E-09 -1.40452E-09 -1.40539E-09 -1.40610E-09 -1.40664E-09 -1.40703E-09 -1.40728E-09
  -1.40741E-09 -1.40743E-09 -1.40734E-09 -1.40717E-09 -1.40692E-09 -1.40660E-09 -1.40623E-09 -1.40582E-09 -1.40538E-09 -1.40492E-09
  -1.40446E-09 -1.40400E-09 -1.40356E-09
 Gln      Conc. = 3.01E-09
   4.18574E-09  4.75041E-09  5.36646E-09  6.00689E-09  6.55973E-09  6.91986E-09  6.99182E-09  6.76754E-09  6.34233E-09  5.83921E-09
   5.13064E-09  4.27135E-09  3.83945E-09  3.35228E-09  3.00953E-09  2.83556E-09  2.72835E-09  2.65342E-09  2.59677E-09  2.55168E-09
   2.51444E-09  2.48280E-09  2.45533E-09  2.43119E-09  2.41005E-09  2.39155E-09  2.37462E-09  2.35911E-09  2.34520E-09  2.33222E-09
   2.32015E-09  2.30899E-09  2.29878E-09  2.28955E-09  2.28134E-09  2.27422E-09  2.26828E-09  2.26363E-09  2.26041E-09  2.25876E-09
   2.25901E-09  2.26138E-09  2.26639E-09  2.27458E-09  2.28655E-09  2.30312E-09  2.32532E-09  2.35409E-09  2.39159E-09  2.44115E-09
   2.50580E-09  2.59237E-09  2.71321E-09  2.88966E-09  3.17144E-09  3.65655E-09  4.26008E-09  4.98154E-09  5.97225E-09  6.98889E-09
   7.80796E-09  8.48605E-09  8.95768E-09  9.05994E-09  8.63641E-09  7.73670E-09  6.71793E-09  5.92650E-09  4.90592E-09  3.72607E-09
   3.19604E-09  3.04885E-09  2.99055E-09  3.20424E-09  3.65084E-09  4.37232E-09  5.16232E-09  5.91095E-09  6.59195E-09  7.13270E-09
   7.48566E-09  7.54797E-09  7.16916E-09  6.61544E-09  6.11104E-09  5.32935E-09  4.41248E-09  3.88201E-09  3.36550E-09  2.88469E-09
   2.59406E-09  2.40143E-09  2.26528E-09  2.16511E-09  2.08702E-09  2.02491E-09  1.97597E-09  1.93682E-09  1.90514E-09  1.87996E-09
   1.85996E-09  1.84396E-09  1.83143E-09  1.82202E-09  1.81549E-09  1.81165E-09  1.80997E-09  1.81025E-09  1.81236E-09  1.81615E-09
   1.82152E-09  1.82838E-09  1.83663E-09  1.84613E-09  1.85671E-09  1.86818E-09  1.88037E-09  1.89313E-09  1.90628E-09  1.91968E-09
   1.93318E-09  1.94663E-09  1.95988E-09  1.97280E-09  1.98524E-09  1.99708E-09  2.00816E-09  2.01837E-09  2.02756E-09  2.03561E-09
   2.04237E-09  2.04774E-09  2.05157E-09  2.05374E-09  2.05413E-09  2.05260E-09  2.04903E-09  2.04331E-09  2.03530E-09  2.02488E-09
   2.01194E-09  1.99643E-09  1.97830E-09  1.95755E-09  1.93413E-09  1.90803E-09  1.87923E-09  1.84770E-09  1.81342E-09  1.77640E-09
   1.73663E-09  1.69410E-09  1.64884E-09  1.60088E-09  1.55026E-09  1.49706E-09  1.44138E-09  1.38341E-09  1.32338E-09  1.26167E-09
   1.19887E-09  1.13589E-09  1.07428E-09  1.01678E-09  9.68815E-10  9.42707E-10  9.74565E-10  1.22611E-09  1.94842E-09  2.87950E-09
   4.02692E-09  5.30896E-09  6.34787E-09  6.74405E-09  6.43773E-09  5.75371E-09  4.92155E-09  3.70879E-09  1.89160E-09  1.63603E-10
  -3.95476E-10 -6.88258E-10 -8.96618E-10 -1.06750E-09 -1.21792E-09 -1.35541E-09 -1.48368E-09 -1.60472E-09 -1.71957E-09 -1.82882E-09
  -1.93274E-09 -2.03143E-09 -2.12486E-09 -2.21289E-09 -2.29539E-09 -2.37215E-09 -2.44303E-09 -2.50815E-09 -2.56772E-09 -2.62189E-09
  -2.67083E-09 -2.71469E-09 -2.75361E-09 -2.78775E-09 -2.81725E-09 -2.84223E-09 -2.86283E-09 -2.87920E-09 -2.89146E-09 -2.89974E-09
  -2.90417E-09 -2.90487E-09 -2.90199E-09 -2.89564E-09 -2.88594E-09 -2.87304E-09 -2.85705E-09 -2.83809E-09 -2.81630E-09 -2.79179E-09
  -2.76470E-09 -2.73514E-09 -2.70323E-09 -2.66912E-09 -2.63291E-09 -2.59475E-09 -2.55476E-09 -2.51309E-09 -2.46986E-09 -2.42522E-09
