 LCModel (Version 6.3-1R) Copyright: S.W. Provencher.          Ref.: Magn. Reson. Med. 30:672-679 (1993).                
 onepulse 20x20_ftSpec_smooth_lcm
 26 lines in following concentration table = NCONC+1
    Conc.  %SD   /Cr    Metabolite                                         
 4.83E-11 374%   0.000 Ala                                                 
 4.40E-10  85%   0.000 Asp                                                 
    0.000 999%   0.000 Cr                                                  
 2.55E-09  14%   0.000 GABA                                                
 1.80E-09  17%   0.000 Glc                                                 
    0.000 999%   0.000 Gln                                                 
 3.44E-10 114%   0.000 Glu                                                 
    0.000 999%   0.000 Glyc                                                
    0.000 999%   0.000 GPC                                                 
 1.98E-10 101%   0.000 GSH                                                 
 3.13E-10  67%   0.000 Ins                                                 
    0.000 999%   0.000 Lac                                                 
    0.000 999%   0.000 NAAG                                                
 1.03E-09  16%   0.000 NAA                                                 
 9.07E-11  55%   0.000 PCh                                                 
    0.000 999%   0.000 PCr                                                 
    0.000 999%   0.000 PE                                                  
    0.000 999%   0.000 Scyllo                                              
    0.000 999%   0.000 Ser                                                 
    0.000 999%   0.000 Tau                                                 
 9.07E-11  55%   0.000 GPC+PCh                                             
 1.03E-09  16%   0.000 NAA+NAAG                                            
 3.13E-10  67%   0.000 Ins+Glyc                                            
    0.000 999%   0.000 Cr+PCr                                              
 3.44E-10 114%   0.000 Glu+Gln                                             
   6 lines in following misc. output table
  FWHM = 0.067 ppm    S/N =   4                                            
  Data shift = 0.324 ppm                                                   
  Ph:  38 deg      28.2 deg/ppm                                            
  alphaB,S = 1.6E-01,   7.6E+01                                            
   16 spline knots.   Ns = 5(1)                                            
  ( 7) 2 infls.   ( 3) 1 extrs.                                            
  363 points on ppm-axis = NY
      4.250000     4.238821     4.227641     4.216462     4.205282     4.194103     4.182923     4.171744     4.160564     4.149385
      4.138206     4.127026     4.115847     4.104667     4.093488     4.082308     4.071129     4.059949     4.048770     4.037591
      4.026411     4.015232     4.004052     3.992873     3.981693     3.970514     3.959334     3.948155     3.936975     3.925796
      3.914617     3.903437     3.892258     3.881078     3.869899     3.858719     3.847540     3.836360     3.825181     3.814002
      3.802822     3.791643     3.780463     3.769284     3.758104     3.746925     3.735745     3.724566     3.713387     3.702207
      3.691028     3.679848     3.668669     3.657489     3.646310     3.635130     3.623951     3.612772     3.601592     3.590413
      3.579233     3.568054     3.556874     3.545695     3.534515     3.523336     3.512156     3.500977     3.489798     3.478618
      3.467439     3.456259     3.445080     3.433900     3.422721     3.411541     3.400362     3.389183     3.378003     3.366824
      3.355644     3.344465     3.333285     3.322106     3.310926     3.299747     3.288568     3.277388     3.266209     3.255029
      3.243850     3.232670     3.221491     3.210311     3.199132     3.187953     3.176773     3.165594     3.154414     3.143235
      3.132055     3.120876     3.109696     3.098517     3.087337     3.076158     3.064979     3.053799     3.042620     3.031440
      3.020261     3.009081     2.997902     2.986722     2.975543     2.964364     2.953184     2.942005     2.930825     2.919646
      2.908466     2.897287     2.886107     2.874928     2.863749     2.852569     2.841390     2.830210     2.819031     2.807851
      2.796672     2.785492     2.774313     2.763134     2.751954     2.740775     2.729595     2.718416     2.707236     2.696057
      2.684877     2.673698     2.662519     2.651339     2.640160     2.628980     2.617801     2.606621     2.595442     2.584262
      2.573083     2.561903     2.550724     2.539545     2.528365     2.517186     2.506006     2.494827     2.483647     2.472468
      2.461288     2.450109     2.438930     2.427750     2.416571     2.405391     2.394212     2.383032     2.371853     2.360673
      2.349494     2.338315     2.327135     2.315956     2.304776     2.293597     2.282417     2.271238     2.260058     2.248879
      2.237700     2.226520     2.215341     2.204161     2.192982     2.181802     2.170623     2.159443     2.148264     2.137084
      2.125905     2.114726     2.103546     2.092367     2.081187     2.070008     2.058828     2.047649     2.036469     2.025290
      2.014111     2.002931     1.991752     1.980572     1.969393     1.958213     1.947034     1.935854     1.924675     1.913496
      1.902316     1.891137     1.879957     1.868778     1.857598     1.846419     1.835239     1.824060     1.812881     1.801701
      1.790522     1.779342     1.768163     1.756983     1.745804     1.734624     1.723445     1.712265     1.701086     1.689907
      1.678727     1.667548     1.656368     1.645189     1.634009     1.622830     1.611650     1.600471     1.589292     1.578112
      1.566933     1.555753     1.544574     1.533394     1.522215     1.511035     1.499856     1.488677     1.477497     1.466318
      1.455138     1.443959     1.432779     1.421600     1.410420     1.399241     1.388062     1.376882     1.365703     1.354523
      1.343344     1.332164     1.320985     1.309805     1.298626     1.287446     1.276267     1.265088     1.253908     1.242729
      1.231549     1.220370     1.209190     1.198011     1.186831     1.175652     1.164473     1.153293     1.142114     1.130934
      1.119755     1.108575     1.097396     1.086216     1.075037     1.063858     1.052678     1.041499     1.030319     1.019140
      1.007960     0.996781     0.985601     0.974422     0.963243     0.952063     0.940884     0.929704     0.918525     0.907345
      0.896166     0.884986     0.873807     0.862628     0.851448     0.840269     0.829089     0.817910     0.806730     0.795551
      0.784371     0.773192     0.762012     0.750833     0.739654     0.728474     0.717295     0.706115     0.694936     0.683756
      0.672577     0.661397     0.650218     0.639039     0.627859     0.616680     0.605500     0.594321     0.583141     0.571962
      0.560782     0.549603     0.538424     0.527244     0.516065     0.504885     0.493706     0.482526     0.471347     0.460167
      0.448988     0.437809     0.426629     0.415450     0.404270     0.393091     0.381911     0.370732     0.359552     0.348373
      0.337193     0.326014     0.314835     0.303655     0.292476     0.281296     0.270117     0.258937     0.247758     0.236578
      0.225399     0.214220     0.203040
 NY phased data points follow
   2.10336E-09  4.52189E-09  7.83361E-09  8.85511E-09  1.16088E-08  1.02312E-08  9.18558E-09  7.84873E-09  6.92423E-09  5.62560E-09
   5.99921E-09  5.45821E-09  5.80665E-09  5.72442E-09  6.74425E-09  6.47938E-09  7.20013E-09  7.86199E-09  8.59751E-09  7.59736E-09
   7.88070E-09  7.37103E-09  7.74017E-09  7.32098E-09  6.32888E-09  6.40720E-09  6.55400E-09  7.34530E-09  7.68964E-09  7.63557E-09
   7.43512E-09  6.03983E-09  6.28114E-09  6.95888E-09  8.28299E-09  1.00319E-08  1.02393E-08  1.00672E-08  8.55058E-09  7.05752E-09
   6.14555E-09  5.23994E-09  5.33563E-09  4.18638E-09  5.50432E-09  4.49914E-09  4.40311E-09  4.88542E-09  4.65297E-09  3.44170E-09
   3.09283E-09  3.22429E-09  3.68788E-09  3.39442E-09  4.47797E-09  4.12722E-09  4.26845E-09  2.90776E-09  3.55251E-09  3.00292E-09
   3.11736E-09  4.42577E-09  5.05820E-09  5.16094E-09  6.52991E-09  8.40511E-09  1.02563E-08  1.16490E-08  1.04183E-08  8.31756E-09
   6.88706E-09  5.36221E-09  5.27334E-09  4.35672E-09  3.15830E-09  3.23479E-09  3.61857E-09  2.73773E-09  3.41056E-09  3.61384E-09
   4.79266E-09  7.74527E-09  1.18158E-08  1.41265E-08  1.30518E-08  1.10118E-08  9.76254E-09  7.81913E-09  7.54711E-09  6.30440E-09
   6.18724E-09  5.78718E-09  5.12170E-09  5.52196E-09  5.48909E-09  4.42665E-09  4.06151E-09  3.57070E-09  4.06332E-09  2.73855E-09
   2.59661E-09  2.99439E-09  3.03788E-09  3.48523E-09  3.11795E-09  3.86022E-09  3.11868E-09  3.31573E-09  3.77757E-09  3.03853E-09
   3.25590E-09  2.52311E-09  2.34697E-09  1.89195E-09  2.78490E-09  2.74363E-09  3.73320E-09  2.85550E-09  4.03589E-09  3.71894E-09
   3.78099E-09  3.52012E-09  3.84640E-09  3.37891E-09  3.00879E-09  2.38994E-09  2.11433E-09  1.88281E-09  2.26120E-09  1.86682E-09
   2.37172E-09  3.09592E-09  2.85029E-09  2.66912E-09  3.40141E-09  3.79403E-09  2.99792E-09  2.92694E-09  3.08981E-09  2.61952E-09
   3.03895E-09  3.80002E-09  4.28023E-09  5.11115E-09  4.87838E-09  4.12785E-09  4.19562E-09  4.62549E-09  4.59671E-09  5.06994E-09
   5.15900E-09  4.67107E-09  4.26460E-09  4.30659E-09  4.78896E-09  4.39169E-09  4.51924E-09  4.64864E-09  4.94048E-09  4.93605E-09
   5.83743E-09  5.60919E-09  5.85397E-09  5.75418E-09  6.54699E-09  7.03123E-09  7.47880E-09  7.86701E-09  8.14728E-09  8.74863E-09
   1.07246E-08  1.23320E-08  1.49845E-08  1.72552E-08  1.79784E-08  1.43708E-08  1.13150E-08  7.52499E-09  5.70674E-09  4.31379E-09
   4.75758E-09  3.30475E-09  3.39320E-09  2.22743E-09  2.69165E-09  1.94618E-09  1.83634E-09  5.95938E-10  1.02834E-09  2.59927E-10
  -4.67049E-11 -4.57497E-10 -9.29332E-10 -2.15142E-09 -2.50579E-09 -2.87998E-09 -3.88858E-09 -4.98541E-09 -5.82998E-09 -6.98970E-09
  -7.81814E-09 -8.39613E-09 -9.96103E-09 -1.02515E-08 -1.07713E-08 -1.14098E-08 -1.18006E-08 -1.18432E-08 -1.15548E-08 -1.10970E-08
  -1.07567E-08 -1.06059E-08 -8.62738E-09 -7.36849E-09 -7.01217E-09 -5.37008E-09 -4.19349E-09 -3.50496E-09 -2.99127E-09 -2.22790E-09
  -1.96887E-09 -2.20869E-09 -2.77169E-09 -2.75865E-09 -1.93988E-09 -2.91437E-09 -2.97120E-09 -2.26828E-09 -2.54775E-09 -2.48735E-09
  -2.35298E-09 -1.96878E-09 -2.01932E-09 -2.41190E-09 -1.96379E-09 -3.04532E-09 -2.78773E-09 -2.53572E-09 -2.12999E-09 -2.24914E-09
  -2.65601E-09 -1.47219E-09 -1.35480E-09 -1.91195E-09 -1.94919E-09 -2.58121E-09 -2.14242E-09 -2.28396E-09 -2.32510E-09 -2.15204E-09
  -2.16325E-09 -1.84307E-09 -1.42128E-09 -1.69127E-09 -1.53528E-09 -9.40680E-10 -1.44716E-09 -1.56575E-09 -1.47041E-09 -2.27193E-09
  -1.55668E-09 -2.01374E-09 -2.46485E-09 -3.00717E-09 -2.51233E-09 -2.25143E-09 -1.67766E-09 -1.76664E-09 -1.01913E-09 -1.20629E-09
  -8.83586E-10 -1.12614E-09 -9.75821E-10 -7.10177E-10 -9.89816E-10 -1.02815E-09 -7.66861E-10 -1.21239E-09 -1.32686E-09 -2.08169E-09
  -1.78131E-09 -1.40345E-09 -1.97589E-09 -2.06198E-09 -1.58414E-09 -2.03786E-09 -1.66230E-09 -1.89397E-09 -1.46188E-09 -1.69018E-09
  -1.03634E-09 -1.75666E-09 -1.92988E-09 -1.29722E-09 -8.68392E-10 -1.25585E-09 -1.76262E-09 -1.47184E-09 -1.20051E-09 -1.51523E-09
  -1.65549E-09 -8.95095E-10 -1.20655E-09 -1.59469E-09 -1.15541E-09 -1.32746E-09 -7.43901E-10 -1.17614E-09 -1.06274E-09 -1.14666E-09
  -1.38369E-09 -1.59419E-09 -1.08773E-09 -7.26426E-10 -8.45114E-10 -1.02150E-09 -1.26328E-09 -9.38046E-10 -1.15901E-09 -1.34535E-09
  -5.65060E-10 -1.25541E-09 -1.07262E-09 -1.16753E-09 -1.13029E-09 -7.87422E-10 -9.62310E-10 -1.34423E-09 -5.50632E-10 -9.31617E-10
  -3.30713E-10 -1.14278E-09 -8.39259E-10 -1.31206E-09 -8.89408E-10 -9.27110E-10 -9.47426E-10 -1.00444E-09 -1.20644E-09 -7.73538E-10
  -9.02116E-10 -1.17740E-09 -1.06809E-09  8.08323E-11 -5.67713E-10 -1.26110E-09 -3.94740E-10 -1.05922E-09 -5.58185E-10 -6.41041E-10
  -6.64497E-10 -6.78473E-10 -1.08546E-09 -5.77060E-10 -8.29305E-10 -5.25902E-10 -6.03244E-10 -1.17039E-09 -8.71588E-10 -9.84513E-10
  -6.16936E-10 -9.64230E-10 -9.60703E-10
 NY points of the fit to the data follow
   5.43376E-09  6.18545E-09  7.04952E-09  7.93383E-09  8.61392E-09  8.87557E-09  8.62480E-09  7.95285E-09  7.15283E-09  6.31931E-09
   5.82368E-09  5.67999E-09  5.74555E-09  5.96391E-09  6.30164E-09  6.67460E-09  7.05332E-09  7.46207E-09  7.87924E-09  8.29587E-09
   8.71537E-09  8.85707E-09  8.50721E-09  7.79491E-09  6.89990E-09  6.04167E-09  5.59293E-09  5.80208E-09  6.41227E-09  6.97926E-09
   7.38255E-09  7.79300E-09  8.03370E-09  8.07190E-09  8.16328E-09  8.43505E-09  8.68546E-09  8.66988E-09  8.34870E-09  7.89500E-09
   7.38639E-09  6.45787E-09  5.48097E-09  4.91998E-09  4.25649E-09  3.57519E-09  3.27113E-09  3.15438E-09  3.22038E-09  3.36178E-09
   3.49172E-09  3.54033E-09  3.52372E-09  3.48674E-09  3.50863E-09  3.63111E-09  3.82350E-09  3.99500E-09  4.04346E-09  4.02922E-09
   4.15824E-09  4.46584E-09  4.94975E-09  5.73587E-09  6.70450E-09  7.52274E-09  8.16386E-09  8.63530E-09  8.86497E-09  8.71320E-09
   8.17011E-09  7.29415E-09  6.32801E-09  5.32301E-09  4.36204E-09  3.91550E-09  3.87933E-09  4.28432E-09  5.01398E-09  5.98122E-09
   7.16841E-09  8.72381E-09  1.04495E-08  1.16975E-08  1.21083E-08  1.15983E-08  1.02112E-08  8.36381E-09  6.73849E-09  6.21864E-09
   6.09132E-09  5.93262E-09  5.54154E-09  5.18407E-09  4.90312E-09  4.42414E-09  3.98628E-09  3.72559E-09  3.47130E-09  3.26224E-09
   3.14266E-09  3.07207E-09  3.03657E-09  3.03698E-09  3.05820E-09  3.08792E-09  3.11758E-09  3.14107E-09  3.15495E-09  3.15668E-09
   3.14759E-09  3.13825E-09  3.13814E-09  3.12870E-09  3.12483E-09  3.14530E-09  3.17419E-09  3.20685E-09  3.24158E-09  3.27756E-09
   3.31426E-09  3.35130E-09  3.38836E-09  3.42521E-09  3.46164E-09  3.49747E-09  3.53252E-09  3.56666E-09  3.59974E-09  3.63161E-09
   3.66214E-09  3.69123E-09  3.71873E-09  3.74453E-09  3.76851E-09  3.79055E-09  3.81056E-09  3.82843E-09  3.84406E-09  3.85735E-09
   3.86820E-09  3.87643E-09  3.88187E-09  3.88434E-09  3.88368E-09  3.87973E-09  3.87234E-09  3.86133E-09  3.84658E-09  3.82798E-09
   3.80544E-09  3.77887E-09  3.74826E-09  3.71361E-09  3.67502E-09  3.63265E-09  3.58682E-09  3.53805E-09  3.48717E-09  3.43549E-09
   3.38523E-09  3.34015E-09  3.30732E-09  3.30161E-09  3.36260E-09  3.64754E-09  4.40872E-09  5.71314E-09  7.41657E-09  9.43303E-09
   1.18778E-08  1.45842E-08  1.69162E-08  1.80085E-08  1.72210E-08  1.44816E-08  1.03811E-08  6.12044E-09  2.97760E-09  1.35323E-09
   6.85129E-10  2.67912E-10 -5.65964E-11 -3.36157E-10 -5.90055E-10 -8.27449E-10 -1.05307E-09 -1.26948E-09 -1.47806E-09 -1.67954E-09
  -1.87422E-09 -2.06215E-09 -2.24320E-09 -2.41711E-09 -2.58357E-09 -2.74220E-09 -2.89269E-09 -3.03515E-09 -3.16975E-09 -3.29663E-09
  -3.41593E-09 -3.52776E-09 -3.63225E-09 -3.72949E-09 -3.81960E-09 -3.90266E-09 -3.97878E-09 -4.04805E-09 -4.11054E-09 -4.16636E-09
  -4.21559E-09 -4.25831E-09 -4.29459E-09 -4.32455E-09 -4.34823E-09 -4.36574E-09 -4.37715E-09 -4.38253E-09 -4.38198E-09 -4.37556E-09
  -4.36336E-09 -4.34544E-09 -4.32191E-09 -4.29282E-09 -4.25833E-09 -4.21873E-09 -4.17432E-09 -4.12541E-09 -4.07230E-09 -4.01532E-09
  -3.95475E-09 -3.89091E-09 -3.82410E-09 -3.75464E-09 -3.68281E-09 -3.60895E-09 -3.53333E-09 -3.45629E-09 -3.37810E-09 -3.29910E-09
  -3.21958E-09 -3.13984E-09 -3.06020E-09 -2.98096E-09 -2.90242E-09 -2.82488E-09 -2.74866E-09 -2.67406E-09 -2.60139E-09 -2.53096E-09
  -2.46304E-09 -2.39798E-09 -2.33589E-09 -2.27670E-09 -2.22033E-09 -2.16668E-09 -2.11565E-09 -2.06717E-09 -2.02112E-09 -1.97744E-09
  -1.93602E-09 -1.89676E-09 -1.85960E-09 -1.82442E-09 -1.79114E-09 -1.75968E-09 -1.72991E-09 -1.70178E-09 -1.67520E-09 -1.65004E-09
  -1.62624E-09 -1.60370E-09 -1.58232E-09 -1.56202E-09 -1.54272E-09 -1.52429E-09 -1.50668E-09 -1.48978E-09 -1.47351E-09 -1.45776E-09
  -1.44249E-09 -1.42769E-09 -1.41332E-09 -1.39938E-09 -1.38585E-09 -1.37271E-09 -1.35994E-09 -1.34753E-09 -1.33545E-09 -1.32370E-09
  -1.31224E-09 -1.30108E-09 -1.29017E-09 -1.27952E-09 -1.26910E-09 -1.25890E-09 -1.24889E-09 -1.23906E-09 -1.22939E-09 -1.21986E-09
  -1.21047E-09 -1.20118E-09 -1.19198E-09 -1.18286E-09 -1.17379E-09 -1.16476E-09 -1.15575E-09 -1.14675E-09 -1.13774E-09 -1.12874E-09
  -1.11975E-09 -1.11077E-09 -1.10182E-09 -1.09287E-09 -1.08396E-09 -1.07507E-09 -1.06621E-09 -1.05739E-09 -1.04861E-09 -1.03987E-09
  -1.03118E-09 -1.02254E-09 -1.01395E-09 -1.00543E-09 -9.96969E-10 -9.88577E-10 -9.80255E-10 -9.72005E-10 -9.63835E-10 -9.55753E-10
  -9.47750E-10 -9.39841E-10 -9.32024E-10 -9.24308E-10 -9.16695E-10 -9.09184E-10 -9.01778E-10 -8.94476E-10 -8.87273E-10 -8.80166E-10
  -8.73155E-10 -8.66235E-10 -8.59404E-10 -8.52659E-10 -8.46002E-10 -8.39422E-10 -8.32926E-10 -8.26506E-10 -8.20160E-10 -8.13886E-10
  -8.07680E-10 -8.01543E-10 -7.95470E-10 -7.89458E-10 -7.83506E-10 -7.77612E-10 -7.71772E-10 -7.65982E-10 -7.60242E-10 -7.54551E-10
  -7.48904E-10 -7.43300E-10 -7.37732E-10
 NY background values follow
    -2.801E-10   -2.656E-10   -2.512E-10   -2.368E-10   -2.226E-10   -2.084E-10   -1.943E-10   -1.803E-10   -1.664E-10   -1.526E-10
    -1.389E-10   -1.254E-10   -1.120E-10   -9.873E-11   -8.561E-11   -7.265E-11   -5.984E-11   -4.720E-11   -3.474E-11   -2.246E-11
    -1.036E-11    1.539E-12    1.324E-11    2.473E-11    3.601E-11    4.706E-11    5.789E-11    6.848E-11    7.883E-11    8.894E-11
     9.882E-11    1.085E-10    1.180E-10    1.273E-10    1.365E-10    1.455E-10    1.545E-10    1.633E-10    1.721E-10    1.808E-10
     1.895E-10    1.982E-10    2.069E-10    2.157E-10    2.245E-10    2.333E-10    2.422E-10    2.513E-10    2.604E-10    2.698E-10
     2.792E-10    2.889E-10    2.988E-10    3.089E-10    3.192E-10    3.298E-10    3.407E-10    3.519E-10    3.634E-10    3.754E-10
     3.877E-10    4.004E-10    4.137E-10    4.275E-10    4.418E-10    4.567E-10    4.722E-10    4.884E-10    5.052E-10    5.228E-10
     5.411E-10    5.603E-10    5.802E-10    6.010E-10    6.227E-10    6.454E-10    6.690E-10    6.936E-10    7.192E-10    7.459E-10
     7.737E-10    8.027E-10    8.328E-10    8.641E-10    8.967E-10    9.305E-10    9.655E-10    1.002E-09    1.039E-09    1.077E-09
     1.117E-09    1.157E-09    1.198E-09    1.240E-09    1.283E-09    1.327E-09    1.372E-09    1.417E-09    1.463E-09    1.509E-09
     1.557E-09    1.604E-09    1.653E-09    1.701E-09    1.750E-09    1.800E-09    1.850E-09    1.900E-09    1.950E-09    2.001E-09
     2.051E-09    2.102E-09    2.153E-09    2.204E-09    2.254E-09    2.305E-09    2.355E-09    2.405E-09    2.454E-09    2.503E-09
     2.551E-09    2.598E-09    2.644E-09    2.689E-09    2.733E-09    2.776E-09    2.817E-09    2.857E-09    2.896E-09    2.932E-09
     2.967E-09    3.001E-09    3.032E-09    3.061E-09    3.088E-09    3.113E-09    3.136E-09    3.156E-09    3.173E-09    3.188E-09
     3.200E-09    3.209E-09    3.215E-09    3.218E-09    3.217E-09    3.213E-09    3.204E-09    3.192E-09    3.175E-09    3.153E-09
     3.127E-09    3.096E-09    3.060E-09    3.019E-09    2.972E-09    2.920E-09    2.861E-09    2.797E-09    2.726E-09    2.649E-09
     2.565E-09    2.474E-09    2.376E-09    2.271E-09    2.158E-09    2.038E-09    1.910E-09    1.774E-09    1.630E-09    1.478E-09
     1.319E-09    1.153E-09    9.810E-10    8.038E-10    6.216E-10    4.352E-10    2.450E-10    5.158E-11   -1.444E-10   -3.425E-10
    -5.420E-10   -7.425E-10   -9.432E-10   -1.144E-09   -1.344E-09   -1.542E-09   -1.738E-09   -1.932E-09   -2.123E-09   -2.311E-09
    -2.494E-09   -2.672E-09   -2.845E-09   -3.012E-09   -3.172E-09   -3.326E-09   -3.472E-09   -3.610E-09   -3.741E-09   -3.865E-09
    -3.982E-09   -4.091E-09   -4.193E-09   -4.288E-09   -4.376E-09   -4.458E-09   -4.532E-09   -4.600E-09   -4.661E-09   -4.715E-09
    -4.763E-09   -4.805E-09   -4.840E-09   -4.869E-09   -4.892E-09   -4.908E-09   -4.919E-09   -4.923E-09   -4.922E-09   -4.915E-09
    -4.902E-09   -4.883E-09   -4.859E-09   -4.829E-09   -4.794E-09   -4.754E-09   -4.709E-09   -4.660E-09   -4.606E-09   -4.548E-09
    -4.487E-09   -4.423E-09   -4.356E-09   -4.286E-09   -4.213E-09   -4.139E-09   -4.063E-09   -3.986E-09   -3.907E-09   -3.828E-09
    -3.748E-09   -3.667E-09   -3.587E-09   -3.508E-09   -3.429E-09   -3.351E-09   -3.274E-09   -3.199E-09   -3.126E-09   -3.056E-09
    -2.987E-09   -2.922E-09   -2.860E-09   -2.800E-09   -2.743E-09   -2.689E-09   -2.638E-09   -2.589E-09   -2.543E-09   -2.499E-09
    -2.457E-09   -2.418E-09   -2.380E-09   -2.345E-09   -2.311E-09   -2.279E-09   -2.249E-09   -2.221E-09   -2.194E-09   -2.169E-09
    -2.145E-09   -2.122E-09   -2.100E-09   -2.080E-09   -2.060E-09   -2.041E-09   -2.024E-09   -2.006E-09   -1.990E-09   -1.974E-09
    -1.958E-09   -1.943E-09   -1.929E-09   -1.915E-09   -1.901E-09   -1.887E-09   -1.874E-09   -1.862E-09   -1.849E-09   -1.837E-09
    -1.826E-09   -1.814E-09   -1.803E-09   -1.792E-09   -1.782E-09   -1.771E-09   -1.761E-09   -1.751E-09   -1.741E-09   -1.731E-09
    -1.722E-09   -1.712E-09   -1.703E-09   -1.693E-09   -1.684E-09   -1.675E-09   -1.666E-09   -1.657E-09   -1.647E-09   -1.638E-09
    -1.629E-09   -1.620E-09   -1.611E-09   -1.601E-09   -1.592E-09   -1.583E-09   -1.574E-09   -1.565E-09   -1.556E-09   -1.547E-09
    -1.538E-09   -1.529E-09   -1.521E-09   -1.512E-09   -1.503E-09   -1.495E-09   -1.486E-09   -1.478E-09   -1.469E-09   -1.461E-09
    -1.453E-09   -1.445E-09   -1.436E-09   -1.429E-09   -1.421E-09   -1.413E-09   -1.405E-09   -1.398E-09   -1.390E-09   -1.383E-09
    -1.376E-09   -1.369E-09   -1.362E-09   -1.355E-09   -1.348E-09   -1.341E-09   -1.334E-09   -1.328E-09   -1.321E-09   -1.315E-09
    -1.308E-09   -1.302E-09   -1.296E-09   -1.289E-09   -1.283E-09   -1.277E-09   -1.271E-09   -1.265E-09   -1.259E-09   -1.253E-09
    -1.247E-09   -1.241E-09   -1.236E-09
 Ala      Conc. = 4.83E-11
  -2.49299E-10 -2.30311E-10 -2.12379E-10 -1.95344E-10 -1.79464E-10 -1.64677E-10 -1.51718E-10 -1.41412E-10 -1.30796E-10 -1.19947E-10
  -1.12331E-10 -1.04044E-10 -9.35269E-11 -8.38131E-11 -7.38525E-11 -6.28299E-11 -5.13321E-11 -3.96343E-11 -2.78766E-11 -1.61412E-11
  -4.48143E-12  7.06676E-12  1.84738E-11  2.97218E-11  4.07938E-11  5.16717E-11  6.23464E-11  7.28067E-11  8.30410E-11  9.30467E-11
   1.02839E-10  1.12435E-10  1.21854E-10  1.31113E-10  1.40232E-10  1.49229E-10  1.58123E-10  1.66933E-10  1.75678E-10  1.84378E-10
   1.93050E-10  2.01716E-10  2.10394E-10  2.19103E-10  2.27862E-10  2.36692E-10  2.45612E-10  2.54639E-10  2.63797E-10  2.73102E-10
   2.82574E-10  2.92233E-10  3.02099E-10  3.12191E-10  3.22527E-10  3.33130E-10  3.44018E-10  3.55215E-10  3.66756E-10  3.78674E-10
   3.91006E-10  4.03785E-10  4.17046E-10  4.30823E-10  4.45152E-10  4.60067E-10  4.75603E-10  4.91794E-10  5.08676E-10  5.26283E-10
   5.44650E-10  5.63812E-10  5.83804E-10  6.04660E-10  6.26416E-10  6.49108E-10  6.72770E-10  6.97438E-10  7.23147E-10  7.49933E-10
   7.77832E-10  8.06880E-10  8.37114E-10  8.68572E-10  9.01288E-10  9.35267E-10  9.70470E-10  1.00686E-09  1.04440E-09  1.08307E-09
   1.12283E-09  1.16365E-09  1.20553E-09  1.24847E-09  1.29249E-09  1.33765E-09  1.38410E-09  1.43217E-09  1.48269E-09  1.53838E-09
   1.60402E-09  1.66971E-09  1.73913E-09  1.82312E-09  1.91262E-09  1.99890E-09  2.07601E-09  2.13984E-09  2.18854E-09  2.22085E-09
   2.23889E-09  2.25361E-09  2.27485E-09  2.28439E-09  2.29743E-09  2.33320E-09  2.37602E-09  2.42139E-09  2.46775E-09  2.51435E-09
   2.56076E-09  2.60671E-09  2.65198E-09  2.69640E-09  2.73982E-09  2.78211E-09  2.82315E-09  2.86282E-09  2.90099E-09  2.93757E-09
   2.97244E-09  3.00550E-09  3.03664E-09  3.06575E-09  3.09274E-09  3.11749E-09  3.13990E-09  3.15987E-09  3.17730E-09  3.19209E-09
   3.20412E-09  3.21323E-09  3.21921E-09  3.22188E-09  3.22104E-09  3.21648E-09  3.20801E-09  3.19544E-09  3.17857E-09  3.15719E-09
   3.13112E-09  3.10016E-09  3.06411E-09  3.02278E-09  2.97597E-09  2.92349E-09  2.86514E-09  2.80073E-09  2.73007E-09  2.65297E-09
   2.56925E-09  2.47874E-09  2.38128E-09  2.27673E-09  2.16507E-09  2.04654E-09  1.92283E-09  1.79829E-09  1.66693E-09  1.52915E-09
   1.38829E-09  1.24487E-09  1.09473E-09  9.30786E-10  7.47106E-10  5.43039E-10  3.22890E-10  9.51327E-11 -1.27120E-10 -3.32414E-10
  -5.34709E-10 -7.36559E-10 -9.38181E-10 -1.13929E-09 -1.33941E-09 -1.53808E-09 -1.73475E-09 -1.92887E-09 -2.11988E-09 -2.30722E-09
  -2.49035E-09 -2.66869E-09 -2.84167E-09 -3.00872E-09 -3.16929E-09 -3.32281E-09 -3.46884E-09 -3.60737E-09 -3.73848E-09 -3.86225E-09
  -3.97875E-09 -4.08806E-09 -4.19025E-09 -4.28540E-09 -4.37359E-09 -4.45489E-09 -4.52938E-09 -4.59714E-09 -4.65823E-09 -4.71273E-09
  -4.76073E-09 -4.80229E-09 -4.83749E-09 -4.86641E-09 -4.88913E-09 -4.90571E-09 -4.91625E-09 -4.92079E-09 -4.91944E-09 -4.91226E-09
  -4.89932E-09 -4.88070E-09 -4.85649E-09 -4.82675E-09 -4.79163E-09 -4.75143E-09 -4.70643E-09 -4.65695E-09 -4.60330E-09 -4.54578E-09
  -4.48470E-09 -4.42036E-09 -4.35306E-09 -4.28312E-09 -4.21083E-09 -4.13651E-09 -4.06046E-09 -3.98298E-09 -3.90437E-09 -3.82496E-09
  -3.74503E-09 -3.66490E-09 -3.58487E-09 -3.50525E-09 -3.42633E-09 -3.34843E-09 -3.27185E-09 -3.19690E-09 -3.12388E-09 -3.05310E-09
  -2.98484E-09 -2.91945E-09 -2.85704E-09 -2.79753E-09 -2.74083E-09 -2.68687E-09 -2.63553E-09 -2.58674E-09 -2.54040E-09 -2.49642E-09
  -2.45470E-09 -2.41516E-09 -2.37771E-09 -2.34224E-09 -2.30869E-09 -2.27694E-09 -2.24690E-09 -2.21850E-09 -2.19165E-09 -2.16623E-09
  -2.14215E-09 -2.11936E-09 -2.09772E-09 -2.07716E-09 -2.05760E-09 -2.03892E-09 -2.02107E-09 -2.00392E-09 -1.98740E-09 -1.97140E-09
  -1.95589E-09 -1.94084E-09 -1.92624E-09 -1.91206E-09 -1.89829E-09 -1.88491E-09 -1.87191E-09 -1.85927E-09 -1.84696E-09 -1.83497E-09
  -1.82329E-09 -1.81189E-09 -1.80077E-09 -1.78989E-09 -1.77924E-09 -1.76881E-09 -1.75858E-09 -1.74853E-09 -1.73864E-09 -1.72890E-09
  -1.71928E-09 -1.70977E-09 -1.70035E-09 -1.69102E-09 -1.68173E-09 -1.67249E-09 -1.66327E-09 -1.65405E-09 -1.64483E-09 -1.63562E-09
  -1.62641E-09 -1.61722E-09 -1.60805E-09 -1.59890E-09 -1.58977E-09 -1.58067E-09 -1.57160E-09 -1.56257E-09 -1.55358E-09 -1.54463E-09
  -1.53573E-09 -1.52688E-09 -1.51808E-09 -1.50935E-09 -1.50068E-09 -1.49208E-09 -1.48355E-09 -1.47509E-09 -1.46671E-09 -1.45842E-09
  -1.45020E-09 -1.44208E-09 -1.43406E-09 -1.42613E-09 -1.41831E-09 -1.41059E-09 -1.40297E-09 -1.39546E-09 -1.38804E-09 -1.38072E-09
  -1.37350E-09 -1.36637E-09 -1.35932E-09 -1.35237E-09 -1.34550E-09 -1.33870E-09 -1.33199E-09 -1.32536E-09 -1.31879E-09 -1.31230E-09
  -1.30588E-09 -1.29953E-09 -1.29323E-09 -1.28700E-09 -1.28083E-09 -1.27472E-09 -1.26866E-09 -1.26264E-09 -1.25668E-09 -1.25077E-09
  -1.24489E-09 -1.23907E-09 -1.23327E-09
 Asp      Conc. = 4.40E-10
   2.73318E-10  2.38075E-10  1.98375E-10  1.45429E-10  8.70407E-11  1.84769E-11 -3.57039E-11 -7.43703E-11 -8.64852E-11 -8.78974E-11
  -8.38820E-11 -7.66377E-11 -6.73395E-11 -5.68073E-11 -4.58135E-11 -3.45644E-11 -2.30685E-11 -1.13921E-11  4.07317E-13  1.22845E-11
   2.42057E-11  3.61488E-11  4.80974E-11  6.00488E-11  7.20056E-11  8.39753E-11  9.59829E-11  1.08063E-10  1.20264E-10  1.32670E-10
   1.45413E-10  1.58684E-10  1.72764E-10  1.88098E-10  2.05477E-10  2.26557E-10  2.55389E-10  2.87636E-10  3.27691E-10  3.69333E-10
   4.11966E-10  4.55143E-10  4.97428E-10  5.39316E-10  5.74189E-10  6.19320E-10  6.64334E-10  7.29613E-10  8.50575E-10  9.93825E-10
   1.11805E-09  1.17442E-09  1.14935E-09  1.05707E-09  9.38022E-10  8.41462E-10  7.74224E-10  7.48783E-10  6.96964E-10  6.33063E-10
   6.08968E-10  6.08637E-10  6.14299E-10  6.26747E-10  6.33060E-10  6.21299E-10  6.00231E-10  5.94246E-10  5.96462E-10  6.03495E-10
   6.13818E-10  6.26630E-10  6.41474E-10  6.58070E-10  6.76239E-10  6.95868E-10  7.16884E-10  7.39240E-10  7.62910E-10  7.87881E-10
   8.14151E-10  8.41723E-10  8.70609E-10  9.00824E-10  9.32383E-10  9.65273E-10  9.99439E-10  1.03483E-09  1.07139E-09  1.10908E-09
   1.14783E-09  1.18761E-09  1.22837E-09  1.27005E-09  1.31262E-09  1.35602E-09  1.40022E-09  1.44515E-09  1.49078E-09  1.53707E-09
   1.58396E-09  1.63142E-09  1.67939E-09  1.72784E-09  1.77671E-09  1.82597E-09  1.87557E-09  1.92546E-09  1.97561E-09  2.02597E-09
   2.07649E-09  2.12712E-09  2.17784E-09  2.22854E-09  2.27915E-09  2.32954E-09  2.37963E-09  2.42930E-09  2.47846E-09  2.52701E-09
   2.57483E-09  2.62184E-09  2.66793E-09  2.71300E-09  2.75695E-09  2.79967E-09  2.84106E-09  2.88102E-09  2.91946E-09  2.95626E-09
   2.99133E-09  3.02457E-09  3.05588E-09  3.08514E-09  3.11227E-09  3.13716E-09  3.15971E-09  3.17983E-09  3.19740E-09  3.21233E-09
   3.22451E-09  3.23377E-09  3.23992E-09  3.24277E-09  3.24212E-09  3.23777E-09  3.22953E-09  3.21722E-09  3.20062E-09  3.17956E-09
   3.15385E-09  3.12329E-09  3.08770E-09  3.04689E-09  3.00070E-09  2.94893E-09  2.89143E-09  2.82804E-09  2.75863E-09  2.68307E-09
   2.60130E-09  2.51332E-09  2.41928E-09  2.31959E-09  2.21540E-09  2.10999E-09  2.01689E-09  1.98336E-09  1.95655E-09  1.93197E-09
   1.93554E-09  1.97126E-09  2.00025E-09  1.95394E-09  1.77049E-09  1.43467E-09  9.77444E-10  4.67576E-10  1.64238E-11 -2.58050E-10
  -4.84591E-10 -6.98173E-10 -9.06491E-10 -1.11181E-09 -1.31477E-09 -1.51544E-09 -1.71356E-09 -1.90878E-09 -2.10063E-09 -2.28863E-09
  -2.47228E-09 -2.65104E-09 -2.82437E-09 -2.99171E-09 -3.15251E-09 -3.30623E-09 -3.45242E-09 -3.59110E-09 -3.72233E-09 -3.84621E-09
  -3.96280E-09 -4.07219E-09 -4.17445E-09 -4.26966E-09 -4.35791E-09 -4.43926E-09 -4.51379E-09 -4.58158E-09 -4.64271E-09 -4.69724E-09
  -4.74527E-09 -4.78685E-09 -4.82208E-09 -4.85102E-09 -4.87376E-09 -4.89036E-09 -4.90091E-09 -4.90547E-09 -4.90413E-09 -4.89696E-09
  -4.88404E-09 -4.86543E-09 -4.84123E-09 -4.81150E-09 -4.77639E-09 -4.73619E-09 -4.69121E-09 -4.64174E-09 -4.58809E-09 -4.53058E-09
