 LCModel (Version 6.3-1R) Copyright: S.W. Provencher.          Ref.: Magn. Reson. Med. 30:672-679 (1993).                
 onepulse 20x23_ftSpec_smooth_lcm
 26 lines in following concentration table = NCONC+1
    Conc.  %SD   /Cr    Metabolite                                         
 1.06E-10 157%   0.000 Ala                                                 
 6.16E-10  55%   0.000 Asp                                                 
    0.000 999%   0.000 Cr                                                  
 2.76E-09   9%   0.000 GABA                                                
 1.78E-09  15%   0.000 Glc                                                 
    0.000 999%   0.000 Gln                                                 
    0.000 999%   0.000 Glu                                                 
    0.000 999%   0.000 Glyc                                                
    0.000 999%   0.000 GPC                                                 
 3.43E-11 505%   0.000 GSH                                                 
 2.31E-10  84%   0.000 Ins                                                 
    0.000 999%   0.000 Lac                                                 
    0.000 999%   0.000 NAAG                                                
 1.31E-09  11%   0.000 NAA                                                 
 9.39E-11  49%   0.000 PCh                                                 
    0.000 999%   0.000 PCr                                                 
    0.000 999%   0.000 PE                                                  
    0.000 999%   0.000 Scyllo                                              
    0.000 999%   0.000 Ser                                                 
    0.000 999%   0.000 Tau                                                 
 9.39E-11  49%   0.000 GPC+PCh                                             
 1.31E-09  11%   0.000 NAA+NAAG                                            
 2.31E-10  84%   0.000 Ins+Glyc                                            
    0.000 999%   0.000 Cr+PCr                                              
    0.000 999%   0.000 Glu+Gln                                             
   6 lines in following misc. output table
  FWHM = 0.067 ppm    S/N =   5                                            
  Data shift = 0.335 ppm                                                   
  Ph:  52 deg      29.2 deg/ppm                                            
  alphaB,S = 1.5E-01,   5.4E+01                                            
   16 spline knots.   Ns = 5(1)                                            
  ( 9) 2 infls.   ( 5) 1 extrs.                                            
  363 points on ppm-axis = NY
      4.250000     4.238821     4.227641     4.216462     4.205282     4.194103     4.182923     4.171744     4.160564     4.149385
      4.138206     4.127026     4.115847     4.104667     4.093488     4.082308     4.071129     4.059949     4.048770     4.037591
      4.026411     4.015232     4.004052     3.992873     3.981693     3.970514     3.959334     3.948155     3.936975     3.925796
      3.914617     3.903437     3.892258     3.881078     3.869899     3.858719     3.847540     3.836360     3.825181     3.814002
      3.802822     3.791643     3.780463     3.769284     3.758104     3.746925     3.735745     3.724566     3.713387     3.702207
      3.691028     3.679848     3.668669     3.657489     3.646310     3.635130     3.623951     3.612772     3.601592     3.590413
      3.579233     3.568054     3.556874     3.545695     3.534515     3.523336     3.512156     3.500977     3.489798     3.478618
      3.467439     3.456259     3.445080     3.433900     3.422721     3.411541     3.400362     3.389183     3.378003     3.366824
      3.355644     3.344465     3.333285     3.322106     3.310926     3.299747     3.288568     3.277388     3.266209     3.255029
      3.243850     3.232670     3.221491     3.210311     3.199132     3.187953     3.176773     3.165594     3.154414     3.143235
      3.132055     3.120876     3.109696     3.098517     3.087337     3.076158     3.064979     3.053799     3.042620     3.031440
      3.020261     3.009081     2.997902     2.986722     2.975543     2.964364     2.953184     2.942005     2.930825     2.919646
      2.908466     2.897287     2.886107     2.874928     2.863749     2.852569     2.841390     2.830210     2.819031     2.807851
      2.796672     2.785492     2.774313     2.763134     2.751954     2.740775     2.729595     2.718416     2.707236     2.696057
      2.684877     2.673698     2.662519     2.651339     2.640160     2.628980     2.617801     2.606621     2.595442     2.584262
      2.573083     2.561903     2.550724     2.539545     2.528365     2.517186     2.506006     2.494827     2.483647     2.472468
      2.461288     2.450109     2.438930     2.427750     2.416571     2.405391     2.394212     2.383032     2.371853     2.360673
      2.349494     2.338315     2.327135     2.315956     2.304776     2.293597     2.282417     2.271238     2.260058     2.248879
      2.237700     2.226520     2.215341     2.204161     2.192982     2.181802     2.170623     2.159443     2.148264     2.137084
      2.125905     2.114726     2.103546     2.092367     2.081187     2.070008     2.058828     2.047649     2.036469     2.025290
      2.014111     2.002931     1.991752     1.980572     1.969393     1.958213     1.947034     1.935854     1.924675     1.913496
      1.902316     1.891137     1.879957     1.868778     1.857598     1.846419     1.835239     1.824060     1.812881     1.801701
      1.790522     1.779342     1.768163     1.756983     1.745804     1.734624     1.723445     1.712265     1.701086     1.689907
      1.678727     1.667548     1.656368     1.645189     1.634009     1.622830     1.611650     1.600471     1.589292     1.578112
      1.566933     1.555753     1.544574     1.533394     1.522215     1.511035     1.499856     1.488677     1.477497     1.466318
      1.455138     1.443959     1.432779     1.421600     1.410420     1.399241     1.388062     1.376882     1.365703     1.354523
      1.343344     1.332164     1.320985     1.309805     1.298626     1.287446     1.276267     1.265088     1.253908     1.242729
      1.231549     1.220370     1.209190     1.198011     1.186831     1.175652     1.164473     1.153293     1.142114     1.130934
      1.119755     1.108575     1.097396     1.086216     1.075037     1.063858     1.052678     1.041499     1.030319     1.019140
      1.007960     0.996781     0.985601     0.974422     0.963243     0.952063     0.940884     0.929704     0.918525     0.907345
      0.896166     0.884986     0.873807     0.862628     0.851448     0.840269     0.829089     0.817910     0.806730     0.795551
      0.784371     0.773192     0.762012     0.750833     0.739654     0.728474     0.717295     0.706115     0.694936     0.683756
      0.672577     0.661397     0.650218     0.639039     0.627859     0.616680     0.605500     0.594321     0.583141     0.571962
      0.560782     0.549603     0.538424     0.527244     0.516065     0.504885     0.493706     0.482526     0.471347     0.460167
      0.448988     0.437809     0.426629     0.415450     0.404270     0.393091     0.381911     0.370732     0.359552     0.348373
      0.337193     0.326014     0.314835     0.303655     0.292476     0.281296     0.270117     0.258937     0.247758     0.236578
      0.225399     0.214220     0.203040
 NY phased data points follow
   5.51847E-09  7.41761E-09  9.88381E-09  1.15769E-08  1.07915E-08  9.72050E-09  8.31026E-09  6.76991E-09  6.96255E-09  5.73302E-09
   6.62178E-09  5.77227E-09  7.25889E-09  6.96246E-09  7.15478E-09  7.43706E-09  8.48715E-09  9.11345E-09  8.46383E-09  8.15318E-09
   8.64130E-09  7.64153E-09  7.53375E-09  6.90127E-09  7.34138E-09  6.53290E-09  7.55206E-09  7.52857E-09  8.09268E-09  6.77504E-09
   6.34663E-09  5.77657E-09  7.01240E-09  7.70381E-09  1.00686E-08  1.03698E-08  9.56049E-09  8.42803E-09  7.69904E-09  6.11555E-09
   5.38054E-09  5.08033E-09  5.25672E-09  4.60878E-09  4.77294E-09  4.67220E-09  4.60334E-09  3.90809E-09  3.77227E-09  2.67788E-09
   3.24288E-09  3.20502E-09  3.52205E-09  3.41194E-09  3.64208E-09  3.58572E-09  2.70736E-09  2.40289E-09  2.73379E-09  2.39087E-09
   3.43682E-09  4.06592E-09  4.32258E-09  5.17186E-09  7.06302E-09  7.90961E-09  1.05959E-08  8.96883E-09  7.70430E-09  6.40678E-09
   4.96951E-09  4.24600E-09  4.00066E-09  2.61110E-09  2.89422E-09  2.73894E-09  2.33075E-09  1.98570E-09  2.95310E-09  3.78644E-09
   7.25433E-09  1.06570E-08  1.37384E-08  1.34625E-08  1.18845E-08  1.00621E-08  8.19829E-09  7.14816E-09  6.89920E-09  6.40770E-09
   6.27359E-09  5.20328E-09  5.47898E-09  5.18588E-09  3.94988E-09  3.55805E-09  3.54444E-09  3.24890E-09  2.83814E-09  2.28078E-09
   2.15976E-09  2.74163E-09  2.32253E-09  2.62357E-09  3.39734E-09  2.57866E-09  2.68248E-09  2.92677E-09  2.37379E-09  1.96268E-09
   1.78281E-09  1.14217E-09  1.21226E-09  1.02862E-09  1.90183E-09  2.46464E-09  2.37886E-09  2.06251E-09  2.74908E-09  2.80395E-09
   2.80011E-09  2.42620E-09  2.77626E-09  2.32946E-09  1.96740E-09  1.08196E-09  7.92497E-10  9.98512E-10  1.03509E-09  8.62079E-10
   1.70461E-09  1.47504E-09  1.97073E-09  1.83436E-09  2.49320E-09  2.50669E-09  2.24986E-09  1.64326E-09  2.03592E-09  1.13269E-09
   3.03126E-09  3.40571E-09  4.26359E-09  4.09970E-09  3.61493E-09  2.82428E-09  3.88412E-09  3.81567E-09  3.90602E-09  4.16172E-09
   3.83399E-09  3.24132E-09  3.15999E-09  3.20538E-09  3.26702E-09  3.06723E-09  2.94319E-09  3.75535E-09  3.62810E-09  3.85345E-09
   4.40402E-09  4.05936E-09  4.81126E-09  4.70636E-09  5.56682E-09  5.99949E-09  5.73964E-09  6.84880E-09  7.19373E-09  8.43858E-09
   1.09954E-08  1.31510E-08  1.63741E-08  1.81128E-08  1.56577E-08  1.19919E-08  9.05048E-09  7.04061E-09  5.67938E-09  4.82058E-09
   4.37208E-09  3.63725E-09  2.73758E-09  2.78036E-09  1.40346E-09  1.88159E-09  3.82992E-10  2.92990E-10  1.75329E-10 -1.41490E-09
  -1.31792E-09 -2.34932E-09 -2.27391E-09 -3.97477E-09 -4.43618E-09 -5.04497E-09 -5.46188E-09 -6.14749E-09 -7.12072E-09 -7.92581E-09
  -8.08257E-09 -9.02300E-09 -9.26982E-09 -9.74988E-09 -9.68745E-09 -1.00112E-08 -9.23718E-09 -9.54114E-09 -8.73290E-09 -8.32084E-09
  -7.78390E-09 -7.21723E-09 -5.65643E-09 -5.47488E-09 -3.69581E-09 -3.07770E-09 -2.42964E-09 -2.03367E-09 -1.68890E-09 -1.16315E-09
  -1.44851E-09 -2.05410E-09 -2.00046E-09 -1.82956E-09 -1.74845E-09 -2.18751E-09 -2.07995E-09 -1.79721E-09 -1.90474E-09 -1.64518E-09
  -1.46219E-09 -1.85794E-09 -1.84869E-09 -1.49855E-09 -2.25217E-09 -2.54690E-09 -2.06059E-09 -1.30206E-09 -1.74977E-09 -1.78490E-09
  -1.81544E-09 -1.39311E-09 -1.47570E-09 -1.33188E-09 -1.85521E-09 -1.73234E-09 -1.89167E-09 -2.06966E-09 -1.62324E-09 -1.93216E-09
  -1.49421E-09 -1.35773E-09 -9.46704E-10 -1.60474E-09 -6.84038E-10 -9.80478E-10 -1.29821E-09 -1.19718E-09 -1.61857E-09 -1.38066E-09
  -1.60311E-09 -2.69842E-09 -1.84441E-09 -2.40138E-09 -1.75339E-09 -2.01283E-09 -1.27154E-09 -1.49219E-09 -8.82323E-10 -3.98948E-10
  -9.25453E-10 -9.60308E-10 -4.68777E-10 -7.51564E-10 -4.86393E-10 -8.21052E-10 -9.08689E-10 -4.92984E-10 -1.12372E-09 -1.65803E-09
  -9.10555E-10 -1.76596E-09 -1.55458E-09 -1.84220E-09 -1.51381E-09 -1.56234E-09 -1.46950E-09 -1.91511E-09 -1.38042E-09 -1.84375E-09
  -1.08814E-09 -1.69649E-09 -1.59480E-09 -1.44271E-09 -9.73033E-10 -1.16828E-09 -1.27787E-09 -1.08022E-09 -7.22090E-10 -1.05848E-09
  -1.51114E-09 -8.77431E-10 -1.61130E-09 -6.11491E-10 -1.59698E-09 -6.42872E-10 -8.94188E-10 -9.61099E-10 -6.43175E-10 -1.25895E-09
  -8.13473E-10 -7.06110E-10 -4.33411E-10 -6.66417E-10 -6.14613E-10 -9.22533E-10 -1.40012E-09 -2.50538E-10 -4.80408E-10 -6.24046E-10
  -1.18016E-09 -9.06173E-10 -9.52231E-10 -5.12226E-10 -1.06019E-09 -7.72314E-10 -1.01172E-09 -6.97041E-10 -2.82929E-10 -7.01026E-10
  -1.13397E-09 -9.24908E-10 -6.73614E-10 -9.25258E-10 -1.71820E-10 -5.07694E-10 -6.57971E-10 -1.37260E-09 -5.69805E-10 -8.59003E-10
  -3.65693E-10 -1.29336E-09 -9.08701E-10 -4.36871E-10 -7.07730E-10 -8.43676E-10 -4.42984E-10 -1.04037E-09 -7.13819E-10 -1.09783E-09
  -1.85901E-10 -6.35653E-10 -5.36922E-10 -9.86458E-10 -1.02599E-09 -2.59389E-10 -8.79143E-10 -6.31354E-10 -6.57824E-10 -1.11159E-09
  -6.63204E-10 -8.61022E-10 -8.86132E-10
 NY points of the fit to the data follow
   7.82766E-09  8.33681E-09  8.76668E-09  9.04543E-09  9.05270E-09  8.73801E-09  8.15120E-09  7.48555E-09  6.98267E-09  6.55569E-09
   6.40403E-09  6.45774E-09  6.61122E-09  6.85866E-09  7.21475E-09  7.61318E-09  8.03949E-09  8.54614E-09  9.03086E-09  9.33090E-09
   9.37900E-09  8.98412E-09  8.18856E-09  7.35718E-09  6.64157E-09  6.13081E-09  6.01534E-09  6.36845E-09  6.89697E-09  7.32549E-09
   7.45262E-09  7.60730E-09  7.90923E-09  8.06620E-09  8.14839E-09  8.42726E-09  8.66003E-09  8.59127E-09  8.13433E-09  7.40449E-09
   6.65290E-09  5.88682E-09  4.84826E-09  4.04645E-09  3.65235E-09  3.29326E-09  3.06857E-09  3.11007E-09  3.28528E-09  3.42748E-09
   3.48909E-09  3.46349E-09  3.43525E-09  3.41128E-09  3.41652E-09  3.47275E-09  3.51139E-09  3.52227E-09  3.45571E-09  3.37819E-09
   3.50437E-09  3.93690E-09  4.44408E-09  5.02981E-09  5.96812E-09  6.75742E-09  7.26964E-09  7.68395E-09  7.91247E-09  7.78975E-09
   7.28947E-09  6.40267E-09  5.37795E-09  4.60793E-09  3.82113E-09  3.07994E-09  3.09904E-09  3.87703E-09  4.78587E-09  6.12928E-09
   7.90395E-09  9.86485E-09  1.16293E-08  1.23650E-08  1.18004E-08  1.05045E-08  8.93660E-09  7.27555E-09  5.73361E-09  5.23860E-09
   5.08319E-09  5.02120E-09  4.77018E-09  4.27147E-09  3.94357E-09  3.62273E-09  3.12623E-09  2.78950E-09  2.58038E-09  2.38054E-09
   2.27219E-09  2.22220E-09  2.22298E-09  2.27898E-09  2.34692E-09  2.40469E-09  2.44242E-09  2.45944E-09  2.45646E-09  2.42603E-09
   2.36487E-09  2.29712E-09  2.26411E-09  2.22437E-09  2.18971E-09  2.19780E-09  2.21931E-09  2.24639E-09  2.27630E-09  2.30777E-09
   2.34010E-09  2.37283E-09  2.40561E-09  2.43817E-09  2.47032E-09  2.50187E-09  2.53266E-09  2.56258E-09  2.59149E-09  2.61928E-09
   2.64583E-09  2.67104E-09  2.69482E-09  2.71706E-09  2.73766E-09  2.75653E-09  2.77360E-09  2.78877E-09  2.80197E-09  2.81312E-09
   2.82213E-09  2.82887E-09  2.83319E-09  2.83495E-09  2.83401E-09  2.83024E-09  2.82351E-09  2.81372E-09  2.80074E-09  2.78450E-09
   2.76494E-09  2.74202E-09  2.71574E-09  2.68616E-09  2.65339E-09  2.61764E-09  2.57927E-09  2.53883E-09  2.49719E-09  2.45572E-09
   2.41662E-09  2.38356E-09  2.36317E-09  2.36842E-09  2.42935E-09  2.63742E-09  3.39428E-09  4.92960E-09  6.88639E-09  9.25700E-09
   1.21629E-08  1.51420E-08  1.72139E-08  1.74714E-08  1.57516E-08  1.26681E-08  8.99810E-09  5.24532E-09  2.28544E-09  8.21816E-10
   2.07302E-10 -1.77401E-10 -4.72458E-10 -7.22511E-10 -9.46161E-10 -1.15244E-09 -1.34610E-09 -1.52979E-09 -1.70496E-09 -1.87242E-09
  -2.03255E-09 -2.18545E-09 -2.33106E-09 -2.46919E-09 -2.59956E-09 -2.72186E-09 -2.83584E-09 -2.94168E-09 -3.03966E-09 -3.13000E-09
  -3.21293E-09 -3.28864E-09 -3.35736E-09 -3.41927E-09 -3.47455E-09 -3.52340E-09 -3.56600E-09 -3.60251E-09 -3.63312E-09 -3.65799E-09
  -3.67730E-09 -3.69121E-09 -3.69990E-09 -3.70354E-09 -3.70227E-09 -3.69628E-09 -3.68573E-09 -3.67077E-09 -3.65158E-09 -3.62831E-09
  -3.60113E-09 -3.57019E-09 -3.53567E-09 -3.49772E-09 -3.45652E-09 -3.41228E-09 -3.36520E-09 -3.31550E-09 -3.26339E-09 -3.20907E-09
  -3.15276E-09 -3.09467E-09 -3.03501E-09 -2.97398E-09 -2.91179E-09 -2.84867E-09 -2.78481E-09 -2.72042E-09 -2.65571E-09 -2.59090E-09
  -2.52619E-09 -2.46179E-09 -2.39791E-09 -2.33476E-09 -2.27254E-09 -2.21147E-09 -2.15174E-09 -2.09358E-09 -2.03719E-09 -1.98279E-09
  -1.93056E-09 -1.88073E-09 -1.83338E-09 -1.78843E-09 -1.74581E-09 -1.70544E-09 -1.66722E-09 -1.63108E-09 -1.59694E-09 -1.56470E-09
  -1.53430E-09 -1.50563E-09 -1.47864E-09 -1.45322E-09 -1.42930E-09 -1.40680E-09 -1.38561E-09 -1.36570E-09 -1.34695E-09 -1.32927E-09
  -1.31260E-09 -1.29685E-09 -1.28193E-09 -1.26777E-09 -1.25428E-09 -1.24137E-09 -1.22898E-09 -1.21700E-09 -1.20538E-09 -1.19400E-09
  -1.18285E-09 -1.17191E-09 -1.16117E-09 -1.15063E-09 -1.14028E-09 -1.13011E-09 -1.12012E-09 -1.11030E-09 -1.10065E-09 -1.09115E-09
  -1.08180E-09 -1.07260E-09 -1.06354E-09 -1.05461E-09 -1.04580E-09 -1.03711E-09 -1.02853E-09 -1.02006E-09 -1.01169E-09 -1.00340E-09
  -9.95206E-10 -9.87086E-10 -9.79037E-10 -9.71060E-10 -9.63139E-10 -9.55269E-10 -9.47448E-10 -9.39662E-10 -9.31921E-10 -9.24229E-10
  -9.16592E-10 -9.09020E-10 -9.01520E-10 -8.94093E-10 -8.86753E-10 -8.79504E-10 -8.72352E-10 -8.65306E-10 -8.58374E-10 -8.51558E-10
  -8.44873E-10 -8.38316E-10 -8.31899E-10 -8.25634E-10 -8.19519E-10 -8.13569E-10 -8.07786E-10 -8.02175E-10 -7.96748E-10 -7.91514E-10
  -7.86470E-10 -7.81631E-10 -7.77000E-10 -7.72588E-10 -7.68401E-10 -7.64439E-10 -7.60702E-10 -7.57181E-10 -7.53863E-10 -7.50741E-10
  -7.47805E-10 -7.45044E-10 -7.42451E-10 -7.40015E-10 -7.37729E-10 -7.35577E-10 -7.33560E-10 -7.31661E-10 -7.29873E-10 -7.28185E-10
  -7.26588E-10 -7.25076E-10 -7.23635E-10 -7.22258E-10 -7.20936E-10 -7.19659E-10 -7.18418E-10 -7.17201E-10 -7.16001E-10 -7.14811E-10
  -7.13620E-10 -7.12418E-10 -7.11192E-10
 NY background values follow
     1.007E-09    9.826E-10    9.585E-10    9.344E-10    9.104E-10    8.864E-10    8.624E-10    8.385E-10    8.147E-10    7.909E-10
     7.672E-10    7.436E-10    7.201E-10    6.967E-10    6.733E-10    6.501E-10    6.270E-10    6.040E-10    5.811E-10    5.583E-10
     5.357E-10    5.133E-10    4.910E-10    4.688E-10    4.468E-10    4.250E-10    4.034E-10    3.819E-10    3.606E-10    3.396E-10
     3.187E-10    2.982E-10    2.779E-10    2.580E-10    2.385E-10    2.194E-10    2.007E-10    1.825E-10    1.648E-10    1.477E-10
     1.312E-10    1.153E-10    1.000E-10    8.544E-11    7.160E-11    5.853E-11    4.625E-11    3.481E-11    2.424E-11    1.457E-11
     5.844E-12   -1.911E-12   -8.654E-12   -1.435E-11   -1.896E-11   -2.246E-11   -2.482E-11   -2.599E-11   -2.601E-11   -2.487E-11
    -2.258E-11   -1.915E-11   -1.459E-11   -8.910E-12   -2.120E-12    5.775E-12    1.476E-11    2.484E-11    3.599E-11    4.821E-11
     6.149E-11    7.582E-11    9.119E-11    1.076E-10    1.250E-10    1.435E-10    1.629E-10    1.833E-10    2.048E-10    2.272E-10
     2.506E-10    2.749E-10    3.002E-10    3.265E-10    3.536E-10    3.817E-10    4.107E-10    4.405E-10    4.711E-10    5.025E-10
     5.347E-10    5.676E-10    6.011E-10    6.354E-10    6.702E-10    7.056E-10    7.415E-10    7.780E-10    8.150E-10    8.524E-10
     8.902E-10    9.284E-10    9.670E-10    1.006E-09    1.045E-09    1.084E-09    1.124E-09    1.164E-09    1.204E-09    1.244E-09
     1.284E-09    1.324E-09    1.364E-09    1.405E-09    1.445E-09    1.484E-09    1.524E-09    1.563E-09    1.602E-09    1.640E-09
     1.677E-09    1.714E-09    1.750E-09    1.785E-09    1.819E-09    1.852E-09    1.884E-09    1.914E-09    1.944E-09    1.971E-09
     1.998E-09    2.023E-09    2.046E-09    2.067E-09    2.087E-09    2.104E-09    2.120E-09    2.133E-09    2.145E-09    2.154E-09
     2.161E-09    2.165E-09    2.166E-09    2.165E-09    2.161E-09    2.154E-09    2.143E-09    2.129E-09    2.111E-09    2.089E-09
     2.063E-09    2.033E-09    1.999E-09    1.960E-09    1.917E-09    1.869E-09    1.815E-09    1.757E-09    1.693E-09    1.624E-09
     1.549E-09    1.468E-09    1.381E-09    1.287E-09    1.188E-09    1.082E-09    9.692E-10    8.496E-10    7.230E-10    5.899E-10
     4.507E-10    3.061E-10    1.565E-10    2.428E-12   -1.555E-10   -3.169E-10   -4.811E-10   -6.476E-10   -8.159E-10   -9.854E-10
    -1.156E-09   -1.326E-09   -1.496E-09   -1.666E-09   -1.833E-09   -1.999E-09   -2.163E-09   -2.323E-09   -2.480E-09   -2.633E-09
    -2.782E-09   -2.925E-09   -3.063E-09   -3.194E-09   -3.319E-09   -3.436E-09   -3.546E-09   -3.649E-09   -3.744E-09   -3.831E-09
    -3.912E-09   -3.986E-09   -4.053E-09   -4.113E-09   -4.167E-09   -4.215E-09   -4.257E-09   -4.292E-09   -4.322E-09   -4.346E-09
    -4.365E-09   -4.378E-09   -4.387E-09   -4.390E-09   -4.388E-09   -4.382E-09   -4.371E-09   -4.356E-09   -4.337E-09   -4.313E-09
    -4.286E-09   -4.255E-09   -4.221E-09   -4.183E-09   -4.141E-09   -4.097E-09   -4.050E-09   -4.000E-09   -3.948E-09   -3.894E-09
    -3.838E-09   -3.780E-09   -3.720E-09   -3.659E-09   -3.597E-09   -3.534E-09   -3.470E-09   -3.406E-09   -3.341E-09   -3.276E-09
    -3.212E-09   -3.147E-09   -3.084E-09   -3.021E-09   -2.958E-09   -2.897E-09   -2.838E-09   -2.780E-09   -2.723E-09   -2.669E-09
    -2.617E-09   -2.567E-09   -2.520E-09   -2.475E-09   -2.432E-09   -2.392E-09   -2.354E-09   -2.318E-09   -2.284E-09   -2.252E-09
    -2.221E-09   -2.193E-09   -2.166E-09   -2.140E-09   -2.116E-09   -2.094E-09   -2.073E-09   -2.053E-09   -2.034E-09   -2.017E-09
    -2.000E-09   -1.984E-09   -1.969E-09   -1.955E-09   -1.942E-09   -1.929E-09   -1.916E-09   -1.904E-09   -1.893E-09   -1.881E-09
    -1.870E-09   -1.859E-09   -1.848E-09   -1.838E-09   -1.827E-09   -1.817E-09   -1.807E-09   -1.797E-09   -1.787E-09   -1.778E-09
    -1.768E-09   -1.759E-09   -1.750E-09   -1.741E-09   -1.732E-09   -1.723E-09   -1.715E-09   -1.706E-09   -1.698E-09   -1.689E-09
    -1.681E-09   -1.673E-09   -1.664E-09   -1.656E-09   -1.648E-09   -1.640E-09   -1.632E-09   -1.624E-09   -1.617E-09   -1.609E-09
    -1.601E-09   -1.593E-09   -1.585E-09   -1.578E-09   -1.570E-09   -1.563E-09   -1.556E-09   -1.548E-09   -1.541E-09   -1.534E-09
    -1.527E-09   -1.521E-09   -1.514E-09   -1.507E-09   -1.501E-09   -1.495E-09   -1.489E-09   -1.483E-09   -1.477E-09   -1.472E-09
    -1.467E-09   -1.462E-09   -1.457E-09   -1.452E-09   -1.448E-09   -1.443E-09   -1.439E-09   -1.435E-09   -1.432E-09   -1.428E-09
    -1.425E-09   -1.422E-09   -1.419E-09   -1.417E-09   -1.414E-09   -1.411E-09   -1.409E-09   -1.407E-09   -1.405E-09   -1.403E-09
    -1.401E-09   -1.399E-09   -1.397E-09   -1.395E-09   -1.394E-09   -1.392E-09   -1.391E-09   -1.389E-09   -1.387E-09   -1.386E-09
    -1.384E-09   -1.383E-09   -1.381E-09
 Ala      Conc. = 1.06E-10
   1.09063E-09  1.07351E-09  1.05407E-09  1.03219E-09  1.00764E-09  9.81367E-10  9.51548E-10  9.16120E-10  8.82741E-10  8.51540E-10
   8.14680E-10  7.80484E-10  7.51378E-10  7.21445E-10  6.92983E-10  6.66829E-10  6.41857E-10  6.17603E-10  5.93837E-10  5.70441E-10
   5.47348E-10  5.24514E-10  5.01922E-10  4.79548E-10  4.57385E-10  4.35436E-10  4.13692E-10  3.92153E-10  3.70825E-10  3.49718E-10
   3.28860E-10  3.08283E-10  2.88022E-10  2.68111E-10  2.48582E-10  2.29470E-10  2.10811E-10  1.92638E-10  1.74986E-10  1.57888E-10
   1.41383E-10  1.25501E-10  1.10282E-10  9.57561E-11  8.19642E-11  6.89346E-11  5.67077E-11  4.53199E-11  3.47990E-11  2.51872E-11
   1.65197E-11  8.82609E-12  2.14809E-12 -3.48226E-12 -8.02080E-12 -1.14491E-11 -1.37233E-11 -1.48196E-11 -1.47475E-11 -1.35151E-11
  -1.11308E-11 -7.60299E-12 -2.94020E-12  2.84887E-12  9.75654E-12  1.77747E-11  2.68944E-11  3.71077E-11  4.84070E-11  6.07840E-11
   7.42305E-11  8.87400E-11  1.04303E-10  1.20915E-10  1.38565E-10  1.57250E-10  1.76960E-10  1.97691E-10  2.19436E-10  2.42191E-10
   2.65950E-10  2.90712E-10  3.16470E-10  3.43227E-10  3.70980E-10  3.99724E-10  4.29440E-10  4.60113E-10  4.91736E-10  5.24308E-10
   5.57840E-10  5.92359E-10  6.27916E-10  6.64604E-10  7.02578E-10  7.42113E-10  7.83706E-10  8.28363E-10  8.78466E-10  9.41532E-10
   1.02704E-09  1.10994E-09  1.20694E-09  1.33536E-09  1.45933E-09  1.56132E-09  1.63436E-09  1.68000E-09  1.70058E-09  1.68971E-09
   1.64513E-09  1.59137E-09  1.57012E-09  1.54024E-09  1.51385E-09  1.52883E-09  1.55623E-09  1.58830E-09  1.62243E-09  1.65743E-09
   1.69268E-09  1.72779E-09  1.76247E-09  1.79654E-09  1.82984E-09  1.86222E-09  1.89356E-09  1.92376E-09  1.95271E-09  1.98030E-09
   2.00645E-09  2.03106E-09  2.05404E-09  2.07529E-09  2.09473E-09  2.11228E-09  2.12783E-09  2.14131E-09  2.15264E-09  2.16171E-09
   2.16844E-09  2.17269E-09  2.17429E-09  2.17307E-09  2.16885E-09  2.16148E-09  2.15079E-09  2.13659E-09  2.11874E-09  2.09706E-09
   2.07138E-09  2.04153E-09  2.00736E-09  1.96868E-09  1.92535E-09  1.87719E-09  1.82405E-09  1.76577E-09  1.70218E-09  1.63315E-09
   1.55853E-09  1.47822E-09  1.39213E-09  1.30028E-09  1.20289E-09  1.10096E-09  9.99428E-10  9.09173E-10  8.14428E-10  7.19756E-10
   6.30066E-10  5.37414E-10  4.25350E-10  2.77446E-10  9.21876E-11 -1.17775E-10 -3.37802E-10 -5.61212E-10 -7.77995E-10 -9.61380E-10
  -1.13720E-09 -1.31061E-09 -1.48255E-09 -1.65303E-09 -1.82176E-09 -1.98834E-09 -2.15231E-09 -2.31320E-09 -2.47048E-09 -2.62367E-09
  -2.77223E-09 -2.91566E-09 -3.05343E-09 -3.18500E-09 -3.30985E-09 -3.42747E-09 -3.53746E-09 -3.63989E-09 -3.73493E-09 -3.82274E-09
  -3.90346E-09 -3.97728E-09 -4.04434E-09 -4.10480E-09 -4.15882E-09 -4.20657E-09 -4.24820E-09 -4.28388E-09 -4.31375E-09 -4.33799E-09
  -4.35675E-09 -4.37018E-09 -4.37845E-09 -4.38173E-09 -4.38016E-09 -4.37391E-09 -4.36313E-09 -4.34799E-09 -4.32864E-09 -4.30525E-09
  -4.27797E-09 -4.24696E-09 -4.21238E-09 -4.17440E-09 -4.13318E-09 -4.08893E-09 -4.04187E-09 -3.99218E-09 -3.94010E-09 -3.88582E-09
  -3.82956E-09 -3.77152E-09 -3.71192E-09 -3.65096E-09 -3.58884E-09 -3.52579E-09 -3.46201E-09 -3.39770E-09 -3.33307E-09 -3.26834E-09
  -3.20372E-09 -3.13940E-09 -3.07560E-09 -3.01254E-09 -2.95040E-09 -2.88941E-09 -2.82977E-09 -2.77169E-09 -2.71538E-09 -2.66105E-09
  -2.60890E-09 -2.55915E-09 -2.51187E-09 -2.46699E-09 -2.42444E-09 -2.38413E-09 -2.34597E-09 -2.30989E-09 -2.27580E-09 -2.24362E-09
  -2.21326E-09 -2.18464E-09 -2.15769E-09 -2.13231E-09 -2.10843E-09 -2.08596E-09 -2.06480E-09 -2.04491E-09 -2.02618E-09 -2.00852E-09
  -1.99186E-09 -1.97613E-09 -1.96121E-09 -1.94705E-09 -1.93356E-09 -1.92064E-09 -1.90824E-09 -1.89625E-09 -1.88461E-09 -1.87321E-09
  -1.86203E-09 -1.85106E-09 -1.84028E-09 -1.82970E-09 -1.81931E-09 -1.80909E-09 -1.79905E-09 -1.78918E-09 -1.77946E-09 -1.76990E-09
  -1.76048E-09 -1.75121E-09 -1.74207E-09 -1.73305E-09 -1.72416E-09 -1.71538E-09 -1.70671E-09 -1.69814E-09 -1.68966E-09 -1.68127E-09
  -1.67296E-09 -1.66472E-09 -1.65655E-09 -1.64845E-09 -1.64040E-09 -1.63240E-09 -1.62444E-09 -1.61651E-09 -1.60862E-09 -1.60078E-09
  -1.59299E-09 -1.58525E-09 -1.57759E-09 -1.56999E-09 -1.56248E-09 -1.55505E-09 -1.54772E-09 -1.54049E-09 -1.53336E-09 -1.52635E-09
  -1.51947E-09 -1.51271E-09 -1.50608E-09 -1.49961E-09 -1.49327E-09 -1.48710E-09 -1.48109E-09 -1.47525E-09 -1.46959E-09 -1.46412E-09
  -1.45883E-09 -1.45374E-09 -1.44886E-09 -1.44419E-09 -1.43974E-09 -1.43552E-09 -1.43151E-09 -1.42771E-09 -1.42412E-09 -1.42071E-09
  -1.41749E-09 -1.41443E-09 -1.41154E-09 -1.40881E-09 -1.40621E-09 -1.40375E-09 -1.40142E-09 -1.39920E-09 -1.39709E-09 -1.39508E-09
  -1.39315E-09 -1.39130E-09 -1.38951E-09 -1.38779E-09 -1.38612E-09 -1.38449E-09 -1.38288E-09 -1.38130E-09 -1.37973E-09 -1.37817E-09
  -1.37660E-09 -1.37502E-09 -1.37340E-09
 Asp      Conc. = 6.16E-10
   1.74187E-09  1.62448E-09  1.49817E-09  1.36176E-09  1.23494E-09  1.10922E-09  1.01292E-09  9.32054E-10  8.84890E-10  8.49982E-10
   8.20809E-10  7.94741E-10  7.70519E-10  7.47488E-10  7.24936E-10  7.02670E-10  6.80785E-10  6.59274E-10  6.38119E-10  6.17315E-10
   5.96868E-10  5.76792E-10  5.57116E-10  5.37868E-10  5.19092E-10  5.00855E-10  4.83222E-10  4.66285E-10  4.50169E-10  4.35042E-10
   4.21149E-10  4.08825E-10  3.98557E-10  3.91095E-10  3.87718E-10  3.90982E-10  4.06689E-10  4.27812E-10  4.61974E-10  4.96397E-10
   5.28931E-10  5.55892E-10  5.73058E-10  5.90446E-10  6.05006E-10  6.63539E-10  7.37979E-10  8.44251E-10  1.00568E-09  1.14050E-09
   1.20303E-09  1.16722E-09  1.05718E-09  9.04125E-10  7.38470E-10  6.01412E-10  4.68619E-10  4.06503E-10  3.39148E-10  2.62677E-10
   2.33733E-10  2.31227E-10  2.20534E-10  2.07966E-10  1.96736E-10  1.74425E-10  1.39475E-10  1.24099E-10  1.19311E-10  1.20556E-10
   1.25832E-10  1.34103E-10  1.44760E-10  1.57424E-10  1.71836E-10  1.87817E-10  2.05235E-10  2.23993E-10  2.44014E-10  2.65238E-10
   2.87614E-10  3.11106E-10  3.35674E-10  3.61295E-10  3.87939E-10  4.15575E-10  4.44158E-10  4.73645E-10  5.03997E-10  5.35174E-10
   5.67136E-10  5.99846E-10  6.33266E-10  6.67362E-10  7.02094E-10  7.37430E-10  7.73332E-10  8.09766E-10  8.46697E-10  8.84089E-10
   9.21910E-10  9.60123E-10  9.98694E-10  1.03759E-09  1.07678E-09  1.11622E-09  1.15588E-09  1.19574E-09  1.23575E-09  1.27588E-09
   1.31610E-09  1.35637E-09  1.39667E-09  1.43691E-09  1.47703E-09  1.51693E-09  1.55653E-09  1.59575E-09  1.63449E-09  1.67269E-09
   1.71024E-09  1.74707E-09  1.78309E-09  1.81822E-09  1.85236E-09  1.88545E-09  1.91739E-09  1.94809E-09  1.97748E-09  2.00546E-09
   2.03196E-09  2.05689E-09  2.08016E-09  2.10169E-09  2.12140E-09  2.13919E-09  2.15500E-09  2.16873E-09  2.18030E-09  2.18962E-09
   2.19661E-09  2.20112E-09  2.20300E-09  2.20206E-09  2.19816E-09  2.19111E-09  2.18077E-09  2.16696E-09  2.14953E-09  2.12830E-09
   2.10314E-09  2.07386E-09  2.04034E-09  2.00240E-09  1.95992E-09  1.91275E-09  1.86077E-09  1.80387E-09  1.74198E-09  1.67503E-09
   1.60306E-09  1.52618E-09  1.44476E-09  1.35952E-09  1.27229E-09  1.18803E-09  1.12596E-09  1.16585E-09  1.22108E-09  1.30071E-09
   1.43801E-09  1.59751E-09  1.68778E-09  1.60315E-09  1.31469E-09  8.83205E-10  3.95871E-10 -1.04173E-10 -5.81385E-10 -8.58419E-10
  -1.06593E-09 -1.25456E-09 -1.43520E-09 -1.61120E-09 -1.78365E-09 -1.95288E-09 -2.11879E-09 -2.28114E-09 -2.43956E-09 -2.59363E-09
  -2.74290E-09 -2.88690E-09 -3.02513E-09 -3.15708E-09 -3.28226E-09 -3.40014E-09 -3.51035E-09 -3.61297E-09 -3.70816E-09 -3.79610E-09
  -3.87695E-09 -3.95086E-09 -4.01800E-09 -4.07853E-09 -4.13262E-09 -4.18042E-09 -4.22210E-09 -4.25781E-09 -4.28772E-09 -4.31198E-09
  -4.33077E-09 -4.34422E-09 -4.35251E-09 -4.35580E-09 -4.35424E-09 -4.34799E-09 -4.33722E-09 -4.32209E-09 -4.30274E-09 -4.27935E-09
  -4.25207E-09 -4.22106E-09 -4.18649E-09 -4.14850E-09 -4.10728E-09 -4.06303E-09 -4.01596E-09 -3.96627E-09 -3.91418E-09 -3.85990E-09
