 LCModel (Version 6.3-1R) Copyright: S.W. Provencher.          Ref.: Magn. Reson. Med. 30:672-679 (1993).                
 onepulse 20x25_ftSpec_smooth_lcm
 26 lines in following concentration table = NCONC+1
    Conc.  %SD /Cr+PCr  Metabolite                                         
    0.000 999%   0.000 Ala                                                 
    0.000 999%   0.000 Asp                                                 
    0.000 999%   0.000 Cr                                                  
 2.41E-09  18% 107.553 GABA                                                
 1.77E-09  25%  78.780 Glc                                                 
    0.000 999%   0.000 Gln                                                 
    0.000 999%   0.000 Glu                                                 
    0.000 999%   0.000 Glyc                                                
    0.000 999%   0.000 GPC                                                 
    0.000 999%   0.000 GSH                                                 
 4.85E-10  50%  21.632 Ins                                                 
    0.000 999%   0.000 Lac                                                 
    0.000 999%   0.000 NAAG                                                
 1.34E-09  12%  59.604 NAA                                                 
 1.04E-10 189%   4.648 PCh                                                 
 2.24E-11 928%   1.000 PCr                                                 
 1.01E-11 999%   0.449 PE                                                  
    0.000 999%   0.000 Scyllo                                              
 1.31E-09  46%  58.452 Ser                                                 
    0.000 999%   0.000 Tau                                                 
 1.04E-10 189%   4.648 GPC+PCh                                             
 1.34E-09  12%  59.604 NAA+NAAG                                            
 4.85E-10  50%  21.632 Ins+Glyc                                            
 2.24E-11 928%   1.000 Cr+PCr                                              
    0.000 999%   0.000 Glu+Gln                                             
   6 lines in following misc. output table
  FWHM = 0.078 ppm    S/N =   4                                            
  Data shift = 0.335 ppm                                                   
  Ph:  35 deg      15.6 deg/ppm                                            
  alphaB,S = 1.6E-01,   5.9E+01                                            
   16 spline knots.   Ns = 5(1)                                            
  ( 9) 2 infls.   ( 5) 1 extrs.                                            
  363 points on ppm-axis = NY
      4.250000     4.238821     4.227641     4.216462     4.205282     4.194103     4.182923     4.171744     4.160564     4.149385
      4.138206     4.127026     4.115847     4.104667     4.093488     4.082308     4.071129     4.059949     4.048770     4.037591
      4.026411     4.015232     4.004052     3.992873     3.981693     3.970514     3.959334     3.948155     3.936975     3.925796
      3.914617     3.903437     3.892258     3.881078     3.869899     3.858719     3.847540     3.836360     3.825181     3.814002
      3.802822     3.791643     3.780463     3.769284     3.758104     3.746925     3.735745     3.724566     3.713387     3.702207
      3.691028     3.679848     3.668669     3.657489     3.646310     3.635130     3.623951     3.612772     3.601592     3.590413
      3.579233     3.568054     3.556874     3.545695     3.534515     3.523336     3.512156     3.500977     3.489798     3.478618
      3.467439     3.456259     3.445080     3.433900     3.422721     3.411541     3.400362     3.389183     3.378003     3.366824
      3.355644     3.344465     3.333285     3.322106     3.310926     3.299747     3.288568     3.277388     3.266209     3.255029
      3.243850     3.232670     3.221491     3.210311     3.199132     3.187953     3.176773     3.165594     3.154414     3.143235
      3.132055     3.120876     3.109696     3.098517     3.087337     3.076158     3.064979     3.053799     3.042620     3.031440
      3.020261     3.009081     2.997902     2.986722     2.975543     2.964364     2.953184     2.942005     2.930825     2.919646
      2.908466     2.897287     2.886107     2.874928     2.863749     2.852569     2.841390     2.830210     2.819031     2.807851
      2.796672     2.785492     2.774313     2.763134     2.751954     2.740775     2.729595     2.718416     2.707236     2.696057
      2.684877     2.673698     2.662519     2.651339     2.640160     2.628980     2.617801     2.606621     2.595442     2.584262
      2.573083     2.561903     2.550724     2.539545     2.528365     2.517186     2.506006     2.494827     2.483647     2.472468
      2.461288     2.450109     2.438930     2.427750     2.416571     2.405391     2.394212     2.383032     2.371853     2.360673
      2.349494     2.338315     2.327135     2.315956     2.304776     2.293597     2.282417     2.271238     2.260058     2.248879
      2.237700     2.226520     2.215341     2.204161     2.192982     2.181802     2.170623     2.159443     2.148264     2.137084
      2.125905     2.114726     2.103546     2.092367     2.081187     2.070008     2.058828     2.047649     2.036469     2.025290
      2.014111     2.002931     1.991752     1.980572     1.969393     1.958213     1.947034     1.935854     1.924675     1.913496
      1.902316     1.891137     1.879957     1.868778     1.857598     1.846419     1.835239     1.824060     1.812881     1.801701
      1.790522     1.779342     1.768163     1.756983     1.745804     1.734624     1.723445     1.712265     1.701086     1.689907
      1.678727     1.667548     1.656368     1.645189     1.634009     1.622830     1.611650     1.600471     1.589292     1.578112
      1.566933     1.555753     1.544574     1.533394     1.522215     1.511035     1.499856     1.488677     1.477497     1.466318
      1.455138     1.443959     1.432779     1.421600     1.410420     1.399241     1.388062     1.376882     1.365703     1.354523
      1.343344     1.332164     1.320985     1.309805     1.298626     1.287446     1.276267     1.265088     1.253908     1.242729
      1.231549     1.220370     1.209190     1.198011     1.186831     1.175652     1.164473     1.153293     1.142114     1.130934
      1.119755     1.108575     1.097396     1.086216     1.075037     1.063858     1.052678     1.041499     1.030319     1.019140
      1.007960     0.996781     0.985601     0.974422     0.963243     0.952063     0.940884     0.929704     0.918525     0.907345
      0.896166     0.884986     0.873807     0.862628     0.851448     0.840269     0.829089     0.817910     0.806730     0.795551
      0.784371     0.773192     0.762012     0.750833     0.739654     0.728474     0.717295     0.706115     0.694936     0.683756
      0.672577     0.661397     0.650218     0.639039     0.627859     0.616680     0.605500     0.594321     0.583141     0.571962
      0.560782     0.549603     0.538424     0.527244     0.516065     0.504885     0.493706     0.482526     0.471347     0.460167
      0.448988     0.437809     0.426629     0.415450     0.404270     0.393091     0.381911     0.370732     0.359552     0.348373
      0.337193     0.326014     0.314835     0.303655     0.292476     0.281296     0.270117     0.258937     0.247758     0.236578
      0.225399     0.214220     0.203040
 NY phased data points follow
   1.14169E-08  1.32366E-08  1.57331E-08  1.58666E-08  1.45150E-08  1.27006E-08  1.13833E-08  9.75110E-09  1.04040E-08  8.92673E-09
   9.92483E-09  9.10217E-09  1.06052E-08  1.00619E-08  1.05193E-08  1.09431E-08  1.20611E-08  1.19175E-08  1.12971E-08  1.08168E-08
   1.11095E-08  1.07164E-08  9.88859E-09  8.96233E-09  9.44198E-09  8.84067E-09  1.02764E-08  1.01735E-08  1.03470E-08  8.64063E-09
   8.43247E-09  7.58471E-09  9.69463E-09  1.02275E-08  1.25726E-08  1.27656E-08  1.13571E-08  9.67193E-09  8.66312E-09  7.57064E-09
   7.18636E-09  6.70627E-09  7.17407E-09  5.75595E-09  6.41657E-09  6.16047E-09  6.06915E-09  4.87638E-09  4.96243E-09  4.09113E-09
   4.35789E-09  4.24124E-09  4.52029E-09  4.58641E-09  5.34594E-09  4.59138E-09  3.79734E-09  3.33196E-09  3.95844E-09  3.66520E-09
   4.52394E-09  5.22931E-09  5.46870E-09  6.03043E-09  8.55342E-09  9.71421E-09  1.14800E-08  9.47595E-09  8.35212E-09  6.85373E-09
   5.79192E-09  4.98953E-09  4.95800E-09  3.80180E-09  3.72235E-09  3.49961E-09  3.37460E-09  2.72966E-09  3.35230E-09  4.58156E-09
   8.74257E-09  1.27421E-08  1.56219E-08  1.45764E-08  1.24717E-08  1.08675E-08  9.39947E-09  8.18718E-09  7.98772E-09  7.22814E-09
   7.33634E-09  6.52244E-09  6.32821E-09  5.80075E-09  4.82553E-09  4.36452E-09  4.48660E-09  3.42272E-09  3.42246E-09  2.90786E-09
   2.79262E-09  2.53921E-09  2.72882E-09  2.90429E-09  3.82552E-09  2.79059E-09  3.17613E-09  2.97040E-09  2.98862E-09  2.43489E-09
   1.58234E-09  1.07170E-09  1.05222E-09  5.31852E-10  1.89102E-09  2.14691E-09  2.67440E-09  1.73825E-09  2.35981E-09  2.82281E-09
   2.82299E-09  2.62675E-09  2.83439E-09  2.47899E-09  1.91755E-09  9.50199E-10  7.47141E-10  1.74969E-10  7.21407E-10  8.05736E-10
   1.09166E-09  1.24502E-09  1.44529E-09  1.27502E-09  1.86173E-09  1.71372E-09  2.22948E-09  1.12454E-09  1.73679E-09  9.58382E-10
   2.58083E-09  3.18595E-09  3.87018E-09  3.92185E-09  3.59124E-09  2.53957E-09  3.90597E-09  4.01386E-09  3.98780E-09  3.99085E-09
   3.53382E-09  3.34874E-09  2.98760E-09  2.67362E-09  2.65825E-09  2.11373E-09  2.14212E-09  2.49052E-09  2.67472E-09  2.33864E-09
   3.52396E-09  2.65781E-09  3.55872E-09  3.27041E-09  4.15835E-09  4.32617E-09  4.38343E-09  4.67603E-09  5.57991E-09  6.05449E-09
   8.32836E-09  1.13669E-08  1.61971E-08  1.84880E-08  1.64098E-08  1.26606E-08  1.03286E-08  8.18886E-09  6.79074E-09  5.41541E-09
   4.54947E-09  3.78053E-09  2.91462E-09  2.69781E-09  7.61796E-10  4.07906E-10 -2.99723E-10 -1.26549E-09 -1.79156E-09 -3.45927E-09
  -4.07517E-09 -5.23924E-09 -5.30796E-09 -7.00168E-09 -8.16031E-09 -9.03155E-09 -9.91914E-09 -1.01398E-08 -1.08945E-08 -1.18835E-08
  -1.15891E-08 -1.18862E-08 -1.14724E-08 -1.12864E-08 -1.04119E-08 -1.03833E-08 -9.04310E-09 -8.25843E-09 -7.18890E-09 -5.88353E-09
  -5.03318E-09 -4.82922E-09 -3.25549E-09 -3.24654E-09 -2.19193E-09 -1.84878E-09 -1.20503E-09 -1.03363E-09 -9.74783E-10 -7.09233E-10
  -1.07069E-09 -1.69585E-09 -1.35401E-09 -1.37249E-09 -1.51281E-09 -1.14628E-09 -1.13502E-09 -1.28262E-09 -1.10609E-09 -1.12027E-09
  -7.57871E-10 -1.45807E-09 -1.19451E-09 -1.07887E-09 -1.30851E-09 -1.70822E-09 -1.71417E-09 -8.88501E-10 -8.95297E-10 -1.15298E-09
  -7.25705E-10 -1.17524E-09 -8.20699E-10 -9.54208E-10 -9.87863E-10 -1.06749E-09 -1.31623E-09 -1.54636E-09 -9.86544E-10 -1.25525E-09
  -9.31356E-10 -7.25790E-10 -4.33480E-10 -8.24112E-10 -2.18597E-10 -3.29393E-10 -2.61461E-10 -4.64617E-10 -7.48083E-10 -7.54332E-10
  -8.93216E-10 -1.90692E-09 -1.27886E-09 -1.86832E-09 -1.46837E-09 -1.77813E-09 -1.02315E-09 -1.26478E-09 -1.01849E-09  3.21675E-11
  -1.43300E-10 -4.18889E-10  3.34285E-10 -1.54455E-10  4.24476E-10  2.57517E-10  2.28152E-10  1.47565E-10 -1.38400E-12 -5.42762E-10
  -2.14730E-10 -6.93186E-10 -6.14446E-10 -1.31974E-09 -8.44645E-10 -1.21582E-09 -6.68442E-10 -1.11857E-09 -7.22482E-10 -1.46939E-09
  -9.96010E-10 -9.79898E-10 -1.05496E-09 -1.20550E-09 -8.97417E-10 -7.14715E-10 -1.11121E-09 -8.47619E-10 -4.03185E-10 -4.62265E-10
  -8.44686E-10 -6.18658E-10 -1.31407E-09 -2.39767E-10 -1.00519E-09 -6.12753E-10 -5.67434E-10 -6.62409E-10 -6.45624E-10 -4.75333E-10
  -5.82510E-10 -7.28817E-10 -5.80397E-11 -1.71296E-10 -4.68101E-10 -9.65317E-11 -6.08965E-10 -2.69447E-10  2.80090E-10 -2.96600E-10
  -1.57059E-10 -1.70958E-11 -1.52547E-12 -1.19898E-10  1.83564E-10  2.78528E-12 -1.87290E-10 -2.62178E-10  2.85730E-10  6.43519E-11
   1.51783E-13 -3.78684E-10  4.15689E-10 -4.52523E-10  2.95958E-10  1.56393E-10  6.80380E-10 -5.93206E-10 -6.09078E-11  2.79359E-11
   6.32542E-10  2.58208E-10 -3.60406E-10  1.00126E-10  2.26557E-10 -8.42864E-11  3.58445E-10  1.86908E-10  3.18532E-10 -1.09915E-10
  -7.22954E-11  9.82499E-11  5.55660E-10  2.48412E-10  2.42689E-11  5.16298E-10  1.10190E-10  3.46017E-10  5.90123E-10  1.16535E-10
   1.87866E-10  9.72511E-11  2.42129E-10
 NY points of the fit to the data follow
   1.42666E-08  1.40361E-08  1.38232E-08  1.36692E-08  1.33532E-08  1.26488E-08  1.16377E-08  1.06963E-08  1.00689E-08  9.63679E-09
   9.56549E-09  9.73263E-09  1.00117E-08  1.03538E-08  1.06683E-08  1.08875E-08  1.11144E-08  1.14521E-08  1.17538E-08  1.18843E-08
   1.18682E-08  1.14950E-08  1.07230E-08  9.83685E-09  9.05674E-09  8.48290E-09  8.31472E-09  8.65169E-09  9.15062E-09  9.57692E-09
   9.70360E-09  9.70166E-09  9.80629E-09  9.82821E-09  9.74311E-09  9.87826E-09  1.00979E-08  1.00678E-08  9.66368E-09  8.99975E-09
   8.28014E-09  7.58433E-09  6.58505E-09  5.71485E-09  5.33481E-09  4.94819E-09  4.58832E-09  4.48469E-09  4.45350E-09  4.40543E-09
   4.34926E-09  4.30885E-09  4.33826E-09  4.42242E-09  4.55766E-09  4.71144E-09  4.83761E-09  4.85492E-09  4.78497E-09  4.70858E-09
   4.76655E-09  5.03133E-09  5.44007E-09  5.92313E-09  6.68820E-09  7.43120E-09  7.98393E-09  8.43278E-09  8.73922E-09  8.73538E-09
   8.37849E-09  7.63808E-09  6.72149E-09  5.97694E-09  5.20769E-09  4.43020E-09  4.32592E-09  4.92983E-09  5.73366E-09  7.08296E-09
   9.02669E-09  1.11820E-08  1.29774E-08  1.37215E-08  1.31963E-08  1.18810E-08  1.01886E-08  8.24242E-09  6.44457E-09  5.95800E-09
   5.81088E-09  5.75352E-09  5.55079E-09  5.10294E-09  4.76645E-09  4.47197E-09  3.99147E-09  3.61167E-09  3.37112E-09  3.12600E-09
   2.93318E-09  2.80238E-09  2.70890E-09  2.63951E-09  2.58668E-09  2.54573E-09  2.51377E-09  2.48863E-09  2.46871E-09  2.45288E-09
   2.44012E-09  2.42995E-09  2.42199E-09  2.41585E-09  2.41119E-09  2.40768E-09  2.40489E-09  2.40258E-09  2.40055E-09  2.39862E-09
   2.39663E-09  2.39442E-09  2.39183E-09  2.38870E-09  2.38490E-09  2.38029E-09  2.37475E-09  2.36817E-09  2.36045E-09  2.35146E-09
   2.34112E-09  2.32931E-09  2.31593E-09  2.30089E-09  2.28409E-09  2.26542E-09  2.24482E-09  2.22218E-09  2.19744E-09  2.17049E-09
   2.14124E-09  2.10966E-09  2.07568E-09  2.03925E-09  2.00035E-09  1.95892E-09  1.91496E-09  1.86843E-09  1.81932E-09  1.76763E-09
   1.71341E-09  1.65667E-09  1.59752E-09  1.53606E-09  1.47249E-09  1.40705E-09  1.34012E-09  1.27224E-09  1.20423E-09  1.13729E-09
   1.07332E-09  1.01537E-09  9.68779E-10  9.43582E-10  9.61728E-10  1.08438E-09  1.56838E-09  2.78840E-09  4.64701E-09  7.13315E-09
   1.03788E-08  1.39276E-08  1.67098E-08  1.76796E-08  1.65238E-08  1.37168E-08  9.93037E-09  5.69160E-09  1.97856E-09  2.65983E-11
  -7.10023E-10 -1.13146E-09 -1.43323E-09 -1.67551E-09 -1.88301E-09 -2.06765E-09 -2.23578E-09 -2.39100E-09 -2.53541E-09 -2.67026E-09
  -2.79627E-09 -2.91380E-09 -3.02302E-09 -3.12390E-09 -3.21635E-09 -3.30019E-09 -3.37531E-09 -3.44201E-09 -3.50063E-09 -3.55151E-09
  -3.59494E-09 -3.63122E-09 -3.66064E-09 -3.68347E-09 -3.69996E-09 -3.71038E-09 -3.71499E-09 -3.71403E-09 -3.70776E-09 -3.69640E-09
  -3.68021E-09 -3.65943E-09 -3.63428E-09 -3.60502E-09 -3.57187E-09 -3.53507E-09 -3.49485E-09 -3.45145E-09 -3.40509E-09 -3.35601E-09
  -3.30443E-09 -3.25059E-09 -3.19472E-09 -3.13705E-09 -3.07777E-09 -3.01704E-09 -2.95499E-09 -2.89175E-09 -2.82747E-09 -2.76229E-09
  -2.69635E-09 -2.62977E-09 -2.56270E-09 -2.49528E-09 -2.42763E-09 -2.35991E-09 -2.29224E-09 -2.22477E-09 -2.15761E-09 -2.09093E-09
  -2.02486E-09 -1.95952E-09 -1.89506E-09 -1.83161E-09 -1.76930E-09 -1.70828E-09 -1.64867E-09 -1.59062E-09 -1.53427E-09 -1.47975E-09
  -1.42718E-09 -1.37672E-09 -1.32841E-09 -1.28220E-09 -1.23803E-09 -1.19584E-09 -1.15558E-09 -1.11718E-09 -1.08058E-09 -1.04572E-09
  -1.01255E-09 -9.81004E-10 -9.51025E-10 -9.22547E-10 -8.95521E-10 -8.69880E-10 -8.45554E-10 -8.22510E-10 -8.00675E-10 -7.79982E-10
  -7.60375E-10 -7.41805E-10 -7.24197E-10 -7.07498E-10 -6.91658E-10 -6.76595E-10 -6.62275E-10 -6.48623E-10 -6.35587E-10 -6.23098E-10
  -6.11120E-10 -5.99620E-10 -5.88565E-10 -5.77921E-10 -5.67665E-10 -5.57757E-10 -5.48174E-10 -5.38876E-10 -5.29837E-10 -5.21026E-10
  -5.12410E-10 -5.03958E-10 -4.95638E-10 -4.87420E-10 -4.79273E-10 -4.71164E-10 -4.63064E-10 -4.54940E-10 -4.46765E-10 -4.38498E-10
  -4.30119E-10 -4.21590E-10 -4.12880E-10 -4.03965E-10 -3.94805E-10 -3.85372E-10 -3.75638E-10 -3.65567E-10 -3.55165E-10 -3.44445E-10
  -3.33424E-10 -3.22120E-10 -3.10549E-10 -2.98724E-10 -2.86664E-10 -2.74385E-10 -2.61904E-10 -2.49235E-10 -2.36398E-10 -2.23405E-10
  -2.10277E-10 -1.97026E-10 -1.83668E-10 -1.70226E-10 -1.56707E-10 -1.43136E-10 -1.29524E-10 -1.15887E-10 -1.02243E-10 -8.86119E-11
  -7.50016E-11 -6.14344E-11 -4.79238E-11 -3.44889E-11 -2.11450E-11 -7.90296E-12  5.23304E-12  1.82674E-11  3.12064E-11  4.40539E-11
   5.68143E-11  6.94932E-11  8.20946E-11  9.46233E-11  1.07081E-10  1.19479E-10  1.31814E-10  1.44095E-10  1.56326E-10  1.68511E-10
   1.80656E-10  1.92764E-10  2.04840E-10  2.16888E-10  2.28914E-10  2.40921E-10  2.52914E-10  2.64900E-10  2.76881E-10  2.88860E-10
   3.00844E-10  3.12836E-10  3.24845E-10
 NY background values follow
     3.418E-09    3.392E-09    3.366E-09    3.339E-09    3.313E-09    3.287E-09    3.260E-09    3.234E-09    3.208E-09    3.182E-09
     3.155E-09    3.129E-09    3.103E-09    3.076E-09    3.050E-09    3.023E-09    2.997E-09    2.970E-09    2.943E-09    2.916E-09
     2.889E-09    2.862E-09    2.834E-09    2.807E-09    2.779E-09    2.751E-09    2.723E-09    2.695E-09    2.667E-09    2.638E-09
     2.610E-09    2.581E-09    2.552E-09    2.523E-09    2.494E-09    2.464E-09    2.435E-09    2.406E-09    2.377E-09    2.348E-09
     2.320E-09    2.291E-09    2.263E-09    2.235E-09    2.207E-09    2.179E-09    2.152E-09    2.125E-09    2.098E-09    2.072E-09
     2.047E-09    2.021E-09    1.997E-09    1.973E-09    1.949E-09    1.926E-09    1.904E-09    1.882E-09    1.861E-09    1.840E-09
     1.820E-09    1.801E-09    1.783E-09    1.765E-09    1.748E-09    1.731E-09    1.715E-09    1.700E-09    1.686E-09    1.672E-09
     1.659E-09    1.646E-09    1.635E-09    1.623E-09    1.613E-09    1.603E-09    1.594E-09    1.586E-09    1.578E-09    1.571E-09
     1.565E-09    1.560E-09    1.555E-09    1.551E-09    1.547E-09    1.545E-09    1.543E-09    1.541E-09    1.540E-09    1.540E-09
     1.541E-09    1.542E-09    1.543E-09    1.545E-09    1.547E-09    1.550E-09    1.553E-09    1.557E-09    1.561E-09    1.565E-09
     1.570E-09    1.575E-09    1.580E-09    1.585E-09    1.591E-09    1.596E-09    1.602E-09    1.608E-09    1.614E-09    1.620E-09
     1.626E-09    1.632E-09    1.638E-09    1.644E-09    1.650E-09    1.655E-09    1.660E-09    1.665E-09    1.669E-09    1.673E-09
     1.675E-09    1.677E-09    1.679E-09    1.679E-09    1.678E-09    1.676E-09    1.672E-09    1.668E-09    1.662E-09    1.654E-09
     1.645E-09    1.634E-09    1.622E-09    1.607E-09    1.591E-09    1.572E-09    1.552E-09    1.529E-09    1.504E-09    1.477E-09
     1.447E-09    1.414E-09    1.379E-09    1.341E-09    1.301E-09    1.258E-09    1.211E-09    1.162E-09    1.110E-09    1.055E-09
     9.970E-10    9.355E-10    8.709E-10    8.029E-10    7.315E-10    6.567E-10    5.783E-10    4.965E-10    4.109E-10    3.217E-10
     2.287E-10    1.319E-10    3.121E-11   -7.345E-11   -1.821E-10   -2.949E-10   -4.118E-10   -5.329E-10   -6.582E-10   -7.874E-10
    -9.200E-10   -1.056E-09   -1.194E-09   -1.334E-09   -1.476E-09   -1.619E-09   -1.763E-09   -1.908E-09   -2.052E-09   -2.196E-09
    -2.339E-09   -2.481E-09   -2.621E-09   -2.758E-09   -2.893E-09   -3.025E-09   -3.153E-09   -3.277E-09   -3.397E-09   -3.512E-09
    -3.621E-09   -3.725E-09   -3.823E-09   -3.914E-09   -3.998E-09   -4.075E-09   -4.143E-09   -4.205E-09   -4.258E-09   -4.305E-09
    -4.344E-09   -4.377E-09   -4.403E-09   -4.423E-09   -4.437E-09   -4.445E-09   -4.448E-09   -4.445E-09   -4.437E-09   -4.424E-09
    -4.406E-09   -4.384E-09   -4.358E-09   -4.327E-09   -4.293E-09   -4.255E-09   -4.214E-09   -4.170E-09   -4.123E-09   -4.073E-09
    -4.020E-09   -3.966E-09   -3.909E-09   -3.851E-09   -3.791E-09   -3.730E-09   -3.667E-09   -3.604E-09   -3.539E-09   -3.473E-09
    -3.407E-09   -3.340E-09   -3.273E-09   -3.205E-09   -3.137E-09   -3.069E-09   -3.001E-09   -2.933E-09   -2.866E-09   -2.799E-09
    -2.732E-09   -2.667E-09   -2.602E-09   -2.538E-09   -2.476E-09   -2.414E-09   -2.355E-09   -2.296E-09   -2.240E-09   -2.185E-09
    -2.132E-09   -2.082E-09   -2.033E-09   -1.987E-09   -1.942E-09   -1.900E-09   -1.859E-09   -1.821E-09   -1.784E-09   -1.749E-09
    -1.716E-09   -1.684E-09   -1.654E-09   -1.625E-09   -1.598E-09   -1.572E-09   -1.548E-09   -1.524E-09   -1.502E-09   -1.481E-09
    -1.462E-09   -1.443E-09   -1.425E-09   -1.408E-09   -1.392E-09   -1.377E-09   -1.362E-09   -1.349E-09   -1.335E-09   -1.323E-09
    -1.311E-09   -1.299E-09   -1.288E-09   -1.277E-09   -1.266E-09   -1.256E-09   -1.246E-09   -1.237E-09   -1.228E-09   -1.219E-09
    -1.210E-09   -1.201E-09   -1.193E-09   -1.184E-09   -1.176E-09   -1.168E-09   -1.159E-09   -1.151E-09   -1.143E-09   -1.134E-09
    -1.125E-09   -1.117E-09   -1.108E-09   -1.099E-09   -1.089E-09   -1.080E-09   -1.070E-09   -1.059E-09   -1.049E-09   -1.038E-09
    -1.026E-09   -1.015E-09   -1.003E-09   -9.909E-10   -9.786E-10   -9.661E-10   -9.533E-10   -9.404E-10   -9.273E-10   -9.141E-10
    -9.007E-10   -8.871E-10   -8.735E-10   -8.598E-10   -8.460E-10   -8.321E-10   -8.182E-10   -8.043E-10   -7.904E-10   -7.764E-10
    -7.625E-10   -7.487E-10   -7.348E-10   -7.211E-10   -7.074E-10   -6.939E-10   -6.804E-10   -6.671E-10   -6.538E-10   -6.406E-10
    -6.276E-10   -6.145E-10   -6.016E-10   -5.887E-10   -5.759E-10   -5.632E-10   -5.505E-10   -5.379E-10   -5.253E-10   -5.128E-10
    -5.003E-10   -4.878E-10   -4.753E-10   -4.629E-10   -4.505E-10   -4.381E-10   -4.258E-10   -4.134E-10   -4.010E-10   -3.887E-10
    -3.763E-10   -3.639E-10   -3.515E-10
 GABA     Conc. = 2.41E-09
   3.79936E-09  3.77788E-09  3.75676E-09  3.73602E-09  3.71569E-09  3.69580E-09  3.67639E-09  3.65750E-09  3.63920E-09  3.62154E-09
   3.60460E-09  3.58854E-09  3.57346E-09  3.55950E-09  3.54692E-09  3.53589E-09  3.52666E-09  3.51967E-09  3.51527E-09  3.51401E-09
   3.51677E-09  3.52469E-09  3.53937E-09  3.56323E-09  3.59966E-09  3.65429E-09  3.73697E-09  3.86675E-09  4.08984E-09  4.44292E-09
   4.83741E-09  5.40956E-09  6.21297E-09  6.96493E-09  7.62283E-09  8.24321E-09  8.68435E-09  8.81491E-09  8.55979E-09  7.98838E-09
   7.32526E-09  6.65817E-09  5.64991E-09  4.71741E-09  4.22651E-09  3.70142E-09  3.19343E-09  2.95386E-09  2.82013E-09  2.73736E-09
   2.68417E-09  2.65026E-09  2.63089E-09  2.62392E-09  2.62867E-09  2.64590E-09  2.67812E-09  2.72979E-09  2.80892E-09  2.93023E-09
   3.12505E-09  3.46583E-09  3.88119E-09  4.39029E-09  5.16460E-09  5.97173E-09  6.63032E-09  7.17617E-09  7.52511E-09  7.56163E-09
   7.20089E-09  6.47967E-09  5.62301E-09  4.92524E-09  4.12831E-09  3.24374E-09  2.86068E-09  2.62427E-09  2.33085E-09  2.24763E-09
   2.28470E-09  2.36864E-09  2.60481E-09  2.93804E-09  3.25686E-09  3.65166E-09  4.11106E-09  4.53558E-09  4.88883E-09  5.08937E-09
   5.15984E-09  5.20028E-09  5.04988E-09  4.63288E-09  4.31571E-09  4.03378E-09  3.56161E-09  3.18741E-09  2.95058E-09  2.70789E-09
   2.51659E-09  2.38664E-09  2.29352E-09  2.22412E-09  2.17101E-09  2.12957E-09  2.09696E-09  2.07105E-09  2.05027E-09  2.03351E-09
   2.01977E-09  2.00857E-09  1.99956E-09  1.99235E-09  1.98659E-09  1.98198E-09  1.97808E-09  1.97465E-09  1.97151E-09  1.96846E-09
   1.96535E-09  1.96203E-09  1.95832E-09  1.95407E-09  1.94915E-09  1.94343E-09  1.93677E-09  1.92907E-09  1.92023E-09  1.91011E-09
   1.89862E-09  1.88566E-09  1.87113E-09  1.85490E-09  1.83690E-09  1.81701E-09  1.79515E-09  1.77123E-09  1.74515E-09  1.71682E-09
   1.68614E-09  1.65305E-09  1.61748E-09  1.57937E-09  1.53866E-09  1.49531E-09  1.44927E-09  1.40047E-09  1.34888E-09  1.29444E-09
   1.23714E-09  1.17695E-09  1.11386E-09  1.04788E-09  9.79048E-10  9.07416E-10  8.33105E-10  7.56293E-10  6.77279E-10  5.96525E-10
   5.14798E-10  4.33390E-10  3.54647E-10  2.83193E-10  2.29842E-10  2.27765E-10  4.32288E-10  8.78566E-10  1.48341E-09  2.33503E-09
   3.39660E-09  4.37726E-09  4.88184E-09  4.68054E-09  3.85321E-09  2.63720E-09  1.21037E-09 -2.57809E-10 -1.24313E-09 -1.63765E-09
  -1.89220E-09 -2.09589E-09 -2.27473E-09 -2.43880E-09 -2.59268E-09 -2.73861E-09 -2.87771E-09 -3.01052E-09 -3.13721E-09 -3.25778E-09
  -3.37209E-09 -3.47992E-09 -3.58099E-09 -3.67495E-09 -3.76149E-09 -3.84023E-09 -3.91092E-09 -3.97374E-09 -4.02895E-09 -4.07682E-09
  -4.11758E-09 -4.15148E-09 -4.17877E-09 -4.19968E-09 -4.21444E-09 -4.22331E-09 -4.22650E-09 -4.22426E-09 -4.21681E-09 -4.20438E-09
  -4.18721E-09 -4.16553E-09 -4.13956E-09 -4.10954E-09 -4.07569E-09 -4.03824E-09 -3.99743E-09 -3.95347E-09 -3.90659E-09 -3.85703E-09
  -3.80501E-09 -3.75075E-09 -3.69449E-09 -3.63645E-09 -3.57683E-09 -3.51578E-09 -3.45343E-09 -3.38991E-09 -3.32537E-09 -3.25994E-09
  -3.19375E-09 -3.12695E-09 -3.05967E-09 -2.99205E-09 -2.92421E-09 -2.85630E-09 -2.78846E-09 -2.72082E-09 -2.65351E-09 -2.58668E-09
  -2.52046E-09 -2.45497E-09 -2.39038E-09 -2.32680E-09 -2.26436E-09 -2.20322E-09 -2.14349E-09 -2.08533E-09 -2.02886E-09 -1.97423E-09
  -1.92155E-09 -1.87099E-09 -1.82258E-09 -1.77626E-09 -1.73199E-09 -1.68971E-09 -1.64934E-09 -1.61085E-09 -1.57415E-09 -1.53920E-09
  -1.50594E-09 -1.47429E-09 -1.44422E-09 -1.41565E-09 -1.38853E-09 -1.36279E-09 -1.33837E-09 -1.31524E-09 -1.29331E-09 -1.27252E-09
  -1.25282E-09 -1.23415E-09 -1.21644E-09 -1.19965E-09 -1.18371E-09 -1.16855E-09 -1.15413E-09 -1.14037E-09 -1.12724E-09 -1.11464E-09
  -1.10256E-09 -1.09096E-09 -1.07980E-09 -1.06904E-09 -1.05868E-09 -1.04866E-09 -1.03896E-09 -1.02955E-09 -1.02040E-09 -1.01147E-09
  -1.00274E-09 -9.94166E-10 -9.85725E-10 -9.77385E-10 -9.69114E-10 -9.60879E-10 -9.52652E-10 -9.44399E-10 -9.36093E-10 -9.27694E-10
  -9.19181E-10 -9.10516E-10 -9.01668E-10 -8.92613E-10 -8.83312E-10 -8.73736E-10 -8.63856E-10 -8.53637E-10 -8.43086E-10 -8.32215E-10
  -8.21042E-10 -8.09582E-10 -7.97854E-10 -7.85870E-10 -7.73650E-10 -7.61208E-10 -7.48561E-10 -7.35726E-10 -7.22720E-10 -7.09555E-10
  -6.96254E-10 -6.82827E-10 -6.69293E-10 -6.55670E-10 -6.41970E-10 -6.28215E-10 -6.14417E-10 -6.00591E-10 -5.86757E-10 -5.72933E-10
  -5.59128E-10 -5.45364E-10 -5.31654E-10 -5.18018E-10 -5.04470E-10 -4.91022E-10 -4.77678E-10 -4.64433E-10 -4.51280E-10 -4.38218E-10
  -4.25239E-10 -4.12340E-10 -3.99517E-10 -3.86763E-10 -3.74078E-10 -3.61451E-10 -3.48884E-10 -3.36368E-10 -3.23900E-10 -3.11476E-10
  -2.99088E-10 -2.86736E-10 -2.74413E-10 -2.62116E-10 -2.49838E-10 -2.37577E-10 -2.25327E-10 -2.13082E-10 -2.00839E-10 -1.88596E-10
  -1.76345E-10 -1.64083E-10 -1.51802E-10
 Glc      Conc. = 1.77E-09
   7.96075E-09  8.49992E-09  8.99076E-09  9.37396E-09  9.47174E-09  9.23194E-09  8.69049E-09  8.01219E-09  7.38184E-09  6.78398E-09
   6.46360E-09  6.36155E-09  6.38109E-09  6.53823E-09  6.88448E-09  7.37755E-09  7.98390E-09  8.72277E-09  9.48600E-09  1.00569E-08
   1.02710E-08  9.94719E-09  9.14358E-09  8.08108E-09  6.97707E-09  5.94693E-09  5.19282E-09  4.86012E-09  4.69818E-09  4.57726E-09
   4.41401E-09  4.19639E-09  3.99634E-09  3.79257E-09  3.54030E-09  3.29065E-09  3.11361E-09  2.94583E-09  2.78170E-09  2.67435E-09
   2.59906E-09  2.53906E-09  2.48784E-09  2.44277E-09  2.40193E-09  2.36429E-09  2.32915E-09  2.29600E-09  2.26446E-09  2.23432E-09
   2.20540E-09  2.17757E-09  2.15076E-09  2.12489E-09  2.09996E-09  2.07587E-09  2.05264E-09  2.03027E-09  2.00871E-09  1.98795E-09
   1.96797E-09  1.94874E-09  1.93027E-09  1.91252E-09  1.89551E-09  1.87922E-09  1.86364E-09  1.84877E-09  1.83460E-09  1.82115E-09
   1.80839E-09  1.79633E-09  1.78498E-09  1.77432E-09  1.76436E-09  1.75510E-09  1.74655E-09  1.73869E-09  1.73153E-09  1.72508E-09
   1.71933E-09  1.71429E-09  1.70994E-09  1.70632E-09  1.70338E-09  1.70116E-09  1.69961E-09  1.69870E-09  1.69841E-09  1.69871E-09
   1.69957E-09  1.70096E-09  1.70287E-09  1.70525E-09  1.70809E-09  1.71135E-09  1.71501E-09  1.71904E-09  1.72342E-09  1.72812E-09
   1.73311E-09  1.73837E-09  1.74386E-09  1.74956E-09  1.75545E-09  1.76149E-09  1.76767E-09  1.77394E-09  1.78029E-09  1.78669E-09
   1.79312E-09  1.79954E-09  1.80592E-09  1.81221E-09  1.81832E-09  1.82416E-09  1.82963E-09  1.83466E-09  1.83915E-09  1.84302E-09
   1.84618E-09  1.84853E-09  1.85000E-09  1.85050E-09  1.84992E-09  1.84820E-09  1.84524E-09  1.84095E-09  1.83525E-09  1.82804E-09
   1.81925E-09  1.80877E-09  1.79654E-09  1.78244E-09  1.76642E-09  1.74836E-09  1.72819E-09  1.70582E-09  1.68117E-09  1.65414E-09
   1.62465E-09  1.59265E-09  1.55805E-09  1.52082E-09  1.48088E-09  1.43819E-09  1.39267E-09  1.34428E-09  1.29297E-09  1.23868E-09
   1.18137E-09  1.12099E-09  1.05751E-09  9.90902E-10  9.21141E-10  8.48223E-10  7.72169E-10  6.93020E-10  6.10870E-10  5.25870E-10
   4.38290E-10  3.48573E-10  2.57498E-10  1.66443E-10  7.81705E-11 -1.08141E-12 -5.31620E-11  2.73259E-12  2.74896E-10  6.53880E-10
   1.20222E-09  1.94180E-09  2.69391E-09  3.15921E-09  3.10943E-09  2.55190E-09  1.66055E-09  5.89433E-10 -5.57316E-10 -1.48580E-09
  -1.85609E-09 -2.09365E-09 -2.28566E-09 -2.45571E-09 -2.61254E-09 -2.75998E-09 -2.89987E-09 -3.03306E-09 -3.15990E-09 -3.28050E-09
  -3.39475E-09 -3.50248E-09 -3.60341E-09 -3.69724E-09 -3.78362E-09 -3.86220E-09 -3.93272E-09 -3.99538E-09 -4.05044E-09 -4.09815E-09
  -4.13876E-09 -4.17252E-09 -4.19966E-09 -4.22043E-09 -4.23507E-09 -4.24380E-09 -4.24686E-09 -4.24449E-09 -4.23692E-09 -4.22438E-09
  -4.20709E-09 -4.18529E-09 -4.15921E-09 -4.12908E-09 -4.09512E-09 -4.05757E-09 -4.01665E-09 -3.97259E-09 -3.92562E-09 -3.87596E-09
  -3.82384E-09 -3.76950E-09 -3.71315E-09 -3.65502E-09 -3.59531E-09 -3.53418E-09 -3.47174E-09 -3.40814E-09 -3.34352E-09 -3.27800E-09
