 LCModel (Version 6.3-1R) Copyright: S.W. Provencher.          Ref.: Magn. Reson. Med. 30:672-679 (1993).                
 onepulse 20x26_ftSpec_smooth_lcm
 26 lines in following concentration table = NCONC+1
    Conc.  %SD /Cr+PCr  Metabolite                                         
    0.000 999%   0.000 Ala                                                 
    0.000 999%   0.000 Asp                                                 
 4.27E-10  52%   1.000 Cr                                                  
    0.000 999%   0.000 GABA                                                
    0.000 999%   0.000 Glc                                                 
 1.86E-09  39%   4.348 Gln                                                 
 1.79E-10 374%   0.419 Glu                                                 
    0.000 999%   0.000 Glyc                                                
 2.14E-10  36%   0.501 GPC                                                 
    0.000 999%   0.000 GSH                                                 
 1.61E-09  16%   3.771 Ins                                                 
    0.000 999%   0.000 Lac                                                 
 1.16E-10 286%   0.271 NAAG                                                
 7.42E-10  57%   1.737 NAA                                                 
    0.000 999%   0.000 PCh                                                 
    0.000 999%   0.000 PCr                                                 
    0.000 999%   0.000 PE                                                  
 3.01E-10  35%   0.705 Scyllo                                              
 3.47E-09  18%   8.132 Ser                                                 
    0.000 999%   0.000 Tau                                                 
 2.14E-10  36%   0.501 GPC+PCh                                             
 8.57E-10  27%   2.007 NAA+NAAG                                            
 1.61E-09  16%   3.771 Ins+Glyc                                            
 4.27E-10  52%   1.000 Cr+PCr                                              
 2.04E-09  24%   4.766 Glu+Gln                                             
   6 lines in following misc. output table
  FWHM = 0.089 ppm    S/N =   4                                            
  Data shift = 0.347 ppm                                                   
  Ph: -43 deg     -25.1 deg/ppm                                            
  alphaB,S = 1.8E-01,   2.0E+01                                            
   16 spline knots.   Ns = 5(1)                                            
  (11) 4 infls.   ( 9) 1 extrs.                                            
  363 points on ppm-axis = NY
      4.250000     4.238821     4.227641     4.216462     4.205282     4.194103     4.182923     4.171744     4.160564     4.149385
      4.138206     4.127026     4.115847     4.104667     4.093488     4.082308     4.071129     4.059949     4.048770     4.037591
      4.026411     4.015232     4.004052     3.992873     3.981693     3.970514     3.959334     3.948155     3.936975     3.925796
      3.914617     3.903437     3.892258     3.881078     3.869899     3.858719     3.847540     3.836360     3.825181     3.814002
      3.802822     3.791643     3.780463     3.769284     3.758104     3.746925     3.735745     3.724566     3.713387     3.702207
      3.691028     3.679848     3.668669     3.657489     3.646310     3.635130     3.623951     3.612772     3.601592     3.590413
      3.579233     3.568054     3.556874     3.545695     3.534515     3.523336     3.512156     3.500977     3.489798     3.478618
      3.467439     3.456259     3.445080     3.433900     3.422721     3.411541     3.400362     3.389183     3.378003     3.366824
      3.355644     3.344465     3.333285     3.322106     3.310926     3.299747     3.288568     3.277388     3.266209     3.255029
      3.243850     3.232670     3.221491     3.210311     3.199132     3.187953     3.176773     3.165594     3.154414     3.143235
      3.132055     3.120876     3.109696     3.098517     3.087337     3.076158     3.064979     3.053799     3.042620     3.031440
      3.020261     3.009081     2.997902     2.986722     2.975543     2.964364     2.953184     2.942005     2.930825     2.919646
      2.908466     2.897287     2.886107     2.874928     2.863749     2.852569     2.841390     2.830210     2.819031     2.807851
      2.796672     2.785492     2.774313     2.763134     2.751954     2.740775     2.729595     2.718416     2.707236     2.696057
      2.684877     2.673698     2.662519     2.651339     2.640160     2.628980     2.617801     2.606621     2.595442     2.584262
      2.573083     2.561903     2.550724     2.539545     2.528365     2.517186     2.506006     2.494827     2.483647     2.472468
      2.461288     2.450109     2.438930     2.427750     2.416571     2.405391     2.394212     2.383032     2.371853     2.360673
      2.349494     2.338315     2.327135     2.315956     2.304776     2.293597     2.282417     2.271238     2.260058     2.248879
      2.237700     2.226520     2.215341     2.204161     2.192982     2.181802     2.170623     2.159443     2.148264     2.137084
      2.125905     2.114726     2.103546     2.092367     2.081187     2.070008     2.058828     2.047649     2.036469     2.025290
      2.014111     2.002931     1.991752     1.980572     1.969393     1.958213     1.947034     1.935854     1.924675     1.913496
      1.902316     1.891137     1.879957     1.868778     1.857598     1.846419     1.835239     1.824060     1.812881     1.801701
      1.790522     1.779342     1.768163     1.756983     1.745804     1.734624     1.723445     1.712265     1.701086     1.689907
      1.678727     1.667548     1.656368     1.645189     1.634009     1.622830     1.611650     1.600471     1.589292     1.578112
      1.566933     1.555753     1.544574     1.533394     1.522215     1.511035     1.499856     1.488677     1.477497     1.466318
      1.455138     1.443959     1.432779     1.421600     1.410420     1.399241     1.388062     1.376882     1.365703     1.354523
      1.343344     1.332164     1.320985     1.309805     1.298626     1.287446     1.276267     1.265088     1.253908     1.242729
      1.231549     1.220370     1.209190     1.198011     1.186831     1.175652     1.164473     1.153293     1.142114     1.130934
      1.119755     1.108575     1.097396     1.086216     1.075037     1.063858     1.052678     1.041499     1.030319     1.019140
      1.007960     0.996781     0.985601     0.974422     0.963243     0.952063     0.940884     0.929704     0.918525     0.907345
      0.896166     0.884986     0.873807     0.862628     0.851448     0.840269     0.829089     0.817910     0.806730     0.795551
      0.784371     0.773192     0.762012     0.750833     0.739654     0.728474     0.717295     0.706115     0.694936     0.683756
      0.672577     0.661397     0.650218     0.639039     0.627859     0.616680     0.605500     0.594321     0.583141     0.571962
      0.560782     0.549603     0.538424     0.527244     0.516065     0.504885     0.493706     0.482526     0.471347     0.460167
      0.448988     0.437809     0.426629     0.415450     0.404270     0.393091     0.381911     0.370732     0.359552     0.348373
      0.337193     0.326014     0.314835     0.303655     0.292476     0.281296     0.270117     0.258937     0.247758     0.236578
      0.225399     0.214220     0.203040
 NY phased data points follow
   1.65398E-08  1.88273E-08  1.78045E-08  1.65114E-08  1.40952E-08  1.32456E-08  1.15419E-08  1.22311E-08  1.08614E-08  1.17482E-08
   1.08938E-08  1.24235E-08  1.18875E-08  1.26825E-08  1.25744E-08  1.38121E-08  1.32118E-08  1.28537E-08  1.22028E-08  1.24479E-08
   1.21508E-08  1.13307E-08  1.01514E-08  1.07980E-08  1.00703E-08  1.18365E-08  1.14679E-08  1.16583E-08  9.92958E-09  9.74984E-09
   8.78156E-09  1.13336E-08  1.18241E-08  1.40880E-08  1.38144E-08  1.25541E-08  1.05152E-08  9.49656E-09  8.68703E-09  8.57456E-09
   7.57169E-09  8.26792E-09  6.92097E-09  7.66210E-09  7.02642E-09  7.13689E-09  5.81136E-09  5.82518E-09  5.19142E-09  5.32388E-09
   5.17498E-09  5.45360E-09  5.59339E-09  6.38891E-09  5.49497E-09  4.74811E-09  4.17315E-09  4.98919E-09  4.66156E-09  5.48604E-09
   5.87273E-09  6.27446E-09  6.82238E-09  9.40822E-09  1.09792E-08  1.21437E-08  1.01696E-08  9.36328E-09  7.60333E-09  6.76599E-09
   6.07397E-09  5.91945E-09  4.73925E-09  4.78497E-09  4.26137E-09  4.39630E-09  3.61039E-09  3.93645E-09  5.27397E-09  9.56063E-09
   1.38310E-08  1.70591E-08  1.56286E-08  1.34093E-08  1.19016E-08  1.07311E-08  9.42143E-09  9.16720E-09  8.21195E-09  8.41127E-09
   7.69870E-09  7.61492E-09  6.76804E-09  6.27990E-09  5.61822E-09  5.73514E-09  4.50713E-09  4.45536E-09  3.88262E-09  4.06711E-09
   3.35383E-09  3.65508E-09  3.90718E-09  4.60053E-09  3.65796E-09  4.12362E-09  3.87706E-09  3.99476E-09  3.49990E-09  2.46190E-09
   1.81198E-09  1.82829E-09  1.11289E-09  2.59467E-09  2.55404E-09  3.35540E-09  2.53951E-09  2.77182E-09  3.42100E-09  3.44193E-09
   3.35566E-09  3.69164E-09  3.35824E-09  2.69946E-09  1.69797E-09  1.50911E-09  5.56022E-10  1.22598E-09  1.27831E-09  1.60736E-09
   1.65502E-09  1.83388E-09  1.66227E-09  2.21623E-09  1.91068E-09  2.54677E-09  1.53507E-09  1.85087E-09  1.35798E-09  2.84982E-09
   3.73392E-09  4.47516E-09  4.33576E-09  4.29049E-09  3.33995E-09  4.48263E-09  4.73565E-09  4.84044E-09  4.87987E-09  4.31620E-09
   4.21665E-09  4.05245E-09  3.46878E-09  3.30747E-09  2.74134E-09  3.01006E-09  2.78608E-09  3.16229E-09  2.70621E-09  3.76550E-09
   2.96408E-09  3.63985E-09  3.59764E-09  4.19653E-09  4.09519E-09  4.48538E-09  4.45622E-09  5.25652E-09  5.47625E-09  7.20563E-09
   1.02200E-08  1.61732E-08  1.95756E-08  1.82116E-08  1.49384E-08  1.27739E-08  1.07990E-08  9.54994E-09  8.08418E-09  6.99302E-09
   6.25682E-09  5.32933E-09  4.87348E-09  3.28169E-09  2.24967E-09  1.66546E-09  5.00349E-10 -5.48628E-10 -2.08655E-09 -3.28040E-09
  -4.66278E-09 -5.25344E-09 -7.12257E-09 -8.46772E-09 -1.00186E-08 -1.14055E-08 -1.21845E-08 -1.29456E-08 -1.44570E-08 -1.44245E-08
  -1.48339E-08 -1.45444E-08 -1.42761E-08 -1.29711E-08 -1.27280E-08 -1.14024E-08 -1.00917E-08 -8.67912E-09 -6.88378E-09 -5.38427E-09
  -4.99322E-09 -3.27547E-09 -3.00801E-09 -2.00528E-09 -1.84726E-09 -1.14036E-09 -1.15958E-09 -9.51914E-10 -1.02041E-09 -1.21649E-09
  -1.81114E-09 -1.50045E-09 -1.60093E-09 -1.58719E-09 -1.38211E-09 -9.20498E-10 -1.38012E-09 -9.90832E-10 -1.26736E-09 -6.67467E-10
  -1.36757E-09 -1.30372E-09 -1.20979E-09 -1.34612E-09 -1.49904E-09 -1.49467E-09 -1.15517E-09 -8.19324E-10 -1.25685E-09 -4.31839E-10
  -1.19092E-09 -7.56724E-10 -1.03959E-09 -9.71065E-10 -9.10351E-10 -1.10689E-09 -1.58632E-09 -1.15885E-09 -1.03870E-09 -8.64746E-10
  -7.28175E-10 -4.92829E-10 -6.35636E-10 -2.06244E-10 -2.58454E-10 -2.01970E-10 -1.73614E-10 -3.77027E-10 -4.46808E-10 -5.70539E-10
  -1.61646E-09 -1.11932E-09 -1.58141E-09 -1.51113E-09 -1.86629E-09 -1.37639E-09 -1.41522E-09 -1.42075E-09 -6.31836E-10 -1.51371E-10
  -4.31161E-10  3.68340E-10 -9.07873E-11  3.81300E-10  3.77960E-10  7.02275E-10  5.26818E-10  4.19525E-10  7.94179E-12  1.75280E-10
  -2.82990E-10 -8.69682E-11 -9.09237E-10 -6.26019E-10 -1.10323E-09 -5.51923E-10 -8.44101E-10 -5.47395E-10 -1.13294E-09 -1.00535E-09
  -1.04454E-09 -9.67422E-10 -1.04901E-09 -9.81654E-10 -6.34646E-10 -1.12084E-09 -1.11215E-09 -6.82207E-10 -7.73018E-10 -8.55604E-10
  -3.98697E-10 -1.34708E-09 -6.09930E-10 -9.63388E-10 -8.05281E-10 -7.86878E-10 -7.81309E-10 -9.23526E-10 -8.35110E-10 -5.31902E-10
  -1.07648E-09 -5.63667E-10 -5.15196E-10 -6.54816E-10 -4.10256E-10 -4.84838E-10 -6.99372E-10 -3.00038E-12 -5.70350E-10 -4.32401E-10
  -2.20464E-10 -8.70487E-11 -4.83045E-10 -3.67632E-11  6.44991E-11 -1.60984E-10 -4.84094E-10  9.13674E-11 -1.84099E-10  2.47224E-10
  -6.23449E-10  3.16717E-10 -3.51309E-10 -1.83374E-11 -1.48997E-10  5.27637E-10 -2.58343E-10 -2.88521E-10 -1.98716E-10  2.49179E-10
   5.27315E-10 -3.04489E-10 -3.85914E-11  1.99102E-10  1.77364E-11  1.93807E-10  7.38215E-11  2.34847E-10  2.40982E-10 -1.05597E-10
  -2.04873E-10  3.44764E-10  4.23573E-10  2.82930E-11  5.90492E-10  1.59968E-10  1.43071E-10  7.19696E-10  1.52279E-10  3.97189E-10
   1.23575E-10  3.94486E-10 -8.86391E-12
 NY points of the fit to the data follow
   1.67061E-08  1.76751E-08  1.73205E-08  1.49090E-08  1.39611E-08  1.38237E-08  1.34654E-08  1.25206E-08  1.15329E-08  1.14651E-08
   1.17193E-08  1.15786E-08  1.20512E-08  1.28442E-08  1.38040E-08  1.40036E-08  1.30134E-08  1.22353E-08  1.24609E-08  1.23136E-08
   1.12653E-08  1.06941E-08  1.07778E-08  1.05164E-08  1.01043E-08  9.89238E-09  1.05837E-08  1.17973E-08  1.20725E-08  1.17969E-08
   1.14055E-08  1.11999E-08  1.12053E-08  1.12548E-08  1.11956E-08  1.04737E-08  1.02786E-08  9.88859E-09  9.34335E-09  8.87580E-09
   8.69461E-09  8.51762E-09  7.66632E-09  6.81933E-09  6.38299E-09  6.11223E-09  5.92389E-09  5.76808E-09  5.61494E-09  5.44163E-09
   5.28059E-09  5.17098E-09  5.15457E-09  5.14362E-09  5.14026E-09  5.25534E-09  5.40894E-09  5.63178E-09  6.21593E-09  6.87898E-09
   7.42968E-09  7.99115E-09  8.56664E-09  8.87498E-09  9.02501E-09  8.91530E-09  8.42872E-09  8.13984E-09  7.83433E-09  6.73566E-09
   6.00245E-09  5.79378E-09  5.48669E-09  5.14841E-09  5.08047E-09  5.35737E-09  5.79727E-09  6.70081E-09  7.76248E-09  9.13330E-09
   1.09781E-08  1.28563E-08  1.36944E-08  1.33293E-08  1.28213E-08  1.23956E-08  1.18031E-08  1.08933E-08  8.68185E-09  7.35523E-09
   6.62615E-09  6.14144E-09  5.78444E-09  5.50204E-09  5.26688E-09  5.06502E-09  4.89109E-09  4.74214E-09  4.60876E-09  4.48204E-09
   4.36853E-09  4.26887E-09  4.17659E-09  4.08884E-09  4.00743E-09  3.93196E-09  3.86136E-09  3.79508E-09  3.73245E-09  3.67317E-09
   3.61691E-09  3.56340E-09  3.51240E-09  3.46367E-09  3.41692E-09  3.37191E-09  3.32841E-09  3.28621E-09  3.24510E-09  3.20489E-09
   3.16542E-09  3.12650E-09  3.08799E-09  3.04971E-09  3.01153E-09  2.97330E-09  2.93489E-09  2.89615E-09  2.85696E-09  2.81720E-09
   2.77674E-09  2.73546E-09  2.69324E-09  2.64998E-09  2.60556E-09  2.55988E-09  2.51283E-09  2.46433E-09  2.41426E-09  2.36255E-09
   2.30909E-09  2.25389E-09  2.19693E-09  2.13822E-09  2.07777E-09  2.01562E-09  1.95179E-09  1.88635E-09  1.81935E-09  1.75089E-09
   1.68110E-09  1.61011E-09  1.53813E-09  1.46543E-09  1.39235E-09  1.31934E-09  1.24703E-09  1.17627E-09  1.10824E-09  1.04468E-09
   9.88185E-10  9.42834E-10  9.15467E-10  9.18525E-10  9.77951E-10  1.16109E-09  1.72657E-09  3.33256E-09  5.74226E-09  8.55164E-09
   1.26142E-08  1.69756E-08  1.92531E-08  1.83723E-08  1.57572E-08  1.35763E-08  1.24986E-08  1.04330E-08  5.07058E-09  3.12384E-10
  -9.30305E-10 -1.47271E-09 -1.80212E-09 -2.04177E-09 -2.23520E-09 -2.40121E-09 -2.54903E-09 -2.68356E-09 -2.80755E-09 -2.92259E-09
  -3.02961E-09 -3.12911E-09 -3.22135E-09 -3.30640E-09 -3.38426E-09 -3.45481E-09 -3.51800E-09 -3.57408E-09 -3.62333E-09 -3.66602E-09
  -3.70239E-09 -3.73267E-09 -3.75709E-09 -3.77586E-09 -3.78921E-09 -3.79732E-09 -3.80042E-09 -3.79869E-09 -3.79234E-09 -3.78156E-09
  -3.76654E-09 -3.74749E-09 -3.72458E-09 -3.69802E-09 -3.66798E-09 -3.63467E-09 -3.59826E-09 -3.55894E-09 -3.51689E-09 -3.47231E-09
  -3.42538E-09 -3.37627E-09 -3.32516E-09 -3.27225E-09 -3.21770E-09 -3.16163E-09 -3.10419E-09 -3.04548E-09 -2.98566E-09 -2.92484E-09
  -2.86316E-09 -2.80073E-09 -2.73769E-09 -2.67415E-09 -2.61024E-09 -2.54610E-09 -2.48182E-09 -2.41755E-09 -2.35339E-09 -2.28947E-09
  -2.22591E-09 -2.16282E-09 -2.10031E-09 -2.03852E-09 -1.97753E-09 -1.91747E-09 -1.85844E-09 -1.80057E-09 -1.74395E-09 -1.68871E-09
  -1.63492E-09 -1.58272E-09 -1.53213E-09 -1.48314E-09 -1.43570E-09 -1.38980E-09 -1.34538E-09 -1.30243E-09 -1.26090E-09 -1.22077E-09
  -1.18200E-09 -1.14456E-09 -1.10842E-09 -1.07353E-09 -1.03988E-09 -1.00744E-09 -9.76143E-10 -9.45998E-10 -9.16957E-10 -8.88982E-10
  -8.62044E-10 -8.36121E-10 -8.11169E-10 -7.87163E-10 -7.64078E-10 -7.41867E-10 -7.20520E-10 -6.99992E-10 -6.80261E-10 -6.61290E-10
  -6.43051E-10 -6.25511E-10 -6.08634E-10 -5.92385E-10 -5.76734E-10 -5.61646E-10 -5.47090E-10 -5.33031E-10 -5.19438E-10 -5.06283E-10
  -4.93531E-10 -4.81153E-10 -4.69119E-10 -4.57398E-10 -4.45962E-10 -4.34781E-10 -4.23828E-10 -4.13073E-10 -4.02493E-10 -3.92052E-10
  -3.81734E-10 -3.71506E-10 -3.61343E-10 -3.51226E-10 -3.41123E-10 -3.31013E-10 -3.20874E-10 -3.10681E-10 -3.00433E-10 -2.90136E-10
  -2.79798E-10 -2.69425E-10 -2.59023E-10 -2.48600E-10 -2.38162E-10 -2.27716E-10 -2.17269E-10 -2.06827E-10 -1.96396E-10 -1.85983E-10
  -1.75595E-10 -1.65237E-10 -1.54915E-10 -1.44637E-10 -1.34408E-10 -1.24235E-10 -1.14121E-10 -1.04075E-10 -9.41016E-11 -8.42076E-11
  -7.43967E-11 -6.46758E-11 -5.50498E-11 -4.55252E-11 -3.61068E-11 -2.67990E-11 -1.76081E-11 -8.53836E-12  4.05287E-13  9.21829E-12
   1.78954E-11  2.64320E-11  3.48235E-11  4.30659E-11  5.11546E-11  5.90857E-11  6.68539E-11  7.44555E-11  8.18871E-11  8.91445E-11
   9.62239E-11  1.03121E-10  1.09832E-10  1.16354E-10  1.22683E-10  1.28816E-10  1.34749E-10  1.40479E-10  1.46002E-10  1.51316E-10
   1.56418E-10  1.61304E-10  1.65972E-10
 NY background values follow
     3.073E-09    3.074E-09    3.074E-09    3.073E-09    3.073E-09    3.072E-09    3.071E-09    3.069E-09    3.068E-09    3.066E-09
     3.063E-09    3.061E-09    3.058E-09    3.054E-09    3.051E-09    3.047E-09    3.042E-09    3.038E-09    3.033E-09    3.028E-09
     3.022E-09    3.017E-09    3.011E-09    3.004E-09    2.997E-09    2.990E-09    2.983E-09    2.975E-09    2.967E-09    2.959E-09
     2.951E-09    2.942E-09    2.933E-09    2.923E-09    2.913E-09    2.903E-09    2.893E-09    2.883E-09    2.872E-09    2.861E-09
     2.850E-09    2.839E-09    2.827E-09    2.816E-09    2.804E-09    2.792E-09    2.780E-09    2.768E-09    2.755E-09    2.743E-09
     2.730E-09    2.718E-09    2.705E-09    2.692E-09    2.679E-09    2.667E-09    2.654E-09    2.641E-09    2.628E-09    2.615E-09
     2.602E-09    2.590E-09    2.577E-09    2.564E-09    2.551E-09    2.538E-09    2.525E-09    2.513E-09    2.500E-09    2.487E-09
     2.474E-09    2.461E-09    2.449E-09    2.436E-09    2.423E-09    2.411E-09    2.398E-09    2.385E-09    2.373E-09    2.360E-09
     2.347E-09    2.335E-09    2.322E-09    2.310E-09    2.297E-09    2.285E-09    2.273E-09    2.260E-09    2.248E-09    2.236E-09
     2.223E-09    2.211E-09    2.199E-09    2.187E-09    2.175E-09    2.164E-09    2.152E-09    2.140E-09    2.129E-09    2.118E-09
     2.106E-09    2.095E-09    2.084E-09    2.073E-09    2.063E-09    2.052E-09    2.042E-09    2.031E-09    2.021E-09    2.011E-09
     2.002E-09    1.992E-09    1.983E-09    1.974E-09    1.964E-09    1.955E-09    1.946E-09    1.936E-09    1.927E-09    1.916E-09
     1.905E-09    1.894E-09    1.882E-09    1.869E-09    1.856E-09    1.841E-09    1.825E-09    1.808E-09    1.790E-09    1.771E-09
     1.750E-09    1.727E-09    1.703E-09    1.678E-09    1.650E-09    1.620E-09    1.589E-09    1.555E-09    1.519E-09    1.481E-09
     1.441E-09    1.398E-09    1.352E-09    1.305E-09    1.254E-09    1.201E-09    1.146E-09    1.088E-09    1.027E-09    9.643E-10
     8.986E-10    8.303E-10    7.594E-10    6.858E-10    6.095E-10    5.306E-10    4.490E-10    3.646E-10    2.776E-10    1.878E-10
     9.528E-11   -1.579E-14   -9.807E-11   -1.989E-10   -3.026E-10   -4.090E-10   -5.183E-10   -6.303E-10   -7.452E-10   -8.626E-10
    -9.821E-10   -1.103E-09   -1.226E-09   -1.350E-09   -1.475E-09   -1.600E-09   -1.725E-09   -1.850E-09   -1.974E-09   -2.097E-09
    -2.219E-09   -2.339E-09   -2.457E-09   -2.573E-09   -2.686E-09   -2.796E-09   -2.903E-09   -3.005E-09   -3.104E-09   -3.198E-09
    -3.288E-09   -3.372E-09   -3.451E-09   -3.524E-09   -3.591E-09   -3.652E-09   -3.706E-09   -3.753E-09   -3.795E-09   -3.830E-09
    -3.859E-09   -3.882E-09   -3.899E-09   -3.912E-09   -3.918E-09   -3.920E-09   -3.917E-09   -3.910E-09   -3.897E-09   -3.881E-09
    -3.860E-09   -3.836E-09   -3.807E-09   -3.776E-09   -3.740E-09   -3.702E-09   -3.660E-09   -3.616E-09   -3.569E-09   -3.519E-09
    -3.468E-09   -3.414E-09   -3.358E-09   -3.300E-09   -3.241E-09   -3.180E-09   -3.118E-09   -3.055E-09   -2.991E-09   -2.926E-09
    -2.860E-09   -2.793E-09   -2.725E-09   -2.658E-09   -2.590E-09   -2.521E-09   -2.453E-09   -2.384E-09   -2.316E-09   -2.248E-09
    -2.181E-09   -2.114E-09   -2.047E-09   -1.982E-09   -1.917E-09   -1.853E-09   -1.790E-09   -1.729E-09   -1.668E-09   -1.609E-09
    -1.552E-09   -1.496E-09   -1.442E-09   -1.389E-09   -1.338E-09   -1.289E-09   -1.241E-09   -1.195E-09   -1.150E-09   -1.106E-09
    -1.064E-09   -1.023E-09   -9.837E-10   -9.456E-10   -9.086E-10   -8.730E-10   -8.384E-10   -8.051E-10   -7.729E-10   -7.418E-10
    -7.117E-10   -6.827E-10   -6.547E-10   -6.277E-10   -6.016E-10   -5.763E-10   -5.520E-10   -5.285E-10   -5.059E-10   -4.840E-10
    -4.629E-10   -4.425E-10   -4.227E-10   -4.037E-10   -3.852E-10   -3.674E-10   -3.500E-10   -3.332E-10   -3.169E-10   -3.011E-10
    -2.856E-10   -2.706E-10   -2.559E-10   -2.416E-10   -2.275E-10   -2.137E-10   -2.002E-10   -1.869E-10   -1.738E-10   -1.609E-10
    -1.480E-10   -1.353E-10   -1.227E-10   -1.101E-10   -9.761E-11   -8.509E-11   -7.256E-11   -5.999E-11   -4.738E-11   -3.474E-11
    -2.208E-11   -9.395E-12    3.301E-12    1.600E-11    2.870E-11    4.139E-11    5.407E-11    6.673E-11    7.936E-11    9.196E-11
     1.045E-10    1.170E-10    1.295E-10    1.419E-10    1.542E-10    1.665E-10    1.787E-10    1.908E-10    2.028E-10    2.148E-10
     2.266E-10    2.383E-10    2.500E-10    2.615E-10    2.729E-10    2.841E-10    2.953E-10    3.063E-10    3.171E-10    3.278E-10
     3.384E-10    3.488E-10    3.591E-10    3.692E-10    3.791E-10    3.888E-10    3.984E-10    4.078E-10    4.170E-10    4.261E-10
     4.349E-10    4.436E-10    4.520E-10    4.603E-10    4.683E-10    4.761E-10    4.838E-10    4.912E-10    4.984E-10    5.053E-10
     5.121E-10    5.186E-10    5.249E-10
 Cr       Conc. = 4.27E-10
   4.39173E-09  4.61093E-09  4.62054E-09  4.02268E-09  3.73146E-09  3.56871E-09  3.46068E-09  3.38139E-09  3.31920E-09  3.26801E-09
   3.22430E-09  3.18579E-09  3.15098E-09  3.11877E-09  3.08838E-09  3.05916E-09  3.03060E-09  3.00226E-09  2.97373E-09  2.94460E-09
   2.91447E-09  2.88288E-09  2.84934E-09  2.81320E-09  2.77368E-09  2.72978E-09  2.68008E-09  2.62264E-09  2.55477E-09  2.47353E-09
   2.38584E-09  2.46087E-09  2.64560E-09  2.91499E-09  3.47520E-09  4.29349E-09  5.00685E-09  5.30858E-09  5.26791E-09  5.18606E-09
   5.31539E-09  5.40355E-09  4.77001E-09  4.09023E-09  3.78355E-09  3.60193E-09  3.47666E-09  3.38227E-09  3.30692E-09  3.24432E-09
   3.19072E-09  3.14372E-09  3.10177E-09  3.06376E-09  3.02892E-09  2.99661E-09  2.96641E-09  2.93800E-09  2.91110E-09  2.88548E-09
   2.86097E-09  2.83742E-09  2.81472E-09  2.79275E-09  2.77145E-09  2.75075E-09  2.73057E-09  2.71087E-09  2.69161E-09  2.67273E-09
   2.65422E-09  2.63605E-09  2.61818E-09  2.60059E-09  2.58326E-09  2.56619E-09  2.54935E-09  2.53271E-09  2.51628E-09  2.50005E-09
   2.48399E-09  2.46811E-09  2.45237E-09  2.43682E-09  2.42138E-09  2.40611E-09  2.39098E-09  2.37599E-09  2.36115E-09  2.34645E-09
   2.33190E-09  2.31749E-09  2.30324E-09  2.28913E-09  2.27518E-09  2.26138E-09  2.24774E-09  2.23427E-09  2.22095E-09  2.20782E-09
   2.19484E-09  2.18205E-09  2.16943E-09  2.15700E-09  2.14476E-09  2.13270E-09  2.12084E-09  2.10918E-09  2.09773E-09  2.08648E-09
   2.07545E-09  2.06464E-09  2.05403E-09  2.04360E-09  2.03325E-09  2.02289E-09  2.01243E-09  2.00177E-09  1.99082E-09  1.97949E-09
   1.96770E-09  1.95533E-09  1.94231E-09  1.92854E-09  1.91391E-09  1.89835E-09  1.88175E-09  1.86402E-09  1.84507E-09  1.82480E-09
   1.80311E-09  1.77991E-09  1.75510E-09  1.72859E-09  1.70028E-09  1.67008E-09  1.63789E-09  1.60362E-09  1.56718E-09  1.52846E-09
   1.48737E-09  1.44388E-09  1.39797E-09  1.34963E-09  1.29883E-09  1.24555E-09  1.18979E-09  1.13153E-09  1.07075E-09  1.00745E-09
   9.41611E-10  8.73230E-10  8.02308E-10  7.28841E-10  6.52837E-10  5.74308E-10  4.93283E-10  4.09798E-10  3.23922E-10  2.35752E-10
   1.45457E-10  5.33196E-11 -4.01357E-11 -1.33896E-10 -2.25477E-10 -3.06934E-10 -3.37774E-10 -3.31616E-10 -3.15326E-10 -2.35326E-10
  -1.28353E-10 -1.16899E-10 -2.67133E-10 -5.13754E-10 -7.44468E-10 -9.08611E-10 -1.10226E-09 -1.48736E-09 -1.85148E-09 -2.03028E-09
  -2.17295E-09 -2.30346E-09 -2.42764E-09 -2.54730E-09 -2.66304E-09 -2.77499E-09 -2.88307E-09 -2.98709E-09 -3.08679E-09 -3.18190E-09
  -3.27213E-09 -3.35718E-09 -3.43672E-09 -3.51043E-09 -3.57800E-09 -3.63912E-09 -3.69357E-09 -3.74147E-09 -3.78300E-09 -3.81836E-09
  -3.84772E-09 -3.87128E-09 -3.88922E-09 -3.90173E-09 -3.90899E-09 -3.91119E-09 -3.90852E-09 -3.90115E-09 -3.88929E-09 -3.87310E-09
  -3.85278E-09 -3.82851E-09 -3.80048E-09 -3.76887E-09 -3.73387E-09 -3.69565E-09 -3.65441E-09 -3.61032E-09 -3.56357E-09 -3.51434E-09
  -3.46281E-09 -3.40917E-09 -3.35358E-09 -3.29623E-09 -3.23729E-09 -3.17688E-09 -3.11514E-09 -3.05219E-09 -2.98816E-09 -2.92317E-09
  -2.85736E-09 -2.79085E-09 -2.72377E-09 -2.65623E-09 -2.58835E-09 -2.52027E-09 -2.45210E-09 -2.38398E-09 -2.31599E-09 -2.24828E-09
  -2.18096E-09 -2.11415E-09 -2.04795E-09 -1.98250E-09 -1.91788E-09 -1.85423E-09 -1.79164E-09 -1.73023E-09 -1.67011E-09 -1.61139E-09
  -1.55416E-09 -1.49854E-09 -1.44457E-09 -1.39222E-09 -1.34145E-09 -1.29224E-09 -1.24454E-09 -1.19834E-09 -1.15359E-09 -1.11025E-09
  -1.06831E-09 -1.02772E-09 -9.88451E-10 -9.50469E-10 -9.13746E-10 -8.78246E-10 -8.43927E-10 -8.10779E-10 -7.78757E-10 -7.47825E-10
  -7.17952E-10 -6.89117E-10 -6.61275E-10 -6.34401E-10 -6.08471E-10 -5.83436E-10 -5.59286E-10 -5.35977E-10 -5.13486E-10 -4.91775E-10
  -4.70816E-10 -4.50577E-10 -4.31020E-10 -4.12111E-10 -3.93821E-10 -3.76111E-10 -3.58954E-10 -3.42313E-10 -3.26157E-10 -3.10457E-10
  -2.95179E-10 -2.80293E-10 -2.65769E-10 -2.51576E-10 -2.37686E-10 -2.24069E-10 -2.10697E-10 -1.97541E-10 -1.84576E-10 -1.71768E-10
  -1.59100E-10 -1.46538E-10 -1.34059E-10 -1.21640E-10 -1.09253E-10 -9.68751E-11 -8.44838E-11 -7.20538E-11 -5.95852E-11 -4.70834E-11
  -3.45553E-11 -2.20076E-11 -9.44751E-12  3.11955E-12  1.56860E-11  2.82458E-11  4.07923E-11  5.33192E-11  6.58197E-11  7.82886E-11
   9.07180E-11  1.03103E-10  1.15438E-10  1.27715E-10  1.39930E-10  1.52075E-10  1.64145E-10  1.76136E-10  1.88040E-10  1.99852E-10
   2.11568E-10  2.23180E-10  2.34684E-10  2.46074E-10  2.57344E-10  2.68492E-10  2.79510E-10  2.90393E-10  3.01139E-10  3.11740E-10
   3.22194E-10  3.32495E-10  3.42639E-10  3.52621E-10  3.62438E-10  3.72085E-10  3.81558E-10  3.90852E-10  3.99964E-10  4.08890E-10
   4.17627E-10  4.26169E-10  4.34514E-10  4.42658E-10  4.50598E-10  4.58330E-10  4.65851E-10  4.73158E-10  4.80247E-10  4.87116E-10
   4.93761E-10  5.00180E-10  5.06370E-10
 Gln      Conc. = 1.86E-09
   2.32341E-09  2.58137E-09  2.90442E-09  3.37173E-09  3.89427E-09  4.36719E-09  4.75015E-09  5.03338E-09  5.10789E-09  5.13659E-09
   5.19273E-09  4.70688E-09  4.53016E-09  4.33007E-09  4.01825E-09  3.81138E-09  3.66436E-09  3.55168E-09  3.46069E-09  3.38457E-09
   3.31917E-09  3.26169E-09  3.21022E-09  3.16326E-09  3.11986E-09  3.07997E-09  3.04256E-09  3.00663E-09  2.97259E-09  2.93976E-09
   2.90779E-09  2.87646E-09  2.84561E-09  2.81511E-09  2.78481E-09  2.75461E-09  2.72441E-09  2.69410E-09  2.66358E-09  2.63272E-09
   2.60154E-09  2.56984E-09  2.53766E-09  2.50500E-09  2.47184E-09  2.43821E-09  2.40423E-09  2.36952E-09  2.33428E-09  2.29953E-09
   2.26478E-09  2.23169E-09  2.20524E-09  2.19291E-09  2.22154E-09  2.38178E-09  2.59435E-09  2.89448E-09  3.54166E-09  4.25868E-09
   4.81945E-09  5.40910E-09  6.03249E-09  6.49455E-09  6.68241E-09  6.49716E-09  5.93045E-09  5.68350E-09  5.45851E-09  4.54311E-09
   3.91927E-09  3.73633E-09  3.52407E-09  3.38678E-09  3.42709E-09  3.78119E-09  4.21645E-09  4.65172E-09  5.14990E-09  5.60739E-09
   5.96593E-09  6.30361E-09  6.34097E-09  6.06259E-09  5.99457E-09  5.78857E-09  5.13705E-09  4.82235E-09  4.54165E-09  4.15442E-09
   3.88131E-09  3.67896E-09  3.52068E-09  3.39397E-09  3.28752E-09  3.19502E-09  3.11457E-09  3.04347E-09  2.97927E-09  2.92137E-09
   2.86890E-09  2.82060E-09  2.77580E-09  2.73401E-09  2.69489E-09  2.65843E-09  2.62412E-09  2.59169E-09  2.56099E-09  2.53184E-09
   2.50412E-09  2.47770E-09  2.45248E-09  2.42832E-09  2.40506E-09  2.38253E-09  2.36057E-09  2.33904E-09  2.31780E-09  2.29671E-09
   2.27564E-09  2.25445E-09  2.23303E-09  2.21125E-09  2.18899E-09  2.16614E-09  2.14257E-09  2.11818E-09  2.09285E-09  2.06647E-09
   2.03893E-09  2.01012E-09  1.97994E-09  1.94827E-09  1.91502E-09  1.88008E-09  1.84335E-09  1.80472E-09  1.76410E-09  1.72139E-09
   1.67647E-09  1.62934E-09  1.57996E-09  1.52831E-09  1.47438E-09  1.41814E-09  1.35961E-09  1.29875E-09  1.23557E-09  1.17007E-09
   1.10227E-09  1.03215E-09  9.59766E-10  8.85135E-10  8.08313E-10  7.29366E-10  6.48404E-10  5.65562E-10  4.81056E-10  3.95177E-10
   3.08386E-10  2.21389E-10  1.35366E-10  5.23623E-11 -2.35471E-11 -8.29662E-11 -9.71032E-11  7.31966E-11  4.87606E-10  9.11501E-10
   1.60261E-09  2.49384E-09  3.06272E-09  2.92618E-09  2.28701E-09  1.65590E-09  1.31452E-09  9.78312E-10 -1.15955E-10 -1.48889E-09
  -1.89709E-09 -2.12009E-09 -2.28848E-09 -2.43339E-09 -2.56526E-09 -2.68837E-09 -2.80464E-09 -2.91495E-09 -3.01968E-09 -3.11894E-09
  -3.21268E-09 -3.30076E-09 -3.38299E-09 -3.45910E-09 -3.52887E-09 -3.59201E-09 -3.64833E-09 -3.69799E-09 -3.74119E-09 -3.77812E-09
  -3.80900E-09 -3.83401E-09 -3.85334E-09 -3.86720E-09 -3.87577E-09 -3.87924E-09 -3.87780E-09 -3.87164E-09 -3.86095E-09 -3.84591E-09
  -3.82672E-09 -3.80356E-09 -3.77661E-09 -3.74607E-09 -3.71211E-09 -3.67493E-09 -3.63470E-09 -3.59161E-09 -3.54585E-09 -3.49759E-09
  -3.44701E-09 -3.39431E-09 -3.33965E-09 -3.28322E-09 -3.22518E-09 -3.16567E-09 -3.10481E-09 -3.04273E-09 -2.97956E-09 -2.91543E-09
