 LCModel (Version 6.3-1R) Copyright: S.W. Provencher.          Ref.: Magn. Reson. Med. 30:672-679 (1993).                
 onepulse 20x24_ftSpec_smooth_lcm
 26 lines in following concentration table = NCONC+1
    Conc.  %SD   /Cr    Metabolite                                         
 3.32E-11 508%   0.000 Ala                                                 
 2.75E-10 122%   0.000 Asp                                                 
    0.000 999%   0.000 Cr                                                  
 2.63E-09   9%   0.000 GABA                                                
 1.99E-09  13%   0.000 Glc                                                 
    0.000 999%   0.000 Gln                                                 
    0.000 999%   0.000 Glu                                                 
    0.000 999%   0.000 Glyc                                                
    0.000 999%   0.000 GPC                                                 
 1.90E-10  90%   0.000 GSH                                                 
 3.83E-10  48%   0.000 Ins                                                 
    0.000 999%   0.000 Lac                                                 
    0.000 999%   0.000 NAAG                                                
 1.33E-09  10%   0.000 NAA                                                 
 9.99E-11  43%   0.000 PCh                                                 
    0.000 999%   0.000 PCr                                                 
    0.000 999%   0.000 PE                                                  
    0.000 999%   0.000 Scyllo                                              
    0.000 999%   0.000 Ser                                                 
    0.000 999%   0.000 Tau                                                 
 9.99E-11  43%   0.000 GPC+PCh                                             
 1.33E-09  10%   0.000 NAA+NAAG                                            
 3.83E-10  48%   0.000 Ins+Glyc                                            
    0.000 999%   0.000 Cr+PCr                                              
    0.000 999%   0.000 Glu+Gln                                             
   6 lines in following misc. output table
  FWHM = 0.067 ppm    S/N =   5                                            
  Data shift = 0.324 ppm                                                   
  Ph:  40 deg      24.5 deg/ppm                                            
  alphaB,S = 1.5E-01,   7.2E+01                                            
   16 spline knots.   Ns = 5(1)                                            
  ( 9) 2 infls.   ( 5) 1 extrs.                                            
  363 points on ppm-axis = NY
      4.250000     4.238821     4.227641     4.216462     4.205282     4.194103     4.182923     4.171744     4.160564     4.149385
      4.138206     4.127026     4.115847     4.104667     4.093488     4.082308     4.071129     4.059949     4.048770     4.037591
      4.026411     4.015232     4.004052     3.992873     3.981693     3.970514     3.959334     3.948155     3.936975     3.925796
      3.914617     3.903437     3.892258     3.881078     3.869899     3.858719     3.847540     3.836360     3.825181     3.814002
      3.802822     3.791643     3.780463     3.769284     3.758104     3.746925     3.735745     3.724566     3.713387     3.702207
      3.691028     3.679848     3.668669     3.657489     3.646310     3.635130     3.623951     3.612772     3.601592     3.590413
      3.579233     3.568054     3.556874     3.545695     3.534515     3.523336     3.512156     3.500977     3.489798     3.478618
      3.467439     3.456259     3.445080     3.433900     3.422721     3.411541     3.400362     3.389183     3.378003     3.366824
      3.355644     3.344465     3.333285     3.322106     3.310926     3.299747     3.288568     3.277388     3.266209     3.255029
      3.243850     3.232670     3.221491     3.210311     3.199132     3.187953     3.176773     3.165594     3.154414     3.143235
      3.132055     3.120876     3.109696     3.098517     3.087337     3.076158     3.064979     3.053799     3.042620     3.031440
      3.020261     3.009081     2.997902     2.986722     2.975543     2.964364     2.953184     2.942005     2.930825     2.919646
      2.908466     2.897287     2.886107     2.874928     2.863749     2.852569     2.841390     2.830210     2.819031     2.807851
      2.796672     2.785492     2.774313     2.763134     2.751954     2.740775     2.729595     2.718416     2.707236     2.696057
      2.684877     2.673698     2.662519     2.651339     2.640160     2.628980     2.617801     2.606621     2.595442     2.584262
      2.573083     2.561903     2.550724     2.539545     2.528365     2.517186     2.506006     2.494827     2.483647     2.472468
      2.461288     2.450109     2.438930     2.427750     2.416571     2.405391     2.394212     2.383032     2.371853     2.360673
      2.349494     2.338315     2.327135     2.315956     2.304776     2.293597     2.282417     2.271238     2.260058     2.248879
      2.237700     2.226520     2.215341     2.204161     2.192982     2.181802     2.170623     2.159443     2.148264     2.137084
      2.125905     2.114726     2.103546     2.092367     2.081187     2.070008     2.058828     2.047649     2.036469     2.025290
      2.014111     2.002931     1.991752     1.980572     1.969393     1.958213     1.947034     1.935854     1.924675     1.913496
      1.902316     1.891137     1.879957     1.868778     1.857598     1.846419     1.835239     1.824060     1.812881     1.801701
      1.790522     1.779342     1.768163     1.756983     1.745804     1.734624     1.723445     1.712265     1.701086     1.689907
      1.678727     1.667548     1.656368     1.645189     1.634009     1.622830     1.611650     1.600471     1.589292     1.578112
      1.566933     1.555753     1.544574     1.533394     1.522215     1.511035     1.499856     1.488677     1.477497     1.466318
      1.455138     1.443959     1.432779     1.421600     1.410420     1.399241     1.388062     1.376882     1.365703     1.354523
      1.343344     1.332164     1.320985     1.309805     1.298626     1.287446     1.276267     1.265088     1.253908     1.242729
      1.231549     1.220370     1.209190     1.198011     1.186831     1.175652     1.164473     1.153293     1.142114     1.130934
      1.119755     1.108575     1.097396     1.086216     1.075037     1.063858     1.052678     1.041499     1.030319     1.019140
      1.007960     0.996781     0.985601     0.974422     0.963243     0.952063     0.940884     0.929704     0.918525     0.907345
      0.896166     0.884986     0.873807     0.862628     0.851448     0.840269     0.829089     0.817910     0.806730     0.795551
      0.784371     0.773192     0.762012     0.750833     0.739654     0.728474     0.717295     0.706115     0.694936     0.683756
      0.672577     0.661397     0.650218     0.639039     0.627859     0.616680     0.605500     0.594321     0.583141     0.571962
      0.560782     0.549603     0.538424     0.527244     0.516065     0.504885     0.493706     0.482526     0.471347     0.460167
      0.448988     0.437809     0.426629     0.415450     0.404270     0.393091     0.381911     0.370732     0.359552     0.348373
      0.337193     0.326014     0.314835     0.303655     0.292476     0.281296     0.270117     0.258937     0.247758     0.236578
      0.225399     0.214220     0.203040
 NY phased data points follow
   2.52782E-09  6.74446E-09  8.60373E-09  1.13181E-08  1.26438E-08  1.17592E-08  1.05083E-08  9.13818E-09  7.47585E-09  8.04506E-09
   6.52298E-09  7.57134E-09  6.67888E-09  8.24969E-09  7.80048E-09  8.04069E-09  8.57717E-09  9.65280E-09  1.00420E-08  9.37856E-09
   9.05402E-09  9.50264E-09  8.81591E-09  8.29780E-09  7.56273E-09  8.03399E-09  7.38211E-09  8.48769E-09  8.51579E-09  8.94527E-09
   7.36085E-09  7.11100E-09  6.31045E-09  7.92559E-09  8.51308E-09  1.09082E-08  1.14370E-08  1.02660E-08  8.96312E-09  8.12643E-09
   6.69615E-09  6.11514E-09  5.81074E-09  6.15463E-09  4.94409E-09  5.41402E-09  5.37783E-09  5.20986E-09  4.22286E-09  4.32233E-09
   3.22812E-09  3.66329E-09  3.55016E-09  3.86646E-09  3.76864E-09  4.31926E-09  3.90964E-09  3.10636E-09  2.66258E-09  3.13793E-09
   2.79236E-09  3.73539E-09  4.46067E-09  4.69556E-09  5.33969E-09  7.57242E-09  8.48073E-09  1.08807E-08  9.02409E-09  7.78069E-09
   6.48103E-09  5.17843E-09  4.37707E-09  4.28877E-09  3.05334E-09  3.07582E-09  2.98654E-09  2.64185E-09  2.11133E-09  2.99250E-09
   4.01631E-09  7.89377E-09  1.15021E-08  1.43840E-08  1.38452E-08  1.19777E-08  1.02912E-08  8.57596E-09  7.45398E-09  7.25053E-09
   6.63053E-09  6.64769E-09  5.66778E-09  5.60648E-09  5.28048E-09  4.02053E-09  3.67831E-09  3.74319E-09  3.02633E-09  2.91677E-09
   2.37020E-09  2.11989E-09  2.42031E-09  2.24619E-09  2.51189E-09  3.42030E-09  2.41423E-09  2.69170E-09  2.63756E-09  2.43150E-09
   1.86249E-09  1.34599E-09  8.58132E-10  8.50696E-10  5.26444E-10  1.69264E-09  2.12096E-09  2.28928E-09  1.58328E-09  2.40973E-09
   2.61173E-09  2.60425E-09  2.28403E-09  2.48780E-09  2.12036E-09  1.65523E-09  7.26145E-10  5.00798E-10  4.15302E-10  7.09404E-10
   6.66590E-10  1.17818E-09  1.24720E-09  1.55958E-09  1.38204E-09  2.00047E-09  2.03819E-09  2.10939E-09  1.20754E-09  1.82581E-09
   9.07100E-10  2.75873E-09  3.12167E-09  3.91508E-09  3.86935E-09  3.35285E-09  2.38422E-09  3.76790E-09  3.68699E-09  3.66347E-09
   3.74005E-09  3.38609E-09  2.98057E-09  2.71456E-09  2.60779E-09  2.68584E-09  2.27989E-09  2.21091E-09  2.99853E-09  2.88844E-09
   2.90775E-09  3.81488E-09  3.10022E-09  4.07127E-09  3.78491E-09  4.80069E-09  5.08772E-09  4.87599E-09  5.71846E-09  6.38645E-09
   7.28097E-09  9.93296E-09  1.24046E-08  1.60586E-08  1.74318E-08  1.46612E-08  1.06945E-08  8.04352E-09  5.89765E-09  4.59691E-09
   3.44974E-09  2.85652E-09  2.10242E-09  1.28685E-09  1.14493E-09 -7.26896E-10 -3.24583E-10 -1.55849E-09 -1.98239E-09 -2.27522E-09
  -3.92961E-09 -4.05372E-09 -5.06459E-09 -4.89923E-09 -6.70831E-09 -7.37609E-09 -7.87807E-09 -8.37431E-09 -8.59513E-09 -9.46718E-09
  -1.00792E-08 -9.86856E-09 -1.02643E-08 -1.00431E-08 -1.01423E-08 -9.65998E-09 -9.62158E-09 -8.44418E-09 -8.23890E-09 -7.29244E-09
  -6.47070E-09 -5.83705E-09 -5.48590E-09 -3.91894E-09 -3.90115E-09 -2.44281E-09 -2.00259E-09 -1.40482E-09 -1.23483E-09 -1.13820E-09
  -7.34599E-10 -1.23964E-09 -1.81678E-09 -1.50144E-09 -1.52734E-09 -1.56819E-09 -1.47626E-09 -1.63228E-09 -1.45365E-09 -1.47260E-09
  -1.28587E-09 -1.18525E-09 -1.67370E-09 -1.44282E-09 -1.27957E-09 -1.80104E-09 -2.19739E-09 -1.80468E-09 -8.96309E-10 -1.34253E-09
  -1.41255E-09 -1.29646E-09 -1.28606E-09 -1.16180E-09 -1.11301E-09 -1.47576E-09 -1.38914E-09 -1.65511E-09 -1.65901E-09 -1.29929E-09
  -1.62321E-09 -1.10733E-09 -9.27966E-10 -6.58935E-10 -1.18474E-09 -4.04403E-10 -6.52004E-10 -8.66271E-10 -1.01689E-09 -1.32101E-09
  -1.15915E-09 -1.44081E-09 -2.34214E-09 -1.55241E-09 -2.14856E-09 -1.48288E-09 -1.71900E-09 -8.81402E-10 -1.28323E-09 -6.20901E-10
   8.67569E-11 -5.62955E-10 -5.74904E-10 -2.36857E-11 -4.36639E-10  5.91872E-11 -3.88370E-10 -5.15940E-10 -2.91909E-10 -7.85936E-10
  -1.26211E-09 -7.05180E-10 -1.37034E-09 -1.24609E-09 -1.70641E-09 -1.21187E-09 -1.40862E-09 -1.06695E-09 -1.56550E-09 -1.08721E-09
  -1.75150E-09 -8.75565E-10 -1.26181E-09 -1.29775E-09 -1.33130E-09 -7.62146E-10 -8.62923E-10 -1.04814E-09 -7.31140E-10 -3.32349E-10
  -7.01427E-10 -1.17463E-09 -7.54550E-10 -1.21437E-09 -1.75863E-10 -1.29560E-09 -3.94352E-10 -6.51773E-10 -6.52324E-10 -4.80384E-10
  -6.73871E-10 -6.09696E-10 -3.63429E-10  3.37487E-12 -3.49295E-10 -4.33354E-10 -3.22153E-10 -9.50956E-10  1.20714E-10  3.26933E-11
  -3.10862E-10 -5.36962E-10 -2.84469E-10 -3.76358E-10 -1.11395E-10 -4.39139E-10 -3.54260E-10 -5.44525E-10 -2.94835E-10  7.67754E-11
  -2.40308E-10 -6.48324E-10 -3.93458E-10 -1.52784E-10 -5.75353E-10  2.16419E-10  2.43948E-12 -1.07717E-10 -1.07759E-09 -7.06692E-11
  -2.58909E-10  2.66187E-10 -6.52005E-10 -6.13703E-10 -7.53410E-11 -2.38162E-10 -3.97165E-10  9.75099E-11 -3.72765E-10 -2.75487E-10
  -7.00285E-10 -6.64802E-12 -9.44000E-11  8.30763E-11 -4.53612E-10 -4.27644E-10  1.32630E-10 -3.58325E-10 -2.99556E-11 -4.51263E-11
  -5.53194E-10 -3.13589E-10 -3.38390E-10
 NY points of the fit to the data follow
   6.66612E-09  7.42549E-09  8.29974E-09  9.19971E-09  9.92090E-09  1.02082E-08  9.96476E-09  9.27670E-09  8.49870E-09  7.67594E-09
   7.19181E-09  7.11572E-09  7.25072E-09  7.52873E-09  7.88845E-09  8.24491E-09  8.58083E-09  8.97420E-09  9.42431E-09  9.88056E-09
   1.03477E-08  1.05348E-08  1.01718E-08  9.37905E-09  8.37147E-09  7.36511E-09  6.75133E-09  6.84427E-09  7.32599E-09  7.87320E-09
   8.15939E-09  8.27312E-09  8.39187E-09  8.40993E-09  8.42622E-09  8.75224E-09  9.15676E-09  9.35536E-09  9.21299E-09  8.78899E-09
   8.23676E-09  7.52441E-09  6.43250E-09  5.49832E-09  4.87927E-09  4.19604E-09  3.66355E-09  3.45577E-09  3.45235E-09  3.53024E-09
   3.57912E-09  3.56663E-09  3.51765E-09  3.48453E-09  3.53081E-09  3.69203E-09  3.89839E-09  4.07148E-09  4.07761E-09  3.94950E-09
   3.86228E-09  4.01330E-09  4.30846E-09  4.77102E-09  5.55464E-09  6.33373E-09  6.92858E-09  7.44994E-09  7.90291E-09  8.08360E-09
   7.91514E-09  7.30056E-09  6.41773E-09  5.57487E-09  4.60618E-09  3.71101E-09  3.50864E-09  3.75201E-09  4.23359E-09  5.12150E-09
   6.44908E-09  8.25237E-09  1.03833E-08  1.21602E-08  1.29369E-08  1.25776E-08  1.11934E-08  9.13050E-09  7.04856E-09  5.97452E-09
   5.71334E-09  5.63511E-09  5.38327E-09  4.92116E-09  4.61588E-09  4.25788E-09  3.70545E-09  3.31564E-09  3.03964E-09  2.75326E-09
   2.54646E-09  2.41030E-09  2.32130E-09  2.27129E-09  2.24464E-09  2.23046E-09  2.22168E-09  2.21297E-09  2.20100E-09  2.18298E-09
   2.15804E-09  2.13303E-09  2.11726E-09  2.09651E-09  2.07922E-09  2.07988E-09  2.08713E-09  2.09754E-09  2.10983E-09  2.12330E-09
   2.13752E-09  2.15216E-09  2.16692E-09  2.18155E-09  2.19585E-09  2.20963E-09  2.22271E-09  2.23495E-09  2.24619E-09  2.25628E-09
   2.26509E-09  2.27250E-09  2.27836E-09  2.28256E-09  2.28496E-09  2.28545E-09  2.28391E-09  2.28023E-09  2.27431E-09  2.26603E-09
   2.25530E-09  2.24199E-09  2.22598E-09  2.20717E-09  2.18546E-09  2.16076E-09  2.13299E-09  2.10204E-09  2.06785E-09  2.03034E-09
   1.98947E-09  1.94523E-09  1.89760E-09  1.84664E-09  1.79242E-09  1.73510E-09  1.67494E-09  1.61234E-09  1.54795E-09  1.48273E-09
   1.41829E-09  1.35725E-09  1.30429E-09  1.26852E-09  1.27065E-09  1.37306E-09  1.85345E-09  2.89264E-09  4.38428E-09  6.28919E-09
   8.82948E-09  1.19114E-08  1.48739E-08  1.67293E-08  1.66780E-08  1.45272E-08  1.07150E-08  6.17216E-09  2.41274E-09  3.38926E-10
  -4.93817E-10 -9.57809E-10 -1.28996E-09 -1.55855E-09 -1.79057E-09 -1.99877E-09 -2.18981E-09 -2.36741E-09 -2.53367E-09 -2.68981E-09
  -2.83647E-09 -2.97396E-09 -3.10235E-09 -3.22152E-09 -3.33129E-09 -3.43138E-09 -3.52162E-09 -3.60230E-09 -3.67384E-09 -3.73657E-09
  -3.79086E-09 -3.83701E-09 -3.87536E-09 -3.90621E-09 -3.92985E-09 -3.94658E-09 -3.95669E-09 -3.96046E-09 -3.95817E-09 -3.95011E-09
  -3.93654E-09 -3.91773E-09 -3.89397E-09 -3.86552E-09 -3.83264E-09 -3.79562E-09 -3.75471E-09 -3.71017E-09 -3.66229E-09 -3.61131E-09
  -3.55750E-09 -3.50113E-09 -3.44246E-09 -3.38176E-09 -3.31925E-09 -3.25511E-09 -3.18949E-09 -3.12256E-09 -3.05448E-09 -2.98541E-09
  -2.91551E-09 -2.84493E-09 -2.77386E-09 -2.70244E-09 -2.63082E-09 -2.55918E-09 -2.48767E-09 -2.41646E-09 -2.34569E-09 -2.27555E-09
  -2.20618E-09 -2.13773E-09 -2.07038E-09 -2.00430E-09 -1.93960E-09 -1.87649E-09 -1.81510E-09 -1.75560E-09 -1.69816E-09 -1.64293E-09
  -1.59005E-09 -1.53972E-09 -1.49196E-09 -1.44671E-09 -1.40387E-09 -1.36336E-09 -1.32510E-09 -1.28899E-09 -1.25494E-09 -1.22288E-09
  -1.19271E-09 -1.16434E-09 -1.13769E-09 -1.11266E-09 -1.08918E-09 -1.06716E-09 -1.04648E-09 -1.02711E-09 -1.00892E-09 -9.91825E-10
  -9.75745E-10 -9.60601E-10 -9.46288E-10 -9.32727E-10 -9.19839E-10 -9.07513E-10 -8.95687E-10 -8.84258E-10 -8.73147E-10 -8.62256E-10
  -8.51547E-10 -8.41007E-10 -8.30622E-10 -8.20379E-10 -8.10276E-10 -8.00291E-10 -7.90421E-10 -7.80649E-10 -7.70965E-10 -7.61363E-10
  -7.51825E-10 -7.42344E-10 -7.32906E-10 -7.23502E-10 -7.14120E-10 -7.04748E-10 -6.95376E-10 -6.85992E-10 -6.76588E-10 -6.67145E-10
  -6.57661E-10 -6.48119E-10 -6.38507E-10 -6.28821E-10 -6.19044E-10 -6.09163E-10 -5.99173E-10 -5.89057E-10 -5.78825E-10 -5.68492E-10
  -5.58070E-10 -5.47577E-10 -5.37027E-10 -5.26432E-10 -5.15811E-10 -5.05176E-10 -4.94542E-10 -4.83924E-10 -4.73339E-10 -4.62798E-10
  -4.52321E-10 -4.41916E-10 -4.31601E-10 -4.21395E-10 -4.11304E-10 -4.01353E-10 -3.91550E-10 -3.81909E-10 -3.72449E-10 -3.63187E-10
  -3.54128E-10 -3.45295E-10 -3.36699E-10 -3.28358E-10 -3.20286E-10 -3.12491E-10 -3.04971E-10 -2.97715E-10 -2.90708E-10 -2.83939E-10
  -2.77395E-10 -2.71063E-10 -2.64930E-10 -2.58985E-10 -2.53217E-10 -2.47609E-10 -2.42154E-10 -2.36836E-10 -2.31644E-10 -2.26565E-10
  -2.21585E-10 -2.16696E-10 -2.11881E-10 -2.07130E-10 -2.02430E-10 -1.97770E-10 -1.93135E-10 -1.88512E-10 -1.83891E-10 -1.79261E-10
  -1.74607E-10 -1.69919E-10 -1.65178E-10
 NY background values follow
     9.541E-10    9.435E-10    9.329E-10    9.223E-10    9.116E-10    9.009E-10    8.901E-10    8.793E-10    8.684E-10    8.574E-10
     8.464E-10    8.352E-10    8.241E-10    8.128E-10    8.014E-10    7.900E-10    7.785E-10    7.669E-10    7.551E-10    7.433E-10
     7.314E-10    7.194E-10    7.072E-10    6.949E-10    6.826E-10    6.700E-10    6.574E-10    6.446E-10    6.317E-10    6.187E-10
     6.055E-10    5.923E-10    5.790E-10    5.657E-10    5.523E-10    5.390E-10    5.257E-10    5.124E-10    4.992E-10    4.862E-10
     4.732E-10    4.604E-10    4.478E-10    4.354E-10    4.232E-10    4.113E-10    3.997E-10    3.883E-10    3.773E-10    3.666E-10
     3.562E-10    3.463E-10    3.368E-10    3.277E-10    3.191E-10    3.110E-10    3.034E-10    2.963E-10    2.898E-10    2.839E-10
     2.785E-10    2.737E-10    2.696E-10    2.661E-10    2.632E-10    2.610E-10    2.595E-10    2.587E-10    2.585E-10    2.592E-10
     2.605E-10    2.626E-10    2.655E-10    2.692E-10    2.737E-10    2.791E-10    2.852E-10    2.922E-10    3.001E-10    3.089E-10
     3.186E-10    3.293E-10    3.408E-10    3.533E-10    3.668E-10    3.813E-10    3.966E-10    4.129E-10    4.301E-10    4.481E-10
     4.669E-10    4.865E-10    5.069E-10    5.280E-10    5.498E-10    5.722E-10    5.953E-10    6.190E-10    6.433E-10    6.681E-10
     6.934E-10    7.192E-10    7.455E-10    7.722E-10    7.993E-10    8.267E-10    8.545E-10    8.826E-10    9.109E-10    9.395E-10
     9.683E-10    9.973E-10    1.026E-09    1.056E-09    1.085E-09    1.114E-09    1.143E-09    1.171E-09    1.199E-09    1.227E-09
     1.254E-09    1.280E-09    1.305E-09    1.329E-09    1.353E-09    1.375E-09    1.395E-09    1.415E-09    1.433E-09    1.449E-09
     1.464E-09    1.477E-09    1.488E-09    1.497E-09    1.503E-09    1.508E-09    1.510E-09    1.510E-09    1.508E-09    1.502E-09
     1.494E-09    1.484E-09    1.470E-09    1.453E-09    1.433E-09    1.410E-09    1.383E-09    1.353E-09    1.319E-09    1.281E-09
     1.239E-09    1.193E-09    1.144E-09    1.089E-09    1.031E-09    9.680E-10    9.005E-10    8.282E-10    7.511E-10    6.690E-10
     5.819E-10    4.895E-10    3.919E-10    2.888E-10    1.802E-10    6.591E-11   -5.415E-11   -1.801E-10   -3.120E-10   -4.494E-10
    -5.918E-10   -7.386E-10   -8.894E-10   -1.043E-09   -1.200E-09   -1.360E-09   -1.521E-09   -1.683E-09   -1.846E-09   -2.009E-09
    -2.171E-09   -2.333E-09   -2.493E-09   -2.651E-09   -2.806E-09   -2.959E-09   -3.108E-09   -3.252E-09   -3.392E-09   -3.526E-09
    -3.655E-09   -3.778E-09   -3.893E-09   -4.001E-09   -4.101E-09   -4.193E-09   -4.275E-09   -4.349E-09   -4.415E-09   -4.472E-09
    -4.522E-09   -4.563E-09   -4.597E-09   -4.624E-09   -4.645E-09   -4.658E-09   -4.665E-09   -4.666E-09   -4.661E-09   -4.650E-09
    -4.635E-09   -4.614E-09   -4.588E-09   -4.557E-09   -4.522E-09   -4.484E-09   -4.441E-09   -4.395E-09   -4.345E-09   -4.293E-09
    -4.238E-09   -4.180E-09   -4.120E-09   -4.058E-09   -3.994E-09   -3.929E-09   -3.862E-09   -3.794E-09   -3.725E-09   -3.655E-09
    -3.584E-09   -3.512E-09   -3.440E-09   -3.368E-09   -3.295E-09   -3.223E-09   -3.150E-09   -3.078E-09   -3.007E-09   -2.936E-09
    -2.865E-09   -2.796E-09   -2.728E-09   -2.661E-09   -2.596E-09   -2.532E-09   -2.470E-09   -2.410E-09   -2.352E-09   -2.296E-09
    -2.242E-09   -2.191E-09   -2.143E-09   -2.097E-09   -2.053E-09   -2.012E-09   -1.973E-09   -1.937E-09   -1.902E-09   -1.870E-09
    -1.839E-09   -1.810E-09   -1.783E-09   -1.757E-09   -1.733E-09   -1.711E-09   -1.689E-09   -1.669E-09   -1.651E-09   -1.633E-09
    -1.617E-09   -1.601E-09   -1.586E-09   -1.572E-09   -1.559E-09   -1.546E-09   -1.534E-09   -1.522E-09   -1.510E-09   -1.499E-09
    -1.488E-09   -1.477E-09   -1.466E-09   -1.455E-09   -1.444E-09   -1.434E-09   -1.424E-09   -1.414E-09   -1.403E-09   -1.393E-09
    -1.383E-09   -1.373E-09   -1.364E-09   -1.354E-09   -1.344E-09   -1.334E-09   -1.324E-09   -1.315E-09   -1.305E-09   -1.295E-09
    -1.285E-09   -1.275E-09   -1.265E-09   -1.255E-09   -1.245E-09   -1.235E-09   -1.224E-09   -1.214E-09   -1.203E-09   -1.192E-09
    -1.181E-09   -1.171E-09   -1.160E-09   -1.149E-09   -1.138E-09   -1.127E-09   -1.116E-09   -1.105E-09   -1.094E-09   -1.083E-09
    -1.072E-09   -1.061E-09   -1.050E-09   -1.040E-09   -1.029E-09   -1.019E-09   -1.009E-09   -9.988E-10   -9.889E-10   -9.793E-10
    -9.699E-10   -9.606E-10   -9.517E-10   -9.429E-10   -9.345E-10   -9.263E-10   -9.184E-10   -9.108E-10   -9.034E-10   -8.962E-10
    -8.893E-10   -8.826E-10   -8.761E-10   -8.698E-10   -8.636E-10   -8.576E-10   -8.518E-10   -8.461E-10   -8.405E-10   -8.351E-10
    -8.297E-10   -8.244E-10   -8.192E-10   -8.141E-10   -8.090E-10   -8.040E-10   -7.989E-10   -7.939E-10   -7.889E-10   -7.839E-10
    -7.788E-10   -7.738E-10   -7.686E-10
 Ala      Conc. = 3.32E-11
   9.75452E-10  9.67951E-10  9.59793E-10  9.51035E-10  9.41429E-10  9.31110E-10  9.19620E-10  9.06145E-10  8.92843E-10  8.79947E-10
   8.64739E-10  8.49897E-10  8.36734E-10  8.23036E-10  8.09508E-10  7.96738E-10  7.84316E-10  7.72055E-10  7.59855E-10  7.47662E-10
   7.35439E-10  7.23162E-10  7.10816E-10  6.98384E-10  6.85855E-10  6.73225E-10  6.60483E-10  6.47620E-10  6.34634E-10  6.21525E-10
   6.08315E-10  5.95022E-10  5.81673E-10  5.68290E-10  5.54896E-10  5.41515E-10  5.28171E-10  5.14888E-10  5.01688E-10  4.88595E-10
   4.75635E-10  4.62827E-10  4.50201E-10  4.37776E-10  4.25581E-10  4.13633E-10  4.01961E-10  3.90590E-10  3.79538E-10  3.68834E-10
   3.58502E-10  3.48561E-10  3.39041E-10  3.29963E-10  3.21359E-10  3.13235E-10  3.05626E-10  2.98555E-10  2.92036E-10  2.86086E-10
   2.80720E-10  2.75955E-10  2.71807E-10  2.68292E-10  2.65426E-10  2.63226E-10  2.61707E-10  2.60886E-10  2.60780E-10  2.61404E-10
   2.62774E-10  2.64908E-10  2.67821E-10  2.71530E-10  2.76050E-10  2.81400E-10  2.87596E-10  2.94652E-10  3.02587E-10  3.11419E-10
   3.21160E-10  3.31834E-10  3.43451E-10  3.56037E-10  3.69600E-10  3.84145E-10  3.99642E-10  4.16065E-10  4.33391E-10  4.51594E-10
   4.70656E-10  4.90558E-10  5.11289E-10  5.32846E-10  5.55241E-10  5.78510E-10  6.02742E-10  6.28137E-10  6.55203E-10  6.85616E-10
   7.22399E-10  7.59783E-10  8.01128E-10  8.53020E-10  9.08478E-10  9.61864E-10  1.00942E-09  1.04829E-09  1.07711E-09  1.09456E-09
   1.10106E-09  1.10401E-09  1.11312E-09  1.11456E-09  1.11709E-09  1.13555E-09  1.15901E-09  1.18428E-09  1.21018E-09  1.23617E-09
   1.26190E-09  1.28715E-09  1.31172E-09  1.33546E-09  1.35824E-09  1.37992E-09  1.40039E-09  1.41953E-09  1.43722E-09  1.45336E-09
   1.46784E-09  1.48054E-09  1.49136E-09  1.50020E-09  1.50694E-09  1.51149E-09  1.51373E-09  1.51356E-09  1.51088E-09  1.50558E-09
   1.49756E-09  1.48669E-09  1.47287E-09  1.45598E-09  1.43590E-09  1.41250E-09  1.38568E-09  1.35532E-09  1.32129E-09  1.28348E-09
   1.24178E-09  1.19606E-09  1.14621E-09  1.09211E-09  1.03365E-09  9.70706E-10  9.03166E-10  8.30912E-10  7.53834E-10  6.71813E-10
   5.84743E-10  4.92516E-10  3.95043E-10  2.92236E-10  1.84074E-10  7.06947E-11 -4.68891E-11 -1.65912E-10 -2.89828E-10 -4.17374E-10
  -5.45927E-10 -6.75698E-10 -8.10111E-10 -9.54330E-10 -1.11205E-09 -1.28304E-09 -1.46383E-09 -1.64920E-09 -1.83094E-09 -1.99944E-09
  -2.16422E-09 -2.32700E-09 -2.48784E-09 -2.64641E-09 -2.80227E-09 -2.95492E-09 -3.10387E-09 -3.24858E-09 -3.38853E-09 -3.52318E-09
  -3.65200E-09 -3.77446E-09 -3.89002E-09 -3.99814E-09 -4.09828E-09 -4.18990E-09 -4.27264E-09 -4.34664E-09 -4.41216E-09 -4.46948E-09
  -4.51884E-09 -4.56050E-09 -4.59473E-09 -4.62178E-09 -4.64192E-09 -4.65540E-09 -4.66248E-09 -4.66343E-09 -4.65850E-09 -4.64795E-09
  -4.63204E-09 -4.61102E-09 -4.58517E-09 -4.55474E-09 -4.51998E-09 -4.48116E-09 -4.43854E-09 -4.39237E-09 -4.34292E-09 -4.29045E-09
  -4.23520E-09 -4.17745E-09 -4.11745E-09 -4.05547E-09 -3.99172E-09 -3.92639E-09 -3.85961E-09 -3.79156E-09 -3.72240E-09 -3.65227E-09
  -3.58135E-09 -3.50979E-09 -3.43775E-09 -3.36539E-09 -3.29286E-09 -3.22033E-09 -3.14795E-09 -3.07589E-09 -3.00429E-09 -2.93334E-09
  -2.86318E-09 -2.79396E-09 -2.72585E-09 -2.65901E-09 -2.59359E-09 -2.52976E-09 -2.46768E-09 -2.40749E-09 -2.34937E-09 -2.29347E-09
  -2.23994E-09 -2.18897E-09 -2.14058E-09 -2.09470E-09 -2.05125E-09 -2.01014E-09 -1.97128E-09 -1.93458E-09 -1.89996E-09 -1.86732E-09
  -1.83659E-09 -1.80766E-09 -1.78047E-09 -1.75490E-09 -1.73088E-09 -1.70833E-09 -1.68713E-09 -1.66724E-09 -1.64854E-09 -1.63094E-09
  -1.61436E-09 -1.59872E-09 -1.58391E-09 -1.56987E-09 -1.55650E-09 -1.54369E-09 -1.53139E-09 -1.51950E-09 -1.50792E-09 -1.49657E-09
  -1.48540E-09 -1.47441E-09 -1.46357E-09 -1.45288E-09 -1.44233E-09 -1.43191E-09 -1.42160E-09 -1.41139E-09 -1.40128E-09 -1.39124E-09
  -1.38128E-09 -1.37137E-09 -1.36151E-09 -1.35169E-09 -1.34189E-09 -1.33211E-09 -1.32232E-09 -1.31253E-09 -1.30271E-09 -1.29286E-09
  -1.28297E-09 -1.27303E-09 -1.26301E-09 -1.25293E-09 -1.24275E-09 -1.23247E-09 -1.22209E-09 -1.21158E-09 -1.20095E-09 -1.19023E-09
  -1.17941E-09 -1.16853E-09 -1.15759E-09 -1.14661E-09 -1.13560E-09 -1.12458E-09 -1.11356E-09 -1.10256E-09 -1.09159E-09 -1.08067E-09
  -1.06981E-09 -1.05902E-09 -1.04833E-09 -1.03774E-09 -1.02727E-09 -1.01694E-09 -1.00676E-09 -9.96736E-10 -9.86898E-10 -9.77256E-10
  -9.67820E-10 -9.58609E-10 -9.49635E-10 -9.40916E-10 -9.32466E-10 -9.24293E-10 -9.16396E-10 -9.08762E-10 -9.01377E-10 -8.94230E-10
  -8.87307E-10 -8.80596E-10 -8.74085E-10 -8.67761E-10 -8.61614E-10 -8.55626E-10 -8.49791E-10 -8.44092E-10 -8.38519E-10 -8.33059E-10
  -8.27697E-10 -8.22424E-10 -8.17226E-10 -8.12091E-10 -8.07006E-10 -8.01960E-10 -7.96939E-10 -7.91929E-10 -7.86920E-10 -7.81901E-10
  -7.76857E-10 -7.71777E-10 -7.66645E-10
 Asp      Conc. = 2.75E-10
   1.30290E-09  1.26067E-09  1.21527E-09  1.16039E-09  1.10369E-09  1.04084E-09  9.87609E-10  9.44098E-10  9.17216E-10  8.96982E-10
   8.80116E-10  8.65230E-10  8.51598E-10  8.38726E-10  8.26130E-10  8.13688E-10  8.01400E-10  7.89228E-10  7.77136E-10  7.65095E-10
   7.53088E-10  7.41099E-10  7.29125E-10  7.17158E-10  7.05201E-10  6.93266E-10  6.81362E-10  6.69510E-10  6.57744E-10  6.46117E-10
   6.34721E-10  6.23681E-10  6.13179E-10  6.03493E-10  5.95102E-10  5.88987E-10  5.87493E-10  5.88244E-10  5.94439E-10  6.02728E-10
   6.12678E-10  6.23053E-10  6.31335E-10  6.36755E-10  6.36810E-10  6.43711E-10  6.54522E-10  6.83416E-10  7.49240E-10  8.24416E-10
   8.84725E-10  9.01721E-10  8.69574E-10  7.98251E-10  7.11796E-10  6.37476E-10  5.77581E-10  5.45794E-10  4.99775E-10  4.45949E-10
   4.18828E-10  4.06836E-10  3.97516E-10  3.92364E-10  3.84352E-10  3.65976E-10  3.41421E-10  3.26649E-10  3.17300E-10  3.11252E-10
   3.07541E-10  3.05661E-10  3.05318E-10  3.06331E-10  3.08581E-10  3.11992E-10  3.16512E-10  3.22104E-10  3.28748E-10  3.36432E-10
   3.45143E-10  3.54884E-10  3.65650E-10  3.77451E-10  3.90286E-10  4.04146E-10  4.18993E-10  4.34790E-10  4.51502E-10  4.69095E-10
   4.87536E-10  5.06790E-10  5.26824E-10  5.47607E-10  5.69105E-10  5.91287E-10  6.14121E-10  6.37575E-10  6.61618E-10  6.86220E-10
   7.11347E-10  7.36971E-10  7.63058E-10  7.89580E-10  8.16504E-10  8.43800E-10  8.71438E-10  8.99387E-10  9.27616E-10  9.56096E-10
   9.84796E-10  1.01368E-09  1.04273E-09  1.07185E-09  1.10096E-09  1.12994E-09  1.15869E-09  1.18710E-09  1.21508E-09  1.24252E-09
   1.26930E-09  1.29534E-09  1.32053E-09  1.34475E-09  1.36791E-09  1.38991E-09  1.41063E-09  1.42998E-09  1.44785E-09  1.46414E-09
   1.47874E-09  1.49155E-09  1.50247E-09  1.51139E-09  1.51820E-09  1.52281E-09  1.52511E-09  1.52500E-09  1.52237E-09  1.51711E-09
   1.50913E-09  1.49832E-09  1.48454E-09  1.46770E-09  1.44766E-09  1.42432E-09  1.39756E-09  1.36726E-09  1.33330E-09  1.29558E-09
   1.25397E-09  1.20837E-09  1.15865E-09  1.10471E-09  1.04644E-09  9.83730E-10  9.16476E-10  8.44578E-10  7.67951E-10  6.86511E-10
   6.00205E-10  5.09015E-10  4.12997E-10  3.12345E-10  2.07638E-10  1.00627E-10 -1.22288E-12 -7.10887E-11 -1.37397E-10 -1.95081E-10
  -2.25502E-10 -2.31934E-10 -2.44836E-10 -3.10966E-10 -4.67172E-10 -7.18024E-10 -1.04027E-09 -1.39597E-09 -1.72414E-09 -1.93902E-09
  -2.12110E-09 -2.29273E-09 -2.45887E-09 -2.62094E-09 -2.77925E-09 -2.93372E-09 -3.08405E-09 -3.22984E-09 -3.37065E-09 -3.50601E-09
  -3.63542E-09 -3.75838E-09 -3.87436E-09 -3.98284E-09 -4.08329E-09 -4.17519E-09 -4.25817E-09 -4.33238E-09 -4.39810E-09 -4.45559E-09
  -4.50510E-09 -4.54691E-09 -4.58126E-09 -4.60844E-09 -4.62868E-09 -4.64226E-09 -4.64944E-09 -4.65047E-09 -4.64562E-09 -4.63514E-09
  -4.61930E-09 -4.59835E-09 -4.57256E-09 -4.54218E-09 -4.50748E-09 -4.46871E-09 -4.42614E-09 -4.38002E-09 -4.33061E-09 -4.27818E-09
  -4.22297E-09 -4.16526E-09 -4.10529E-09 -4.04334E-09 -3.97963E-09 -3.91433E-09 -3.84758E-09 -3.77956E-09 -3.71042E-09 -3.64033E-09
