 LCModel (Version 6.3-1R) Copyright: S.W. Provencher.          Ref.: Magn. Reson. Med. 30:672-679 (1993).                
 onepulse 20x29_ftSpec_smooth_lcm
 26 lines in following concentration table = NCONC+1
    Conc.  %SD   /Cr    Metabolite                                         
    0.000 999%   0.000 Ala                                                 
    0.000 999%   0.000 Asp                                                 
    0.000 999%   0.000 Cr                                                  
    0.000 999%   0.000 GABA                                                
    0.000 999%   0.000 Glc                                                 
 1.09E-09  72%   0.000 Gln                                                 
    0.000 999%   0.000 Glu                                                 
    0.000 999%   0.000 Glyc                                                
 1.09E-10 763%   0.000 GPC                                                 
 8.22E-10  56%   0.000 GSH                                                 
 1.84E-09  30%   0.000 Ins                                                 
    0.000 999%   0.000 Lac                                                 
 4.42E-10  55%   0.000 NAAG                                                
    0.000 999%   0.000 NAA                                                 
 2.39E-11 999%   0.000 PCh                                                 
    0.000 999%   0.000 PCr                                                 
    0.000 999%   0.000 PE                                                  
 3.78E-10  81%   0.000 Scyllo                                              
 5.74E-09  17%   0.000 Ser                                                 
 1.21E-10 811%   0.000 Tau                                                 
 1.33E-10  98%   0.000 GPC+PCh                                             
 4.42E-10  55%   0.000 NAA+NAAG                                            
 1.84E-09  30%   0.000 Ins+Glyc                                            
    0.000 999%   0.000 Cr+PCr                                              
 1.09E-09  72%   0.000 Glu+Gln                                             
   6 lines in following misc. output table
  FWHM = 0.123 ppm    S/N =   3                                            
  Data shift = 0.425 ppm                                                   
  Ph: -49 deg     -52.6 deg/ppm                                            
  alphaB,S = 1.3E+00,   1.7E+01                                            
    8 spline knots.   Ns = 5(1)                                            
  (10) 4 infls.   ( 9) 3 extrs.                                            
  363 points on ppm-axis = NY
      4.250000     4.238821     4.227641     4.216462     4.205282     4.194103     4.182923     4.171744     4.160564     4.149385
      4.138206     4.127026     4.115847     4.104667     4.093488     4.082308     4.071129     4.059949     4.048770     4.037591
      4.026411     4.015232     4.004052     3.992873     3.981693     3.970514     3.959334     3.948155     3.936975     3.925796
      3.914617     3.903437     3.892258     3.881078     3.869899     3.858719     3.847540     3.836360     3.825181     3.814002
      3.802822     3.791643     3.780463     3.769284     3.758104     3.746925     3.735745     3.724566     3.713387     3.702207
      3.691028     3.679848     3.668669     3.657489     3.646310     3.635130     3.623951     3.612772     3.601592     3.590413
      3.579233     3.568054     3.556874     3.545695     3.534515     3.523336     3.512156     3.500977     3.489798     3.478618
      3.467439     3.456259     3.445080     3.433900     3.422721     3.411541     3.400362     3.389183     3.378003     3.366824
      3.355644     3.344465     3.333285     3.322106     3.310926     3.299747     3.288568     3.277388     3.266209     3.255029
      3.243850     3.232670     3.221491     3.210311     3.199132     3.187953     3.176773     3.165594     3.154414     3.143235
      3.132055     3.120876     3.109696     3.098517     3.087337     3.076158     3.064979     3.053799     3.042620     3.031440
      3.020261     3.009081     2.997902     2.986722     2.975543     2.964364     2.953184     2.942005     2.930825     2.919646
      2.908466     2.897287     2.886107     2.874928     2.863749     2.852569     2.841390     2.830210     2.819031     2.807851
      2.796672     2.785492     2.774313     2.763134     2.751954     2.740775     2.729595     2.718416     2.707236     2.696057
      2.684877     2.673698     2.662519     2.651339     2.640160     2.628980     2.617801     2.606621     2.595442     2.584262
      2.573083     2.561903     2.550724     2.539545     2.528365     2.517186     2.506006     2.494827     2.483647     2.472468
      2.461288     2.450109     2.438930     2.427750     2.416571     2.405391     2.394212     2.383032     2.371853     2.360673
      2.349494     2.338315     2.327135     2.315956     2.304776     2.293597     2.282417     2.271238     2.260058     2.248879
      2.237700     2.226520     2.215341     2.204161     2.192982     2.181802     2.170623     2.159443     2.148264     2.137084
      2.125905     2.114726     2.103546     2.092367     2.081187     2.070008     2.058828     2.047649     2.036469     2.025290
      2.014111     2.002931     1.991752     1.980572     1.969393     1.958213     1.947034     1.935854     1.924675     1.913496
      1.902316     1.891137     1.879957     1.868778     1.857598     1.846419     1.835239     1.824060     1.812881     1.801701
      1.790522     1.779342     1.768163     1.756983     1.745804     1.734624     1.723445     1.712265     1.701086     1.689907
      1.678727     1.667548     1.656368     1.645189     1.634009     1.622830     1.611650     1.600471     1.589292     1.578112
      1.566933     1.555753     1.544574     1.533394     1.522215     1.511035     1.499856     1.488677     1.477497     1.466318
      1.455138     1.443959     1.432779     1.421600     1.410420     1.399241     1.388062     1.376882     1.365703     1.354523
      1.343344     1.332164     1.320985     1.309805     1.298626     1.287446     1.276267     1.265088     1.253908     1.242729
      1.231549     1.220370     1.209190     1.198011     1.186831     1.175652     1.164473     1.153293     1.142114     1.130934
      1.119755     1.108575     1.097396     1.086216     1.075037     1.063858     1.052678     1.041499     1.030319     1.019140
      1.007960     0.996781     0.985601     0.974422     0.963243     0.952063     0.940884     0.929704     0.918525     0.907345
      0.896166     0.884986     0.873807     0.862628     0.851448     0.840269     0.829089     0.817910     0.806730     0.795551
      0.784371     0.773192     0.762012     0.750833     0.739654     0.728474     0.717295     0.706115     0.694936     0.683756
      0.672577     0.661397     0.650218     0.639039     0.627859     0.616680     0.605500     0.594321     0.583141     0.571962
      0.560782     0.549603     0.538424     0.527244     0.516065     0.504885     0.493706     0.482526     0.471347     0.460167
      0.448988     0.437809     0.426629     0.415450     0.404270     0.393091     0.381911     0.370732     0.359552     0.348373
      0.337193     0.326014     0.314835     0.303655     0.292476     0.281296     0.270117     0.258937     0.247758     0.236578
      0.225399     0.214220     0.203040
 NY phased data points follow
   9.94243E-09  9.30932E-09  9.69015E-09  8.55789E-09  9.78689E-09  9.32127E-09  1.03821E-08  1.02996E-08  1.09728E-08  1.09113E-08
   1.10754E-08  1.06340E-08  1.12126E-08  1.08318E-08  1.11486E-08  9.47892E-09  1.05088E-08  9.50509E-09  1.06306E-08  1.00727E-08
   1.13195E-08  9.89021E-09  1.02297E-08  8.65061E-09  1.00884E-08  1.06272E-08  1.25183E-08  1.27237E-08  1.29499E-08  1.20312E-08
   1.17230E-08  1.04511E-08  1.13370E-08  9.95753E-09  1.05315E-08  9.74054E-09  1.01601E-08  9.64974E-09  9.99249E-09  9.00075E-09
   9.28846E-09  8.34539E-09  8.28153E-09  7.82747E-09  8.25944E-09  7.76178E-09  8.50343E-09  7.63481E-09  7.89387E-09  6.60966E-09
   7.04471E-09  6.44187E-09  6.94981E-09  6.34995E-09  5.94469E-09  6.67600E-09  7.53815E-09  8.78593E-09  1.08762E-08  9.95332E-09
   1.03398E-08  9.68711E-09  9.18298E-09  8.41402E-09  8.64405E-09  6.90517E-09  7.27802E-09  6.49114E-09  6.23626E-09  5.12904E-09
   4.31704E-09  3.57575E-09  5.97628E-09  8.17813E-09  1.21093E-08  1.35465E-08  1.35661E-08  1.27175E-08  1.32140E-08  1.21062E-08
   1.27346E-08  1.14797E-08  1.14908E-08  1.15068E-08  1.18958E-08  1.10432E-08  1.11551E-08  1.07309E-08  1.08184E-08  1.03050E-08
   1.02747E-08  9.51734E-09  9.60580E-09  9.18769E-09  8.80649E-09  8.88391E-09  9.74444E-09  8.50542E-09  8.61279E-09  8.55171E-09
   8.98952E-09  9.09956E-09  8.31368E-09  7.60486E-09  7.49904E-09  6.09000E-09  6.96317E-09  6.28265E-09  6.73352E-09  6.20170E-09
   6.54755E-09  6.44381E-09  6.57703E-09  6.50482E-09  7.26330E-09  7.08643E-09  7.29545E-09  6.37694E-09  6.09410E-09  4.66979E-09
   5.24519E-09  4.40266E-09  4.79126E-09  4.39589E-09  4.59608E-09  4.39733E-09  4.39650E-09  4.14513E-09  4.57130E-09  4.08481E-09
   3.74006E-09  2.56353E-09  3.69517E-09  3.67276E-09  5.46627E-09  5.34815E-09  5.82809E-09  5.06481E-09  5.76516E-09  6.27709E-09
   6.65463E-09  7.39428E-09  7.63680E-09  7.06485E-09  7.83700E-09  7.89294E-09  7.57609E-09  6.78335E-09  7.34907E-09  7.35073E-09
   7.17243E-09  7.09578E-09  7.73528E-09  7.21383E-09  6.98167E-09  6.93148E-09  7.92207E-09  7.08485E-09  7.14511E-09  6.92980E-09
   7.38700E-09  6.19887E-09  6.27298E-09  6.78548E-09  1.00798E-08  1.46757E-08  1.80410E-08  1.84434E-08  1.85952E-08  1.80205E-08
   1.81730E-08  1.85167E-08  1.79720E-08  1.77539E-08  1.81772E-08  1.75627E-08  1.76594E-08  1.68197E-08  1.71368E-08  1.66108E-08
   1.60287E-08  1.47084E-08  1.39204E-08  1.23236E-08  1.18617E-08  9.35231E-09  7.74801E-09  5.48925E-09  3.66289E-09  2.04895E-10
  -1.36040E-09 -4.43523E-09 -6.42210E-09 -9.35061E-09 -1.06186E-08 -1.26146E-08 -1.36295E-08 -1.46155E-08 -1.47111E-08 -1.44498E-08
  -1.35388E-08 -1.30936E-08 -1.03211E-08 -9.55292E-09 -6.97800E-09 -6.05504E-09 -4.41341E-09 -3.53692E-09 -2.21875E-09 -2.02737E-09
  -1.72839E-09 -1.67543E-09 -1.71513E-09 -2.49688E-09 -1.91602E-09 -2.14293E-09 -1.97794E-09 -2.16565E-09 -1.03244E-09 -1.75946E-09
  -1.19894E-09 -1.12139E-09 -1.30366E-09 -1.28806E-09 -1.41844E-09 -1.86664E-09 -1.67241E-09 -2.12516E-09 -1.73580E-09 -1.72892E-09
  -5.98342E-10 -1.29151E-09 -7.26561E-10 -9.60231E-10 -1.42887E-09 -1.53311E-09 -1.76253E-09 -1.90261E-09 -1.63387E-09 -1.56388E-09
  -1.55233E-09 -1.36179E-09 -1.26889E-09 -1.19500E-09 -1.25303E-09 -8.59809E-10 -1.18080E-09 -1.14796E-09 -7.09710E-10 -9.17850E-10
  -5.57940E-10 -5.85007E-10 -6.54193E-10 -1.11453E-09 -1.18093E-09 -1.15595E-09 -1.24643E-09 -1.74616E-09 -1.88620E-09 -2.17006E-09
  -2.04467E-09 -2.54769E-09 -2.08090E-09 -2.05083E-09 -1.31073E-09 -1.28014E-09 -1.01541E-09 -1.11799E-09 -5.21006E-10 -2.74762E-10
  -7.82091E-11 -2.39921E-10 -6.07882E-11 -1.91107E-10  1.10442E-10 -4.96836E-11  3.54650E-12 -7.26152E-10 -6.01555E-10 -1.25700E-09
  -8.41110E-10 -1.21316E-09 -8.79537E-10 -1.34001E-09 -1.37058E-09 -1.29639E-09 -1.71040E-09 -1.56311E-09 -8.21395E-10 -1.70960E-09
  -1.06290E-09 -1.58429E-09 -1.94149E-09 -1.99107E-09 -1.78300E-09 -1.66848E-09 -1.63979E-09 -1.67907E-09 -1.66108E-09 -2.05703E-09
  -1.57880E-09 -2.21348E-09 -2.24725E-09 -1.94183E-09 -1.90135E-09 -1.97150E-09 -2.37566E-09 -2.13350E-09 -2.09995E-09 -2.23913E-09
  -1.89607E-09 -1.96376E-09 -1.66129E-09 -2.44852E-09 -1.95996E-09 -1.97372E-09 -2.11738E-09 -2.17156E-09 -1.75045E-09 -1.98992E-09
  -2.21846E-09 -2.47705E-09 -1.67802E-09 -1.94336E-09 -1.98884E-09 -1.99187E-09 -1.86884E-09 -2.32929E-09 -1.68996E-09 -2.09829E-09
  -2.27549E-09 -1.59493E-09 -2.56872E-09 -1.97301E-09 -2.19889E-09 -2.29186E-09 -2.18755E-09 -2.28303E-09 -2.27713E-09 -1.85066E-09
  -2.08984E-09 -2.02606E-09 -2.06850E-09 -2.33313E-09 -2.29092E-09 -2.09198E-09 -1.89889E-09 -2.45731E-09 -1.67686E-09 -2.60360E-09
  -1.97864E-09 -2.23729E-09 -1.90677E-09 -2.20234E-09 -2.09124E-09 -2.08518E-09 -2.10340E-09 -2.19914E-09 -1.81193E-09 -2.49081E-09
  -1.66309E-09 -2.05588E-09 -2.29728E-09
 NY points of the fit to the data follow
   9.67941E-09  1.10606E-08  9.73367E-09  9.20925E-09  9.63677E-09  1.08369E-08  1.08328E-08  9.49179E-09  9.81177E-09  1.10295E-08
   1.09672E-08  1.06628E-08  1.02212E-08  1.02172E-08  1.05008E-08  1.02971E-08  9.37945E-09  9.24546E-09  1.12540E-08  1.18379E-08
   1.09800E-08  1.02280E-08  9.89767E-09  9.53247E-09  9.79737E-09  1.05299E-08  1.14911E-08  1.25440E-08  1.29650E-08  1.16928E-08
   1.10543E-08  1.08543E-08  1.06719E-08  1.04874E-08  1.06305E-08  1.00629E-08  9.54939E-09  9.43947E-09  9.37844E-09  9.23560E-09
   9.09254E-09  9.03299E-09  9.06462E-09  9.20050E-09  9.17521E-09  8.75009E-09  8.56130E-09  8.20424E-09  7.69392E-09  7.36066E-09
   7.19728E-09  7.20318E-09  7.01246E-09  6.85724E-09  7.24828E-09  7.69998E-09  7.79894E-09  8.21034E-09  8.80561E-09  9.10578E-09
   9.20546E-09  9.29569E-09  9.37242E-09  9.55149E-09  9.41337E-09  8.94645E-09  8.75013E-09  8.64710E-09  8.08413E-09  7.66091E-09
   7.67365E-09  7.78148E-09  7.97000E-09  8.13263E-09  8.31996E-09  8.78606E-09  1.01733E-08  1.13288E-08  1.19933E-08  1.24536E-08
   1.27236E-08  1.27736E-08  1.27277E-08  1.27189E-08  1.29302E-08  1.30202E-08  1.25362E-08  1.13619E-08  1.06450E-08  1.01729E-08
   9.79160E-09  9.48005E-09  9.23077E-09  9.02315E-09  8.83049E-09  8.64860E-09  8.49002E-09  8.35416E-09  8.22623E-09  8.08861E-09
   7.96290E-09  7.85989E-09  7.76356E-09  7.66343E-09  7.56891E-09  7.48026E-09  7.39633E-09  7.31653E-09  7.23964E-09  7.16531E-09
   7.09329E-09  7.02321E-09  6.95480E-09  6.88782E-09  6.82203E-09  6.75725E-09  6.69331E-09  6.63004E-09  6.56731E-09  6.50502E-09
   6.44299E-09  6.38119E-09  6.31947E-09  6.25778E-09  6.19603E-09  6.13412E-09  6.07200E-09  6.00963E-09  5.94691E-09  5.88381E-09
   5.82028E-09  5.75625E-09  5.69170E-09  5.62659E-09  5.56086E-09  5.49447E-09  5.42745E-09  5.35970E-09  5.29123E-09  5.22200E-09
   5.15201E-09  5.08124E-09  5.00969E-09  4.93732E-09  4.86418E-09  4.79026E-09  4.71559E-09  4.64026E-09  4.56434E-09  4.48796E-09
   4.41125E-09  4.33442E-09  4.25769E-09  4.18140E-09  4.10597E-09  4.03202E-09  3.96042E-09  3.89248E-09  3.83019E-09  3.77679E-09
   3.73773E-09  3.72305E-09  3.75281E-09  3.87263E-09  4.20787E-09  5.22384E-09  9.56509E-09  1.78576E-08  2.09950E-08  2.04202E-08
   1.92632E-08  1.84670E-08  1.79615E-08  1.80673E-08  1.89001E-08  1.97182E-08  1.84675E-08  1.27187E-08  5.76810E-09  3.90229E-09
   3.14113E-09  2.70858E-09  2.41298E-09  2.18691E-09  2.00087E-09  1.84002E-09  1.69611E-09  1.56422E-09  1.44117E-09  1.32492E-09
   1.21406E-09  1.10755E-09  1.00470E-09  9.04965E-10  8.07984E-10  7.13427E-10  6.21059E-10  5.30750E-10  4.42349E-10  3.55731E-10
   2.70842E-10  1.87621E-10  1.06033E-10  2.60355E-11 -5.24037E-11 -1.29266E-10 -2.04582E-10 -2.78353E-10 -3.50584E-10 -4.21229E-10
  -4.90342E-10 -5.57864E-10 -6.23799E-10 -6.88137E-10 -7.50879E-10 -8.11970E-10 -8.71420E-10 -9.29226E-10 -9.85339E-10 -1.03980E-09
  -1.09263E-09 -1.14387E-09 -1.19353E-09 -1.24165E-09 -1.28824E-09 -1.33334E-09 -1.37698E-09 -1.41918E-09 -1.45996E-09 -1.49935E-09
  -1.53738E-09 -1.57408E-09 -1.60946E-09 -1.64355E-09 -1.67639E-09 -1.70799E-09 -1.73838E-09 -1.76758E-09 -1.79562E-09 -1.82253E-09
  -1.84832E-09 -1.87302E-09 -1.89666E-09 -1.91926E-09 -1.94084E-09 -1.96142E-09 -1.98104E-09 -1.99972E-09 -2.01747E-09 -2.03431E-09
  -2.05029E-09 -2.06540E-09 -2.07969E-09 -2.09316E-09 -2.10584E-09 -2.11776E-09 -2.12892E-09 -2.13937E-09 -2.14910E-09 -2.15815E-09
  -2.16653E-09 -2.17428E-09 -2.18139E-09 -2.18790E-09 -2.19382E-09 -2.19917E-09 -2.20397E-09 -2.20823E-09 -2.21198E-09 -2.21522E-09
  -2.21798E-09 -2.22026E-09 -2.22210E-09 -2.22349E-09 -2.22447E-09 -2.22503E-09 -2.22519E-09 -2.22497E-09 -2.22438E-09 -2.22342E-09
  -2.22213E-09 -2.22049E-09 -2.21853E-09 -2.21625E-09 -2.21367E-09 -2.21079E-09 -2.20762E-09 -2.20416E-09 -2.20044E-09 -2.19644E-09
  -2.19218E-09 -2.18766E-09 -2.18287E-09 -2.17780E-09 -2.17244E-09 -2.16678E-09 -2.16083E-09 -2.15456E-09 -2.14797E-09 -2.14105E-09
  -2.13380E-09 -2.12621E-09 -2.11827E-09 -2.10997E-09 -2.10131E-09 -2.09227E-09 -2.08287E-09 -2.07308E-09 -2.06290E-09 -2.05232E-09
  -2.04135E-09 -2.02997E-09 -2.01817E-09 -2.00596E-09 -1.99333E-09 -1.98027E-09 -1.96678E-09 -1.95284E-09 -1.93847E-09 -1.92365E-09
  -1.90839E-09 -1.89266E-09 -1.87649E-09 -1.85985E-09 -1.84275E-09 -1.82518E-09 -1.80715E-09 -1.78864E-09 -1.76966E-09 -1.75020E-09
  -1.73027E-09 -1.70985E-09 -1.68896E-09 -1.66758E-09 -1.64572E-09 -1.62337E-09 -1.60054E-09 -1.57723E-09 -1.55343E-09 -1.52915E-09
  -1.50438E-09 -1.47913E-09 -1.45340E-09 -1.42718E-09 -1.40049E-09 -1.37331E-09 -1.34566E-09 -1.31753E-09 -1.28893E-09 -1.25986E-09
  -1.23032E-09 -1.20032E-09 -1.16985E-09 -1.13893E-09 -1.10755E-09 -1.07572E-09 -1.04344E-09 -1.01072E-09 -9.77565E-10 -9.43975E-10
  -9.09957E-10 -8.75517E-10 -8.40658E-10
 NY background values follow
     6.601E-10    7.359E-10    8.110E-10    8.856E-10    9.595E-10    1.033E-09    1.106E-09    1.178E-09    1.249E-09    1.320E-09
     1.390E-09    1.460E-09    1.529E-09    1.597E-09    1.665E-09    1.732E-09    1.799E-09    1.864E-09    1.929E-09    1.994E-09
     2.058E-09    2.121E-09    2.183E-09    2.245E-09    2.306E-09    2.366E-09    2.426E-09    2.485E-09    2.543E-09    2.600E-09
     2.657E-09    2.713E-09    2.769E-09    2.823E-09    2.877E-09    2.931E-09    2.983E-09    3.035E-09    3.086E-09    3.137E-09
     3.187E-09    3.236E-09    3.284E-09    3.332E-09    3.378E-09    3.425E-09    3.470E-09    3.515E-09    3.559E-09    3.602E-09
     3.645E-09    3.686E-09    3.728E-09    3.768E-09    3.808E-09    3.847E-09    3.885E-09    3.922E-09    3.959E-09    3.995E-09
     4.031E-09    4.065E-09    4.099E-09    4.133E-09    4.165E-09    4.197E-09    4.228E-09    4.259E-09    4.289E-09    4.318E-09
     4.346E-09    4.374E-09    4.401E-09    4.427E-09    4.453E-09    4.478E-09    4.502E-09    4.526E-09    4.549E-09    4.571E-09
     4.592E-09    4.613E-09    4.633E-09    4.652E-09    4.670E-09    4.688E-09    4.705E-09    4.721E-09    4.736E-09    4.750E-09
     4.764E-09    4.777E-09    4.789E-09    4.800E-09    4.810E-09    4.819E-09    4.828E-09    4.835E-09    4.842E-09    4.848E-09
     4.853E-09    4.857E-09    4.859E-09    4.861E-09    4.862E-09    4.862E-09    4.861E-09    4.859E-09    4.856E-09    4.852E-09
     4.847E-09    4.841E-09    4.833E-09    4.825E-09    4.816E-09    4.805E-09    4.793E-09    4.780E-09    4.766E-09    4.751E-09
     4.735E-09    4.717E-09    4.699E-09    4.679E-09    4.658E-09    4.635E-09    4.612E-09    4.587E-09    4.561E-09    4.533E-09
     4.505E-09    4.475E-09    4.443E-09    4.411E-09    4.377E-09    4.342E-09    4.305E-09    4.267E-09    4.228E-09    4.187E-09
     4.145E-09    4.102E-09    4.057E-09    4.011E-09    3.963E-09    3.914E-09    3.863E-09    3.812E-09    3.758E-09    3.704E-09
     3.648E-09    3.591E-09    3.533E-09    3.474E-09    3.413E-09    3.352E-09    3.289E-09    3.225E-09    3.161E-09    3.095E-09
     3.029E-09    2.962E-09    2.894E-09    2.825E-09    2.755E-09    2.685E-09    2.615E-09    2.543E-09    2.471E-09    2.399E-09
     2.326E-09    2.253E-09    2.180E-09    2.106E-09    2.031E-09    1.957E-09    1.883E-09    1.808E-09    1.733E-09    1.658E-09
     1.584E-09    1.509E-09    1.434E-09    1.360E-09    1.285E-09    1.211E-09    1.138E-09    1.064E-09    9.909E-10    9.181E-10
     8.459E-10    7.741E-10    7.028E-10    6.321E-10    5.620E-10    4.926E-10    4.239E-10    3.559E-10    2.887E-10    2.224E-10
     1.569E-10    9.224E-11    2.857E-11   -3.412E-11   -9.581E-11   -1.564E-10   -2.160E-10   -2.744E-10   -3.317E-10   -3.877E-10
    -4.426E-10   -4.962E-10   -5.485E-10   -5.995E-10   -6.492E-10   -6.974E-10   -7.443E-10   -7.897E-10   -8.337E-10   -8.762E-10
    -9.173E-10   -9.569E-10   -9.952E-10   -1.032E-09   -1.068E-09   -1.102E-09   -1.135E-09   -1.166E-09   -1.197E-09   -1.226E-09
    -1.254E-09   -1.280E-09   -1.306E-09   -1.330E-09   -1.353E-09   -1.376E-09   -1.397E-09   -1.416E-09   -1.435E-09   -1.453E-09
    -1.470E-09   -1.486E-09   -1.501E-09   -1.515E-09   -1.528E-09   -1.540E-09   -1.551E-09   -1.562E-09   -1.571E-09   -1.580E-09
    -1.588E-09   -1.595E-09   -1.602E-09   -1.608E-09   -1.613E-09   -1.617E-09   -1.621E-09   -1.624E-09   -1.626E-09   -1.628E-09
    -1.629E-09   -1.630E-09   -1.630E-09   -1.630E-09   -1.629E-09   -1.628E-09   -1.626E-09   -1.623E-09   -1.621E-09   -1.617E-09
    -1.614E-09   -1.610E-09   -1.605E-09   -1.601E-09   -1.595E-09   -1.590E-09   -1.584E-09   -1.578E-09   -1.572E-09   -1.565E-09
    -1.558E-09   -1.551E-09   -1.543E-09   -1.535E-09   -1.527E-09   -1.519E-09   -1.510E-09   -1.502E-09   -1.493E-09   -1.484E-09
    -1.474E-09   -1.465E-09   -1.455E-09   -1.445E-09   -1.435E-09   -1.424E-09   -1.414E-09   -1.403E-09   -1.391E-09   -1.380E-09
    -1.368E-09   -1.356E-09   -1.344E-09   -1.331E-09   -1.318E-09   -1.305E-09   -1.291E-09   -1.277E-09   -1.263E-09   -1.248E-09
    -1.234E-09   -1.218E-09   -1.203E-09   -1.187E-09   -1.170E-09   -1.153E-09   -1.136E-09   -1.119E-09   -1.101E-09   -1.082E-09
    -1.064E-09   -1.044E-09   -1.025E-09   -1.005E-09   -9.846E-10   -9.638E-10   -9.426E-10   -9.210E-10   -8.989E-10   -8.764E-10
    -8.535E-10   -8.302E-10   -8.064E-10   -7.822E-10   -7.575E-10   -7.324E-10   -7.069E-10   -6.809E-10   -6.545E-10   -6.277E-10
    -6.004E-10   -5.726E-10   -5.445E-10   -5.159E-10   -4.869E-10   -4.574E-10   -4.275E-10   -3.972E-10   -3.664E-10   -3.352E-10
    -3.036E-10   -2.716E-10   -2.391E-10   -2.062E-10   -1.730E-10   -1.393E-10   -1.052E-10   -7.071E-11   -3.582E-11   -5.494E-13
     3.511E-11    7.115E-11    1.076E-10
 Gln      Conc. = 1.09E-09
  -1.42366E-10  3.39312E-11  2.95640E-10  5.89350E-10  8.55284E-10  1.10199E-09  1.35587E-09  1.57327E-09  1.71367E-09  1.96535E-09
   2.03795E-09  2.05273E-09  2.13961E-09  2.07805E-09  2.03636E-09  2.02007E-09  2.02044E-09  2.03169E-09  2.05054E-09  2.07489E-09
   2.10323E-09  2.13444E-09  2.16766E-09  2.20223E-09  2.23791E-09  2.27457E-09  2.31149E-09  2.34869E-09  2.38602E-09  2.42314E-09
   2.45990E-09  2.49613E-09  2.53170E-09  2.56649E-09  2.60036E-09  2.63321E-09  2.66487E-09  2.69521E-09  2.72399E-09  2.75120E-09
   2.77658E-09  2.80001E-09  2.82140E-09  2.84040E-09  2.85647E-09  2.86953E-09  2.87885E-09  2.88310E-09  2.88356E-09  2.87951E-09
   2.86760E-09  2.84998E-09  2.83158E-09  2.83609E-09  3.04540E-09  3.39642E-09  3.49227E-09  3.80059E-09  4.32998E-09  4.67351E-09
   4.87146E-09  5.14309E-09  5.41656E-09  5.63431E-09  5.74597E-09  5.66853E-09  5.61519E-09  5.67315E-09  5.40203E-09  5.07745E-09
   4.89564E-09  4.91383E-09  4.96142E-09  4.91238E-09  5.12725E-09  5.45451E-09  5.64217E-09  5.86817E-09  6.10929E-09  6.30983E-09
   6.51204E-09  6.66250E-09  6.64049E-09  6.67691E-09  6.73532E-09  6.52889E-09  6.37625E-09  6.29135E-09  6.11383E-09  5.96831E-09
   5.85982E-09  5.77580E-09  5.70963E-09  5.65551E-09  5.60891E-09  5.56873E-09  5.53379E-09  5.50257E-09  5.47450E-09  5.44909E-09
   5.42559E-09  5.40344E-09  5.38234E-09  5.36206E-09  5.34250E-09  5.32340E-09  5.30456E-09  5.28584E-09  5.26711E-09  5.24822E-09
   5.22914E-09  5.20974E-09  5.18995E-09  5.16970E-09  5.14893E-09  5.12758E-09  5.10560E-09  5.08294E-09  5.05955E-09  5.03541E-09
   5.01044E-09  4.98464E-09  4.95796E-09  4.93037E-09  4.90185E-09  4.87235E-09  4.84185E-09  4.81035E-09  4.77780E-09  4.74418E-09
   4.70947E-09  4.67365E-09  4.63671E-09  4.59862E-09  4.55936E-09  4.51890E-09  4.47728E-09  4.43443E-09  4.39035E-09  4.34501E-09
   4.29843E-09  4.25058E-09  4.20145E-09  4.15102E-09  4.09930E-09  4.04626E-09  3.99193E-09  3.93632E-09  3.87948E-09  3.82145E-09
   3.76226E-09  3.70198E-09  3.64064E-09  3.57832E-09  3.51508E-09  3.45101E-09  3.38623E-09  3.32087E-09  3.25517E-09  3.18943E-09
   3.12417E-09  3.06031E-09  2.99962E-09  2.94604E-09  2.90999E-09  2.92823E-09  3.20452E-09  4.08818E-09  4.42629E-09  4.31558E-09
   4.12126E-09  3.96849E-09  3.84174E-09  3.77438E-09  3.78992E-09  3.82877E-09  3.69839E-09  3.10594E-09  2.20538E-09  1.92008E-09
   1.76786E-09  1.65340E-09  1.55431E-09  1.46302E-09  1.37626E-09  1.29244E-09  1.21070E-09  1.13057E-09  1.05170E-09  9.73924E-10
   8.97156E-10  8.21282E-10  7.46289E-10  6.72142E-10  5.98868E-10  5.26442E-10  4.54865E-10  3.84201E-10  3.14450E-10  2.45615E-10
   1.77743E-10  1.10860E-10  4.50023E-11 -1.98096E-11 -8.35559E-11 -1.46173E-10 -2.07654E-10 -2.67968E-10 -3.27089E-10 -3.84945E-10
  -4.41569E-10 -4.96882E-10 -5.50868E-10 -6.03504E-10 -6.54776E-10 -7.04615E-10 -7.53021E-10 -7.99981E-10 -8.45434E-10 -8.89419E-10
  -9.31941E-10 -9.73036E-10 -1.01271E-09 -1.05099E-09 -1.08789E-09 -1.12345E-09 -1.15768E-09 -1.19060E-09 -1.22223E-09 -1.25260E-09
  -1.28173E-09 -1.30963E-09 -1.33634E-09 -1.36187E-09 -1.38626E-09 -1.40951E-09 -1.43165E-09 -1.45271E-09 -1.47271E-09 -1.49166E-09
  -1.50960E-09 -1.52654E-09 -1.54251E-09 -1.55753E-09 -1.57162E-09 -1.58480E-09 -1.59709E-09 -1.60853E-09 -1.61912E-09 -1.62889E-09
  -1.63787E-09 -1.64606E-09 -1.65352E-09 -1.66022E-09 -1.66620E-09 -1.67151E-09 -1.67613E-09 -1.68010E-09 -1.68344E-09 -1.68616E-09
  -1.68828E-09 -1.68983E-09 -1.69082E-09 -1.69128E-09 -1.69120E-09 -1.69062E-09 -1.68956E-09 -1.68802E-09 -1.68603E-09 -1.68361E-09
  -1.68076E-09 -1.67749E-09 -1.67385E-09 -1.66981E-09 -1.66542E-09 -1.66067E-09 -1.65559E-09 -1.65018E-09 -1.64445E-09 -1.63842E-09
  -1.63211E-09 -1.62551E-09 -1.61865E-09 -1.61152E-09 -1.60414E-09 -1.59651E-09 -1.58866E-09 -1.58057E-09 -1.57226E-09 -1.56374E-09
  -1.55500E-09 -1.54606E-09 -1.53689E-09 -1.52750E-09 -1.51787E-09 -1.50800E-09 -1.49788E-09 -1.48749E-09 -1.47683E-09 -1.46590E-09
  -1.45468E-09 -1.44316E-09 -1.43135E-09 -1.41923E-09 -1.40679E-09 -1.39403E-09 -1.38094E-09 -1.36752E-09 -1.35375E-09 -1.33964E-09
  -1.32517E-09 -1.31034E-09 -1.29514E-09 -1.27958E-09 -1.26363E-09 -1.24730E-09 -1.23059E-09 -1.21348E-09 -1.19598E-09 -1.17807E-09
  -1.15976E-09 -1.14104E-09 -1.12191E-09 -1.10236E-09 -1.08238E-09 -1.06199E-09 -1.04117E-09 -1.01992E-09 -9.98240E-10 -9.76125E-10
  -9.53574E-10 -9.30586E-10 -9.07158E-10 -8.83289E-10 -8.58979E-10 -8.34226E-10 -8.09030E-10 -7.83389E-10 -7.57305E-10 -7.30775E-10
  -7.03802E-10 -6.76385E-10 -6.48525E-10 -6.20224E-10 -5.91480E-10 -5.62299E-10 -5.32679E-10 -5.02623E-10 -4.72132E-10 -4.41210E-10
  -4.09860E-10 -3.78082E-10 -3.45882E-10 -3.13261E-10 -2.80224E-10 -2.46774E-10 -2.12915E-10 -1.78652E-10 -1.43988E-10 -1.08928E-10
  -7.34782E-11 -3.76424E-11 -1.42635E-12
 GPC      Conc. = 1.09E-10
   3.92249E-10  5.01460E-10  6.09703E-10  6.65525E-10  7.44786E-10  8.48099E-10  9.98058E-10  1.13181E-09  1.23776E-09  1.32729E-09
   1.41756E-09  1.52396E-09  1.64408E-09  1.75548E-09  1.85520E-09  1.87197E-09  1.84282E-09  1.77956E-09  1.72416E-09  1.66498E-09
   1.58507E-09  1.45942E-09  1.25041E-09  1.23604E-09  1.91725E-09  2.52857E-09  2.86216E-09  3.05589E-09  3.21049E-09  3.34261E-09
   3.50516E-09  3.77830E-09  4.20478E-09  4.65734E-09  4.69944E-09  4.26489E-09  4.05564E-09  3.94654E-09  3.88611E-09  3.85326E-09
   3.83774E-09  3.83383E-09  3.83811E-09  3.84832E-09  3.86298E-09  3.88099E-09  3.90158E-09  3.92415E-09  3.94825E-09  3.97356E-09
   3.99978E-09  4.02669E-09  4.05407E-09  4.08179E-09  4.10973E-09  4.13776E-09  4.16583E-09  4.19387E-09  4.22175E-09  4.24947E-09
   4.27697E-09  4.30417E-09  4.33107E-09  4.35764E-09  4.38388E-09  4.40970E-09  4.43513E-09  4.46010E-09  4.48464E-09  4.50871E-09
   4.53230E-09  4.55540E-09  4.57801E-09  4.60010E-09  4.62167E-09  4.64271E-09  4.66319E-09  4.68310E-09  4.70242E-09  4.72115E-09
   4.73925E-09  4.75673E-09  4.77356E-09  4.78973E-09  4.80524E-09  4.82006E-09  4.83418E-09  4.84759E-09  4.86027E-09  4.87221E-09
   4.88339E-09  4.89382E-09  4.90345E-09  4.91232E-09  4.92036E-09  4.92757E-09  4.93397E-09  4.93951E-09  4.94419E-09  4.94800E-09
   4.95093E-09  4.95295E-09  4.95406E-09  4.95425E-09  4.95349E-09  4.95178E-09  4.94910E-09  4.94546E-09  4.94082E-09  4.93514E-09
   4.92849E-09  4.92078E-09  4.91202E-09  4.90220E-09  4.89131E-09  4.87934E-09  4.86627E-09  4.85210E-09  4.83679E-09  4.82037E-09
   4.80276E-09  4.78402E-09  4.76410E-09  4.74299E-09  4.72070E-09  4.69718E-09  4.67243E-09  4.64647E-09  4.61926E-09  4.59079E-09
   4.56106E-09  4.53003E-09  4.49774E-09  4.46414E-09  4.42924E-09  4.39299E-09  4.35546E-09  4.31656E-09  4.27633E-09  4.23472E-09
   4.19176E-09  4.14743E-09  4.10172E-09  4.05461E-09  4.00611E-09  3.95621E-09  3.90491E-09  3.85224E-09  3.79824E-09  3.74295E-09
   3.68640E-09  3.62863E-09  3.56968E-09  3.50959E-09  3.44840E-09  3.38616E-09  3.32291E-09  3.25871E-09  3.19361E-09  3.12768E-09
   3.06100E-09  2.99372E-09  2.92602E-09  2.85832E-09  2.79163E-09  2.72933E-09  2.68953E-09  2.71695E-09  2.68921E-09  2.61324E-09
   2.52735E-09  2.44542E-09  2.36575E-09  2.29166E-09  2.22598E-09  2.16335E-09  2.08508E-09  1.96029E-09  1.79767E-09  1.69993E-09
   1.61679E-09  1.53767E-09  1.46022E-09  1.38370E-09  1.30780E-09  1.23240E-09  1.15746E-09  1.08300E-09  1.00895E-09  9.35389E-10
   8.62347E-10  7.89819E-10  7.17865E-10  6.46506E-10  5.75812E-10  5.05790E-10  4.36467E-10  3.67929E-10  3.00190E-10  2.33270E-10
   1.67226E-10  1.02093E-10  3.79165E-11 -2.52773E-11 -8.74621E-11 -1.48570E-10 -2.08588E-10 -2.67483E-10 -3.25226E-10 -3.81741E-10
  -4.37059E-10 -4.91099E-10 -5.43842E-10 -5.95264E-10 -6.45348E-10 -6.94027E-10 -7.41296E-10 -7.87141E-10 -8.31502E-10 -8.74417E-10
  -9.15889E-10 -9.55952E-10 -9.94611E-10 -1.03190E-09 -1.06782E-09 -1.10242E-09 -1.13570E-09 -1.16769E-09 -1.19841E-09 -1.22787E-09
