 LCModel (Version 6.3-1R) Copyright: S.W. Provencher.          Ref.: Magn. Reson. Med. 30:672-679 (1993).                
 onepulse 20x21_ftSpec_smooth_lcm
 26 lines in following concentration table = NCONC+1
    Conc.  %SD   /Cr    Metabolite                                         
 3.72E-11 480%   0.000 Ala                                                 
 3.35E-10 110%   0.000 Asp                                                 
    0.000 999%   0.000 Cr                                                  
 2.42E-09  15%   0.000 GABA                                                
 1.84E-09  16%   0.000 Glc                                                 
    0.000 999%   0.000 Gln                                                 
 3.88E-10 101%   0.000 Glu                                                 
    0.000 999%   0.000 Glyc                                                
    0.000 999%   0.000 GPC                                                 
 2.20E-10  90%   0.000 GSH                                                 
 3.04E-10  67%   0.000 Ins                                                 
    0.000 999%   0.000 Lac                                                 
    0.000 999%   0.000 NAAG                                                
 1.11E-09  15%   0.000 NAA                                                 
 9.35E-11  53%   0.000 PCh                                                 
    0.000 999%   0.000 PCr                                                 
    0.000 999%   0.000 PE                                                  
    0.000 999%   0.000 Scyllo                                              
    0.000 999%   0.000 Ser                                                 
    0.000 999%   0.000 Tau                                                 
 9.35E-11  53%   0.000 GPC+PCh                                             
 1.11E-09  15%   0.000 NAA+NAAG                                            
 3.04E-10  67%   0.000 Ins+Glyc                                            
    0.000 999%   0.000 Cr+PCr                                              
 3.88E-10 101%   0.000 Glu+Gln                                             
   6 lines in following misc. output table
  FWHM = 0.078 ppm    S/N =   4                                            
  Data shift = 0.324 ppm                                                   
  Ph:  32 deg      26.0 deg/ppm                                            
  alphaB,S = 1.6E-01,   1.1E+02                                            
   16 spline knots.   Ns = 5(1)                                            
  ( 7) 2 infls.   ( 3) 1 extrs.                                            
  363 points on ppm-axis = NY
      4.250000     4.238821     4.227641     4.216462     4.205282     4.194103     4.182923     4.171744     4.160564     4.149385
      4.138206     4.127026     4.115847     4.104667     4.093488     4.082308     4.071129     4.059949     4.048770     4.037591
      4.026411     4.015232     4.004052     3.992873     3.981693     3.970514     3.959334     3.948155     3.936975     3.925796
      3.914617     3.903437     3.892258     3.881078     3.869899     3.858719     3.847540     3.836360     3.825181     3.814002
      3.802822     3.791643     3.780463     3.769284     3.758104     3.746925     3.735745     3.724566     3.713387     3.702207
      3.691028     3.679848     3.668669     3.657489     3.646310     3.635130     3.623951     3.612772     3.601592     3.590413
      3.579233     3.568054     3.556874     3.545695     3.534515     3.523336     3.512156     3.500977     3.489798     3.478618
      3.467439     3.456259     3.445080     3.433900     3.422721     3.411541     3.400362     3.389183     3.378003     3.366824
      3.355644     3.344465     3.333285     3.322106     3.310926     3.299747     3.288568     3.277388     3.266209     3.255029
      3.243850     3.232670     3.221491     3.210311     3.199132     3.187953     3.176773     3.165594     3.154414     3.143235
      3.132055     3.120876     3.109696     3.098517     3.087337     3.076158     3.064979     3.053799     3.042620     3.031440
      3.020261     3.009081     2.997902     2.986722     2.975543     2.964364     2.953184     2.942005     2.930825     2.919646
      2.908466     2.897287     2.886107     2.874928     2.863749     2.852569     2.841390     2.830210     2.819031     2.807851
      2.796672     2.785492     2.774313     2.763134     2.751954     2.740775     2.729595     2.718416     2.707236     2.696057
      2.684877     2.673698     2.662519     2.651339     2.640160     2.628980     2.617801     2.606621     2.595442     2.584262
      2.573083     2.561903     2.550724     2.539545     2.528365     2.517186     2.506006     2.494827     2.483647     2.472468
      2.461288     2.450109     2.438930     2.427750     2.416571     2.405391     2.394212     2.383032     2.371853     2.360673
      2.349494     2.338315     2.327135     2.315956     2.304776     2.293597     2.282417     2.271238     2.260058     2.248879
      2.237700     2.226520     2.215341     2.204161     2.192982     2.181802     2.170623     2.159443     2.148264     2.137084
      2.125905     2.114726     2.103546     2.092367     2.081187     2.070008     2.058828     2.047649     2.036469     2.025290
      2.014111     2.002931     1.991752     1.980572     1.969393     1.958213     1.947034     1.935854     1.924675     1.913496
      1.902316     1.891137     1.879957     1.868778     1.857598     1.846419     1.835239     1.824060     1.812881     1.801701
      1.790522     1.779342     1.768163     1.756983     1.745804     1.734624     1.723445     1.712265     1.701086     1.689907
      1.678727     1.667548     1.656368     1.645189     1.634009     1.622830     1.611650     1.600471     1.589292     1.578112
      1.566933     1.555753     1.544574     1.533394     1.522215     1.511035     1.499856     1.488677     1.477497     1.466318
      1.455138     1.443959     1.432779     1.421600     1.410420     1.399241     1.388062     1.376882     1.365703     1.354523
      1.343344     1.332164     1.320985     1.309805     1.298626     1.287446     1.276267     1.265088     1.253908     1.242729
      1.231549     1.220370     1.209190     1.198011     1.186831     1.175652     1.164473     1.153293     1.142114     1.130934
      1.119755     1.108575     1.097396     1.086216     1.075037     1.063858     1.052678     1.041499     1.030319     1.019140
      1.007960     0.996781     0.985601     0.974422     0.963243     0.952063     0.940884     0.929704     0.918525     0.907345
      0.896166     0.884986     0.873807     0.862628     0.851448     0.840269     0.829089     0.817910     0.806730     0.795551
      0.784371     0.773192     0.762012     0.750833     0.739654     0.728474     0.717295     0.706115     0.694936     0.683756
      0.672577     0.661397     0.650218     0.639039     0.627859     0.616680     0.605500     0.594321     0.583141     0.571962
      0.560782     0.549603     0.538424     0.527244     0.516065     0.504885     0.493706     0.482526     0.471347     0.460167
      0.448988     0.437809     0.426629     0.415450     0.404270     0.393091     0.381911     0.370732     0.359552     0.348373
      0.337193     0.326014     0.314835     0.303655     0.292476     0.281296     0.270117     0.258937     0.247758     0.236578
      0.225399     0.214220     0.203040
 NY phased data points follow
   2.68648E-09  5.59409E-09  8.27061E-09  9.81554E-09  1.21800E-08  1.09955E-08  9.81387E-09  8.54794E-09  7.33725E-09  6.42823E-09
   6.31696E-09  6.16313E-09  6.17473E-09  6.60717E-09  7.21070E-09  7.15575E-09  7.45453E-09  8.33223E-09  9.08281E-09  8.18413E-09
   8.14744E-09  8.16561E-09  7.72142E-09  7.76245E-09  6.82852E-09  6.95598E-09  6.52899E-09  7.65351E-09  7.68134E-09  7.97636E-09
   7.39668E-09  6.24852E-09  6.34269E-09  7.14597E-09  8.18821E-09  1.02065E-08  1.01466E-08  9.98740E-09  8.49036E-09  7.40210E-09
   6.17132E-09  5.21219E-09  5.10945E-09  4.60812E-09  5.33054E-09  4.62377E-09  4.32931E-09  4.79785E-09  4.46192E-09  3.38520E-09
   2.92612E-09  3.31705E-09  3.60760E-09  3.53074E-09  4.18467E-09  3.97376E-09  4.19246E-09  2.91107E-09  3.25353E-09  3.04314E-09
   3.11772E-09  4.36826E-09  4.94116E-09  5.10904E-09  6.41792E-09  8.03625E-09  9.42888E-09  1.13445E-08  1.00064E-08  8.23440E-09
   6.79591E-09  5.26489E-09  4.88744E-09  4.27572E-09  2.87555E-09  3.32568E-09  3.31791E-09  2.78057E-09  3.21155E-09  3.69772E-09
   4.69513E-09  7.70369E-09  1.15507E-08  1.41352E-08  1.32149E-08  1.14200E-08  9.70382E-09  7.73626E-09  7.14635E-09  6.41722E-09
   6.08253E-09  5.70565E-09  4.91065E-09  5.46312E-09  5.15535E-09  4.14986E-09  3.73393E-09  3.50724E-09  3.79862E-09  2.58984E-09
   2.35535E-09  2.76168E-09  2.99266E-09  3.04979E-09  3.01655E-09  3.56884E-09  2.90623E-09  2.92325E-09  3.55967E-09  2.53470E-09
   2.76604E-09  2.41570E-09  1.94885E-09  1.75700E-09  2.37078E-09  2.52976E-09  3.44536E-09  2.67629E-09  3.46736E-09  3.36689E-09
   3.38705E-09  3.16034E-09  3.29998E-09  3.26524E-09  2.64143E-09  2.23324E-09  1.78543E-09  1.52160E-09  1.90650E-09  1.58539E-09
   1.92692E-09  2.76996E-09  2.37786E-09  2.56457E-09  3.06413E-09  3.50913E-09  2.94255E-09  2.69392E-09  2.78236E-09  2.50059E-09
   2.49405E-09  3.76568E-09  4.20531E-09  4.93195E-09  4.64416E-09  4.06926E-09  3.98860E-09  4.44582E-09  4.28306E-09  4.74795E-09
   5.00256E-09  4.40694E-09  3.98293E-09  4.03352E-09  4.44185E-09  4.14276E-09  4.27525E-09  4.38221E-09  4.78957E-09  4.75153E-09
   5.50641E-09  5.36315E-09  5.67979E-09  5.69960E-09  6.29321E-09  6.79580E-09  7.23705E-09  7.47104E-09  8.17906E-09  8.58796E-09
   1.04398E-08  1.22091E-08  1.46150E-08  1.68897E-08  1.79277E-08  1.45055E-08  1.12274E-08  7.70937E-09  5.94529E-09  4.27626E-09
   4.49253E-09  3.47625E-09  3.13859E-09  2.05743E-09  2.51577E-09  1.90070E-09  1.70088E-09  3.05873E-10  7.42360E-10  2.53920E-11
  -6.34870E-10 -8.92393E-10 -1.52908E-09 -2.38827E-09 -3.10307E-09 -3.40715E-09 -4.31943E-09 -5.17457E-09 -6.14122E-09 -7.21062E-09
  -8.06338E-09 -8.56574E-09 -1.00839E-08 -1.04540E-08 -1.08142E-08 -1.13359E-08 -1.16921E-08 -1.14642E-08 -1.14542E-08 -1.07365E-08
  -1.04751E-08 -1.02723E-08 -8.49277E-09 -7.17968E-09 -6.82836E-09 -4.91759E-09 -4.10856E-09 -3.27563E-09 -2.74880E-09 -2.02741E-09
  -1.66497E-09 -1.97978E-09 -2.54714E-09 -2.71264E-09 -1.93922E-09 -2.42614E-09 -3.05948E-09 -2.31051E-09 -2.33309E-09 -2.45193E-09
  -2.14732E-09 -1.84390E-09 -2.09559E-09 -2.36184E-09 -1.86414E-09 -2.88399E-09 -2.77296E-09 -2.41423E-09 -1.96863E-09 -2.23671E-09
  -2.39739E-09 -1.88351E-09 -1.23240E-09 -1.87045E-09 -1.75813E-09 -2.46183E-09 -2.12480E-09 -2.28954E-09 -2.33258E-09 -1.92928E-09
  -2.04941E-09 -1.91090E-09 -1.44955E-09 -1.58491E-09 -1.71898E-09 -8.82636E-10 -1.37607E-09 -1.51640E-09 -1.30917E-09 -2.21390E-09
  -1.51264E-09 -2.04421E-09 -2.67947E-09 -2.54201E-09 -2.42518E-09 -2.10532E-09 -1.94278E-09 -1.60509E-09 -1.10949E-09 -1.04922E-09
  -7.99083E-10 -1.15984E-09 -1.02270E-09 -7.15046E-10 -9.80989E-10 -1.16205E-09 -8.67038E-10 -1.10238E-09 -1.00513E-09 -1.87061E-09
  -1.79306E-09 -1.32815E-09 -1.99986E-09 -1.95297E-09 -1.61442E-09 -1.81547E-09 -1.58571E-09 -1.91115E-09 -1.65973E-09 -1.60486E-09
  -1.28714E-09 -1.49240E-09 -2.06571E-09 -1.30932E-09 -9.03137E-10 -1.12259E-09 -1.62387E-09 -1.39785E-09 -1.32249E-09 -1.23726E-09
  -1.59299E-09 -1.10341E-09 -1.09665E-09 -1.70647E-09 -1.05266E-09 -1.33891E-09 -5.59974E-10 -1.03888E-09 -1.00269E-09 -9.53340E-10
  -1.48346E-09 -1.21618E-09 -1.05171E-09 -6.34153E-10 -7.70543E-10 -8.62722E-10 -1.42101E-09 -1.12360E-09 -8.44961E-10 -1.19559E-09
  -6.64973E-10 -1.33121E-09 -1.09355E-09 -1.22859E-09 -8.64404E-10 -9.56867E-10 -8.98306E-10 -1.40139E-09 -5.25396E-10 -7.48828E-10
  -5.95146E-10 -1.16364E-09 -9.06779E-10 -1.07133E-09 -8.34043E-10 -5.87663E-10 -9.45298E-10 -8.56687E-10 -1.21437E-09 -8.20908E-10
  -1.00135E-09 -1.02937E-09 -1.32810E-09 -1.68872E-10 -3.78646E-10 -1.16993E-09 -5.43819E-10 -9.60444E-10 -8.71540E-10 -5.52658E-10
  -6.94070E-10 -3.77592E-10 -1.14141E-09 -6.85102E-10 -1.02995E-09 -7.14535E-10 -4.51978E-10 -1.20354E-09 -9.22768E-10 -1.08594E-09
  -7.94605E-10 -7.60402E-10 -1.13284E-09
 NY points of the fit to the data follow
   5.97842E-09  6.82806E-09  7.75140E-09  8.64406E-09  9.29690E-09  9.52900E-09  9.27360E-09  8.60449E-09  7.79139E-09  6.95419E-09
   6.42702E-09  6.24401E-09  6.26205E-09  6.42361E-09  6.71303E-09  7.08921E-09  7.52950E-09  8.01688E-09  8.48720E-09  8.89190E-09
   9.22207E-09  9.26712E-09  8.86586E-09  8.13871E-09  7.28027E-09  6.49018E-09  6.07292E-09  6.22129E-09  6.71556E-09  7.21644E-09
   7.53728E-09  7.81377E-09  7.99872E-09  8.03112E-09  8.09682E-09  8.33512E-09  8.57904E-09  8.60439E-09  8.36322E-09  7.95571E-09
   7.43948E-09  6.59056E-09  5.62942E-09  4.99237E-09  4.35995E-09  3.72335E-09  3.39221E-09  3.23934E-09  3.23147E-09  3.29939E-09
   3.36726E-09  3.39408E-09  3.38787E-09  3.38071E-09  3.42379E-09  3.54175E-09  3.70390E-09  3.85172E-09  3.89939E-09  3.89367E-09
   3.98533E-09  4.28840E-09  4.76064E-09  5.45099E-09  6.36219E-09  7.20134E-09  7.83653E-09  8.27500E-09  8.48711E-09  8.35469E-09
   7.87969E-09  7.08647E-09  6.14977E-09  5.22320E-09  4.32271E-09  3.77793E-09  3.71866E-09  4.08573E-09  4.87457E-09  6.03695E-09
   7.39157E-09  8.91574E-09  1.04983E-08  1.16512E-08  1.20265E-08  1.15468E-08  1.02358E-08  8.45268E-09  6.82489E-09  6.09809E-09
   5.87756E-09  5.70082E-09  5.33834E-09  4.94758E-09  4.66665E-09  4.24207E-09  3.79546E-09  3.52189E-09  3.27891E-09  3.06119E-09
   2.92644E-09  2.84373E-09  2.79615E-09  2.77989E-09  2.78344E-09  2.79706E-09  2.81339E-09  2.82691E-09  2.83428E-09  2.83416E-09
   2.82872E-09  2.82501E-09  2.82844E-09  2.82740E-09  2.83208E-09  2.85443E-09  2.88357E-09  2.91612E-09  2.95078E-09  2.98682E-09
   3.02381E-09  3.06137E-09  3.09921E-09  3.13708E-09  3.17477E-09  3.21208E-09  3.24883E-09  3.28485E-09  3.32000E-09  3.35411E-09
   3.38703E-09  3.41864E-09  3.44879E-09  3.47734E-09  3.50417E-09  3.52913E-09  3.55212E-09  3.57300E-09  3.59167E-09  3.60801E-09
   3.62189E-09  3.63313E-09  3.64151E-09  3.64683E-09  3.64891E-09  3.64755E-09  3.64256E-09  3.63376E-09  3.62097E-09  3.60404E-09
   3.58283E-09  3.55722E-09  3.52714E-09  3.49251E-09  3.45336E-09  3.40977E-09  3.36193E-09  3.31021E-09  3.25526E-09  3.19812E-09
   3.14060E-09  3.08583E-09  3.03967E-09  3.01424E-09  3.04001E-09  3.22525E-09  3.90618E-09  5.24968E-09  7.17055E-09  9.46165E-09
   1.20346E-08  1.46421E-08  1.67433E-08  1.76463E-08  1.68261E-08  1.42061E-08  1.02899E-08  6.13732E-09  3.05975E-09  1.41431E-09
   7.08425E-10  2.63060E-10 -8.33975E-11 -3.80705E-10 -6.49318E-10 -8.99118E-10 -1.13530E-09 -1.36076E-09 -1.57707E-09 -1.78511E-09
  -1.98531E-09 -2.17776E-09 -2.36238E-09 -2.53896E-09 -2.70718E-09 -2.86667E-09 -3.01715E-09 -3.15877E-09 -3.29177E-09 -3.41635E-09
  -3.53268E-09 -3.64095E-09 -3.74131E-09 -3.83393E-09 -3.91894E-09 -3.99649E-09 -4.06673E-09 -4.12977E-09 -4.18576E-09 -4.23481E-09
  -4.27707E-09 -4.31263E-09 -4.34164E-09 -4.36422E-09 -4.38048E-09 -4.39054E-09 -4.39452E-09 -4.39253E-09 -4.38470E-09 -4.37113E-09
  -4.35195E-09 -4.32727E-09 -4.29720E-09 -4.26186E-09 -4.22143E-09 -4.17618E-09 -4.12642E-09 -4.07245E-09 -4.01458E-09 -3.95310E-09
  -3.88833E-09 -3.82055E-09 -3.75008E-09 -3.67720E-09 -3.60223E-09 -3.52547E-09 -3.44720E-09 -3.36775E-09 -3.28739E-09 -3.20646E-09
  -3.12523E-09 -3.04400E-09 -2.96309E-09 -2.88279E-09 -2.80339E-09 -2.72521E-09 -2.64853E-09 -2.57366E-09 -2.50091E-09 -2.43058E-09
  -2.36294E-09 -2.29832E-09 -2.23684E-09 -2.17842E-09 -2.12295E-09 -2.07034E-09 -2.02048E-09 -1.97328E-09 -1.92862E-09 -1.88643E-09
  -1.84658E-09 -1.80898E-09 -1.77354E-09 -1.74015E-09 -1.70870E-09 -1.67911E-09 -1.65125E-09 -1.62505E-09 -1.60040E-09 -1.57719E-09
  -1.55531E-09 -1.53470E-09 -1.51521E-09 -1.49677E-09 -1.47928E-09 -1.46261E-09 -1.44669E-09 -1.43141E-09 -1.41667E-09 -1.40237E-09
  -1.38845E-09 -1.37490E-09 -1.36171E-09 -1.34886E-09 -1.33634E-09 -1.32414E-09 -1.31225E-09 -1.30065E-09 -1.28932E-09 -1.27826E-09
  -1.26746E-09 -1.25689E-09 -1.24655E-09 -1.23642E-09 -1.22649E-09 -1.21675E-09 -1.20718E-09 -1.19778E-09 -1.18852E-09 -1.17939E-09
  -1.17039E-09 -1.16149E-09 -1.15269E-09 -1.14397E-09 -1.13532E-09 -1.12673E-09 -1.11818E-09 -1.10965E-09 -1.10116E-09 -1.09270E-09
  -1.08428E-09 -1.07590E-09 -1.06757E-09 -1.05929E-09 -1.05108E-09 -1.04292E-09 -1.03484E-09 -1.02683E-09 -1.01889E-09 -1.01104E-09
  -1.00328E-09 -9.95609E-10 -9.88035E-10 -9.80569E-10 -9.73206E-10 -9.65960E-10 -9.58830E-10 -9.51821E-10 -9.44941E-10 -9.38198E-10
  -9.31586E-10 -9.25119E-10 -9.18798E-10 -9.12631E-10 -9.06623E-10 -9.00772E-10 -8.95081E-10 -8.89545E-10 -8.84158E-10 -8.78914E-10
  -8.73811E-10 -8.68841E-10 -8.64000E-10 -8.59283E-10 -8.54688E-10 -8.50204E-10 -8.45834E-10 -8.41567E-10 -8.37401E-10 -8.33330E-10
  -8.29347E-10 -8.25453E-10 -8.21637E-10 -8.17897E-10 -8.14228E-10 -8.10626E-10 -8.07085E-10 -8.03597E-10 -8.00161E-10 -7.96774E-10
  -7.93427E-10 -7.90119E-10 -7.86838E-10
 NY background values follow
     4.785E-10    4.759E-10    4.733E-10    4.706E-10    4.678E-10    4.649E-10    4.620E-10    4.590E-10    4.559E-10    4.527E-10
     4.495E-10    4.461E-10    4.427E-10    4.392E-10    4.356E-10    4.319E-10    4.281E-10    4.243E-10    4.203E-10    4.162E-10
     4.121E-10    4.078E-10    4.035E-10    3.990E-10    3.945E-10    3.898E-10    3.850E-10    3.802E-10    3.752E-10    3.701E-10
     3.649E-10    3.597E-10    3.544E-10    3.491E-10    3.437E-10    3.384E-10    3.331E-10    3.278E-10    3.226E-10    3.175E-10
     3.125E-10    3.076E-10    3.028E-10    2.982E-10    2.937E-10    2.895E-10    2.854E-10    2.816E-10    2.781E-10    2.748E-10
     2.717E-10    2.690E-10    2.667E-10    2.646E-10    2.629E-10    2.616E-10    2.607E-10    2.602E-10    2.602E-10    2.607E-10
     2.617E-10    2.633E-10    2.656E-10    2.684E-10    2.720E-10    2.764E-10    2.815E-10    2.874E-10    2.942E-10    3.019E-10
     3.105E-10    3.202E-10    3.308E-10    3.425E-10    3.553E-10    3.692E-10    3.843E-10    4.006E-10    4.182E-10    4.371E-10
     4.573E-10    4.789E-10    5.019E-10    5.264E-10    5.524E-10    5.799E-10    6.088E-10    6.391E-10    6.708E-10    7.039E-10
     7.382E-10    7.738E-10    8.106E-10    8.486E-10    8.876E-10    9.278E-10    9.690E-10    1.011E-09    1.054E-09    1.098E-09
     1.143E-09    1.189E-09    1.236E-09    1.283E-09    1.331E-09    1.380E-09    1.429E-09    1.479E-09    1.529E-09    1.580E-09
     1.631E-09    1.683E-09    1.735E-09    1.788E-09    1.840E-09    1.893E-09    1.945E-09    1.998E-09    2.050E-09    2.102E-09
     2.153E-09    2.203E-09    2.253E-09    2.302E-09    2.350E-09    2.398E-09    2.443E-09    2.488E-09    2.531E-09    2.573E-09
     2.613E-09    2.651E-09    2.688E-09    2.722E-09    2.755E-09    2.785E-09    2.813E-09    2.839E-09    2.862E-09    2.883E-09
     2.900E-09    2.915E-09    2.927E-09    2.935E-09    2.940E-09    2.941E-09    2.938E-09    2.931E-09    2.919E-09    2.903E-09
     2.882E-09    2.856E-09    2.825E-09    2.788E-09    2.745E-09    2.697E-09    2.642E-09    2.581E-09    2.514E-09    2.439E-09
     2.358E-09    2.270E-09    2.174E-09    2.070E-09    1.959E-09    1.840E-09    1.712E-09    1.576E-09    1.432E-09    1.279E-09
     1.119E-09    9.516E-10    7.781E-10    5.989E-10    4.146E-10    2.258E-10    3.316E-11   -1.628E-10   -3.614E-10   -5.621E-10
    -7.642E-10   -9.672E-10   -1.170E-09   -1.373E-09   -1.575E-09   -1.776E-09   -1.974E-09   -2.169E-09   -2.361E-09   -2.549E-09
    -2.732E-09   -2.910E-09   -3.082E-09   -3.248E-09   -3.407E-09   -3.558E-09   -3.701E-09   -3.836E-09   -3.963E-09   -4.082E-09
    -4.193E-09   -4.296E-09   -4.392E-09   -4.481E-09   -4.562E-09   -4.636E-09   -4.703E-09   -4.763E-09   -4.816E-09   -4.863E-09
    -4.902E-09   -4.935E-09   -4.962E-09   -4.982E-09   -4.996E-09   -5.004E-09   -5.007E-09   -5.003E-09   -4.993E-09   -4.978E-09
    -4.957E-09   -4.930E-09   -4.899E-09   -4.862E-09   -4.820E-09   -4.773E-09   -4.722E-09   -4.667E-09   -4.608E-09   -4.545E-09
    -4.479E-09   -4.410E-09   -4.338E-09   -4.264E-09   -4.188E-09   -4.110E-09   -4.031E-09   -3.951E-09   -3.869E-09   -3.787E-09
    -3.705E-09   -3.623E-09   -3.541E-09   -3.460E-09   -3.379E-09   -3.300E-09   -3.223E-09   -3.147E-09   -3.073E-09   -3.002E-09
    -2.934E-09   -2.868E-09   -2.806E-09   -2.747E-09   -2.691E-09   -2.637E-09   -2.587E-09   -2.539E-09   -2.493E-09   -2.451E-09
    -2.410E-09   -2.372E-09   -2.336E-09   -2.302E-09   -2.269E-09   -2.239E-09   -2.211E-09   -2.184E-09   -2.159E-09   -2.135E-09
    -2.112E-09   -2.091E-09   -2.071E-09   -2.052E-09   -2.034E-09   -2.017E-09   -2.000E-09   -1.984E-09   -1.969E-09   -1.954E-09
    -1.940E-09   -1.925E-09   -1.912E-09   -1.898E-09   -1.885E-09   -1.873E-09   -1.860E-09   -1.848E-09   -1.836E-09   -1.825E-09
    -1.813E-09   -1.802E-09   -1.791E-09   -1.781E-09   -1.770E-09   -1.760E-09   -1.750E-09   -1.740E-09   -1.731E-09   -1.721E-09
    -1.711E-09   -1.702E-09   -1.693E-09   -1.684E-09   -1.675E-09   -1.666E-09   -1.657E-09   -1.648E-09   -1.639E-09   -1.630E-09
    -1.621E-09   -1.612E-09   -1.603E-09   -1.595E-09   -1.586E-09   -1.577E-09   -1.569E-09   -1.561E-09   -1.552E-09   -1.544E-09
    -1.536E-09   -1.528E-09   -1.520E-09   -1.512E-09   -1.504E-09   -1.496E-09   -1.489E-09   -1.481E-09   -1.474E-09   -1.467E-09
    -1.460E-09   -1.453E-09   -1.446E-09   -1.440E-09   -1.434E-09   -1.427E-09   -1.421E-09   -1.415E-09   -1.410E-09   -1.404E-09
    -1.398E-09   -1.393E-09   -1.388E-09   -1.383E-09   -1.378E-09   -1.373E-09   -1.368E-09   -1.364E-09   -1.359E-09   -1.355E-09
    -1.350E-09   -1.346E-09   -1.342E-09   -1.338E-09   -1.334E-09   -1.330E-09   -1.326E-09   -1.322E-09   -1.318E-09   -1.314E-09
    -1.311E-09   -1.307E-09   -1.303E-09
 Ala      Conc. = 3.72E-11
   5.01517E-10  5.02483E-10  5.02642E-10  5.02059E-10  5.00562E-10  4.98093E-10  4.94236E-10  4.88594E-10  4.83007E-10  4.77449E-10
   4.69786E-10  4.62571E-10  4.56888E-10  4.50740E-10  4.44797E-10  4.39623E-10  4.34821E-10  4.30202E-10  4.25667E-10  4.21158E-10
   4.16639E-10  4.12086E-10  4.07484E-10  4.02818E-10  3.98079E-10  3.93263E-10  3.88360E-10  3.83366E-10  3.78278E-10  3.73098E-10
   3.67840E-10  3.62520E-10  3.57157E-10  3.51768E-10  3.46372E-10  3.40985E-10  3.35627E-10  3.30316E-10  3.25070E-10  3.19906E-10
   3.14844E-10  3.09900E-10  3.05097E-10  3.00449E-10  2.95977E-10  2.91698E-10  2.87631E-10  2.83797E-10  2.80210E-10  2.76892E-10
   2.73862E-10  2.71135E-10  2.68733E-10  2.66673E-10  2.64979E-10  2.63659E-10  2.62738E-10  2.62243E-10  2.62212E-10  2.62684E-10
   2.63699E-10  2.65296E-10  2.67517E-10  2.70399E-10  2.73984E-10  2.78311E-10  2.83420E-10  2.89350E-10  2.96142E-10  3.03836E-10
   3.12471E-10  3.22087E-10  3.32725E-10  3.44425E-10  3.57225E-10  3.71168E-10  3.86293E-10  4.02639E-10  4.20249E-10  4.39162E-10
   4.59417E-10  4.81059E-10  5.04124E-10  5.28659E-10  5.54699E-10  5.82252E-10  6.11280E-10  6.41746E-10  6.73613E-10  7.06846E-10
   7.41416E-10  7.77293E-10  8.14458E-10  8.52899E-10  8.92624E-10  9.33671E-10  9.76139E-10  1.02027E-09  1.06668E-09  1.11746E-09
   1.17686E-09  1.23892E-09  1.30420E-09  1.37886E-09  1.45754E-09  1.53424E-09  1.60420E-09  1.66390E-09  1.71154E-09  1.74707E-09
   1.77355E-09  1.79849E-09  1.82767E-09  1.84985E-09  1.87552E-09  1.91705E-09  1.96384E-09  2.01268E-09  2.06240E-09  2.11241E-09
   2.16236E-09  2.21198E-09  2.26108E-09  2.30950E-09  2.35709E-09  2.40370E-09  2.44922E-09  2.49350E-09  2.53644E-09  2.57790E-09
   2.61778E-09  2.65595E-09  2.69231E-09  2.72673E-09  2.75910E-09  2.78931E-09  2.81724E-09  2.84279E-09  2.86583E-09  2.88626E-09
   2.90395E-09  2.91872E-09  2.93036E-09  2.93866E-09  2.94339E-09  2.94436E-09  2.94134E-09  2.93412E-09  2.92249E-09  2.90623E-09
   2.88513E-09  2.85898E-09  2.82757E-09  2.79068E-09  2.74811E-09  2.69963E-09  2.64504E-09  2.58413E-09  2.51669E-09  2.44250E-09
   2.36137E-09  2.27310E-09  2.17751E-09  2.07443E-09  1.96376E-09  1.84561E-09  1.72119E-09  1.59408E-09  1.46112E-09  1.32182E-09
   1.17705E-09  1.02636E-09  8.67158E-10  6.95561E-10  5.08506E-10  3.05885E-10  9.09740E-11 -1.29643E-10 -3.46687E-10 -5.52826E-10
  -7.57190E-10 -9.61374E-10 -1.16535E-09 -1.36872E-09 -1.57097E-09 -1.77155E-09 -1.96988E-09 -2.16538E-09 -2.35743E-09 -2.54545E-09
  -2.72883E-09 -2.90698E-09 -3.07928E-09 -3.24512E-09 -3.40391E-09 -3.55503E-09 -3.69804E-09 -3.83294E-09 -3.95985E-09 -4.07888E-09
  -4.19014E-09 -4.29374E-09 -4.38979E-09 -4.47840E-09 -4.55970E-09 -4.63377E-09 -4.70074E-09 -4.76072E-09 -4.81381E-09 -4.86013E-09
  -4.89979E-09 -4.93290E-09 -4.95957E-09 -4.97991E-09 -4.99403E-09 -5.00205E-09 -5.00407E-09 -5.00021E-09 -4.99057E-09 -4.97526E-09
  -4.95441E-09 -4.92810E-09 -4.89647E-09 -4.85962E-09 -4.81771E-09 -4.77104E-09 -4.71990E-09 -4.66460E-09 -4.60542E-09 -4.54268E-09
  -4.47667E-09 -4.40769E-09 -4.33605E-09 -4.26203E-09 -4.18594E-09 -4.10809E-09 -4.02876E-09 -3.94827E-09 -3.86689E-09 -3.78496E-09
  -3.70275E-09 -3.62057E-09 -3.53872E-09 -3.45750E-09 -3.37720E-09 -3.29813E-09 -3.22058E-09 -3.14486E-09 -3.07127E-09 -3.00011E-09
  -2.93166E-09 -2.86625E-09 -2.80399E-09 -2.74478E-09 -2.68855E-09 -2.63520E-09 -2.58460E-09 -2.53667E-09 -2.49130E-09 -2.44840E-09
  -2.40786E-09 -2.36958E-09 -2.33346E-09 -2.29939E-09 -2.26729E-09 -2.23705E-09 -2.20854E-09 -2.18171E-09 -2.15643E-09 -2.13260E-09
  -2.11012E-09 -2.08890E-09 -2.06881E-09 -2.04978E-09 -2.03170E-09 -2.01445E-09 -1.99797E-09 -1.98212E-09 -1.96682E-09 -1.95196E-09
  -1.93749E-09 -1.92340E-09 -1.90967E-09 -1.89629E-09 -1.88325E-09 -1.87053E-09 -1.85812E-09 -1.84600E-09 -1.83417E-09 -1.82261E-09
  -1.81130E-09 -1.80024E-09 -1.78941E-09 -1.77879E-09 -1.76838E-09 -1.75816E-09 -1.74812E-09 -1.73824E-09 -1.72851E-09 -1.71892E-09
  -1.70946E-09 -1.70010E-09 -1.69084E-09 -1.68168E-09 -1.67258E-09 -1.66354E-09 -1.65455E-09 -1.64558E-09 -1.63665E-09 -1.62776E-09
  -1.61890E-09 -1.61010E-09 -1.60134E-09 -1.59264E-09 -1.58401E-09 -1.57543E-09 -1.56693E-09 -1.55850E-09 -1.55016E-09 -1.54190E-09
  -1.53373E-09 -1.52565E-09 -1.51767E-09 -1.50981E-09 -1.50204E-09 -1.49440E-09 -1.48687E-09 -1.47947E-09 -1.47220E-09 -1.46506E-09
  -1.45806E-09 -1.45120E-09 -1.44449E-09 -1.43794E-09 -1.43155E-09 -1.42531E-09 -1.41924E-09 -1.41333E-09 -1.40756E-09 -1.40194E-09
  -1.39645E-09 -1.39111E-09 -1.38589E-09 -1.38080E-09 -1.37583E-09 -1.37098E-09 -1.36623E-09 -1.36160E-09 -1.35706E-09 -1.35262E-09
  -1.34827E-09 -1.34400E-09 -1.33982E-09 -1.33571E-09 -1.33168E-09 -1.32771E-09 -1.32380E-09 -1.31995E-09 -1.31615E-09 -1.31239E-09
  -1.30868E-09 -1.30501E-09 -1.30136E-09
 Asp      Conc. = 3.35E-10
   8.95088E-10  8.54724E-10  8.10132E-10  7.56781E-10  6.99648E-10  6.36588E-10  5.83945E-10  5.42819E-10  5.19991E-10  5.04855E-10
   4.93738E-10  4.85061E-10  4.77962E-10  4.71828E-10  4.66122E-10  4.60683E-10  4.55490E-10  4.50492E-10  4.45642E-10  4.40905E-10
   4.36257E-10  4.31679E-10  4.27164E-10  4.22706E-10  4.18309E-10  4.13984E-10  4.09747E-10  4.05624E-10  4.01657E-10  3.97908E-10
   3.94481E-10  3.91520E-10  3.89244E-10  3.87999E-10  3.88399E-10  3.91748E-10  4.01313E-10  4.14934E-10  4.35068E-10  4.56806E-10
   4.77630E-10  4.95846E-10  5.11179E-10  5.27229E-10  5.43437E-10  5.73711E-10  6.10974E-10  6.61223E-10  7.41696E-10  8.31981E-10
   9.06498E-10  9.33793E-10  9.05212E-10  8.29545E-10  7.33616E-10  6.52769E-10  5.94140E-10  5.64071E-10  5.18619E-10  4.67434E-10
   4.42399E-10  4.32952E-10  4.28218E-10  4.28161E-10  4.23726E-10  4.07608E-10  3.86403E-10  3.75848E-10  3.71439E-10  3.70891E-10
   3.73152E-10  3.77667E-10  3.84119E-10  3.92317E-10  4.02142E-10  4.13523E-10  4.26418E-10  4.40804E-10  4.56674E-10  4.74033E-10
   4.92889E-10  5.13261E-10  5.35165E-10  5.58631E-10  5.83679E-10  6.10304E-10  6.38455E-10  6.68082E-10  6.99137E-10  7.31572E-10
   7.65341E-10  8.00396E-10  8.36693E-10  8.74185E-10  9.12830E-10  9.52580E-10  9.93394E-10  1.03523E-09  1.07803E-09  1.12177E-09
   1.16640E-09  1.21187E-09  1.25814E-09  1.30517E-09  1.35292E-09  1.40134E-09  1.45039E-09  1.50002E-09  1.55020E-09  1.60089E-09
   1.65203E-09  1.70359E-09  1.75553E-09  1.80775E-09  1.86014E-09  1.91261E-09  1.96503E-09  2.01728E-09  2.06927E-09  2.12088E-09
   2.17199E-09  2.22249E-09  2.27228E-09  2.32124E-09  2.36925E-09  2.41621E-09  2.46201E-09  2.50653E-09  2.54966E-09  2.59128E-09
   2.63130E-09  2.66959E-09  2.70604E-09  2.74055E-09  2.77300E-09  2.80328E-09  2.83127E-09  2.85687E-09  2.87996E-09  2.90044E-09
   2.91818E-09  2.93301E-09  2.94470E-09  2.95305E-09  2.95785E-09  2.95888E-09  2.95594E-09  2.94880E-09  2.93727E-09  2.92112E-09
   2.90016E-09  2.87417E-09  2.84294E-09  2.80628E-09  2.76397E-09  2.71582E-09  2.66163E-09  2.60122E-09  2.53441E-09  2.46104E-09
   2.38098E-09  2.29416E-09  2.20061E-09  2.10055E-09  1.99474E-09  1.88555E-09  1.78306E-09  1.72442E-09  1.68341E-09  1.65029E-09
   1.62811E-09  1.60957E-09  1.56784E-09  1.46327E-09  1.26185E-09  9.55204E-10  5.65486E-10  1.44745E-10 -2.29609E-10 -4.85826E-10
  -7.09143E-10 -9.23090E-10 -1.13295E-09 -1.34022E-09 -1.54521E-09 -1.74781E-09 -1.94769E-09 -2.14440E-09 -2.33742E-09 -2.52623E-09
  -2.71027E-09 -2.88897E-09 -3.06175E-09 -3.22799E-09 -3.38713E-09 -3.53857E-09 -3.68185E-09 -3.81699E-09 -3.94412E-09 -4.06334E-09
  -4.17478E-09 -4.27854E-09 -4.37474E-09 -4.46349E-09 -4.54490E-09 -4.61909E-09 -4.68617E-09 -4.74624E-09 -4.79943E-09 -4.84583E-09
  -4.88558E-09 -4.91876E-09 -4.94550E-09 -4.96591E-09 -4.98010E-09 -4.98817E-09 -4.99025E-09 -4.98644E-09 -4.97685E-09 -4.96160E-09
  -4.94079E-09 -4.91453E-09 -4.88294E-09 -4.84613E-09 -4.80426E-09 -4.75763E-09 -4.70653E-09 -4.65126E-09 -4.59212E-09 -4.52941E-09
