 LCModel (Version 6.3-1R) Copyright: S.W. Provencher.          Ref.: Magn. Reson. Med. 30:672-679 (1993).                
 onepulse 20x28_ftSpec_smooth_lcm
 26 lines in following concentration table = NCONC+1
    Conc.  %SD /Cr+PCr  Metabolite                                         
    0.000 999%   0.000 Ala                                                 
    0.000 999%   0.000 Asp                                                 
    0.000 999%   0.000 Cr                                                  
    0.000 999%   0.000 GABA                                                
 1.10E-10 824%   0.482 Glc                                                 
 1.36E-09  51%   5.994 Gln                                                 
    0.000 999%   0.000 Glu                                                 
    0.000 999%   0.000 Glyc                                                
 2.00E-10  53%   0.877 GPC                                                 
    0.000 999%   0.000 GSH                                                 
 1.65E-09  34%   7.248 Ins                                                 
    0.000 999%   0.000 Lac                                                 
 3.36E-10 123%   1.476 NAAG                                                
 4.60E-10 121%   2.021 NAA                                                 
    0.000 999%   0.000 PCh                                                 
 2.28E-10 127%   1.000 PCr                                                 
    0.000 999%   0.000 PE                                                  
 2.27E-10  94%   0.996 Scyllo                                              
 4.67E-09  23%  20.517 Ser                                                 
    0.000 999%   0.000 Tau                                                 
 2.00E-10  53%   0.877 GPC+PCh                                             
 7.96E-10  43%   3.497 NAA+NAAG                                            
 1.65E-09  34%   7.248 Ins+Glyc                                            
 2.28E-10 127%   1.000 Cr+PCr                                              
 1.36E-09  51%   5.994 Glu+Gln                                             
   6 lines in following misc. output table
  FWHM = 0.089 ppm    S/N =   2                                            
  Data shift = 0.358 ppm                                                   
  Ph: -48 deg     -37.0 deg/ppm                                            
  alphaB,S = 1.1E+00,   2.7E+01                                            
    8 spline knots.   Ns = 5(1)                                            
  ( 5) 4 infls.   ( 5) 1 extrs.                                            
  363 points on ppm-axis = NY
      4.250000     4.238821     4.227641     4.216462     4.205282     4.194103     4.182923     4.171744     4.160564     4.149385
      4.138206     4.127026     4.115847     4.104667     4.093488     4.082308     4.071129     4.059949     4.048770     4.037591
      4.026411     4.015232     4.004052     3.992873     3.981693     3.970514     3.959334     3.948155     3.936975     3.925796
      3.914617     3.903437     3.892258     3.881078     3.869899     3.858719     3.847540     3.836360     3.825181     3.814002
      3.802822     3.791643     3.780463     3.769284     3.758104     3.746925     3.735745     3.724566     3.713387     3.702207
      3.691028     3.679848     3.668669     3.657489     3.646310     3.635130     3.623951     3.612772     3.601592     3.590413
      3.579233     3.568054     3.556874     3.545695     3.534515     3.523336     3.512156     3.500977     3.489798     3.478618
      3.467439     3.456259     3.445080     3.433900     3.422721     3.411541     3.400362     3.389183     3.378003     3.366824
      3.355644     3.344465     3.333285     3.322106     3.310926     3.299747     3.288568     3.277388     3.266209     3.255029
      3.243850     3.232670     3.221491     3.210311     3.199132     3.187953     3.176773     3.165594     3.154414     3.143235
      3.132055     3.120876     3.109696     3.098517     3.087337     3.076158     3.064979     3.053799     3.042620     3.031440
      3.020261     3.009081     2.997902     2.986722     2.975543     2.964364     2.953184     2.942005     2.930825     2.919646
      2.908466     2.897287     2.886107     2.874928     2.863749     2.852569     2.841390     2.830210     2.819031     2.807851
      2.796672     2.785492     2.774313     2.763134     2.751954     2.740775     2.729595     2.718416     2.707236     2.696057
      2.684877     2.673698     2.662519     2.651339     2.640160     2.628980     2.617801     2.606621     2.595442     2.584262
      2.573083     2.561903     2.550724     2.539545     2.528365     2.517186     2.506006     2.494827     2.483647     2.472468
      2.461288     2.450109     2.438930     2.427750     2.416571     2.405391     2.394212     2.383032     2.371853     2.360673
      2.349494     2.338315     2.327135     2.315956     2.304776     2.293597     2.282417     2.271238     2.260058     2.248879
      2.237700     2.226520     2.215341     2.204161     2.192982     2.181802     2.170623     2.159443     2.148264     2.137084
      2.125905     2.114726     2.103546     2.092367     2.081187     2.070008     2.058828     2.047649     2.036469     2.025290
      2.014111     2.002931     1.991752     1.980572     1.969393     1.958213     1.947034     1.935854     1.924675     1.913496
      1.902316     1.891137     1.879957     1.868778     1.857598     1.846419     1.835239     1.824060     1.812881     1.801701
      1.790522     1.779342     1.768163     1.756983     1.745804     1.734624     1.723445     1.712265     1.701086     1.689907
      1.678727     1.667548     1.656368     1.645189     1.634009     1.622830     1.611650     1.600471     1.589292     1.578112
      1.566933     1.555753     1.544574     1.533394     1.522215     1.511035     1.499856     1.488677     1.477497     1.466318
      1.455138     1.443959     1.432779     1.421600     1.410420     1.399241     1.388062     1.376882     1.365703     1.354523
      1.343344     1.332164     1.320985     1.309805     1.298626     1.287446     1.276267     1.265088     1.253908     1.242729
      1.231549     1.220370     1.209190     1.198011     1.186831     1.175652     1.164473     1.153293     1.142114     1.130934
      1.119755     1.108575     1.097396     1.086216     1.075037     1.063858     1.052678     1.041499     1.030319     1.019140
      1.007960     0.996781     0.985601     0.974422     0.963243     0.952063     0.940884     0.929704     0.918525     0.907345
      0.896166     0.884986     0.873807     0.862628     0.851448     0.840269     0.829089     0.817910     0.806730     0.795551
      0.784371     0.773192     0.762012     0.750833     0.739654     0.728474     0.717295     0.706115     0.694936     0.683756
      0.672577     0.661397     0.650218     0.639039     0.627859     0.616680     0.605500     0.594321     0.583141     0.571962
      0.560782     0.549603     0.538424     0.527244     0.516065     0.504885     0.493706     0.482526     0.471347     0.460167
      0.448988     0.437809     0.426629     0.415450     0.404270     0.393091     0.381911     0.370732     0.359552     0.348373
      0.337193     0.326014     0.314835     0.303655     0.292476     0.281296     0.270117     0.258937     0.247758     0.236578
      0.225399     0.214220     0.203040
 NY phased data points follow
   1.73330E-08  1.63946E-08  1.66887E-08  1.40590E-08  1.41482E-08  1.26933E-08  1.28412E-08  1.19443E-08  1.23774E-08  1.13099E-08
   1.27568E-08  1.23298E-08  1.36223E-08  1.31852E-08  1.41234E-08  1.39310E-08  1.38222E-08  1.34096E-08  1.37778E-08  1.34546E-08
   1.32811E-08  1.16699E-08  1.26329E-08  1.16290E-08  1.31011E-08  1.26619E-08  1.35528E-08  1.19421E-08  1.20552E-08  1.04686E-08
   1.26109E-08  1.33365E-08  1.54281E-08  1.54180E-08  1.51929E-08  1.36719E-08  1.27689E-08  1.17841E-08  1.24143E-08  1.07285E-08
   1.13912E-08  1.04646E-08  1.10577E-08  1.03496E-08  1.05129E-08  9.41559E-09  9.31067E-09  8.55745E-09  8.52444E-09  8.25365E-09
   8.48888E-09  8.27684E-09  8.94471E-09  8.14034E-09  7.96452E-09  6.75841E-09  7.46099E-09  6.88090E-09  7.57831E-09  7.00218E-09
   7.22043E-09  8.07165E-09  9.44959E-09  1.15957E-08  1.31075E-08  1.16771E-08  1.17400E-08  1.04447E-08  9.61496E-09  9.05709E-09
   8.76381E-09  7.22277E-09  7.59424E-09  6.71385E-09  6.62338E-09  5.57626E-09  5.02036E-09  5.47225E-09  8.99195E-09  1.25497E-08
   1.68127E-08  1.70873E-08  1.57308E-08  1.46155E-08  1.43888E-08  1.30661E-08  1.32160E-08  1.16696E-08  1.19520E-08  1.16404E-08
   1.17498E-08  1.07294E-08  1.07333E-08  1.00799E-08  1.01032E-08  9.24433E-09  8.99577E-09  8.16529E-09  8.34346E-09  7.73173E-09
   7.39228E-09  7.87201E-09  8.25986E-09  7.11691E-09  7.51040E-09  7.42959E-09  7.74678E-09  7.43920E-09  6.28269E-09  5.64127E-09
   5.34794E-09  4.29696E-09  5.51548E-09  5.00583E-09  5.56653E-09  5.24896E-09  5.36418E-09  5.62126E-09  5.71432E-09  5.82358E-09
   6.37576E-09  6.18081E-09  5.78758E-09  4.72652E-09  4.33154E-09  3.16196E-09  3.83945E-09  3.28092E-09  3.81304E-09  3.58127E-09
   3.85201E-09  3.67992E-09  3.86217E-09  3.74926E-09  4.06138E-09  3.50805E-09  3.09303E-09  2.63354E-09  4.12641E-09  4.81377E-09
   6.40946E-09  5.93788E-09  6.25258E-09  5.55840E-09  6.51868E-09  6.88572E-09  7.22967E-09  7.68808E-09  7.26419E-09  6.92618E-09
   7.50436E-09  6.97278E-09  6.36588E-09  5.86646E-09  6.47119E-09  6.11910E-09  6.04491E-09  6.04144E-09  6.49044E-09  5.80923E-09
   5.72208E-09  6.26333E-09  6.69658E-09  5.93713E-09  6.31141E-09  6.28645E-09  6.70905E-09  6.08144E-09  7.23355E-09  9.12362E-09
   1.46025E-08  1.95281E-08  2.03545E-08  1.87296E-08  1.72797E-08  1.57205E-08  1.51716E-08  1.43558E-08  1.29127E-08  1.25439E-08
   1.18797E-08  1.08342E-08  9.90423E-09  8.66469E-09  8.05680E-09  6.77089E-09  5.15097E-09  3.49347E-09  1.82203E-09  6.76548E-12
  -1.21194E-09 -4.21359E-09 -5.93381E-09 -8.25531E-09 -1.04885E-08 -1.30269E-08 -1.42365E-08 -1.67320E-08 -1.78010E-08 -1.91162E-08
  -1.91767E-08 -1.98027E-08 -1.89124E-08 -1.82891E-08 -1.68688E-08 -1.52316E-08 -1.33500E-08 -1.12573E-08 -8.27586E-09 -7.19161E-09
  -4.72255E-09 -4.08833E-09 -2.51542E-09 -2.22390E-09 -1.20380E-09 -1.65671E-09 -1.39772E-09 -1.79168E-09 -2.06445E-09 -2.66043E-09
  -2.04940E-09 -2.44223E-09 -2.11576E-09 -2.10576E-09 -1.20066E-09 -2.05297E-09 -1.23296E-09 -1.70374E-09 -1.51108E-09 -1.73029E-09
  -1.95166E-09 -2.12674E-09 -1.99480E-09 -2.21285E-09 -1.53706E-09 -1.51734E-09 -8.33512E-10 -1.83581E-09 -8.02221E-10 -1.61425E-09
  -1.54551E-09 -1.70884E-09 -1.84006E-09 -1.67856E-09 -1.29345E-09 -1.57642E-09 -1.55066E-09 -1.39940E-09 -1.14809E-09 -1.09476E-09
  -1.05304E-09 -7.88541E-10 -9.55166E-10 -5.70379E-10 -6.58965E-10 -7.17609E-10 -5.03742E-10 -6.96943E-10 -8.70346E-10 -1.62620E-09
  -1.37611E-09 -1.42524E-09 -1.76551E-09 -2.09464E-09 -2.02071E-09 -2.04188E-09 -1.96146E-09 -1.91499E-09 -1.06858E-09 -9.11280E-10
  -1.56678E-10 -4.21488E-10 -1.39386E-10 -1.89975E-10  4.37559E-10  4.46795E-10  3.74369E-10  6.00273E-11  1.35039E-10 -1.84526E-10
   3.57201E-11 -4.52786E-10 -6.92242E-10 -1.31459E-09 -1.02764E-09 -1.32199E-09 -9.19273E-10 -1.41674E-09 -1.11316E-09 -1.62057E-09
  -1.34127E-09 -1.44085E-09 -1.61517E-09 -9.68195E-10 -1.11243E-09 -1.72422E-09 -1.09681E-09 -1.83609E-09 -1.75385E-09 -1.31734E-09
  -1.33814E-09 -1.36809E-09 -1.31467E-09 -1.38519E-09 -1.36768E-09 -1.57772E-09 -1.26296E-09 -1.98918E-09 -1.32491E-09 -1.44634E-09
  -1.26651E-09 -1.61155E-09 -1.55021E-09 -1.23183E-09 -1.25769E-09 -1.26575E-09 -9.29930E-10 -1.13297E-09 -1.17048E-09 -1.34597E-09
  -7.43441E-10 -1.20624E-09 -1.02653E-09 -8.93538E-10 -6.41155E-10 -1.24932E-09 -9.33202E-10 -1.09940E-09 -2.77546E-10 -1.17570E-09
  -6.72879E-10 -8.74229E-10 -7.89233E-10 -1.05795E-09 -3.69455E-10 -1.20572E-09 -6.67507E-10 -9.17286E-10 -1.09495E-09 -4.22456E-10
  -9.96176E-10 -8.16398E-10 -6.37833E-10 -6.94787E-10 -4.77987E-10 -5.16024E-10 -7.69827E-10 -4.84918E-10 -7.27909E-10 -8.97231E-10
  -6.96434E-10 -2.49315E-10 -6.83947E-10 -3.94353E-10 -2.96637E-10 -1.05303E-09 -4.56096E-11 -7.04429E-10 -2.36993E-10 -6.74901E-10
  -3.10886E-10 -6.14031E-10 -3.42789E-10
 NY points of the fit to the data follow
   1.48126E-08  1.61766E-08  1.59252E-08  1.47542E-08  1.45815E-08  1.46861E-08  1.41522E-08  1.30235E-08  1.19307E-08  1.14874E-08
   1.14194E-08  1.16917E-08  1.23932E-08  1.33191E-08  1.41749E-08  1.44505E-08  1.42494E-08  1.43534E-08  1.43615E-08  1.34608E-08
   1.23579E-08  1.17540E-08  1.14890E-08  1.11870E-08  1.10659E-08  1.13869E-08  1.21747E-08  1.31211E-08  1.36367E-08  1.35029E-08
   1.36163E-08  1.38230E-08  1.40103E-08  1.39636E-08  1.34671E-08  1.26310E-08  1.21196E-08  1.17588E-08  1.14727E-08  1.12646E-08
   1.11155E-08  1.09132E-08  1.04934E-08  9.91788E-09  9.56433E-09  9.31650E-09  9.11718E-09  8.93712E-09  8.76433E-09  8.60891E-09
   8.46716E-09  8.34615E-09  8.24664E-09  8.14735E-09  8.08014E-09  8.13386E-09  8.24102E-09  8.46651E-09  8.83952E-09  9.24699E-09
   9.62228E-09  1.00055E-08  1.03327E-08  1.05603E-08  1.06353E-08  1.05031E-08  1.02825E-08  1.00174E-08  9.47665E-09  8.90659E-09
   8.58477E-09  8.38614E-09  8.21599E-09  8.13354E-09  8.17890E-09  8.34685E-09  8.69937E-09  9.39843E-09  1.04553E-08  1.17373E-08
   1.30657E-08  1.41308E-08  1.46930E-08  1.50630E-08  1.53373E-08  1.52023E-08  1.45469E-08  1.33143E-08  1.18799E-08  1.08801E-08
   1.02665E-08  9.82651E-09  9.48156E-09  9.19365E-09  8.93793E-09  8.70920E-09  8.50944E-09  8.33058E-09  8.16025E-09  7.99246E-09
   7.83961E-09  7.70279E-09  7.57120E-09  7.44103E-09  7.31727E-09  7.19935E-09  7.08612E-09  6.97682E-09  6.87054E-09  6.76687E-09
   6.66557E-09  6.56622E-09  6.46857E-09  6.37237E-09  6.27742E-09  6.18352E-09  6.09052E-09  5.99826E-09  5.90661E-09  5.81550E-09
   5.72475E-09  5.63434E-09  5.54414E-09  5.45411E-09  5.36417E-09  5.27424E-09  5.18426E-09  5.09425E-09  5.00410E-09  4.91378E-09
   4.82326E-09  4.73249E-09  4.64149E-09  4.55019E-09  4.45857E-09  4.36659E-09  4.27432E-09  4.18165E-09  4.08862E-09  3.99519E-09
   3.90139E-09  3.80722E-09  3.71269E-09  3.61777E-09  3.52253E-09  3.42698E-09  3.33116E-09  3.23517E-09  3.13912E-09  3.04313E-09
   2.94735E-09  2.85196E-09  2.75717E-09  2.66327E-09  2.57059E-09  2.47957E-09  2.39082E-09  2.30512E-09  2.22361E-09  2.14794E-09
   2.08057E-09  2.02554E-09  1.98966E-09  1.98575E-09  2.04124E-09  2.22866E-09  2.82725E-09  4.98174E-09  8.21956E-09  1.20243E-08
   1.58907E-08  1.88323E-08  2.01137E-08  2.00280E-08  1.93742E-08  1.83138E-08  1.58483E-08  1.08489E-08  4.51980E-09  1.81799E-09
   9.37981E-10  4.89654E-10  1.99203E-10 -1.67282E-11 -1.91670E-10 -3.41586E-10 -4.74981E-10 -5.96755E-10 -7.09997E-10 -8.16628E-10
  -9.17921E-10 -1.01482E-09 -1.10793E-09 -1.19771E-09 -1.28446E-09 -1.36844E-09 -1.44984E-09 -1.52874E-09 -1.60526E-09 -1.67949E-09
  -1.75146E-09 -1.82120E-09 -1.88873E-09 -1.95405E-09 -2.01721E-09 -2.07815E-09 -2.13689E-09 -2.19343E-09 -2.24776E-09 -2.29982E-09
  -2.34967E-09 -2.39722E-09 -2.44249E-09 -2.48545E-09 -2.52610E-09 -2.56438E-09 -2.60031E-09 -2.63386E-09 -2.66500E-09 -2.69377E-09
  -2.72023E-09 -2.74441E-09 -2.76637E-09 -2.78616E-09 -2.80381E-09 -2.81939E-09 -2.83293E-09 -2.84449E-09 -2.85412E-09 -2.86185E-09
  -2.86774E-09 -2.87185E-09 -2.87420E-09 -2.87486E-09 -2.87387E-09 -2.87127E-09 -2.86712E-09 -2.86146E-09 -2.85434E-09 -2.84581E-09
  -2.83590E-09 -2.82469E-09 -2.81220E-09 -2.79848E-09 -2.78358E-09 -2.76754E-09 -2.75042E-09 -2.73225E-09 -2.71309E-09 -2.69298E-09
  -2.67196E-09 -2.65007E-09 -2.62738E-09 -2.60390E-09 -2.57969E-09 -2.55481E-09 -2.52927E-09 -2.50313E-09 -2.47644E-09 -2.44922E-09
  -2.42153E-09 -2.39340E-09 -2.36488E-09 -2.33601E-09 -2.30681E-09 -2.27734E-09 -2.24764E-09 -2.21773E-09 -2.18765E-09 -2.15745E-09
  -2.12716E-09 -2.09680E-09 -2.06643E-09 -2.03607E-09 -2.00576E-09 -1.97552E-09 -1.94539E-09 -1.91541E-09 -1.88559E-09 -1.85598E-09
  -1.82661E-09 -1.79749E-09 -1.76866E-09 -1.74014E-09 -1.71196E-09 -1.68415E-09 -1.65673E-09 -1.62972E-09 -1.60315E-09 -1.57703E-09
  -1.55139E-09 -1.52624E-09 -1.50158E-09 -1.47738E-09 -1.45365E-09 -1.43039E-09 -1.40757E-09 -1.38521E-09 -1.36328E-09 -1.34179E-09
  -1.32073E-09 -1.30008E-09 -1.27985E-09 -1.26004E-09 -1.24062E-09 -1.22160E-09 -1.20297E-09 -1.18472E-09 -1.16686E-09 -1.14937E-09
  -1.13225E-09 -1.11549E-09 -1.09909E-09 -1.08304E-09 -1.06734E-09 -1.05198E-09 -1.03696E-09 -1.02228E-09 -1.00792E-09 -9.93898E-10
  -9.80193E-10 -9.66800E-10 -9.53726E-10 -9.40961E-10 -9.28502E-10 -9.16343E-10 -9.04490E-10 -8.92931E-10 -8.81670E-10 -8.70696E-10
  -8.60014E-10 -8.49619E-10 -8.39505E-10 -8.29675E-10 -8.20128E-10 -8.10858E-10 -8.01867E-10 -7.93149E-10 -7.84711E-10 -7.76539E-10
  -7.68647E-10 -7.61024E-10 -7.53677E-10 -7.46601E-10 -7.39791E-10 -7.33260E-10 -7.26999E-10 -7.21013E-10 -7.15297E-10 -7.09857E-10
  -7.04694E-10 -6.99805E-10 -6.95196E-10 -6.90866E-10 -6.86819E-10 -6.83054E-10 -6.79579E-10 -6.76390E-10 -6.73492E-10 -6.70890E-10
  -6.68583E-10 -6.66577E-10 -6.64877E-10
 NY background values follow
     3.502E-09    3.575E-09    3.647E-09    3.718E-09    3.787E-09    3.856E-09    3.923E-09    3.989E-09    4.054E-09    4.117E-09
     4.179E-09    4.240E-09    4.300E-09    4.359E-09    4.416E-09    4.472E-09    4.527E-09    4.581E-09    4.633E-09    4.685E-09
     4.735E-09    4.783E-09    4.831E-09    4.877E-09    4.923E-09    4.967E-09    5.009E-09    5.051E-09    5.091E-09    5.131E-09
     5.169E-09    5.205E-09    5.241E-09    5.275E-09    5.309E-09    5.341E-09    5.371E-09    5.401E-09    5.430E-09    5.457E-09
     5.483E-09    5.508E-09    5.532E-09    5.555E-09    5.577E-09    5.597E-09    5.616E-09    5.635E-09    5.652E-09    5.668E-09
     5.683E-09    5.696E-09    5.709E-09    5.721E-09    5.731E-09    5.741E-09    5.749E-09    5.756E-09    5.763E-09    5.768E-09
     5.772E-09    5.775E-09    5.777E-09    5.779E-09    5.779E-09    5.778E-09    5.776E-09    5.773E-09    5.769E-09    5.764E-09
     5.759E-09    5.752E-09    5.744E-09    5.736E-09    5.726E-09    5.716E-09    5.704E-09    5.692E-09    5.679E-09    5.665E-09
     5.650E-09    5.634E-09    5.617E-09    5.599E-09    5.580E-09    5.561E-09    5.540E-09    5.519E-09    5.496E-09    5.473E-09
     5.448E-09    5.423E-09    5.397E-09    5.370E-09    5.341E-09    5.312E-09    5.282E-09    5.251E-09    5.219E-09    5.187E-09
     5.153E-09    5.118E-09    5.082E-09    5.046E-09    5.008E-09    4.969E-09    4.930E-09    4.889E-09    4.848E-09    4.805E-09
     4.762E-09    4.717E-09    4.672E-09    4.626E-09    4.578E-09    4.530E-09    4.480E-09    4.430E-09    4.379E-09    4.326E-09
     4.273E-09    4.219E-09    4.164E-09    4.107E-09    4.050E-09    3.992E-09    3.932E-09    3.872E-09    3.811E-09    3.748E-09
     3.685E-09    3.621E-09    3.555E-09    3.489E-09    3.421E-09    3.353E-09    3.284E-09    3.213E-09    3.142E-09    3.069E-09
     2.996E-09    2.921E-09    2.846E-09    2.769E-09    2.692E-09    2.613E-09    2.534E-09    2.453E-09    2.372E-09    2.289E-09
     2.206E-09    2.122E-09    2.038E-09    1.953E-09    1.867E-09    1.780E-09    1.694E-09    1.606E-09    1.518E-09    1.430E-09
     1.342E-09    1.253E-09    1.164E-09    1.075E-09    9.861E-10    8.969E-10    8.078E-10    7.186E-10    6.296E-10    5.408E-10
     4.522E-10    3.639E-10    2.758E-10    1.882E-10    1.009E-10    1.420E-11   -7.203E-11   -1.577E-10   -2.427E-10   -3.270E-10
    -4.106E-10   -4.934E-10   -5.754E-10   -6.565E-10   -7.366E-10   -8.158E-10   -8.940E-10   -9.710E-10   -1.047E-09   -1.122E-09
    -1.195E-09   -1.268E-09   -1.338E-09   -1.408E-09   -1.476E-09   -1.543E-09   -1.608E-09   -1.672E-09   -1.734E-09   -1.795E-09
    -1.853E-09   -1.911E-09   -1.966E-09   -2.020E-09   -2.071E-09   -2.121E-09   -2.169E-09   -2.215E-09   -2.259E-09   -2.302E-09
    -2.342E-09   -2.380E-09   -2.416E-09   -2.449E-09   -2.481E-09   -2.511E-09   -2.538E-09   -2.563E-09   -2.586E-09   -2.606E-09
    -2.624E-09   -2.640E-09   -2.655E-09   -2.666E-09   -2.676E-09   -2.684E-09   -2.690E-09   -2.695E-09   -2.697E-09   -2.697E-09
    -2.696E-09   -2.693E-09   -2.689E-09   -2.682E-09   -2.675E-09   -2.665E-09   -2.654E-09   -2.642E-09   -2.629E-09   -2.614E-09
    -2.597E-09   -2.580E-09   -2.561E-09   -2.541E-09   -2.520E-09   -2.498E-09   -2.475E-09   -2.451E-09   -2.426E-09   -2.400E-09
    -2.373E-09   -2.346E-09   -2.317E-09   -2.288E-09   -2.258E-09   -2.228E-09   -2.197E-09   -2.166E-09   -2.134E-09   -2.101E-09
    -2.068E-09   -2.035E-09   -2.001E-09   -1.967E-09   -1.933E-09   -1.899E-09   -1.864E-09   -1.829E-09   -1.795E-09   -1.760E-09
    -1.725E-09   -1.690E-09   -1.655E-09   -1.620E-09   -1.585E-09   -1.550E-09   -1.515E-09   -1.481E-09   -1.447E-09   -1.413E-09
    -1.379E-09   -1.346E-09   -1.313E-09   -1.280E-09   -1.248E-09   -1.216E-09   -1.184E-09   -1.153E-09   -1.123E-09   -1.093E-09
    -1.063E-09   -1.034E-09   -1.006E-09   -9.777E-10   -9.502E-10   -9.233E-10   -8.968E-10   -8.708E-10   -8.452E-10   -8.201E-10
    -7.955E-10   -7.714E-10   -7.477E-10   -7.244E-10   -7.016E-10   -6.792E-10   -6.573E-10   -6.357E-10   -6.146E-10   -5.939E-10
    -5.735E-10   -5.536E-10   -5.341E-10   -5.149E-10   -4.961E-10   -4.777E-10   -4.597E-10   -4.420E-10   -4.247E-10   -4.078E-10
    -3.912E-10   -3.750E-10   -3.591E-10   -3.435E-10   -3.283E-10   -3.134E-10   -2.988E-10   -2.846E-10   -2.707E-10   -2.571E-10
    -2.438E-10   -2.309E-10   -2.182E-10   -2.059E-10   -1.939E-10   -1.822E-10   -1.707E-10   -1.596E-10   -1.488E-10   -1.383E-10
    -1.281E-10   -1.182E-10   -1.087E-10   -9.936E-11   -9.035E-11   -8.166E-11   -7.326E-11   -6.516E-11   -5.736E-11   -4.986E-11
    -4.267E-11   -3.578E-11   -2.919E-11   -2.291E-11   -1.694E-11   -1.128E-11   -5.929E-12   -8.939E-13    3.824E-12    8.220E-12
     1.230E-11    1.604E-11    1.946E-11
 Glc      Conc. = 1.10E-10
   3.38462E-09  3.49705E-09  3.60868E-09  3.72453E-09  3.83533E-09  3.93803E-09  4.02324E-09  4.10080E-09  4.16093E-09  4.19951E-09
   4.23886E-09  4.27888E-09  4.31864E-09  4.36828E-09  4.43359E-09  4.51127E-09  4.60289E-09  4.71261E-09  4.82728E-09  4.93456E-09
   5.03315E-09  5.12052E-09  5.19672E-09  5.26316E-09  5.30151E-09  5.30690E-09  5.31235E-09  5.32919E-09  5.35612E-09  5.38886E-09
   5.41838E-09  5.44490E-09  5.47393E-09  5.49942E-09  5.51713E-09  5.53626E-09  5.55706E-09  5.57430E-09  5.58980E-09  5.60638E-09
   5.62360E-09  5.64086E-09  5.65794E-09  5.67460E-09  5.69076E-09  5.70627E-09  5.72111E-09  5.73518E-09  5.74845E-09  5.76091E-09
   5.77249E-09  5.78321E-09  5.79301E-09  5.80191E-09  5.80991E-09  5.81694E-09  5.82305E-09  5.82826E-09  5.83245E-09  5.83573E-09
   5.83809E-09  5.83946E-09  5.83992E-09  5.83942E-09  5.83801E-09  5.83564E-09  5.83236E-09  5.82812E-09  5.82297E-09  5.81692E-09
   5.80994E-09  5.80205E-09  5.79330E-09  5.78362E-09  5.77306E-09  5.76162E-09  5.74928E-09  5.73605E-09  5.72192E-09  5.70690E-09
   5.69097E-09  5.67414E-09  5.65641E-09  5.63777E-09  5.61823E-09  5.59778E-09  5.57641E-09  5.55413E-09  5.53095E-09  5.50684E-09
   5.48181E-09  5.45587E-09  5.42898E-09  5.40120E-09  5.37248E-09  5.34281E-09  5.31223E-09  5.28071E-09  5.24825E-09  5.21485E-09
   5.18051E-09  5.14523E-09  5.10900E-09  5.07183E-09  5.03369E-09  4.99461E-09  4.95457E-09  4.91359E-09  4.87164E-09  4.82869E-09
   4.78483E-09  4.73997E-09  4.69414E-09  4.64733E-09  4.59955E-09  4.55079E-09  4.50107E-09  4.45035E-09  4.39864E-09  4.34598E-09
   4.29229E-09  4.23764E-09  4.18198E-09  4.12533E-09  4.06770E-09  4.00905E-09  3.94938E-09  3.88876E-09  3.82711E-09  3.76446E-09
   3.70081E-09  3.63613E-09  3.57048E-09  3.50381E-09  3.43613E-09  3.36741E-09  3.29773E-09  3.22702E-09  3.15531E-09  3.08256E-09
   3.00882E-09  2.93407E-09  2.85832E-09  2.78153E-09  2.70375E-09  2.62497E-09  2.54519E-09  2.46447E-09  2.38284E-09  2.30037E-09
   2.21709E-09  2.13307E-09  2.04835E-09  1.96298E-09  1.87701E-09  1.79051E-09  1.70353E-09  1.61612E-09  1.52836E-09  1.44031E-09
   1.35204E-09  1.26368E-09  1.17534E-09  1.08727E-09  9.99891E-10  9.14397E-10  8.35885E-10  7.78978E-10  7.32540E-10  6.92070E-10
   6.50496E-10  5.94881E-10  5.18524E-10  4.28149E-10  3.33503E-10  2.33309E-10  1.12526E-10 -3.98162E-11 -1.97908E-10 -3.01845E-10
  -3.92718E-10 -4.79274E-10 -5.63564E-10 -6.46220E-10 -7.27525E-10 -8.07593E-10 -8.86452E-10 -9.64079E-10 -1.04052E-09 -1.11572E-09
  -1.18963E-09 -1.26225E-09 -1.33352E-09 -1.40341E-09 -1.47186E-09 -1.53884E-09 -1.60434E-09 -1.66826E-09 -1.73058E-09 -1.79130E-09
  -1.85033E-09 -1.90766E-09 -1.96323E-09 -2.01701E-09 -2.06898E-09 -2.11906E-09 -2.16725E-09 -2.21351E-09 -2.25781E-09 -2.30007E-09
  -2.34034E-09 -2.37851E-09 -2.41457E-09 -2.44851E-09 -2.48031E-09 -2.50989E-09 -2.53726E-09 -2.56240E-09 -2.58526E-09 -2.60588E-09
  -2.62430E-09 -2.64058E-09 -2.65473E-09 -2.66682E-09 -2.67689E-09 -2.68498E-09 -2.69113E-09 -2.69539E-09 -2.69781E-09 -2.69843E-09
  -2.69729E-09 -2.69445E-09 -2.68994E-09 -2.68381E-09 -2.67611E-09 -2.66689E-09 -2.65618E-09 -2.64404E-09 -2.63051E-09 -2.61563E-09
  -2.59946E-09 -2.58203E-09 -2.56340E-09 -2.54361E-09 -2.52269E-09 -2.50071E-09 -2.47769E-09 -2.45370E-09 -2.42877E-09 -2.40295E-09
  -2.37628E-09 -2.34879E-09 -2.32056E-09 -2.29160E-09 -2.26196E-09 -2.23170E-09 -2.20084E-09 -2.16943E-09 -2.13751E-09 -2.10512E-09
  -2.07231E-09 -2.03912E-09 -2.00558E-09 -1.97173E-09 -1.93761E-09 -1.90326E-09 -1.86872E-09 -1.83402E-09 -1.79921E-09 -1.76432E-09
  -1.72937E-09 -1.69441E-09 -1.65948E-09 -1.62460E-09 -1.58981E-09 -1.55514E-09 -1.52063E-09 -1.48630E-09 -1.45217E-09 -1.41829E-09
  -1.38469E-09 -1.35139E-09 -1.31841E-09 -1.28579E-09 -1.25354E-09 -1.22170E-09 -1.19030E-09 -1.15933E-09 -1.12884E-09 -1.09885E-09
  -1.06937E-09 -1.04042E-09 -1.01198E-09 -9.84061E-10 -9.56638E-10 -9.29716E-10 -9.03278E-10 -8.77326E-10 -8.51847E-10 -8.26837E-10
  -8.02290E-10 -7.78197E-10 -7.54555E-10 -7.31355E-10 -7.08589E-10 -6.86253E-10 -6.64343E-10 -6.42852E-10 -6.21771E-10 -6.01096E-10
  -5.80823E-10 -5.60944E-10 -5.41458E-10 -5.22353E-10 -5.03630E-10 -4.85280E-10 -4.67302E-10 -4.49686E-10 -4.32432E-10 -4.15535E-10
  -3.98991E-10 -3.82790E-10 -3.66936E-10 -3.51423E-10 -3.36245E-10 -3.21396E-10 -3.06883E-10 -2.92693E-10 -2.78830E-10 -2.65282E-10
  -2.52056E-10 -2.39145E-10 -2.26544E-10 -2.14255E-10 -2.02276E-10 -1.90603E-10 -1.79238E-10 -1.68174E-10 -1.57416E-10 -1.46953E-10
  -1.36797E-10 -1.26937E-10 -1.17379E-10 -1.08121E-10 -9.91551E-11 -9.04953E-11 -8.21313E-11 -7.40694E-11 -6.63047E-11 -5.88430E-11
  -5.16835E-11 -4.48255E-11 -3.82730E-11 -3.20254E-11 -2.60872E-11 -2.04570E-11 -1.51418E-11 -1.01384E-11 -5.45215E-12 -1.08657E-12
   2.95788E-12  6.67604E-12  1.00633E-11
 Gln      Conc. = 1.36E-09
   2.40758E-09  2.60394E-09  2.88135E-09  3.24550E-09  3.66903E-09  4.11172E-09  4.52345E-09  4.84727E-09  5.07030E-09  5.29939E-09
   5.35911E-09  5.27441E-09  5.25534E-09  5.11300E-09  5.00599E-09  4.94132E-09  4.90292E-09  4.88133E-09  4.87105E-09  4.86868E-09
   4.87191E-09  4.87914E-09  4.88918E-09  4.90123E-09  4.91484E-09  4.92969E-09  4.94500E-09  4.96059E-09  4.97631E-09  4.99171E-09
   5.00659E-09  5.02077E-09  5.03408E-09  5.04641E-09  5.05759E-09  5.06753E-09  5.07606E-09  5.08306E-09  5.08842E-09  5.09193E-09
   5.09350E-09  5.09293E-09  5.09015E-09  5.08494E-09  5.07714E-09  5.06651E-09  5.05280E-09  5.03536E-09  5.01406E-09  4.98892E-09
   4.95905E-09  4.92481E-09  4.88789E-09  4.85536E-09  4.86980E-09  4.98834E-09  5.16165E-09  5.43611E-09  5.85201E-09  6.32648E-09
   6.80865E-09  7.32524E-09  7.80883E-09  8.15827E-09  8.29634E-09  8.21301E-09  8.05833E-09  7.91737E-09  7.48761E-09  6.99527E-09
   6.69128E-09  6.48587E-09  6.30956E-09  6.25622E-09  6.35121E-09  6.59212E-09  6.89204E-09  7.23926E-09  7.61417E-09  7.97059E-09
   8.28006E-09  8.48078E-09  8.47607E-09  8.43268E-09  8.35142E-09  8.04552E-09  7.73943E-09  7.52696E-09  7.24676E-09  7.00175E-09
   6.81227E-09  6.65829E-09  6.52885E-09  6.41635E-09  6.31500E-09  6.22267E-09  6.13757E-09  6.05776E-09  5.98238E-09  5.91068E-09
   5.84177E-09  5.77490E-09  5.70971E-09  5.64593E-09  5.58330E-09  5.52160E-09  5.46053E-09  5.39995E-09  5.33967E-09  5.27953E-09
   5.21952E-09  5.15945E-09  5.09925E-09  5.03887E-09  4.97822E-09  4.91725E-09  4.85592E-09  4.79416E-09  4.73191E-09  4.66920E-09
   4.60589E-09  4.54204E-09  4.47757E-09  4.41248E-09  4.34674E-09  4.28031E-09  4.21315E-09  4.14532E-09  4.07673E-09  4.00739E-09
   3.93730E-09  3.86640E-09  3.79474E-09  3.72228E-09  3.64900E-09  3.57486E-09  3.49996E-09  3.42419E-09  3.34759E-09  3.27012E-09
   3.19182E-09  3.11267E-09  3.03267E-09  2.95178E-09  2.87006E-09  2.78749E-09  2.70408E-09  2.61988E-09  2.53494E-09  2.44934E-09
   2.36311E-09  2.27635E-09  2.18910E-09  2.10147E-09  2.01353E-09  1.92541E-09  1.83722E-09  1.74914E-09  1.66138E-09  1.57424E-09
   1.48812E-09  1.40371E-09  1.32209E-09  1.24533E-09  1.17783E-09  1.13135E-09  1.15234E-09  1.43709E-09  1.86431E-09  2.37050E-09
   2.87596E-09  3.22048E-09  3.30222E-09  3.18895E-09  3.00839E-09  2.76809E-09  2.29280E-09  1.41290E-09  3.64083E-10 -2.10557E-11
  -2.04721E-10 -3.35922E-10 -4.46399E-10 -5.46358E-10 -6.40055E-10 -7.29534E-10 -8.15870E-10 -8.99652E-10 -9.81310E-10 -1.06104E-09
  -1.13894E-09 -1.21515E-09 -1.28970E-09 -1.36261E-09 -1.43386E-09 -1.50348E-09 -1.57146E-09 -1.63774E-09 -1.70231E-09 -1.76518E-09
  -1.82629E-09 -1.88562E-09 -1.94312E-09 -1.99878E-09 -2.05257E-09 -2.10442E-09 -2.15434E-09 -2.20229E-09 -2.24824E-09 -2.29212E-09
  -2.33396E-09 -2.37368E-09 -2.41127E-09 -2.44671E-09 -2.47997E-09 -2.51099E-09 -2.53978E-09 -2.56632E-09 -2.59055E-09 -2.61252E-09
  -2.63228E-09 -2.64986E-09 -2.66531E-09 -2.67868E-09 -2.69000E-09 -2.69934E-09 -2.70672E-09 -2.71219E-09 -2.71580E-09 -2.71760E-09
