 LCModel (Version 6.3-1R) Copyright: S.W. Provencher.          Ref.: Magn. Reson. Med. 30:672-679 (1993).                
 onepulse 20x22_ftSpec_smooth_lcm
 26 lines in following concentration table = NCONC+1
    Conc.  %SD   /Cr    Metabolite                                         
 1.09E-10 159%   0.000 Ala                                                 
 5.72E-10  62%   0.000 Asp                                                 
    0.000 999%   0.000 Cr                                                  
 2.74E-09  13%   0.000 GABA                                                
 1.73E-09  16%   0.000 Glc                                                 
    0.000 999%   0.000 Gln                                                 
 8.57E-11 452%   0.000 Glu                                                 
    0.000 999%   0.000 Glyc                                                
    0.000 999%   0.000 GPC                                                 
 4.66E-11 409%   0.000 GSH                                                 
 2.25E-10  90%   0.000 Ins                                                 
    0.000 999%   0.000 Lac                                                 
    0.000 999%   0.000 NAAG                                                
 1.26E-09  13%   0.000 NAA                                                 
 9.32E-11  52%   0.000 PCh                                                 
    0.000 999%   0.000 PCr                                                 
    0.000 999%   0.000 PE                                                  
    0.000 999%   0.000 Scyllo                                              
    0.000 999%   0.000 Ser                                                 
    0.000 999%   0.000 Tau                                                 
 9.32E-11  52%   0.000 GPC+PCh                                             
 1.26E-09  13%   0.000 NAA+NAAG                                            
 2.25E-10  90%   0.000 Ins+Glyc                                            
    0.000 999%   0.000 Cr+PCr                                              
 8.57E-11 452%   0.000 Glu+Gln                                             
   6 lines in following misc. output table
  FWHM = 0.067 ppm    S/N =   5                                            
  Data shift = 0.335 ppm                                                   
  Ph:  50 deg      30.3 deg/ppm                                            
  alphaB,S = 1.5E-01,   7.3E+01                                            
   16 spline knots.   Ns = 5(1)                                            
  ( 7) 2 infls.   ( 5) 1 extrs.                                            
  363 points on ppm-axis = NY
      4.250000     4.238821     4.227641     4.216462     4.205282     4.194103     4.182923     4.171744     4.160564     4.149385
      4.138206     4.127026     4.115847     4.104667     4.093488     4.082308     4.071129     4.059949     4.048770     4.037591
      4.026411     4.015232     4.004052     3.992873     3.981693     3.970514     3.959334     3.948155     3.936975     3.925796
      3.914617     3.903437     3.892258     3.881078     3.869899     3.858719     3.847540     3.836360     3.825181     3.814002
      3.802822     3.791643     3.780463     3.769284     3.758104     3.746925     3.735745     3.724566     3.713387     3.702207
      3.691028     3.679848     3.668669     3.657489     3.646310     3.635130     3.623951     3.612772     3.601592     3.590413
      3.579233     3.568054     3.556874     3.545695     3.534515     3.523336     3.512156     3.500977     3.489798     3.478618
      3.467439     3.456259     3.445080     3.433900     3.422721     3.411541     3.400362     3.389183     3.378003     3.366824
      3.355644     3.344465     3.333285     3.322106     3.310926     3.299747     3.288568     3.277388     3.266209     3.255029
      3.243850     3.232670     3.221491     3.210311     3.199132     3.187953     3.176773     3.165594     3.154414     3.143235
      3.132055     3.120876     3.109696     3.098517     3.087337     3.076158     3.064979     3.053799     3.042620     3.031440
      3.020261     3.009081     2.997902     2.986722     2.975543     2.964364     2.953184     2.942005     2.930825     2.919646
      2.908466     2.897287     2.886107     2.874928     2.863749     2.852569     2.841390     2.830210     2.819031     2.807851
      2.796672     2.785492     2.774313     2.763134     2.751954     2.740775     2.729595     2.718416     2.707236     2.696057
      2.684877     2.673698     2.662519     2.651339     2.640160     2.628980     2.617801     2.606621     2.595442     2.584262
      2.573083     2.561903     2.550724     2.539545     2.528365     2.517186     2.506006     2.494827     2.483647     2.472468
      2.461288     2.450109     2.438930     2.427750     2.416571     2.405391     2.394212     2.383032     2.371853     2.360673
      2.349494     2.338315     2.327135     2.315956     2.304776     2.293597     2.282417     2.271238     2.260058     2.248879
      2.237700     2.226520     2.215341     2.204161     2.192982     2.181802     2.170623     2.159443     2.148264     2.137084
      2.125905     2.114726     2.103546     2.092367     2.081187     2.070008     2.058828     2.047649     2.036469     2.025290
      2.014111     2.002931     1.991752     1.980572     1.969393     1.958213     1.947034     1.935854     1.924675     1.913496
      1.902316     1.891137     1.879957     1.868778     1.857598     1.846419     1.835239     1.824060     1.812881     1.801701
      1.790522     1.779342     1.768163     1.756983     1.745804     1.734624     1.723445     1.712265     1.701086     1.689907
      1.678727     1.667548     1.656368     1.645189     1.634009     1.622830     1.611650     1.600471     1.589292     1.578112
      1.566933     1.555753     1.544574     1.533394     1.522215     1.511035     1.499856     1.488677     1.477497     1.466318
      1.455138     1.443959     1.432779     1.421600     1.410420     1.399241     1.388062     1.376882     1.365703     1.354523
      1.343344     1.332164     1.320985     1.309805     1.298626     1.287446     1.276267     1.265088     1.253908     1.242729
      1.231549     1.220370     1.209190     1.198011     1.186831     1.175652     1.164473     1.153293     1.142114     1.130934
      1.119755     1.108575     1.097396     1.086216     1.075037     1.063858     1.052678     1.041499     1.030319     1.019140
      1.007960     0.996781     0.985601     0.974422     0.963243     0.952063     0.940884     0.929704     0.918525     0.907345
      0.896166     0.884986     0.873807     0.862628     0.851448     0.840269     0.829089     0.817910     0.806730     0.795551
      0.784371     0.773192     0.762012     0.750833     0.739654     0.728474     0.717295     0.706115     0.694936     0.683756
      0.672577     0.661397     0.650218     0.639039     0.627859     0.616680     0.605500     0.594321     0.583141     0.571962
      0.560782     0.549603     0.538424     0.527244     0.516065     0.504885     0.493706     0.482526     0.471347     0.460167
      0.448988     0.437809     0.426629     0.415450     0.404270     0.393091     0.381911     0.370732     0.359552     0.348373
      0.337193     0.326014     0.314835     0.303655     0.292476     0.281296     0.270117     0.258937     0.247758     0.236578
      0.225399     0.214220     0.203040
 NY phased data points follow
   4.05627E-09  6.36702E-09  8.50764E-09  1.07025E-08  1.00553E-08  9.02139E-09  7.79409E-09  6.36850E-09  6.02118E-09  5.29090E-09
   5.71295E-09  5.18194E-09  6.22298E-09  6.35808E-09  6.49474E-09  6.59400E-09  7.63027E-09  8.45234E-09  7.82768E-09  7.51384E-09
   7.96821E-09  7.01750E-09  7.21997E-09  6.46959E-09  6.77512E-09  5.92711E-09  7.06513E-09  7.04083E-09  7.59652E-09  6.70287E-09
   5.90055E-09  5.61565E-09  6.54710E-09  7.38941E-09  9.67669E-09  9.81639E-09  9.48614E-09  8.32344E-09  7.50206E-09  6.05414E-09
   5.10499E-09  4.84501E-09  4.72236E-09  4.79808E-09  4.52896E-09  4.24814E-09  4.43254E-09  4.03315E-09  3.38831E-09  2.54029E-09
   3.04271E-09  3.18013E-09  3.31545E-09  3.50891E-09  3.45381E-09  3.65514E-09  2.58082E-09  2.52648E-09  2.60687E-09  2.39947E-09
   3.50917E-09  4.10752E-09  4.31162E-09  5.40500E-09  7.06739E-09  8.12697E-09  1.06848E-08  9.39839E-09  7.98393E-09  6.63307E-09
   5.11292E-09  4.49951E-09  4.08399E-09  2.58787E-09  3.01320E-09  2.83665E-09  2.36318E-09  2.36339E-09  3.11798E-09  3.90532E-09
   6.97367E-09  1.05603E-08  1.36709E-08  1.33387E-08  1.18267E-08  9.97526E-09  8.01450E-09  7.13365E-09  6.73066E-09  6.32121E-09
   6.00894E-09  5.02729E-09  5.53423E-09  5.22262E-09  4.09886E-09  3.67650E-09  3.53781E-09  3.63557E-09  2.77371E-09  2.31511E-09
   2.45854E-09  2.98462E-09  2.64153E-09  2.87191E-09  3.44747E-09  2.82129E-09  2.73954E-09  3.32799E-09  2.38487E-09  2.32025E-09
   2.20993E-09  1.55727E-09  1.55031E-09  1.72397E-09  2.20565E-09  2.97242E-09  2.53678E-09  2.75738E-09  3.06730E-09  3.07490E-09
   2.97212E-09  2.78229E-09  3.10325E-09  2.51517E-09  2.16442E-09  1.46033E-09  1.13067E-09  1.49603E-09  1.31437E-09  1.30266E-09
   2.26165E-09  1.85194E-09  2.30840E-09  2.44494E-09  3.03269E-09  2.81832E-09  2.42163E-09  2.21777E-09  2.24771E-09  1.70770E-09
   3.41292E-09  3.85237E-09  4.62647E-09  4.37398E-09  3.87110E-09  3.46031E-09  4.14000E-09  4.03116E-09  4.29505E-09  4.65056E-09
   4.16297E-09  3.59547E-09  3.61187E-09  3.88208E-09  3.76289E-09  3.78079E-09  3.74922E-09  4.39225E-09  4.29764E-09  4.81341E-09
   4.95539E-09  5.07152E-09  5.41573E-09  5.64146E-09  6.29991E-09  6.75683E-09  6.71954E-09  7.78833E-09  8.01652E-09  9.65520E-09
   1.18141E-08  1.40187E-08  1.67343E-08  1.83019E-08  1.54890E-08  1.20078E-08  8.77675E-09  6.92918E-09  5.32381E-09  4.96735E-09
   4.38339E-09  3.72463E-09  2.73452E-09  2.97178E-09  2.15236E-09  2.28775E-09  7.11509E-10  9.73998E-10  5.80641E-10 -6.08826E-10
  -6.07314E-10 -1.49251E-09 -1.84455E-09 -3.12598E-09 -3.44345E-09 -4.20280E-09 -4.75002E-09 -5.72677E-09 -6.73748E-09 -7.61536E-09
  -8.01992E-09 -9.34193E-09 -9.79826E-09 -1.02248E-08 -1.04887E-08 -1.09268E-08 -1.04330E-08 -1.07623E-08 -9.95055E-09 -9.67837E-09
  -9.35320E-09 -8.17159E-09 -6.71699E-09 -6.41432E-09 -4.45660E-09 -3.80167E-09 -3.03254E-09 -2.51495E-09 -1.92804E-09 -1.45467E-09
  -1.70716E-09 -2.29588E-09 -2.47596E-09 -1.98080E-09 -2.02122E-09 -2.81519E-09 -2.30352E-09 -2.08953E-09 -2.26594E-09 -1.94042E-09
  -1.69340E-09 -2.05136E-09 -2.20132E-09 -1.72659E-09 -2.66591E-09 -2.71848E-09 -2.26346E-09 -1.69484E-09 -2.08334E-09 -2.10225E-09
  -2.08501E-09 -1.32814E-09 -1.72852E-09 -1.55997E-09 -2.22153E-09 -2.01600E-09 -2.16850E-09 -2.30374E-09 -1.79801E-09 -1.99489E-09
  -1.80622E-09 -1.49556E-09 -1.30411E-09 -1.79462E-09 -8.55140E-10 -1.26496E-09 -1.50573E-09 -1.24754E-09 -1.97690E-09 -1.49811E-09
  -1.90960E-09 -2.82363E-09 -2.16471E-09 -2.42570E-09 -1.94303E-09 -2.08365E-09 -1.48691E-09 -1.35301E-09 -9.52689E-10 -6.76709E-10
  -1.11073E-09 -1.05921E-09 -6.93307E-10 -9.05344E-10 -9.76572E-10 -9.95421E-10 -1.06919E-09 -7.34196E-10 -1.55104E-09 -1.81542E-09
  -1.17334E-09 -2.01161E-09 -1.81762E-09 -1.76761E-09 -1.67900E-09 -1.58452E-09 -1.77726E-09 -1.90810E-09 -1.50291E-09 -1.63537E-09
  -1.24521E-09 -2.01165E-09 -1.50263E-09 -1.18322E-09 -1.00599E-09 -1.42497E-09 -1.32941E-09 -1.28028E-09 -9.80144E-10 -1.39675E-09
  -1.38361E-09 -9.75479E-10 -1.75983E-09 -8.98986E-10 -1.52422E-09 -5.62723E-10 -9.70891E-10 -9.81313E-10 -7.78523E-10 -1.47457E-09
  -9.31707E-10 -9.31739E-10 -6.05550E-10 -7.39020E-10 -7.14429E-10 -1.34909E-09 -1.36769E-09 -5.04268E-10 -9.21421E-10 -7.52694E-10
  -1.41835E-09 -1.10086E-09 -1.20280E-09 -6.99138E-10 -1.16078E-09 -8.34052E-10 -1.30031E-09 -6.31570E-10 -5.29668E-10 -8.08652E-10
  -1.25597E-09 -9.95297E-10 -8.98892E-10 -8.74981E-10 -3.63286E-10 -8.14175E-10 -8.66289E-10 -1.28467E-09 -7.95857E-10 -1.03971E-09
  -7.84371E-10 -1.49052E-09 -6.19939E-10 -3.92149E-10 -9.81169E-10 -7.86342E-10 -7.76964E-10 -1.15307E-09 -6.62835E-10 -9.19516E-10
  -1.75665E-10 -9.85374E-10 -7.37074E-10 -1.14225E-09 -9.63976E-10 -3.49522E-10 -1.11778E-09 -8.52283E-10 -1.03545E-09 -1.07046E-09
  -6.65566E-10 -1.07650E-09 -1.10324E-09
 NY points of the fit to the data follow
   6.80409E-09  7.35512E-09  7.84561E-09  8.17865E-09  8.23268E-09  7.96880E-09  7.43562E-09  6.79884E-09  6.27265E-09  5.84774E-09
   5.68395E-09  5.71719E-09  5.85933E-09  6.09468E-09  6.43755E-09  6.85592E-09  7.32626E-09  7.84485E-09  8.31116E-09  8.60333E-09
   8.65929E-09  8.31917E-09  7.60557E-09  6.82362E-09  6.14305E-09  5.68412E-09  5.61132E-09  5.95937E-09  6.48772E-09  6.93293E-09
   7.12205E-09  7.32252E-09  7.60577E-09  7.77163E-09  7.91118E-09  8.20379E-09  8.42163E-09  8.33421E-09  7.89625E-09  7.22006E-09
   6.47996E-09  5.63159E-09  4.62062E-09  3.90691E-09  3.48469E-09  3.10524E-09  2.91496E-09  2.94474E-09  3.08828E-09  3.21653E-09
   3.28694E-09  3.28336E-09  3.26875E-09  3.25448E-09  3.26691E-09  3.32329E-09  3.38450E-09  3.41307E-09  3.37309E-09  3.33833E-09
   3.49194E-09  3.93856E-09  4.50022E-09  5.16328E-09  6.11283E-09  6.92846E-09  7.47494E-09  7.87077E-09  8.04662E-09  7.86499E-09
   7.31015E-09  6.41837E-09  5.41606E-09  4.59126E-09  3.77270E-09  3.13836E-09  3.17941E-09  3.90399E-09  4.90955E-09  6.34516E-09
   8.06935E-09  9.86423E-09  1.14391E-08  1.21286E-08  1.16831E-08  1.04842E-08  8.89905E-09  7.22590E-09  5.83860E-09  5.41424E-09
   5.27730E-09  5.17427E-09  4.87450E-09  4.41550E-09  4.09987E-09  3.73504E-09  3.26325E-09  2.96061E-09  2.74994E-09  2.56057E-09
   2.46836E-09  2.43432E-09  2.44570E-09  2.50671E-09  2.58230E-09  2.64955E-09  2.69602E-09  2.71841E-09  2.71563E-09  2.68477E-09
   2.62963E-09  2.57197E-09  2.53933E-09  2.50088E-09  2.47474E-09  2.48975E-09  2.51807E-09  2.55208E-09  2.58909E-09  2.62782E-09
   2.66756E-09  2.70782E-09  2.74826E-09  2.78860E-09  2.82864E-09  2.86818E-09  2.90708E-09  2.94519E-09  2.98238E-09  3.01854E-09
   3.05354E-09  3.08729E-09  3.11968E-09  3.15060E-09  3.17995E-09  3.20765E-09  3.23361E-09  3.25774E-09  3.27997E-09  3.30021E-09
   3.31838E-09  3.33431E-09  3.34781E-09  3.35871E-09  3.36682E-09  3.37199E-09  3.37404E-09  3.37283E-09  3.36822E-09  3.36009E-09
   3.34836E-09  3.33296E-09  3.31388E-09  3.29117E-09  3.26493E-09  3.23539E-09  3.20292E-09  3.16813E-09  3.13197E-09  3.09593E-09
   3.06243E-09  3.03553E-09  3.02245E-09  3.03740E-09  3.11320E-09  3.35025E-09  4.16980E-09  5.78531E-09  7.91804E-09  1.04250E-08
   1.32304E-08  1.58744E-08  1.75460E-08  1.75342E-08  1.56974E-08  1.25007E-08  8.66751E-09  4.92120E-09  2.23590E-09  9.47569E-10
   3.81384E-10  1.04051E-11 -2.84267E-10 -5.40778E-10 -7.75001E-10 -9.94577E-10 -1.20346E-09 -1.40376E-09 -1.59658E-09 -1.78247E-09
  -1.96160E-09 -2.13391E-09 -2.29921E-09 -2.45716E-09 -2.60741E-09 -2.74953E-09 -2.88320E-09 -3.00855E-09 -3.12580E-09 -3.23514E-09
  -3.33675E-09 -3.43079E-09 -3.51744E-09 -3.59686E-09 -3.66920E-09 -3.73461E-09 -3.79325E-09 -3.84525E-09 -3.89077E-09 -3.92993E-09
  -3.96290E-09 -3.98980E-09 -4.01077E-09 -4.02597E-09 -4.03551E-09 -4.03954E-09 -4.03820E-09 -4.03162E-09 -4.01994E-09 -4.00329E-09
  -3.98182E-09 -3.95564E-09 -3.92491E-09 -3.88976E-09 -3.85035E-09 -3.80694E-09 -3.75979E-09 -3.70916E-09 -3.65530E-09 -3.59847E-09
  -3.53894E-09 -3.47696E-09 -3.41280E-09 -3.34671E-09 -3.27894E-09 -3.20977E-09 -3.13943E-09 -3.06822E-09 -2.99634E-09 -2.92411E-09
  -2.85176E-09 -2.77954E-09 -2.70772E-09 -2.63657E-09 -2.56632E-09 -2.49725E-09 -2.42961E-09 -2.36365E-09 -2.29966E-09 -2.23787E-09
  -2.17854E-09 -2.12194E-09 -2.06817E-09 -2.01715E-09 -1.96879E-09 -1.92300E-09 -1.87967E-09 -1.83872E-09 -1.80004E-09 -1.76356E-09
  -1.72916E-09 -1.69676E-09 -1.66626E-09 -1.63757E-09 -1.61060E-09 -1.58524E-09 -1.56139E-09 -1.53899E-09 -1.51793E-09 -1.49809E-09
  -1.47941E-09 -1.46178E-09 -1.44509E-09 -1.42927E-09 -1.41423E-09 -1.39985E-09 -1.38606E-09 -1.37274E-09 -1.35982E-09 -1.34720E-09
  -1.33482E-09 -1.32268E-09 -1.31078E-09 -1.29911E-09 -1.28767E-09 -1.27643E-09 -1.26541E-09 -1.25460E-09 -1.24398E-09 -1.23355E-09
  -1.22331E-09 -1.21325E-09 -1.20336E-09 -1.19363E-09 -1.18407E-09 -1.17466E-09 -1.16540E-09 -1.15628E-09 -1.14730E-09 -1.13844E-09
  -1.12971E-09 -1.12110E-09 -1.11259E-09 -1.10419E-09 -1.09589E-09 -1.08768E-09 -1.07955E-09 -1.07151E-09 -1.06354E-09 -1.05566E-09
  -1.04787E-09 -1.04017E-09 -1.03258E-09 -1.02509E-09 -1.01770E-09 -1.01043E-09 -1.00328E-09 -9.96251E-10 -9.89351E-10 -9.82581E-10
  -9.75952E-10 -9.69461E-10 -9.63115E-10 -9.56926E-10 -9.50887E-10 -9.45015E-10 -9.39305E-10 -9.33764E-10 -9.28398E-10 -9.23217E-10
  -9.18214E-10 -9.13402E-10 -9.08782E-10 -9.04363E-10 -9.00149E-10 -8.96137E-10 -8.92328E-10 -8.88717E-10 -8.85293E-10 -8.82049E-10
  -8.78981E-10 -8.76077E-10 -8.73333E-10 -8.70741E-10 -8.68296E-10 -8.65985E-10 -8.63809E-10 -8.61755E-10 -8.59817E-10 -8.57989E-10
  -8.56260E-10 -8.54629E-10 -8.53084E-10 -8.51621E-10 -8.50230E-10 -8.48907E-10 -8.47642E-10 -8.46426E-10 -8.45256E-10 -8.44126E-10
  -8.43026E-10 -8.41950E-10 -8.40886E-10
 NY background values follow
     3.272E-10    3.168E-10    3.065E-10    2.961E-10    2.857E-10    2.753E-10    2.649E-10    2.545E-10    2.442E-10    2.338E-10
     2.234E-10    2.131E-10    2.027E-10    1.924E-10    1.821E-10    1.718E-10    1.616E-10    1.513E-10    1.411E-10    1.310E-10
     1.209E-10    1.108E-10    1.007E-10    9.070E-11    8.073E-11    7.082E-11    6.095E-11    5.113E-11    4.137E-11    3.167E-11
     2.207E-11    1.259E-11    3.266E-12   -5.870E-12   -1.479E-11   -2.345E-11   -3.184E-11   -3.991E-11   -4.764E-11   -5.499E-11
    -6.193E-11   -6.844E-11   -7.447E-11   -8.001E-11   -8.501E-11   -8.944E-11   -9.328E-11   -9.649E-11   -9.904E-11   -1.009E-10
    -1.020E-10   -1.024E-10   -1.020E-10   -1.008E-10   -9.874E-11   -9.579E-11   -9.194E-11   -8.715E-11   -8.141E-11   -7.474E-11
    -6.710E-11   -5.852E-11   -4.896E-11   -3.844E-11   -2.694E-11   -1.446E-11   -9.931E-13    1.347E-11    2.893E-11    4.539E-11
     6.287E-11    8.136E-11    1.009E-10    1.214E-10    1.430E-10    1.656E-10    1.893E-10    2.140E-10    2.397E-10    2.666E-10
     2.945E-10    3.235E-10    3.535E-10    3.846E-10    4.169E-10    4.502E-10    4.845E-10    5.199E-10    5.562E-10    5.935E-10
     6.316E-10    6.706E-10    7.105E-10    7.511E-10    7.924E-10    8.345E-10    8.773E-10    9.207E-10    9.647E-10    1.009E-09
     1.054E-09    1.100E-09    1.146E-09    1.192E-09    1.239E-09    1.286E-09    1.334E-09    1.382E-09    1.430E-09    1.478E-09
     1.526E-09    1.575E-09    1.623E-09    1.672E-09    1.720E-09    1.769E-09    1.817E-09    1.865E-09    1.912E-09    1.959E-09
     2.005E-09    2.051E-09    2.096E-09    2.140E-09    2.183E-09    2.225E-09    2.266E-09    2.305E-09    2.344E-09    2.381E-09
     2.416E-09    2.450E-09    2.482E-09    2.513E-09    2.542E-09    2.569E-09    2.594E-09    2.616E-09    2.637E-09    2.655E-09
     2.671E-09    2.685E-09    2.695E-09    2.703E-09    2.708E-09    2.709E-09    2.707E-09    2.700E-09    2.690E-09    2.676E-09
     2.657E-09    2.633E-09    2.605E-09    2.571E-09    2.532E-09    2.488E-09    2.438E-09    2.382E-09    2.320E-09    2.251E-09
     2.176E-09    2.094E-09    2.005E-09    1.909E-09    1.805E-09    1.694E-09    1.575E-09    1.448E-09    1.312E-09    1.169E-09
     1.019E-09    8.620E-10    6.991E-10    5.307E-10    3.576E-10    1.802E-10   -9.074E-13   -1.850E-10   -3.717E-10   -5.602E-10
    -7.500E-10   -9.406E-10   -1.131E-09   -1.322E-09   -1.511E-09   -1.698E-09   -1.884E-09   -2.066E-09   -2.245E-09   -2.421E-09
    -2.591E-09   -2.757E-09   -2.917E-09   -3.070E-09   -3.217E-09   -3.356E-09   -3.487E-09   -3.610E-09   -3.726E-09   -3.834E-09
    -3.934E-09   -4.027E-09   -4.113E-09   -4.192E-09   -4.264E-09   -4.329E-09   -4.387E-09   -4.439E-09   -4.484E-09   -4.523E-09
    -4.556E-09   -4.583E-09   -4.604E-09   -4.619E-09   -4.628E-09   -4.632E-09   -4.631E-09   -4.625E-09   -4.613E-09   -4.597E-09
    -4.575E-09   -4.549E-09   -4.519E-09   -4.484E-09   -4.444E-09   -4.401E-09   -4.354E-09   -4.304E-09   -4.250E-09   -4.194E-09
    -4.134E-09   -4.072E-09   -4.008E-09   -3.943E-09   -3.875E-09   -3.806E-09   -3.736E-09   -3.665E-09   -3.593E-09   -3.521E-09
    -3.449E-09   -3.377E-09   -3.305E-09   -3.234E-09   -3.164E-09   -3.095E-09   -3.028E-09   -2.962E-09   -2.898E-09   -2.837E-09
    -2.777E-09   -2.721E-09   -2.667E-09   -2.617E-09   -2.568E-09   -2.523E-09   -2.479E-09   -2.439E-09   -2.400E-09   -2.364E-09
    -2.330E-09   -2.297E-09   -2.267E-09   -2.238E-09   -2.211E-09   -2.186E-09   -2.162E-09   -2.140E-09   -2.119E-09   -2.099E-09
    -2.081E-09   -2.063E-09   -2.047E-09   -2.031E-09   -2.016E-09   -2.002E-09   -1.988E-09   -1.975E-09   -1.962E-09   -1.949E-09
    -1.937E-09   -1.925E-09   -1.913E-09   -1.901E-09   -1.890E-09   -1.879E-09   -1.868E-09   -1.857E-09   -1.846E-09   -1.836E-09
    -1.826E-09   -1.816E-09   -1.806E-09   -1.796E-09   -1.787E-09   -1.777E-09   -1.768E-09   -1.759E-09   -1.750E-09   -1.741E-09
    -1.732E-09   -1.724E-09   -1.715E-09   -1.707E-09   -1.698E-09   -1.690E-09   -1.682E-09   -1.674E-09   -1.666E-09   -1.658E-09
    -1.650E-09   -1.642E-09   -1.635E-09   -1.627E-09   -1.620E-09   -1.612E-09   -1.605E-09   -1.598E-09   -1.591E-09   -1.584E-09
    -1.577E-09   -1.571E-09   -1.564E-09   -1.558E-09   -1.552E-09   -1.546E-09   -1.540E-09   -1.535E-09   -1.529E-09   -1.524E-09
    -1.519E-09   -1.514E-09   -1.509E-09   -1.504E-09   -1.500E-09   -1.496E-09   -1.492E-09   -1.488E-09   -1.485E-09   -1.481E-09
    -1.478E-09   -1.475E-09   -1.472E-09   -1.469E-09   -1.467E-09   -1.464E-09   -1.462E-09   -1.460E-09   -1.458E-09   -1.456E-09
    -1.454E-09   -1.452E-09   -1.450E-09   -1.448E-09   -1.447E-09   -1.445E-09   -1.444E-09   -1.442E-09   -1.441E-09   -1.440E-09
    -1.438E-09   -1.437E-09   -1.436E-09
 Ala      Conc. = 1.09E-10
   4.10880E-10  4.08524E-10  4.03521E-10  3.96035E-10  3.85837E-10  3.73187E-10  3.56869E-10  3.35886E-10  3.16030E-10  2.97130E-10
   2.73715E-10  2.52884E-10  2.36323E-10  2.19171E-10  2.03499E-10  1.90044E-10  1.77716E-10  1.66045E-10  1.54796E-10  1.43841E-10
   1.33103E-10  1.22534E-10  1.12103E-10  1.01789E-10  9.15760E-11  8.14579E-11  7.14251E-11  6.14732E-11  5.16007E-11  4.18131E-11
   3.21357E-11  2.25964E-11  1.32255E-11  4.05234E-12 -4.89311E-12 -1.35803E-11 -2.19787E-11 -3.00574E-11 -3.77863E-11 -4.51346E-11
  -5.20698E-11 -5.85628E-11 -6.45806E-11 -7.00933E-11 -7.50681E-11 -7.94757E-11 -8.32832E-11 -8.64586E-11 -8.89731E-11 -9.07928E-11
  -9.18863E-11 -9.22241E-11 -9.17723E-11 -9.05006E-11 -8.83746E-11 -8.53679E-11 -8.14464E-11 -7.65862E-11 -7.07810E-11 -6.40247E-11
  -5.63109E-11 -4.76338E-11 -3.79872E-11 -2.73647E-11 -1.57601E-11 -3.16716E-12  1.04207E-11  2.50098E-11  4.06068E-11  5.72184E-11
   7.48513E-11  9.35125E-11  1.13209E-10  1.33948E-10  1.55737E-10  1.78584E-10  2.02497E-10  2.27485E-10  2.53555E-10  2.80719E-10
   3.08986E-10  3.38367E-10  3.68874E-10  4.00522E-10  4.33325E-10  4.67280E-10  5.02368E-10  5.38572E-10  5.75879E-10  6.14288E-10
   6.53805E-10  6.94457E-10  7.36292E-10  7.79403E-10  8.23949E-10  8.70207E-10  9.18689E-10  9.70424E-10  1.02785E-09  1.09858E-09
   1.19363E-09  1.29049E-09  1.39829E-09  1.53300E-09  1.66649E-09  1.78007E-09  1.86409E-09  1.91734E-09  1.94029E-09  1.93117E-09
   1.89470E-09  1.85304E-09  1.83407E-09  1.80732E-09  1.79117E-09  1.81476E-09  1.85057E-09  1.89111E-09  1.93378E-09  1.97740E-09
   2.02135E-09  2.06522E-09  2.10873E-09  2.15169E-09  2.19392E-09  2.23527E-09  2.27564E-09  2.31489E-09  2.35292E-09  2.38964E-09
   2.42493E-09  2.45871E-09  2.49087E-09  2.52133E-09  2.54999E-09  2.57676E-09  2.60155E-09  2.62427E-09  2.64484E-09  2.66315E-09
   2.67912E-09  2.69257E-09  2.70328E-09  2.71104E-09  2.71565E-09  2.71687E-09  2.71451E-09  2.70835E-09  2.69817E-09  2.68376E-09
   2.66493E-09  2.64144E-09  2.61309E-09  2.57967E-09  2.54098E-09  2.49680E-09  2.44693E-09  2.39116E-09  2.32931E-09  2.26118E-09
   2.18659E-09  2.10539E-09  2.01748E-09  1.92282E-09  1.82164E-09  1.71494E-09  1.60769E-09  1.51121E-09  1.41252E-09  1.31206E-09
   1.21133E-09  1.10334E-09  9.74219E-10  8.10365E-10  6.09621E-10  3.81226E-10  1.38929E-10 -1.05515E-10 -3.37743E-10 -5.39111E-10
  -7.34044E-10 -9.27273E-10 -1.11958E-09 -1.31090E-09 -1.50085E-09 -1.68898E-09 -1.87476E-09 -2.05767E-09 -2.23711E-09 -2.41254E-09
  -2.58338E-09 -2.74905E-09 -2.90897E-09 -3.06254E-09 -3.20920E-09 -3.34836E-09 -3.47958E-09 -3.60290E-09 -3.71846E-09 -3.82640E-09
  -3.92684E-09 -4.01992E-09 -4.10578E-09 -4.18454E-09 -4.25635E-09 -4.32133E-09 -4.37963E-09 -4.43136E-09 -4.47668E-09 -4.51570E-09
  -4.54858E-09 -4.57542E-09 -4.59638E-09 -4.61159E-09 -4.62117E-09 -4.62528E-09 -4.62403E-09 -4.61755E-09 -4.60599E-09 -4.58948E-09
  -4.56815E-09 -4.54213E-09 -4.51156E-09 -4.47658E-09 -4.43735E-09 -4.39413E-09 -4.34716E-09 -4.29672E-09 -4.24305E-09 -4.18642E-09
  -4.12709E-09 -4.06531E-09 -4.00134E-09 -3.93545E-09 -3.86787E-09 -3.79889E-09 -3.72876E-09 -3.65773E-09 -3.58605E-09 -3.51400E-09
  -3.44184E-09 -3.36981E-09 -3.29817E-09 -3.22720E-09 -3.15713E-09 -3.08823E-09 -3.02076E-09 -2.95498E-09 -2.89114E-09 -2.82952E-09
  -2.77035E-09 -2.71391E-09 -2.66029E-09 -2.60942E-09 -2.56121E-09 -2.51556E-09 -2.47237E-09 -2.43155E-09 -2.39301E-09 -2.35665E-09
  -2.32239E-09 -2.29011E-09 -2.25973E-09 -2.23115E-09 -2.20429E-09 -2.17904E-09 -2.15530E-09 -2.13300E-09 -2.11203E-09 -2.09229E-09
  -2.07369E-09 -2.05615E-09 -2.03955E-09 -2.02381E-09 -2.00885E-09 -1.99454E-09 -1.98081E-09 -1.96757E-09 -1.95471E-09 -1.94214E-09
  -1.92981E-09 -1.91773E-09 -1.90588E-09 -1.89425E-09 -1.88285E-09 -1.87165E-09 -1.86067E-09 -1.84988E-09 -1.83929E-09 -1.82888E-09
  -1.81866E-09 -1.80862E-09 -1.79874E-09 -1.78903E-09 -1.77947E-09 -1.77006E-09 -1.76080E-09 -1.75168E-09 -1.74269E-09 -1.73382E-09
  -1.72508E-09 -1.71644E-09 -1.70791E-09 -1.69949E-09 -1.69116E-09 -1.68292E-09 -1.67476E-09 -1.66668E-09 -1.65867E-09 -1.65074E-09
  -1.64291E-09 -1.63516E-09 -1.62751E-09 -1.61996E-09 -1.61251E-09 -1.60518E-09 -1.59796E-09 -1.59086E-09 -1.58388E-09 -1.57704E-09
  -1.57033E-09 -1.56375E-09 -1.55732E-09 -1.55104E-09 -1.54490E-09 -1.53893E-09 -1.53312E-09 -1.52748E-09 -1.52200E-09 -1.51671E-09
  -1.51159E-09 -1.50667E-09 -1.50192E-09 -1.49738E-09 -1.49304E-09 -1.48890E-09 -1.48495E-09 -1.48120E-09 -1.47764E-09 -1.47425E-09
  -1.47104E-09 -1.46798E-09 -1.46508E-09 -1.46233E-09 -1.45973E-09 -1.45725E-09 -1.45491E-09 -1.45268E-09 -1.45057E-09 -1.44856E-09
  -1.44665E-09 -1.44484E-09 -1.44310E-09 -1.44145E-09 -1.43986E-09 -1.43834E-09 -1.43687E-09 -1.43545E-09 -1.43407E-09 -1.43273E-09
  -1.43141E-09 -1.43012E-09 -1.42883E-09
 Asp      Conc. = 5.72E-10
   1.00710E-09  9.12241E-10  8.10924E-10  6.98868E-10  5.93068E-10  4.89025E-10  4.09302E-10  3.48979E-10  3.16366E-10  2.94407E-10
   2.77681E-10  2.63917E-10  2.51945E-10  2.41063E-10  2.30611E-10  2.20463E-10  2.10658E-10  2.01168E-10  1.91965E-10  1.83030E-10
   1.74360E-10  1.65958E-10  1.57840E-10  1.50028E-10  1.42556E-10  1.35472E-10  1.28833E-10  1.22720E-10  1.17240E-10  1.12544E-10
   1.08855E-10  1.06485E-10  1.05891E-10  1.07782E-10  1.13389E-10  1.25213E-10  1.48981E-10  1.78745E-10  2.20173E-10  2.61612E-10
   2.98985E-10  3.28562E-10  3.49803E-10  3.72935E-10  4.01406E-10  4.68702E-10  5.53325E-10  6.61584E-10  8.10739E-10  9.39315E-10
   1.00715E-09  9.87451E-10  8.95397E-10  7.57605E-10  6.07370E-10  4.84203E-10  3.82304E-10  3.29361E-10  2.66288E-10  2.01238E-10
   1.79969E-10  1.79099E-10  1.75486E-10  1.72576E-10  1.65480E-10  1.46374E-10  1.20897E-10  1.12438E-10  1.13103E-10  1.19143E-10
   1.28870E-10  1.41391E-10  1.56184E-10  1.72918E-10  1.91374E-10  2.11400E-10  2.32891E-10  2.55767E-10  2.79970E-10  3.05460E-10
   3.32202E-10  3.60172E-10  3.89353E-10  4.19730E-10  4.51293E-10  4.84013E-10  5.17846E-10  5.52744E-10  5.88664E-10  6.25563E-10
   6.63397E-10  7.02126E-10  7.41710E-10  7.82107E-10  8.23279E-10  8.65186E-10  9.07789E-10  9.51050E-10  9.94929E-10  1.03939E-09
   1.08439E-09  1.12990E-09  1.17587E-09  1.22228E-09  1.26907E-09  1.31622E-09  1.36369E-09  1.41144E-09  1.45943E-09  1.50763E-09
   1.55600E-09  1.60449E-09  1.65309E-09  1.70170E-09  1.75026E-09  1.79866E-09  1.84683E-09  1.89467E-09  1.94210E-09  1.98904E-09
   2.03538E-09  2.08105E-09  2.12595E-09  2.17000E-09  2.21312E-09  2.25521E-09  2.29619E-09  2.33596E-09  2.37445E-09  2.41156E-09
   2.44721E-09  2.48131E-09  2.51377E-09  2.54451E-09  2.57344E-09  2.60046E-09  2.62551E-09  2.64848E-09  2.66929E-09  2.68786E-09
   2.70409E-09  2.71780E-09  2.72879E-09  2.73685E-09  2.74177E-09  2.74333E-09  2.74132E-09  2.73555E-09  2.72581E-09  2.71188E-09
   2.69357E-09  2.67067E-09  2.64298E-09  2.61033E-09  2.57250E-09  2.52934E-09  2.48066E-09  2.42632E-09  2.36619E-09  2.30018E-09
   2.22827E-09  2.15055E-09  2.06732E-09  1.97930E-09  1.88829E-09  1.79926E-09  1.73174E-09  1.75753E-09  1.81115E-09  1.88666E-09
   1.99271E-09  2.09644E-09  2.12575E-09  2.00193E-09  1.70221E-09  1.26671E-09  7.65248E-10  2.58100E-10 -1.89711E-10 -4.60785E-10
  -6.80073E-10 -8.85102E-10 -1.08416E-09 -1.27971E-09 -1.47249E-09 -1.66261E-09 -1.84983E-09 -2.03380E-09 -2.21405E-09 -2.39010E-09
  -2.56142E-09 -2.72748E-09 -2.88770E-09 -3.04152E-09 -3.18837E-09 -3.32769E-09 -3.45904E-09 -3.58247E-09 -3.69811E-09 -3.80612E-09
  -3.90661E-09 -3.99974E-09 -4.08563E-09 -4.16442E-09 -4.23625E-09 -4.30124E-09 -4.35955E-09 -4.41129E-09 -4.45661E-09 -4.49564E-09
  -4.52851E-09 -4.55535E-09 -4.57631E-09 -4.59151E-09 -4.60108E-09 -4.60518E-09 -4.60392E-09 -4.59743E-09 -4.58586E-09 -4.56934E-09
  -4.54800E-09 -4.52197E-09 -4.49139E-09 -4.45639E-09 -4.41715E-09 -4.37391E-09 -4.32694E-09 -4.27648E-09 -4.22280E-09 -4.16615E-09
