 LCModel (Version 6.3-1R) Copyright: S.W. Provencher.          Ref.: Magn. Reson. Med. 30:672-679 (1993).                
 onepulse 20x27_ftSpec_smooth_lcm
 26 lines in following concentration table = NCONC+1
    Conc.  %SD   /Cr    Metabolite                                         
 1.43E-10 216%   0.000 Ala                                                 
 1.21E-09  57%   0.000 Asp                                                 
    0.000 999%   0.000 Cr                                                  
 2.61E-10 200%   0.000 GABA                                                
    0.000 999%   0.000 Glc                                                 
    0.000 999%   0.000 Gln                                                 
 2.21E-09  29%   0.000 Glu                                                 
 1.69E-09  26%   0.000 Glyc                                                
    0.000 999%   0.000 GPC                                                 
    0.000 999%   0.000 GSH                                                 
    0.000 999%   0.000 Ins                                                 
    0.000 999%   0.000 Lac                                                 
 6.64E-11 331%   0.000 NAAG                                                
    0.000 999%   0.000 NAA                                                 
    0.000 999%   0.000 PCh                                                 
    0.000 999%   0.000 PCr                                                 
    0.000 999%   0.000 PE                                                  
 3.57E-10  77%   0.000 Scyllo                                              
 5.40E-09  17%   0.000 Ser                                                 
 1.26E-11 999%   0.000 Tau                                                 
    0.000 999%   0.000 GPC+PCh                                             
 6.64E-11 331%   0.000 NAA+NAAG                                            
 1.69E-09  26%   0.000 Ins+Glyc                                            
    0.000 999%   0.000 Cr+PCr                                              
 2.21E-09  29%   0.000 Glu+Gln                                             
   6 lines in following misc. output table
  FWHM = 0.112 ppm    S/N =   3                                            
  Data shift = 0.514 ppm                                                   
  Ph: -25 deg     -59.3 deg/ppm                                            
  alphaB,S = 5.4E+01,   3.9E+01                                            
    9 spline knots.   Ns = 5(1)                                            
  (12) 6 infls.   (11) 5 extrs.                                            
  363 points on ppm-axis = NY
      4.250000     4.238821     4.227641     4.216462     4.205282     4.194103     4.182923     4.171744     4.160564     4.149385
      4.138206     4.127026     4.115847     4.104667     4.093488     4.082308     4.071129     4.059949     4.048770     4.037591
      4.026411     4.015232     4.004052     3.992873     3.981693     3.970514     3.959334     3.948155     3.936975     3.925796
      3.914617     3.903437     3.892258     3.881078     3.869899     3.858719     3.847540     3.836360     3.825181     3.814002
      3.802822     3.791643     3.780463     3.769284     3.758104     3.746925     3.735745     3.724566     3.713387     3.702207
      3.691028     3.679848     3.668669     3.657489     3.646310     3.635130     3.623951     3.612772     3.601592     3.590413
      3.579233     3.568054     3.556874     3.545695     3.534515     3.523336     3.512156     3.500977     3.489798     3.478618
      3.467439     3.456259     3.445080     3.433900     3.422721     3.411541     3.400362     3.389183     3.378003     3.366824
      3.355644     3.344465     3.333285     3.322106     3.310926     3.299747     3.288568     3.277388     3.266209     3.255029
      3.243850     3.232670     3.221491     3.210311     3.199132     3.187953     3.176773     3.165594     3.154414     3.143235
      3.132055     3.120876     3.109696     3.098517     3.087337     3.076158     3.064979     3.053799     3.042620     3.031440
      3.020261     3.009081     2.997902     2.986722     2.975543     2.964364     2.953184     2.942005     2.930825     2.919646
      2.908466     2.897287     2.886107     2.874928     2.863749     2.852569     2.841390     2.830210     2.819031     2.807851
      2.796672     2.785492     2.774313     2.763134     2.751954     2.740775     2.729595     2.718416     2.707236     2.696057
      2.684877     2.673698     2.662519     2.651339     2.640160     2.628980     2.617801     2.606621     2.595442     2.584262
      2.573083     2.561903     2.550724     2.539545     2.528365     2.517186     2.506006     2.494827     2.483647     2.472468
      2.461288     2.450109     2.438930     2.427750     2.416571     2.405391     2.394212     2.383032     2.371853     2.360673
      2.349494     2.338315     2.327135     2.315956     2.304776     2.293597     2.282417     2.271238     2.260058     2.248879
      2.237700     2.226520     2.215341     2.204161     2.192982     2.181802     2.170623     2.159443     2.148264     2.137084
      2.125905     2.114726     2.103546     2.092367     2.081187     2.070008     2.058828     2.047649     2.036469     2.025290
      2.014111     2.002931     1.991752     1.980572     1.969393     1.958213     1.947034     1.935854     1.924675     1.913496
      1.902316     1.891137     1.879957     1.868778     1.857598     1.846419     1.835239     1.824060     1.812881     1.801701
      1.790522     1.779342     1.768163     1.756983     1.745804     1.734624     1.723445     1.712265     1.701086     1.689907
      1.678727     1.667548     1.656368     1.645189     1.634009     1.622830     1.611650     1.600471     1.589292     1.578112
      1.566933     1.555753     1.544574     1.533394     1.522215     1.511035     1.499856     1.488677     1.477497     1.466318
      1.455138     1.443959     1.432779     1.421600     1.410420     1.399241     1.388062     1.376882     1.365703     1.354523
      1.343344     1.332164     1.320985     1.309805     1.298626     1.287446     1.276267     1.265088     1.253908     1.242729
      1.231549     1.220370     1.209190     1.198011     1.186831     1.175652     1.164473     1.153293     1.142114     1.130934
      1.119755     1.108575     1.097396     1.086216     1.075037     1.063858     1.052678     1.041499     1.030319     1.019140
      1.007960     0.996781     0.985601     0.974422     0.963243     0.952063     0.940884     0.929704     0.918525     0.907345
      0.896166     0.884986     0.873807     0.862628     0.851448     0.840269     0.829089     0.817910     0.806730     0.795551
      0.784371     0.773192     0.762012     0.750833     0.739654     0.728474     0.717295     0.706115     0.694936     0.683756
      0.672577     0.661397     0.650218     0.639039     0.627859     0.616680     0.605500     0.594321     0.583141     0.571962
      0.560782     0.549603     0.538424     0.527244     0.516065     0.504885     0.493706     0.482526     0.471347     0.460167
      0.448988     0.437809     0.426629     0.415450     0.404270     0.393091     0.381911     0.370732     0.359552     0.348373
      0.337193     0.326014     0.314835     0.303655     0.292476     0.281296     0.270117     0.258937     0.247758     0.236578
      0.225399     0.214220     0.203040
 NY phased data points follow
  -4.47880E-09 -3.27425E-09 -2.73209E-09 -2.65085E-09 -2.17711E-09 -1.92098E-09 -5.61947E-10 -1.60214E-09 -1.47698E-09 -2.27380E-09
  -2.33138E-09 -1.67137E-09 -6.53819E-10 -2.88590E-10 -3.55545E-10 -1.83449E-09 -3.19494E-09 -2.63350E-09 -1.99944E-09  6.47296E-10
   2.35282E-09  3.42749E-09  3.36120E-09  2.73355E-09  3.28294E-09  2.98230E-09  2.65976E-09  2.87951E-09  2.48750E-09  3.07899E-09
   3.03191E-09  3.50958E-09  2.76087E-09  2.70337E-09  2.09441E-09  1.81087E-09  1.47505E-09  1.04655E-09  1.39670E-09  1.94140E-09
   1.94414E-09  9.15922E-10  2.35667E-10 -9.44603E-11 -8.13061E-10 -9.94561E-10 -1.84881E-09 -2.87009E-09 -3.55482E-09 -2.74929E-09
   1.18481E-10  1.87095E-09  2.65447E-09  3.56529E-09  3.15049E-09  2.89436E-09  3.16404E-09  2.58917E-09  1.91839E-09  1.49131E-09
   7.46256E-10  1.59547E-11 -2.09271E-09 -5.20893E-09 -7.31495E-09 -6.95361E-09 -3.36271E-09  1.60929E-09  3.55568E-09  4.26226E-09
   5.25643E-09  5.39887E-09  5.81191E-09  5.81626E-09  5.62260E-09  6.03585E-09  6.38340E-09  6.77719E-09  6.72780E-09  6.81846E-09
   6.98006E-09  7.23159E-09  6.84083E-09  6.60590E-09  6.24907E-09  6.39564E-09  5.46564E-09  5.20313E-09  5.78451E-09  5.86553E-09
   5.39842E-09  5.82509E-09  5.90068E-09  6.74069E-09  6.92018E-09  6.06927E-09  5.99208E-09  4.74332E-09  4.05680E-09  4.37372E-09
   3.98588E-09  4.67561E-09  3.81694E-09  3.95058E-09  4.20821E-09  4.16649E-09  4.56891E-09  5.26370E-09  5.95071E-09  5.62550E-09
   5.60241E-09  4.76913E-09  3.92239E-09  3.79014E-09  3.34775E-09  3.36577E-09  3.20543E-09  2.97209E-09  2.88917E-09  2.74719E-09
   2.84143E-09  2.91560E-09  2.31384E-09  1.21679E-09  2.26419E-10  4.51518E-10  1.17354E-09  1.99657E-09  2.21709E-09  2.22562E-09
   1.48947E-09  2.39947E-09  2.41136E-09  3.32914E-09  3.73686E-09  3.55767E-09  4.07052E-09  4.40395E-09  4.34819E-09  3.77581E-09
   3.67955E-09  3.65682E-09  3.39770E-09  3.08427E-09  3.07655E-09  3.25341E-09  2.36631E-09  2.32803E-09  2.45500E-09  2.24850E-09
   1.70395E-09  1.39541E-09  8.01034E-10 -1.07388E-10 -2.01599E-09 -3.83942E-09 -3.86049E-09  2.14693E-09  7.96809E-09  1.13580E-08
   1.27904E-08  1.38521E-08  1.43475E-08  1.55980E-08  1.56609E-08  1.62176E-08  1.68824E-08  1.75828E-08  1.83714E-08  1.84834E-08
   1.89688E-08  1.96657E-08  2.01342E-08  2.01773E-08  2.04285E-08  1.98076E-08  2.01754E-08  1.98101E-08  1.89769E-08  1.82843E-08
   1.69402E-08  1.50053E-08  1.37364E-08  1.16149E-08  9.04951E-09  6.76766E-09  4.40622E-09  1.84167E-09 -3.33117E-10 -1.88638E-09
  -3.88194E-09 -5.15527E-09 -6.15439E-09 -6.99906E-09 -6.25203E-09 -6.13406E-09 -5.57587E-09 -4.72033E-09 -4.04575E-09 -3.15139E-09
  -2.48919E-09 -1.54178E-09 -1.26599E-09 -5.52050E-10 -3.93412E-10 -5.41207E-10 -7.08494E-10 -5.67465E-10 -7.81549E-10 -9.29613E-10
  -5.23239E-10 -3.03932E-10 -4.58777E-10 -5.80976E-11 -2.83987E-10  4.04464E-10 -1.57944E-10 -6.92738E-12 -1.95113E-10 -4.34517E-10
  -5.06916E-10 -5.55066E-10 -1.45376E-10 -3.65313E-10 -3.92315E-10  3.41736E-10 -4.06355E-10  2.70922E-10 -4.76568E-10 -1.55706E-10
  -1.79873E-10 -4.46906E-12 -7.84676E-10 -5.86343E-10 -8.00334E-10 -4.69714E-10 -6.96597E-10 -4.43492E-10 -5.71667E-10 -1.33706E-10
  -1.07896E-10 -3.74904E-12  2.44584E-10  3.61191E-10  8.38865E-10  4.53210E-10 -3.98983E-11  2.63418E-10 -7.02355E-11 -3.91785E-10
  -8.90413E-10 -9.28558E-10 -1.37569E-09 -1.86853E-09 -1.60741E-09 -1.56152E-09 -1.27645E-09 -8.74872E-10 -1.07443E-09 -8.09276E-10
  -7.31612E-10 -2.98125E-12  1.72608E-10  2.84504E-10  3.79969E-10  4.53773E-10  5.54747E-10  7.69888E-10  4.34719E-10  2.73382E-10
  -1.69555E-10  1.29846E-10 -5.73026E-11  2.28724E-10 -3.12176E-10 -2.54997E-11 -6.62471E-10 -1.82418E-10 -9.08114E-10 -3.70637E-10
  -2.77636E-10 -6.33494E-10 -8.07653E-10 -3.99054E-10 -1.32687E-09 -6.05607E-10 -7.35311E-10 -9.33501E-10 -8.22833E-10 -9.92655E-10
  -8.55519E-10 -1.06662E-09 -8.50241E-10 -1.36883E-09 -1.26197E-09 -1.15532E-09 -1.42917E-09 -1.25881E-09 -1.61026E-09 -1.52021E-09
  -1.35400E-09 -1.60656E-09 -1.45814E-09 -1.24965E-09 -1.60612E-09 -1.68028E-09 -1.37865E-09 -1.44149E-09 -1.74768E-09 -1.53062E-09
  -1.12326E-09 -1.57998E-09 -1.51568E-09 -1.69558E-09 -1.29571E-09 -1.29599E-09 -1.76494E-09 -1.17183E-09 -1.62674E-09 -1.51993E-09
  -1.57571E-09 -1.04220E-09 -1.80770E-09 -1.32074E-09 -2.18792E-09 -1.17986E-09 -1.47076E-09 -1.71098E-09 -1.66696E-09 -1.50196E-09
  -1.57587E-09 -1.31580E-09 -1.73065E-09 -1.38170E-09 -1.35677E-09 -1.67209E-09 -2.02998E-09 -1.43571E-09 -1.60946E-09 -1.71200E-09
  -1.01997E-09 -1.93930E-09 -1.41058E-09 -1.36250E-09 -1.48752E-09 -1.38435E-09 -1.46587E-09 -1.39979E-09 -1.58819E-09 -1.21064E-09
  -1.51400E-09 -1.63453E-09 -1.31232E-09 -1.34152E-09 -1.57130E-09 -1.10880E-09 -1.62566E-09 -1.31652E-09 -1.28379E-09 -1.81679E-09
  -1.61073E-09 -1.19895E-09 -1.38766E-09
 NY points of the fit to the data follow
  -7.93731E-09 -5.21993E-09 -4.84906E-09 -3.83781E-09 -1.88429E-09 -1.02931E-10  5.17008E-10 -9.48939E-11 -1.57311E-09 -2.83251E-09
  -2.67202E-09 -1.87558E-09 -1.31743E-09 -9.50440E-10 -1.10818E-09 -1.43578E-09 -1.59184E-09 -1.42993E-09  1.04125E-10  2.08637E-09
   2.53007E-09  2.28057E-09  2.04952E-09  1.81960E-09  1.70191E-09  1.92704E-09  2.67999E-09  3.77520E-09  4.40006E-09  3.69599E-09
   3.02955E-09  2.51471E-09  2.08251E-09  1.77688E-09  1.52801E-09  1.28146E-09  1.09213E-09  9.89413E-10  9.59625E-10  9.43410E-10
   8.62323E-10  7.15321E-10  5.22154E-10  3.48759E-10  1.53235E-10  3.02007E-10  5.61107E-10  6.17432E-10  4.95264E-10  4.11043E-10
   4.38556E-10  5.90144E-10  8.72728E-10  1.12590E-09  1.10408E-09  9.08258E-10  4.40237E-10  1.65845E-10 -4.37272E-11 -3.12754E-10
  -4.04132E-10 -4.56236E-10 -5.08741E-10  4.28552E-12  7.55674E-10  1.57565E-09  2.45344E-09  3.31148E-09  4.11285E-09  4.75918E-09
   5.15296E-09  5.46940E-09  5.82024E-09  5.65759E-09  5.19302E-09  5.01338E-09  4.82130E-09  4.72352E-09  4.97145E-09  5.28576E-09
   5.71687E-09  6.18479E-09  6.61181E-09  7.10324E-09  7.47467E-09  7.63684E-09  7.67618E-09  7.48871E-09  7.25920E-09  6.92945E-09
   6.66941E-09  6.38095E-09  6.16905E-09  5.96705E-09  5.71894E-09  5.55095E-09  5.40501E-09  5.21037E-09  5.04229E-09  4.90421E-09
   4.85721E-09  4.82893E-09  4.75318E-09  4.73753E-09  4.76400E-09  4.79104E-09  4.80910E-09  4.82781E-09  4.84383E-09  4.82969E-09
   4.75405E-09  4.64261E-09  4.61932E-09  4.55257E-09  4.38195E-09  4.26177E-09  4.17388E-09  4.10253E-09  4.04117E-09  3.98655E-09
   3.93678E-09  3.89074E-09  3.84765E-09  3.80695E-09  3.76824E-09  3.73121E-09  3.69561E-09  3.66124E-09  3.62795E-09  3.59560E-09
   3.56409E-09  3.53331E-09  3.50320E-09  3.47368E-09  3.44469E-09  3.41619E-09  3.38814E-09  3.36050E-09  3.33325E-09  3.30637E-09
   3.27985E-09  3.25368E-09  3.22786E-09  3.20242E-09  3.17735E-09  3.15270E-09  3.12852E-09  3.10487E-09  3.08181E-09  3.05948E-09
   3.03802E-09  3.01758E-09  2.99845E-09  2.98096E-09  2.96555E-09  2.95283E-09  2.94371E-09  2.93946E-09  2.94198E-09  2.95429E-09
   2.98124E-09  3.03142E-09  3.12120E-09  3.28602E-09  3.61836E-09  4.44750E-09  7.49236E-09  1.32153E-08  1.83142E-08  2.08024E-08
   2.12610E-08  2.09946E-08  2.10086E-08  2.17562E-08  2.28619E-08  2.28471E-08  1.96817E-08  1.29706E-08  6.73792E-09  4.10078E-09
   3.26756E-09  2.86917E-09  2.63071E-09  2.46781E-09  2.34624E-09  2.24957E-09  2.16893E-09  2.09917E-09  2.03707E-09  1.98056E-09
   1.92820E-09  1.87903E-09  1.83232E-09  1.78756E-09  1.74436E-09  1.70241E-09  1.66149E-09  1.62142E-09  1.58205E-09  1.54328E-09
   1.50501E-09  1.46717E-09  1.42970E-09  1.39255E-09  1.35568E-09  1.31905E-09  1.28265E-09  1.24644E-09  1.21042E-09  1.17455E-09
   1.13883E-09  1.10326E-09  1.06782E-09  1.03251E-09  9.97321E-10  9.62247E-10  9.27292E-10  8.92450E-10  8.57718E-10  8.23103E-10
   7.88605E-10  7.54223E-10  7.19958E-10  6.85810E-10  6.51780E-10  6.17883E-10  5.84109E-10  5.50464E-10  5.16958E-10  4.83590E-10
   4.50362E-10  4.17281E-10  3.84352E-10  3.51575E-10  3.18960E-10  2.86510E-10  2.54226E-10  2.22115E-10  1.90181E-10  1.58433E-10
   1.26869E-10  9.54992E-11  6.43267E-11  3.33576E-11  2.59492E-12 -2.79566E-11 -5.82909E-11 -8.84020E-11 -1.18286E-10 -1.47938E-10
  -1.77353E-10 -2.06527E-10 -2.35455E-10 -2.64132E-10 -2.92554E-10 -3.20712E-10 -3.48607E-10 -3.76232E-10 -4.03581E-10 -4.30652E-10
  -4.57438E-10 -4.83937E-10 -5.10142E-10 -5.36050E-10 -5.61657E-10 -5.86958E-10 -6.11948E-10 -6.36624E-10 -6.60982E-10 -6.85016E-10
  -7.08726E-10 -7.32105E-10 -7.55151E-10 -7.77858E-10 -8.00225E-10 -8.22246E-10 -8.43919E-10 -8.65240E-10 -8.86207E-10 -9.06814E-10
  -9.27061E-10 -9.46943E-10 -9.66457E-10 -9.85599E-10 -1.00437E-09 -1.02276E-09 -1.04078E-09 -1.05841E-09 -1.07566E-09 -1.09252E-09
  -1.10899E-09 -1.12507E-09 -1.14076E-09 -1.15605E-09 -1.17095E-09 -1.18544E-09 -1.19954E-09 -1.21323E-09 -1.22652E-09 -1.23940E-09
  -1.25187E-09 -1.26394E-09 -1.27559E-09 -1.28684E-09 -1.29768E-09 -1.30810E-09 -1.31810E-09 -1.32770E-09 -1.33688E-09 -1.34564E-09
  -1.35399E-09 -1.36192E-09 -1.36944E-09 -1.37654E-09 -1.38322E-09 -1.38949E-09 -1.39534E-09 -1.40077E-09 -1.40579E-09 -1.41040E-09
  -1.41459E-09 -1.41837E-09 -1.42173E-09 -1.42468E-09 -1.42723E-09 -1.42936E-09 -1.43108E-09 -1.43240E-09 -1.43331E-09 -1.43381E-09
  -1.43391E-09 -1.43362E-09 -1.43292E-09 -1.43182E-09 -1.43033E-09 -1.42845E-09 -1.42617E-09 -1.42351E-09 -1.42045E-09 -1.41702E-09
  -1.41320E-09 -1.40900E-09 -1.40443E-09 -1.39948E-09 -1.39417E-09 -1.38848E-09 -1.38243E-09 -1.37602E-09 -1.36925E-09 -1.36212E-09
  -1.35464E-09 -1.34682E-09 -1.33865E-09 -1.33014E-09 -1.32129E-09 -1.31211E-09 -1.30260E-09 -1.29277E-09 -1.28261E-09 -1.27214E-09
  -1.26136E-09 -1.25026E-09 -1.23886E-09
 NY background values follow
    -2.679E-09   -2.626E-09   -2.572E-09   -2.518E-09   -2.464E-09   -2.409E-09   -2.355E-09   -2.301E-09   -2.246E-09   -2.191E-09
    -2.136E-09   -2.081E-09   -2.026E-09   -1.971E-09   -1.916E-09   -1.861E-09   -1.806E-09   -1.750E-09   -1.695E-09   -1.640E-09
    -1.584E-09   -1.529E-09   -1.474E-09   -1.419E-09   -1.364E-09   -1.309E-09   -1.254E-09   -1.199E-09   -1.144E-09   -1.089E-09
    -1.034E-09   -9.799E-10   -9.255E-10   -8.713E-10   -8.172E-10   -7.633E-10   -7.095E-10   -6.559E-10   -6.025E-10   -5.493E-10
    -4.963E-10   -4.435E-10   -3.909E-10   -3.386E-10   -2.865E-10   -2.347E-10   -1.831E-10   -1.317E-10   -8.068E-11   -2.991E-11
     2.056E-11    7.074E-11    1.206E-10    1.702E-10    2.194E-10    2.683E-10    3.169E-10    3.651E-10    4.129E-10    4.604E-10
     5.076E-10    5.543E-10    6.007E-10    6.467E-10    6.922E-10    7.374E-10    7.822E-10    8.265E-10    8.705E-10    9.140E-10
     9.570E-10    9.997E-10    1.042E-09    1.084E-09    1.125E-09    1.166E-09    1.206E-09    1.246E-09    1.285E-09    1.324E-09
     1.362E-09    1.400E-09    1.438E-09    1.475E-09    1.511E-09    1.547E-09    1.582E-09    1.617E-09    1.651E-09    1.685E-09
     1.718E-09    1.751E-09    1.783E-09    1.815E-09    1.846E-09    1.877E-09    1.907E-09    1.936E-09    1.965E-09    1.993E-09
     2.021E-09    2.048E-09    2.075E-09    2.101E-09    2.126E-09    2.151E-09    2.175E-09    2.199E-09    2.222E-09    2.245E-09
     2.267E-09    2.288E-09    2.309E-09    2.329E-09    2.349E-09    2.368E-09    2.387E-09    2.405E-09    2.422E-09    2.439E-09
     2.455E-09    2.470E-09    2.485E-09    2.500E-09    2.514E-09    2.527E-09    2.540E-09    2.552E-09    2.563E-09    2.574E-09
     2.585E-09    2.594E-09    2.604E-09    2.612E-09    2.620E-09    2.628E-09    2.635E-09    2.641E-09    2.647E-09    2.652E-09
     2.657E-09    2.661E-09    2.665E-09    2.668E-09    2.671E-09    2.673E-09    2.674E-09    2.675E-09    2.675E-09    2.675E-09
     2.675E-09    2.673E-09    2.672E-09    2.669E-09    2.667E-09    2.663E-09    2.660E-09    2.656E-09    2.651E-09    2.646E-09
     2.640E-09    2.634E-09    2.627E-09    2.620E-09    2.613E-09    2.605E-09    2.596E-09    2.587E-09    2.578E-09    2.568E-09
     2.558E-09    2.547E-09    2.536E-09    2.525E-09    2.513E-09    2.500E-09    2.488E-09    2.475E-09    2.461E-09    2.447E-09
     2.433E-09    2.419E-09    2.404E-09    2.388E-09    2.373E-09    2.357E-09    2.340E-09    2.324E-09    2.307E-09    2.289E-09
     2.272E-09    2.254E-09    2.235E-09    2.217E-09    2.198E-09    2.179E-09    2.160E-09    2.140E-09    2.120E-09    2.100E-09
     2.080E-09    2.059E-09    2.038E-09    2.017E-09    1.996E-09    1.974E-09    1.953E-09    1.931E-09    1.909E-09    1.886E-09
     1.864E-09    1.841E-09    1.819E-09    1.796E-09    1.773E-09    1.749E-09    1.726E-09    1.703E-09    1.679E-09    1.655E-09
     1.632E-09    1.608E-09    1.584E-09    1.560E-09    1.536E-09    1.511E-09    1.487E-09    1.463E-09    1.438E-09    1.414E-09
     1.389E-09    1.365E-09    1.340E-09    1.316E-09    1.291E-09    1.267E-09    1.242E-09    1.218E-09    1.193E-09    1.169E-09
     1.145E-09    1.120E-09    1.096E-09    1.072E-09    1.047E-09    1.023E-09    9.990E-10    9.750E-10    9.510E-10    9.272E-10
     9.034E-10    8.797E-10    8.562E-10    8.327E-10    8.094E-10    7.862E-10    7.632E-10    7.402E-10    7.174E-10    6.948E-10
     6.723E-10    6.499E-10    6.278E-10    6.057E-10    5.839E-10    5.622E-10    5.408E-10    5.195E-10    4.984E-10    4.775E-10
     4.568E-10    4.363E-10    4.160E-10    3.959E-10    3.761E-10    3.564E-10    3.370E-10    3.179E-10    2.990E-10    2.803E-10
     2.618E-10    2.436E-10    2.257E-10    2.080E-10    1.906E-10    1.734E-10    1.565E-10    1.399E-10    1.235E-10    1.074E-10
     9.162E-11    7.609E-11    6.085E-11    4.589E-11    3.123E-11    1.685E-11    2.770E-12   -1.101E-11   -2.450E-11   -3.769E-11
    -5.057E-11   -6.315E-11   -7.542E-11   -8.738E-11   -9.904E-11   -1.104E-10   -1.214E-10   -1.321E-10   -1.425E-10   -1.526E-10
    -1.624E-10   -1.718E-10   -1.809E-10   -1.898E-10   -1.982E-10   -2.064E-10   -2.143E-10   -2.218E-10   -2.290E-10   -2.358E-10
    -2.424E-10   -2.486E-10   -2.545E-10   -2.601E-10   -2.654E-10   -2.703E-10   -2.750E-10   -2.793E-10   -2.832E-10   -2.869E-10
    -2.903E-10   -2.933E-10   -2.960E-10   -2.984E-10   -3.005E-10   -3.023E-10   -3.037E-10   -3.049E-10   -3.057E-10   -3.063E-10
    -3.065E-10   -3.064E-10   -3.061E-10   -3.054E-10   -3.045E-10   -3.032E-10   -3.017E-10   -2.999E-10   -2.978E-10   -2.954E-10
    -2.927E-10   -2.897E-10   -2.865E-10   -2.830E-10   -2.792E-10   -2.752E-10   -2.709E-10   -2.664E-10   -2.616E-10   -2.565E-10
    -2.512E-10   -2.457E-10   -2.399E-10
 Ala      Conc. = 1.43E-10
  -2.80374E-09 -2.74149E-09 -2.67833E-09 -2.61485E-09 -2.54977E-09 -2.48224E-09 -2.40644E-09 -2.33327E-09 -2.27658E-09 -2.20709E-09
  -2.12993E-09 -2.07590E-09 -2.02071E-09 -1.95830E-09 -1.90280E-09 -1.84980E-09 -1.79717E-09 -1.74445E-09 -1.69157E-09 -1.63850E-09
  -1.58527E-09 -1.53190E-09 -1.47843E-09 -1.42489E-09 -1.37129E-09 -1.31767E-09 -1.26403E-09 -1.21041E-09 -1.15683E-09 -1.10329E-09
  -1.04981E-09 -9.96416E-10 -9.43115E-10 -8.89925E-10 -8.36855E-10 -7.83920E-10 -7.31134E-10 -6.78508E-10 -6.26054E-10 -5.73784E-10
  -5.21707E-10 -4.69837E-10 -4.18185E-10 -3.66760E-10 -3.15573E-10 -2.64635E-10 -2.13956E-10 -1.63546E-10 -1.13415E-10 -6.35736E-11
  -1.40306E-11  3.52038E-11  8.41200E-11  1.32709E-10  1.80959E-10  2.28863E-10  2.76410E-10  3.23592E-10  3.70398E-10  4.16821E-10
   4.62849E-10  5.08473E-10  5.53684E-10  5.98472E-10  6.42827E-10  6.86740E-10  7.30201E-10  7.73200E-10  8.15725E-10  8.57766E-10
   8.99312E-10  9.40352E-10  9.80874E-10  1.02086E-09  1.06031E-09  1.09920E-09  1.13751E-09  1.17524E-09  1.21235E-09  1.24885E-09
   1.28469E-09  1.31986E-09  1.35433E-09  1.38807E-09  1.42105E-09  1.45321E-09  1.48453E-09  1.51494E-09  1.54437E-09  1.57273E-09
   1.59992E-09  1.62582E-09  1.65026E-09  1.67301E-09  1.69379E-09  1.71223E-09  1.72787E-09  1.74021E-09  1.74971E-09  1.76647E-09
   1.87403E-09  1.98700E-09  2.03998E-09  2.14360E-09  2.27999E-09  2.40922E-09  2.52282E-09  2.63123E-09  2.73184E-09  2.79771E-09
   2.79797E-09  2.75878E-09  2.80444E-09  2.80364E-09  2.69623E-09  2.63673E-09  2.60717E-09  2.59199E-09  2.58480E-09  2.58250E-09
   2.58331E-09  2.58624E-09  2.59059E-09  2.59591E-09  2.60185E-09  2.60820E-09  2.61477E-09  2.62142E-09  2.62805E-09  2.63458E-09
   2.64093E-09  2.64707E-09  2.65293E-09  2.65849E-09  2.66372E-09  2.66858E-09  2.67307E-09  2.67716E-09  2.68084E-09  2.68410E-09
   2.68693E-09  2.68932E-09  2.69125E-09  2.69275E-09  2.69378E-09  2.69434E-09  2.69445E-09  2.69409E-09  2.69326E-09  2.69198E-09
   2.69024E-09  2.68802E-09  2.68535E-09  2.68224E-09  2.67867E-09  2.67466E-09  2.67022E-09  2.66537E-09  2.66013E-09  2.65454E-09
   2.64863E-09  2.64252E-09  2.63636E-09  2.63053E-09  2.62591E-09  2.62544E-09  2.64397E-09  2.72209E-09  2.78580E-09  2.80855E-09
   2.80191E-09  2.78548E-09  2.77282E-09  2.77087E-09  2.77689E-09  2.77229E-09  2.72660E-09  2.62357E-09  2.50808E-09  2.46802E-09
   2.44428E-09  2.42479E-09  2.40681E-09  2.38940E-09  2.37217E-09  2.35492E-09  2.33755E-09  2.32000E-09  2.30224E-09  2.28424E-09
   2.26600E-09  2.24751E-09  2.22876E-09  2.20975E-09  2.19050E-09  2.17098E-09  2.15122E-09  2.13122E-09  2.11097E-09  2.09049E-09
   2.06978E-09  2.04885E-09  2.02769E-09  2.00633E-09  1.98476E-09  1.96299E-09  1.94102E-09  1.91887E-09  1.89654E-09  1.87403E-09
   1.85136E-09  1.82852E-09  1.80554E-09  1.78241E-09  1.75913E-09  1.73572E-09  1.71219E-09  1.68853E-09  1.66476E-09  1.64089E-09
   1.61692E-09  1.59286E-09  1.56871E-09  1.54448E-09  1.52018E-09  1.49582E-09  1.47139E-09  1.44691E-09  1.42240E-09  1.39784E-09
   1.37325E-09  1.34864E-09  1.32402E-09  1.29937E-09  1.27473E-09  1.25009E-09  1.22546E-09  1.20084E-09  1.17625E-09  1.15168E-09
   1.12715E-09  1.10266E-09  1.07822E-09  1.05384E-09  1.02951E-09  1.00525E-09  9.81063E-10  9.56956E-10  9.32934E-10  9.09003E-10
   8.85169E-10  8.61438E-10  8.37817E-10  8.14310E-10  7.90923E-10  7.67664E-10  7.44535E-10  7.21545E-10  6.98697E-10  6.75998E-10
   6.53454E-10  6.31067E-10  6.08845E-10  5.86794E-10  5.64916E-10  5.43218E-10  5.21706E-10  5.00383E-10  4.79254E-10  4.58325E-10
   4.37599E-10  4.17082E-10  3.96778E-10  3.76691E-10  3.56826E-10  3.37187E-10  3.17779E-10  2.98605E-10  2.79668E-10  2.60975E-10
   2.42528E-10  2.24330E-10  2.06386E-10  1.88700E-10  1.71274E-10  1.54112E-10  1.37218E-10  1.20594E-10  1.04244E-10  8.81714E-11
   7.23783E-11  5.68684E-11  4.16434E-11  2.67070E-11  1.20611E-11 -2.29159E-12 -1.63485E-11 -3.01074E-11 -4.35662E-11 -5.67228E-11
  -6.95749E-11 -8.21204E-11 -9.43587E-11 -1.06287E-10 -1.17904E-10 -1.29208E-10 -1.40197E-10 -1.50871E-10 -1.61228E-10 -1.71267E-10
  -1.80987E-10 -1.90387E-10 -1.99467E-10 -2.08225E-10 -2.16660E-10 -2.24773E-10 -2.32562E-10 -2.40029E-10 -2.47171E-10 -2.53989E-10
  -2.60484E-10 -2.66654E-10 -2.72502E-10 -2.78025E-10 -2.83226E-10 -2.88104E-10 -2.92659E-10 -2.96893E-10 -3.00807E-10 -3.04399E-10
  -3.07674E-10 -3.10632E-10 -3.13271E-10 -3.15595E-10 -3.17607E-10 -3.19303E-10 -3.20688E-10 -3.21764E-10 -3.22532E-10 -3.22993E-10
  -3.23151E-10 -3.23004E-10 -3.22559E-10 -3.21814E-10 -3.20775E-10 -3.19441E-10 -3.17814E-10 -3.15900E-10 -3.13699E-10 -3.11213E-10
  -3.08448E-10 -3.05404E-10 -3.02085E-10 -2.98495E-10 -2.94632E-10 -2.90505E-10 -2.86117E-10 -2.81467E-10 -2.76563E-10 -2.71408E-10
  -2.65999E-10 -2.60348E-10 -2.54452E-10
 Asp      Conc. = 1.21E-09
  -3.22711E-09 -2.94226E-09 -2.77415E-09 -2.56754E-09 -2.39309E-09 -2.22618E-09 -2.06166E-09 -2.03262E-09 -2.02971E-09 -2.02421E-09
  -2.01388E-09 -1.99976E-09 -1.98270E-09 -1.96223E-09 -1.93755E-09 -1.91089E-09 -1.88289E-09 -1.85394E-09 -1.82437E-09 -1.79446E-09
  -1.76447E-09 -1.73467E-09 -1.70528E-09 -1.67659E-09 -1.64884E-09 -1.62234E-09 -1.59742E-09 -1.57445E-09 -1.55392E-09 -1.53636E-09
  -1.52252E-09 -1.51332E-09 -1.51003E-09 -1.51445E-09 -1.52902E-09 -1.55576E-09 -1.56961E-09 -1.54242E-09 -1.46855E-09 -1.38041E-09
  -1.33867E-09 -1.37426E-09 -1.49157E-09 -1.52082E-09 -1.52122E-09 -1.22428E-09 -7.99939E-10 -5.41109E-10 -4.65481E-10 -3.59823E-10
  -1.42138E-10  2.04277E-10  6.96215E-10  1.17710E-09  1.40483E-09  1.47260E-09  1.29568E-09  1.35035E-09  1.52438E-09  1.58844E-09
   1.54650E-09  1.53253E-09  1.49731E-09  1.46561E-09  1.53089E-09  1.62251E-09  1.62034E-09  1.60505E-09  1.59561E-09  1.59243E-09
   1.59442E-09  1.60059E-09  1.61013E-09  1.62240E-09  1.63691E-09  1.65326E-09  1.67113E-09  1.69026E-09  1.71042E-09  1.73143E-09
   1.75314E-09  1.77542E-09  1.79814E-09  1.82122E-09  1.84456E-09  1.86809E-09  1.89174E-09  1.91545E-09  1.93918E-09  1.96287E-09
   1.98647E-09  2.00997E-09  2.03331E-09  2.05647E-09  2.07942E-09  2.10213E-09  2.12458E-09  2.14675E-09  2.16861E-09  2.19016E-09
   2.21137E-09  2.23223E-09  2.25272E-09  2.27283E-09  2.29254E-09  2.31186E-09  2.33075E-09  2.34923E-09  2.36728E-09  2.38488E-09
   2.40204E-09  2.41873E-09  2.43497E-09  2.45074E-09  2.46603E-09  2.48085E-09  2.49518E-09  2.50903E-09  2.52238E-09  2.53525E-09
   2.54760E-09  2.55946E-09  2.57081E-09  2.58166E-09  2.59199E-09  2.60182E-09  2.61114E-09  2.61994E-09  2.62824E-09  2.63601E-09
   2.64328E-09  2.65003E-09  2.65627E-09  2.66199E-09  2.66720E-09  2.67191E-09  2.67610E-09  2.67978E-09  2.68296E-09  2.68563E-09
   2.68781E-09  2.68949E-09  2.69067E-09  2.69137E-09  2.69159E-09  2.69132E-09  2.69058E-09  2.68939E-09  2.68774E-09  2.68566E-09
   2.68317E-09  2.68025E-09  2.67697E-09  2.67335E-09  2.66942E-09  2.66524E-09  2.66091E-09  2.65653E-09  2.65228E-09  2.64844E-09
   2.64545E-09  2.64410E-09  2.64587E-09  2.65393E-09  2.67627E-09  2.73926E-09  2.97840E-09  3.70333E-09  4.30131E-09  4.56092E-09
   4.58217E-09  4.52773E-09  4.50970E-09  4.58399E-09  4.72327E-09  4.76750E-09  4.46315E-09  3.68918E-09  2.84362E-09  2.61655E-09
   2.52435E-09  2.47024E-09  2.43141E-09  2.40003E-09  2.37272E-09  2.34780E-09  2.32436E-09  2.30184E-09  2.27991E-09  2.25833E-09
   2.23695E-09  2.21568E-09  2.19443E-09  2.17316E-09  2.15182E-09  2.13038E-09  2.10883E-09  2.08714E-09  2.06531E-09  2.04333E-09
   2.02120E-09  1.99890E-09  1.97645E-09  1.95383E-09  1.93106E-09  1.90813E-09  1.88504E-09  1.86181E-09  1.83843E-09  1.81490E-09
   1.79124E-09  1.76745E-09  1.74352E-09  1.71948E-09  1.69531E-09  1.67104E-09  1.64666E-09  1.62218E-09  1.59761E-09  1.57295E-09
   1.54821E-09  1.52339E-09  1.49851E-09  1.47356E-09  1.44856E-09  1.42351E-09  1.39841E-09  1.37327E-09  1.34811E-09  1.32293E-09
