 LCModel (Version 6.3-1R) Copyright: S.W. Provencher.          Ref.: Magn. Reson. Med. 30:672-679 (1993).                
 onepulse 20x30_ftSpec_smooth_lcm
 26 lines in following concentration table = NCONC+1
    Conc.  %SD   /Cr    Metabolite                                         
    0.000 999%   0.000 Ala                                                 
    0.000 999%   0.000 Asp                                                 
    0.000 999%   0.000 Cr                                                  
    0.000 999%   0.000 GABA                                                
    0.000 999%   0.000 Glc                                                 
    0.000 999%   0.000 Gln                                                 
    0.000 999%   0.000 Glu                                                 
    0.000 999%   0.000 Glyc                                                
 6.62E-12 999%   0.000 GPC                                                 
 1.29E-10 205%   0.000 GSH                                                 
    0.000 999%   0.000 Ins                                                 
    0.000 999%   0.000 Lac                                                 
    0.000 999%   0.000 NAAG                                                
    0.000 999%   0.000 NAA                                                 
    0.000 999%   0.000 PCh                                                 
    0.000 999%   0.000 PCr                                                 
    0.000 999%   0.000 PE                                                  
    0.000 999%   0.000 Scyllo                                              
    0.000 999%   0.000 Ser                                                 
    0.000 999%   0.000 Tau                                                 
 6.62E-12 999%   0.000 GPC+PCh                                             
    0.000 999%   0.000 NAA+NAAG                                            
    0.000 999%   0.000 Ins+Glyc                                            
    0.000 999%   0.000 Cr+PCr                                              
    0.000 999%   0.000 Glu+Gln                                             
   6 lines in following misc. output table
  FWHM = 0.078 ppm    S/N =   0                                            
  Data shift = 0.157 ppm                                                   
  Ph:-163 deg       0.7 deg/ppm                                            
  alphaB,S = 1.1E+00,   6.6E+00                                            
    9 spline knots.   Ns = 5(1)                                            
  ( 6) 2 infls.   ( 2) 1 extrs.                                            
  363 points on ppm-axis = NY
      4.250000     4.238821     4.227641     4.216462     4.205282     4.194103     4.182923     4.171744     4.160564     4.149385
      4.138206     4.127026     4.115847     4.104667     4.093488     4.082308     4.071129     4.059949     4.048770     4.037591
      4.026411     4.015232     4.004052     3.992873     3.981693     3.970514     3.959334     3.948155     3.936975     3.925796
      3.914617     3.903437     3.892258     3.881078     3.869899     3.858719     3.847540     3.836360     3.825181     3.814002
      3.802822     3.791643     3.780463     3.769284     3.758104     3.746925     3.735745     3.724566     3.713387     3.702207
      3.691028     3.679848     3.668669     3.657489     3.646310     3.635130     3.623951     3.612772     3.601592     3.590413
      3.579233     3.568054     3.556874     3.545695     3.534515     3.523336     3.512156     3.500977     3.489798     3.478618
      3.467439     3.456259     3.445080     3.433900     3.422721     3.411541     3.400362     3.389183     3.378003     3.366824
      3.355644     3.344465     3.333285     3.322106     3.310926     3.299747     3.288568     3.277388     3.266209     3.255029
      3.243850     3.232670     3.221491     3.210311     3.199132     3.187953     3.176773     3.165594     3.154414     3.143235
      3.132055     3.120876     3.109696     3.098517     3.087337     3.076158     3.064979     3.053799     3.042620     3.031440
      3.020261     3.009081     2.997902     2.986722     2.975543     2.964364     2.953184     2.942005     2.930825     2.919646
      2.908466     2.897287     2.886107     2.874928     2.863749     2.852569     2.841390     2.830210     2.819031     2.807851
      2.796672     2.785492     2.774313     2.763134     2.751954     2.740775     2.729595     2.718416     2.707236     2.696057
      2.684877     2.673698     2.662519     2.651339     2.640160     2.628980     2.617801     2.606621     2.595442     2.584262
      2.573083     2.561903     2.550724     2.539545     2.528365     2.517186     2.506006     2.494827     2.483647     2.472468
      2.461288     2.450109     2.438930     2.427750     2.416571     2.405391     2.394212     2.383032     2.371853     2.360673
      2.349494     2.338315     2.327135     2.315956     2.304776     2.293597     2.282417     2.271238     2.260058     2.248879
      2.237700     2.226520     2.215341     2.204161     2.192982     2.181802     2.170623     2.159443     2.148264     2.137084
      2.125905     2.114726     2.103546     2.092367     2.081187     2.070008     2.058828     2.047649     2.036469     2.025290
      2.014111     2.002931     1.991752     1.980572     1.969393     1.958213     1.947034     1.935854     1.924675     1.913496
      1.902316     1.891137     1.879957     1.868778     1.857598     1.846419     1.835239     1.824060     1.812881     1.801701
      1.790522     1.779342     1.768163     1.756983     1.745804     1.734624     1.723445     1.712265     1.701086     1.689907
      1.678727     1.667548     1.656368     1.645189     1.634009     1.622830     1.611650     1.600471     1.589292     1.578112
      1.566933     1.555753     1.544574     1.533394     1.522215     1.511035     1.499856     1.488677     1.477497     1.466318
      1.455138     1.443959     1.432779     1.421600     1.410420     1.399241     1.388062     1.376882     1.365703     1.354523
      1.343344     1.332164     1.320985     1.309805     1.298626     1.287446     1.276267     1.265088     1.253908     1.242729
      1.231549     1.220370     1.209190     1.198011     1.186831     1.175652     1.164473     1.153293     1.142114     1.130934
      1.119755     1.108575     1.097396     1.086216     1.075037     1.063858     1.052678     1.041499     1.030319     1.019140
      1.007960     0.996781     0.985601     0.974422     0.963243     0.952063     0.940884     0.929704     0.918525     0.907345
      0.896166     0.884986     0.873807     0.862628     0.851448     0.840269     0.829089     0.817910     0.806730     0.795551
      0.784371     0.773192     0.762012     0.750833     0.739654     0.728474     0.717295     0.706115     0.694936     0.683756
      0.672577     0.661397     0.650218     0.639039     0.627859     0.616680     0.605500     0.594321     0.583141     0.571962
      0.560782     0.549603     0.538424     0.527244     0.516065     0.504885     0.493706     0.482526     0.471347     0.460167
      0.448988     0.437809     0.426629     0.415450     0.404270     0.393091     0.381911     0.370732     0.359552     0.348373
      0.337193     0.326014     0.314835     0.303655     0.292476     0.281296     0.270117     0.258937     0.247758     0.236578
      0.225399     0.214220     0.203040
 NY phased data points follow
  -5.33659E-09 -6.28672E-09 -5.49794E-09 -7.00161E-09 -6.61654E-09 -7.45683E-09 -6.30042E-09 -7.23360E-09 -6.24860E-09 -6.95488E-09
  -5.96358E-09 -6.93464E-09 -6.28737E-09 -7.50770E-09 -7.57628E-09 -9.36360E-09 -1.00663E-08 -1.16393E-08 -1.12326E-08 -1.07143E-08
  -9.64332E-09 -8.86760E-09 -8.60511E-09 -8.61411E-09 -7.81965E-09 -8.53797E-09 -7.80570E-09 -8.32172E-09 -8.51172E-09 -8.79244E-09
  -8.83201E-09 -9.33553E-09 -8.75711E-09 -9.16403E-09 -8.35978E-09 -8.88717E-09 -8.24267E-09 -8.69378E-09 -7.63949E-09 -7.79373E-09
  -7.79796E-09 -7.91804E-09 -7.84180E-09 -8.21316E-09 -8.01946E-09 -7.54216E-09 -7.36265E-09 -7.43222E-09 -8.33781E-09 -8.92162E-09
  -9.14062E-09 -8.72374E-09 -7.79870E-09 -7.58918E-09 -6.68990E-09 -6.65939E-09 -6.63750E-09 -6.29024E-09 -6.35549E-09 -6.09378E-09
  -5.93455E-09 -6.05523E-09 -5.64068E-09 -5.50792E-09 -5.51230E-09 -5.03205E-09 -4.95231E-09 -5.21977E-09 -5.21888E-09 -5.32939E-09
  -5.26665E-09 -4.98754E-09 -4.92672E-09 -4.54872E-09 -4.97259E-09 -5.00096E-09 -5.29315E-09 -5.05183E-09 -5.25302E-09 -6.60169E-09
  -6.58443E-09 -7.63526E-09 -7.32936E-09 -6.53004E-09 -6.19938E-09 -5.77668E-09 -4.92985E-09 -5.08530E-09 -4.66536E-09 -4.15055E-09
  -4.65407E-09 -4.40229E-09 -4.26951E-09 -4.40303E-09 -4.50857E-09 -6.10354E-09 -8.09625E-09 -9.51471E-09 -1.05176E-08 -9.64902E-09
  -8.36307E-09 -7.77580E-09 -7.26970E-09 -6.61587E-09 -6.52362E-09 -5.56212E-09 -5.72697E-09 -5.82422E-09 -5.39642E-09 -4.80424E-09
  -4.82154E-09 -4.56227E-09 -4.29517E-09 -4.13818E-09 -3.82326E-09 -3.58996E-09 -3.53038E-09 -3.34462E-09 -3.13940E-09 -3.68370E-09
  -3.35478E-09 -2.53030E-09 -2.83218E-09 -2.89161E-09 -2.95211E-09 -2.69592E-09 -1.68804E-09 -1.95101E-09 -1.19742E-09 -1.43911E-09
  -1.62836E-09 -1.55867E-09 -1.71032E-09 -1.57226E-09 -1.96931E-09 -1.78552E-09 -1.81773E-09 -2.11961E-09 -2.05940E-09 -1.83420E-09
  -1.41806E-09 -9.57823E-10 -3.80596E-10 -4.36358E-10 -8.30006E-10 -5.85237E-10 -1.09194E-09 -9.49567E-10 -1.24710E-09 -1.22679E-09
  -1.19081E-09 -1.61085E-09 -1.64043E-09 -1.59645E-09 -1.23977E-09 -1.89033E-09 -2.73019E-09 -3.19132E-09 -4.05702E-09 -3.61803E-09
  -3.71607E-09 -3.33902E-09 -4.39635E-09 -4.25965E-09 -4.63170E-09 -4.81829E-09 -4.27261E-09 -4.06899E-09 -4.45012E-09 -4.03485E-09
  -3.47602E-09 -3.38895E-09 -3.91425E-09 -3.64399E-09 -3.42523E-09 -3.84148E-09 -3.71259E-09 -3.39710E-09 -3.30814E-09 -3.76625E-09
  -3.92606E-09 -3.29121E-09 -3.57920E-09 -3.87956E-09 -3.87093E-09 -3.72868E-09 -4.92366E-09 -6.54650E-09 -8.61534E-09 -9.61223E-09
  -8.81795E-09 -6.80314E-09 -5.62870E-09 -4.35114E-09 -3.92766E-09 -3.02626E-09 -1.66233E-09 -1.20552E-09 -1.91480E-10  6.79059E-10
   1.71151E-09  2.66861E-09  3.34949E-09  4.77788E-09  6.31668E-09  7.69459E-09  9.04454E-09  1.02149E-08  1.16962E-08  1.34024E-08
   1.45347E-08  1.56080E-08  1.69952E-08  1.79102E-08  1.78855E-08  1.84622E-08  1.81680E-08  1.80965E-08  1.65517E-08  1.58763E-08
   1.41406E-08  1.26273E-08  1.04530E-08  8.27274E-09  6.66953E-09  4.47103E-09  2.45425E-09  1.71450E-09  9.24143E-11  4.19917E-10
  -4.36294E-10 -5.90619E-11 -1.09861E-10  7.90307E-10  8.42621E-10  1.25353E-09  1.65776E-09  1.71873E-09  1.23044E-09  1.54698E-09
   1.39334E-09  1.14430E-09  9.90232E-10  1.74140E-09  9.88769E-10  1.72999E-09  1.61899E-09  1.78184E-09  1.89801E-09  1.92818E-09
   1.70140E-09  1.75055E-09  1.34001E-09  9.89558E-10  7.70003E-10  1.51446E-09  1.09912E-09  2.10677E-09  1.85463E-09  2.06355E-09
   1.62546E-09  1.71199E-09  1.13232E-09  1.29955E-09  7.79657E-10  9.22471E-10  8.27851E-10  1.13293E-09  7.69439E-10  1.03039E-09
   1.25508E-09  9.87531E-10  7.41517E-10  1.04644E-09  8.15172E-10  1.26415E-09  1.31299E-09  1.44042E-09  1.32626E-09  1.36935E-09
   1.42725E-09  1.61134E-09  1.40957E-09  1.17309E-09  1.00081E-09  8.90855E-10  3.89819E-10  2.17090E-10 -1.94837E-10  4.09112E-11
  -1.19466E-10 -8.75252E-11 -3.95002E-10  2.04454E-11  9.31143E-11  3.56693E-10  2.74575E-10  4.42330E-10  5.73396E-10  8.01677E-10
   1.09822E-09  1.33723E-09  1.33317E-09  1.49655E-09  1.02478E-09  1.27789E-09  9.69219E-10  1.55109E-09  9.84055E-10  1.30527E-09
   1.16168E-09  7.71522E-10  8.23190E-10  1.29283E-09  7.42577E-10  1.69110E-09  1.09620E-09  1.35378E-09  6.10931E-10  9.43245E-10
   7.74518E-10  1.02702E-09  1.02109E-09  9.96893E-10  7.68324E-10  1.29323E-09  4.92872E-10  7.42473E-10  5.73350E-10  9.16098E-10
   6.95640E-10  5.35128E-10  5.14848E-10  4.44073E-10  2.93136E-10  3.23266E-10  4.93994E-10  9.47835E-10  1.02823E-10  6.34396E-10
   4.08843E-10  4.63982E-10  1.75392E-10  6.77518E-10  5.95183E-10  2.02374E-10 -1.19354E-10  4.57131E-10  2.52663E-10  3.58211E-10
   2.61462E-10  4.92003E-10 -9.80211E-11  8.71357E-10 -1.79929E-10  5.23730E-10  4.70447E-10  2.05812E-10  3.23894E-10  3.18792E-10
   1.99665E-10  3.25150E-10 -1.24312E-10
 NY points of the fit to the data follow
  -8.74655E-09 -8.55912E-09 -8.42073E-09 -8.35014E-09 -8.34765E-09 -8.40071E-09 -8.49288E-09 -8.60599E-09 -8.71688E-09 -8.79732E-09
  -8.81235E-09 -8.79959E-09 -8.77979E-09 -8.75159E-09 -8.71930E-09 -8.68340E-09 -8.64434E-09 -8.60276E-09 -8.55976E-09 -8.51586E-09
  -8.47096E-09 -8.42461E-09 -8.37531E-09 -8.31733E-09 -8.24733E-09 -8.16982E-09 -8.09431E-09 -8.02868E-09 -7.97635E-09 -7.93632E-09
  -7.90511E-09 -7.87824E-09 -7.85037E-09 -7.81106E-09 -7.74433E-09 -7.64496E-09 -7.52830E-09 -7.40872E-09 -7.30056E-09 -7.21856E-09
  -7.17057E-09 -7.15751E-09 -7.17295E-09 -7.20546E-09 -7.23983E-09 -7.26010E-09 -7.25959E-09 -7.24668E-09 -7.20993E-09 -7.15864E-09
  -7.09636E-09 -7.02285E-09 -6.94354E-09 -6.86058E-09 -6.77507E-09 -6.69513E-09 -6.62895E-09 -6.57999E-09 -6.54822E-09 -6.53159E-09
  -6.52519E-09 -6.52188E-09 -6.51502E-09 -6.50491E-09 -6.48838E-09 -6.45531E-09 -6.41363E-09 -6.36823E-09 -6.31413E-09 -6.25253E-09
  -6.18292E-09 -6.10857E-09 -6.03055E-09 -5.94857E-09 -5.86671E-09 -5.79063E-09 -5.72347E-09 -5.66755E-09 -5.62424E-09 -5.59365E-09
  -5.57264E-09 -5.55299E-09 -5.53610E-09 -5.51990E-09 -5.49185E-09 -5.45887E-09 -5.42300E-09 -5.38016E-09 -5.33355E-09 -5.28489E-09
  -5.23489E-09 -5.18398E-09 -5.13239E-09 -5.08022E-09 -5.02760E-09 -4.97458E-09 -4.92122E-09 -4.86754E-09 -4.81357E-09 -4.75934E-09
  -4.70484E-09 -4.65011E-09 -4.59515E-09 -4.53995E-09 -4.48454E-09 -4.42890E-09 -4.37304E-09 -4.31698E-09 -4.26073E-09 -4.20425E-09
  -4.14758E-09 -4.09068E-09 -4.03359E-09 -3.97629E-09 -3.91880E-09 -3.86110E-09 -3.80321E-09 -3.74512E-09 -3.68683E-09 -3.62837E-09
  -3.56966E-09 -3.51076E-09 -3.45167E-09 -3.39240E-09 -3.33294E-09 -3.27333E-09 -3.21354E-09 -3.15361E-09 -3.09354E-09 -3.03335E-09
  -2.97302E-09 -2.91260E-09 -2.85206E-09 -2.79144E-09 -2.73072E-09 -2.66994E-09 -2.60908E-09 -2.54817E-09 -2.48721E-09 -2.42621E-09
  -2.36518E-09 -2.30413E-09 -2.24306E-09 -2.18201E-09 -2.12094E-09 -2.05987E-09 -1.99883E-09 -1.93782E-09 -1.87682E-09 -1.81588E-09
  -1.75499E-09 -1.69413E-09 -1.63332E-09 -1.57258E-09 -1.51188E-09 -1.45122E-09 -1.39062E-09 -1.33004E-09 -1.26946E-09 -1.20886E-09
  -1.14815E-09 -1.08728E-09 -1.02604E-09 -9.64147E-10 -9.00955E-10 -8.34862E-10 -7.60126E-10 -6.62558E-10 -5.39143E-10 -4.05438E-10
  -2.84270E-10 -1.91371E-10 -1.32590E-10 -1.04532E-10 -9.96831E-11 -1.09675E-10 -1.25385E-10 -1.33915E-10 -1.19518E-10 -7.46877E-11
  -2.38106E-11  2.85529E-11  8.12600E-11  1.33913E-10  1.86349E-10  2.38469E-10  2.90221E-10  3.41574E-10  3.92502E-10  4.42982E-10
   4.93007E-10  5.42551E-10  5.91612E-10  6.40165E-10  6.88209E-10  7.35734E-10  7.82719E-10  8.29156E-10  8.75040E-10  9.20351E-10
   9.65080E-10  1.00923E-09  1.05277E-09  1.09569E-09  1.13800E-09  1.17967E-09  1.22070E-09  1.26106E-09  1.30076E-09  1.33979E-09
   1.37812E-09  1.41575E-09  1.45267E-09  1.48886E-09  1.52432E-09  1.55904E-09  1.59299E-09  1.62618E-09  1.65860E-09  1.69022E-09
   1.72104E-09  1.75104E-09  1.78023E-09  1.80858E-09  1.83609E-09  1.86273E-09  1.88852E-09  1.91342E-09  1.93743E-09  1.96054E-09
   1.98273E-09  2.00401E-09  2.02434E-09  2.04373E-09  2.06217E-09  2.07963E-09  2.09611E-09  2.11161E-09  2.12611E-09  2.13958E-09
   2.15204E-09  2.16346E-09  2.17383E-09  2.18316E-09  2.19148E-09  2.19879E-09  2.20511E-09  2.21047E-09  2.21487E-09  2.21835E-09
   2.22091E-09  2.22258E-09  2.22336E-09  2.22329E-09  2.22237E-09  2.22062E-09  2.21807E-09  2.21473E-09  2.21062E-09  2.20575E-09
   2.20015E-09  2.19383E-09  2.18681E-09  2.17910E-09  2.17073E-09  2.16172E-09  2.15207E-09  2.14181E-09  2.13096E-09  2.11954E-09
   2.10755E-09  2.09503E-09  2.08198E-09  2.06843E-09  2.05439E-09  2.03988E-09  2.02492E-09  2.00953E-09  1.99372E-09  1.97752E-09
   1.96093E-09  1.94399E-09  1.92670E-09  1.90908E-09  1.89116E-09  1.87294E-09  1.85445E-09  1.83571E-09  1.81673E-09  1.79753E-09
   1.77813E-09  1.75854E-09  1.73879E-09  1.71889E-09  1.69886E-09  1.67872E-09  1.65849E-09  1.63818E-09  1.61781E-09  1.59740E-09
   1.57697E-09  1.55653E-09  1.53610E-09  1.51570E-09  1.49533E-09  1.47497E-09  1.45463E-09  1.43432E-09  1.41402E-09  1.39375E-09
   1.37349E-09  1.35324E-09  1.33301E-09  1.31280E-09  1.29260E-09  1.27240E-09  1.25222E-09  1.23205E-09  1.21189E-09  1.19173E-09
   1.17158E-09  1.15144E-09  1.13130E-09  1.11116E-09  1.09103E-09  1.07090E-09  1.05076E-09  1.03062E-09  1.01049E-09  9.90346E-10
   9.70203E-10  9.50058E-10  9.29898E-10  9.09732E-10  8.89566E-10  8.69382E-10  8.49185E-10  8.28982E-10  8.08766E-10  7.88531E-10
   7.68289E-10  7.48021E-10  7.27743E-10  7.07444E-10  6.87130E-10  6.66793E-10  6.46432E-10  6.26051E-10  6.05647E-10  5.85214E-10
   5.64759E-10  5.44276E-10  5.23766E-10  5.03229E-10  4.82655E-10  4.62053E-10  4.41423E-10  4.20757E-10  4.00057E-10  3.79328E-10
   3.58553E-10  3.37747E-10  3.16896E-10
 NY background values follow
    -9.338E-09   -9.297E-09   -9.257E-09   -9.216E-09   -9.175E-09   -9.134E-09   -9.094E-09   -9.053E-09   -9.012E-09   -8.971E-09
    -8.930E-09   -8.889E-09   -8.848E-09   -8.807E-09   -8.765E-09   -8.724E-09   -8.683E-09   -8.641E-09   -8.600E-09   -8.558E-09
    -8.517E-09   -8.475E-09   -8.433E-09   -8.391E-09   -8.349E-09   -8.307E-09   -8.265E-09   -8.222E-09   -8.180E-09   -8.138E-09
    -8.095E-09   -8.052E-09   -8.009E-09   -7.966E-09   -7.923E-09   -7.880E-09   -7.837E-09   -7.794E-09   -7.750E-09   -7.706E-09
    -7.662E-09   -7.619E-09   -7.574E-09   -7.530E-09   -7.486E-09   -7.441E-09   -7.397E-09   -7.352E-09   -7.307E-09   -7.262E-09
    -7.217E-09   -7.171E-09   -7.126E-09   -7.080E-09   -7.034E-09   -6.988E-09   -6.941E-09   -6.895E-09   -6.848E-09   -6.801E-09
    -6.754E-09   -6.707E-09   -6.660E-09   -6.612E-09   -6.565E-09   -6.517E-09   -6.468E-09   -6.420E-09   -6.372E-09   -6.323E-09
    -6.274E-09   -6.225E-09   -6.176E-09   -6.126E-09   -6.076E-09   -6.027E-09   -5.977E-09   -5.926E-09   -5.876E-09   -5.825E-09
    -5.774E-09   -5.723E-09   -5.672E-09   -5.621E-09   -5.569E-09   -5.518E-09   -5.466E-09   -5.413E-09   -5.361E-09   -5.309E-09
    -5.256E-09   -5.203E-09   -5.150E-09   -5.096E-09   -5.043E-09   -4.989E-09   -4.935E-09   -4.881E-09   -4.827E-09   -4.773E-09
    -4.718E-09   -4.663E-09   -4.608E-09   -4.553E-09   -4.497E-09   -4.442E-09   -4.386E-09   -4.330E-09   -4.274E-09   -4.217E-09
    -4.161E-09   -4.104E-09   -4.047E-09   -3.989E-09   -3.932E-09   -3.874E-09   -3.817E-09   -3.759E-09   -3.701E-09   -3.642E-09
    -3.584E-09   -3.525E-09   -3.466E-09   -3.407E-09   -3.347E-09   -3.288E-09   -3.228E-09   -3.168E-09   -3.109E-09   -3.048E-09
    -2.988E-09   -2.928E-09   -2.868E-09   -2.807E-09   -2.747E-09   -2.686E-09   -2.625E-09   -2.565E-09   -2.504E-09   -2.443E-09
    -2.382E-09   -2.321E-09   -2.260E-09   -2.200E-09   -2.139E-09   -2.078E-09   -2.017E-09   -1.956E-09   -1.896E-09   -1.835E-09
    -1.775E-09   -1.714E-09   -1.654E-09   -1.593E-09   -1.533E-09   -1.473E-09   -1.413E-09   -1.354E-09   -1.294E-09   -1.234E-09
    -1.175E-09   -1.116E-09   -1.057E-09   -9.982E-10   -9.396E-10   -8.813E-10   -8.231E-10   -7.653E-10   -7.076E-10   -6.502E-10
    -5.930E-10   -5.362E-10   -4.796E-10   -4.233E-10   -3.673E-10   -3.116E-10   -2.562E-10   -2.011E-10   -1.464E-10   -9.206E-11
    -3.805E-11    1.561E-11    6.889E-11    1.218E-10    1.743E-10    2.264E-10    2.780E-10    3.293E-10    3.800E-10    4.304E-10
     4.803E-10    5.297E-10    5.786E-10    6.270E-10    6.749E-10    7.223E-10    7.692E-10    8.155E-10    8.613E-10    9.065E-10
     9.511E-10    9.951E-10    1.039E-09    1.081E-09    1.124E-09    1.165E-09    1.206E-09    1.246E-09    1.286E-09    1.325E-09
     1.363E-09    1.401E-09    1.438E-09    1.474E-09    1.509E-09    1.544E-09    1.578E-09    1.611E-09    1.643E-09    1.675E-09
     1.705E-09    1.735E-09    1.765E-09    1.793E-09    1.820E-09    1.847E-09    1.873E-09    1.897E-09    1.921E-09    1.944E-09
     1.967E-09    1.988E-09    2.008E-09    2.027E-09    2.046E-09    2.063E-09    2.080E-09    2.095E-09    2.110E-09    2.123E-09
     2.135E-09    2.147E-09    2.157E-09    2.166E-09    2.175E-09    2.182E-09    2.188E-09    2.194E-09    2.198E-09    2.201E-09
     2.204E-09    2.206E-09    2.206E-09    2.206E-09    2.205E-09    2.204E-09    2.201E-09    2.198E-09    2.193E-09    2.189E-09
     2.183E-09    2.177E-09    2.170E-09    2.162E-09    2.153E-09    2.144E-09    2.135E-09    2.124E-09    2.114E-09    2.102E-09
     2.090E-09    2.078E-09    2.064E-09    2.051E-09    2.037E-09    2.022E-09    2.007E-09    1.992E-09    1.976E-09    1.960E-09
     1.943E-09    1.926E-09    1.909E-09    1.891E-09    1.873E-09    1.855E-09    1.837E-09    1.818E-09    1.799E-09    1.780E-09
     1.760E-09    1.741E-09    1.721E-09    1.701E-09    1.681E-09    1.661E-09    1.640E-09    1.620E-09    1.600E-09    1.579E-09
     1.559E-09    1.538E-09    1.518E-09    1.498E-09    1.477E-09    1.457E-09    1.436E-09    1.416E-09    1.396E-09    1.376E-09
     1.355E-09    1.335E-09    1.315E-09    1.294E-09    1.274E-09    1.254E-09    1.234E-09    1.214E-09    1.194E-09    1.173E-09
     1.153E-09    1.133E-09    1.113E-09    1.093E-09    1.073E-09    1.052E-09    1.032E-09    1.012E-09    9.920E-10    9.718E-10
     9.517E-10    9.315E-10    9.114E-10    8.912E-10    8.710E-10    8.508E-10    8.306E-10    8.104E-10    7.902E-10    7.699E-10
     7.497E-10    7.294E-10    7.091E-10    6.888E-10    6.685E-10    6.481E-10    6.278E-10    6.074E-10    5.870E-10    5.665E-10
     5.461E-10    5.256E-10    5.051E-10    4.845E-10    4.639E-10    4.433E-10    4.227E-10    4.020E-10    3.813E-10    3.606E-10
     3.398E-10    3.190E-10    2.981E-10
 GPC      Conc. = 6.62E-12
  -9.30416E-09 -9.26903E-09 -9.23236E-09 -9.19250E-09 -9.14887E-09 -9.10182E-09 -9.05344E-09 -9.00592E-09 -8.96108E-09 -8.91981E-09
  -8.88206E-09 -8.84707E-09 -8.81373E-09 -8.78061E-09 -8.74660E-09 -8.71042E-09 -8.67183E-09 -8.63117E-09 -8.58939E-09 -8.54691E-09
  -8.50364E-09 -8.45910E-09 -8.41182E-09 -8.35611E-09 -8.28869E-09 -8.21415E-09 -8.14214E-09 -8.08072E-09 -8.03376E-09 -8.00069E-09
  -7.97853E-09 -7.96352E-09 -7.95186E-09 -7.93852E-09 -7.91690E-09 -7.88092E-09 -7.83925E-09 -7.79629E-09 -7.75282E-09 -7.70909E-09
  -7.66515E-09 -7.62105E-09 -7.57682E-09 -7.53246E-09 -7.48794E-09 -7.44330E-09 -7.39851E-09 -7.35357E-09 -7.30850E-09 -7.26328E-09
  -7.21791E-09 -7.17236E-09 -7.12668E-09 -7.08083E-09 -7.03480E-09 -6.98860E-09 -6.94224E-09 -6.89572E-09 -6.84900E-09 -6.80214E-09
  -6.75507E-09 -6.70781E-09 -6.66037E-09 -6.61275E-09 -6.56493E-09 -6.51693E-09 -6.46874E-09 -6.42037E-09 -6.37180E-09 -6.32305E-09
  -6.27411E-09 -6.22498E-09 -6.17566E-09 -6.12615E-09 -6.07645E-09 -6.02657E-09 -5.97649E-09 -5.92623E-09 -5.87576E-09 -5.82513E-09
  -5.77429E-09 -5.72326E-09 -5.67203E-09 -5.62062E-09 -5.56903E-09 -5.51723E-09 -5.46525E-09 -5.41307E-09 -5.36070E-09 -5.30814E-09
  -5.25538E-09 -5.20245E-09 -5.14932E-09 -5.09599E-09 -5.04247E-09 -4.98875E-09 -4.93484E-09 -4.88074E-09 -4.82644E-09 -4.77196E-09
  -4.71728E-09 -4.66240E-09 -4.60734E-09 -4.55207E-09 -4.49661E-09 -4.44096E-09 -4.38510E-09 -4.32906E-09 -4.27284E-09 -4.21640E-09
  -4.15979E-09 -4.10295E-09 -4.04594E-09 -3.98871E-09 -3.93131E-09 -3.87370E-09 -3.81590E-09 -3.75791E-09 -3.69971E-09 -3.64136E-09
  -3.58275E-09 -3.52397E-09 -3.46499E-09 -3.40583E-09 -3.34650E-09 -3.28700E-09 -3.22734E-09 -3.16754E-09 -3.10760E-09 -3.04753E-09
  -2.98734E-09 -2.92705E-09 -2.86666E-09 -2.80618E-09 -2.74561E-09 -2.68498E-09 -2.62428E-09 -2.56352E-09 -2.50274E-09 -2.44191E-09
  -2.38106E-09 -2.32020E-09 -2.25933E-09 -2.19848E-09 -2.13763E-09 -2.07679E-09 -2.01600E-09 -1.95525E-09 -1.89454E-09 -1.83390E-09
  -1.77334E-09 -1.71284E-09 -1.65243E-09 -1.59214E-09 -1.53193E-09 -1.47183E-09 -1.41188E-09 -1.35205E-09 -1.29235E-09 -1.23282E-09
  -1.17342E-09 -1.11419E-09 -1.05511E-09 -9.96199E-10 -9.37411E-10 -8.78680E-10 -8.19758E-10 -7.59943E-10 -6.99071E-10 -6.37918E-10
  -5.77608E-10 -5.18936E-10 -4.62208E-10 -4.07254E-10 -3.53740E-10 -3.01263E-10 -2.49371E-10 -1.97456E-10 -1.44764E-10 -9.08615E-11
  -3.70072E-11  1.65906E-11  6.98433E-11  1.22720E-10  1.75215E-10  2.27304E-10  2.78974E-10  3.30219E-10  3.81022E-10  4.31371E-10
   4.81261E-10  5.30672E-10  5.79600E-10  6.28025E-10  6.75943E-10  7.23347E-10  7.70214E-10  8.16538E-10  8.62312E-10  9.07517E-10
   9.52145E-10  9.96192E-10  1.03964E-09  1.08247E-09  1.12469E-09  1.16628E-09  1.20722E-09  1.24750E-09  1.28713E-09  1.32607E-09
   1.36434E-09  1.40189E-09  1.43874E-09  1.47486E-09  1.51026E-09  1.54492E-09  1.57881E-09  1.61194E-09  1.64430E-09  1.67586E-09
   1.70662E-09  1.73657E-09  1.76570E-09  1.79400E-09  1.82146E-09  1.84806E-09  1.87379E-09  1.89865E-09  1.92261E-09  1.94567E-09
   1.96782E-09  1.98905E-09  2.00934E-09  2.02869E-09  2.04709E-09  2.06451E-09  2.08095E-09  2.09641E-09  2.11087E-09  2.12430E-09
   2.13672E-09  2.14811E-09  2.15844E-09  2.16774E-09  2.17602E-09  2.18330E-09  2.18959E-09  2.19491E-09  2.19929E-09  2.20273E-09
   2.20526E-09  2.20689E-09  2.20765E-09  2.20754E-09  2.20659E-09  2.20482E-09  2.20224E-09  2.19887E-09  2.19473E-09  2.18984E-09
   2.18421E-09  2.17786E-09  2.17082E-09  2.16309E-09  2.15469E-09  2.14565E-09  2.13598E-09  2.12570E-09  2.11482E-09  2.10337E-09
   2.09136E-09  2.07882E-09  2.06575E-09  2.05217E-09  2.03811E-09  2.02358E-09  2.00860E-09  1.99319E-09  1.97736E-09  1.96114E-09
   1.94453E-09  1.92756E-09  1.91025E-09  1.89262E-09  1.87467E-09  1.85644E-09  1.83793E-09  1.81917E-09  1.80017E-09  1.78096E-09
   1.76154E-09  1.74193E-09  1.72216E-09  1.70225E-09  1.68221E-09  1.66205E-09  1.64180E-09  1.62147E-09  1.60109E-09  1.58066E-09
   1.56021E-09  1.53976E-09  1.51932E-09  1.49890E-09  1.47851E-09  1.45814E-09  1.43779E-09  1.41747E-09  1.39715E-09  1.37686E-09
   1.35659E-09  1.33633E-09  1.31609E-09  1.29586E-09  1.27565E-09  1.25544E-09  1.23525E-09  1.21507E-09  1.19489E-09  1.17473E-09
   1.15457E-09  1.13441E-09  1.11426E-09  1.09411E-09  1.07397E-09  1.05382E-09  1.03368E-09  1.01353E-09  9.93387E-10  9.73232E-10
   9.53079E-10  9.32925E-10  9.12755E-10  8.92580E-10  8.72405E-10  8.52212E-10  8.32006E-10  8.11795E-10  7.91570E-10  7.71327E-10
   7.51077E-10  7.30801E-10  7.10516E-10  6.90209E-10  6.69888E-10  6.49543E-10  6.29175E-10  6.08787E-10  5.88375E-10  5.67936E-10
   5.47474E-10  5.26985E-10  5.06469E-10  4.85926E-10  4.65346E-10  4.44739E-10  4.24103E-10  4.03431E-10  3.82726E-10  3.61992E-10
   3.41212E-10  3.20401E-10  2.99545E-10
 GSH      Conc. = 1.29E-10
  -8.78028E-09 -8.58736E-09 -8.44499E-09 -8.37360E-09 -8.37401E-09 -8.43336E-09 -8.53312E-09 -8.65289E-09 -8.76774E-09 -8.84850E-09
  -8.86029E-09 -8.84146E-09 -8.81389E-09 -8.77764E-09 -8.73813E-09 -8.69711E-09 -8.65527E-09 -8.61290E-09 -8.57018E-09 -8.52717E-09
  -8.48388E-09 -8.44031E-09 -8.39645E-09 -8.35225E-09 -8.30767E-09 -8.26260E-09 -8.21690E-09 -8.17039E-09 -8.12264E-09 -8.07316E-09
  -8.02153E-09 -7.96694E-09 -7.90789E-09 -7.83901E-09 -7.75083E-09 -7.64425E-09 -7.52597E-09 -7.40594E-09 -7.29771E-09 -7.21577E-09
  -7.16790E-09 -7.15499E-09 -7.17059E-09 -7.20324E-09 -7.23776E-09 -7.25817E-09 -7.25779E-09 -7.24500E-09 -7.20836E-09 -7.15718E-09
  -7.09500E-09 -7.02159E-09 -6.94237E-09 -6.85950E-09 -6.77407E-09 -6.69421E-09 -6.62810E-09 -6.57920E-09 -6.54750E-09 -6.53093E-09
  -6.52458E-09 -6.52133E-09 -6.51452E-09 -6.50447E-09 -6.48799E-09 -6.45497E-09 -6.41334E-09 -6.36798E-09 -6.31391E-09 -6.25235E-09
  -6.18278E-09 -6.10847E-09 -6.03048E-09 -5.94854E-09 -5.86671E-09 -5.79066E-09 -5.72353E-09 -5.66764E-09 -5.62436E-09 -5.59380E-09
  -5.57282E-09 -5.55319E-09 -5.53633E-09 -5.52016E-09 -5.49213E-09 -5.45917E-09 -5.42333E-09 -5.38050E-09 -5.33392E-09 -5.28528E-09
  -5.23530E-09 -5.18441E-09 -5.13283E-09 -5.08069E-09 -5.02808E-09 -4.97508E-09 -4.92174E-09 -4.86808E-09 -4.81412E-09 -4.75991E-09
  -4.70543E-09 -4.65071E-09 -4.59577E-09 -4.54059E-09 -4.48519E-09 -4.42957E-09 -4.37372E-09 -4.31768E-09 -4.26143E-09 -4.20497E-09
  -4.14831E-09 -4.09142E-09 -4.03435E-09 -3.97706E-09 -3.91958E-09 -3.86190E-09 -3.80402E-09 -3.74594E-09 -3.68766E-09 -3.62922E-09
  -3.57051E-09 -3.51163E-09 -3.45255E-09 -3.39329E-09 -3.33385E-09 -3.27424E-09 -3.21447E-09 -3.15455E-09 -3.09450E-09 -3.03431E-09
  -2.97400E-09 -2.91358E-09 -2.85306E-09 -2.79244E-09 -2.73174E-09 -2.67097E-09 -2.61012E-09 -2.54922E-09 -2.48828E-09 -2.42729E-09
  -2.36628E-09 -2.30524E-09 -2.24418E-09 -2.18314E-09 -2.12208E-09 -2.06103E-09 -2.00001E-09 -1.93901E-09 -1.87804E-09 -1.81711E-09
  -1.75624E-09 -1.69540E-09 -1.63462E-09 -1.57391E-09 -1.51323E-09 -1.45260E-09 -1.39204E-09 -1.33150E-09 -1.27097E-09 -1.21043E-09
  -1.14979E-09 -1.08900E-09 -1.02787E-09 -9.66136E-10 -9.03171E-10 -8.37453E-10 -7.63515E-10 -6.67867E-10 -5.47664E-10 -4.17711E-10
  -2.99710E-10 -2.08613E-10 -1.49971E-10 -1.20551E-10 -1.13209E-10 -1.19987E-10 -1.32206E-10 -1.37599E-10 -1.21193E-10 -7.58858E-11
  -2.48558E-11  2.75694E-11  8.03023E-11  1.32965E-10  1.85401E-10  2.37518E-10  2.89263E-10  3.40609E-10  3.91528E-10  4.42000E-10
   4.92016E-10  5.41552E-10  5.90604E-10  6.39149E-10  6.87184E-10  7.34702E-10  7.81679E-10  8.28109E-10  8.73985E-10  9.19289E-10
   9.64012E-10  1.00815E-09  1.05169E-09  1.09461E-09  1.13691E-09  1.17857E-09  1.21960E-09  1.25995E-09  1.29965E-09  1.33867E-09
   1.37699E-09  1.41462E-09  1.45153E-09  1.48772E-09  1.52318E-09  1.55789E-09  1.59184E-09  1.62502E-09  1.65744E-09  1.68906E-09
   1.71987E-09  1.74987E-09  1.77905E-09  1.80740E-09  1.83491E-09  1.86154E-09  1.88732E-09  1.91222E-09  1.93623E-09  1.95933E-09
