 LCModel (Version 6.3-1R) Copyright: S.W. Provencher.          Ref.: Magn. Reson. Med. 30:672-679 (1993).                
 onepulse 20x4_ftSpec_smooth_lcm
 26 lines in following concentration table = NCONC+1
    Conc.  %SD /Cr+PCr  Metabolite                                         
 2.49E-10 142%   0.700 Ala                                                 
 4.25E-09  17%  11.935 Asp                                                 
    0.000 999%   0.000 Cr                                                  
 9.15E-10  72%   2.573 GABA                                                
 6.24E-10 216%   1.755 Glc                                                 
    0.000 999%   0.000 Gln                                                 
    0.000 999%   0.000 Glu                                                 
    0.000 999%   0.000 Glyc                                                
 1.25E-10 126%   0.350 GPC                                                 
 1.03E-10 495%   0.290 GSH                                                 
 1.13E-09  45%   3.164 Ins                                                 
    0.000 999%   0.000 Lac                                                 
    0.000 999%   0.000 NAAG                                                
    0.000 999%   0.000 NAA                                                 
    0.000 999%   0.000 PCh                                                 
 3.56E-10 100%   1.000 PCr                                                 
    0.000 999%   0.000 PE                                                  
 2.51E-10 102%   0.705 Scyllo                                              
    0.000 999%   0.000 Ser                                                 
 2.17E-10 598%   0.611 Tau                                                 
 1.25E-10 126%   0.350 GPC+PCh                                             
    0.000 999%   0.000 NAA+NAAG                                            
 1.13E-09  45%   3.164 Ins+Glyc                                            
 3.56E-10 100%   1.000 Cr+PCr                                              
    0.000 999%   0.000 Glu+Gln                                             
   6 lines in following misc. output table
  FWHM = 0.056 ppm    S/N =   2                                            
  Data shift = 0.335 ppm                                                   
  Ph:-122 deg      53.9 deg/ppm                                            
  alphaB,S = 9.8E-01,   1.7E+01                                            
    9 spline knots.   Ns = 5(1)                                            
  ( 8) 5 infls.   ( 9) 3 extrs.                                            
  363 points on ppm-axis = NY
      4.250000     4.238821     4.227641     4.216462     4.205282     4.194103     4.182923     4.171744     4.160564     4.149385
      4.138206     4.127026     4.115847     4.104667     4.093488     4.082308     4.071129     4.059949     4.048770     4.037591
      4.026411     4.015232     4.004052     3.992873     3.981693     3.970514     3.959334     3.948155     3.936975     3.925796
      3.914617     3.903437     3.892258     3.881078     3.869899     3.858719     3.847540     3.836360     3.825181     3.814002
      3.802822     3.791643     3.780463     3.769284     3.758104     3.746925     3.735745     3.724566     3.713387     3.702207
      3.691028     3.679848     3.668669     3.657489     3.646310     3.635130     3.623951     3.612772     3.601592     3.590413
      3.579233     3.568054     3.556874     3.545695     3.534515     3.523336     3.512156     3.500977     3.489798     3.478618
      3.467439     3.456259     3.445080     3.433900     3.422721     3.411541     3.400362     3.389183     3.378003     3.366824
      3.355644     3.344465     3.333285     3.322106     3.310926     3.299747     3.288568     3.277388     3.266209     3.255029
      3.243850     3.232670     3.221491     3.210311     3.199132     3.187953     3.176773     3.165594     3.154414     3.143235
      3.132055     3.120876     3.109696     3.098517     3.087337     3.076158     3.064979     3.053799     3.042620     3.031440
      3.020261     3.009081     2.997902     2.986722     2.975543     2.964364     2.953184     2.942005     2.930825     2.919646
      2.908466     2.897287     2.886107     2.874928     2.863749     2.852569     2.841390     2.830210     2.819031     2.807851
      2.796672     2.785492     2.774313     2.763134     2.751954     2.740775     2.729595     2.718416     2.707236     2.696057
      2.684877     2.673698     2.662519     2.651339     2.640160     2.628980     2.617801     2.606621     2.595442     2.584262
      2.573083     2.561903     2.550724     2.539545     2.528365     2.517186     2.506006     2.494827     2.483647     2.472468
      2.461288     2.450109     2.438930     2.427750     2.416571     2.405391     2.394212     2.383032     2.371853     2.360673
      2.349494     2.338315     2.327135     2.315956     2.304776     2.293597     2.282417     2.271238     2.260058     2.248879
      2.237700     2.226520     2.215341     2.204161     2.192982     2.181802     2.170623     2.159443     2.148264     2.137084
      2.125905     2.114726     2.103546     2.092367     2.081187     2.070008     2.058828     2.047649     2.036469     2.025290
      2.014111     2.002931     1.991752     1.980572     1.969393     1.958213     1.947034     1.935854     1.924675     1.913496
      1.902316     1.891137     1.879957     1.868778     1.857598     1.846419     1.835239     1.824060     1.812881     1.801701
      1.790522     1.779342     1.768163     1.756983     1.745804     1.734624     1.723445     1.712265     1.701086     1.689907
      1.678727     1.667548     1.656368     1.645189     1.634009     1.622830     1.611650     1.600471     1.589292     1.578112
      1.566933     1.555753     1.544574     1.533394     1.522215     1.511035     1.499856     1.488677     1.477497     1.466318
      1.455138     1.443959     1.432779     1.421600     1.410420     1.399241     1.388062     1.376882     1.365703     1.354523
      1.343344     1.332164     1.320985     1.309805     1.298626     1.287446     1.276267     1.265088     1.253908     1.242729
      1.231549     1.220370     1.209190     1.198011     1.186831     1.175652     1.164473     1.153293     1.142114     1.130934
      1.119755     1.108575     1.097396     1.086216     1.075037     1.063858     1.052678     1.041499     1.030319     1.019140
      1.007960     0.996781     0.985601     0.974422     0.963243     0.952063     0.940884     0.929704     0.918525     0.907345
      0.896166     0.884986     0.873807     0.862628     0.851448     0.840269     0.829089     0.817910     0.806730     0.795551
      0.784371     0.773192     0.762012     0.750833     0.739654     0.728474     0.717295     0.706115     0.694936     0.683756
      0.672577     0.661397     0.650218     0.639039     0.627859     0.616680     0.605500     0.594321     0.583141     0.571962
      0.560782     0.549603     0.538424     0.527244     0.516065     0.504885     0.493706     0.482526     0.471347     0.460167
      0.448988     0.437809     0.426629     0.415450     0.404270     0.393091     0.381911     0.370732     0.359552     0.348373
      0.337193     0.326014     0.314835     0.303655     0.292476     0.281296     0.270117     0.258937     0.247758     0.236578
      0.225399     0.214220     0.203040
 NY phased data points follow
   1.35991E-09  3.06075E-09  3.58202E-09  4.72237E-09  4.65033E-09  5.11964E-09  4.83891E-09  5.35409E-09  4.32724E-09  4.11550E-09
   3.97502E-09  4.45948E-09  4.17750E-09  4.22560E-09  4.17951E-09  4.30360E-09  4.60996E-09  5.27162E-09  5.28030E-09  5.26857E-09
   5.56659E-09  5.77985E-09  5.65071E-09  5.29665E-09  5.43473E-09  5.03321E-09  5.70746E-09  5.77846E-09  5.48974E-09  5.19840E-09
   5.55553E-09  5.36288E-09  5.37892E-09  5.94437E-09  6.43732E-09  7.07770E-09  7.36130E-09  7.49097E-09  7.66579E-09  7.24440E-09
   7.17795E-09  7.43711E-09  7.25919E-09  7.58252E-09  7.07910E-09  7.85147E-09  7.57549E-09  7.47395E-09  7.33924E-09  7.05438E-09
   7.34298E-09  6.94189E-09  7.13281E-09  6.62619E-09  6.91289E-09  6.66091E-09  6.58485E-09  6.49687E-09  5.95735E-09  5.60089E-09
   5.47943E-09  5.15829E-09  5.26437E-09  4.86992E-09  5.72588E-09  6.31090E-09  7.39972E-09  8.38166E-09  8.55698E-09  8.70714E-09
   8.65648E-09  8.88476E-09  8.88941E-09  8.10322E-09  8.15446E-09  7.53652E-09  6.53849E-09  6.09280E-09  5.62412E-09  5.60022E-09
   6.10240E-09  6.59987E-09  8.10061E-09  8.97554E-09  1.00617E-08  9.85982E-09  1.12617E-08  1.04456E-08  1.11049E-08  1.07562E-08
   1.14201E-08  1.11225E-08  1.12181E-08  1.17401E-08  1.14059E-08  1.15460E-08  1.11740E-08  1.13832E-08  1.09190E-08  1.09330E-08
   1.07437E-08  1.01872E-08  1.03897E-08  9.95886E-09  1.00706E-08  9.97677E-09  9.87414E-09  9.74609E-09  1.03974E-08  1.01264E-08
   9.90948E-09  9.49162E-09  9.14207E-09  9.28818E-09  9.25624E-09  8.89468E-09  9.02820E-09  8.97604E-09  9.33649E-09  9.21771E-09
   9.05364E-09  8.70260E-09  8.84698E-09  8.73155E-09  8.81576E-09  8.29158E-09  7.82183E-09  7.56861E-09  7.95502E-09  7.66611E-09
   7.35421E-09  6.98661E-09  7.65370E-09  7.73544E-09  7.65318E-09  7.67312E-09  8.34895E-09  8.11014E-09  8.37497E-09  7.92512E-09
   8.09282E-09  8.28214E-09  9.39806E-09  9.10725E-09  9.51548E-09  9.57751E-09  9.81046E-09  1.04095E-08  1.08103E-08  1.06255E-08
   1.08864E-08  1.13523E-08  1.17132E-08  1.12339E-08  1.18463E-08  1.15855E-08  1.18122E-08  1.15674E-08  1.18894E-08  1.22385E-08
   1.22507E-08  1.26957E-08  1.24224E-08  1.26545E-08  1.27027E-08  1.24754E-08  1.24392E-08  1.25767E-08  1.26025E-08  1.20607E-08
   1.23699E-08  1.26020E-08  1.43269E-08  1.63534E-08  1.83344E-08  1.85719E-08  1.85216E-08  1.87730E-08  1.87359E-08  1.76383E-08
   1.68213E-08  1.56986E-08  1.43434E-08  1.23772E-08  1.05970E-08  8.17817E-09  5.72581E-09  2.77222E-09  2.01695E-10 -3.04753E-09
  -5.03371E-09 -8.09664E-09 -1.01432E-08 -1.15939E-08 -1.30449E-08 -1.34452E-08 -1.36081E-08 -1.36772E-08 -1.28812E-08 -1.10624E-08
  -1.00385E-08 -8.18520E-09 -6.31531E-09 -5.19821E-09 -3.62026E-09 -3.08486E-09 -2.73135E-09 -2.88228E-09 -2.67623E-09 -3.00852E-09
  -2.91219E-09 -3.75590E-09 -2.67602E-09 -3.16022E-09 -2.90803E-09 -2.71400E-09 -2.53872E-09 -2.57157E-09 -2.53808E-09 -2.71578E-09
  -3.26175E-09 -3.42473E-09 -3.57347E-09 -3.36645E-09 -2.75048E-09 -2.39047E-09 -2.12178E-09 -2.38468E-09 -2.36560E-09 -3.04494E-09
  -2.89774E-09 -3.34414E-09 -2.92175E-09 -3.16841E-09 -2.50706E-09 -2.77142E-09 -2.64974E-09 -3.08531E-09 -2.28196E-09 -2.82274E-09
  -2.54633E-09 -3.11015E-09 -2.87432E-09 -3.15841E-09 -2.72256E-09 -2.85309E-09 -2.90202E-09 -2.98621E-09 -2.79301E-09 -2.89875E-09
  -2.90705E-09 -3.55021E-09 -2.81514E-09 -3.56964E-09 -3.19561E-09 -3.66084E-09 -3.45200E-09 -3.73775E-09 -3.74101E-09 -4.50018E-09
  -3.86099E-09 -4.06442E-09 -3.67863E-09 -4.21409E-09 -4.61931E-09 -4.59917E-09 -4.53583E-09 -4.71803E-09 -4.86857E-09 -4.58451E-09
  -4.31218E-09 -4.81917E-09 -3.31237E-09 -4.45307E-09 -4.37810E-09 -3.99352E-09 -3.79892E-09 -3.94451E-09 -3.47878E-09 -3.99956E-09
  -3.73588E-09 -4.00357E-09 -4.04801E-09 -4.20832E-09 -3.91555E-09 -4.31819E-09 -4.51214E-09 -4.27948E-09 -4.07033E-09 -4.49314E-09
  -4.28559E-09 -4.96648E-09 -4.87922E-09 -5.05587E-09 -4.89334E-09 -5.23552E-09 -5.29048E-09 -5.26294E-09 -5.04634E-09 -5.09043E-09
  -5.42070E-09 -5.65805E-09 -5.40475E-09 -5.57814E-09 -5.77271E-09 -5.79374E-09 -5.71662E-09 -6.18456E-09 -5.48530E-09 -5.79240E-09
  -6.50911E-09 -6.34945E-09 -5.91714E-09 -6.19369E-09 -6.41852E-09 -6.30340E-09 -6.24499E-09 -6.62115E-09 -6.11656E-09 -6.38201E-09
  -6.48205E-09 -6.47328E-09 -6.62284E-09 -6.48443E-09 -6.37462E-09 -6.73026E-09 -6.99500E-09 -6.56274E-09 -6.33596E-09 -7.14723E-09
  -6.88017E-09 -6.67610E-09 -6.74920E-09 -6.56923E-09 -7.00793E-09 -6.81495E-09 -6.79893E-09 -7.03901E-09 -6.66759E-09 -6.58103E-09
  -6.74762E-09 -6.94496E-09 -6.67403E-09 -6.81531E-09 -6.79965E-09 -7.16817E-09 -6.94923E-09 -7.14402E-09 -6.82085E-09 -6.92731E-09
  -6.50931E-09 -7.15635E-09 -6.89165E-09 -7.13234E-09 -6.74846E-09 -6.61038E-09 -6.85253E-09 -6.63234E-09 -7.12045E-09 -6.89212E-09
  -6.84754E-09 -6.60069E-09 -6.66861E-09
 NY points of the fit to the data follow
   4.34165E-09  2.99174E-09  2.53910E-09  3.27403E-09  3.70422E-09  3.48101E-09  3.44454E-09  3.53295E-09  4.06090E-09  4.22027E-09
   4.43506E-09  4.92169E-09  5.67401E-09  5.95280E-09  5.52976E-09  5.18705E-09  5.56984E-09  5.42442E-09  4.16324E-09  3.81080E-09
   4.43902E-09  5.16785E-09  5.60378E-09  5.85995E-09  5.70138E-09  5.54813E-09  5.37725E-09  4.85976E-09  4.48170E-09  5.48814E-09
   6.18847E-09  6.69430E-09  6.42905E-09  5.55028E-09  5.04294E-09  5.91624E-09  6.84024E-09  7.43971E-09  7.65636E-09  7.49474E-09
   7.13492E-09  6.68928E-09  6.06061E-09  6.90332E-09  7.88644E-09  8.56301E-09  7.95145E-09  7.29552E-09  7.52195E-09  8.56336E-09
   9.37335E-09  9.80392E-09  9.72346E-09  8.77343E-09  7.25611E-09  6.22297E-09  5.18686E-09  6.15016E-09  6.77282E-09  6.37110E-09
   5.91525E-09  6.45320E-09  6.70443E-09  6.85928E-09  7.64064E-09  8.00117E-09  7.63804E-09  7.59154E-09  7.80204E-09  7.98124E-09
   8.00886E-09  7.88815E-09  7.76727E-09  7.84587E-09  7.80538E-09  7.47924E-09  7.63851E-09  7.97212E-09  8.05988E-09  8.23769E-09
   8.46791E-09  8.65730E-09  8.92433E-09  9.19202E-09  9.32421E-09  9.48817E-09  9.71804E-09  9.87298E-09  9.99940E-09  1.00680E-08
   1.00658E-08  1.01576E-08  1.02317E-08  1.00134E-08  9.91794E-09  1.00607E-08  9.92616E-09  9.80103E-09  9.92021E-09  1.00352E-08
   1.00980E-08  1.00835E-08  1.01655E-08  1.03156E-08  1.03836E-08  1.04035E-08  1.04233E-08  1.04467E-08  1.04201E-08  1.02698E-08
   1.00145E-08  9.88761E-09  9.88468E-09  9.62896E-09  9.40805E-09  9.40010E-09  9.41269E-09  9.42267E-09  9.42668E-09  9.42460E-09
   9.41656E-09  9.40326E-09  9.38500E-09  9.36216E-09  9.33504E-09  9.30392E-09  9.26899E-09  9.23047E-09  9.18857E-09  9.14342E-09
   9.09517E-09  9.04399E-09  8.98999E-09  8.93332E-09  8.87410E-09  8.81247E-09  8.74852E-09  8.68240E-09  8.61427E-09  8.54424E-09
   8.47248E-09  8.39912E-09  8.32433E-09  8.24834E-09  8.17124E-09  8.09327E-09  8.01472E-09  7.93586E-09  7.85693E-09  7.77835E-09
   7.70052E-09  7.62385E-09  7.54901E-09  7.47675E-09  7.40785E-09  7.34347E-09  7.28516E-09  7.23481E-09  7.19505E-09  7.16977E-09
   7.16444E-09  7.18792E-09  7.25480E-09  7.39219E-09  7.65765E-09  8.20440E-09  9.61411E-09  1.27735E-08  1.51955E-08  1.51660E-08
   1.44322E-08  1.44559E-08  1.54916E-08  1.71013E-08  1.88602E-08  2.03096E-08  2.01657E-08  1.61649E-08  8.49653E-09  3.58933E-09
   2.60952E-09  2.30872E-09  2.16110E-09  2.05802E-09  1.96821E-09  1.88108E-09  1.79273E-09  1.70182E-09  1.60801E-09  1.51140E-09
   1.41221E-09  1.31076E-09  1.20733E-09  1.10225E-09  9.95741E-10  8.88033E-10  7.79374E-10  6.69937E-10  5.59879E-10  4.49380E-10
   3.38563E-10  2.27529E-10  1.16413E-10  5.32585E-12 -1.05665E-10 -2.16462E-10 -3.26997E-10 -4.37150E-10 -5.46915E-10 -6.56213E-10
  -7.64979E-10 -8.73139E-10 -9.80662E-10 -1.08748E-09 -1.19360E-09 -1.29893E-09 -1.40343E-09 -1.50707E-09 -1.60983E-09 -1.71165E-09
  -1.81250E-09 -1.91234E-09 -2.01115E-09 -2.10892E-09 -2.20562E-09 -2.30116E-09 -2.39558E-09 -2.48885E-09 -2.58090E-09 -2.67174E-09
  -2.76134E-09 -2.84968E-09 -2.93673E-09 -3.02249E-09 -3.10692E-09 -3.19000E-09 -3.27173E-09 -3.35209E-09 -3.43106E-09 -3.50860E-09
  -3.58474E-09 -3.65943E-09 -3.73266E-09 -3.80445E-09 -3.87481E-09 -3.94376E-09 -4.01134E-09 -4.07754E-09 -4.14240E-09 -4.20594E-09
  -4.26818E-09 -4.32914E-09 -4.38884E-09 -4.44730E-09 -4.50455E-09 -4.56060E-09 -4.61549E-09 -4.66922E-09 -4.72182E-09 -4.77331E-09
  -4.82372E-09 -4.87307E-09 -4.92138E-09 -4.96866E-09 -5.01494E-09 -5.06024E-09 -5.10458E-09 -5.14798E-09 -5.19047E-09 -5.23205E-09
  -5.27276E-09 -5.31260E-09 -5.35161E-09 -5.38979E-09 -5.42717E-09 -5.46377E-09 -5.49960E-09 -5.53467E-09 -5.56902E-09 -5.60264E-09
  -5.63557E-09 -5.66781E-09 -5.69938E-09 -5.73030E-09 -5.76057E-09 -5.79022E-09 -5.81924E-09 -5.84767E-09 -5.87551E-09 -5.90278E-09
  -5.92947E-09 -5.95560E-09 -5.98118E-09 -6.00623E-09 -6.03074E-09 -6.05474E-09 -6.07822E-09 -6.10118E-09 -6.12364E-09 -6.14560E-09
  -6.16707E-09 -6.18805E-09 -6.20854E-09 -6.22852E-09 -6.24797E-09 -6.26684E-09 -6.28509E-09 -6.30270E-09 -6.31962E-09 -6.33581E-09
  -6.35125E-09 -6.36589E-09 -6.37971E-09 -6.39265E-09 -6.40470E-09 -6.41581E-09 -6.42595E-09 -6.43510E-09 -6.44320E-09 -6.45025E-09
  -6.45619E-09 -6.46101E-09 -6.46466E-09 -6.46713E-09 -6.46838E-09 -6.46837E-09 -6.46708E-09 -6.46448E-09 -6.46056E-09 -6.45526E-09
  -6.44858E-09 -6.44049E-09 -6.43095E-09 -6.41995E-09 -6.40746E-09 -6.39345E-09 -6.37791E-09 -6.36080E-09 -6.34212E-09 -6.32183E-09
  -6.29992E-09 -6.27636E-09 -6.25114E-09 -6.22424E-09 -6.19564E-09 -6.16532E-09 -6.13326E-09 -6.09946E-09 -6.06389E-09 -6.02655E-09
  -5.98741E-09 -5.94646E-09 -5.90369E-09 -5.85910E-09 -5.81266E-09 -5.76437E-09 -5.71422E-09 -5.66220E-09 -5.60830E-09 -5.55253E-09
  -5.49485E-09 -5.43528E-09 -5.37381E-09
 NY background values follow
    -1.395E-10    8.136E-11    3.002E-10    5.169E-10    7.315E-10    9.440E-10    1.154E-09    1.363E-09    1.569E-09    1.772E-09
     1.974E-09    2.174E-09    2.371E-09    2.566E-09    2.759E-09    2.950E-09    3.138E-09    3.324E-09    3.508E-09    3.690E-09
     3.869E-09    4.046E-09    4.221E-09    4.394E-09    4.564E-09    4.732E-09    4.898E-09    5.061E-09    5.222E-09    5.381E-09
     5.537E-09    5.691E-09    5.842E-09    5.992E-09    6.139E-09    6.283E-09    6.425E-09    6.565E-09    6.703E-09    6.838E-09
     6.971E-09    7.101E-09    7.229E-09    7.355E-09    7.478E-09    7.599E-09    7.718E-09    7.834E-09    7.948E-09    8.060E-09
     8.169E-09    8.276E-09    8.380E-09    8.482E-09    8.582E-09    8.679E-09    8.774E-09    8.867E-09    8.958E-09    9.046E-09
     9.131E-09    9.215E-09    9.296E-09    9.375E-09    9.451E-09    9.525E-09    9.597E-09    9.667E-09    9.734E-09    9.799E-09
     9.861E-09    9.921E-09    9.979E-09    1.003E-08    1.009E-08    1.014E-08    1.019E-08    1.023E-08    1.028E-08    1.032E-08
     1.036E-08    1.039E-08    1.043E-08    1.046E-08    1.049E-08    1.051E-08    1.054E-08    1.056E-08    1.058E-08    1.060E-08
     1.061E-08    1.062E-08    1.063E-08    1.064E-08    1.064E-08    1.065E-08    1.065E-08    1.064E-08    1.064E-08    1.063E-08
     1.062E-08    1.061E-08    1.059E-08    1.057E-08    1.055E-08    1.053E-08    1.050E-08    1.048E-08    1.044E-08    1.041E-08
     1.038E-08    1.034E-08    1.030E-08    1.025E-08    1.020E-08    1.016E-08    1.010E-08    1.005E-08    9.992E-09    9.932E-09
     9.870E-09    9.805E-09    9.737E-09    9.667E-09    9.594E-09    9.518E-09    9.440E-09    9.360E-09    9.277E-09    9.191E-09
     9.103E-09    9.013E-09    8.920E-09    8.826E-09    8.729E-09    8.629E-09    8.528E-09    8.424E-09    8.319E-09    8.211E-09
     8.102E-09    7.990E-09    7.877E-09    7.762E-09    7.645E-09    7.526E-09    7.405E-09    7.283E-09    7.160E-09    7.034E-09
     6.908E-09    6.780E-09    6.650E-09    6.519E-09    6.387E-09    6.254E-09    6.119E-09    5.983E-09    5.847E-09    5.709E-09
     5.570E-09    5.431E-09    5.290E-09    5.149E-09    5.007E-09    4.864E-09    4.721E-09    4.578E-09    4.433E-09    4.289E-09
     4.143E-09    3.998E-09    3.852E-09    3.707E-09    3.561E-09    3.415E-09    3.268E-09    3.122E-09    2.977E-09    2.831E-09
     2.685E-09    2.540E-09    2.395E-09    2.250E-09    2.106E-09    1.962E-09    1.819E-09    1.676E-09    1.534E-09    1.392E-09
     1.250E-09    1.110E-09    9.698E-10    8.305E-10    6.919E-10    5.539E-10    4.167E-10    2.803E-10    1.447E-10    9.922E-12
    -1.240E-10   -2.571E-10   -3.892E-10   -5.204E-10   -6.507E-10   -7.800E-10   -9.083E-10   -1.036E-09   -1.162E-09   -1.287E-09
    -1.411E-09   -1.534E-09   -1.656E-09   -1.776E-09   -1.896E-09   -2.014E-09   -2.131E-09   -2.246E-09   -2.361E-09   -2.474E-09
    -2.586E-09   -2.697E-09   -2.806E-09   -2.913E-09   -3.020E-09   -3.125E-09   -3.229E-09   -3.331E-09   -3.432E-09   -3.531E-09
    -3.629E-09   -3.725E-09   -3.820E-09   -3.913E-09   -4.005E-09   -4.095E-09   -4.183E-09   -4.270E-09   -4.356E-09   -4.440E-09
    -4.522E-09   -4.603E-09   -4.681E-09   -4.759E-09   -4.835E-09   -4.909E-09   -4.981E-09   -5.052E-09   -5.122E-09   -5.190E-09
    -5.257E-09   -5.322E-09   -5.386E-09   -5.448E-09   -5.509E-09   -5.569E-09   -5.627E-09   -5.684E-09   -5.740E-09   -5.795E-09
    -5.848E-09   -5.900E-09   -5.951E-09   -6.001E-09   -6.050E-09   -6.098E-09   -6.144E-09   -6.190E-09   -6.234E-09   -6.278E-09
    -6.320E-09   -6.361E-09   -6.402E-09   -6.441E-09   -6.480E-09   -6.518E-09   -6.555E-09   -6.591E-09   -6.626E-09   -6.660E-09
    -6.694E-09   -6.727E-09   -6.759E-09   -6.790E-09   -6.820E-09   -6.850E-09   -6.879E-09   -6.907E-09   -6.935E-09   -6.962E-09
    -6.988E-09   -7.014E-09   -7.039E-09   -7.063E-09   -7.087E-09   -7.110E-09   -7.133E-09   -7.155E-09   -7.176E-09   -7.197E-09
    -7.217E-09   -7.237E-09   -7.256E-09   -7.274E-09   -7.292E-09   -7.309E-09   -7.325E-09   -7.341E-09   -7.356E-09   -7.370E-09
    -7.384E-09   -7.396E-09   -7.408E-09   -7.418E-09   -7.428E-09   -7.436E-09   -7.444E-09   -7.450E-09   -7.456E-09   -7.460E-09
    -7.463E-09   -7.465E-09   -7.466E-09   -7.465E-09   -7.463E-09   -7.460E-09   -7.455E-09   -7.449E-09   -7.442E-09   -7.433E-09
    -7.423E-09   -7.411E-09   -7.398E-09   -7.383E-09   -7.367E-09   -7.349E-09   -7.330E-09   -7.309E-09   -7.286E-09   -7.262E-09
    -7.236E-09   -7.208E-09   -7.178E-09   -7.147E-09   -7.114E-09   -7.079E-09   -7.043E-09   -7.004E-09   -6.964E-09   -6.922E-09
    -6.878E-09   -6.833E-09   -6.785E-09   -6.736E-09   -6.684E-09   -6.631E-09   -6.576E-09   -6.519E-09   -6.460E-09   -6.399E-09
    -6.336E-09   -6.271E-09   -6.205E-09
 Ala      Conc. = 2.49E-10
   1.06064E-11  2.03555E-10  4.07301E-10  6.06793E-10  8.05940E-10  1.00345E-09  1.16358E-09  1.33758E-09  1.57627E-09  1.74752E-09
   1.89134E-09  2.11928E-09  2.32606E-09  2.50427E-09  2.70377E-09  2.90456E-09  3.10229E-09  3.29657E-09  3.48753E-09  3.67535E-09
   3.86017E-09  4.04214E-09  4.22133E-09  4.39784E-09  4.57171E-09  4.74300E-09  4.91172E-09  5.07793E-09  5.24164E-09  5.40286E-09
   5.56163E-09  5.71793E-09  5.87178E-09  6.02323E-09  6.17223E-09  6.31880E-09  6.46298E-09  6.60475E-09  6.74411E-09  6.88108E-09
   7.01563E-09  7.14781E-09  7.27759E-09  7.40501E-09  7.53003E-09  7.65270E-09  7.77298E-09  7.89088E-09  8.00645E-09  8.11966E-09
   8.23052E-09  8.33901E-09  8.44518E-09  8.54902E-09  8.65051E-09  8.74967E-09  8.84652E-09  8.94109E-09  9.03333E-09  9.12334E-09
   9.21103E-09  9.29644E-09  9.37959E-09  9.46049E-09  9.53911E-09  9.61548E-09  9.68959E-09  9.76146E-09  9.83107E-09  9.89843E-09
   9.96356E-09  1.00265E-08  1.00871E-08  1.01456E-08  1.02018E-08  1.02559E-08  1.03078E-08  1.03575E-08  1.04051E-08  1.04505E-08
   1.04939E-08  1.05352E-08  1.05744E-08  1.06117E-08  1.06472E-08  1.06807E-08  1.07126E-08  1.07428E-08  1.07715E-08  1.07990E-08
   1.08254E-08  1.08512E-08  1.08768E-08  1.09028E-08  1.09303E-08  1.09609E-08  1.09973E-08  1.10446E-08  1.11139E-08  1.12332E-08
   1.13158E-08  1.12708E-08  1.13058E-08  1.14034E-08  1.14174E-08  1.13836E-08  1.13506E-08  1.13222E-08  1.12447E-08  1.10448E-08
   1.07413E-08  1.05676E-08  1.05191E-08  1.02189E-08  9.95449E-09  9.90388E-09  9.87473E-09  9.84389E-09  9.80791E-09  9.76661E-09
   9.72006E-09  9.66886E-09  9.61329E-09  9.55371E-09  9.49035E-09  9.42344E-09  9.35314E-09  9.27964E-09  9.20308E-09  9.12355E-09
   9.04116E-09  8.95604E-09  8.86823E-09  8.77785E-09  8.68495E-09  8.58962E-09  8.49191E-09  8.39191E-09  8.28969E-09  8.18527E-09
   8.07877E-09  7.97021E-09  7.85966E-09  7.74724E-09  7.63290E-09  7.51675E-09  7.39888E-09  7.27935E-09  7.15817E-09  7.03547E-09
   6.91133E-09  6.78571E-09  6.65879E-09  6.53066E-09  6.40130E-09  6.27086E-09  6.13949E-09  6.00727E-09  5.87431E-09  5.74091E-09
   5.60720E-09  5.47367E-09  5.34088E-09  5.21002E-09  5.08354E-09  4.96858E-09  4.89503E-09  4.87855E-09  4.76717E-09  4.59927E-09
   4.44187E-09  4.31898E-09  4.22300E-09  4.13545E-09  4.04818E-09  3.94104E-09  3.75557E-09  3.41529E-09  3.01264E-09  2.82454E-09
   2.67144E-09  2.52558E-09  2.38198E-09  2.23930E-09  2.09710E-09  1.95528E-09  1.81381E-09  1.67269E-09  1.53197E-09  1.39169E-09
   1.25186E-09  1.11256E-09  9.73799E-10  8.35641E-10  6.98099E-10  5.61192E-10  4.24993E-10  2.89519E-10  1.54786E-10  2.08512E-11
  -1.12265E-10 -2.44560E-10 -3.75980E-10 -5.06488E-10 -6.36081E-10 -7.64724E-10 -8.92396E-10 -1.01903E-09 -1.14466E-09 -1.26923E-09
  -1.39274E-09 -1.51512E-09 -1.63638E-09 -1.75648E-09 -1.87544E-09 -1.99320E-09 -2.10973E-09 -2.22502E-09 -2.33909E-09 -2.45186E-09
  -2.56332E-09 -2.67346E-09 -2.78227E-09 -2.88974E-09 -2.99586E-09 -3.10055E-09 -3.20385E-09 -3.30575E-09 -3.40617E-09 -3.50514E-09
  -3.60265E-09 -3.69866E-09 -3.79317E-09 -3.88617E-09 -3.97764E-09 -4.06755E-09 -4.15591E-09 -4.24270E-09 -4.32792E-09 -4.41152E-09
  -4.49353E-09 -4.57392E-09 -4.65268E-09 -4.72983E-09 -4.80538E-09 -4.87936E-09 -4.95180E-09 -5.02271E-09 -5.09212E-09 -5.16006E-09
  -5.22654E-09 -5.29160E-09 -5.35526E-09 -5.41753E-09 -5.47845E-09 -5.53803E-09 -5.59631E-09 -5.65330E-09 -5.70903E-09 -5.76353E-09
  -5.81680E-09 -5.86889E-09 -5.91981E-09 -5.96958E-09 -6.01823E-09 -6.06577E-09 -6.11224E-09 -6.15765E-09 -6.20203E-09 -6.24539E-09
  -6.28776E-09 -6.32915E-09 -6.36960E-09 -6.40911E-09 -6.44771E-09 -6.48541E-09 -6.52224E-09 -6.55822E-09 -6.59336E-09 -6.62767E-09
  -6.66118E-09 -6.69392E-09 -6.72587E-09 -6.75708E-09 -6.78754E-09 -6.81728E-09 -6.84630E-09 -6.87463E-09 -6.90228E-09 -6.92925E-09
  -6.95556E-09 -6.98122E-09 -7.00624E-09 -7.03064E-09 -7.05441E-09 -7.07758E-09 -7.10014E-09 -7.12210E-09 -7.14347E-09 -7.16426E-09
  -7.18447E-09 -7.20411E-09 -7.22316E-09 -7.24164E-09 -7.25950E-09 -7.27670E-09 -7.29321E-09 -7.30900E-09 -7.32401E-09 -7.33822E-09
  -7.35160E-09 -7.36411E-09 -7.37571E-09 -7.38638E-09 -7.39607E-09 -7.40475E-09 -7.41239E-09 -7.41896E-09 -7.42442E-09 -7.42875E-09
  -7.43191E-09 -7.43387E-09 -7.43461E-09 -7.43408E-09 -7.43227E-09 -7.42914E-09 -7.42467E-09 -7.41882E-09 -7.41158E-09 -7.40291E-09
  -7.39278E-09 -7.38119E-09 -7.36808E-09 -7.35345E-09 -7.33728E-09 -7.31952E-09 -7.30017E-09 -7.27920E-09 -7.25660E-09 -7.23233E-09
  -7.20638E-09 -7.17873E-09 -7.14937E-09 -7.11827E-09 -7.08541E-09 -7.05079E-09 -7.01437E-09 -6.97616E-09 -6.93613E-09 -6.89427E-09
  -6.85057E-09 -6.80501E-09 -6.75758E-09 -6.70828E-09 -6.65708E-09 -6.60398E-09 -6.54899E-09 -6.49207E-09 -6.43323E-09 -6.37247E-09
  -6.30977E-09 -6.24513E-09 -6.17854E-09
 Asp      Conc. = 4.25E-09
   5.20725E-10 -2.21384E-10 -6.34453E-10 -5.78549E-10 -7.23432E-10 -9.07069E-10 -8.35702E-10 -9.49229E-10 -2.98278E-10  3.15169E-10
   8.40844E-10  1.30343E-09  1.72357E-09  2.11391E-09  2.47543E-09  2.80788E-09  3.12493E-09  3.43003E-09  3.72546E-09  4.01302E-09
   4.29423E-09  4.57041E-09  4.84271E-09  5.11223E-09  5.37999E-09  5.64704E-09  5.91445E-09  6.18341E-09  6.45527E-09  6.73158E-09
   7.01429E-09  7.30578E-09  7.60928E-09  7.92921E-09  8.27182E-09  8.64628E-09  9.06123E-09  9.42253E-09  9.66552E-09  9.81573E-09
   9.99524E-09  1.03777E-08  1.09792E-08  1.17834E-08  1.21592E-08  1.25795E-08  1.19486E-08  1.09969E-08  1.08759E-08  1.16024E-08
   1.21329E-08  1.23254E-08  1.20291E-08  1.08632E-08  9.16414E-09  7.96428E-09  6.74959E-09  7.53938E-09  7.99252E-09  7.41878E-09
   6.77940E-09  7.09257E-09  7.22206E-09  7.35727E-09  7.91802E-09  8.11513E-09  7.79757E-09  7.73245E-09  7.86029E-09  8.02168E-09
   8.18502E-09  8.34212E-09  8.49078E-09  8.63062E-09  8.76194E-09  8.88523E-09  9.00098E-09  9.10976E-09  9.21195E-09  9.30804E-09
   9.39835E-09  9.48320E-09  9.56287E-09  9.63766E-09  9.70776E-09  9.77331E-09  9.83457E-09  9.89163E-09  9.94463E-09  9.99372E-09
   1.00390E-08  1.00805E-08  1.01184E-08  1.01528E-08  1.01836E-08  1.02110E-08  1.02351E-08  1.02558E-08  1.02732E-08  1.02874E-08
   1.02984E-08  1.03062E-08  1.03109E-08  1.03125E-08  1.03110E-08  1.03065E-08  1.02989E-08  1.02883E-08  1.02747E-08  1.02582E-08
   1.02387E-08  1.02162E-08  1.01909E-08  1.01625E-08  1.01313E-08  1.00972E-08  1.00602E-08  1.00203E-08  9.97761E-09  9.93212E-09
   9.88362E-09  9.83235E-09  9.77826E-09  9.72142E-09  9.66185E-09  9.59962E-09  9.53475E-09  9.46730E-09  9.39735E-09  9.32492E-09
   9.25008E-09  9.17290E-09  9.09340E-09  9.01168E-09  8.92778E-09  8.84179E-09  8.75373E-09  8.66372E-09  8.57183E-09  8.47811E-09
   8.38268E-09  8.28560E-09  8.18698E-09  8.08697E-09  7.98557E-09  7.88296E-09  7.77929E-09  7.67472E-09  7.56935E-09  7.46345E-09
   7.35723E-09  7.25084E-09  7.14468E-09  7.03913E-09  6.93451E-09  6.83142E-09  6.73061E-09  6.63290E-09  6.53950E-09  6.45215E-09
   6.37312E-09  6.30616E-09  6.25699E-09  6.23576E-09  6.26198E-09  6.38017E-09  6.72064E-09  7.83096E-09  9.69615E-09  1.00346E-08
   9.51438E-09  9.19787E-09  9.45263E-09  1.01386E-08  1.09638E-08  1.17804E-08  1.22152E-08  1.12523E-08  7.74179E-09  3.55719E-09
   2.70511E-09  2.41447E-09  2.24539E-09  2.11189E-09  1.98997E-09  1.87157E-09  1.75368E-09  1.63515E-09  1.51563E-09  1.39508E-09
   1.27355E-09  1.15122E-09  1.02821E-09  9.04704E-10  7.80828E-10  6.56696E-10  5.32466E-10  4.08234E-10  2.84087E-10  1.60142E-10
   3.64715E-11 -8.68720E-11 -2.09795E-10 -3.32222E-10 -4.54121E-10 -5.75422E-10 -6.96083E-10 -8.16008E-10 -9.35212E-10 -1.05363E-09
  -1.17123E-09 -1.28793E-09 -1.40374E-09 -1.51858E-09 -1.63248E-09 -1.74537E-09 -1.85719E-09 -1.96795E-09 -2.07764E-09 -2.18617E-09
  -2.29355E-09 -2.39974E-09 -2.50473E-09 -2.60850E-09 -2.71104E-09 -2.81226E-09 -2.91222E-09 -3.01086E-09 -3.10814E-09 -3.20407E-09
  -3.29862E-09 -3.39178E-09 -3.48352E-09 -3.57384E-09 -3.66270E-09 -3.75009E-09 -3.83602E-09 -3.92045E-09 -4.00338E-09 -4.08477E-09
