 LCModel (Version 6.3-1R) Copyright: S.W. Provencher.          Ref.: Magn. Reson. Med. 30:672-679 (1993).                
 onepulse 20x5_ftSpec_smooth_lcm
 26 lines in following concentration table = NCONC+1
    Conc.  %SD /Cr+PCr  Metabolite                                         
 2.16E-10 161%   9.331 Ala                                                 
 2.70E-09  25% 116.511 Asp                                                 
 2.32E-11 999%   1.000 Cr                                                  
 3.00E-09  21% 129.320 GABA                                                
 1.51E-09  42%  65.112 Glc                                                 
    0.000 999%   0.000 Gln                                                 
    0.000 999%   0.000 Glu                                                 
    0.000 999%   0.000 Glyc                                                
 1.60E-10  57%   6.915 GPC                                                 
    0.000 999%   0.000 GSH                                                 
 5.04E-10  86%  21.756 Ins                                                 
    0.000 999%   0.000 Lac                                                 
    0.000 999%   0.000 NAAG                                                
 5.78E-10  43%  24.926 NAA                                                 
    0.000 999%   0.000 PCh                                                 
    0.000 999%   0.000 PCr                                                 
    0.000 999%   0.000 PE                                                  
 1.03E-10 166%   4.428 Scyllo                                              
    0.000 999%   0.000 Ser                                                 
    0.000 999%   0.000 Tau                                                 
 1.60E-10  57%   6.915 GPC+PCh                                             
 5.78E-10  43%  24.926 NAA+NAAG                                            
 5.04E-10  86%  21.756 Ins+Glyc                                            
 2.32E-11 999%   1.000 Cr+PCr                                              
    0.000 999%   0.000 Glu+Gln                                             
   6 lines in following misc. output table
  FWHM = 0.078 ppm    S/N =   3                                            
  Data shift = 0.347 ppm                                                   
  Ph: 108 deg       7.2 deg/ppm                                            
  alphaB,S = 3.2E-01,   2.6E+01                                            
   10 spline knots.   Ns = 5(1)                                            
  (12) 3 infls.   ( 9) 1 extrs.                                            
  363 points on ppm-axis = NY
      4.250000     4.238821     4.227641     4.216462     4.205282     4.194103     4.182923     4.171744     4.160564     4.149385
      4.138206     4.127026     4.115847     4.104667     4.093488     4.082308     4.071129     4.059949     4.048770     4.037591
      4.026411     4.015232     4.004052     3.992873     3.981693     3.970514     3.959334     3.948155     3.936975     3.925796
      3.914617     3.903437     3.892258     3.881078     3.869899     3.858719     3.847540     3.836360     3.825181     3.814002
      3.802822     3.791643     3.780463     3.769284     3.758104     3.746925     3.735745     3.724566     3.713387     3.702207
      3.691028     3.679848     3.668669     3.657489     3.646310     3.635130     3.623951     3.612772     3.601592     3.590413
      3.579233     3.568054     3.556874     3.545695     3.534515     3.523336     3.512156     3.500977     3.489798     3.478618
      3.467439     3.456259     3.445080     3.433900     3.422721     3.411541     3.400362     3.389183     3.378003     3.366824
      3.355644     3.344465     3.333285     3.322106     3.310926     3.299747     3.288568     3.277388     3.266209     3.255029
      3.243850     3.232670     3.221491     3.210311     3.199132     3.187953     3.176773     3.165594     3.154414     3.143235
      3.132055     3.120876     3.109696     3.098517     3.087337     3.076158     3.064979     3.053799     3.042620     3.031440
      3.020261     3.009081     2.997902     2.986722     2.975543     2.964364     2.953184     2.942005     2.930825     2.919646
      2.908466     2.897287     2.886107     2.874928     2.863749     2.852569     2.841390     2.830210     2.819031     2.807851
      2.796672     2.785492     2.774313     2.763134     2.751954     2.740775     2.729595     2.718416     2.707236     2.696057
      2.684877     2.673698     2.662519     2.651339     2.640160     2.628980     2.617801     2.606621     2.595442     2.584262
      2.573083     2.561903     2.550724     2.539545     2.528365     2.517186     2.506006     2.494827     2.483647     2.472468
      2.461288     2.450109     2.438930     2.427750     2.416571     2.405391     2.394212     2.383032     2.371853     2.360673
      2.349494     2.338315     2.327135     2.315956     2.304776     2.293597     2.282417     2.271238     2.260058     2.248879
      2.237700     2.226520     2.215341     2.204161     2.192982     2.181802     2.170623     2.159443     2.148264     2.137084
      2.125905     2.114726     2.103546     2.092367     2.081187     2.070008     2.058828     2.047649     2.036469     2.025290
      2.014111     2.002931     1.991752     1.980572     1.969393     1.958213     1.947034     1.935854     1.924675     1.913496
      1.902316     1.891137     1.879957     1.868778     1.857598     1.846419     1.835239     1.824060     1.812881     1.801701
      1.790522     1.779342     1.768163     1.756983     1.745804     1.734624     1.723445     1.712265     1.701086     1.689907
      1.678727     1.667548     1.656368     1.645189     1.634009     1.622830     1.611650     1.600471     1.589292     1.578112
      1.566933     1.555753     1.544574     1.533394     1.522215     1.511035     1.499856     1.488677     1.477497     1.466318
      1.455138     1.443959     1.432779     1.421600     1.410420     1.399241     1.388062     1.376882     1.365703     1.354523
      1.343344     1.332164     1.320985     1.309805     1.298626     1.287446     1.276267     1.265088     1.253908     1.242729
      1.231549     1.220370     1.209190     1.198011     1.186831     1.175652     1.164473     1.153293     1.142114     1.130934
      1.119755     1.108575     1.097396     1.086216     1.075037     1.063858     1.052678     1.041499     1.030319     1.019140
      1.007960     0.996781     0.985601     0.974422     0.963243     0.952063     0.940884     0.929704     0.918525     0.907345
      0.896166     0.884986     0.873807     0.862628     0.851448     0.840269     0.829089     0.817910     0.806730     0.795551
      0.784371     0.773192     0.762012     0.750833     0.739654     0.728474     0.717295     0.706115     0.694936     0.683756
      0.672577     0.661397     0.650218     0.639039     0.627859     0.616680     0.605500     0.594321     0.583141     0.571962
      0.560782     0.549603     0.538424     0.527244     0.516065     0.504885     0.493706     0.482526     0.471347     0.460167
      0.448988     0.437809     0.426629     0.415450     0.404270     0.393091     0.381911     0.370732     0.359552     0.348373
      0.337193     0.326014     0.314835     0.303655     0.292476     0.281296     0.270117     0.258937     0.247758     0.236578
      0.225399     0.214220     0.203040
 NY phased data points follow
   1.93539E-08  1.65463E-08  1.93937E-08  1.57204E-08  1.80226E-08  1.49771E-08  1.71645E-08  1.33377E-08  1.65868E-08  1.40612E-08
   1.70789E-08  1.39920E-08  1.69892E-08  1.43514E-08  1.74432E-08  1.54577E-08  1.80391E-08  1.49650E-08  1.73499E-08  1.47731E-08
   1.72065E-08  1.40930E-08  1.64223E-08  1.40471E-08  1.64441E-08  1.48117E-08  1.63889E-08  1.39075E-08  1.62937E-08  1.44390E-08
   1.62888E-08  1.50951E-08  1.74646E-08  1.59895E-08  1.79278E-08  1.56316E-08  1.72048E-08  1.47440E-08  1.59069E-08  1.41561E-08
   1.58794E-08  1.38363E-08  1.53719E-08  1.31774E-08  1.55107E-08  1.27831E-08  1.44349E-08  1.19778E-08  1.39204E-08  1.20036E-08
   1.33900E-08  1.16255E-08  1.29079E-08  1.15059E-08  1.26474E-08  1.11057E-08  1.22420E-08  1.01454E-08  1.17198E-08  1.02261E-08
   1.21467E-08  1.09060E-08  1.30650E-08  1.32379E-08  1.53777E-08  1.48404E-08  1.64496E-08  1.44512E-08  1.54306E-08  1.34719E-08
   1.47531E-08  1.25772E-08  1.28050E-08  1.11504E-08  1.15541E-08  9.64790E-09  1.11982E-08  9.85951E-09  1.23548E-08  1.20752E-08
   1.51213E-08  1.54137E-08  1.74839E-08  1.61915E-08  1.72269E-08  1.65512E-08  1.64621E-08  1.56683E-08  1.60920E-08  1.53197E-08
   1.56736E-08  1.46474E-08  1.57568E-08  1.41293E-08  1.47166E-08  1.31235E-08  1.42598E-08  1.22197E-08  1.32404E-08  1.16032E-08
   1.22688E-08  1.12362E-08  1.19673E-08  1.10927E-08  1.18471E-08  1.07195E-08  1.17279E-08  1.11485E-08  1.13873E-08  1.01391E-08
   1.05858E-08  9.29833E-09  1.04349E-08  9.19884E-09  9.99841E-09  9.22176E-09  1.03209E-08  9.55749E-09  1.04045E-08  9.22350E-09
   9.83984E-09  9.03004E-09  9.71224E-09  8.87928E-09  8.88539E-09  7.77515E-09  8.43908E-09  7.97423E-09  8.45455E-09  7.46708E-09
   7.99090E-09  8.31141E-09  9.07867E-09  8.08289E-09  9.18803E-09  9.07168E-09  9.59561E-09  8.84611E-09  9.14741E-09  9.00422E-09
   9.86560E-09  1.06114E-08  1.07779E-08  1.07537E-08  1.12854E-08  1.10573E-08  1.21620E-08  1.18714E-08  1.20644E-08  1.18177E-08
   1.27926E-08  1.23164E-08  1.23052E-08  1.22764E-08  1.23749E-08  1.19235E-08  1.21760E-08  1.19283E-08  1.26435E-08  1.20901E-08
   1.28379E-08  1.19002E-08  1.28172E-08  1.20098E-08  1.21926E-08  1.15065E-08  1.19239E-08  1.17351E-08  1.14091E-08  1.14030E-08
   1.22975E-08  1.44256E-08  1.74671E-08  1.93471E-08  1.96807E-08  1.93259E-08  1.95924E-08  1.91275E-08  1.79096E-08  1.63802E-08
   1.52985E-08  1.34823E-08  1.14111E-08  9.02685E-09  6.59805E-09  3.77179E-09  6.13978E-10 -2.37268E-09 -5.54807E-09 -7.95580E-09
  -1.12009E-08 -1.33455E-08 -1.46512E-08 -1.64521E-08 -1.67335E-08 -1.70764E-08 -1.69897E-08 -1.64460E-08 -1.44978E-08 -1.34202E-08
  -1.14255E-08 -9.40034E-09 -8.00104E-09 -6.51179E-09 -5.37952E-09 -4.81525E-09 -4.77523E-09 -4.19044E-09 -4.23230E-09 -3.95833E-09
  -4.64114E-09 -3.37981E-09 -4.04073E-09 -3.93884E-09 -3.70036E-09 -3.45291E-09 -3.44884E-09 -3.24574E-09 -3.35465E-09 -3.91378E-09
  -3.83720E-09 -4.02224E-09 -4.09083E-09 -3.30589E-09 -3.04654E-09 -2.69204E-09 -3.05459E-09 -2.87522E-09 -3.66862E-09 -3.30725E-09
  -3.86024E-09 -3.34969E-09 -3.81679E-09 -2.82862E-09 -3.29508E-09 -3.10329E-09 -3.77292E-09 -2.76570E-09 -3.20189E-09 -2.85772E-09
  -3.46851E-09 -3.10473E-09 -3.49468E-09 -3.16515E-09 -3.25606E-09 -3.16437E-09 -3.44790E-09 -2.91454E-09 -3.03880E-09 -2.85182E-09
  -3.74943E-09 -2.43503E-09 -3.14824E-09 -2.66983E-09 -3.08156E-09 -2.54481E-09 -2.99776E-09 -2.62526E-09 -3.71763E-09 -2.98197E-09
  -3.29400E-09 -2.86214E-09 -3.13326E-09 -3.49231E-09 -3.92164E-09 -3.74315E-09 -4.13198E-09 -4.11286E-09 -4.51733E-09 -3.46611E-09
  -4.72108E-09 -2.67356E-09 -3.68702E-09 -3.87431E-09 -3.47483E-09 -3.02397E-09 -3.39977E-09 -2.38678E-09 -2.85425E-09 -2.56365E-09
  -2.64781E-09 -2.61253E-09 -3.09291E-09 -2.36002E-09 -2.65702E-09 -2.91863E-09 -3.12798E-09 -2.32282E-09 -2.73484E-09 -2.19191E-09
  -3.07966E-09 -3.06600E-09 -3.34249E-09 -2.94672E-09 -3.29871E-09 -3.45060E-09 -3.69298E-09 -3.29233E-09 -3.34666E-09 -3.23242E-09
  -3.91337E-09 -3.49093E-09 -3.79077E-09 -3.80952E-09 -4.27640E-09 -3.41862E-09 -4.53506E-09 -3.84019E-09 -3.80015E-09 -4.33071E-09
  -5.02583E-09 -4.09657E-09 -4.64119E-09 -4.65659E-09 -4.91180E-09 -4.45209E-09 -5.19416E-09 -4.58611E-09 -4.88130E-09 -4.75952E-09
  -5.21862E-09 -4.89869E-09 -5.22251E-09 -4.74633E-09 -5.40033E-09 -5.34680E-09 -5.96430E-09 -4.64056E-09 -5.82477E-09 -5.76972E-09
  -5.80079E-09 -5.44990E-09 -5.74389E-09 -5.60999E-09 -6.30881E-09 -5.54442E-09 -6.54760E-09 -5.84693E-09 -6.08793E-09 -5.61095E-09
  -6.44709E-09 -5.84071E-09 -6.50203E-09 -5.82049E-09 -6.68243E-09 -6.21210E-09 -6.94347E-09 -6.39094E-09 -7.17586E-09 -6.26063E-09
  -6.87032E-09 -6.65648E-09 -7.15911E-09 -7.05978E-09 -6.97372E-09 -6.91603E-09 -7.16018E-09 -6.98793E-09 -7.73871E-09 -7.31023E-09
  -7.76382E-09 -7.08040E-09 -7.93512E-09
 NY points of the fit to the data follow
   1.82527E-08  1.75719E-08  1.71534E-08  1.68606E-08  1.66042E-08  1.60509E-08  1.54716E-08  1.50430E-08  1.48964E-08  1.50355E-08
   1.52707E-08  1.55761E-08  1.59916E-08  1.63902E-08  1.64566E-08  1.63552E-08  1.64336E-08  1.64870E-08  1.61990E-08  1.60034E-08
   1.60106E-08  1.59916E-08  1.57690E-08  1.55504E-08  1.49825E-08  1.45226E-08  1.46740E-08  1.49151E-08  1.52092E-08  1.58268E-08
   1.62182E-08  1.62655E-08  1.62661E-08  1.57674E-08  1.49850E-08  1.54591E-08  1.61023E-08  1.63862E-08  1.62585E-08  1.56953E-08
   1.50726E-08  1.47620E-08  1.40176E-08  1.28455E-08  1.27428E-08  1.30967E-08  1.25444E-08  1.22097E-08  1.26207E-08  1.32474E-08
   1.39124E-08  1.42516E-08  1.41861E-08  1.35999E-08  1.27126E-08  1.21064E-08  1.17814E-08  1.23295E-08  1.24880E-08  1.22491E-08
   1.23303E-08  1.27690E-08  1.34128E-08  1.39506E-08  1.46687E-08  1.55010E-08  1.57078E-08  1.57736E-08  1.60089E-08  1.62176E-08
   1.61304E-08  1.54783E-08  1.44387E-08  1.36196E-08  1.32960E-08  1.21877E-08  1.12849E-08  1.22483E-08  1.26950E-08  1.25963E-08
   1.30574E-08  1.36237E-08  1.41992E-08  1.49507E-08  1.54600E-08  1.54846E-08  1.51422E-08  1.41924E-08  1.31552E-08  1.33372E-08
   1.34334E-08  1.35323E-08  1.37693E-08  1.33933E-08  1.26518E-08  1.26418E-08  1.24110E-08  1.16445E-08  1.14020E-08  1.13685E-08
   1.12103E-08  1.11199E-08  1.11316E-08  1.12409E-08  1.13519E-08  1.14352E-08  1.14986E-08  1.15476E-08  1.15445E-08  1.14404E-08
   1.12570E-08  1.11285E-08  1.11044E-08  1.09276E-08  1.07393E-08  1.07123E-08  1.07148E-08  1.07225E-08  1.07293E-08  1.07336E-08
   1.07344E-08  1.07315E-08  1.07248E-08  1.07142E-08  1.06995E-08  1.06807E-08  1.06578E-08  1.06307E-08  1.05994E-08  1.05639E-08
   1.05240E-08  1.04798E-08  1.04312E-08  1.03781E-08  1.03205E-08  1.02584E-08  1.01917E-08  1.01203E-08  1.00441E-08  9.96329E-09
   9.87762E-09  9.78713E-09  9.69180E-09  9.59159E-09  9.48642E-09  9.37635E-09  9.26139E-09  9.14158E-09  9.01695E-09  8.88762E-09
   8.75362E-09  8.61517E-09  8.47251E-09  8.32586E-09  8.17570E-09  8.02252E-09  7.86725E-09  7.71109E-09  7.55599E-09  7.40450E-09
   7.26035E-09  7.12915E-09  7.02017E-09  6.95011E-09  6.95374E-09  7.12063E-09  7.78155E-09  1.01458E-08  1.25009E-08  1.38795E-08
   1.49938E-08  1.65111E-08  1.84125E-08  2.01817E-08  2.15847E-08  2.21831E-08  2.06340E-08  1.52954E-08  7.35815E-09  3.48205E-09
   2.31387E-09  1.71214E-09  1.29406E-09  9.54155E-10  6.53616E-10  3.75657E-10  1.11963E-10 -1.41791E-10 -3.87851E-10 -6.27559E-10
  -8.61627E-10 -1.09034E-09 -1.31390E-09 -1.53218E-09 -1.74518E-09 -1.95269E-09 -2.15452E-09 -2.35039E-09 -2.54014E-09 -2.72341E-09
  -2.89998E-09 -3.06956E-09 -3.23185E-09 -3.38660E-09 -3.53351E-09 -3.67230E-09 -3.80262E-09 -3.92432E-09 -4.03711E-09 -4.14123E-09
  -4.23689E-09 -4.32433E-09 -4.40378E-09 -4.47547E-09 -4.53963E-09 -4.59651E-09 -4.64632E-09 -4.68930E-09 -4.72570E-09 -4.75575E-09
  -4.77966E-09 -4.79770E-09 -4.81009E-09 -4.81708E-09 -4.81889E-09 -4.81577E-09 -4.80792E-09 -4.79565E-09 -4.77916E-09 -4.75865E-09
  -4.73440E-09 -4.70664E-09 -4.67559E-09 -4.64151E-09 -4.60461E-09 -4.56516E-09 -4.52336E-09 -4.47945E-09 -4.43366E-09 -4.38624E-09
  -4.33739E-09 -4.28736E-09 -4.23638E-09 -4.18468E-09 -4.13247E-09 -4.07998E-09 -4.02745E-09 -3.97510E-09 -3.92311E-09 -3.87172E-09
  -3.82118E-09 -3.77169E-09 -3.72345E-09 -3.67666E-09 -3.63159E-09 -3.58837E-09 -3.54726E-09 -3.50845E-09 -3.47215E-09 -3.43857E-09
  -3.40776E-09 -3.37971E-09 -3.35438E-09 -3.33172E-09 -3.31168E-09 -3.29424E-09 -3.27932E-09 -3.26691E-09 -3.25694E-09 -3.24939E-09
  -3.24420E-09 -3.24132E-09 -3.24072E-09 -3.24235E-09 -3.24615E-09 -3.25210E-09 -3.26013E-09 -3.27022E-09 -3.28230E-09 -3.29634E-09
  -3.31229E-09 -3.33011E-09 -3.34973E-09 -3.37113E-09 -3.39426E-09 -3.41908E-09 -3.44551E-09 -3.47354E-09 -3.50312E-09 -3.53420E-09
  -3.56673E-09 -3.60066E-09 -3.63594E-09 -3.67255E-09 -3.71041E-09 -3.74952E-09 -3.78978E-09 -3.83118E-09 -3.87366E-09 -3.91720E-09
  -3.96173E-09 -4.00719E-09 -4.05358E-09 -4.10081E-09 -4.14886E-09 -4.19769E-09 -4.24725E-09 -4.29747E-09 -4.34836E-09 -4.39982E-09
  -4.45184E-09 -4.50439E-09 -4.55738E-09 -4.61079E-09 -4.66457E-09 -4.71867E-09 -4.77306E-09 -4.82768E-09 -4.88250E-09 -4.93747E-09
  -4.99255E-09 -5.04768E-09 -5.10284E-09 -5.15798E-09 -5.21305E-09 -5.26802E-09 -5.32284E-09 -5.37747E-09 -5.43187E-09 -5.48600E-09
  -5.53983E-09 -5.59330E-09 -5.64639E-09 -5.69905E-09 -5.75125E-09 -5.80294E-09 -5.85410E-09 -5.90468E-09 -5.95465E-09 -6.00396E-09
  -6.05259E-09 -6.10051E-09 -6.14767E-09 -6.19404E-09 -6.23958E-09 -6.28427E-09 -6.32808E-09 -6.37097E-09 -6.41290E-09 -6.45385E-09
  -6.49379E-09 -6.53269E-09 -6.57052E-09 -6.60724E-09 -6.64283E-09 -6.67728E-09 -6.71054E-09 -6.74258E-09 -6.77339E-09 -6.80294E-09
  -6.83120E-09 -6.85815E-09 -6.88377E-09
 NY background values follow
     8.550E-09    8.599E-09    8.647E-09    8.694E-09    8.741E-09    8.787E-09    8.832E-09    8.877E-09    8.921E-09    8.965E-09
     9.008E-09    9.050E-09    9.092E-09    9.133E-09    9.174E-09    9.214E-09    9.253E-09    9.292E-09    9.331E-09    9.368E-09
     9.406E-09    9.442E-09    9.479E-09    9.514E-09    9.550E-09    9.584E-09    9.619E-09    9.652E-09    9.686E-09    9.719E-09
     9.751E-09    9.783E-09    9.815E-09    9.846E-09    9.877E-09    9.907E-09    9.938E-09    9.967E-09    9.997E-09    1.003E-08
     1.005E-08    1.008E-08    1.011E-08    1.014E-08    1.017E-08    1.019E-08    1.022E-08    1.025E-08    1.028E-08    1.030E-08
     1.033E-08    1.035E-08    1.038E-08    1.041E-08    1.043E-08    1.046E-08    1.048E-08    1.051E-08    1.053E-08    1.056E-08
     1.058E-08    1.061E-08    1.063E-08    1.065E-08    1.068E-08    1.070E-08    1.072E-08    1.074E-08    1.077E-08    1.079E-08
     1.081E-08    1.083E-08    1.085E-08    1.087E-08    1.089E-08    1.091E-08    1.093E-08    1.094E-08    1.096E-08    1.098E-08
     1.099E-08    1.101E-08    1.102E-08    1.104E-08    1.105E-08    1.106E-08    1.107E-08    1.108E-08    1.109E-08    1.110E-08
     1.111E-08    1.112E-08    1.113E-08    1.113E-08    1.114E-08    1.114E-08    1.114E-08    1.115E-08    1.115E-08    1.115E-08
     1.115E-08    1.114E-08    1.114E-08    1.114E-08    1.113E-08    1.112E-08    1.111E-08    1.110E-08    1.109E-08    1.108E-08
     1.107E-08    1.105E-08    1.103E-08    1.101E-08    1.099E-08    1.096E-08    1.094E-08    1.091E-08    1.087E-08    1.084E-08
     1.080E-08    1.076E-08    1.072E-08    1.067E-08    1.063E-08    1.057E-08    1.052E-08    1.046E-08    1.040E-08    1.033E-08
     1.026E-08    1.019E-08    1.011E-08    1.003E-08    9.945E-09    9.856E-09    9.762E-09    9.664E-09    9.561E-09    9.454E-09
     9.342E-09    9.225E-09    9.103E-09    8.976E-09    8.845E-09    8.707E-09    8.565E-09    8.417E-09    8.264E-09    8.105E-09
     7.940E-09    7.769E-09    7.593E-09    7.411E-09    7.222E-09    7.027E-09    6.826E-09    6.619E-09    6.406E-09    6.188E-09
     5.964E-09    5.736E-09    5.503E-09    5.265E-09    5.024E-09    4.778E-09    4.530E-09    4.278E-09    4.023E-09    3.766E-09
     3.506E-09    3.244E-09    2.981E-09    2.717E-09    2.451E-09    2.184E-09    1.918E-09    1.651E-09    1.384E-09    1.118E-09
     8.522E-10    5.878E-10    3.248E-10    6.349E-11   -1.958E-10   -4.527E-10   -7.070E-10   -9.584E-10   -1.207E-09   -1.451E-09
    -1.692E-09   -1.928E-09   -2.160E-09   -2.388E-09   -2.610E-09   -2.827E-09   -3.038E-09   -3.243E-09   -3.442E-09   -3.634E-09
    -3.820E-09   -3.998E-09   -4.169E-09   -4.332E-09   -4.487E-09   -4.634E-09   -4.772E-09   -4.902E-09   -5.022E-09   -5.133E-09
    -5.236E-09   -5.330E-09   -5.416E-09   -5.495E-09   -5.565E-09   -5.628E-09   -5.684E-09   -5.733E-09   -5.775E-09   -5.811E-09
    -5.841E-09   -5.864E-09   -5.882E-09   -5.894E-09   -5.900E-09   -5.902E-09   -5.899E-09   -5.891E-09   -5.879E-09   -5.863E-09
    -5.843E-09   -5.819E-09   -5.792E-09   -5.762E-09   -5.729E-09   -5.693E-09   -5.655E-09   -5.614E-09   -5.572E-09   -5.528E-09
    -5.482E-09   -5.435E-09   -5.387E-09   -5.338E-09   -5.289E-09   -5.239E-09   -5.189E-09   -5.139E-09   -5.089E-09   -5.040E-09
    -4.992E-09   -4.944E-09   -4.898E-09   -4.853E-09   -4.810E-09   -4.769E-09   -4.729E-09   -4.692E-09   -4.657E-09   -4.625E-09
    -4.596E-09   -4.569E-09   -4.545E-09   -4.523E-09   -4.505E-09   -4.488E-09   -4.474E-09   -4.463E-09   -4.453E-09   -4.447E-09
    -4.442E-09   -4.440E-09   -4.440E-09   -4.442E-09   -4.446E-09   -4.452E-09   -4.461E-09   -4.471E-09   -4.483E-09   -4.497E-09
    -4.513E-09   -4.531E-09   -4.550E-09   -4.572E-09   -4.594E-09   -4.619E-09   -4.645E-09   -4.673E-09   -4.702E-09   -4.732E-09
    -4.764E-09   -4.797E-09   -4.832E-09   -4.868E-09   -4.905E-09   -4.943E-09   -4.982E-09   -5.023E-09   -5.064E-09   -5.107E-09
    -5.150E-09   -5.194E-09   -5.239E-09   -5.285E-09   -5.332E-09   -5.379E-09   -5.427E-09   -5.476E-09   -5.525E-09   -5.575E-09
    -5.626E-09   -5.676E-09   -5.728E-09   -5.779E-09   -5.831E-09   -5.883E-09   -5.936E-09   -5.988E-09   -6.041E-09   -6.094E-09
    -6.147E-09   -6.200E-09   -6.253E-09   -6.305E-09   -6.358E-09   -6.411E-09   -6.463E-09   -6.515E-09   -6.567E-09   -6.619E-09
    -6.670E-09   -6.721E-09   -6.771E-09   -6.821E-09   -6.871E-09   -6.920E-09   -6.968E-09   -7.016E-09   -7.063E-09   -7.109E-09
    -7.155E-09   -7.199E-09   -7.244E-09   -7.287E-09   -7.329E-09   -7.371E-09   -7.411E-09   -7.451E-09   -7.490E-09   -7.527E-09
    -7.564E-09   -7.599E-09   -7.634E-09   -7.667E-09   -7.699E-09   -7.730E-09   -7.759E-09   -7.788E-09   -7.815E-09   -7.841E-09
    -7.865E-09   -7.889E-09   -7.910E-09
 Ala      Conc. = 2.16E-10
   8.73762E-09  8.78037E-09  8.81980E-09  8.85758E-09  8.89420E-09  8.92595E-09  8.93819E-09  8.95134E-09  8.99707E-09  9.01833E-09
   9.01734E-09  9.05831E-09  9.10040E-09  9.12661E-09  9.16373E-09  9.20572E-09  9.24831E-09  9.29047E-09  9.33198E-09  9.37270E-09
   9.41268E-09  9.45193E-09  9.49046E-09  9.52831E-09  9.56553E-09  9.60212E-09  9.63812E-09  9.67356E-09  9.70846E-09  9.74282E-09
   9.77665E-09  9.81005E-09  9.84295E-09  9.87541E-09  9.90743E-09  9.93905E-09  9.97027E-09  1.00011E-08  1.00315E-08  1.00617E-08
   1.00914E-08  1.01209E-08  1.01500E-08  1.01789E-08  1.02075E-08  1.02358E-08  1.02639E-08  1.02917E-08  1.03194E-08  1.03469E-08
   1.03741E-08  1.04012E-08  1.04281E-08  1.04549E-08  1.04816E-08  1.05081E-08  1.05344E-08  1.05605E-08  1.05864E-08  1.06121E-08
   1.06376E-08  1.06629E-08  1.06879E-08  1.07126E-08  1.07371E-08  1.07613E-08  1.07851E-08  1.08087E-08  1.08319E-08  1.08548E-08
   1.08773E-08  1.08995E-08  1.09213E-08  1.09427E-08  1.09637E-08  1.09842E-08  1.10044E-08  1.10242E-08  1.10434E-08  1.10623E-08
   1.10807E-08  1.10987E-08  1.11162E-08  1.11334E-08  1.11501E-08  1.11665E-08  1.11825E-08  1.11982E-08  1.12138E-08  1.12292E-08
   1.12446E-08  1.12603E-08  1.12763E-08  1.12933E-08  1.13118E-08  1.13326E-08  1.13573E-08  1.13891E-08  1.14345E-08  1.15123E-08
   1.16156E-08  1.16673E-08  1.17287E-08  1.18457E-08  1.19429E-08  1.20009E-08  1.20328E-08  1.20461E-08  1.20049E-08  1.18612E-08
   1.16377E-08  1.14698E-08  1.14070E-08  1.11922E-08  1.09665E-08  1.09026E-08  1.08686E-08  1.08406E-08  1.08127E-08  1.07831E-08
   1.07508E-08  1.07155E-08  1.06771E-08  1.06354E-08  1.05902E-08  1.05417E-08  1.04895E-08  1.04338E-08  1.03743E-08  1.03110E-08
   1.02439E-08  1.01728E-08  1.00977E-08  1.00185E-08  9.93507E-09  9.84731E-09  9.75516E-09  9.65852E-09  9.55730E-09  9.45143E-09
   9.34075E-09  9.22520E-09  9.10471E-09  8.97917E-09  8.84844E-09  8.71247E-09  8.57116E-09  8.42442E-09  8.27213E-09  8.11426E-09
   7.95062E-09  7.78120E-09  7.60592E-09  7.42461E-09  7.23726E-09  7.04372E-09  6.84410E-09  6.63846E-09  6.42722E-09  6.21068E-09
   5.98925E-09  5.76335E-09  5.53355E-09  5.30062E-09  5.06600E-09  4.83327E-09  4.61710E-09  4.44231E-09  4.24527E-09  4.02261E-09
   3.79950E-09  3.58768E-09  3.38107E-09  3.16590E-09  2.93906E-09  2.68362E-09  2.35798E-09  1.92950E-09  1.47294E-09  1.16217E-09
   8.82637E-10  6.12224E-10  3.46230E-10  8.33613E-11 -1.76811E-10 -4.34180E-10 -6.88689E-10 -9.40151E-10 -1.18822E-09 -1.43267E-09
  -1.67324E-09 -1.90959E-09 -2.14149E-09 -2.36855E-09 -2.59057E-09 -2.80720E-09 -3.01816E-09 -3.22312E-09 -3.42185E-09 -3.61398E-09
  -3.79926E-09 -3.97738E-09 -4.14804E-09 -4.31098E-09 -4.46589E-09 -4.61250E-09 -4.75046E-09 -4.87961E-09 -4.99968E-09 -5.11090E-09
  -5.21348E-09 -5.30768E-09 -5.39371E-09 -5.47182E-09 -5.54224E-09 -5.60522E-09 -5.66098E-09 -5.70976E-09 -5.75181E-09 -5.78736E-09
  -5.81664E-09 -5.83991E-09 -5.85740E-09 -5.86935E-09 -5.87599E-09 -5.87758E-09 -5.87432E-09 -5.86650E-09 -5.85435E-09 -5.83807E-09
  -5.81793E-09 -5.79417E-09 -5.76700E-09 -5.73670E-09 -5.70347E-09 -5.66757E-09 -5.62924E-09 -5.58868E-09 -5.54615E-09 -5.50188E-09
  -5.45610E-09 -5.40903E-09 -5.36092E-09 -5.31199E-09 -5.26246E-09 -5.21257E-09 -5.16254E-09 -5.11261E-09 -5.06295E-09 -5.01380E-09
  -4.96542E-09 -4.91800E-09 -4.87175E-09 -4.82687E-09 -4.78362E-09 -4.74215E-09 -4.70272E-09 -4.66550E-09 -4.63071E-09 -4.59857E-09
  -4.56912E-09 -4.54236E-09 -4.51824E-09 -4.49672E-09 -4.47775E-09 -4.46130E-09 -4.44731E-09 -4.43576E-09 -4.42657E-09 -4.41973E-09
  -4.41519E-09 -4.41290E-09 -4.41282E-09 -4.41489E-09 -4.41907E-09 -4.42534E-09 -4.43363E-09 -4.44390E-09 -4.45611E-09 -4.47022E-09
  -4.48616E-09 -4.50392E-09 -4.52342E-09 -4.54464E-09 -4.56753E-09 -4.59205E-09 -4.61812E-09 -4.64573E-09 -4.67484E-09 -4.70538E-09
  -4.73732E-09 -4.77060E-09 -4.80517E-09 -4.84103E-09 -4.87808E-09 -4.91631E-09 -4.95566E-09 -4.99608E-09 -5.03753E-09 -5.07998E-09
  -5.12338E-09 -5.16764E-09 -5.21279E-09 -5.25873E-09 -5.30544E-09 -5.35288E-09 -5.40100E-09 -5.44973E-09 -5.49907E-09 -5.54894E-09
  -5.59932E-09 -5.65018E-09 -5.70144E-09 -5.75306E-09 -5.80501E-09 -5.85724E-09 -5.90970E-09 -5.96235E-09 -6.01515E-09 -6.06806E-09
  -6.12103E-09 -6.17402E-09 -6.22698E-09 -6.27988E-09 -6.33267E-09 -6.38531E-09 -6.43776E-09 -6.48998E-09 -6.54193E-09 -6.59356E-09
  -6.64485E-09 -6.69575E-09 -6.74621E-09 -6.79622E-09 -6.84571E-09 -6.89466E-09 -6.94304E-09 -6.99080E-09 -7.03790E-09 -7.08432E-09
  -7.13002E-09 -7.17496E-09 -7.21910E-09 -7.26242E-09 -7.30488E-09 -7.34645E-09 -7.38709E-09 -7.42678E-09 -7.46548E-09 -7.50317E-09
  -7.53980E-09 -7.57536E-09 -7.60981E-09 -7.64313E-09 -7.67528E-09 -7.70624E-09 -7.73599E-09 -7.76449E-09 -7.79172E-09 -7.81766E-09
  -7.84228E-09 -7.86556E-09 -7.88747E-09
 Asp      Conc. = 2.70E-09
   1.04813E-08  9.91475E-09  9.51766E-09  9.20669E-09  8.95061E-09  8.58764E-09  8.38932E-09  8.22799E-09  8.36810E-09  8.53198E-09
   8.68552E-09  8.82687E-09  8.95878E-09  9.08254E-09  9.19538E-09  9.29883E-09  9.39687E-09  9.49078E-09  9.58149E-09  9.66969E-09
   9.75604E-09  9.84112E-09  9.92543E-09  1.00095E-08  1.00939E-08  1.01792E-08  1.02660E-08  1.03549E-08  1.04468E-08  1.05426E-08
   1.06436E-08  1.07516E-08  1.08685E-08  1.09979E-08  1.11447E-08  1.13176E-08  1.15306E-08  1.17291E-08  1.19316E-08  1.20798E-08
   1.22157E-08  1.23962E-08  1.26505E-08  1.30120E-08  1.32932E-08  1.36035E-08  1.35908E-08  1.34495E-08  1.36170E-08  1.39563E-08
   1.43372E-08  1.44347E-08  1.41657E-08  1.34078E-08  1.23122E-08  1.14390E-08  1.07791E-08  1.10351E-08  1.09601E-08  1.05104E-08
   1.02971E-08  1.03202E-08  1.03045E-08  1.03902E-08  1.05750E-08  1.05479E-08  1.03016E-08  1.02356E-08  1.02423E-08  1.02727E-08
   1.03123E-08  1.03553E-08  1.03992E-08  1.04428E-08  1.04855E-08  1.05269E-08  1.05669E-08  1.06055E-08  1.06425E-08  1.06780E-08
   1.07119E-08  1.07445E-08  1.07755E-08  1.08051E-08  1.08334E-08  1.08602E-08  1.08857E-08  1.09098E-08  1.09326E-08  1.09541E-08
   1.09743E-08  1.09932E-08  1.10107E-08  1.10269E-08  1.10419E-08  1.10555E-08  1.10679E-08  1.10789E-08  1.10886E-08  1.10969E-08
   1.11040E-08  1.11097E-08  1.11139E-08  1.11169E-08  1.11184E-08  1.11185E-08  1.11170E-08  1.11140E-08  1.11092E-08  1.11027E-08
   1.10943E-08  1.10840E-08  1.10717E-08  1.10572E-08  1.10405E-08  1.10215E-08  1.10001E-08  1.09762E-08  1.09497E-08  1.09206E-08
   1.08887E-08  1.08539E-08  1.08162E-08  1.07754E-08  1.07314E-08  1.06843E-08  1.06338E-08  1.05799E-08  1.05224E-08  1.04613E-08
   1.03965E-08  1.03279E-08  1.02554E-08  1.01788E-08  1.00982E-08  1.00134E-08  9.92428E-09  9.83080E-09  9.73286E-09  9.63039E-09
   9.52325E-09  9.41137E-09  9.29471E-09  9.17316E-09  9.04661E-09  8.91502E-09  8.77833E-09  8.63646E-09  8.48935E-09  8.33700E-09
   8.17928E-09  8.01626E-09  7.84792E-09  7.67423E-09  7.49530E-09  7.31117E-09  7.12216E-09  6.92868E-09  6.73155E-09  6.53171E-09
   6.33049E-09  6.12971E-09  5.93226E-09  5.74308E-09  5.57194E-09  5.44240E-09  5.43295E-09  5.91908E-09  6.48711E-09  6.75463E-09
   6.90413E-09  7.15999E-09  7.54181E-09  7.90035E-09  8.15190E-09  8.18778E-09  7.63701E-09  5.97659E-09  3.39118E-09  1.82080E-09
   1.24189E-09  8.62973E-10  5.47698E-10  2.59742E-10 -1.39105E-11 -2.78587E-10 -5.36885E-10 -7.90027E-10 -1.03847E-09 -1.28247E-09
  -1.52206E-09 -1.75709E-09 -1.98746E-09 -2.21284E-09 -2.43311E-09 -2.64796E-09 -2.85713E-09 -3.06029E-09 -3.25725E-09 -3.44764E-09
  -3.63120E-09 -3.80765E-09 -3.97668E-09 -4.13803E-09 -4.29139E-09 -4.43649E-09 -4.57299E-09 -4.70072E-09 -4.81940E-09 -4.92927E-09
  -5.03055E-09 -5.12348E-09 -5.20828E-09 -5.28520E-09 -5.35446E-09 -5.41631E-09 -5.47098E-09 -5.51869E-09 -5.55971E-09 -5.59427E-09
  -5.62257E-09 -5.64490E-09 -5.66147E-09 -5.67253E-09 -5.67831E-09 -5.67906E-09 -5.67498E-09 -5.66638E-09 -5.65346E-09 -5.63644E-09
  -5.61558E-09 -5.59112E-09 -5.56328E-09 -5.53232E-09 -5.49846E-09 -5.46195E-09 -5.42302E-09 -5.38189E-09 -5.33880E-09 -5.29400E-09
