 LCModel (Version 6.3-1R) Copyright: S.W. Provencher.          Ref.: Magn. Reson. Med. 30:672-679 (1993).                
 onepulse 20x6_ftSpec_smooth_lcm
 26 lines in following concentration table = NCONC+1
    Conc.  %SD /Cr+PCr  Metabolite                                         
    0.000 999%   0.000 Ala                                                 
 1.00E-09  68%   6.951 Asp                                                 
    0.000 999%   0.000 Cr                                                  
 6.23E-10 116%   4.326 GABA                                                
 3.86E-10 221%   2.682 Glc                                                 
 2.07E-09  35%  14.352 Gln                                                 
    0.000 999%   0.000 Glu                                                 
    0.000 999%   0.000 Glyc                                                
    0.000 999%   0.000 GPC                                                 
 1.22E-09  42%   8.491 GSH                                                 
 2.24E-09  22%  15.584 Ins                                                 
    0.000 999%   0.000 Lac                                                 
 2.04E-10 171%   1.417 NAAG                                                
 3.41E-10 144%   2.366 NAA                                                 
    0.000 999%   0.000 PCh                                                 
 1.44E-10 248%   1.000 PCr                                                 
 2.68E-09  21%  18.598 PE                                                  
 3.92E-10  52%   2.726 Scyllo                                              
    0.000 999%   0.000 Ser                                                 
    0.000 999%   0.000 Tau                                                 
    0.000 999%   0.000 GPC+PCh                                             
 5.45E-10  54%   3.784 NAA+NAAG                                            
 2.24E-09  22%  15.584 Ins+Glyc                                            
 1.44E-10 248%   1.000 Cr+PCr                                              
 2.07E-09  35%  14.352 Glu+Gln                                             
   6 lines in following misc. output table
  FWHM = 0.112 ppm    S/N =   4                                            
  Data shift = 0.402 ppm                                                   
  Ph:  -9 deg     -50.1 deg/ppm                                            
  alphaB,S = 1.8E-01,   1.2E+01                                            
   12 spline knots.   Ns = 5(1)                                            
  (12) 5 infls.   (11) 3 extrs.                                            
  363 points on ppm-axis = NY
      4.250000     4.238821     4.227641     4.216462     4.205282     4.194103     4.182923     4.171744     4.160564     4.149385
      4.138206     4.127026     4.115847     4.104667     4.093488     4.082308     4.071129     4.059949     4.048770     4.037591
      4.026411     4.015232     4.004052     3.992873     3.981693     3.970514     3.959334     3.948155     3.936975     3.925796
      3.914617     3.903437     3.892258     3.881078     3.869899     3.858719     3.847540     3.836360     3.825181     3.814002
      3.802822     3.791643     3.780463     3.769284     3.758104     3.746925     3.735745     3.724566     3.713387     3.702207
      3.691028     3.679848     3.668669     3.657489     3.646310     3.635130     3.623951     3.612772     3.601592     3.590413
      3.579233     3.568054     3.556874     3.545695     3.534515     3.523336     3.512156     3.500977     3.489798     3.478618
      3.467439     3.456259     3.445080     3.433900     3.422721     3.411541     3.400362     3.389183     3.378003     3.366824
      3.355644     3.344465     3.333285     3.322106     3.310926     3.299747     3.288568     3.277388     3.266209     3.255029
      3.243850     3.232670     3.221491     3.210311     3.199132     3.187953     3.176773     3.165594     3.154414     3.143235
      3.132055     3.120876     3.109696     3.098517     3.087337     3.076158     3.064979     3.053799     3.042620     3.031440
      3.020261     3.009081     2.997902     2.986722     2.975543     2.964364     2.953184     2.942005     2.930825     2.919646
      2.908466     2.897287     2.886107     2.874928     2.863749     2.852569     2.841390     2.830210     2.819031     2.807851
      2.796672     2.785492     2.774313     2.763134     2.751954     2.740775     2.729595     2.718416     2.707236     2.696057
      2.684877     2.673698     2.662519     2.651339     2.640160     2.628980     2.617801     2.606621     2.595442     2.584262
      2.573083     2.561903     2.550724     2.539545     2.528365     2.517186     2.506006     2.494827     2.483647     2.472468
      2.461288     2.450109     2.438930     2.427750     2.416571     2.405391     2.394212     2.383032     2.371853     2.360673
      2.349494     2.338315     2.327135     2.315956     2.304776     2.293597     2.282417     2.271238     2.260058     2.248879
      2.237700     2.226520     2.215341     2.204161     2.192982     2.181802     2.170623     2.159443     2.148264     2.137084
      2.125905     2.114726     2.103546     2.092367     2.081187     2.070008     2.058828     2.047649     2.036469     2.025290
      2.014111     2.002931     1.991752     1.980572     1.969393     1.958213     1.947034     1.935854     1.924675     1.913496
      1.902316     1.891137     1.879957     1.868778     1.857598     1.846419     1.835239     1.824060     1.812881     1.801701
      1.790522     1.779342     1.768163     1.756983     1.745804     1.734624     1.723445     1.712265     1.701086     1.689907
      1.678727     1.667548     1.656368     1.645189     1.634009     1.622830     1.611650     1.600471     1.589292     1.578112
      1.566933     1.555753     1.544574     1.533394     1.522215     1.511035     1.499856     1.488677     1.477497     1.466318
      1.455138     1.443959     1.432779     1.421600     1.410420     1.399241     1.388062     1.376882     1.365703     1.354523
      1.343344     1.332164     1.320985     1.309805     1.298626     1.287446     1.276267     1.265088     1.253908     1.242729
      1.231549     1.220370     1.209190     1.198011     1.186831     1.175652     1.164473     1.153293     1.142114     1.130934
      1.119755     1.108575     1.097396     1.086216     1.075037     1.063858     1.052678     1.041499     1.030319     1.019140
      1.007960     0.996781     0.985601     0.974422     0.963243     0.952063     0.940884     0.929704     0.918525     0.907345
      0.896166     0.884986     0.873807     0.862628     0.851448     0.840269     0.829089     0.817910     0.806730     0.795551
      0.784371     0.773192     0.762012     0.750833     0.739654     0.728474     0.717295     0.706115     0.694936     0.683756
      0.672577     0.661397     0.650218     0.639039     0.627859     0.616680     0.605500     0.594321     0.583141     0.571962
      0.560782     0.549603     0.538424     0.527244     0.516065     0.504885     0.493706     0.482526     0.471347     0.460167
      0.448988     0.437809     0.426629     0.415450     0.404270     0.393091     0.381911     0.370732     0.359552     0.348373
      0.337193     0.326014     0.314835     0.303655     0.292476     0.281296     0.270117     0.258937     0.247758     0.236578
      0.225399     0.214220     0.203040
 NY phased data points follow
   1.36151E-08  1.50155E-08  1.22433E-08  1.51399E-08  1.31908E-08  1.57544E-08  1.32583E-08  1.60096E-08  1.37856E-08  1.66949E-08
   1.49894E-08  1.69138E-08  1.39943E-08  1.59039E-08  1.36150E-08  1.59375E-08  1.30442E-08  1.54042E-08  1.33179E-08  1.56210E-08
   1.38936E-08  1.54178E-08  1.32894E-08  1.57558E-08  1.37763E-08  1.58800E-08  1.50180E-08  1.69171E-08  1.57272E-08  1.70809E-08
   1.48914E-08  1.61216E-08  1.36217E-08  1.46060E-08  1.29963E-08  1.46341E-08  1.26389E-08  1.39564E-08  1.19711E-08  1.40672E-08
   1.15146E-08  1.28936E-08  1.06503E-08  1.27100E-08  1.08087E-08  1.21404E-08  1.04984E-08  1.18704E-08  1.04509E-08  1.16821E-08
   1.02755E-08  1.11987E-08  9.27766E-09  1.09228E-08  9.76999E-09  1.19281E-08  1.09401E-08  1.35161E-08  1.39372E-08  1.58928E-08
   1.50981E-08  1.66801E-08  1.44514E-08  1.52632E-08  1.31617E-08  1.41517E-08  1.21898E-08  1.20810E-08  1.02726E-08  1.07516E-08
   9.27365E-09  1.09114E-08  9.74588E-09  1.24689E-08  1.24327E-08  1.59255E-08  1.65018E-08  1.84607E-08  1.69862E-08  1.79344E-08
   1.71311E-08  1.71483E-08  1.61367E-08  1.65489E-08  1.55993E-08  1.61900E-08  1.47407E-08  1.60881E-08  1.44889E-08  1.48349E-08
   1.33024E-08  1.44441E-08  1.23389E-08  1.31087E-08  1.17799E-08  1.23452E-08  1.12418E-08  1.20903E-08  1.12701E-08  1.19577E-08
   1.09643E-08  1.18200E-08  1.11059E-08  1.13191E-08  1.02894E-08  1.07708E-08  9.26884E-09  1.01749E-08  9.07073E-09  9.98035E-09
   9.21729E-09  1.03087E-08  9.66262E-09  1.06859E-08  9.71285E-09  1.02669E-08  9.48439E-09  9.95114E-09  9.47155E-09  9.23226E-09
   8.35829E-09  8.61457E-09  8.21210E-09  8.47887E-09  7.84942E-09  7.86221E-09  8.32145E-09  9.12659E-09  8.08185E-09  9.00423E-09
   9.04940E-09  9.51810E-09  8.84062E-09  8.87187E-09  9.16138E-09  9.20823E-09  1.04876E-08  1.08027E-08  1.10129E-08  1.13942E-08
   1.13720E-08  1.21874E-08  1.23501E-08  1.22856E-08  1.23107E-08  1.31017E-08  1.29952E-08  1.28108E-08  1.29160E-08  1.29782E-08
   1.25831E-08  1.28574E-08  1.25471E-08  1.30813E-08  1.26777E-08  1.31845E-08  1.25923E-08  1.33081E-08  1.29825E-08  1.27581E-08
   1.24194E-08  1.18709E-08  1.24645E-08  1.16255E-08  1.15404E-08  1.14735E-08  1.36628E-08  1.68352E-08  2.02671E-08  2.15756E-08
   2.28012E-08  2.33876E-08  2.46119E-08  2.42690E-08  2.37897E-08  2.31840E-08  2.29926E-08  2.16892E-08  2.06386E-08  1.87442E-08
   1.75206E-08  1.46244E-08  1.25404E-08  9.40580E-09  7.27979E-09  3.39681E-09  8.22428E-10 -1.48164E-09 -3.94899E-09 -6.21224E-09
  -7.55848E-09 -9.25318E-09 -1.01372E-08 -1.07082E-08 -1.02302E-08 -1.02218E-08 -8.71830E-09 -8.16490E-09 -6.82925E-09 -6.11605E-09
  -4.43975E-09 -4.88431E-09 -3.35729E-09 -3.38840E-09 -2.20491E-09 -3.00361E-09 -1.26231E-09 -1.87755E-09 -1.74843E-09 -1.93737E-09
  -1.36235E-09 -1.74845E-09 -1.04154E-09 -1.31231E-09 -1.30602E-09 -1.66385E-09 -1.08814E-09 -2.14273E-09 -9.87982E-10 -1.30099E-09
  -3.49917E-10 -1.02666E-09 -3.95579E-10 -1.45770E-09 -6.54587E-10 -1.50599E-09 -6.84900E-10 -1.83272E-09 -3.46012E-10 -9.42898E-10
  -4.59760E-10 -1.55728E-09 -6.58845E-10 -1.02370E-09 -3.36230E-10 -1.13985E-09 -4.94212E-10 -1.06443E-09 -7.99410E-10 -1.12363E-09
  -6.34621E-10 -1.65353E-09 -8.54622E-10 -1.18185E-09 -4.52008E-10 -1.92943E-09 -5.42370E-10 -9.05120E-10 -3.15856E-10 -9.92253E-10
   4.21621E-11 -4.71399E-10  3.66869E-10 -6.87509E-10 -8.04728E-11 -3.05969E-10 -1.03977E-10 -3.09872E-10  1.53656E-10 -8.03125E-10
  -4.05571E-10 -1.25602E-09 -6.43114E-10 -2.19217E-09 -6.84802E-10 -2.31785E-09 -1.02119E-09 -9.72697E-10 -1.60971E-09 -1.62045E-09
  -8.75871E-10 -1.57246E-09 -6.83692E-10 -5.86577E-10 -2.21160E-10 -2.34112E-10  3.37424E-10 -4.72147E-10  1.89661E-10  3.50136E-10
   6.71955E-10 -3.50963E-10  4.99978E-10  3.29410E-10  1.40954E-09  1.00499E-09  9.28565E-10  4.00355E-10  9.44508E-10  8.68609E-10
   1.09528E-09  3.65438E-10  9.31471E-10  5.69402E-10  1.38467E-09  7.09925E-10  1.23097E-09  8.32100E-10  1.38309E-09  1.63162E-10
   1.52607E-09  9.37875E-10  9.92471E-10  1.19902E-09  1.69611E-09  4.28360E-10  1.19974E-09  9.93245E-10  1.07933E-09  4.91064E-10
   1.26024E-09  3.89351E-10  1.15268E-09  6.71127E-10  1.37399E-09  5.79616E-10  1.10676E-09  6.41606E-10  1.66092E-09  7.54406E-10
   1.49451E-09  1.43196E-10  1.30281E-09  1.16214E-09  8.32914E-10  5.21672E-10  1.25836E-09  7.70676E-10  1.50692E-09  4.76825E-10
   1.37224E-09  6.16507E-10  8.27447E-10  6.65161E-10  1.39614E-09  7.64342E-10  1.46185E-09  7.31414E-10  1.32009E-09  9.22942E-10
   1.39600E-09  8.58959E-10  1.52820E-09  7.37663E-10  9.87497E-10  9.24003E-10  1.26504E-09  1.08768E-09  1.18460E-09  7.64512E-10
   1.43175E-09  7.16341E-10  1.51516E-09  7.19359E-10  1.12181E-09  4.70114E-10  1.18144E-09  7.13251E-10  9.99230E-10  4.88685E-10
   1.01505E-09  1.57501E-10  1.00029E-09
 NY points of the fit to the data follow
   1.40837E-08  1.41569E-08  1.38701E-08  1.38717E-08  1.36931E-08  1.43043E-08  1.47245E-08  1.48346E-08  1.58754E-08  1.67101E-08
   1.52543E-08  1.49609E-08  1.45983E-08  1.44982E-08  1.52473E-08  1.53984E-08  1.40154E-08  1.45200E-08  1.62225E-08  1.55037E-08
   1.33826E-08  1.26197E-08  1.36008E-08  1.43436E-08  1.47192E-08  1.51622E-08  1.63592E-08  1.74076E-08  1.68432E-08  1.53482E-08
   1.52264E-08  1.56452E-08  1.55432E-08  1.43552E-08  1.41616E-08  1.36248E-08  1.33903E-08  1.26515E-08  1.25073E-08  1.24080E-08
   1.21637E-08  1.22617E-08  1.21556E-08  1.17026E-08  1.15296E-08  1.09162E-08  1.08014E-08  1.01823E-08  9.69708E-09  9.66944E-09
   9.98054E-09  1.04414E-08  1.08725E-08  1.12996E-08  1.19529E-08  1.24959E-08  1.25315E-08  1.32955E-08  1.42815E-08  1.45620E-08
   1.46735E-08  1.46475E-08  1.45920E-08  1.47607E-08  1.45370E-08  1.36993E-08  1.32127E-08  1.32816E-08  1.25251E-08  1.17862E-08
   1.19834E-08  1.23576E-08  1.24950E-08  1.27460E-08  1.35100E-08  1.43116E-08  1.49351E-08  1.61591E-08  1.70046E-08  1.75271E-08
   1.77644E-08  1.76433E-08  1.74178E-08  1.69415E-08  1.66451E-08  1.61456E-08  1.53281E-08  1.45164E-08  1.29191E-08  1.21737E-08
   1.17730E-08  1.14917E-08  1.14690E-08  1.13617E-08  1.10335E-08  1.10111E-08  1.09832E-08  1.07524E-08  1.06715E-08  1.06200E-08
   1.05353E-08  1.04878E-08  1.04564E-08  1.04332E-08  1.04203E-08  1.04153E-08  1.04158E-08  1.04206E-08  1.04286E-08  1.04393E-08
   1.04524E-08  1.04673E-08  1.04838E-08  1.05016E-08  1.05206E-08  1.05408E-08  1.05619E-08  1.05840E-08  1.06068E-08  1.06304E-08
   1.06547E-08  1.06797E-08  1.07052E-08  1.07309E-08  1.07566E-08  1.07818E-08  1.08064E-08  1.08298E-08  1.08519E-08  1.08724E-08
   1.08909E-08  1.09071E-08  1.09209E-08  1.09317E-08  1.09395E-08  1.09438E-08  1.09445E-08  1.09412E-08  1.09336E-08  1.09215E-08
   1.09046E-08  1.08826E-08  1.08554E-08  1.08225E-08  1.07838E-08  1.07390E-08  1.06879E-08  1.06302E-08  1.05659E-08  1.04946E-08
   1.04163E-08  1.03308E-08  1.02381E-08  1.01382E-08  1.00311E-08  9.91718E-09  9.79685E-09  9.67089E-09  9.54058E-09  9.40804E-09
   9.27688E-09  9.15323E-09  9.04892E-09  8.98842E-09  9.02850E-09  9.33565E-09  1.06330E-08  1.59563E-08  2.04747E-08  2.24717E-08
   2.33894E-08  2.41190E-08  2.47405E-08  2.45546E-08  2.38764E-08  2.36196E-08  2.45318E-08  2.35833E-08  1.34849E-08  7.64260E-09
   5.83074E-09  4.89859E-09  4.26331E-09  3.76084E-09  3.32928E-09  2.94061E-09  2.58059E-09  2.24139E-09  1.91848E-09  1.60918E-09
   1.31189E-09  1.02567E-09  7.50068E-10  4.84821E-10  2.29980E-10 -1.42993E-11 -2.47836E-10 -4.70228E-10 -6.81141E-10 -8.80188E-10
  -1.06683E-09 -1.24067E-09 -1.40125E-09 -1.54886E-09 -1.68388E-09 -1.80675E-09 -1.91788E-09 -2.01768E-09 -2.10654E-09 -2.18485E-09
  -2.25300E-09 -2.31138E-09 -2.36038E-09 -2.40037E-09 -2.43172E-09 -2.45483E-09 -2.47004E-09 -2.47775E-09 -2.47834E-09 -2.47214E-09
  -2.45957E-09 -2.44097E-09 -2.41671E-09 -2.38717E-09 -2.35270E-09 -2.31370E-09 -2.27048E-09 -2.22348E-09 -2.17301E-09 -2.11944E-09
  -2.06316E-09 -2.00453E-09 -1.94391E-09 -1.88164E-09 -1.81814E-09 -1.75371E-09 -1.68877E-09 -1.62363E-09 -1.55870E-09 -1.49433E-09
  -1.43087E-09 -1.36869E-09 -1.30814E-09 -1.24933E-09 -1.19221E-09 -1.13674E-09 -1.08286E-09 -1.03054E-09 -9.79713E-10 -9.30346E-10
  -8.82389E-10 -8.35804E-10 -7.90518E-10 -7.46510E-10 -7.03719E-10 -6.62120E-10 -6.21634E-10 -5.82227E-10 -5.43860E-10 -5.06469E-10
  -4.70033E-10 -4.34479E-10 -3.99762E-10 -3.65859E-10 -3.32693E-10 -3.00232E-10 -2.68419E-10 -2.37226E-10 -2.06589E-10 -1.76463E-10
  -1.46805E-10 -1.17556E-10 -8.86806E-11 -6.01373E-11 -3.18668E-11 -3.81128E-12  2.40525E-11  5.17917E-11  7.94451E-11  1.07063E-10
   1.34678E-10  1.62368E-10  1.90151E-10  2.18051E-10  2.46038E-10  2.74082E-10  3.02151E-10  3.30214E-10  3.58241E-10  3.86200E-10
   4.14062E-10  4.41795E-10  4.69366E-10  4.96750E-10  5.23909E-10  5.50818E-10  5.77440E-10  6.03753E-10  6.29720E-10  6.55313E-10
   6.80498E-10  7.05248E-10  7.29531E-10  7.53315E-10  7.76568E-10  7.99266E-10  8.21370E-10  8.42856E-10  8.63688E-10  8.83838E-10
   9.03273E-10  9.21970E-10  9.39887E-10  9.56999E-10  9.73283E-10  9.88688E-10  1.00320E-09  1.01679E-09  1.02942E-09  1.04106E-09
   1.05168E-09  1.06125E-09  1.06974E-09  1.07713E-09  1.08347E-09  1.08878E-09  1.09310E-09  1.09647E-09  1.09892E-09  1.10048E-09
   1.10119E-09  1.10110E-09  1.10022E-09  1.09861E-09  1.09629E-09  1.09329E-09  1.08967E-09  1.08544E-09  1.08065E-09  1.07533E-09
   1.06952E-09  1.06325E-09  1.05656E-09  1.04948E-09  1.04206E-09  1.03431E-09  1.02629E-09  1.01802E-09  1.00954E-09  1.00089E-09
   9.92099E-10  9.83207E-10  9.74248E-10  9.65254E-10  9.56268E-10  9.47318E-10  9.38445E-10  9.29681E-10  9.21061E-10  9.12624E-10
   9.04402E-10  8.96432E-10  8.88749E-10
 NY background values follow
    -2.872E-10   -1.868E-10   -8.649E-11    1.363E-11    1.136E-10    2.134E-10    3.131E-10    4.127E-10    5.121E-10    6.114E-10
     7.107E-10    8.098E-10    9.088E-10    1.008E-09    1.107E-09    1.206E-09    1.304E-09    1.403E-09    1.502E-09    1.600E-09
     1.699E-09    1.797E-09    1.896E-09    1.995E-09    2.093E-09    2.192E-09    2.290E-09    2.389E-09    2.488E-09    2.586E-09
     2.685E-09    2.784E-09    2.883E-09    2.982E-09    3.081E-09    3.180E-09    3.279E-09    3.378E-09    3.478E-09    3.577E-09
     3.677E-09    3.777E-09    3.877E-09    3.977E-09    4.077E-09    4.177E-09    4.276E-09    4.376E-09    4.476E-09    4.575E-09
     4.674E-09    4.773E-09    4.872E-09    4.970E-09    5.068E-09    5.165E-09    5.262E-09    5.358E-09    5.454E-09    5.549E-09
     5.643E-09    5.737E-09    5.830E-09    5.922E-09    6.013E-09    6.104E-09    6.193E-09    6.282E-09    6.369E-09    6.456E-09
     6.541E-09    6.625E-09    6.708E-09    6.790E-09    6.871E-09    6.950E-09    7.028E-09    7.104E-09    7.179E-09    7.253E-09
     7.325E-09    7.395E-09    7.464E-09    7.532E-09    7.597E-09    7.662E-09    7.725E-09    7.786E-09    7.847E-09    7.906E-09
     7.963E-09    8.020E-09    8.075E-09    8.129E-09    8.182E-09    8.235E-09    8.285E-09    8.335E-09    8.385E-09    8.433E-09
     8.480E-09    8.526E-09    8.572E-09    8.617E-09    8.661E-09    8.705E-09    8.748E-09    8.790E-09    8.831E-09    8.873E-09
     8.913E-09    8.954E-09    8.993E-09    9.033E-09    9.072E-09    9.111E-09    9.150E-09    9.188E-09    9.226E-09    9.264E-09
     9.302E-09    9.340E-09    9.378E-09    9.416E-09    9.452E-09    9.488E-09    9.523E-09    9.556E-09    9.587E-09    9.616E-09
     9.643E-09    9.667E-09    9.689E-09    9.707E-09    9.722E-09    9.733E-09    9.740E-09    9.742E-09    9.740E-09    9.734E-09
     9.722E-09    9.704E-09    9.681E-09    9.652E-09    9.617E-09    9.576E-09    9.527E-09    9.471E-09    9.408E-09    9.338E-09
     9.259E-09    9.173E-09    9.078E-09    8.974E-09    8.861E-09    8.738E-09    8.607E-09    8.465E-09    8.313E-09    8.151E-09
     7.978E-09    7.794E-09    7.599E-09    7.393E-09    7.178E-09    6.953E-09    6.719E-09    6.478E-09    6.228E-09    5.972E-09
     5.709E-09    5.440E-09    5.166E-09    4.888E-09    4.605E-09    4.320E-09    4.031E-09    3.740E-09    3.447E-09    3.154E-09
     2.860E-09    2.566E-09    2.273E-09    1.981E-09    1.691E-09    1.404E-09    1.120E-09    8.398E-10    5.638E-10    2.927E-10
     2.711E-11   -2.323E-10   -4.850E-10   -7.304E-10   -9.679E-10   -1.197E-09   -1.417E-09   -1.627E-09   -1.827E-09   -2.016E-09
    -2.193E-09   -2.359E-09   -2.511E-09   -2.652E-09   -2.780E-09   -2.897E-09   -3.002E-09   -3.096E-09   -3.180E-09   -3.253E-09
    -3.317E-09   -3.371E-09   -3.416E-09   -3.452E-09   -3.479E-09   -3.498E-09   -3.510E-09   -3.514E-09   -3.512E-09   -3.502E-09
    -3.487E-09   -3.465E-09   -3.438E-09   -3.406E-09   -3.369E-09   -3.327E-09   -3.282E-09   -3.232E-09   -3.179E-09   -3.123E-09
    -3.065E-09   -3.004E-09   -2.941E-09   -2.877E-09   -2.811E-09   -2.745E-09   -2.678E-09   -2.611E-09   -2.544E-09   -2.478E-09
    -2.413E-09   -2.349E-09   -2.287E-09   -2.226E-09   -2.167E-09   -2.110E-09   -2.055E-09   -2.001E-09   -1.949E-09   -1.898E-09
    -1.848E-09   -1.800E-09   -1.753E-09   -1.708E-09   -1.664E-09   -1.621E-09   -1.579E-09   -1.538E-09   -1.499E-09   -1.460E-09
    -1.422E-09   -1.385E-09   -1.349E-09   -1.314E-09   -1.280E-09   -1.246E-09   -1.213E-09   -1.181E-09   -1.149E-09   -1.118E-09
    -1.087E-09   -1.057E-09   -1.027E-09   -9.969E-10   -9.675E-10   -9.384E-10   -9.095E-10   -8.807E-10   -8.520E-10   -8.233E-10
    -7.947E-10   -7.660E-10   -7.372E-10   -7.083E-10   -6.794E-10   -6.503E-10   -6.213E-10   -5.923E-10   -5.633E-10   -5.344E-10
    -5.056E-10   -4.770E-10   -4.485E-10   -4.202E-10   -3.921E-10   -3.643E-10   -3.368E-10   -3.096E-10   -2.828E-10   -2.563E-10
    -2.303E-10   -2.047E-10   -1.796E-10   -1.550E-10   -1.309E-10   -1.073E-10   -8.442E-11   -6.211E-11   -4.047E-11   -1.952E-11
     7.201E-13    2.021E-11    3.892E-11    5.682E-11    7.388E-11    9.006E-11    1.053E-10    1.197E-10    1.331E-10    1.455E-10
     1.569E-10    1.672E-10    1.764E-10    1.846E-10    1.916E-10    1.977E-10    2.027E-10    2.068E-10    2.100E-10    2.123E-10
     2.137E-10    2.143E-10    2.142E-10    2.133E-10    2.117E-10    2.094E-10    2.064E-10    2.029E-10    1.988E-10    1.942E-10
     1.891E-10    1.835E-10    1.775E-10    1.711E-10    1.643E-10    1.573E-10    1.499E-10    1.423E-10    1.345E-10    1.266E-10
     1.184E-10    1.102E-10    1.019E-10    9.361E-11    8.529E-11    7.700E-11    6.879E-11    6.069E-11    5.273E-11    4.495E-11
     3.739E-11    3.007E-11    2.305E-11
 Asp      Conc. = 1.00E-09
   8.83548E-10  8.32056E-10  8.30089E-10  7.64801E-10  8.23143E-10  7.87115E-10  7.84829E-10  7.10498E-10  7.29890E-10  7.84284E-10
   8.54603E-10  9.33155E-10  1.01691E-09  1.10649E-09  1.19831E-09  1.29098E-09  1.38467E-09  1.47924E-09  1.57456E-09  1.67053E-09
   1.76707E-09  1.86414E-09  1.96171E-09  2.05979E-09  2.15839E-09  2.25757E-09  2.35740E-09  2.45798E-09  2.55949E-09  2.66216E-09
   2.76635E-09  2.87261E-09  2.98184E-09  3.09567E-09  3.21746E-09  3.35558E-09  3.53338E-09  3.69234E-09  3.87182E-09  4.00258E-09
   4.10899E-09  4.22426E-09  4.38843E-09  4.64976E-09  4.95047E-09  5.35387E-09  5.56721E-09  5.61697E-09  5.84280E-09  5.97509E-09
   6.16695E-09  6.36737E-09  6.56751E-09  6.66069E-09  6.58134E-09  6.46914E-09  6.11708E-09  6.22850E-09  6.40914E-09  6.26869E-09
   6.23979E-09  6.29662E-09  6.27476E-09  6.29548E-09  6.42175E-09  6.55785E-09  6.54407E-09  6.57093E-09  6.61905E-09  6.67755E-09
   6.74175E-09  6.80924E-09  6.87867E-09  6.94915E-09  7.02010E-09  7.09109E-09  7.16181E-09  7.23201E-09  7.30149E-09  7.37009E-09
   7.43768E-09  7.50412E-09  7.56938E-09  7.63343E-09  7.69628E-09  7.75791E-09  7.81836E-09  7.87762E-09  7.93571E-09  7.99266E-09
   8.04850E-09  8.10324E-09  8.15691E-09  8.20954E-09  8.26115E-09  8.31179E-09  8.36148E-09  8.41026E-09  8.45815E-09  8.50519E-09
   8.55141E-09  8.59686E-09  8.64156E-09  8.68555E-09  8.72887E-09  8.77155E-09  8.81363E-09  8.85514E-09  8.89612E-09  8.93661E-09
   8.97665E-09  9.01627E-09  9.05551E-09  9.09441E-09  9.13300E-09  9.17133E-09  9.20943E-09  9.24734E-09  9.28509E-09  9.32274E-09
   9.36029E-09  9.39781E-09  9.43522E-09  9.47224E-09  9.50859E-09  9.54400E-09  9.57820E-09  9.61089E-09  9.64180E-09  9.67067E-09
   9.69720E-09  9.72111E-09  9.74214E-09  9.76000E-09  9.77441E-09  9.78509E-09  9.79179E-09  9.79419E-09  9.79202E-09  9.78504E-09
   9.77293E-09  9.75544E-09  9.73229E-09  9.70318E-09  9.66786E-09  9.62605E-09  9.57747E-09  9.52183E-09  9.45891E-09  9.38839E-09
   9.31000E-09  9.22351E-09  9.12866E-09  9.02516E-09  8.91279E-09  8.79132E-09  8.66054E-09  8.52025E-09  8.37032E-09  8.21068E-09
   8.04148E-09  7.86299E-09  7.67636E-09  7.48453E-09  7.29419E-09  7.12512E-09  7.07040E-09  7.42308E-09  7.54314E-09  7.44432E-09
   7.27729E-09  7.09948E-09  6.90238E-09  6.61243E-09  6.29204E-09  6.02942E-09  5.87236E-09  5.42647E-09  4.05631E-09  3.45566E-09
   3.06232E-09  2.72216E-09  2.40278E-09  2.09425E-09  1.79290E-09  1.49724E-09  1.20676E-09  9.21401E-10  6.41358E-10  3.66981E-10
   9.86808E-11 -1.63079E-10 -4.17767E-10 -6.64903E-10 -9.03898E-10 -1.13418E-09 -1.35525E-09 -1.56645E-09 -1.76726E-09 -1.95712E-09
  -2.13536E-09 -2.30148E-09 -2.45493E-09 -2.59593E-09 -2.72480E-09 -2.84193E-09 -2.94767E-09 -3.04240E-09 -3.12648E-09 -3.20028E-09
  -3.26414E-09 -3.31845E-09 -3.36357E-09 -3.39985E-09 -3.42766E-09 -3.44738E-09 -3.45934E-09 -3.46392E-09 -3.46150E-09 -3.45240E-09
  -3.43702E-09 -3.41572E-09 -3.38885E-09 -3.35677E-09 -3.31984E-09 -3.27845E-09 -3.23292E-09 -3.18366E-09 -3.13100E-09 -3.07529E-09
  -3.01694E-09 -2.95628E-09 -2.89368E-09 -2.82947E-09 -2.76408E-09 -2.69780E-09 -2.63106E-09 -2.56415E-09 -2.49748E-09 -2.43141E-09
  -2.36630E-09 -2.30248E-09 -2.24033E-09 -2.17995E-09 -2.12128E-09 -2.06429E-09 -2.00893E-09 -1.95513E-09 -1.90287E-09 -1.85209E-09
  -1.80273E-09 -1.75478E-09 -1.70814E-09 -1.66280E-09 -1.61870E-09 -1.57581E-09 -1.53404E-09 -1.49338E-09 -1.45378E-09 -1.41516E-09
  -1.37752E-09 -1.34078E-09 -1.30488E-09 -1.26982E-09 -1.23551E-09 -1.20192E-09 -1.16899E-09 -1.13669E-09 -1.10496E-09 -1.07376E-09
  -1.04303E-09 -1.01273E-09 -9.82813E-10 -9.53239E-10 -9.23948E-10 -8.94883E-10 -8.66021E-10 -8.37293E-10 -8.08661E-10 -7.80073E-10
  -7.51499E-10 -7.22861E-10 -6.94138E-10 -6.65306E-10 -6.36396E-10 -6.07437E-10 -5.78462E-10 -5.49501E-10 -5.20583E-10 -4.91742E-10
  -4.63006E-10 -4.34405E-10 -4.05972E-10 -3.77735E-10 -3.49729E-10 -3.21980E-10 -2.94524E-10 -2.67384E-10 -2.40596E-10 -2.14187E-10
  -1.88195E-10 -1.62642E-10 -1.37562E-10 -1.12986E-10 -8.89470E-11 -6.54695E-11 -4.25906E-11 -2.03339E-11  1.26251E-12  2.21718E-11
   4.23628E-11  6.18098E-11  8.04726E-11  9.83255E-11  1.15347E-10  1.31484E-10  1.46728E-10  1.61043E-10  1.74390E-10  1.86744E-10
   1.98076E-10  2.08359E-10  2.17551E-10  2.25651E-10  2.32685E-10  2.38691E-10  2.43704E-10  2.47758E-10  2.50890E-10  2.53135E-10
   2.54530E-10  2.55109E-10  2.54908E-10  2.53964E-10  2.52311E-10  2.49983E-10  2.47019E-10  2.43453E-10  2.39322E-10  2.34659E-10
   2.29501E-10  2.23883E-10  2.17840E-10  2.11411E-10  2.04628E-10  1.97528E-10  1.90145E-10  1.82516E-10  1.74679E-10  1.66663E-10
   1.58509E-10  1.50251E-10  1.41924E-10  1.33562E-10  1.25206E-10  1.16885E-10  1.08640E-10  1.00502E-10  9.25069E-11  8.46944E-11
   7.70964E-11  6.97487E-11  6.26882E-11
 GABA     Conc. = 6.23E-10
  -2.60454E-10 -1.59805E-10 -5.92933E-11  4.10914E-11  1.41365E-10  2.41535E-10  3.41620E-10  4.41634E-10  5.41589E-10  6.41523E-10
   7.41442E-10  8.41369E-10  9.41366E-10  1.04141E-09  1.14163E-09  1.24200E-09  1.34253E-09  1.44341E-09  1.54474E-09  1.64655E-09
   1.74906E-09  1.85263E-09  1.95756E-09  2.06443E-09  2.17430E-09  2.28849E-09  2.41032E-09  2.54679E-09  2.71656E-09  2.97706E-09
   3.15959E-09  3.31298E-09  3.67005E-09  3.97076E-09  4.13606E-09  4.35914E-09  4.58488E-09  4.78368E-09  4.93113E-09  4.96711E-09
   4.82650E-09  4.98673E-09  5.11657E-09  4.74578E-09  4.68681E-09  4.83910E-09  4.72443E-09  4.68708E-09  4.71931E-09  4.77972E-09
   4.85457E-09  4.93767E-09  5.02614E-09  5.11880E-09  5.21502E-09  5.31439E-09  5.41736E-09  5.52496E-09  5.63922E-09  5.76555E-09
   5.91559E-09  6.12597E-09  6.38739E-09  6.54459E-09  6.76552E-09  7.09833E-09  7.29261E-09  7.42163E-09  7.57555E-09  7.72243E-09
   7.84602E-09  7.90337E-09  7.80896E-09  7.67373E-09  7.83510E-09  7.72281E-09  7.41562E-09  7.49338E-09  7.55007E-09  7.52581E-09
   7.60801E-09  7.65411E-09  7.73645E-09  7.94229E-09  8.07403E-09  8.17308E-09  8.35075E-09  8.49946E-09  8.63085E-09  8.78250E-09
   8.83491E-09  8.83593E-09  9.01959E-09  9.06098E-09  8.86256E-09  8.95196E-09  9.01533E-09  8.85864E-09  8.83973E-09  8.85896E-09
   8.83061E-09  8.82391E-09  8.83221E-09  8.84926E-09  8.87186E-09  8.89795E-09  8.92642E-09  8.95661E-09  8.98803E-09  9.02043E-09
   9.05363E-09  9.08721E-09  9.12111E-09  9.15527E-09  9.18958E-09  9.22414E-09  9.25891E-09  9.29381E-09  9.32883E-09  9.36398E-09
   9.39924E-09  9.43467E-09  9.47016E-09  9.50541E-09  9.54013E-09  9.57404E-09  9.60684E-09  9.63823E-09  9.66792E-09  9.69566E-09
   9.72112E-09  9.74404E-09  9.76413E-09  9.78111E-09  9.79469E-09  9.80459E-09  9.81055E-09  9.81225E-09  9.80942E-09  9.80179E-09
   9.78908E-09  9.77100E-09  9.74730E-09  9.71766E-09  9.68181E-09  9.63949E-09  9.59041E-09  9.53428E-09  9.47088E-09  9.39987E-09
   9.32099E-09  9.23399E-09  9.13861E-09  9.03455E-09  8.92157E-09  8.79942E-09  8.66788E-09  8.52669E-09  8.37568E-09  8.21469E-09
   8.04373E-09  7.86283E-09  7.67270E-09  7.47536E-09  7.27524E-09  7.08518E-09  6.96563E-09  7.09479E-09  7.07284E-09  6.91308E-09
   6.70958E-09  6.49748E-09  6.27093E-09  5.98474E-09  5.67890E-09  5.40875E-09  5.20195E-09  4.80749E-09  3.84329E-09  3.36384E-09
   3.00889E-09  2.68635E-09  2.37681E-09  2.07449E-09  1.77735E-09  1.48471E-09  1.19647E-09  9.12847E-10  6.34164E-10  3.60878E-10
   9.34678E-11 -1.67557E-10 -4.21632E-10 -6.68250E-10 -9.06807E-10 -1.13671E-09 -1.35746E-09 -1.56838E-09 -1.76894E-09 -1.95859E-09
  -2.13664E-09 -2.30259E-09 -2.45590E-09 -2.59677E-09 -2.72554E-09 -2.84256E-09 -2.94821E-09 -3.04286E-09 -3.12687E-09 -3.20060E-09
  -3.26441E-09 -3.31867E-09 -3.36374E-09 -3.39999E-09 -3.42776E-09 -3.44744E-09 -3.45938E-09 -3.46393E-09 -3.46149E-09 -3.45237E-09
  -3.43698E-09 -3.41566E-09 -3.38877E-09 -3.35669E-09 -3.31974E-09 -3.27835E-09 -3.23281E-09 -3.18355E-09 -3.13088E-09 -3.07517E-09
  -3.01681E-09 -2.95615E-09 -2.89355E-09 -2.82934E-09 -2.76395E-09 -2.69767E-09 -2.63094E-09 -2.56402E-09 -2.49736E-09 -2.43129E-09
