 LCModel (Version 6.3-1R) Copyright: S.W. Provencher.          Ref.: Magn. Reson. Med. 30:672-679 (1993).                
 onepulse 20x7_ftSpec_smooth_lcm
 26 lines in following concentration table = NCONC+1
    Conc.  %SD /Cr+PCr  Metabolite                                         
    0.000 999%   0.000 Ala                                                 
    0.000 999%   0.000 Asp                                                 
    0.000 999%   0.000 Cr                                                  
 5.04E-10 116%   1.032 GABA                                                
 2.04E-10 440%   0.418 Glc                                                 
 1.87E-09  31%   3.823 Gln                                                 
    0.000 999%   0.000 Glu                                                 
    0.000 999%   0.000 Glyc                                                
 2.00E-10  62%   0.411 GPC                                                 
    0.000 999%   0.000 GSH                                                 
 1.42E-09  32%   2.900 Ins                                                 
    0.000 999%   0.000 Lac                                                 
    0.000 999%   0.000 NAAG                                                
 7.58E-10  36%   1.553 NAA                                                 
    0.000 999%   0.000 PCh                                                 
 4.88E-10  62%   1.000 PCr                                                 
    0.000 999%   0.000 PE                                                  
 8.96E-11 287%   0.184 Scyllo                                              
 3.18E-09  20%   6.504 Ser                                                 
 6.99E-10 129%   1.432 Tau                                                 
 2.00E-10  62%   0.411 GPC+PCh                                             
 7.58E-10  36%   1.553 NAA+NAAG                                            
 1.42E-09  32%   2.900 Ins+Glyc                                            
 4.88E-10  62%   1.000 Cr+PCr                                              
 1.87E-09  31%   3.823 Glu+Gln                                             
   6 lines in following misc. output table
  FWHM = 0.112 ppm    S/N =   3                                            
  Data shift = 0.380 ppm                                                   
  Ph:  14 deg     -29.2 deg/ppm                                            
  alphaB,S = 1.8E-01,   2.3E+01                                            
   12 spline knots.   Ns = 5(1)                                            
  ( 7) 4 infls.   ( 5) 1 extrs.                                            
  363 points on ppm-axis = NY
      4.250000     4.238821     4.227641     4.216462     4.205282     4.194103     4.182923     4.171744     4.160564     4.149385
      4.138206     4.127026     4.115847     4.104667     4.093488     4.082308     4.071129     4.059949     4.048770     4.037591
      4.026411     4.015232     4.004052     3.992873     3.981693     3.970514     3.959334     3.948155     3.936975     3.925796
      3.914617     3.903437     3.892258     3.881078     3.869899     3.858719     3.847540     3.836360     3.825181     3.814002
      3.802822     3.791643     3.780463     3.769284     3.758104     3.746925     3.735745     3.724566     3.713387     3.702207
      3.691028     3.679848     3.668669     3.657489     3.646310     3.635130     3.623951     3.612772     3.601592     3.590413
      3.579233     3.568054     3.556874     3.545695     3.534515     3.523336     3.512156     3.500977     3.489798     3.478618
      3.467439     3.456259     3.445080     3.433900     3.422721     3.411541     3.400362     3.389183     3.378003     3.366824
      3.355644     3.344465     3.333285     3.322106     3.310926     3.299747     3.288568     3.277388     3.266209     3.255029
      3.243850     3.232670     3.221491     3.210311     3.199132     3.187953     3.176773     3.165594     3.154414     3.143235
      3.132055     3.120876     3.109696     3.098517     3.087337     3.076158     3.064979     3.053799     3.042620     3.031440
      3.020261     3.009081     2.997902     2.986722     2.975543     2.964364     2.953184     2.942005     2.930825     2.919646
      2.908466     2.897287     2.886107     2.874928     2.863749     2.852569     2.841390     2.830210     2.819031     2.807851
      2.796672     2.785492     2.774313     2.763134     2.751954     2.740775     2.729595     2.718416     2.707236     2.696057
      2.684877     2.673698     2.662519     2.651339     2.640160     2.628980     2.617801     2.606621     2.595442     2.584262
      2.573083     2.561903     2.550724     2.539545     2.528365     2.517186     2.506006     2.494827     2.483647     2.472468
      2.461288     2.450109     2.438930     2.427750     2.416571     2.405391     2.394212     2.383032     2.371853     2.360673
      2.349494     2.338315     2.327135     2.315956     2.304776     2.293597     2.282417     2.271238     2.260058     2.248879
      2.237700     2.226520     2.215341     2.204161     2.192982     2.181802     2.170623     2.159443     2.148264     2.137084
      2.125905     2.114726     2.103546     2.092367     2.081187     2.070008     2.058828     2.047649     2.036469     2.025290
      2.014111     2.002931     1.991752     1.980572     1.969393     1.958213     1.947034     1.935854     1.924675     1.913496
      1.902316     1.891137     1.879957     1.868778     1.857598     1.846419     1.835239     1.824060     1.812881     1.801701
      1.790522     1.779342     1.768163     1.756983     1.745804     1.734624     1.723445     1.712265     1.701086     1.689907
      1.678727     1.667548     1.656368     1.645189     1.634009     1.622830     1.611650     1.600471     1.589292     1.578112
      1.566933     1.555753     1.544574     1.533394     1.522215     1.511035     1.499856     1.488677     1.477497     1.466318
      1.455138     1.443959     1.432779     1.421600     1.410420     1.399241     1.388062     1.376882     1.365703     1.354523
      1.343344     1.332164     1.320985     1.309805     1.298626     1.287446     1.276267     1.265088     1.253908     1.242729
      1.231549     1.220370     1.209190     1.198011     1.186831     1.175652     1.164473     1.153293     1.142114     1.130934
      1.119755     1.108575     1.097396     1.086216     1.075037     1.063858     1.052678     1.041499     1.030319     1.019140
      1.007960     0.996781     0.985601     0.974422     0.963243     0.952063     0.940884     0.929704     0.918525     0.907345
      0.896166     0.884986     0.873807     0.862628     0.851448     0.840269     0.829089     0.817910     0.806730     0.795551
      0.784371     0.773192     0.762012     0.750833     0.739654     0.728474     0.717295     0.706115     0.694936     0.683756
      0.672577     0.661397     0.650218     0.639039     0.627859     0.616680     0.605500     0.594321     0.583141     0.571962
      0.560782     0.549603     0.538424     0.527244     0.516065     0.504885     0.493706     0.482526     0.471347     0.460167
      0.448988     0.437809     0.426629     0.415450     0.404270     0.393091     0.381911     0.370732     0.359552     0.348373
      0.337193     0.326014     0.314835     0.303655     0.292476     0.281296     0.270117     0.258937     0.247758     0.236578
      0.225399     0.214220     0.203040
 NY phased data points follow
   6.83811E-09  7.37087E-09  6.63200E-09  7.35736E-09  6.10254E-09  6.07743E-09  5.49092E-09  6.13991E-09  5.71887E-09  6.14038E-09
   6.10089E-09  6.34869E-09  6.97290E-09  8.22355E-09  8.38438E-09  8.29705E-09  7.90698E-09  8.37242E-09  8.24588E-09  7.92220E-09
   8.28429E-09  8.14764E-09  8.23228E-09  8.41114E-09  8.18639E-09  8.16763E-09  8.44283E-09  7.77635E-09  8.85579E-09  9.19082E-09
   1.01802E-08  1.12370E-08  1.14889E-08  1.20950E-08  1.21061E-08  1.16184E-08  1.09844E-08  1.13828E-08  1.11422E-08  1.13390E-08
   1.06308E-08  1.11173E-08  1.09286E-08  1.05470E-08  9.90305E-09  9.69327E-09  9.87977E-09  9.27828E-09  9.09026E-09  8.83676E-09
   8.65510E-09  8.32227E-09  8.40069E-09  8.00956E-09  6.78604E-09  6.24647E-09  5.78656E-09  5.76986E-09  5.73768E-09  6.03164E-09
   7.70571E-09  9.28914E-09  1.00590E-08  1.17120E-08  1.19870E-08  1.19758E-08  1.18760E-08  1.12601E-08  1.13943E-08  1.04958E-08
   9.21251E-09  8.07895E-09  6.92300E-09  6.82531E-09  5.76360E-09  6.13367E-09  6.55486E-09  8.21906E-09  1.09735E-08  1.28973E-08
   1.38630E-08  1.40664E-08  1.49752E-08  1.48765E-08  1.49982E-08  1.49139E-08  1.48510E-08  1.53595E-08  1.45212E-08  1.51109E-08
   1.51103E-08  1.47651E-08  1.41541E-08  1.44608E-08  1.37071E-08  1.29898E-08  1.29537E-08  1.26084E-08  1.20695E-08  1.20000E-08
   1.20349E-08  1.19488E-08  1.18034E-08  1.18091E-08  1.16611E-08  1.11113E-08  1.10087E-08  1.09834E-08  9.95284E-09  9.55264E-09
   9.18448E-09  9.38098E-09  9.29286E-09  9.38080E-09  9.58938E-09  1.00331E-08  9.98424E-09  9.82510E-09  9.79216E-09  9.44919E-09
   9.77957E-09  8.96787E-09  8.69165E-09  8.13330E-09  8.18787E-09  7.66398E-09  7.78676E-09  7.11813E-09  7.62226E-09  8.18276E-09
   7.48722E-09  7.86579E-09  8.17118E-09  8.25827E-09  7.98865E-09  7.61663E-09  8.50976E-09  7.72012E-09  9.37625E-09  9.73528E-09
   1.03935E-08  1.04051E-08  1.06994E-08  1.11177E-08  1.16006E-08  1.11307E-08  1.16283E-08  1.20687E-08  1.19841E-08  1.16103E-08
   1.18210E-08  1.16027E-08  1.12175E-08  1.14797E-08  1.11155E-08  1.13127E-08  1.07069E-08  1.10505E-08  1.05044E-08  1.10100E-08
   1.06642E-08  1.03536E-08  9.88902E-09  9.11815E-09  9.58926E-09  9.10532E-09  9.09251E-09  9.38269E-09  1.18809E-08  1.53409E-08
   1.82869E-08  1.93611E-08  2.01858E-08  2.00886E-08  2.05913E-08  1.94934E-08  1.81093E-08  1.69743E-08  1.60544E-08  1.45385E-08
   1.27272E-08  1.07445E-08  8.94234E-09  5.99539E-09  3.58765E-09  8.46459E-10 -1.72549E-09 -5.34708E-09 -7.27566E-09 -9.19121E-09
  -1.13533E-08 -1.30714E-08 -1.42678E-08 -1.49966E-08 -1.57204E-08 -1.57574E-08 -1.49651E-08 -1.42626E-08 -1.31312E-08 -1.17674E-08
  -1.09109E-08 -9.35404E-09 -8.14454E-09 -7.82930E-09 -6.35199E-09 -5.64678E-09 -5.00740E-09 -4.69681E-09 -3.53911E-09 -4.33405E-09
  -4.16567E-09 -4.01304E-09 -4.06147E-09 -4.09151E-09 -3.76704E-09 -3.97345E-09 -4.05680E-09 -3.76600E-09 -3.81007E-09 -3.89208E-09
  -3.10805E-09 -3.34815E-09 -3.02109E-09 -3.33975E-09 -3.66742E-09 -3.67228E-09 -3.41887E-09 -3.42526E-09 -3.51482E-09 -3.61594E-09
  -2.46251E-09 -3.33097E-09 -3.27776E-09 -3.63920E-09 -3.08851E-09 -3.15721E-09 -3.04832E-09 -3.46617E-09 -3.02133E-09 -3.62249E-09
  -3.41981E-09 -3.21578E-09 -3.70306E-09 -3.81774E-09 -3.21204E-09 -3.02195E-09 -3.36332E-09 -3.20961E-09 -2.38308E-09 -2.58107E-09
  -2.77022E-09 -2.77549E-09 -2.22985E-09 -2.63582E-09 -2.67155E-09 -3.16572E-09 -2.61097E-09 -3.15076E-09 -3.58963E-09 -3.30154E-09
  -3.68164E-09 -3.94820E-09 -4.02170E-09 -3.84536E-09 -4.18988E-09 -3.97894E-09 -3.34466E-09 -4.13626E-09 -2.56757E-09 -3.60829E-09
  -3.05555E-09 -2.58127E-09 -2.40741E-09 -2.50894E-09 -1.67254E-09 -1.83999E-09 -1.75982E-09 -1.91368E-09 -2.16257E-09 -2.35137E-09
  -1.99944E-09 -1.97011E-09 -2.72249E-09 -2.74783E-09 -2.10993E-09 -2.13929E-09 -2.15876E-09 -3.19256E-09 -3.27206E-09 -3.19099E-09
  -2.91084E-09 -3.12507E-09 -3.50588E-09 -3.46514E-09 -3.35086E-09 -3.38313E-09 -3.40657E-09 -3.60940E-09 -3.76925E-09 -3.66461E-09
  -4.24567E-09 -3.76426E-09 -3.45197E-09 -4.37310E-09 -4.01539E-09 -3.99326E-09 -4.65266E-09 -4.50447E-09 -4.29052E-09 -4.53792E-09
  -4.88242E-09 -4.31515E-09 -4.82146E-09 -4.30264E-09 -4.40154E-09 -4.60848E-09 -4.62765E-09 -4.74220E-09 -4.61604E-09 -4.24712E-09
  -4.91168E-09 -4.97719E-09 -4.99185E-09 -4.87119E-09 -4.32499E-09 -5.33308E-09 -4.80834E-09 -4.46726E-09 -4.85373E-09 -4.75081E-09
  -4.96461E-09 -4.87853E-09 -4.85827E-09 -5.20016E-09 -4.52951E-09 -4.66483E-09 -4.92209E-09 -4.70575E-09 -5.05127E-09 -5.07242E-09
  -4.77896E-09 -4.85236E-09 -4.92793E-09 -4.78041E-09 -5.19783E-09 -5.28775E-09 -4.75425E-09 -4.78008E-09 -4.68727E-09 -5.00414E-09
  -5.05730E-09 -4.85529E-09 -5.06288E-09 -4.89685E-09 -4.89926E-09 -4.99002E-09 -4.56210E-09 -4.65035E-09 -4.54038E-09 -4.72289E-09
  -4.59187E-09 -4.35668E-09 -4.45937E-09
 NY points of the fit to the data follow
   6.02403E-09  7.61695E-09  7.75658E-09  6.58240E-09  6.37134E-09  6.75999E-09  6.85292E-09  6.38954E-09  5.75168E-09  5.63981E-09
   5.90325E-09  6.04123E-09  6.45125E-09  6.95230E-09  7.65995E-09  8.14762E-09  8.22576E-09  8.79053E-09  9.50324E-09  9.23137E-09
   8.41851E-09  7.78687E-09  7.43935E-09  7.23444E-09  7.37241E-09  7.75026E-09  8.41225E-09  9.07177E-09  9.55697E-09  9.79643E-09
   1.02173E-08  1.06309E-08  1.13898E-08  1.19917E-08  1.20468E-08  1.14926E-08  1.11472E-08  1.09793E-08  1.09743E-08  1.11189E-08
   1.13521E-08  1.15862E-08  1.13073E-08  1.00944E-08  9.33101E-09  8.91379E-09  8.52761E-09  8.14426E-09  7.81446E-09  7.55319E-09
   7.34812E-09  7.20404E-09  7.10734E-09  6.99313E-09  6.85496E-09  6.89182E-09  7.02321E-09  7.27580E-09  7.80966E-09  8.46544E-09
   9.02688E-09  9.58097E-09  1.01240E-08  1.06077E-08  1.10356E-08  1.13252E-08  1.13506E-08  1.14002E-08  1.11760E-08  1.04395E-08
   9.99065E-09  9.79533E-09  9.46998E-09  9.13075E-09  9.01999E-09  8.99511E-09  8.90156E-09  9.46538E-09  1.05709E-08  1.17922E-08
   1.30571E-08  1.41905E-08  1.48780E-08  1.53874E-08  1.60564E-08  1.65176E-08  1.66852E-08  1.64896E-08  1.50406E-08  1.37550E-08
   1.30817E-08  1.26507E-08  1.24182E-08  1.22007E-08  1.19226E-08  1.17816E-08  1.16586E-08  1.14495E-08  1.13029E-08  1.11932E-08
   1.10722E-08  1.09687E-08  1.08826E-08  1.08099E-08  1.07480E-08  1.06947E-08  1.06483E-08  1.06075E-08  1.05713E-08  1.05391E-08
   1.05101E-08  1.04838E-08  1.04595E-08  1.04369E-08  1.04156E-08  1.03954E-08  1.03760E-08  1.03571E-08  1.03383E-08  1.03196E-08
   1.03006E-08  1.02813E-08  1.02614E-08  1.02406E-08  1.02185E-08  1.01950E-08  1.01698E-08  1.01425E-08  1.01129E-08  1.00808E-08
   1.00458E-08  1.00077E-08  9.96630E-09  9.92126E-09  9.87234E-09  9.81930E-09  9.76190E-09  9.69984E-09  9.63290E-09  9.56083E-09
   9.48336E-09  9.40025E-09  9.31127E-09  9.21613E-09  9.11460E-09  9.00643E-09  8.89137E-09  8.76917E-09  8.63961E-09  8.50242E-09
   8.35736E-09  8.20421E-09  8.04277E-09  7.87280E-09  7.69415E-09  7.50667E-09  7.31031E-09  7.10507E-09  6.89119E-09  6.66920E-09
   6.44029E-09  6.20663E-09  5.97314E-09  5.75078E-09  5.56604E-09  5.49933E-09  5.91587E-09  8.53782E-09  1.22151E-08  1.56337E-08
   1.81734E-08  1.96379E-08  2.03101E-08  2.06250E-08  2.09396E-08  2.10397E-08  1.98850E-08  1.55699E-08  8.09173E-09  4.38596E-09
   2.94455E-09  2.07834E-09  1.43439E-09  9.01103E-10  4.32389E-10  5.87608E-12 -3.90492E-10 -7.63667E-10 -1.11786E-09 -1.45564E-09
  -1.77863E-09 -2.08779E-09 -2.38367E-09 -2.66657E-09 -2.93650E-09 -3.19336E-09 -3.43704E-09 -3.66717E-09 -3.88347E-09 -4.08559E-09
  -4.27305E-09 -4.44547E-09 -4.60246E-09 -4.74441E-09 -4.87180E-09 -4.98518E-09 -5.08506E-09 -5.17195E-09 -5.24637E-09 -5.30881E-09
  -5.35977E-09 -5.39973E-09 -5.42920E-09 -5.44867E-09 -5.45860E-09 -5.45951E-09 -5.45185E-09 -5.43612E-09 -5.41281E-09 -5.38236E-09
  -5.34528E-09 -5.30203E-09 -5.25308E-09 -5.19890E-09 -5.13994E-09 -5.07670E-09 -5.00960E-09 -4.93914E-09 -4.86574E-09 -4.78985E-09
  -4.71195E-09 -4.63247E-09 -4.55186E-09 -4.47052E-09 -4.38893E-09 -4.30749E-09 -4.22665E-09 -4.14678E-09 -4.06835E-09 -3.99174E-09
  -3.91736E-09 -3.84561E-09 -3.77686E-09 -3.71124E-09 -3.64873E-09 -3.58930E-09 -3.53291E-09 -3.47952E-09 -3.42911E-09 -3.38164E-09
  -3.33707E-09 -3.29538E-09 -3.25650E-09 -3.22042E-09 -3.18709E-09 -3.15650E-09 -3.12857E-09 -3.10327E-09 -3.08056E-09 -3.06040E-09
  -3.04276E-09 -3.02758E-09 -3.01480E-09 -3.00442E-09 -2.99635E-09 -2.99057E-09 -2.98702E-09 -2.98567E-09 -2.98645E-09 -2.98933E-09
  -2.99425E-09 -3.00116E-09 -3.01001E-09 -3.02077E-09 -3.03337E-09 -3.04774E-09 -3.06387E-09 -3.08168E-09 -3.10112E-09 -3.12214E-09
  -3.14471E-09 -3.16874E-09 -3.19420E-09 -3.22101E-09 -3.24911E-09 -3.27841E-09 -3.30885E-09 -3.34034E-09 -3.37281E-09 -3.40619E-09
  -3.44040E-09 -3.47537E-09 -3.51104E-09 -3.54731E-09 -3.58412E-09 -3.62141E-09 -3.65909E-09 -3.69710E-09 -3.73537E-09 -3.77383E-09
  -3.81241E-09 -3.85104E-09 -3.88965E-09 -3.92819E-09 -3.96657E-09 -4.00474E-09 -4.04263E-09 -4.08018E-09 -4.11732E-09 -4.15400E-09
  -4.19015E-09 -4.22570E-09 -4.26061E-09 -4.29482E-09 -4.32825E-09 -4.36087E-09 -4.39261E-09 -4.42341E-09 -4.45322E-09 -4.48201E-09
  -4.50969E-09 -4.53624E-09 -4.56159E-09 -4.58571E-09 -4.60855E-09 -4.63009E-09 -4.65028E-09 -4.66909E-09 -4.68648E-09 -4.70243E-09
  -4.71689E-09 -4.72985E-09 -4.74126E-09 -4.75109E-09 -4.75932E-09 -4.76592E-09 -4.77086E-09 -4.77411E-09 -4.77564E-09 -4.77543E-09
  -4.77346E-09 -4.76969E-09 -4.76411E-09 -4.75669E-09 -4.74741E-09 -4.73625E-09 -4.72320E-09 -4.70822E-09 -4.69130E-09 -4.67243E-09
  -4.65158E-09 -4.62875E-09 -4.60391E-09 -4.57706E-09 -4.54817E-09 -4.51724E-09 -4.48425E-09 -4.44920E-09 -4.41208E-09 -4.37287E-09
  -4.33156E-09 -4.28816E-09 -4.24266E-09
 NY background values follow
     1.374E-09    1.432E-09    1.490E-09    1.548E-09    1.607E-09    1.665E-09    1.724E-09    1.782E-09    1.841E-09    1.900E-09
     1.960E-09    2.019E-09    2.079E-09    2.138E-09    2.198E-09    2.258E-09    2.318E-09    2.378E-09    2.438E-09    2.499E-09
     2.559E-09    2.620E-09    2.681E-09    2.742E-09    2.803E-09    2.864E-09    2.925E-09    2.987E-09    3.048E-09    3.110E-09
     3.172E-09    3.234E-09    3.296E-09    3.358E-09    3.421E-09    3.483E-09    3.546E-09    3.608E-09    3.671E-09    3.734E-09
     3.798E-09    3.861E-09    3.924E-09    3.988E-09    4.052E-09    4.116E-09    4.180E-09    4.244E-09    4.308E-09    4.373E-09
     4.437E-09    4.502E-09    4.567E-09    4.632E-09    4.697E-09    4.762E-09    4.827E-09    4.893E-09    4.958E-09    5.024E-09
     5.089E-09    5.155E-09    5.221E-09    5.286E-09    5.352E-09    5.418E-09    5.484E-09    5.550E-09    5.616E-09    5.682E-09
     5.748E-09    5.814E-09    5.880E-09    5.946E-09    6.013E-09    6.079E-09    6.145E-09    6.211E-09    6.277E-09    6.343E-09
     6.409E-09    6.475E-09    6.541E-09    6.606E-09    6.672E-09    6.737E-09    6.802E-09    6.867E-09    6.932E-09    6.996E-09
     7.060E-09    7.123E-09    7.186E-09    7.248E-09    7.310E-09    7.371E-09    7.432E-09    7.492E-09    7.551E-09    7.609E-09
     7.666E-09    7.723E-09    7.778E-09    7.833E-09    7.886E-09    7.939E-09    7.990E-09    8.040E-09    8.088E-09    8.136E-09
     8.181E-09    8.226E-09    8.269E-09    8.310E-09    8.350E-09    8.388E-09    8.425E-09    8.459E-09    8.492E-09    8.523E-09
     8.552E-09    8.579E-09    8.604E-09    8.627E-09    8.647E-09    8.664E-09    8.679E-09    8.690E-09    8.698E-09    8.703E-09
     8.704E-09    8.701E-09    8.694E-09    8.683E-09    8.667E-09    8.646E-09    8.620E-09    8.590E-09    8.553E-09    8.512E-09
     8.464E-09    8.411E-09    8.351E-09    8.285E-09    8.212E-09    8.132E-09    8.045E-09    7.951E-09    7.849E-09    7.740E-09
     7.623E-09    7.497E-09    7.363E-09    7.221E-09    7.069E-09    6.909E-09    6.740E-09    6.561E-09    6.372E-09    6.174E-09
     5.965E-09    5.747E-09    5.518E-09    5.279E-09    5.032E-09    4.775E-09    4.511E-09    4.239E-09    3.961E-09    3.676E-09
     3.385E-09    3.090E-09    2.790E-09    2.487E-09    2.181E-09    1.872E-09    1.561E-09    1.249E-09    9.364E-10    6.240E-10
     3.123E-10    1.940E-12   -3.064E-10   -6.121E-10   -9.146E-10   -1.213E-09   -1.507E-09   -1.796E-09   -2.079E-09   -2.355E-09
    -2.624E-09   -2.886E-09   -3.139E-09   -3.384E-09   -3.618E-09   -3.842E-09   -4.056E-09   -4.258E-09   -4.448E-09   -4.625E-09
    -4.789E-09   -4.940E-09   -5.075E-09   -5.197E-09   -5.305E-09   -5.400E-09   -5.482E-09   -5.552E-09   -5.610E-09   -5.656E-09
    -5.691E-09   -5.716E-09   -5.731E-09   -5.736E-09   -5.732E-09   -5.720E-09   -5.699E-09   -5.670E-09   -5.634E-09   -5.591E-09
    -5.542E-09   -5.487E-09   -5.427E-09   -5.361E-09   -5.291E-09   -5.217E-09   -5.139E-09   -5.058E-09   -4.974E-09   -4.888E-09
    -4.800E-09   -4.711E-09   -4.620E-09   -4.529E-09   -4.438E-09   -4.348E-09   -4.258E-09   -4.169E-09   -4.081E-09   -3.996E-09
    -3.913E-09   -3.833E-09   -3.755E-09   -3.682E-09   -3.611E-09   -3.543E-09   -3.479E-09   -3.417E-09   -3.359E-09   -3.304E-09
    -3.252E-09   -3.203E-09   -3.156E-09   -3.113E-09   -3.072E-09   -3.034E-09   -2.999E-09   -2.967E-09   -2.937E-09   -2.910E-09
    -2.886E-09   -2.864E-09   -2.844E-09   -2.827E-09   -2.813E-09   -2.801E-09   -2.791E-09   -2.783E-09   -2.777E-09   -2.774E-09
    -2.773E-09   -2.774E-09   -2.776E-09   -2.781E-09   -2.788E-09   -2.796E-09   -2.807E-09   -2.819E-09   -2.833E-09   -2.848E-09
    -2.865E-09   -2.884E-09   -2.904E-09   -2.925E-09   -2.948E-09   -2.972E-09   -2.997E-09   -3.023E-09   -3.050E-09   -3.079E-09
    -3.108E-09   -3.138E-09   -3.169E-09   -3.200E-09   -3.232E-09   -3.264E-09   -3.297E-09   -3.330E-09   -3.364E-09   -3.398E-09
    -3.432E-09   -3.466E-09   -3.500E-09   -3.534E-09   -3.568E-09   -3.602E-09   -3.635E-09   -3.668E-09   -3.701E-09   -3.734E-09
    -3.766E-09   -3.797E-09   -3.828E-09   -3.858E-09   -3.887E-09   -3.916E-09   -3.944E-09   -3.971E-09   -3.997E-09   -4.021E-09
    -4.045E-09   -4.068E-09   -4.090E-09   -4.110E-09   -4.129E-09   -4.147E-09   -4.164E-09   -4.179E-09   -4.193E-09   -4.205E-09
    -4.216E-09   -4.226E-09   -4.234E-09   -4.240E-09   -4.245E-09   -4.248E-09   -4.250E-09   -4.250E-09   -4.248E-09   -4.245E-09
    -4.240E-09   -4.233E-09   -4.224E-09   -4.214E-09   -4.201E-09   -4.187E-09   -4.171E-09   -4.153E-09   -4.133E-09   -4.112E-09
    -4.088E-09   -4.062E-09   -4.035E-09   -4.005E-09   -3.974E-09   -3.940E-09   -3.904E-09   -3.867E-09   -3.827E-09   -3.785E-09
    -3.741E-09   -3.695E-09   -3.647E-09
 GABA     Conc. = 5.04E-10
   1.13270E-09  1.18620E-09  1.23967E-09  1.29310E-09  1.34646E-09  1.39973E-09  1.45288E-09  1.50589E-09  1.55871E-09  1.61131E-09
   1.66365E-09  1.71568E-09  1.76737E-09  1.81864E-09  1.86942E-09  1.91967E-09  1.96925E-09  2.01805E-09  2.06595E-09  2.11277E-09
   2.15830E-09  2.20230E-09  2.24444E-09  2.28430E-09  2.32143E-09  2.35512E-09  2.38464E-09  2.40957E-09  2.43228E-09  2.48470E-09
   2.57340E-09  2.64861E-09  2.76421E-09  2.95234E-09  3.15324E-09  3.36946E-09  3.61374E-09  3.87077E-09  4.11876E-09  4.31843E-09
   4.43896E-09  4.58288E-09  4.73664E-09  4.68902E-09  4.62613E-09  4.67174E-09  4.64921E-09  4.59217E-09  4.56770E-09  4.56384E-09
   4.57301E-09  4.59086E-09  4.61458E-09  4.64242E-09  4.67316E-09  4.70570E-09  4.73926E-09  4.77319E-09  4.80703E-09  4.84109E-09
   4.87778E-09  4.93199E-09  5.04946E-09  5.17489E-09  5.29974E-09  5.50667E-09  5.73515E-09  5.94789E-09  6.16770E-09  6.38440E-09
   6.58412E-09  6.73759E-09  6.80281E-09  6.80829E-09  6.90529E-09  6.87788E-09  6.69984E-09  6.69367E-09  6.70708E-09  6.65521E-09
   6.65918E-09  6.68059E-09  6.70397E-09  6.78576E-09  6.89009E-09  6.98633E-09  7.11465E-09  7.26210E-09  7.41606E-09  7.58032E-09
   7.70577E-09  7.80984E-09  7.97425E-09  8.06860E-09  8.04774E-09  8.12520E-09  8.19076E-09  8.14737E-09  8.14827E-09  8.17100E-09
   8.16995E-09  8.17643E-09  8.19176E-09  8.21325E-09  8.23899E-09  8.26754E-09  8.29795E-09  8.32957E-09  8.36193E-09  8.39469E-09
   8.42752E-09  8.46005E-09  8.49206E-09  8.52335E-09  8.55377E-09  8.58323E-09  8.61160E-09  8.63873E-09  8.66447E-09  8.68876E-09
   8.71143E-09  8.73247E-09  8.75171E-09  8.76893E-09  8.78392E-09  8.79646E-09  8.80634E-09  8.81332E-09  8.81719E-09  8.81775E-09
   8.81477E-09  8.80803E-09  8.79732E-09  8.78243E-09  8.76311E-09  8.73917E-09  8.71040E-09  8.67653E-09  8.63738E-09  8.59273E-09
   8.54235E-09  8.48602E-09  8.42354E-09  8.35466E-09  8.27917E-09  8.19685E-09  8.10748E-09  8.01084E-09  7.90674E-09  7.79492E-09
   7.67517E-09  7.54729E-09  7.41108E-09  7.26627E-09  7.11271E-09  6.95015E-09  6.77842E-09  6.59729E-09  6.40657E-09  6.20610E-09
   5.99581E-09  5.77553E-09  5.54558E-09  5.30704E-09  5.06218E-09  4.81712E-09  4.60113E-09  4.51793E-09  4.46025E-09  4.37100E-09
   4.22295E-09  4.01131E-09  3.75764E-09  3.48674E-09  3.21607E-09  2.92508E-09  2.54541E-09  1.96899E-09  1.24853E-09  8.11407E-10
   4.50780E-10  1.14050E-10 -2.11117E-10 -5.28660E-10 -8.39972E-10 -1.14547E-09 -1.44511E-09 -1.73863E-09 -2.02563E-09 -2.30562E-09
  -2.57809E-09 -2.84250E-09 -3.09825E-09 -3.34481E-09 -3.58156E-09 -3.80789E-09 -4.02327E-09 -4.22703E-09 -4.41863E-09 -4.59750E-09
  -4.76298E-09 -4.91455E-09 -5.05171E-09 -5.17471E-09 -5.28397E-09 -5.37995E-09 -5.46309E-09 -5.53385E-09 -5.59269E-09 -5.64006E-09
  -5.67642E-09 -5.70222E-09 -5.71793E-09 -5.72401E-09 -5.72091E-09 -5.70912E-09 -5.68907E-09 -5.66123E-09 -5.62609E-09 -5.58407E-09
  -5.53566E-09 -5.48131E-09 -5.42148E-09 -5.35664E-09 -5.28721E-09 -5.21370E-09 -5.13650E-09 -5.05613E-09 -4.97298E-09 -4.88750E-09
  -4.80017E-09 -4.71141E-09 -4.62165E-09 -4.53131E-09 -4.44086E-09 -4.35067E-09 -4.26122E-09 -4.17285E-09 -4.08605E-09 -4.00117E-09
  -3.91865E-09 -3.83885E-09 -3.76216E-09 -3.68870E-09 -3.61845E-09 -3.55138E-09 -3.48744E-09 -3.42659E-09 -3.36881E-09 -3.31405E-09
  -3.26229E-09 -3.21349E-09 -3.16758E-09 -3.12455E-09 -3.08435E-09 -3.04696E-09 -3.01230E-09 -2.98035E-09 -2.95107E-09 -2.92440E-09
  -2.90032E-09 -2.87876E-09 -2.85968E-09 -2.84307E-09 -2.82883E-09 -2.81693E-09 -2.80733E-09 -2.80000E-09 -2.79486E-09 -2.79186E-09
  -2.79098E-09 -2.79213E-09 -2.79529E-09 -2.80041E-09 -2.80743E-09 -2.81627E-09 -2.82693E-09 -2.83931E-09 -2.85338E-09 -2.86909E-09
  -2.88639E-09 -2.90519E-09 -2.92548E-09 -2.94717E-09 -2.97020E-09 -2.99447E-09 -3.01993E-09 -3.04649E-09 -3.07407E-09 -3.10261E-09
  -3.13203E-09 -3.16224E-09 -3.19319E-09 -3.22480E-09 -3.25699E-09 -3.28970E-09 -3.32284E-09 -3.35636E-09 -3.39017E-09 -3.42421E-09
  -3.45842E-09 -3.49271E-09 -3.52703E-09 -3.56131E-09 -3.59548E-09 -3.62946E-09 -3.66322E-09 -3.69666E-09 -3.72974E-09 -3.76238E-09
  -3.79454E-09 -3.82614E-09 -3.85713E-09 -3.88745E-09 -3.91703E-09 -3.94584E-09 -3.97380E-09 -4.00086E-09 -4.02697E-09 -4.05207E-09
  -4.07612E-09 -4.09906E-09 -4.12084E-09 -4.14142E-09 -4.16075E-09 -4.17881E-09 -4.19556E-09 -4.21096E-09 -4.22497E-09 -4.23757E-09
  -4.24873E-09 -4.25840E-09 -4.26655E-09 -4.27317E-09 -4.27821E-09 -4.28165E-09 -4.28346E-09 -4.28361E-09 -4.28207E-09 -4.27882E-09
  -4.27383E-09 -4.26709E-09 -4.25856E-09 -4.24822E-09 -4.23605E-09 -4.22203E-09 -4.20613E-09 -4.18835E-09 -4.16865E-09 -4.14703E-09
  -4.12347E-09 -4.09794E-09 -4.07043E-09 -4.04094E-09 -4.00945E-09 -3.97593E-09 -3.94039E-09 -3.90281E-09 -3.86319E-09 -3.82150E-09
  -3.77776E-09 -3.73194E-09 -3.68404E-09
 Glc      Conc. = 2.04E-10
   1.12582E-09  1.25010E-09  1.36132E-09  1.48447E-09  1.60946E-09  1.73727E-09  1.83866E-09  1.93548E-09  2.00655E-09  2.02253E-09
   2.03857E-09  2.05854E-09  2.07517E-09  2.11307E-09  2.19468E-09  2.30755E-09  2.43934E-09  2.59258E-09  2.74303E-09  2.87864E-09
   3.01717E-09  3.15548E-09  3.28600E-09  3.41434E-09  3.49714E-09  3.50192E-09  3.49289E-09  3.50303E-09  3.53511E-09  3.58652E-09
   3.63527E-09  3.67620E-09  3.72705E-09  3.77817E-09  3.81372E-09  3.85214E-09  3.89898E-09  3.94127E-09  3.97986E-09  4.02247E-09
   4.06863E-09  4.11721E-09  4.16775E-09  4.21984E-09  4.27323E-09  4.32773E-09  4.38319E-09  4.43948E-09  4.49651E-09  4.55421E-09
   4.61249E-09  4.67131E-09  4.73061E-09  4.79037E-09  4.85054E-09  4.91108E-09  4.97197E-09  5.03317E-09  5.09468E-09  5.15646E-09
   5.21849E-09  5.28077E-09  5.34326E-09  5.40596E-09  5.46885E-09  5.53191E-09  5.59514E-09  5.65850E-09  5.72201E-09  5.78564E-09
   5.84938E-09  5.91322E-09  5.97715E-09  6.04116E-09  6.10523E-09  6.16935E-09  6.23352E-09  6.29775E-09  6.36197E-09  6.42622E-09
   6.49048E-09  6.55474E-09  6.61896E-09  6.68311E-09  6.74716E-09  6.81106E-09  6.87477E-09  6.93825E-09  7.00144E-09  7.06433E-09
   7.12686E-09  7.18897E-09  7.25064E-09  7.31181E-09  7.37244E-09  7.43247E-09  7.49186E-09  7.55057E-09  7.60854E-09  7.66572E-09
   7.72205E-09  7.77750E-09  7.83202E-09  7.88553E-09  7.93800E-09  7.98937E-09  8.03960E-09  8.08861E-09  8.13636E-09  8.18280E-09
   8.22787E-09  8.27151E-09  8.31367E-09  8.35429E-09  8.39332E-09  8.43069E-09  8.46636E-09  8.50028E-09  8.53236E-09  8.56258E-09
   8.59082E-09  8.61710E-09  8.64127E-09  8.66314E-09  8.68253E-09  8.69925E-09  8.71308E-09  8.72384E-09  8.73131E-09  8.73530E-09
   8.73560E-09  8.73200E-09  8.72429E-09  8.71229E-09  8.69574E-09  8.67446E-09  8.64826E-09  8.61687E-09  8.58011E-09  8.53778E-09
   8.48963E-09  8.43548E-09  8.37510E-09  8.30826E-09  8.23476E-09  8.15438E-09  8.06691E-09  7.97211E-09  7.86982E-09  7.75978E-09
   7.64176E-09  7.51559E-09  7.38106E-09  7.23791E-09  7.08598E-09  6.92503E-09  6.75489E-09  6.57532E-09  6.38612E-09  6.18711E-09
   5.97818E-09  5.75908E-09  5.52995E-09  5.29154E-09  5.04509E-09  4.79347E-09  4.54908E-09  4.35416E-09  4.16527E-09  3.95977E-09
   3.72707E-09  3.46567E-09  3.18472E-09  2.89467E-09  2.60287E-09  2.30126E-09  1.96233E-09  1.54271E-09  1.06524E-09  7.02955E-10
   3.71634E-10  5.07160E-11 -2.64366E-10 -5.74803E-10 -8.80767E-10 -1.18205E-09 -1.47825E-09 -1.76887E-09 -2.05340E-09 -2.33123E-09
  -2.60179E-09 -2.86448E-09 -3.11867E-09 -3.36382E-09 -3.59926E-09 -3.82438E-09 -4.03863E-09 -4.24134E-09 -4.43194E-09 -4.60988E-09
  -4.77447E-09 -4.92520E-09 -5.06155E-09 -5.18379E-09 -5.29231E-09 -5.38759E-09 -5.47005E-09 -5.54016E-09 -5.59837E-09 -5.64514E-09
  -5.68090E-09 -5.70614E-09 -5.72130E-09 -5.72685E-09 -5.72323E-09 -5.71093E-09 -5.69039E-09 -5.66208E-09 -5.62647E-09 -5.58400E-09
  -5.53515E-09 -5.48037E-09 -5.42013E-09 -5.35487E-09 -5.28505E-09 -5.21114E-09 -5.13357E-09 -5.05282E-09 -4.96930E-09 -4.88347E-09
  -4.79579E-09 -4.70668E-09 -4.61659E-09 -4.52592E-09 -4.43514E-09 -4.34464E-09 -4.25487E-09 -4.16621E-09 -4.07910E-09 -3.99393E-09
