 LCModel (Version 6.3-1R) Copyright: S.W. Provencher.          Ref.: Magn. Reson. Med. 30:672-679 (1993).                
 onepulse 20x8_ftSpec_smooth_lcm
 26 lines in following concentration table = NCONC+1
    Conc.  %SD /Cr+PCr  Metabolite                                         
    0.000 999%   0.000 Ala                                                 
    0.000 999%   0.000 Asp                                                 
    0.000 999%   0.000 Cr                                                  
 1.83E-10 376%   0.444 GABA                                                
    0.000 999%   0.000 Glc                                                 
 1.93E-09  31%   4.690 Gln                                                 
    0.000 999%   0.000 Glu                                                 
    0.000 999%   0.000 Glyc                                                
 1.75E-10  65%   0.424 GPC                                                 
    0.000 999%   0.000 GSH                                                 
 1.37E-09  29%   3.322 Ins                                                 
    0.000 999%   0.000 Lac                                                 
 1.28E-10 274%   0.310 NAAG                                                
 5.68E-10  86%   1.379 NAA                                                 
    0.000 999%   0.000 PCh                                                 
 4.12E-10  75%   1.000 PCr                                                 
    0.000 999%   0.000 PE                                                  
 9.83E-11 285%   0.239 Scyllo                                              
 3.36E-09  27%   8.167 Ser                                                 
 6.74E-10 130%   1.638 Tau                                                 
 1.75E-10  65%   0.424 GPC+PCh                                             
 6.96E-10  41%   1.690 NAA+NAAG                                            
 1.37E-09  29%   3.322 Ins+Glyc                                            
 4.12E-10  75%   1.000 Cr+PCr                                              
 1.93E-09  31%   4.690 Glu+Gln                                             
   6 lines in following misc. output table
  FWHM = 0.101 ppm    S/N =   3                                            
  Data shift = 0.380 ppm                                                   
  Ph:   4 deg     -29.8 deg/ppm                                            
  alphaB,S = 3.7E-01,   4.6E+01                                            
   11 spline knots.   Ns = 5(1)                                            
  ( 9) 2 infls.   ( 7) 1 extrs.                                            
  363 points on ppm-axis = NY
      4.250000     4.238821     4.227641     4.216462     4.205282     4.194103     4.182923     4.171744     4.160564     4.149385
      4.138206     4.127026     4.115847     4.104667     4.093488     4.082308     4.071129     4.059949     4.048770     4.037591
      4.026411     4.015232     4.004052     3.992873     3.981693     3.970514     3.959334     3.948155     3.936975     3.925796
      3.914617     3.903437     3.892258     3.881078     3.869899     3.858719     3.847540     3.836360     3.825181     3.814002
      3.802822     3.791643     3.780463     3.769284     3.758104     3.746925     3.735745     3.724566     3.713387     3.702207
      3.691028     3.679848     3.668669     3.657489     3.646310     3.635130     3.623951     3.612772     3.601592     3.590413
      3.579233     3.568054     3.556874     3.545695     3.534515     3.523336     3.512156     3.500977     3.489798     3.478618
      3.467439     3.456259     3.445080     3.433900     3.422721     3.411541     3.400362     3.389183     3.378003     3.366824
      3.355644     3.344465     3.333285     3.322106     3.310926     3.299747     3.288568     3.277388     3.266209     3.255029
      3.243850     3.232670     3.221491     3.210311     3.199132     3.187953     3.176773     3.165594     3.154414     3.143235
      3.132055     3.120876     3.109696     3.098517     3.087337     3.076158     3.064979     3.053799     3.042620     3.031440
      3.020261     3.009081     2.997902     2.986722     2.975543     2.964364     2.953184     2.942005     2.930825     2.919646
      2.908466     2.897287     2.886107     2.874928     2.863749     2.852569     2.841390     2.830210     2.819031     2.807851
      2.796672     2.785492     2.774313     2.763134     2.751954     2.740775     2.729595     2.718416     2.707236     2.696057
      2.684877     2.673698     2.662519     2.651339     2.640160     2.628980     2.617801     2.606621     2.595442     2.584262
      2.573083     2.561903     2.550724     2.539545     2.528365     2.517186     2.506006     2.494827     2.483647     2.472468
      2.461288     2.450109     2.438930     2.427750     2.416571     2.405391     2.394212     2.383032     2.371853     2.360673
      2.349494     2.338315     2.327135     2.315956     2.304776     2.293597     2.282417     2.271238     2.260058     2.248879
      2.237700     2.226520     2.215341     2.204161     2.192982     2.181802     2.170623     2.159443     2.148264     2.137084
      2.125905     2.114726     2.103546     2.092367     2.081187     2.070008     2.058828     2.047649     2.036469     2.025290
      2.014111     2.002931     1.991752     1.980572     1.969393     1.958213     1.947034     1.935854     1.924675     1.913496
      1.902316     1.891137     1.879957     1.868778     1.857598     1.846419     1.835239     1.824060     1.812881     1.801701
      1.790522     1.779342     1.768163     1.756983     1.745804     1.734624     1.723445     1.712265     1.701086     1.689907
      1.678727     1.667548     1.656368     1.645189     1.634009     1.622830     1.611650     1.600471     1.589292     1.578112
      1.566933     1.555753     1.544574     1.533394     1.522215     1.511035     1.499856     1.488677     1.477497     1.466318
      1.455138     1.443959     1.432779     1.421600     1.410420     1.399241     1.388062     1.376882     1.365703     1.354523
      1.343344     1.332164     1.320985     1.309805     1.298626     1.287446     1.276267     1.265088     1.253908     1.242729
      1.231549     1.220370     1.209190     1.198011     1.186831     1.175652     1.164473     1.153293     1.142114     1.130934
      1.119755     1.108575     1.097396     1.086216     1.075037     1.063858     1.052678     1.041499     1.030319     1.019140
      1.007960     0.996781     0.985601     0.974422     0.963243     0.952063     0.940884     0.929704     0.918525     0.907345
      0.896166     0.884986     0.873807     0.862628     0.851448     0.840269     0.829089     0.817910     0.806730     0.795551
      0.784371     0.773192     0.762012     0.750833     0.739654     0.728474     0.717295     0.706115     0.694936     0.683756
      0.672577     0.661397     0.650218     0.639039     0.627859     0.616680     0.605500     0.594321     0.583141     0.571962
      0.560782     0.549603     0.538424     0.527244     0.516065     0.504885     0.493706     0.482526     0.471347     0.460167
      0.448988     0.437809     0.426629     0.415450     0.404270     0.393091     0.381911     0.370732     0.359552     0.348373
      0.337193     0.326014     0.314835     0.303655     0.292476     0.281296     0.270117     0.258937     0.247758     0.236578
      0.225399     0.214220     0.203040
 NY phased data points follow
   7.11687E-09  6.97487E-09  6.86353E-09  6.47373E-09  6.46076E-09  5.42920E-09  5.70464E-09  5.32050E-09  5.81591E-09  5.54866E-09
   6.46700E-09  5.96179E-09  7.27708E-09  7.68735E-09  8.77696E-09  7.65459E-09  8.25280E-09  7.85905E-09  8.29688E-09  7.53999E-09
   8.86450E-09  7.99242E-09  8.28878E-09  7.90047E-09  8.59045E-09  7.86224E-09  8.69012E-09  7.32218E-09  9.24990E-09  8.91490E-09
   1.06157E-08  1.09826E-08  1.18423E-08  1.18365E-08  1.25410E-08  1.12721E-08  1.10945E-08  1.08752E-08  1.10987E-08  1.08225E-08
   1.06661E-08  1.05253E-08  1.06389E-08  9.67452E-09  9.73443E-09  8.88452E-09  9.61838E-09  8.39046E-09  8.68871E-09  8.09361E-09
   8.23898E-09  7.30726E-09  8.09819E-09  6.91972E-09  6.04444E-09  5.25290E-09  5.46080E-09  4.95612E-09  5.50988E-09  5.66737E-09
   7.95643E-09  9.19648E-09  1.04604E-08  1.17004E-08  1.22673E-08  1.15829E-08  1.19456E-08  1.04932E-08  1.08844E-08  9.74065E-09
   8.79888E-09  7.10872E-09  6.55049E-09  6.25624E-09  5.54958E-09  5.68716E-09  6.66309E-09  8.15832E-09  1.15608E-08  1.30583E-08
   1.43986E-08  1.42371E-08  1.51210E-08  1.46777E-08  1.50267E-08  1.44548E-08  1.47769E-08  1.48902E-08  1.43176E-08  1.43117E-08
   1.45807E-08  1.39565E-08  1.37235E-08  1.34404E-08  1.30555E-08  1.18741E-08  1.23903E-08  1.17531E-08  1.13347E-08  1.10611E-08
   1.13928E-08  1.10802E-08  1.11488E-08  1.08580E-08  1.07120E-08  9.70335E-09  1.02379E-08  9.71178E-09  9.09893E-09  8.01018E-09
   8.17253E-09  8.18021E-09  8.58710E-09  8.08060E-09  8.80467E-09  8.97142E-09  9.17116E-09  8.62320E-09  8.96218E-09  8.48204E-09
   8.94299E-09  7.80702E-09  7.92183E-09  7.00590E-09  7.30725E-09  6.37533E-09  7.10361E-09  6.19580E-09  6.77180E-09  7.07046E-09
   6.64420E-09  6.83695E-09  7.05904E-09  6.92897E-09  6.79731E-09  6.52042E-09  7.57213E-09  6.57580E-09  8.49015E-09  8.60380E-09
   9.71666E-09  9.22847E-09  9.73450E-09  9.78444E-09  1.04547E-08  9.53764E-09  1.06890E-08  1.05395E-08  1.04262E-08  9.82132E-09
   1.02859E-08  9.59901E-09  9.39677E-09  9.45432E-09  9.40091E-09  9.06623E-09  8.48221E-09  8.75079E-09  8.34445E-09  8.45540E-09
   8.51490E-09  7.99832E-09  7.76260E-09  6.85173E-09  7.15852E-09  7.09832E-09  7.41138E-09  7.81988E-09  1.06549E-08  1.41444E-08
   1.70205E-08  1.78940E-08  1.86770E-08  1.80344E-08  1.84674E-08  1.68963E-08  1.56577E-08  1.42324E-08  1.36551E-08  1.22628E-08
   1.08107E-08  9.01922E-09  7.53356E-09  5.01957E-09  3.12345E-09  7.86680E-10 -1.40860E-09 -4.67306E-09 -6.05025E-09 -8.01897E-09
  -9.85586E-09 -1.18916E-08 -1.29679E-08 -1.38945E-08 -1.47984E-08 -1.54361E-08 -1.47089E-08 -1.46646E-08 -1.38399E-08 -1.26247E-08
  -1.19768E-08 -1.05378E-08 -9.18871E-09 -8.69755E-09 -7.11578E-09 -6.16201E-09 -5.39094E-09 -4.66343E-09 -3.55743E-09 -4.14140E-09
  -3.65669E-09 -3.54806E-09 -3.79797E-09 -3.86126E-09 -3.54027E-09 -3.84160E-09 -3.56347E-09 -3.66427E-09 -3.47199E-09 -3.45602E-09
  -2.59933E-09 -3.15505E-09 -2.43702E-09 -2.95022E-09 -3.28364E-09 -3.25285E-09 -2.97759E-09 -2.92714E-09 -3.21351E-09 -3.12192E-09
  -1.91720E-09 -2.97156E-09 -2.70455E-09 -3.00425E-09 -2.55931E-09 -2.66621E-09 -2.52276E-09 -2.97669E-09 -2.47127E-09 -3.26284E-09
  -2.69979E-09 -2.72444E-09 -3.23658E-09 -3.28253E-09 -2.59785E-09 -2.39639E-09 -2.63181E-09 -2.22290E-09 -1.84812E-09 -1.85117E-09
  -2.26168E-09 -2.18241E-09 -1.60267E-09 -2.02533E-09 -2.08760E-09 -2.39125E-09 -1.93278E-09 -2.50889E-09 -3.23172E-09 -2.90603E-09
  -3.21292E-09 -3.35686E-09 -3.27392E-09 -3.10282E-09 -3.51119E-09 -3.06063E-09 -2.64924E-09 -3.28684E-09 -2.02419E-09 -2.67891E-09
  -1.88170E-09 -1.64265E-09 -1.29929E-09 -1.59896E-09 -5.90410E-10 -9.64580E-10 -7.93353E-10 -1.27236E-09 -1.22057E-09 -1.59169E-09
  -1.41326E-09 -1.29613E-09 -2.05428E-09 -2.06135E-09 -1.39893E-09 -1.62232E-09 -1.63595E-09 -2.70944E-09 -2.55647E-09 -2.58023E-09
  -2.20661E-09 -2.56514E-09 -2.60018E-09 -2.85903E-09 -2.53535E-09 -2.95028E-09 -2.58200E-09 -3.07294E-09 -3.04828E-09 -2.94321E-09
  -3.40446E-09 -2.89895E-09 -2.79045E-09 -3.61141E-09 -3.17000E-09 -3.26915E-09 -3.62518E-09 -3.55410E-09 -3.40745E-09 -3.50331E-09
  -3.95241E-09 -3.28667E-09 -3.86432E-09 -3.06943E-09 -3.34183E-09 -3.76273E-09 -3.38245E-09 -3.62733E-09 -3.44984E-09 -3.01920E-09
  -3.67157E-09 -3.76566E-09 -3.50773E-09 -3.42598E-09 -3.17852E-09 -3.85399E-09 -3.23778E-09 -3.03831E-09 -3.51855E-09 -3.20443E-09
  -3.18381E-09 -3.32695E-09 -3.39144E-09 -3.56255E-09 -2.75978E-09 -3.23793E-09 -3.26297E-09 -2.91206E-09 -3.46510E-09 -3.28762E-09
  -2.89592E-09 -2.97446E-09 -3.07641E-09 -2.79049E-09 -3.41983E-09 -3.19339E-09 -2.89363E-09 -2.66413E-09 -2.67910E-09 -2.89660E-09
  -2.93148E-09 -2.84767E-09 -2.85518E-09 -2.74836E-09 -2.63297E-09 -2.67351E-09 -2.04920E-09 -2.46123E-09 -2.25984E-09 -2.48076E-09
  -2.27817E-09 -1.96637E-09 -2.06891E-09
 NY points of the fit to the data follow
   5.90460E-09  7.01740E-09  7.02017E-09  6.47598E-09  6.53056E-09  6.76169E-09  6.66238E-09  6.15034E-09  5.55018E-09  5.37923E-09
   5.59162E-09  5.88143E-09  6.42313E-09  7.00688E-09  7.64692E-09  8.11911E-09  8.39178E-09  8.83435E-09  9.17147E-09  8.84614E-09
   8.19034E-09  7.64710E-09  7.28101E-09  7.00852E-09  7.10020E-09  7.57097E-09  8.32264E-09  9.07574E-09  9.66622E-09  1.00856E-08
   1.05732E-08  1.09470E-08  1.13644E-08  1.15771E-08  1.14437E-08  1.09879E-08  1.06928E-08  1.05520E-08  1.05597E-08  1.06724E-08
   1.07833E-08  1.07118E-08  1.02262E-08  9.38799E-09  8.86424E-09  8.52210E-09  8.23496E-09  7.97355E-09  7.73641E-09  7.53986E-09
   7.37387E-09  7.23716E-09  7.11837E-09  6.98994E-09  6.87655E-09  6.94782E-09  7.14779E-09  7.43972E-09  7.96159E-09  8.64096E-09
   9.29002E-09  9.92142E-09  1.05156E-08  1.10283E-08  1.13844E-08  1.15098E-08  1.14150E-08  1.12334E-08  1.07641E-08  1.00744E-08
   9.60905E-09  9.29343E-09  8.99992E-09  8.80911E-09  8.73989E-09  8.82913E-09  9.08531E-09  9.79498E-09  1.09586E-08  1.22899E-08
   1.35786E-08  1.46493E-08  1.53533E-08  1.59132E-08  1.64270E-08  1.65494E-08  1.61709E-08  1.53578E-08  1.40940E-08  1.30859E-08
   1.24932E-08  1.20873E-08  1.17924E-08  1.15410E-08  1.13128E-08  1.11358E-08  1.09748E-08  1.08125E-08  1.06761E-08  1.05537E-08
   1.04390E-08  1.03382E-08  1.02470E-08  1.01623E-08  1.00846E-08  1.00127E-08  9.94521E-09  9.88127E-09  9.82001E-09  9.76083E-09
   9.70317E-09  9.64651E-09  9.59043E-09  9.53453E-09  9.47846E-09  9.42191E-09  9.36461E-09  9.30622E-09  9.24649E-09  9.18519E-09
   9.12208E-09  9.05694E-09  8.98957E-09  8.91974E-09  8.84730E-09  8.77202E-09  8.69374E-09  8.61229E-09  8.52749E-09  8.43915E-09
   8.34714E-09  8.25129E-09  8.15145E-09  8.04746E-09  7.93916E-09  7.82646E-09  7.70914E-09  7.58717E-09  7.46065E-09  7.32968E-09
   7.19437E-09  7.05486E-09  6.91128E-09  6.76374E-09  6.61240E-09  6.45740E-09  6.29891E-09  6.13706E-09  5.97205E-09  5.80404E-09
   5.63326E-09  5.45988E-09  5.28417E-09  5.10640E-09  4.92688E-09  4.74602E-09  4.56429E-09  4.38235E-09  4.20110E-09  4.02183E-09
   3.84662E-09  3.67881E-09  3.52447E-09  3.39570E-09  3.32035E-09  3.37841E-09  3.90873E-09  6.50523E-09  1.03189E-08  1.39865E-08
   1.67213E-08  1.83775E-08  1.92358E-08  1.96316E-08  1.95815E-08  1.85541E-08  1.57187E-08  1.07153E-08  5.04044E-09  2.61625E-09
   1.67285E-09  1.11958E-09  7.22381E-10  4.04509E-10  1.33332E-10 -1.07420E-10 -3.26766E-10 -5.30163E-10 -7.21023E-10 -9.01671E-10
  -1.07366E-09 -1.23815E-09 -1.39590E-09 -1.54758E-09 -1.69362E-09 -1.83437E-09 -1.97009E-09 -2.10102E-09 -2.22730E-09 -2.34909E-09
  -2.46648E-09 -2.57957E-09 -2.68842E-09 -2.79308E-09 -2.89361E-09 -2.99006E-09 -3.08245E-09 -3.17080E-09 -3.25516E-09 -3.33551E-09
  -3.41189E-09 -3.48432E-09 -3.55282E-09 -3.61740E-09 -3.67804E-09 -3.73478E-09 -3.78763E-09 -3.83661E-09 -3.88172E-09 -3.92295E-09
  -3.96036E-09 -3.99392E-09 -4.02366E-09 -4.04961E-09 -4.07178E-09 -4.09014E-09 -4.10477E-09 -4.11568E-09 -4.12296E-09 -4.12679E-09
  -4.12730E-09 -4.12466E-09 -4.11902E-09 -4.11053E-09 -4.09935E-09 -4.08563E-09 -4.06950E-09 -4.05113E-09 -4.03066E-09 -4.00823E-09
  -3.98400E-09 -3.95809E-09 -3.93066E-09 -3.90185E-09 -3.87178E-09 -3.84061E-09 -3.80846E-09 -3.77547E-09 -3.74177E-09 -3.70749E-09
  -3.67275E-09 -3.63769E-09 -3.60242E-09 -3.56707E-09 -3.53175E-09 -3.49659E-09 -3.46169E-09 -3.42716E-09 -3.39312E-09 -3.35966E-09
  -3.32690E-09 -3.29494E-09 -3.26387E-09 -3.23378E-09 -3.20477E-09 -3.17692E-09 -3.15033E-09 -3.12507E-09 -3.10123E-09 -3.07887E-09
  -3.05809E-09 -3.03892E-09 -3.02146E-09 -3.00568E-09 -2.99151E-09 -2.97889E-09 -2.96774E-09 -2.95798E-09 -2.94954E-09 -2.94234E-09
  -2.93633E-09 -2.93142E-09 -2.92755E-09 -2.92464E-09 -2.92262E-09 -2.92143E-09 -2.92099E-09 -2.92125E-09 -2.92212E-09 -2.92355E-09
  -2.92548E-09 -2.92782E-09 -2.93054E-09 -2.93356E-09 -2.93681E-09 -2.94024E-09 -2.94379E-09 -2.94741E-09 -2.95102E-09 -2.95459E-09
  -2.95805E-09 -2.96134E-09 -2.96441E-09 -2.96722E-09 -2.96972E-09 -2.97184E-09 -2.97355E-09 -2.97480E-09 -2.97553E-09 -2.97572E-09
  -2.97531E-09 -2.97426E-09 -2.97253E-09 -2.97010E-09 -2.96690E-09 -2.96291E-09 -2.95810E-09 -2.95242E-09 -2.94587E-09 -2.93842E-09
  -2.93007E-09 -2.92081E-09 -2.91061E-09 -2.89949E-09 -2.88742E-09 -2.87441E-09 -2.86043E-09 -2.84548E-09 -2.82956E-09 -2.81266E-09
  -2.79476E-09 -2.77587E-09 -2.75597E-09 -2.73506E-09 -2.71313E-09 -2.69017E-09 -2.66619E-09 -2.64116E-09 -2.61510E-09 -2.58799E-09
  -2.55983E-09 -2.53062E-09 -2.50034E-09 -2.46901E-09 -2.43660E-09 -2.40313E-09 -2.36859E-09 -2.33296E-09 -2.29627E-09 -2.25849E-09
  -2.21962E-09 -2.17968E-09 -2.13866E-09 -2.09654E-09 -2.05335E-09 -2.00907E-09 -1.96370E-09 -1.91725E-09 -1.86971E-09 -1.82110E-09
  -1.77140E-09 -1.72062E-09 -1.66876E-09
 NY background values follow
     1.228E-09    1.317E-09    1.405E-09    1.493E-09    1.580E-09    1.667E-09    1.753E-09    1.839E-09    1.924E-09    2.009E-09
     2.093E-09    2.177E-09    2.261E-09    2.344E-09    2.426E-09    2.508E-09    2.590E-09    2.671E-09    2.751E-09    2.831E-09
     2.910E-09    2.989E-09    3.067E-09    3.145E-09    3.222E-09    3.299E-09    3.375E-09    3.451E-09    3.526E-09    3.601E-09
     3.675E-09    3.748E-09    3.821E-09    3.893E-09    3.965E-09    4.036E-09    4.107E-09    4.177E-09    4.246E-09    4.315E-09
     4.384E-09    4.451E-09    4.519E-09    4.585E-09    4.651E-09    4.717E-09    4.782E-09    4.846E-09    4.910E-09    4.973E-09
     5.036E-09    5.098E-09    5.159E-09    5.220E-09    5.280E-09    5.340E-09    5.399E-09    5.458E-09    5.515E-09    5.573E-09
     5.629E-09    5.686E-09    5.741E-09    5.796E-09    5.850E-09    5.904E-09    5.957E-09    6.010E-09    6.061E-09    6.113E-09
     6.163E-09    6.213E-09    6.263E-09    6.312E-09    6.360E-09    6.407E-09    6.454E-09    6.501E-09    6.546E-09    6.591E-09
     6.636E-09    6.680E-09    6.723E-09    6.765E-09    6.807E-09    6.849E-09    6.889E-09    6.929E-09    6.969E-09    7.007E-09
     7.045E-09    7.083E-09    7.120E-09    7.156E-09    7.191E-09    7.225E-09    7.258E-09    7.291E-09    7.322E-09    7.352E-09
     7.380E-09    7.407E-09    7.433E-09    7.457E-09    7.479E-09    7.499E-09    7.518E-09    7.534E-09    7.549E-09    7.561E-09
     7.571E-09    7.578E-09    7.583E-09    7.585E-09    7.585E-09    7.582E-09    7.576E-09    7.566E-09    7.554E-09    7.538E-09
     7.519E-09    7.496E-09    7.470E-09    7.440E-09    7.407E-09    7.369E-09    7.327E-09    7.281E-09    7.231E-09    7.176E-09
     7.117E-09    7.053E-09    6.984E-09    6.911E-09    6.833E-09    6.749E-09    6.660E-09    6.566E-09    6.467E-09    6.363E-09
     6.254E-09    6.141E-09    6.023E-09    5.900E-09    5.773E-09    5.642E-09    5.508E-09    5.369E-09    5.227E-09    5.081E-09
     4.932E-09    4.780E-09    4.625E-09    4.468E-09    4.307E-09    4.145E-09    3.980E-09    3.813E-09    3.644E-09    3.473E-09
     3.302E-09    3.128E-09    2.954E-09    2.779E-09    2.603E-09    2.426E-09    2.250E-09    2.073E-09    1.896E-09    1.719E-09
     1.543E-09    1.368E-09    1.193E-09    1.019E-09    8.470E-10    6.761E-10    5.068E-10    3.394E-10    1.739E-10    1.070E-11
    -1.501E-10   -3.083E-10   -4.638E-10   -6.164E-10   -7.661E-10   -9.129E-10   -1.057E-09   -1.198E-09   -1.335E-09   -1.470E-09
    -1.602E-09   -1.730E-09   -1.855E-09   -1.977E-09   -2.096E-09   -2.211E-09   -2.323E-09   -2.432E-09   -2.538E-09   -2.640E-09
    -2.738E-09   -2.833E-09   -2.925E-09   -3.013E-09   -3.098E-09   -3.179E-09   -3.256E-09   -3.330E-09   -3.401E-09   -3.468E-09
    -3.531E-09   -3.590E-09   -3.646E-09   -3.699E-09   -3.747E-09   -3.792E-09   -3.834E-09   -3.872E-09   -3.906E-09   -3.936E-09
    -3.963E-09   -3.986E-09   -4.006E-09   -4.022E-09   -4.034E-09   -4.043E-09   -4.048E-09   -4.049E-09   -4.047E-09   -4.042E-09
    -4.033E-09   -4.022E-09   -4.008E-09   -3.991E-09   -3.971E-09   -3.949E-09   -3.924E-09   -3.898E-09   -3.869E-09   -3.839E-09
    -3.807E-09   -3.773E-09   -3.738E-09   -3.702E-09   -3.664E-09   -3.626E-09   -3.586E-09   -3.546E-09   -3.505E-09   -3.464E-09
    -3.422E-09   -3.380E-09   -3.338E-09   -3.296E-09   -3.254E-09   -3.212E-09   -3.171E-09   -3.130E-09   -3.089E-09   -3.050E-09
    -3.011E-09   -2.973E-09   -2.935E-09   -2.899E-09   -2.864E-09   -2.830E-09   -2.798E-09   -2.767E-09   -2.737E-09   -2.709E-09
    -2.683E-09   -2.658E-09   -2.635E-09   -2.614E-09   -2.595E-09   -2.577E-09   -2.560E-09   -2.545E-09   -2.532E-09   -2.519E-09
    -2.508E-09   -2.498E-09   -2.489E-09   -2.482E-09   -2.475E-09   -2.469E-09   -2.464E-09   -2.459E-09   -2.455E-09   -2.452E-09
    -2.450E-09   -2.447E-09   -2.446E-09   -2.444E-09   -2.443E-09   -2.442E-09   -2.441E-09   -2.441E-09   -2.440E-09   -2.440E-09
    -2.439E-09   -2.438E-09   -2.437E-09   -2.436E-09   -2.435E-09   -2.433E-09   -2.431E-09   -2.428E-09   -2.425E-09   -2.422E-09
    -2.417E-09   -2.413E-09   -2.407E-09   -2.401E-09   -2.395E-09   -2.387E-09   -2.379E-09   -2.370E-09   -2.360E-09   -2.349E-09
    -2.337E-09   -2.325E-09   -2.312E-09   -2.297E-09   -2.282E-09   -2.266E-09   -2.249E-09   -2.231E-09   -2.212E-09   -2.192E-09
    -2.171E-09   -2.149E-09   -2.127E-09   -2.103E-09   -2.078E-09   -2.053E-09   -2.026E-09   -1.998E-09   -1.969E-09   -1.940E-09
    -1.909E-09   -1.877E-09   -1.844E-09   -1.811E-09   -1.776E-09   -1.740E-09   -1.703E-09   -1.665E-09   -1.626E-09   -1.586E-09
    -1.545E-09   -1.503E-09   -1.459E-09   -1.415E-09   -1.370E-09   -1.323E-09   -1.276E-09   -1.228E-09   -1.178E-09   -1.127E-09
    -1.076E-09   -1.023E-09   -9.695E-10
 GABA     Conc. = 1.83E-10
   1.13784E-09  1.22476E-09  1.31117E-09  1.39705E-09  1.48239E-09  1.56719E-09  1.65141E-09  1.73505E-09  1.81810E-09  1.90052E-09
   1.98231E-09  2.06344E-09  2.14390E-09  2.22364E-09  2.30265E-09  2.38089E-09  2.45832E-09  2.53488E-09  2.61052E-09  2.68518E-09
   2.75876E-09  2.83116E-09  2.90225E-09  2.97185E-09  3.03977E-09  3.10571E-09  3.16935E-09  3.23039E-09  3.28945E-09  3.35742E-09
   3.43879E-09  3.51748E-09  3.60771E-09  3.72440E-09  3.85141E-09  3.98450E-09  4.12598E-09  4.26961E-09  4.40550E-09  4.52387E-09
   4.62215E-09  4.71716E-09  4.79562E-09  4.82598E-09  4.85765E-09  4.90678E-09  4.93675E-09  4.96158E-09  4.99566E-09  5.03549E-09
   5.07882E-09  5.12431E-09  5.17108E-09  5.21856E-09  5.26631E-09  5.31399E-09  5.36128E-09  5.40797E-09  5.45389E-09  5.49907E-09
   5.54427E-09  5.59469E-09  5.66663E-09  5.74490E-09  5.82296E-09  5.92708E-09  6.04445E-09  6.15861E-09  6.27189E-09  6.38026E-09
   6.47600E-09  6.55034E-09  6.59886E-09  6.63240E-09  6.67088E-09  6.67197E-09  6.65144E-09  6.67114E-09  6.68964E-09  6.69533E-09
   6.71875E-09  6.74865E-09  6.77813E-09  6.82516E-09  6.88242E-09  6.93806E-09  7.00298E-09  7.07599E-09  7.15024E-09  7.22307E-09
   7.28640E-09  7.34569E-09  7.40906E-09  7.44817E-09  7.46569E-09  7.50082E-09  7.52392E-09  7.52456E-09  7.53608E-09  7.54988E-09
   7.55804E-09  7.56807E-09  7.57980E-09  7.59227E-09  7.60480E-09  7.61684E-09  7.62802E-09  7.63803E-09  7.64664E-09  7.65365E-09
   7.65884E-09  7.66201E-09  7.66302E-09  7.66169E-09  7.65789E-09  7.65150E-09  7.64241E-09  7.63043E-09  7.61544E-09  7.59733E-09
   7.57596E-09  7.55120E-09  7.52295E-09  7.49106E-09  7.45545E-09  7.41595E-09  7.37247E-09  7.32489E-09  7.27308E-09  7.21690E-09
   7.15627E-09  7.09105E-09  7.02115E-09  6.94643E-09  6.86676E-09  6.78208E-09  6.69221E-09  6.59714E-09  6.49699E-09  6.39190E-09
   6.28199E-09  6.16741E-09  6.04832E-09  5.92483E-09  5.79712E-09  5.66535E-09  5.52966E-09  5.39021E-09  5.24717E-09  5.10071E-09
   4.95100E-09  4.79818E-09  4.64246E-09  4.48400E-09  4.32298E-09  4.15958E-09  3.99400E-09  3.82641E-09  3.65703E-09  3.48602E-09
   3.31369E-09  3.14020E-09  2.96592E-09  2.79129E-09  2.61720E-09  2.44597E-09  2.28846E-09  2.17916E-09  2.08825E-09  1.98934E-09
   1.86927E-09  1.72786E-09  1.57246E-09  1.40972E-09  1.23792E-09  1.04368E-09  8.09680E-10  5.33482E-10  2.58339E-10  6.23518E-11
  -1.11907E-10 -2.77569E-10 -4.37847E-10 -5.93891E-10 -7.46223E-10 -8.95095E-10 -1.04061E-09 -1.18288E-09 -1.32188E-09 -1.45766E-09
  -1.59018E-09 -1.71947E-09 -1.84546E-09 -1.96818E-09 -2.08757E-09 -2.20364E-09 -2.31634E-09 -2.42566E-09 -2.53157E-09 -2.63406E-09
  -2.73309E-09 -2.82865E-09 -2.92073E-09 -3.00928E-09 -3.09430E-09 -3.17579E-09 -3.25371E-09 -3.32806E-09 -3.39881E-09 -3.46596E-09
  -3.52949E-09 -3.58940E-09 -3.64568E-09 -3.69834E-09 -3.74733E-09 -3.79268E-09 -3.83437E-09 -3.87242E-09 -3.90681E-09 -3.93753E-09
  -3.96463E-09 -3.98806E-09 -4.00784E-09 -4.02401E-09 -4.03656E-09 -4.04544E-09 -4.05076E-09 -4.05250E-09 -4.05075E-09 -4.04567E-09
  -4.03741E-09 -4.02613E-09 -4.01196E-09 -3.99507E-09 -3.97560E-09 -3.95368E-09 -3.92949E-09 -3.90314E-09 -3.87480E-09 -3.84461E-09
  -3.81270E-09 -3.77922E-09 -3.74430E-09 -3.70810E-09 -3.67073E-09 -3.63233E-09 -3.59305E-09 -3.55301E-09 -3.51234E-09 -3.47116E-09
  -3.42962E-09 -3.38782E-09 -3.34589E-09 -3.30395E-09 -3.26211E-09 -3.22050E-09 -3.17923E-09 -3.13840E-09 -3.09812E-09 -3.05849E-09
  -3.01963E-09 -2.98162E-09 -2.94458E-09 -2.90857E-09 -2.87371E-09 -2.84008E-09 -2.80776E-09 -2.77683E-09 -2.74738E-09 -2.71947E-09
  -2.69318E-09 -2.66858E-09 -2.64574E-09 -2.62463E-09 -2.60519E-09 -2.58735E-09 -2.57103E-09 -2.55616E-09 -2.54266E-09 -2.53046E-09
  -2.51949E-09 -2.50967E-09 -2.50094E-09 -2.49322E-09 -2.48645E-09 -2.48054E-09 -2.47545E-09 -2.47109E-09 -2.46739E-09 -2.46431E-09
  -2.46175E-09 -2.45967E-09 -2.45800E-09 -2.45668E-09 -2.45564E-09 -2.45483E-09 -2.45417E-09 -2.45363E-09 -2.45313E-09 -2.45262E-09
  -2.45204E-09 -2.45135E-09 -2.45048E-09 -2.44938E-09 -2.44801E-09 -2.44631E-09 -2.44423E-09 -2.44174E-09 -2.43877E-09 -2.43530E-09
  -2.43127E-09 -2.42663E-09 -2.42135E-09 -2.41542E-09 -2.40875E-09 -2.40133E-09 -2.39313E-09 -2.38410E-09 -2.37423E-09 -2.36351E-09
  -2.35192E-09 -2.33945E-09 -2.32609E-09 -2.31183E-09 -2.29668E-09 -2.28060E-09 -2.26360E-09 -2.24567E-09 -2.22680E-09 -2.20698E-09
  -2.18620E-09 -2.16446E-09 -2.14175E-09 -2.11806E-09 -2.09339E-09 -2.06772E-09 -2.04107E-09 -2.01341E-09 -1.98474E-09 -1.95506E-09
  -1.92436E-09 -1.89264E-09 -1.85989E-09 -1.82611E-09 -1.79130E-09 -1.75546E-09 -1.71857E-09 -1.68064E-09 -1.64166E-09 -1.60164E-09
  -1.56056E-09 -1.51844E-09 -1.47526E-09 -1.43104E-09 -1.38575E-09 -1.33942E-09 -1.29203E-09 -1.24359E-09 -1.19409E-09 -1.14354E-09
  -1.09195E-09 -1.03930E-09 -9.85605E-10
 Gln      Conc. = 1.93E-09
  -6.69915E-10 -4.24358E-10 -6.49397E-11  4.10362E-10  9.65060E-10  1.55415E-09  2.13001E-09  2.64288E-09  3.05431E-09  3.41302E-09
   3.60520E-09  3.50661E-09  3.48926E-09  3.35972E-09  3.21973E-09  3.13258E-09  3.08175E-09  3.05509E-09  3.04522E-09  3.04747E-09
   3.05867E-09  3.07657E-09  3.09955E-09  3.12644E-09  3.15653E-09  3.18934E-09  3.22401E-09  3.26005E-09  3.29733E-09  3.33524E-09
   3.37342E-09  3.41161E-09  3.44954E-09  3.48700E-09  3.52377E-09  3.55963E-09  3.59436E-09  3.62773E-09  3.65950E-09  3.68936E-09
   3.71707E-09  3.74232E-09  3.76485E-09  3.78436E-09  3.80038E-09  3.81241E-09  3.81995E-09  3.82167E-09  3.81682E-09  3.80544E-09
   3.78550E-09  3.75534E-09  3.71538E-09  3.67195E-09  3.67165E-09  3.85688E-09  4.15145E-09  4.48776E-09  5.03046E-09  5.75748E-09
   6.51445E-09  7.29240E-09  8.03312E-09  8.64582E-09  9.03676E-09  9.14755E-09  9.05836E-09  8.95233E-09  8.55769E-09  7.93900E-09
   7.50937E-09  7.22822E-09  7.01218E-09  6.97074E-09  7.07541E-09  7.40525E-09  7.85610E-09  8.37271E-09  8.93706E-09  9.49875E-09
   1.00186E-08  1.04377E-08  1.06107E-08  1.06612E-08  1.06828E-08  1.04649E-08  1.01218E-08  9.90348E-09  9.61782E-09  9.33607E-09
   9.13140E-09  8.97823E-09  8.86098E-09  8.76931E-09  8.69492E-09  8.63395E-09  8.58387E-09  8.54218E-09  8.50726E-09  8.47796E-09
   8.45289E-09  8.43092E-09  8.41137E-09  8.39370E-09  8.37749E-09  8.36233E-09  8.34769E-09  8.33319E-09  8.31853E-09  8.30341E-09
   8.28754E-09  8.27069E-09  8.25264E-09  8.23315E-09  8.21201E-09  8.18903E-09  8.16406E-09  8.13687E-09  8.10728E-09  8.07516E-09
   8.04033E-09  8.00262E-09  7.96190E-09  7.91799E-09  7.87078E-09  7.82008E-09  7.76577E-09  7.70772E-09  7.64578E-09  7.57978E-09
   7.50964E-09  7.43519E-09  7.35633E-09  7.27290E-09  7.18477E-09  7.09186E-09  6.99399E-09  6.89112E-09  6.78337E-09  6.67088E-09
   6.55375E-09  6.43214E-09  6.30617E-09  6.17599E-09  6.04174E-09  5.90359E-09  5.76168E-09  5.61616E-09  5.46721E-09  5.31500E-09
   5.15970E-09  5.00147E-09  4.84053E-09  4.67705E-09  4.51125E-09  4.34336E-09  4.17363E-09  4.00235E-09  3.82986E-09  3.65657E-09
   3.48312E-09  3.31033E-09  3.13961E-09  2.97360E-09  2.81793E-09  2.68769E-09  2.64104E-09  3.00551E-09  3.66854E-09  4.32804E-09
   4.79967E-09  5.03804E-09  5.09659E-09  5.04994E-09  4.91232E-09  4.58263E-09  3.88478E-09  2.71957E-09  1.35227E-09  6.23543E-10
   2.78144E-10  2.95891E-11 -1.80284E-10 -3.69805E-10 -5.46573E-10 -7.14294E-10 -8.74964E-10 -1.02980E-09 -1.17951E-09 -1.32459E-09
  -1.46534E-09 -1.60201E-09 -1.73469E-09 -1.86355E-09 -1.98863E-09 -2.10999E-09 -2.22766E-09 -2.34166E-09 -2.45201E-09 -2.55873E-09
  -2.66180E-09 -2.76123E-09 -2.85703E-09 -2.94917E-09 -3.03766E-09 -3.12250E-09 -3.20367E-09 -3.28118E-09 -3.35501E-09 -3.42516E-09
  -3.49161E-09 -3.55437E-09 -3.61344E-09 -3.66883E-09 -3.72049E-09 -3.76845E-09 -3.81271E-09 -3.85328E-09 -3.89014E-09 -3.92329E-09
  -3.95277E-09 -3.97855E-09 -4.00063E-09 -4.01907E-09 -4.03386E-09 -4.04494E-09 -4.05243E-09 -4.05630E-09 -4.05665E-09 -4.05365E-09
  -4.04744E-09 -4.03817E-09 -4.02600E-09 -4.01107E-09 -3.99354E-09 -3.97354E-09 -3.95124E-09 -3.92676E-09 -3.90027E-09 -3.87189E-09
