 LCModel (Version 6.3-1R) Copyright: S.W. Provencher.          Ref.: Magn. Reson. Med. 30:672-679 (1993).                
 onepulse 20x9_ftSpec_smooth_lcm
 26 lines in following concentration table = NCONC+1
    Conc.  %SD   /Cr    Metabolite                                         
 1.49E-10 167%   0.000 Ala                                                 
 4.71E-10 123%   0.000 Asp                                                 
    0.000 999%   0.000 Cr                                                  
 5.48E-10  81%   0.000 GABA                                                
    0.000 999%   0.000 Glc                                                 
 1.59E-09  35%   0.000 Gln                                                 
    0.000 999%   0.000 Glu                                                 
    0.000 999%   0.000 Glyc                                                
    0.000 999%   0.000 GPC                                                 
 1.45E-09  31%   0.000 GSH                                                 
 1.76E-09  17%   0.000 Ins                                                 
    0.000 999%   0.000 Lac                                                 
 6.27E-10  30%   0.000 NAAG                                                
    0.000 999%   0.000 NAA                                                 
    0.000 999%   0.000 PCh                                                 
    0.000 999%   0.000 PCr                                                 
 6.78E-10 122%   0.000 PE                                                  
    0.000 999%   0.000 Scyllo                                              
 1.13E-09  80%   0.000 Ser                                                 
 2.36E-09  23%   0.000 Tau                                                 
    0.000 999%   0.000 GPC+PCh                                             
 6.27E-10  30%   0.000 NAA+NAAG                                            
 1.76E-09  17%   0.000 Ins+Glyc                                            
    0.000 999%   0.000 Cr+PCr                                              
 1.59E-09  35%   0.000 Glu+Gln                                             
   6 lines in following misc. output table
  FWHM = 0.123 ppm    S/N =   4                                            
  Data shift = 0.458 ppm                                                   
  Ph:  33 deg     -34.1 deg/ppm                                            
  alphaB,S = 5.6E-01,   1.3E+01                                            
   10 spline knots.   Ns = 5(1)                                            
  (10) 6 infls.   ( 9) 5 extrs.                                            
  363 points on ppm-axis = NY
      4.250000     4.238821     4.227641     4.216462     4.205282     4.194103     4.182923     4.171744     4.160564     4.149385
      4.138206     4.127026     4.115847     4.104667     4.093488     4.082308     4.071129     4.059949     4.048770     4.037591
      4.026411     4.015232     4.004052     3.992873     3.981693     3.970514     3.959334     3.948155     3.936975     3.925796
      3.914617     3.903437     3.892258     3.881078     3.869899     3.858719     3.847540     3.836360     3.825181     3.814002
      3.802822     3.791643     3.780463     3.769284     3.758104     3.746925     3.735745     3.724566     3.713387     3.702207
      3.691028     3.679848     3.668669     3.657489     3.646310     3.635130     3.623951     3.612772     3.601592     3.590413
      3.579233     3.568054     3.556874     3.545695     3.534515     3.523336     3.512156     3.500977     3.489798     3.478618
      3.467439     3.456259     3.445080     3.433900     3.422721     3.411541     3.400362     3.389183     3.378003     3.366824
      3.355644     3.344465     3.333285     3.322106     3.310926     3.299747     3.288568     3.277388     3.266209     3.255029
      3.243850     3.232670     3.221491     3.210311     3.199132     3.187953     3.176773     3.165594     3.154414     3.143235
      3.132055     3.120876     3.109696     3.098517     3.087337     3.076158     3.064979     3.053799     3.042620     3.031440
      3.020261     3.009081     2.997902     2.986722     2.975543     2.964364     2.953184     2.942005     2.930825     2.919646
      2.908466     2.897287     2.886107     2.874928     2.863749     2.852569     2.841390     2.830210     2.819031     2.807851
      2.796672     2.785492     2.774313     2.763134     2.751954     2.740775     2.729595     2.718416     2.707236     2.696057
      2.684877     2.673698     2.662519     2.651339     2.640160     2.628980     2.617801     2.606621     2.595442     2.584262
      2.573083     2.561903     2.550724     2.539545     2.528365     2.517186     2.506006     2.494827     2.483647     2.472468
      2.461288     2.450109     2.438930     2.427750     2.416571     2.405391     2.394212     2.383032     2.371853     2.360673
      2.349494     2.338315     2.327135     2.315956     2.304776     2.293597     2.282417     2.271238     2.260058     2.248879
      2.237700     2.226520     2.215341     2.204161     2.192982     2.181802     2.170623     2.159443     2.148264     2.137084
      2.125905     2.114726     2.103546     2.092367     2.081187     2.070008     2.058828     2.047649     2.036469     2.025290
      2.014111     2.002931     1.991752     1.980572     1.969393     1.958213     1.947034     1.935854     1.924675     1.913496
      1.902316     1.891137     1.879957     1.868778     1.857598     1.846419     1.835239     1.824060     1.812881     1.801701
      1.790522     1.779342     1.768163     1.756983     1.745804     1.734624     1.723445     1.712265     1.701086     1.689907
      1.678727     1.667548     1.656368     1.645189     1.634009     1.622830     1.611650     1.600471     1.589292     1.578112
      1.566933     1.555753     1.544574     1.533394     1.522215     1.511035     1.499856     1.488677     1.477497     1.466318
      1.455138     1.443959     1.432779     1.421600     1.410420     1.399241     1.388062     1.376882     1.365703     1.354523
      1.343344     1.332164     1.320985     1.309805     1.298626     1.287446     1.276267     1.265088     1.253908     1.242729
      1.231549     1.220370     1.209190     1.198011     1.186831     1.175652     1.164473     1.153293     1.142114     1.130934
      1.119755     1.108575     1.097396     1.086216     1.075037     1.063858     1.052678     1.041499     1.030319     1.019140
      1.007960     0.996781     0.985601     0.974422     0.963243     0.952063     0.940884     0.929704     0.918525     0.907345
      0.896166     0.884986     0.873807     0.862628     0.851448     0.840269     0.829089     0.817910     0.806730     0.795551
      0.784371     0.773192     0.762012     0.750833     0.739654     0.728474     0.717295     0.706115     0.694936     0.683756
      0.672577     0.661397     0.650218     0.639039     0.627859     0.616680     0.605500     0.594321     0.583141     0.571962
      0.560782     0.549603     0.538424     0.527244     0.516065     0.504885     0.493706     0.482526     0.471347     0.460167
      0.448988     0.437809     0.426629     0.415450     0.404270     0.393091     0.381911     0.370732     0.359552     0.348373
      0.337193     0.326014     0.314835     0.303655     0.292476     0.281296     0.270117     0.258937     0.247758     0.236578
      0.225399     0.214220     0.203040
 NY phased data points follow
   1.25600E-08  1.25130E-08  1.32148E-08  1.31637E-08  1.35356E-08  1.39003E-08  1.45682E-08  1.40483E-08  1.32220E-08  1.35925E-08
   1.30473E-08  1.27471E-08  1.31726E-08  1.35345E-08  1.26767E-08  1.24327E-08  1.27785E-08  1.28642E-08  1.26091E-08  1.25956E-08
   1.21219E-08  1.39264E-08  1.38153E-08  1.51580E-08  1.49568E-08  1.51706E-08  1.46510E-08  1.44927E-08  1.27407E-08  1.25552E-08
   1.23309E-08  1.21927E-08  1.19678E-08  1.15504E-08  1.14043E-08  1.07392E-08  1.01311E-08  9.98271E-09  9.36193E-09  9.88116E-09
   8.72382E-09  9.09700E-09  8.59610E-09  8.49464E-09  7.79154E-09  8.52256E-09  6.82988E-09  6.40815E-09  6.21373E-09  6.65063E-09
   6.51559E-09  7.33502E-09  8.22730E-09  1.06569E-08  1.16509E-08  1.30099E-08  1.36886E-08  1.34402E-08  1.22893E-08  1.21913E-08
   1.04358E-08  1.06264E-08  9.33948E-09  8.55893E-09  6.88440E-09  6.69210E-09  6.58501E-09  5.99865E-09  6.50541E-09  7.89540E-09
   9.78886E-09  1.31399E-08  1.42811E-08  1.53365E-08  1.49490E-08  1.52739E-08  1.46501E-08  1.47710E-08  1.39781E-08  1.44042E-08
   1.41539E-08  1.37777E-08  1.33291E-08  1.35594E-08  1.30063E-08  1.27686E-08  1.21622E-08  1.20100E-08  1.07755E-08  1.15160E-08
   1.06752E-08  1.03457E-08  1.00284E-08  1.05711E-08  1.02356E-08  1.02720E-08  9.78854E-09  9.86946E-09  8.58790E-09  9.51074E-09
   8.45957E-09  8.45522E-09  6.82453E-09  7.23423E-09  6.97288E-09  7.90549E-09  6.86346E-09  7.76880E-09  7.86197E-09  8.29334E-09
   7.44568E-09  8.12348E-09  7.73351E-09  8.39110E-09  6.91847E-09  7.46218E-09  6.25335E-09  6.52455E-09  5.27324E-09  6.37883E-09
   5.39781E-09  5.71279E-09  5.97227E-09  5.64380E-09  5.60521E-09  5.78042E-09  5.33208E-09  5.34636E-09  4.73046E-09  5.77023E-09
   4.60394E-09  6.38180E-09  6.12949E-09  7.76722E-09  7.18694E-09  7.70349E-09  7.49398E-09  8.59151E-09  7.52424E-09  8.96238E-09
   8.93386E-09  8.92130E-09  8.34384E-09  8.98610E-09  8.38576E-09  8.11117E-09  7.93911E-09  8.43232E-09  8.03088E-09  7.44161E-09
   7.51440E-09  7.37211E-09  6.75742E-09  7.47572E-09  6.81889E-09  6.86415E-09  5.78847E-09  5.30454E-09  4.71312E-09  4.89921E-09
   3.97450E-09  5.61475E-09  8.58995E-09  1.27731E-08  1.47291E-08  1.72137E-08  1.76145E-08  1.93726E-08  1.93828E-08  1.96010E-08
   1.89359E-08  1.95363E-08  1.95502E-08  1.97151E-08  1.91605E-08  1.90990E-08  1.81782E-08  1.77495E-08  1.65479E-08  1.59763E-08
   1.37546E-08  1.26652E-08  1.11807E-08  9.80413E-09  7.43373E-09  5.78141E-09  3.93088E-09  2.34013E-09 -2.16333E-12 -1.17511E-09
  -2.69073E-09 -4.07191E-09 -4.58784E-09 -5.27304E-09 -6.01220E-09 -5.54428E-09 -5.99921E-09 -5.55762E-09 -5.16296E-09 -4.55098E-09
  -4.33788E-09 -2.81282E-09 -2.69880E-09 -2.05120E-09 -1.49115E-09 -1.22895E-09 -1.65608E-09 -1.00670E-09 -1.59746E-09 -9.87616E-10
  -1.53415E-09 -1.42608E-09 -2.00102E-09 -9.63646E-10 -1.37984E-09 -6.60446E-10 -3.15192E-10 -5.89867E-10 -9.67518E-10 -9.24493E-10
  -8.53933E-10 -7.89806E-10 -1.82831E-09 -5.14354E-10 -6.93073E-10 -8.50310E-10 -8.86791E-10 -6.57794E-10 -7.20742E-10 -4.67448E-10
  -8.19413E-10 -5.59321E-10 -7.70173E-10 -1.02454E-09 -5.58286E-10 -1.03558E-09 -1.37847E-09 -1.64341E-09 -1.15988E-09 -1.29319E-09
  -1.28354E-09 -1.05667E-09 -8.73656E-10 -5.70100E-10 -1.19436E-09 -6.02305E-10 -4.33990E-10 -2.77806E-10 -3.99903E-10 -2.00818E-10
   4.15035E-10  7.98507E-11 -6.60564E-10 -3.79158E-10 -1.08944E-09 -9.91689E-10 -1.31999E-09 -1.23271E-09 -2.30419E-09 -1.31510E-09
  -2.35233E-09 -2.08579E-09 -2.32772E-09 -2.20139E-09 -2.38619E-09 -1.54023E-09 -2.05495E-09 -1.55067E-09 -8.88234E-10 -7.66574E-10
  -5.69242E-10 -5.29143E-10 -1.70294E-10 -5.67246E-10 -2.05676E-10  3.61811E-11 -6.23423E-10 -2.80304E-10 -1.28140E-10  3.85747E-10
   2.76247E-10 -7.68319E-11 -3.23249E-10 -1.50122E-10 -1.70779E-10 -4.02874E-11 -1.55046E-10 -1.19944E-10 -2.95819E-11 -2.82154E-10
   1.82582E-10 -6.71900E-10 -1.08273E-10 -5.13062E-10 -6.32421E-10 -2.43232E-10 -2.44236E-10 -6.87871E-10 -2.71813E-10 -5.37689E-10
  -5.82588E-10 -8.62995E-10 -3.30877E-10 -7.78247E-10 -9.73598E-10 -7.50848E-10 -1.57032E-09 -4.57377E-10 -1.04836E-09 -1.25143E-09
  -1.05240E-09 -1.39048E-09 -1.38417E-09 -7.81429E-10 -1.18980E-09 -1.49734E-09 -1.34990E-09 -1.30637E-09 -1.32168E-09 -1.73161E-09
  -1.54535E-09 -1.32790E-09 -1.95257E-09 -1.51381E-09 -1.37652E-09 -1.39895E-09 -1.87072E-09 -1.99772E-09 -1.28940E-09 -2.02371E-09
  -1.76104E-09 -1.40280E-09 -2.13449E-09 -2.09782E-09 -1.78666E-09 -1.95922E-09 -2.00059E-09 -1.60856E-09 -2.18863E-09 -2.03719E-09
  -2.44658E-09 -1.96687E-09 -2.27532E-09 -1.91132E-09 -2.25139E-09 -2.14636E-09 -2.39666E-09 -2.21775E-09 -2.68647E-09 -2.72813E-09
  -2.23545E-09 -2.35652E-09 -2.17273E-09 -2.59401E-09 -2.85728E-09 -2.61859E-09 -2.82256E-09 -2.71632E-09 -2.77857E-09 -2.99647E-09
  -2.27311E-09 -2.87996E-09 -2.71177E-09
 NY points of the fit to the data follow
   1.40548E-08  1.34449E-08  1.27218E-08  1.27137E-08  1.36286E-08  1.36664E-08  1.31371E-08  1.40670E-08  1.56007E-08  1.30409E-08
   1.17083E-08  1.14873E-08  1.18736E-08  1.26586E-08  1.34769E-08  1.34613E-08  1.37962E-08  1.47744E-08  1.38908E-08  1.20377E-08
   1.20501E-08  1.36730E-08  1.42729E-08  1.46009E-08  1.48257E-08  1.48576E-08  1.44636E-08  1.37020E-08  1.27944E-08  1.30101E-08
   1.33420E-08  1.27988E-08  1.20415E-08  1.20376E-08  1.11869E-08  1.06186E-08  1.04160E-08  9.96587E-09  9.63355E-09  9.35029E-09
   9.15541E-09  9.25701E-09  9.46153E-09  9.09451E-09  8.36012E-09  8.18380E-09  7.86890E-09  7.01708E-09  7.07207E-09  7.36935E-09
   7.91682E-09  8.18904E-09  8.50803E-09  9.60535E-09  1.03020E-08  1.00763E-08  1.06805E-08  1.15124E-08  1.16137E-08  1.12231E-08
   1.12326E-08  1.10934E-08  1.11819E-08  1.08929E-08  1.00406E-08  1.00049E-08  1.03332E-08  9.59546E-09  9.25501E-09  1.00102E-08
   1.07177E-08  1.11053E-08  1.16792E-08  1.21220E-08  1.29539E-08  1.41317E-08  1.55003E-08  1.56181E-08  1.54268E-08  1.52740E-08
   1.49347E-08  1.44997E-08  1.38186E-08  1.32846E-08  1.29265E-08  1.24662E-08  1.14558E-08  9.70510E-09  9.11819E-09  8.86750E-09
   8.60255E-09  8.41617E-09  8.40161E-09  8.30975E-09  8.04579E-09  8.01408E-09  7.97924E-09  7.81314E-09  7.78542E-09  7.80311E-09
   7.90605E-09  7.83716E-09  7.79217E-09  7.94981E-09  7.99413E-09  7.95877E-09  7.92408E-09  7.92176E-09  7.94062E-09  7.93985E-09
   7.85132E-09  7.67381E-09  7.71020E-09  7.69876E-09  7.52445E-09  7.46304E-09  7.43386E-09  7.41537E-09  7.40117E-09  7.38868E-09
   7.37663E-09  7.36434E-09  7.35139E-09  7.33747E-09  7.32237E-09  7.30596E-09  7.28810E-09  7.26870E-09  7.24768E-09  7.22498E-09
   7.20052E-09  7.17426E-09  7.14618E-09  7.11621E-09  7.08434E-09  7.05052E-09  7.01474E-09  6.97697E-09  6.93720E-09  6.89542E-09
   6.85161E-09  6.80577E-09  6.75793E-09  6.70809E-09  6.65627E-09  6.60250E-09  6.54686E-09  6.48939E-09  6.43021E-09  6.36944E-09
   6.30725E-09  6.24387E-09  6.17962E-09  6.11491E-09  6.05031E-09  5.98662E-09  5.92504E-09  5.86733E-09  5.81621E-09  5.77588E-09
   5.75329E-09  5.76071E-09  5.82210E-09  5.99063E-09  6.40972E-09  7.60796E-09  1.24416E-08  2.01216E-08  2.18035E-08  2.02374E-08
   1.95057E-08  1.98651E-08  2.00454E-08  1.95214E-08  1.90465E-08  1.95081E-08  1.99913E-08  1.62970E-08  8.77944E-09  5.49094E-09
   4.42681E-09  3.89038E-09  3.54146E-09  3.27911E-09  3.06349E-09  2.87599E-09  2.70670E-09  2.54999E-09  2.40246E-09  2.26193E-09
   2.12694E-09  1.99656E-09  1.87010E-09  1.74715E-09  1.62734E-09  1.51050E-09  1.39648E-09  1.28520E-09  1.17659E-09  1.07066E-09
   9.67420E-10  8.66885E-10  7.69106E-10  6.74126E-10  5.82014E-10  4.92830E-10  4.06684E-10  3.23598E-10  2.43675E-10  1.66823E-10
   9.29840E-11  2.20801E-11 -4.59505E-11 -1.11182E-10 -1.73671E-10 -2.33493E-10 -2.90696E-10 -3.45347E-10 -3.97514E-10 -4.47255E-10
  -4.94613E-10 -5.39666E-10 -5.82468E-10 -6.23071E-10 -6.61538E-10 -6.97925E-10 -7.32273E-10 -7.64669E-10 -7.95163E-10 -8.23784E-10
  -8.50605E-10 -8.75689E-10 -8.99075E-10 -9.20838E-10 -9.41016E-10 -9.59681E-10 -9.76881E-10 -9.92659E-10 -1.00708E-09 -1.02021E-09
  -1.03208E-09 -1.04276E-09 -1.05230E-09 -1.06075E-09 -1.06818E-09 -1.07462E-09 -1.08016E-09 -1.08484E-09 -1.08868E-09 -1.09177E-09
  -1.09415E-09 -1.09590E-09 -1.09704E-09 -1.09763E-09 -1.09776E-09 -1.09744E-09 -1.09674E-09 -1.09572E-09 -1.09442E-09 -1.09292E-09
  -1.09123E-09 -1.08939E-09 -1.08740E-09 -1.08530E-09 -1.08310E-09 -1.08082E-09 -1.07848E-09 -1.07611E-09 -1.07371E-09 -1.07131E-09
  -1.06894E-09 -1.06661E-09 -1.06433E-09 -1.06214E-09 -1.06004E-09 -1.05807E-09 -1.05623E-09 -1.05455E-09 -1.05305E-09 -1.05175E-09
  -1.05066E-09 -1.04981E-09 -1.04922E-09 -1.04890E-09 -1.04889E-09 -1.04918E-09 -1.04982E-09 -1.05080E-09 -1.05217E-09 -1.05393E-09
  -1.05610E-09 -1.05871E-09 -1.06177E-09 -1.06530E-09 -1.06933E-09 -1.07387E-09 -1.07894E-09 -1.08456E-09 -1.09076E-09 -1.09755E-09
  -1.10495E-09 -1.11297E-09 -1.12165E-09 -1.13100E-09 -1.14103E-09 -1.15178E-09 -1.16325E-09 -1.17547E-09 -1.18847E-09 -1.20224E-09
  -1.21683E-09 -1.23224E-09 -1.24847E-09 -1.26549E-09 -1.28329E-09 -1.30185E-09 -1.32114E-09 -1.34114E-09 -1.36183E-09 -1.38320E-09
  -1.40521E-09 -1.42786E-09 -1.45111E-09 -1.47496E-09 -1.49937E-09 -1.52433E-09 -1.54981E-09 -1.57580E-09 -1.60227E-09 -1.62921E-09
  -1.65659E-09 -1.68439E-09 -1.71259E-09 -1.74117E-09 -1.77011E-09 -1.79939E-09 -1.82899E-09 -1.85888E-09 -1.88905E-09 -1.91947E-09
  -1.95013E-09 -1.98101E-09 -2.01207E-09 -2.04331E-09 -2.07469E-09 -2.10621E-09 -2.13784E-09 -2.16955E-09 -2.20133E-09 -2.23316E-09
  -2.26501E-09 -2.29687E-09 -2.32872E-09 -2.36052E-09 -2.39227E-09 -2.42394E-09 -2.45552E-09 -2.48697E-09 -2.51828E-09 -2.54943E-09
  -2.58040E-09 -2.61116E-09 -2.64170E-09
 NY background values follow
    -1.219E-09   -1.135E-09   -1.051E-09   -9.673E-10   -8.833E-10   -7.993E-10   -7.152E-10   -6.310E-10   -5.468E-10   -4.625E-10
    -3.783E-10   -2.940E-10   -2.097E-10   -1.254E-10   -4.112E-11    4.314E-11    1.274E-10    2.116E-10    2.957E-10    3.798E-10
     4.638E-10    5.477E-10    6.316E-10    7.153E-10    7.989E-10    8.825E-10    9.659E-10    1.049E-09    1.132E-09    1.215E-09
     1.298E-09    1.381E-09    1.463E-09    1.545E-09    1.627E-09    1.709E-09    1.791E-09    1.872E-09    1.953E-09    2.034E-09
     2.115E-09    2.195E-09    2.276E-09    2.355E-09    2.435E-09    2.514E-09    2.593E-09    2.672E-09    2.750E-09    2.828E-09
     2.905E-09    2.982E-09    3.059E-09    3.136E-09    3.212E-09    3.287E-09    3.363E-09    3.437E-09    3.511E-09    3.585E-09
     3.658E-09    3.731E-09    3.803E-09    3.874E-09    3.945E-09    4.015E-09    4.084E-09    4.153E-09    4.221E-09    4.288E-09
     4.355E-09    4.420E-09    4.485E-09    4.549E-09    4.613E-09    4.675E-09    4.736E-09    4.797E-09    4.857E-09    4.915E-09
     4.973E-09    5.029E-09    5.085E-09    5.140E-09    5.193E-09    5.245E-09    5.297E-09    5.347E-09    5.396E-09    5.443E-09
     5.490E-09    5.535E-09    5.579E-09    5.622E-09    5.664E-09    5.704E-09    5.743E-09    5.780E-09    5.816E-09    5.851E-09
     5.884E-09    5.916E-09    5.946E-09    5.975E-09    6.002E-09    6.028E-09    6.052E-09    6.075E-09    6.096E-09    6.115E-09
     6.133E-09    6.149E-09    6.163E-09    6.175E-09    6.186E-09    6.195E-09    6.202E-09    6.208E-09    6.211E-09    6.213E-09
     6.212E-09    6.210E-09    6.206E-09    6.200E-09    6.192E-09    6.182E-09    6.169E-09    6.155E-09    6.139E-09    6.120E-09
     6.099E-09    6.077E-09    6.052E-09    6.024E-09    5.995E-09    5.963E-09    5.929E-09    5.893E-09    5.854E-09    5.813E-09
     5.770E-09    5.724E-09    5.675E-09    5.625E-09    5.572E-09    5.516E-09    5.458E-09    5.397E-09    5.333E-09    5.268E-09
     5.199E-09    5.128E-09    5.054E-09    4.977E-09    4.898E-09    4.816E-09    4.731E-09    4.644E-09    4.553E-09    4.461E-09
     4.366E-09    4.269E-09    4.170E-09    4.069E-09    3.965E-09    3.860E-09    3.754E-09    3.646E-09    3.536E-09    3.425E-09
     3.313E-09    3.200E-09    3.085E-09    2.970E-09    2.854E-09    2.737E-09    2.620E-09    2.502E-09    2.384E-09    2.266E-09
     2.147E-09    2.029E-09    1.910E-09    1.792E-09    1.674E-09    1.557E-09    1.440E-09    1.323E-09    1.208E-09    1.093E-09
     9.796E-10    8.670E-10    7.556E-10    6.456E-10    5.369E-10    4.298E-10    3.243E-10    2.206E-10    1.187E-10    1.882E-11
    -7.898E-11   -1.746E-10   -2.679E-10   -3.587E-10   -4.471E-10   -5.328E-10   -6.157E-10   -6.958E-10   -7.730E-10   -8.472E-10
    -9.187E-10   -9.873E-10   -1.053E-09   -1.116E-09   -1.177E-09   -1.235E-09   -1.291E-09   -1.344E-09   -1.394E-09   -1.442E-09
    -1.488E-09   -1.532E-09   -1.574E-09   -1.613E-09   -1.650E-09   -1.685E-09   -1.719E-09   -1.750E-09   -1.779E-09   -1.807E-09
    -1.833E-09   -1.857E-09   -1.880E-09   -1.900E-09   -1.920E-09   -1.938E-09   -1.954E-09   -1.969E-09   -1.983E-09   -1.995E-09
    -2.006E-09   -2.016E-09   -2.025E-09   -2.033E-09   -2.039E-09   -2.045E-09   -2.050E-09   -2.054E-09   -2.057E-09   -2.060E-09
    -2.062E-09   -2.063E-09   -2.063E-09   -2.063E-09   -2.063E-09   -2.062E-09   -2.061E-09   -2.059E-09   -2.057E-09   -2.055E-09
    -2.053E-09   -2.051E-09   -2.048E-09   -2.046E-09   -2.043E-09   -2.040E-09   -2.037E-09   -2.034E-09   -2.031E-09   -2.029E-09
    -2.026E-09   -2.023E-09   -2.020E-09   -2.018E-09   -2.015E-09   -2.013E-09   -2.010E-09   -2.008E-09   -2.006E-09   -2.004E-09
    -2.003E-09   -2.002E-09   -2.001E-09   -2.000E-09   -1.999E-09   -1.999E-09   -1.999E-09   -2.000E-09   -2.001E-09   -2.002E-09
    -2.004E-09   -2.006E-09   -2.009E-09   -2.012E-09   -2.015E-09   -2.020E-09   -2.024E-09   -2.029E-09   -2.035E-09   -2.042E-09
    -2.049E-09   -2.056E-09   -2.064E-09   -2.073E-09   -2.083E-09   -2.093E-09   -2.104E-09   -2.116E-09   -2.129E-09   -2.142E-09
    -2.156E-09   -2.171E-09   -2.187E-09   -2.204E-09   -2.221E-09   -2.239E-09   -2.258E-09   -2.278E-09   -2.298E-09   -2.319E-09
    -2.340E-09   -2.363E-09   -2.386E-09   -2.409E-09   -2.433E-09   -2.457E-09   -2.483E-09   -2.508E-09   -2.534E-09   -2.561E-09
    -2.588E-09   -2.615E-09   -2.643E-09   -2.671E-09   -2.699E-09   -2.728E-09   -2.757E-09   -2.787E-09   -2.817E-09   -2.847E-09
    -2.877E-09   -2.907E-09   -2.938E-09   -2.969E-09   -3.000E-09   -3.031E-09   -3.062E-09   -3.093E-09   -3.124E-09   -3.156E-09
    -3.187E-09   -3.219E-09   -3.250E-09   -3.281E-09   -3.313E-09   -3.344E-09   -3.375E-09   -3.406E-09   -3.437E-09   -3.467E-09
    -3.498E-09   -3.528E-09   -3.558E-09
 Ala      Conc. = 1.49E-10
  -1.10185E-09 -1.01814E-09 -9.36538E-10 -8.47588E-10 -7.65324E-10 -6.83420E-10 -5.94814E-10 -5.30833E-10 -4.68020E-10 -3.69850E-10
  -2.99119E-10 -2.42599E-10 -1.58692E-10 -7.97134E-11 -6.24829E-12  7.18522E-11  1.52158E-10  2.33642E-10  3.15790E-10  3.98362E-10
   4.81185E-10  5.64163E-10  6.47235E-10  7.30344E-10  8.13438E-10  8.96505E-10  9.79507E-10  1.06243E-09  1.14525E-09  1.22796E-09
   1.31055E-09  1.39297E-09  1.47524E-09  1.55734E-09  1.63926E-09  1.72097E-09  1.80248E-09  1.88379E-09  1.96485E-09  2.04566E-09
   2.12625E-09  2.20658E-09  2.28663E-09  2.36640E-09  2.44588E-09  2.52506E-09  2.60394E-09  2.68250E-09  2.76072E-09  2.83859E-09
   2.91614E-09  2.99333E-09  3.07015E-09  3.14658E-09  3.22261E-09  3.29822E-09  3.37338E-09  3.44807E-09  3.52227E-09  3.59596E-09
   3.66911E-09  3.74170E-09  3.81372E-09  3.88513E-09  3.95592E-09  4.02607E-09  4.09555E-09  4.16434E-09  4.23242E-09  4.29977E-09
   4.36637E-09  4.43219E-09  4.49722E-09  4.56144E-09  4.62482E-09  4.68734E-09  4.74899E-09  4.80974E-09  4.86959E-09  4.92850E-09
   4.98647E-09  5.04348E-09  5.09951E-09  5.15455E-09  5.20860E-09  5.26165E-09  5.31370E-09  5.36476E-09  5.41484E-09  5.46399E-09
   5.51225E-09  5.55973E-09  5.60656E-09  5.65300E-09  5.69947E-09  5.74676E-09  5.79641E-09  5.85198E-09  5.92346E-09  6.04975E-09
   6.26937E-09  6.26613E-09  6.28046E-09  6.49758E-09  6.58907E-09  6.59177E-09  6.58907E-09  6.61359E-09  6.65633E-09  6.67658E-09
   6.60661E-09  6.44574E-09  6.49708E-09  6.49916E-09  6.33715E-09  6.28690E-09  6.26786E-09  6.25866E-09  6.25300E-09  6.24836E-09
   6.24357E-09  6.23797E-09  6.23118E-09  6.22297E-09  6.21314E-09  6.20159E-09  6.18822E-09  6.17296E-09  6.15575E-09  6.13653E-09
   6.11526E-09  6.09190E-09  6.06642E-09  6.03877E-09  6.00893E-09  5.97687E-09  5.94255E-09  5.90596E-09  5.86705E-09  5.82582E-09
   5.78222E-09  5.73622E-09  5.68782E-09  5.63699E-09  5.58368E-09  5.52789E-09  5.46958E-09  5.40874E-09  5.34534E-09  5.27936E-09
   5.21077E-09  5.13957E-09  5.06572E-09  4.98919E-09  4.90999E-09  4.82808E-09  4.74351E-09  4.65632E-09  4.56669E-09  4.47477E-09
   4.38076E-09  4.28491E-09  4.18763E-09  4.08967E-09  3.99277E-09  3.90271E-09  3.84946E-09  3.88920E-09  3.79700E-09  3.65568E-09
   3.53366E-09  3.43005E-09  3.32207E-09  3.19993E-09  3.07616E-09  2.96774E-09  2.86727E-09  2.71549E-09  2.45820E-09  2.30483E-09
   2.17472E-09  2.05075E-09  1.92922E-09  1.80904E-09  1.68977E-09  1.57133E-09  1.45366E-09  1.33677E-09  1.22079E-09  1.10575E-09
   9.91749E-10  8.78902E-10  7.67270E-10  6.57015E-10  5.48184E-10  4.40910E-10  3.35292E-10  2.31460E-10  1.29482E-10  2.95048E-11
  -6.83768E-11 -1.64056E-10 -2.57416E-10 -3.48357E-10 -4.36762E-10 -5.22529E-10 -6.05516E-10 -6.85673E-10 -7.62871E-10 -8.37178E-10
  -9.08637E-10 -9.77307E-10 -1.04324E-09 -1.10649E-09 -1.16711E-09 -1.22516E-09 -1.28068E-09 -1.33373E-09 -1.38438E-09 -1.43267E-09
  -1.47864E-09 -1.52236E-09 -1.56389E-09 -1.60327E-09 -1.64057E-09 -1.67582E-09 -1.70908E-09 -1.74043E-09 -1.76990E-09 -1.79754E-09
  -1.82341E-09 -1.84757E-09 -1.87007E-09 -1.89096E-09 -1.91029E-09 -1.92814E-09 -1.94453E-09 -1.95953E-09 -1.97320E-09 -1.98557E-09
  -1.99672E-09 -2.00669E-09 -2.01553E-09 -2.02331E-09 -2.03006E-09 -2.03586E-09 -2.04075E-09 -2.04480E-09 -2.04803E-09 -2.05050E-09
  -2.05229E-09 -2.05345E-09 -2.05401E-09 -2.05403E-09 -2.05360E-09 -2.05272E-09 -2.05148E-09 -2.04991E-09 -2.04809E-09 -2.04606E-09
  -2.04385E-09 -2.04149E-09 -2.03900E-09 -2.03639E-09 -2.03369E-09 -2.03092E-09 -2.02809E-09 -2.02523E-09 -2.02236E-09 -2.01948E-09
  -2.01664E-09 -2.01384E-09 -2.01110E-09 -2.00844E-09 -2.00589E-09 -2.00346E-09 -2.00117E-09 -1.99904E-09 -1.99710E-09 -1.99535E-09
  -1.99382E-09 -1.99254E-09 -1.99151E-09 -1.99076E-09 -1.99031E-09 -1.99018E-09 -1.99038E-09 -1.99094E-09 -1.99188E-09 -1.99322E-09
  -1.99497E-09 -1.99715E-09 -1.99979E-09 -2.00291E-09 -2.00652E-09 -2.01064E-09 -2.01529E-09 -2.02050E-09 -2.02628E-09 -2.03265E-09
  -2.03964E-09 -2.04725E-09 -2.05552E-09 -2.06445E-09 -2.07407E-09 -2.08441E-09 -2.09547E-09 -2.10728E-09 -2.11986E-09 -2.13323E-09
  -2.14740E-09 -2.16240E-09 -2.17822E-09 -2.19483E-09 -2.21222E-09 -2.23036E-09 -2.24923E-09 -2.26882E-09 -2.28910E-09 -2.31005E-09
  -2.33165E-09 -2.35388E-09 -2.37672E-09 -2.40015E-09 -2.42414E-09 -2.44868E-09 -2.47374E-09 -2.49931E-09 -2.52536E-09 -2.55187E-09
  -2.57883E-09 -2.60621E-09 -2.63398E-09 -2.66213E-09 -2.69065E-09 -2.71949E-09 -2.74866E-09 -2.77812E-09 -2.80786E-09 -2.83784E-09
  -2.86807E-09 -2.89850E-09 -2.92913E-09 -2.95992E-09 -2.99086E-09 -3.02193E-09 -3.05311E-09 -3.08438E-09 -3.11571E-09 -3.14708E-09
  -3.17849E-09 -3.20989E-09 -3.24128E-09 -3.27262E-09 -3.30390E-09 -3.33511E-09 -3.36622E-09 -3.39720E-09 -3.42804E-09 -3.45872E-09
  -3.48921E-09 -3.51949E-09 -3.54955E-09
 Asp      Conc. = 4.71E-10
  -7.20145E-10 -7.22514E-10 -6.77154E-10 -6.70183E-10 -6.07369E-10 -5.72109E-10 -5.47994E-10 -5.26931E-10 -4.69854E-10 -4.00067E-10
  -3.24693E-10 -2.46464E-10 -1.66289E-10 -8.38214E-11 -9.10008E-13  8.22551E-11  1.65731E-10  2.49498E-10  3.33483E-10  4.17673E-10
   5.02025E-10  5.86531E-10  6.71195E-10  7.56015E-10  8.40996E-10  9.26188E-10  1.01163E-09  1.09739E-09  1.18358E-09  1.27036E-09
   1.35799E-09  1.44681E-09  1.53751E-09  1.63130E-09  1.73083E-09  1.84303E-09  1.98411E-09  2.08065E-09  2.19754E-09  2.26502E-09
   2.33372E-09  2.43076E-09  2.58715E-09  2.78348E-09  3.00479E-09  3.22798E-09  3.24691E-09  3.22756E-09  3.42504E-09  3.52249E-09
   3.59305E-09  3.70399E-09  3.80307E-09  3.83576E-09  3.82897E-09  3.80392E-09  3.72904E-09  3.81579E-09  3.90721E-09  3.86409E-09
   3.89499E-09  3.94882E-09  3.96401E-09  4.01600E-09  4.10599E-09  4.18418E-09  4.21139E-09  4.25657E-09  4.30980E-09  4.36673E-09
   4.42552E-09  4.48522E-09  4.54529E-09  4.60540E-09  4.66531E-09  4.72484E-09  4.78387E-09  4.84231E-09  4.90007E-09  4.95708E-09
   5.01329E-09  5.06865E-09  5.12311E-09  5.17662E-09  5.22916E-09  5.28069E-09  5.33117E-09  5.38058E-09  5.42888E-09  5.47605E-09
   5.52205E-09  5.56686E-09  5.61046E-09  5.65282E-09  5.69390E-09  5.73370E-09  5.77218E-09  5.80931E-09  5.84508E-09  5.87946E-09
   5.91242E-09  5.94395E-09  5.97401E-09  6.00259E-09  6.02967E-09  6.05521E-09  6.07919E-09  6.10159E-09  6.12238E-09  6.14155E-09
   6.15905E-09  6.17488E-09  6.18900E-09  6.20140E-09  6.21204E-09  6.22090E-09  6.22796E-09  6.23320E-09  6.23658E-09  6.23809E-09
   6.23770E-09  6.23539E-09  6.23113E-09  6.22490E-09  6.21667E-09  6.20643E-09  6.19413E-09  6.17978E-09  6.16333E-09  6.14477E-09
   6.12407E-09  6.10120E-09  6.07615E-09  6.04889E-09  6.01939E-09  5.98764E-09  5.95360E-09  5.91726E-09  5.87859E-09  5.83758E-09
   5.79419E-09  5.74839E-09  5.70018E-09  5.64954E-09  5.59642E-09  5.54082E-09  5.48272E-09  5.42208E-09  5.35890E-09  5.29317E-09
   5.22484E-09  5.15393E-09  5.08042E-09  5.00428E-09  4.92554E-09  4.84419E-09  4.76030E-09  4.67397E-09  4.58545E-09  4.49498E-09
   4.40297E-09  4.31000E-09  4.21710E-09  4.12639E-09  4.04323E-09  3.98557E-09  4.04757E-09  4.40694E-09  4.35374E-09  4.14724E-09
   4.00390E-09  3.92122E-09  3.82711E-09  3.69021E-09  3.54972E-09  3.45906E-09  3.39479E-09  3.16989E-09  2.61205E-09  2.38192E-09
   2.22642E-09  2.09053E-09  1.96226E-09  1.83780E-09  1.71559E-09  1.59504E-09  1.47578E-09  1.35767E-09  1.24070E-09  1.12488E-09
   1.01022E-09  8.96833E-10  7.84742E-10  6.74094E-10  5.64923E-10  4.57354E-10  3.51477E-10  2.47416E-10  1.45234E-10  4.50753E-11
  -5.29695E-11 -1.48796E-10 -2.42289E-10 -3.33352E-10 -4.21868E-10 -5.07737E-10 -5.90818E-10 -6.71061E-10 -7.48339E-10 -8.22721E-10
  -8.94248E-10 -9.62983E-10 -1.02897E-09 -1.09228E-09 -1.15295E-09 -1.21105E-09 -1.26662E-09 -1.31972E-09 -1.37040E-09 -1.41873E-09
  -1.46474E-09 -1.50850E-09 -1.55007E-09 -1.58948E-09 -1.62680E-09 -1.66209E-09 -1.69538E-09 -1.72675E-09 -1.75625E-09 -1.78392E-09
  -1.80981E-09 -1.83399E-09 -1.85651E-09 -1.87742E-09 -1.89678E-09 -1.91464E-09 -1.93106E-09 -1.94607E-09 -1.95976E-09 -1.97215E-09
