 LCModel (Version 6.3-1R) Copyright: S.W. Provencher.          Ref.: Magn. Reson. Med. 30:672-679 (1993).                
 onepulse 21x16_ftSpec_smooth_lcm
 26 lines in following concentration table = NCONC+1
    Conc.  %SD   /Cr    Metabolite                                         
 1.36E-10 119%   0.000 Ala                                                 
 5.37E-10  58%   0.000 Asp                                                 
    0.000 999%   0.000 Cr                                                  
 3.09E-09  10%   0.000 GABA                                                
 1.26E-09  28%   0.000 Glc                                                 
    0.000 999%   0.000 Gln                                                 
 2.27E-10 144%   0.000 Glu                                                 
    0.000 999%   0.000 Glyc                                                
    0.000 999%   0.000 GPC                                                 
    0.000 999%   0.000 GSH                                                 
 1.11E-10 157%   0.000 Ins                                                 
    0.000 999%   0.000 Lac                                                 
    0.000 999%   0.000 NAAG                                                
 1.11E-09  13%   0.000 NAA                                                 
 1.07E-10  43%   0.000 PCh                                                 
    0.000 999%   0.000 PCr                                                 
    0.000 999%   0.000 PE                                                  
 1.97E-11 433%   0.000 Scyllo                                              
    0.000 999%   0.000 Ser                                                 
    0.000 999%   0.000 Tau                                                 
 1.07E-10  43%   0.000 GPC+PCh                                             
 1.11E-09  13%   0.000 NAA+NAAG                                            
 1.11E-10 157%   0.000 Ins+Glyc                                            
    0.000 999%   0.000 Cr+PCr                                              
 2.27E-10 144%   0.000 Glu+Gln                                             
   6 lines in following misc. output table
  FWHM = 0.067 ppm    S/N =   5                                            
  Data shift = 0.335 ppm                                                   
  Ph:  71 deg      38.5 deg/ppm                                            
  alphaB,S = 1.6E-01,   7.6E+01                                            
   16 spline knots.   Ns = 5(1)                                            
  ( 7) 2 infls.   ( 3) 1 extrs.                                            
  363 points on ppm-axis = NY
      4.250000     4.238821     4.227641     4.216462     4.205282     4.194103     4.182923     4.171744     4.160564     4.149385
      4.138206     4.127026     4.115847     4.104667     4.093488     4.082308     4.071129     4.059949     4.048770     4.037591
      4.026411     4.015232     4.004052     3.992873     3.981693     3.970514     3.959334     3.948155     3.936975     3.925796
      3.914617     3.903437     3.892258     3.881078     3.869899     3.858719     3.847540     3.836360     3.825181     3.814002
      3.802822     3.791643     3.780463     3.769284     3.758104     3.746925     3.735745     3.724566     3.713387     3.702207
      3.691028     3.679848     3.668669     3.657489     3.646310     3.635130     3.623951     3.612772     3.601592     3.590413
      3.579233     3.568054     3.556874     3.545695     3.534515     3.523336     3.512156     3.500977     3.489798     3.478618
      3.467439     3.456259     3.445080     3.433900     3.422721     3.411541     3.400362     3.389183     3.378003     3.366824
      3.355644     3.344465     3.333285     3.322106     3.310926     3.299747     3.288568     3.277388     3.266209     3.255029
      3.243850     3.232670     3.221491     3.210311     3.199132     3.187953     3.176773     3.165594     3.154414     3.143235
      3.132055     3.120876     3.109696     3.098517     3.087337     3.076158     3.064979     3.053799     3.042620     3.031440
      3.020261     3.009081     2.997902     2.986722     2.975543     2.964364     2.953184     2.942005     2.930825     2.919646
      2.908466     2.897287     2.886107     2.874928     2.863749     2.852569     2.841390     2.830210     2.819031     2.807851
      2.796672     2.785492     2.774313     2.763134     2.751954     2.740775     2.729595     2.718416     2.707236     2.696057
      2.684877     2.673698     2.662519     2.651339     2.640160     2.628980     2.617801     2.606621     2.595442     2.584262
      2.573083     2.561903     2.550724     2.539545     2.528365     2.517186     2.506006     2.494827     2.483647     2.472468
      2.461288     2.450109     2.438930     2.427750     2.416571     2.405391     2.394212     2.383032     2.371853     2.360673
      2.349494     2.338315     2.327135     2.315956     2.304776     2.293597     2.282417     2.271238     2.260058     2.248879
      2.237700     2.226520     2.215341     2.204161     2.192982     2.181802     2.170623     2.159443     2.148264     2.137084
      2.125905     2.114726     2.103546     2.092367     2.081187     2.070008     2.058828     2.047649     2.036469     2.025290
      2.014111     2.002931     1.991752     1.980572     1.969393     1.958213     1.947034     1.935854     1.924675     1.913496
      1.902316     1.891137     1.879957     1.868778     1.857598     1.846419     1.835239     1.824060     1.812881     1.801701
      1.790522     1.779342     1.768163     1.756983     1.745804     1.734624     1.723445     1.712265     1.701086     1.689907
      1.678727     1.667548     1.656368     1.645189     1.634009     1.622830     1.611650     1.600471     1.589292     1.578112
      1.566933     1.555753     1.544574     1.533394     1.522215     1.511035     1.499856     1.488677     1.477497     1.466318
      1.455138     1.443959     1.432779     1.421600     1.410420     1.399241     1.388062     1.376882     1.365703     1.354523
      1.343344     1.332164     1.320985     1.309805     1.298626     1.287446     1.276267     1.265088     1.253908     1.242729
      1.231549     1.220370     1.209190     1.198011     1.186831     1.175652     1.164473     1.153293     1.142114     1.130934
      1.119755     1.108575     1.097396     1.086216     1.075037     1.063858     1.052678     1.041499     1.030319     1.019140
      1.007960     0.996781     0.985601     0.974422     0.963243     0.952063     0.940884     0.929704     0.918525     0.907345
      0.896166     0.884986     0.873807     0.862628     0.851448     0.840269     0.829089     0.817910     0.806730     0.795551
      0.784371     0.773192     0.762012     0.750833     0.739654     0.728474     0.717295     0.706115     0.694936     0.683756
      0.672577     0.661397     0.650218     0.639039     0.627859     0.616680     0.605500     0.594321     0.583141     0.571962
      0.560782     0.549603     0.538424     0.527244     0.516065     0.504885     0.493706     0.482526     0.471347     0.460167
      0.448988     0.437809     0.426629     0.415450     0.404270     0.393091     0.381911     0.370732     0.359552     0.348373
      0.337193     0.326014     0.314835     0.303655     0.292476     0.281296     0.270117     0.258937     0.247758     0.236578
      0.225399     0.214220     0.203040
 NY phased data points follow
  -1.48943E-09  2.00067E-09  4.17348E-09  6.45854E-09  5.72823E-09  4.78495E-09  3.96687E-09  3.32472E-09  2.54206E-09  2.24953E-09
   1.93417E-09  2.36157E-09  2.07353E-09  2.70429E-09  3.53136E-09  3.44023E-09  4.66986E-09  5.32995E-09  4.58085E-09  4.86239E-09
   4.45580E-09  5.36202E-09  4.91831E-09  3.59438E-09  4.01817E-09  4.47113E-09  5.44250E-09  6.24760E-09  6.40682E-09  5.47980E-09
   4.78234E-09  4.96602E-09  5.21855E-09  8.09023E-09  8.92053E-09  1.01130E-08  8.99049E-09  8.89605E-09  6.83144E-09  5.79068E-09
   5.45972E-09  5.96020E-09  4.37310E-09  4.49709E-09  5.28374E-09  4.28341E-09  3.14027E-09  4.32856E-09  3.41489E-09  2.96134E-09
   2.38351E-09  2.97869E-09  3.12687E-09  3.69925E-09  3.79836E-09  3.39763E-09  2.13622E-09  2.52142E-09  2.51578E-09  1.59113E-09
   1.78835E-09  3.42836E-09  3.68034E-09  4.79938E-09  8.12964E-09  1.27768E-08  1.27248E-08  1.09937E-08  8.79691E-09  7.30787E-09
   6.22992E-09  5.94906E-09  4.82126E-09  3.88267E-09  2.58263E-09  3.51167E-09  2.58530E-09  1.94528E-09  2.92402E-09  4.18332E-09
   6.35430E-09  1.07074E-08  1.38989E-08  1.38636E-08  1.08763E-08  9.70054E-09  8.41248E-09  8.42556E-09  7.64849E-09  6.81410E-09
   6.58550E-09  6.35763E-09  5.93964E-09  5.56348E-09  4.71305E-09  5.13360E-09  3.86276E-09  4.48821E-09  3.49729E-09  3.03713E-09
   3.01437E-09  3.75227E-09  3.39022E-09  3.00985E-09  4.57045E-09  3.91165E-09  3.56175E-09  3.94464E-09  3.50409E-09  3.68717E-09
   2.79692E-09  2.17779E-09  2.09706E-09  2.09053E-09  2.33810E-09  3.08744E-09  3.86407E-09  3.81164E-09  3.53573E-09  3.93819E-09
   3.86529E-09  4.45639E-09  3.41610E-09  3.38703E-09  3.16390E-09  1.95562E-09  2.18899E-09  1.98064E-09  2.05461E-09  2.39144E-09
   3.24242E-09  2.54581E-09  2.40058E-09  2.90074E-09  2.70639E-09  2.72059E-09  2.63782E-09  2.40634E-09  1.98726E-09  2.13601E-09
   3.12207E-09  3.87577E-09  4.91271E-09  4.90613E-09  3.59620E-09  3.74180E-09  3.70947E-09  4.96515E-09  4.02741E-09  5.04886E-09
   4.02218E-09  3.97649E-09  3.99187E-09  3.99479E-09  3.71516E-09  3.77069E-09  3.39087E-09  4.02902E-09  4.04840E-09  4.42365E-09
   4.50560E-09  5.36568E-09  5.17800E-09  5.14558E-09  5.05651E-09  5.50923E-09  6.10649E-09  6.72101E-09  7.62169E-09  9.41935E-09
   1.06764E-08  1.31619E-08  1.72168E-08  1.89150E-08  1.52211E-08  1.07638E-08  7.69028E-09  6.48019E-09  5.49822E-09  5.05180E-09
   3.27735E-09  3.70479E-09  2.51458E-09  2.51896E-09  1.81647E-09  1.25804E-09  1.05724E-09  9.03881E-10  5.20708E-10 -1.14772E-11
  -5.85638E-10 -8.81951E-10 -1.72183E-09 -2.44557E-09 -3.30410E-09 -4.03346E-09 -5.08290E-09 -5.30812E-09 -6.26332E-09 -7.88989E-09
  -8.12369E-09 -8.24726E-09 -9.06557E-09 -9.03069E-09 -9.45487E-09 -8.96558E-09 -9.03271E-09 -8.81241E-09 -8.72642E-09 -7.92432E-09
  -7.41732E-09 -6.47021E-09 -5.54738E-09 -4.84067E-09 -3.84907E-09 -3.09553E-09 -2.28282E-09 -2.95056E-09 -1.28137E-09 -2.60523E-09
  -1.33740E-09 -2.50678E-09 -2.61670E-09 -2.18224E-09 -2.91972E-09 -2.03117E-09 -1.63836E-09 -2.00451E-09 -2.09098E-09 -1.71467E-09
  -1.89848E-09 -1.83716E-09 -2.02397E-09 -2.20423E-09 -2.50804E-09 -2.19699E-09 -2.45554E-09 -1.78082E-09 -1.56892E-09 -1.62500E-09
  -1.24823E-09 -1.76709E-09 -1.46283E-09 -1.91439E-09 -2.36485E-09 -2.00015E-09 -1.65238E-09 -1.98689E-09 -1.89291E-09 -1.85323E-09
  -1.41781E-09 -1.42524E-09 -7.95033E-10 -9.47319E-10 -1.42184E-09 -1.08955E-09 -9.64640E-10 -1.51274E-09 -2.05618E-09 -2.06079E-09
  -1.86504E-09 -2.22490E-09 -2.46725E-09 -2.59345E-09 -2.09238E-09 -1.29801E-09 -1.61440E-09 -1.01308E-09 -1.63511E-09 -2.60520E-10
  -3.73990E-10 -5.17768E-10 -6.37514E-10 -4.48327E-10 -1.51706E-10 -6.37690E-10 -1.73311E-09 -8.00705E-10 -1.39073E-09 -1.97131E-09
  -1.81130E-09 -1.92268E-09 -1.69386E-09 -2.09584E-09 -1.72353E-09 -1.47773E-09 -1.87581E-09 -1.32942E-09 -1.60915E-09 -1.16523E-09
  -1.24243E-09 -1.37318E-09 -1.59730E-09 -1.13493E-09 -1.07302E-09 -1.06846E-09 -1.27495E-09 -1.07792E-09 -1.56999E-09 -1.53322E-09
  -9.06326E-10 -1.10819E-09 -1.41865E-09 -1.10442E-09 -8.93240E-10 -1.09488E-09 -9.97885E-10 -1.25595E-09 -8.71512E-10 -1.14138E-09
  -1.49730E-09 -7.60480E-10 -9.99587E-10 -7.53592E-10 -9.59611E-10 -1.13301E-09 -8.42649E-10 -2.63508E-10 -1.14636E-09 -6.91613E-10
  -8.48920E-10 -8.25274E-10 -5.70623E-10 -1.35060E-09 -5.35311E-10 -6.13514E-10 -6.73975E-10 -6.48668E-10 -9.50895E-10 -1.42373E-10
  -6.12313E-10 -1.01875E-09 -8.58299E-10 -6.69166E-10 -9.92188E-10 -6.67073E-10 -7.91446E-10 -6.33529E-10 -6.93408E-10 -3.91626E-10
  -3.38634E-10 -3.33200E-10 -6.30011E-10 -5.26787E-10 -3.12724E-10 -5.82831E-10 -1.15610E-09 -2.79236E-10 -5.72345E-10 -4.14851E-10
  -2.89970E-10 -3.80746E-10 -7.62300E-11 -2.30781E-10 -3.58640E-10 -3.02573E-10 -1.48905E-10 -2.48058E-10  4.15214E-12 -5.56809E-10
  -7.38803E-10 -3.69280E-10 -4.89087E-10
 NY points of the fit to the data follow
   2.88565E-09  3.36506E-09  3.78946E-09  4.07359E-09  4.13272E-09  3.95702E-09  3.60123E-09  3.18405E-09  2.83380E-09  2.57574E-09
   2.48115E-09  2.50280E-09  2.60230E-09  2.78180E-09  3.07425E-09  3.45809E-09  3.92090E-09  4.44996E-09  4.96489E-09  5.34635E-09
   5.50320E-09  5.32462E-09  4.86800E-09  4.42085E-09  4.10832E-09  4.00144E-09  4.19978E-09  4.69866E-09  5.33591E-09  5.89087E-09
   6.15632E-09  6.41572E-09  6.87135E-09  7.28107E-09  7.62022E-09  8.08472E-09  8.45849E-09  8.48080E-09  8.04287E-09  7.28267E-09
   6.45248E-09  5.54357E-09  4.46428E-09  3.65201E-09  3.17820E-09  2.78485E-09  2.58740E-09  2.62874E-09  2.77350E-09  2.89937E-09
   2.95561E-09  2.93823E-09  2.92538E-09  2.94420E-09  2.99716E-09  3.07231E-09  3.14124E-09  3.17520E-09  3.16440E-09  3.20503E-09
   3.46728E-09  4.06724E-09  4.83007E-09  5.67116E-09  6.80932E-09  7.89805E-09  8.67696E-09  9.19742E-09  9.42963E-09  9.24841E-09
   8.57906E-09  7.47121E-09  6.25384E-09  5.26900E-09  4.33514E-09  3.58637E-09  3.49781E-09  4.05839E-09  4.98614E-09  6.37318E-09
   8.05697E-09  9.83732E-09  1.14222E-08  1.21451E-08  1.16730E-08  1.04940E-08  9.13466E-09  7.85174E-09  6.85425E-09  6.55531E-09
   6.44352E-09  6.34303E-09  6.01838E-09  5.50812E-09  5.12348E-09  4.70358E-09  4.18186E-09  3.82170E-09  3.56722E-09  3.34763E-09
   3.23705E-09  3.19683E-09  3.20631E-09  3.27435E-09  3.36684E-09  3.44563E-09  3.48947E-09  3.50005E-09  3.48367E-09  3.43314E-09
   3.34698E-09  3.25400E-09  3.18945E-09  3.12438E-09  3.07664E-09  3.07451E-09  3.08775E-09  3.10756E-09  3.13072E-09  3.15569E-09
   3.18159E-09  3.20785E-09  3.23404E-09  3.25984E-09  3.28500E-09  3.30933E-09  3.33264E-09  3.35478E-09  3.37562E-09  3.39503E-09
   3.41289E-09  3.42909E-09  3.44352E-09  3.45608E-09  3.46666E-09  3.47519E-09  3.48156E-09  3.48570E-09  3.48752E-09  3.48695E-09
   3.48389E-09  3.47823E-09  3.46985E-09  3.45863E-09  3.44446E-09  3.42722E-09  3.40682E-09  3.38314E-09  3.35612E-09  3.32566E-09
   3.29172E-09  3.25428E-09  3.21332E-09  3.16890E-09  3.12110E-09  3.07012E-09  3.01625E-09  2.95997E-09  2.90206E-09  2.84372E-09
   2.78694E-09  2.73512E-09  2.69442E-09  2.67722E-09  2.71280E-09  2.89307E-09  3.63889E-09  5.24160E-09  7.42118E-09  1.00236E-08
   1.29735E-08  1.57909E-08  1.75071E-08  1.72665E-08  1.50478E-08  1.16208E-08  7.87161E-09  4.46885E-09  2.17386E-09  1.13506E-09
   6.21207E-10  2.66464E-10 -1.88622E-11 -2.66752E-10 -4.91540E-10 -7.00567E-10 -8.97860E-10 -1.08573E-09 -1.26550E-09 -1.43794E-09
  -1.60342E-09 -1.76210E-09 -1.91396E-09 -2.05885E-09 -2.19656E-09 -2.32684E-09 -2.44948E-09 -2.56464E-09 -2.67256E-09 -2.77342E-09
  -2.86740E-09 -2.95469E-09 -3.03545E-09 -3.10982E-09 -3.17796E-09 -3.24000E-09 -3.29610E-09 -3.34639E-09 -3.39099E-09 -3.43004E-09
  -3.46366E-09 -3.49199E-09 -3.51515E-09 -3.53326E-09 -3.54644E-09 -3.55483E-09 -3.55853E-09 -3.55766E-09 -3.55236E-09 -3.54273E-09
  -3.52889E-09 -3.51097E-09 -3.48908E-09 -3.46334E-09 -3.43389E-09 -3.40095E-09 -3.36473E-09 -3.32544E-09 -3.28331E-09 -3.23854E-09
  -3.19136E-09 -3.14198E-09 -3.09061E-09 -3.03747E-09 -2.98276E-09 -2.92672E-09 -2.86955E-09 -2.81147E-09 -2.75268E-09 -2.69342E-09
  -2.63388E-09 -2.57429E-09 -2.51485E-09 -2.45579E-09 -2.39730E-09 -2.33962E-09 -2.28295E-09 -2.22750E-09 -2.17350E-09 -2.12115E-09
  -2.07066E-09 -2.02226E-09 -1.97603E-09 -1.93191E-09 -1.88984E-09 -1.84976E-09 -1.81158E-09 -1.77525E-09 -1.74070E-09 -1.70786E-09
  -1.67666E-09 -1.64703E-09 -1.61891E-09 -1.59222E-09 -1.56690E-09 -1.54288E-09 -1.52009E-09 -1.49847E-09 -1.47795E-09 -1.45846E-09
  -1.43991E-09 -1.42227E-09 -1.40545E-09 -1.38938E-09 -1.37401E-09 -1.35925E-09 -1.34505E-09 -1.33132E-09 -1.31802E-09 -1.30506E-09
  -1.29241E-09 -1.28006E-09 -1.26797E-09 -1.25612E-09 -1.24452E-09 -1.23313E-09 -1.22195E-09 -1.21093E-09 -1.20008E-09 -1.18938E-09
  -1.17880E-09 -1.16833E-09 -1.15794E-09 -1.14763E-09 -1.13737E-09 -1.12714E-09 -1.11693E-09 -1.10672E-09 -1.09649E-09 -1.08622E-09
  -1.07590E-09 -1.06550E-09 -1.05501E-09 -1.04441E-09 -1.03368E-09 -1.02281E-09 -1.01177E-09 -1.00055E-09 -9.89144E-10 -9.77565E-10
  -9.65818E-10 -9.53911E-10 -9.41854E-10 -9.29648E-10 -9.17306E-10 -9.04833E-10 -8.92237E-10 -8.79526E-10 -8.66709E-10 -8.53789E-10
  -8.40780E-10 -8.27682E-10 -8.14506E-10 -8.01264E-10 -7.87954E-10 -7.74594E-10 -7.61185E-10 -7.47733E-10 -7.34250E-10 -7.20746E-10
  -7.07218E-10 -6.93683E-10 -6.80142E-10 -6.66609E-10 -6.53090E-10 -6.39585E-10 -6.26102E-10 -6.12643E-10 -5.99205E-10 -5.85789E-10
  -5.72397E-10 -5.59027E-10 -5.45680E-10 -5.32356E-10 -5.19060E-10 -5.05784E-10 -4.92537E-10 -4.79314E-10 -4.66118E-10 -4.52948E-10
  -4.39802E-10 -4.26687E-10 -4.13597E-10 -4.00536E-10 -3.87503E-10 -3.74500E-10 -3.61525E-10 -3.48578E-10 -3.35661E-10 -3.22777E-10
  -3.09923E-10 -2.97101E-10 -2.84307E-10
 NY background values follow
    -2.129E-09   -2.083E-09   -2.037E-09   -1.991E-09   -1.946E-09   -1.900E-09   -1.854E-09   -1.809E-09   -1.764E-09   -1.719E-09
    -1.674E-09   -1.630E-09   -1.586E-09   -1.542E-09   -1.499E-09   -1.456E-09   -1.413E-09   -1.371E-09   -1.329E-09   -1.288E-09
    -1.248E-09   -1.207E-09   -1.168E-09   -1.129E-09   -1.090E-09   -1.053E-09   -1.016E-09   -9.793E-10   -9.437E-10   -9.088E-10
    -8.747E-10   -8.412E-10   -8.083E-10   -7.761E-10   -7.445E-10   -7.134E-10   -6.829E-10   -6.528E-10   -6.233E-10   -5.941E-10
    -5.654E-10   -5.371E-10   -5.091E-10   -4.814E-10   -4.540E-10   -4.269E-10   -4.000E-10   -3.733E-10   -3.467E-10   -3.203E-10
    -2.940E-10   -2.678E-10   -2.416E-10   -2.154E-10   -1.893E-10   -1.630E-10   -1.367E-10   -1.103E-10   -8.377E-11   -5.705E-11
    -3.012E-11   -2.971E-12    2.444E-11    5.215E-11    8.019E-11    1.086E-10    1.374E-10    1.665E-10    1.962E-10    2.263E-10
     2.569E-10    2.881E-10    3.199E-10    3.522E-10    3.852E-10    4.189E-10    4.532E-10    4.883E-10    5.241E-10    5.607E-10
     5.982E-10    6.365E-10    6.757E-10    7.158E-10    7.568E-10    7.988E-10    8.416E-10    8.853E-10    9.297E-10    9.749E-10
     1.021E-09    1.067E-09    1.114E-09    1.161E-09    1.209E-09    1.257E-09    1.306E-09    1.355E-09    1.404E-09    1.453E-09
     1.502E-09    1.551E-09    1.600E-09    1.650E-09    1.698E-09    1.747E-09    1.796E-09    1.844E-09    1.892E-09    1.939E-09
     1.986E-09    2.032E-09    2.078E-09    2.123E-09    2.168E-09    2.211E-09    2.254E-09    2.296E-09    2.336E-09    2.376E-09
     2.414E-09    2.451E-09    2.487E-09    2.521E-09    2.554E-09    2.585E-09    2.615E-09    2.643E-09    2.669E-09    2.693E-09
     2.715E-09    2.735E-09    2.753E-09    2.769E-09    2.783E-09    2.794E-09    2.803E-09    2.810E-09    2.813E-09    2.815E-09
     2.813E-09    2.809E-09    2.802E-09    2.791E-09    2.778E-09    2.761E-09    2.740E-09    2.716E-09    2.688E-09    2.657E-09
     2.621E-09    2.581E-09    2.537E-09    2.489E-09    2.436E-09    2.378E-09    2.316E-09    2.248E-09    2.176E-09    2.098E-09
     2.015E-09    1.927E-09    1.833E-09    1.733E-09    1.627E-09    1.516E-09    1.398E-09    1.274E-09    1.144E-09    1.008E-09
     8.667E-10    7.201E-10    5.691E-10    4.141E-10    2.555E-10    9.378E-11   -7.050E-11   -2.369E-10   -4.049E-10   -5.741E-10
    -7.440E-10   -9.141E-10   -1.084E-09   -1.253E-09   -1.421E-09   -1.587E-09   -1.751E-09   -1.912E-09   -2.071E-09   -2.225E-09
    -2.376E-09   -2.522E-09   -2.663E-09   -2.798E-09   -2.928E-09   -3.051E-09   -3.167E-09   -3.276E-09   -3.379E-09   -3.475E-09
    -3.565E-09   -3.649E-09   -3.726E-09   -3.797E-09   -3.862E-09   -3.922E-09   -3.975E-09   -4.023E-09   -4.066E-09   -4.103E-09
    -4.134E-09   -4.161E-09   -4.182E-09   -4.199E-09   -4.210E-09   -4.217E-09   -4.220E-09   -4.218E-09   -4.211E-09   -4.200E-09
    -4.185E-09   -4.166E-09   -4.143E-09   -4.117E-09   -4.086E-09   -4.053E-09   -4.015E-09   -3.975E-09   -3.932E-09   -3.887E-09
    -3.839E-09   -3.789E-09   -3.737E-09   -3.683E-09   -3.628E-09   -3.571E-09   -3.513E-09   -3.454E-09   -3.395E-09   -3.335E-09
    -3.275E-09   -3.215E-09   -3.155E-09   -3.095E-09   -3.036E-09   -2.978E-09   -2.921E-09   -2.865E-09   -2.811E-09   -2.758E-09
    -2.707E-09   -2.658E-09   -2.611E-09   -2.567E-09   -2.524E-09   -2.484E-09   -2.445E-09   -2.408E-09   -2.374E-09   -2.340E-09
    -2.309E-09   -2.279E-09   -2.250E-09   -2.223E-09   -2.197E-09   -2.173E-09   -2.150E-09   -2.128E-09   -2.107E-09   -2.087E-09
    -2.068E-09   -2.050E-09   -2.033E-09   -2.017E-09   -2.001E-09   -1.986E-09   -1.971E-09   -1.957E-09   -1.943E-09   -1.930E-09
    -1.917E-09   -1.904E-09   -1.892E-09   -1.880E-09   -1.868E-09   -1.856E-09   -1.845E-09   -1.833E-09   -1.822E-09   -1.811E-09
    -1.800E-09   -1.789E-09   -1.779E-09   -1.768E-09   -1.757E-09   -1.747E-09   -1.736E-09   -1.726E-09   -1.715E-09   -1.705E-09
    -1.694E-09   -1.683E-09   -1.672E-09   -1.661E-09   -1.650E-09   -1.639E-09   -1.628E-09   -1.616E-09   -1.605E-09   -1.593E-09
    -1.581E-09   -1.568E-09   -1.556E-09   -1.543E-09   -1.531E-09   -1.518E-09   -1.505E-09   -1.492E-09   -1.479E-09   -1.465E-09
    -1.452E-09   -1.439E-09   -1.425E-09   -1.412E-09   -1.398E-09   -1.384E-09   -1.370E-09   -1.357E-09   -1.343E-09   -1.329E-09
    -1.315E-09   -1.301E-09   -1.287E-09   -1.273E-09   -1.259E-09   -1.246E-09   -1.232E-09   -1.218E-09   -1.204E-09   -1.190E-09
    -1.176E-09   -1.163E-09   -1.149E-09   -1.135E-09   -1.122E-09   -1.108E-09   -1.094E-09   -1.081E-09   -1.067E-09   -1.054E-09
    -1.040E-09   -1.027E-09   -1.013E-09   -9.996E-10   -9.862E-10   -9.728E-10   -9.594E-10   -9.460E-10   -9.327E-10   -9.194E-10
    -9.061E-10   -8.929E-10   -8.797E-10
 Ala      Conc. = 1.36E-10
  -2.02747E-09 -1.97014E-09 -1.91679E-09 -1.86746E-09 -1.82126E-09 -1.77768E-09 -1.73914E-09 -1.70681E-09 -1.67379E-09 -1.63975E-09
  -1.61063E-09 -1.57931E-09 -1.54347E-09 -1.50808E-09 -1.47129E-09 -1.43231E-09 -1.39242E-09 -1.35219E-09 -1.31193E-09 -1.27183E-09
  -1.23200E-09 -1.19255E-09 -1.15354E-09 -1.11501E-09 -1.07703E-09 -1.03964E-09 -1.00287E-09 -9.66750E-10 -9.31326E-10 -8.96612E-10
  -8.62589E-10 -8.29224E-10 -7.96496E-10 -7.64374E-10 -7.32829E-10 -7.01835E-10 -6.71362E-10 -6.41382E-10 -6.11862E-10 -5.82771E-10
  -5.54089E-10 -5.25773E-10 -4.97806E-10 -4.70148E-10 -4.42778E-10 -4.15655E-10 -3.88757E-10 -3.62058E-10 -3.35511E-10 -3.09101E-10
  -2.82797E-10 -2.56556E-10 -2.30361E-10 -2.04176E-10 -1.77987E-10 -1.51729E-10 -1.25387E-10 -9.89417E-11 -7.23529E-11 -4.55905E-11
  -1.86234E-11  8.57938E-12  3.60495E-11  6.38193E-11  9.19190E-11  1.20379E-10  1.49234E-10  1.78513E-10  2.08248E-10  2.38472E-10
   2.69217E-10  3.00513E-10  3.32395E-10  3.64892E-10  3.98041E-10  4.31870E-10  4.66416E-10  5.01712E-10  5.37791E-10  5.74687E-10
   6.12440E-10  6.51080E-10  6.90653E-10  7.31189E-10  7.72735E-10  8.15289E-10  8.58814E-10  9.03274E-10  9.48640E-10  9.94892E-10
   1.04202E-09  1.09004E-09  1.13899E-09  1.18896E-09  1.24011E-09  1.29274E-09  1.34744E-09  1.40537E-09  1.46935E-09  1.54822E-09
   1.65770E-09  1.77506E-09  1.90322E-09  2.06391E-09  2.23064E-09  2.37003E-09  2.46403E-09  2.51677E-09  2.53638E-09  2.51700E-09
   2.45814E-09  2.38910E-09  2.34557E-09  2.29901E-09  2.26764E-09  2.28011E-09  2.30651E-09  2.33822E-09  2.37215E-09  2.40690E-09
   2.44168E-09  2.47602E-09  2.50960E-09  2.54218E-09  2.57357E-09  2.60364E-09  2.63224E-09  2.65927E-09  2.68461E-09  2.70817E-09
   2.72986E-09  2.74959E-09  2.76727E-09  2.78281E-09  2.79614E-09  2.80717E-09  2.81582E-09  2.82202E-09  2.82568E-09  2.82673E-09
   2.82508E-09  2.82061E-09  2.81320E-09  2.80272E-09  2.78902E-09  2.77199E-09  2.75148E-09  2.72737E-09  2.69952E-09  2.66780E-09
   2.63209E-09  2.59225E-09  2.54816E-09  2.49968E-09  2.44669E-09  2.38906E-09  2.32667E-09  2.25940E-09  2.18713E-09  2.10975E-09
   2.02716E-09  1.93930E-09  1.84615E-09  1.74777E-09  1.64450E-09  1.53753E-09  1.43253E-09  1.34458E-09  1.26240E-09  1.18268E-09
   1.10684E-09  1.02793E-09  9.25129E-10  7.75993E-10  5.76696E-10  3.45414E-10  1.03709E-10 -1.34322E-10 -3.54686E-10 -5.40185E-10
  -7.17108E-10 -8.91147E-10 -1.06351E-09 -1.23435E-09 -1.40350E-09 -1.57065E-09 -1.73543E-09 -1.89741E-09 -2.05615E-09 -2.21120E-09
  -2.36211E-09 -2.50842E-09 -2.64966E-09 -2.78535E-09 -2.91503E-09 -3.03823E-09 -3.15459E-09 -3.26416E-09 -3.36705E-09 -3.46339E-09
  -3.55327E-09 -3.63683E-09 -3.71418E-09 -3.78542E-09 -3.85068E-09 -3.91007E-09 -3.96371E-09 -4.01170E-09 -4.05417E-09 -4.09123E-09
  -4.12299E-09 -4.14957E-09 -4.17108E-09 -4.18765E-09 -4.19937E-09 -4.20636E-09 -4.20875E-09 -4.20664E-09 -4.20015E-09 -4.18939E-09
  -4.17448E-09 -4.15552E-09 -4.13265E-09 -4.10596E-09 -4.07561E-09 -4.04180E-09 -4.00474E-09 -3.96464E-09 -3.92173E-09 -3.87622E-09
  -3.82831E-09 -3.77822E-09 -3.72617E-09 -3.67238E-09 -3.61703E-09 -3.56037E-09 -3.50260E-09 -3.44393E-09 -3.38457E-09 -3.32474E-09
  -3.26467E-09 -3.20454E-09 -3.14458E-09 -3.08501E-09 -3.02603E-09 -2.96786E-09 -2.91071E-09 -2.85480E-09 -2.80033E-09 -2.74754E-09
  -2.69660E-09 -2.64776E-09 -2.60110E-09 -2.55656E-09 -2.51407E-09 -2.47358E-09 -2.43500E-09 -2.39828E-09 -2.36333E-09 -2.33010E-09
  -2.29851E-09 -2.26850E-09 -2.24000E-09 -2.21294E-09 -2.18725E-09 -2.16287E-09 -2.13971E-09 -2.11774E-09 -2.09686E-09 -2.07701E-09
  -2.05812E-09 -2.04013E-09 -2.02296E-09 -2.00654E-09 -1.99083E-09 -1.97572E-09 -1.96118E-09 -1.94713E-09 -1.93349E-09 -1.92019E-09
  -1.90721E-09 -1.89452E-09 -1.88210E-09 -1.86993E-09 -1.85799E-09 -1.84628E-09 -1.83476E-09 -1.82342E-09 -1.81224E-09 -1.80121E-09
  -1.79031E-09 -1.77951E-09 -1.76880E-09 -1.75816E-09 -1.74757E-09 -1.73702E-09 -1.72649E-09 -1.71595E-09 -1.70540E-09 -1.69480E-09
  -1.68416E-09 -1.67343E-09 -1.66261E-09 -1.65169E-09 -1.64064E-09 -1.62943E-09 -1.61807E-09 -1.60652E-09 -1.59478E-09 -1.58288E-09
  -1.57080E-09 -1.55856E-09 -1.54617E-09 -1.53363E-09 -1.52096E-09 -1.50815E-09 -1.49522E-09 -1.48217E-09 -1.46902E-09 -1.45576E-09
  -1.44241E-09 -1.42898E-09 -1.41546E-09 -1.40187E-09 -1.38822E-09 -1.37452E-09 -1.36076E-09 -1.34696E-09 -1.33313E-09 -1.31928E-09
  -1.30540E-09 -1.29151E-09 -1.27761E-09 -1.26372E-09 -1.24985E-09 -1.23598E-09 -1.22214E-09 -1.20832E-09 -1.19452E-09 -1.18074E-09
  -1.16698E-09 -1.15324E-09 -1.13952E-09 -1.12583E-09 -1.11216E-09 -1.09851E-09 -1.08488E-09 -1.07128E-09 -1.05770E-09 -1.04415E-09
  -1.03062E-09 -1.01712E-09 -1.00364E-09 -9.90189E-10 -9.76764E-10 -9.63366E-10 -9.49994E-10 -9.36648E-10 -9.23331E-10 -9.10043E-10
  -8.96784E-10 -8.83555E-10 -8.70351E-10
 Asp      Conc. = 5.37E-10
  -1.49060E-09 -1.52143E-09 -1.56197E-09 -1.61497E-09 -1.66128E-09 -1.70151E-09 -1.71896E-09 -1.71686E-09 -1.69229E-09 -1.65867E-09
  -1.62057E-09 -1.58004E-09 -1.53818E-09 -1.49566E-09 -1.45307E-09 -1.41054E-09 -1.36807E-09 -1.32576E-09 -1.28364E-09 -1.24178E-09
  -1.20021E-09 -1.15895E-09 -1.11804E-09 -1.07748E-09 -1.03725E-09 -9.97384E-10 -9.57825E-10 -9.18535E-10 -8.79454E-10 -8.40467E-10
  -8.01372E-10 -7.61874E-10 -7.21558E-10 -6.79757E-10 -6.35311E-10 -5.85835E-10 -5.25792E-10 -4.59536E-10 -3.83232E-10 -3.05948E-10
  -2.33494E-10 -1.71302E-10 -1.20500E-10 -7.24853E-11 -1.76849E-11  7.44177E-11  1.94313E-10  3.40859E-10  5.21350E-10  6.79792E-10
   7.68220E-10  7.62769E-10  6.90438E-10  5.89157E-10  4.84593E-10  3.97632E-10  3.27952E-10  2.92879E-10  2.50173E-10  2.12981E-10
   2.17757E-10  2.38806E-10  2.53782E-10  2.65698E-10  2.72083E-10  2.69347E-10  2.63673E-10  2.71888E-10  2.87500E-10  3.07466E-10
   3.30377E-10  3.55479E-10  3.82334E-10  4.10666E-10  4.40302E-10  4.71123E-10  5.03056E-10  5.36053E-10  5.70084E-10  6.05129E-10
   6.41189E-10  6.78258E-10  7.16351E-10  7.55470E-10  7.95637E-10  8.36823E-10  8.78963E-10  9.21993E-10  9.65846E-10  1.01046E-09
   1.05577E-09  1.10172E-09  1.14824E-09  1.19528E-09  1.24277E-09  1.29065E-09  1.33887E-09  1.38737E-09  1.43609E-09  1.48496E-09
   1.53393E-09  1.58295E-09  1.63195E-09  1.68088E-09  1.72967E-09  1.77828E-09  1.82664E-09  1.87470E-09  1.92239E-09  1.96967E-09
   2.01647E-09  2.06273E-09  2.10841E-09  2.15343E-09  2.19771E-09  2.24117E-09  2.28376E-09  2.32537E-09  2.36595E-09  2.40541E-09
   2.44368E-09  2.48068E-09  2.51634E-09  2.55058E-09  2.58333E-09  2.61450E-09  2.64402E-09  2.67183E-09  2.69784E-09  2.72197E-09
   2.74415E-09  2.76431E-09  2.78237E-09  2.79825E-09  2.81188E-09  2.82318E-09  2.83208E-09  2.83850E-09  2.84237E-09  2.84361E-09
   2.84215E-09  2.83786E-09  2.83062E-09  2.82031E-09  2.80678E-09  2.78992E-09  2.76959E-09  2.74566E-09  2.71801E-09  2.68650E-09
   2.65103E-09  2.61145E-09  2.56765E-09  2.51952E-09  2.46693E-09  2.40978E-09  2.34796E-09  2.28140E-09  2.21001E-09  2.13377E-09
   2.05268E-09  1.96684E-09  1.87654E-09  1.78240E-09  1.68599E-09  1.59172E-09  1.51760E-09  1.52962E-09  1.58605E-09  1.66946E-09
   1.78468E-09  1.90788E-09  1.95886E-09  1.84361E-09  1.53681E-09  1.10436E-09  6.32133E-10  1.76565E-10 -2.11562E-10 -4.53654E-10
  -6.52898E-10 -8.38804E-10 -1.01849E-09 -1.19427E-09 -1.36695E-09 -1.53674E-09 -1.70354E-09 -1.86712E-09 -2.02715E-09 -2.18326E-09
  -2.33505E-09 -2.48210E-09 -2.62398E-09 -2.76021E-09 -2.89036E-09 -3.01398E-09 -3.13071E-09 -3.24060E-09 -3.34378E-09 -3.44037E-09
  -3.53049E-09 -3.61426E-09 -3.69180E-09 -3.76321E-09 -3.82863E-09 -3.88817E-09 -3.94194E-09 -3.99006E-09 -4.03264E-09 -4.06981E-09
  -4.10167E-09 -4.12834E-09 -4.14994E-09 -4.16658E-09 -4.17837E-09 -4.18544E-09 -4.18790E-09 -4.18585E-09 -4.17942E-09 -4.16871E-09
  -4.15386E-09 -4.13495E-09 -4.11212E-09 -4.08548E-09 -4.05517E-09 -4.02140E-09 -3.98438E-09 -3.94433E-09 -3.90145E-09 -3.85597E-09
