 LCModel (Version 6.3-1R) Copyright: S.W. Provencher.          Ref.: Magn. Reson. Med. 30:672-679 (1993).                
 onepulse 21x10_ftSpec_smooth_lcm
 26 lines in following concentration table = NCONC+1
    Conc.  %SD /Cr+PCr  Metabolite                                         
    0.000 999%   0.000 Ala                                                 
    0.000 999%   0.000 Asp                                                 
 2.74E-10 134%   1.000 Cr                                                  
 7.81E-10 136%   2.852 GABA                                                
 8.79E-10  65%   3.209 Glc                                                 
 1.74E-09  44%   6.346 Gln                                                 
 2.64E-11 999% 9.6E-02 Glu                                                 
 8.97E-10  42%   3.274 Glyc                                                
 2.48E-10  29%   0.907 GPC                                                 
    0.000 999%   0.000 GSH                                                 
    0.000 999%   0.000 Ins                                                 
    0.000 999%   0.000 Lac                                                 
    0.000 999%   0.000 NAAG                                                
 7.91E-10  35%   2.885 NAA                                                 
    0.000 999%   0.000 PCh                                                 
    0.000 999%   0.000 PCr                                                 
    0.000 999%   0.000 PE                                                  
 1.50E-10  90%   0.547 Scyllo                                              
 1.62E-09  47%   5.927 Ser                                                 
    0.000 999%   0.000 Tau                                                 
 2.48E-10  29%   0.907 GPC+PCh                                             
 7.91E-10  35%   2.885 NAA+NAAG                                            
 8.97E-10  42%   3.274 Ins+Glyc                                            
 2.74E-10 134%   1.000 Cr+PCr                                              
 1.77E-09  38%   6.442 Glu+Gln                                             
   6 lines in following misc. output table
  FWHM = 0.089 ppm    S/N =   3                                            
  Data shift = 0.347 ppm                                                   
  Ph:   0 deg     -14.0 deg/ppm                                            
  alphaB,S = 2.9E-01,   2.5E+01                                            
   10 spline knots.   Ns = 5(1)                                            
  ( 7) 2 infls.   ( 7) 1 extrs.                                            
  363 points on ppm-axis = NY
      4.250000     4.238821     4.227641     4.216462     4.205282     4.194103     4.182923     4.171744     4.160564     4.149385
      4.138206     4.127026     4.115847     4.104667     4.093488     4.082308     4.071129     4.059949     4.048770     4.037591
      4.026411     4.015232     4.004052     3.992873     3.981693     3.970514     3.959334     3.948155     3.936975     3.925796
      3.914617     3.903437     3.892258     3.881078     3.869899     3.858719     3.847540     3.836360     3.825181     3.814002
      3.802822     3.791643     3.780463     3.769284     3.758104     3.746925     3.735745     3.724566     3.713387     3.702207
      3.691028     3.679848     3.668669     3.657489     3.646310     3.635130     3.623951     3.612772     3.601592     3.590413
      3.579233     3.568054     3.556874     3.545695     3.534515     3.523336     3.512156     3.500977     3.489798     3.478618
      3.467439     3.456259     3.445080     3.433900     3.422721     3.411541     3.400362     3.389183     3.378003     3.366824
      3.355644     3.344465     3.333285     3.322106     3.310926     3.299747     3.288568     3.277388     3.266209     3.255029
      3.243850     3.232670     3.221491     3.210311     3.199132     3.187953     3.176773     3.165594     3.154414     3.143235
      3.132055     3.120876     3.109696     3.098517     3.087337     3.076158     3.064979     3.053799     3.042620     3.031440
      3.020261     3.009081     2.997902     2.986722     2.975543     2.964364     2.953184     2.942005     2.930825     2.919646
      2.908466     2.897287     2.886107     2.874928     2.863749     2.852569     2.841390     2.830210     2.819031     2.807851
      2.796672     2.785492     2.774313     2.763134     2.751954     2.740775     2.729595     2.718416     2.707236     2.696057
      2.684877     2.673698     2.662519     2.651339     2.640160     2.628980     2.617801     2.606621     2.595442     2.584262
      2.573083     2.561903     2.550724     2.539545     2.528365     2.517186     2.506006     2.494827     2.483647     2.472468
      2.461288     2.450109     2.438930     2.427750     2.416571     2.405391     2.394212     2.383032     2.371853     2.360673
      2.349494     2.338315     2.327135     2.315956     2.304776     2.293597     2.282417     2.271238     2.260058     2.248879
      2.237700     2.226520     2.215341     2.204161     2.192982     2.181802     2.170623     2.159443     2.148264     2.137084
      2.125905     2.114726     2.103546     2.092367     2.081187     2.070008     2.058828     2.047649     2.036469     2.025290
      2.014111     2.002931     1.991752     1.980572     1.969393     1.958213     1.947034     1.935854     1.924675     1.913496
      1.902316     1.891137     1.879957     1.868778     1.857598     1.846419     1.835239     1.824060     1.812881     1.801701
      1.790522     1.779342     1.768163     1.756983     1.745804     1.734624     1.723445     1.712265     1.701086     1.689907
      1.678727     1.667548     1.656368     1.645189     1.634009     1.622830     1.611650     1.600471     1.589292     1.578112
      1.566933     1.555753     1.544574     1.533394     1.522215     1.511035     1.499856     1.488677     1.477497     1.466318
      1.455138     1.443959     1.432779     1.421600     1.410420     1.399241     1.388062     1.376882     1.365703     1.354523
      1.343344     1.332164     1.320985     1.309805     1.298626     1.287446     1.276267     1.265088     1.253908     1.242729
      1.231549     1.220370     1.209190     1.198011     1.186831     1.175652     1.164473     1.153293     1.142114     1.130934
      1.119755     1.108575     1.097396     1.086216     1.075037     1.063858     1.052678     1.041499     1.030319     1.019140
      1.007960     0.996781     0.985601     0.974422     0.963243     0.952063     0.940884     0.929704     0.918525     0.907345
      0.896166     0.884986     0.873807     0.862628     0.851448     0.840269     0.829089     0.817910     0.806730     0.795551
      0.784371     0.773192     0.762012     0.750833     0.739654     0.728474     0.717295     0.706115     0.694936     0.683756
      0.672577     0.661397     0.650218     0.639039     0.627859     0.616680     0.605500     0.594321     0.583141     0.571962
      0.560782     0.549603     0.538424     0.527244     0.516065     0.504885     0.493706     0.482526     0.471347     0.460167
      0.448988     0.437809     0.426629     0.415450     0.404270     0.393091     0.381911     0.370732     0.359552     0.348373
      0.337193     0.326014     0.314835     0.303655     0.292476     0.281296     0.270117     0.258937     0.247758     0.236578
      0.225399     0.214220     0.203040
 NY phased data points follow
   6.92844E-09  9.24529E-09  9.77460E-09  1.07722E-08  9.82752E-09  9.71531E-09  8.56433E-09  8.91255E-09  7.57633E-09  8.31687E-09
   7.13161E-09  8.43434E-09  8.05093E-09  9.15290E-09  8.75520E-09  9.97656E-09  1.01250E-08  1.10805E-08  9.43563E-09  1.10926E-08
   9.27326E-09  9.80066E-09  9.63712E-09  1.07330E-08  9.92706E-09  1.00771E-08  9.67203E-09  1.07440E-08  9.78838E-09  1.04081E-08
   9.29633E-09  1.15020E-08  1.14347E-08  1.33340E-08  1.30823E-08  1.39389E-08  1.28271E-08  1.33664E-08  1.14952E-08  1.13954E-08
   1.06564E-08  1.08695E-08  1.05429E-08  1.06405E-08  9.99565E-09  9.83280E-09  8.61939E-09  8.73885E-09  7.60340E-09  8.60722E-09
   7.52145E-09  8.32576E-09  7.11405E-09  7.30404E-09  6.79195E-09  7.31475E-09  5.42248E-09  5.24538E-09  5.17255E-09  5.69350E-09
   5.53363E-09  6.47297E-09  7.79217E-09  1.04633E-08  1.15908E-08  1.32076E-08  1.35239E-08  1.32141E-08  1.16800E-08  1.12567E-08
   9.52827E-09  9.66672E-09  8.36965E-09  7.83055E-09  6.12718E-09  6.26550E-09  6.08934E-09  5.90049E-09  6.83198E-09  9.18426E-09
   1.14550E-08  1.45602E-08  1.52428E-08  1.60140E-08  1.51364E-08  1.49495E-08  1.42883E-08  1.38574E-08  1.30842E-08  1.34318E-08
   1.29615E-08  1.24156E-08  1.16920E-08  1.17328E-08  1.14835E-08  1.04715E-08  1.02283E-08  9.95739E-09  9.09471E-09  9.23054E-09
   8.25270E-09  8.25312E-09  8.31292E-09  8.63927E-09  8.27219E-09  7.98451E-09  7.48734E-09  7.49227E-09  6.67093E-09  7.16805E-09
   5.43530E-09  6.05335E-09  4.57543E-09  5.36868E-09  5.44937E-09  6.21091E-09  5.22804E-09  6.43075E-09  6.40880E-09  6.38986E-09
   5.82303E-09  6.35470E-09  6.01863E-09  5.74766E-09  4.69044E-09  5.20577E-09  4.01499E-09  4.06693E-09  3.62149E-09  4.66855E-09
   3.92257E-09  4.72784E-09  4.49025E-09  4.43217E-09  4.53711E-09  4.30305E-09  4.35924E-09  4.18710E-09  4.58075E-09  4.88097E-09
   5.35983E-09  6.55199E-09  6.16866E-09  7.38907E-09  6.33154E-09  6.97343E-09  6.90367E-09  7.24923E-09  6.71147E-09  7.84015E-09
   6.45279E-09  6.36705E-09  6.02865E-09  6.20726E-09  5.24602E-09  5.16811E-09  5.01144E-09  5.48377E-09  4.62967E-09  4.74861E-09
   4.58381E-09  4.29690E-09  4.46812E-09  4.81231E-09  4.25591E-09  4.71282E-09  4.18627E-09  4.44305E-09  5.23873E-09  6.72714E-09
   7.97902E-09  1.17734E-08  1.47262E-08  1.58361E-08  1.49418E-08  1.41805E-08  1.20902E-08  1.15189E-08  9.28362E-09  7.90575E-09
   6.29255E-09  5.89657E-09  4.25344E-09  2.91155E-09  1.33202E-09  8.03571E-11 -1.70470E-09 -3.00001E-09 -4.94275E-09 -6.28116E-09
  -7.91326E-09 -9.02574E-09 -1.09311E-08 -1.22388E-08 -1.38325E-08 -1.41295E-08 -1.52406E-08 -1.52018E-08 -1.60601E-08 -1.53145E-08
  -1.54421E-08 -1.42488E-08 -1.33251E-08 -1.25994E-08 -1.11914E-08 -9.60681E-09 -8.51052E-09 -6.54664E-09 -5.66397E-09 -4.62164E-09
  -3.31855E-09 -2.66041E-09 -2.22596E-09 -1.44677E-09 -1.99979E-09 -2.21461E-09 -1.98517E-09 -2.42228E-09 -2.34239E-09 -2.20144E-09
  -2.73183E-09 -2.31997E-09 -1.78284E-09 -1.36125E-09 -1.38505E-09 -7.80597E-10 -1.80547E-09 -1.74616E-09 -2.20318E-09 -1.76971E-09
  -1.62887E-09 -2.01903E-09 -1.35448E-09 -1.00341E-09 -1.51689E-09 -9.39024E-10 -1.37415E-09 -9.68253E-10 -1.78366E-09 -1.29105E-09
  -1.57556E-09 -9.69131E-10 -1.61015E-09 -1.17842E-09 -1.68892E-09 -9.49931E-10 -1.31109E-09 -8.12639E-10 -6.78305E-10 -5.65937E-10
  -8.37217E-10 -8.02412E-10 -3.96575E-10 -5.65536E-10 -3.85557E-10 -2.51831E-10 -4.61762E-10 -8.02905E-10 -7.97723E-10 -6.60320E-10
  -1.03960E-09 -2.04529E-09 -1.47820E-09 -1.45773E-09 -1.50918E-09 -1.33596E-09 -1.17696E-09 -1.05182E-09 -5.97104E-10 -6.62174E-10
  -3.05967E-10  3.02166E-10  1.07394E-10  6.01989E-10  7.74825E-10  9.50534E-10  7.48721E-10  1.36605E-09  9.35078E-11  4.57400E-10
   9.39042E-11  2.04015E-10 -5.51299E-10  6.32544E-12 -4.06014E-10 -5.62775E-10 -5.44705E-10 -3.66487E-10 -6.17098E-10 -6.82179E-10
  -1.23414E-09 -1.12588E-09 -7.30343E-10 -1.00988E-09 -1.02110E-09 -7.29714E-10 -1.11486E-09 -8.20246E-10 -1.25100E-09 -9.41662E-10
  -1.54480E-09 -4.50806E-10 -1.16018E-09 -6.18425E-10 -6.68693E-10 -8.90738E-10 -8.76262E-10 -5.65608E-10 -8.54689E-10 -6.30249E-10
  -5.96631E-10 -1.25152E-10 -8.93737E-10 -4.44151E-10 -2.12841E-10 -7.56773E-10  5.75461E-11 -4.72355E-10 -5.97449E-10  2.99079E-10
  -1.78304E-10  3.44393E-10  1.45879E-10 -2.27802E-10 -4.23139E-10  4.60113E-10  1.12649E-10  3.40616E-10  4.29049E-10  1.93209E-10
   4.04032E-10  5.54454E-10  8.86319E-10  9.17390E-10  2.69677E-10  6.62976E-10  7.36027E-10  1.28265E-09  3.10471E-10  1.43485E-09
   1.22996E-09  6.50526E-10  1.40539E-09  1.39835E-09  1.21625E-09  1.39801E-09  1.38337E-09  1.50107E-09  1.69804E-09  1.54475E-09
   1.65146E-09  1.61333E-09  1.84740E-09  1.90210E-09  1.69517E-09  2.07912E-09  1.94602E-09  2.01301E-09  2.47524E-09  2.91374E-09
   2.02624E-09  2.04267E-09  1.79913E-09
 NY points of the fit to the data follow
   7.70275E-09  8.61902E-09  8.80513E-09  8.77248E-09  9.14379E-09  9.52205E-09  9.47218E-09  9.22076E-09  8.81125E-09  8.46675E-09
   8.34530E-09  8.12422E-09  8.33452E-09  8.68629E-09  9.13723E-09  9.48850E-09  9.82704E-09  1.02569E-08  1.06738E-08  1.04495E-08
   9.64490E-09  9.41232E-09  9.36894E-09  9.38056E-09  9.43197E-09  9.39559E-09  9.58194E-09  1.00691E-08  1.05688E-08  1.08351E-08
   1.12948E-08  1.17657E-08  1.24146E-08  1.28509E-08  1.23565E-08  1.11895E-08  1.09659E-08  1.10920E-08  1.12631E-08  1.13784E-08
   1.14184E-08  1.14393E-08  1.10241E-08  9.98386E-09  9.37376E-09  9.02680E-09  8.61486E-09  8.26241E-09  7.99426E-09  7.77848E-09
   7.59173E-09  7.42946E-09  7.29216E-09  7.15115E-09  7.01734E-09  7.01557E-09  7.11133E-09  7.33033E-09  7.72365E-09  8.21368E-09
   8.70109E-09  9.24763E-09  9.86305E-09  1.04471E-08  1.09477E-08  1.12523E-08  1.13005E-08  1.13309E-08  1.10986E-08  1.04337E-08
   1.00687E-08  9.83111E-09  9.35401E-09  8.89860E-09  8.69257E-09  8.44246E-09  8.22564E-09  8.59283E-09  9.27340E-09  1.01274E-08
   1.13050E-08  1.26964E-08  1.38894E-08  1.48264E-08  1.56161E-08  1.59549E-08  1.57629E-08  1.49995E-08  1.31388E-08  1.18021E-08
   1.11060E-08  1.06822E-08  1.04552E-08  1.01593E-08  9.79780E-09  9.62018E-09  9.39564E-09  9.06246E-09  8.83227E-09  8.63207E-09
   8.41643E-09  8.22915E-09  8.06592E-09  7.92057E-09  7.78894E-09  7.66812E-09  7.55579E-09  7.45037E-09  7.35067E-09  7.25574E-09
   7.16474E-09  7.07686E-09  6.99157E-09  6.90841E-09  6.82700E-09  6.74704E-09  6.66820E-09  6.59013E-09  6.51257E-09  6.43530E-09
   6.35809E-09  6.28078E-09  6.20318E-09  6.12512E-09  6.04642E-09  5.96697E-09  5.88660E-09  5.80518E-09  5.72259E-09  5.63872E-09
   5.55343E-09  5.46663E-09  5.37822E-09  5.28807E-09  5.19611E-09  5.10223E-09  5.00634E-09  4.90835E-09  4.80818E-09  4.70574E-09
   4.60094E-09  4.49372E-09  4.38401E-09  4.27173E-09  4.15678E-09  4.03914E-09  3.91874E-09  3.79552E-09  3.66944E-09  3.54048E-09
   3.40857E-09  3.27374E-09  3.13600E-09  2.99535E-09  2.85190E-09  2.70573E-09  2.55716E-09  2.40661E-09  2.25491E-09  2.10309E-09
   1.95269E-09  1.80610E-09  1.66737E-09  1.54408E-09  1.45280E-09  1.43891E-09  1.68964E-09  2.92124E-09  4.76862E-09  7.03257E-09
   9.74826E-09  1.26357E-08  1.49726E-08  1.62322E-08  1.65206E-08  1.59350E-08  1.38565E-08  9.25882E-09  3.12637E-09  6.48697E-10
  -2.75232E-10 -8.03909E-10 -1.17959E-09 -1.47954E-09 -1.73579E-09 -1.96385E-09 -2.17217E-09 -2.36564E-09 -2.54721E-09 -2.71879E-09
  -2.88162E-09 -3.03647E-09 -3.18391E-09 -3.32421E-09 -3.45762E-09 -3.58423E-09 -3.70407E-09 -3.81711E-09 -3.92335E-09 -4.02264E-09
  -4.11492E-09 -4.20006E-09 -4.27793E-09 -4.34838E-09 -4.41127E-09 -4.46645E-09 -4.51372E-09 -4.55299E-09 -4.58414E-09 -4.60742E-09
  -4.62307E-09 -4.63135E-09 -4.63253E-09 -4.62685E-09 -4.61457E-09 -4.59593E-09 -4.57120E-09 -4.54061E-09 -4.50443E-09 -4.46289E-09
  -4.41624E-09 -4.36473E-09 -4.30861E-09 -4.24811E-09 -4.18349E-09 -4.11499E-09 -4.04284E-09 -3.96730E-09 -3.88860E-09 -3.80698E-09
  -3.72266E-09 -3.63591E-09 -3.54694E-09 -3.45600E-09 -3.36331E-09 -3.26910E-09 -3.17362E-09 -3.07706E-09 -2.97968E-09 -2.88169E-09
  -2.78331E-09 -2.68476E-09 -2.58627E-09 -2.48804E-09 -2.39029E-09 -2.29322E-09 -2.19707E-09 -2.10202E-09 -2.00827E-09 -1.91604E-09
  -1.82551E-09 -1.73690E-09 -1.65039E-09 -1.56615E-09 -1.48441E-09 -1.40530E-09 -1.32905E-09 -1.25582E-09 -1.18578E-09 -1.11911E-09
  -1.05583E-09 -9.95841E-10 -9.39036E-10 -8.85286E-10 -8.34478E-10 -7.86503E-10 -7.41240E-10 -6.98583E-10 -6.58409E-10 -6.20613E-10
  -5.85090E-10 -5.51717E-10 -5.20400E-10 -4.91015E-10 -4.63459E-10 -4.37641E-10 -4.13440E-10 -3.90761E-10 -3.69490E-10 -3.49548E-10
  -3.30811E-10 -3.13208E-10 -2.96608E-10 -2.80936E-10 -2.66108E-10 -2.52019E-10 -2.38567E-10 -2.25677E-10 -2.13265E-10 -2.01245E-10
  -1.89519E-10 -1.78005E-10 -1.66624E-10 -1.55319E-10 -1.43978E-10 -1.32557E-10 -1.20954E-10 -1.09113E-10 -9.69572E-11 -8.44324E-11
  -7.14666E-11 -5.79708E-11 -4.39260E-11 -2.92372E-11 -1.38606E-11  2.24609E-12  1.91516E-11  3.69221E-11  5.55649E-11  7.51700E-11
   9.57498E-11  1.17339E-10  1.39940E-10  1.63470E-10  1.87863E-10  2.13056E-10  2.38984E-10  2.65586E-10  2.92799E-10  3.20562E-10
   3.48814E-10  3.77495E-10  4.06547E-10  4.35910E-10  4.65529E-10  4.95346E-10  5.25305E-10  5.55352E-10  5.85432E-10  6.15493E-10
   6.45483E-10  6.75350E-10  7.05044E-10  7.34515E-10  7.63716E-10  7.92597E-10  8.21115E-10  8.49223E-10  8.76876E-10  9.04031E-10
   9.30647E-10  9.56680E-10  9.82093E-10  1.00684E-09  1.03090E-09  1.05421E-09  1.07676E-09  1.09850E-09  1.11940E-09  1.13943E-09
   1.15855E-09  1.17674E-09  1.19397E-09  1.21022E-09  1.22544E-09  1.23962E-09  1.25274E-09  1.26477E-09  1.27569E-09  1.28549E-09
   1.29413E-09  1.30160E-09  1.30789E-09
 NY background values follow
     4.557E-09    4.598E-09    4.637E-09    4.676E-09    4.714E-09    4.751E-09    4.787E-09    4.822E-09    4.856E-09    4.889E-09
     4.921E-09    4.952E-09    4.982E-09    5.011E-09    5.039E-09    5.066E-09    5.092E-09    5.118E-09    5.142E-09    5.166E-09
     5.189E-09    5.210E-09    5.232E-09    5.252E-09    5.271E-09    5.290E-09    5.308E-09    5.325E-09    5.341E-09    5.356E-09
     5.371E-09    5.386E-09    5.399E-09    5.412E-09    5.424E-09    5.436E-09    5.447E-09    5.457E-09    5.467E-09    5.477E-09
     5.486E-09    5.494E-09    5.502E-09    5.509E-09    5.517E-09    5.523E-09    5.530E-09    5.536E-09    5.541E-09    5.547E-09
     5.552E-09    5.557E-09    5.562E-09    5.566E-09    5.570E-09    5.575E-09    5.578E-09    5.582E-09    5.586E-09    5.589E-09
     5.592E-09    5.595E-09    5.598E-09    5.600E-09    5.602E-09    5.604E-09    5.606E-09    5.607E-09    5.608E-09    5.609E-09
     5.610E-09    5.610E-09    5.610E-09    5.609E-09    5.609E-09    5.608E-09    5.606E-09    5.605E-09    5.602E-09    5.600E-09
     5.597E-09    5.594E-09    5.590E-09    5.586E-09    5.581E-09    5.576E-09    5.570E-09    5.564E-09    5.557E-09    5.550E-09
     5.542E-09    5.534E-09    5.525E-09    5.515E-09    5.505E-09    5.494E-09    5.483E-09    5.471E-09    5.458E-09    5.444E-09
     5.430E-09    5.415E-09    5.399E-09    5.383E-09    5.366E-09    5.347E-09    5.328E-09    5.308E-09    5.287E-09    5.265E-09
     5.242E-09    5.217E-09    5.192E-09    5.165E-09    5.137E-09    5.107E-09    5.076E-09    5.043E-09    5.009E-09    4.974E-09
     4.936E-09    4.897E-09    4.856E-09    4.813E-09    4.768E-09    4.721E-09    4.672E-09    4.621E-09    4.568E-09    4.513E-09
     4.455E-09    4.395E-09    4.333E-09    4.268E-09    4.201E-09    4.131E-09    4.058E-09    3.982E-09    3.904E-09    3.823E-09
     3.739E-09    3.653E-09    3.563E-09    3.470E-09    3.374E-09    3.275E-09    3.172E-09    3.066E-09    2.957E-09    2.845E-09
     2.729E-09    2.609E-09    2.486E-09    2.359E-09    2.229E-09    2.095E-09    1.957E-09    1.815E-09    1.670E-09    1.522E-09
     1.371E-09    1.217E-09    1.060E-09    9.018E-10    7.411E-10    5.786E-10    4.146E-10    2.492E-10    8.266E-11   -8.473E-11
    -2.528E-10   -4.212E-10   -5.898E-10   -7.583E-10   -9.266E-10   -1.094E-09   -1.261E-09   -1.427E-09   -1.592E-09   -1.755E-09
    -1.916E-09   -2.076E-09   -2.233E-09   -2.388E-09   -2.540E-09   -2.689E-09   -2.836E-09   -2.978E-09   -3.118E-09   -3.253E-09
    -3.384E-09   -3.511E-09   -3.634E-09   -3.752E-09   -3.865E-09   -3.972E-09   -4.074E-09   -4.171E-09   -4.262E-09   -4.347E-09
    -4.425E-09   -4.497E-09   -4.563E-09   -4.621E-09   -4.672E-09   -4.717E-09   -4.753E-09   -4.782E-09   -4.803E-09   -4.817E-09
    -4.823E-09   -4.822E-09   -4.814E-09   -4.800E-09   -4.779E-09   -4.752E-09   -4.719E-09   -4.681E-09   -4.637E-09   -4.588E-09
    -4.533E-09   -4.475E-09   -4.411E-09   -4.344E-09   -4.272E-09   -4.197E-09   -4.118E-09   -4.036E-09   -3.950E-09   -3.862E-09
    -3.772E-09   -3.679E-09   -3.584E-09   -3.487E-09   -3.388E-09   -3.288E-09   -3.186E-09   -3.084E-09   -2.981E-09   -2.878E-09
    -2.774E-09   -2.670E-09   -2.566E-09   -2.462E-09   -2.359E-09   -2.257E-09   -2.156E-09   -2.055E-09   -1.957E-09   -1.859E-09
    -1.764E-09   -1.670E-09   -1.579E-09   -1.490E-09   -1.404E-09   -1.320E-09   -1.239E-09   -1.161E-09   -1.087E-09   -1.016E-09
    -9.479E-10   -8.835E-10   -8.224E-10   -7.643E-10   -7.093E-10   -6.571E-10   -6.077E-10   -5.609E-10   -5.166E-10   -4.748E-10
    -4.352E-10   -3.979E-10   -3.626E-10   -3.294E-10   -2.979E-10   -2.683E-10   -2.403E-10   -2.139E-10   -1.889E-10   -1.652E-10
    -1.428E-10   -1.216E-10   -1.014E-10   -8.220E-11   -6.384E-11   -4.626E-11   -2.934E-11   -1.302E-11    2.794E-12    1.819E-11
     3.326E-11    4.809E-11    6.275E-11    7.732E-11    9.189E-11    1.065E-10    1.213E-10    1.363E-10    1.516E-10    1.672E-10
     1.832E-10    1.997E-10    2.168E-10    2.345E-10    2.528E-10    2.719E-10    2.917E-10    3.123E-10    3.339E-10    3.563E-10
     3.797E-10    4.041E-10    4.295E-10    4.557E-10    4.828E-10    5.107E-10    5.393E-10    5.686E-10    5.985E-10    6.288E-10
     6.597E-10    6.909E-10    7.225E-10    7.544E-10    7.865E-10    8.188E-10    8.513E-10    8.837E-10    9.162E-10    9.487E-10
     9.811E-10    1.013E-09    1.045E-09    1.077E-09    1.109E-09    1.140E-09    1.171E-09    1.201E-09    1.231E-09    1.260E-09
     1.289E-09    1.317E-09    1.345E-09    1.372E-09    1.398E-09    1.423E-09    1.448E-09    1.472E-09    1.495E-09    1.517E-09
     1.538E-09    1.558E-09    1.577E-09    1.595E-09    1.612E-09    1.629E-09    1.644E-09    1.658E-09    1.670E-09    1.682E-09
     1.692E-09    1.702E-09    1.710E-09
 Cr       Conc. = 2.74E-10
   5.34431E-09  5.58840E-09  5.66318E-09  5.42915E-09  5.22917E-09  5.13301E-09  5.08195E-09  5.05405E-09  5.03953E-09  5.03329E-09
   5.03241E-09  5.03501E-09  5.03985E-09  5.04608E-09  5.05304E-09  5.06023E-09  5.06727E-09  5.07378E-09  5.07949E-09  5.08405E-09
   5.08718E-09  5.08854E-09  5.08772E-09  5.08427E-09  5.07758E-09  5.06686E-09  5.05102E-09  5.02845E-09  4.99679E-09  4.95225E-09
   4.88962E-09  4.82435E-09  4.85953E-09  4.97195E-09  5.16232E-09  5.45900E-09  5.85620E-09  6.28086E-09  6.66069E-09  6.99318E-09
   7.28288E-09  7.43114E-09  7.21814E-09  6.65648E-09  6.38689E-09  6.23611E-09  6.13843E-09  6.06955E-09  6.01825E-09  5.97858E-09
   5.94698E-09  5.92129E-09  5.90005E-09  5.88225E-09  5.86715E-09  5.85418E-09  5.84292E-09  5.83307E-09  5.82435E-09  5.81657E-09
   5.80956E-09  5.80318E-09  5.79731E-09  5.79186E-09  5.78676E-09  5.78191E-09  5.77726E-09  5.77276E-09  5.76836E-09  5.76401E-09
   5.75967E-09  5.75530E-09  5.75088E-09  5.74637E-09  5.74173E-09  5.73695E-09  5.73199E-09  5.72685E-09  5.72145E-09  5.71582E-09
   5.70991E-09  5.70372E-09  5.69719E-09  5.69035E-09  5.68315E-09  5.67556E-09  5.66757E-09  5.65915E-09  5.65030E-09  5.64099E-09
   5.63118E-09  5.62090E-09  5.61006E-09  5.59871E-09  5.58680E-09  5.57427E-09  5.56114E-09  5.54740E-09  5.53302E-09  5.51797E-09
   5.50226E-09  5.48580E-09  5.46862E-09  5.45073E-09  5.43201E-09  5.41251E-09  5.39215E-09  5.37087E-09  5.34862E-09  5.32534E-09
   5.30097E-09  5.27546E-09  5.24875E-09  5.22078E-09  5.19151E-09  5.16085E-09  5.12876E-09  5.09518E-09  5.06005E-09  5.02332E-09
   4.98490E-09  4.94477E-09  4.90283E-09  4.85906E-09  4.81337E-09  4.76571E-09  4.71601E-09  4.66423E-09  4.61029E-09  4.55413E-09
   4.49570E-09  4.43493E-09  4.37177E-09  4.30614E-09  4.23799E-09  4.16726E-09  4.09389E-09  4.01781E-09  3.93897E-09  3.85733E-09
   3.77278E-09  3.68529E-09  3.59481E-09  3.50127E-09  3.40460E-09  3.30475E-09  3.20167E-09  3.09529E-09  2.98556E-09  2.87244E-09
   2.75584E-09  2.63573E-09  2.51206E-09  2.38476E-09  2.25379E-09  2.11907E-09  1.98068E-09  1.83868E-09  1.69336E-09  1.54496E-09
   1.39376E-09  1.24006E-09  1.08424E-09  9.26829E-10  7.68736E-10  6.12220E-10  4.66720E-10  3.59948E-10  2.71728E-10  1.98051E-10
   1.40731E-10  8.65329E-11  6.85368E-12 -1.14777E-10 -2.70820E-10 -4.59814E-10 -7.10038E-10 -1.05768E-09 -1.44234E-09 -1.66737E-09
  -1.85245E-09 -2.02432E-09 -2.18926E-09 -2.34935E-09 -2.50540E-09 -2.65763E-09 -2.80614E-09 -2.95090E-09 -3.09174E-09 -3.22853E-09
  -3.36109E-09 -3.48922E-09 -3.61276E-09 -3.73143E-09 -3.84510E-09 -3.95352E-09 -4.05650E-09 -4.15380E-09 -4.24524E-09 -4.33059E-09
  -4.40965E-09 -4.48222E-09 -4.54808E-09 -4.60704E-09 -4.65889E-09 -4.70344E-09 -4.74046E-09 -4.76982E-09 -4.79137E-09 -4.80534E-09
  -4.81194E-09 -4.81143E-09 -4.80404E-09 -4.79000E-09 -4.76956E-09 -4.74296E-09 -4.71043E-09 -4.67221E-09 -4.62855E-09 -4.57969E-09
  -4.52586E-09 -4.46730E-09 -4.40426E-09 -4.33697E-09 -4.26567E-09 -4.19059E-09 -4.11198E-09 -4.03008E-09 -3.94513E-09 -3.85734E-09
  -3.76695E-09 -3.67422E-09 -3.57935E-09 -3.48260E-09 -3.38417E-09 -3.28431E-09 -3.18324E-09 -3.08118E-09 -2.97837E-09 -2.87501E-09
  -2.77133E-09 -2.66755E-09 -2.56388E-09 -2.46055E-09 -2.35775E-09 -2.25570E-09 -2.15462E-09 -2.05470E-09 -1.95613E-09 -1.85914E-09
  -1.76390E-09 -1.67063E-09 -1.57951E-09 -1.49072E-09 -1.40447E-09 -1.32091E-09 -1.24024E-09 -1.16264E-09 -1.08828E-09 -1.01733E-09
  -9.49818E-10 -8.85639E-10 -8.24686E-10 -7.66827E-10 -7.11953E-10 -6.59951E-10 -6.10701E-10 -5.64094E-10 -5.20010E-10 -4.78341E-10
  -4.38982E-10 -4.01809E-10 -3.66729E-10 -3.33616E-10 -3.02366E-10 -2.72889E-10 -2.45062E-10 -2.18791E-10 -1.93961E-10 -1.70492E-10
  -1.48261E-10 -1.27194E-10 -1.07162E-10 -8.80891E-11 -6.98901E-11 -5.24605E-11 -3.56971E-11 -1.95250E-11 -3.86047E-12  1.13844E-11
   2.63060E-11  4.09885E-11  5.55092E-11  6.99280E-11  8.43546E-11  9.88354E-11  1.13471E-10  1.28319E-10  1.43456E-10  1.58937E-10
   1.74833E-10  1.91234E-10  2.08159E-10  2.25704E-10  2.43913E-10  2.62827E-10  2.82517E-10  3.03048E-10  3.24428E-10  3.46747E-10
   3.70018E-10  3.94276E-10  4.19523E-10  4.45676E-10  4.72671E-10  5.00443E-10  5.28930E-10  5.58068E-10  5.87796E-10  6.18052E-10
   6.48778E-10  6.79911E-10  7.11394E-10  7.43170E-10  7.75179E-10  8.07367E-10  8.39677E-10  8.72056E-10  9.04448E-10  9.36802E-10
   9.69064E-10  1.00119E-09  1.03311E-09  1.06480E-09  1.09620E-09  1.12726E-09  1.15794E-09  1.18818E-09  1.21796E-09  1.24722E-09
   1.27592E-09  1.30403E-09  1.33149E-09  1.35827E-09  1.38434E-09  1.40966E-09  1.43419E-09  1.45789E-09  1.48074E-09  1.50269E-09
   1.52373E-09  1.54382E-09  1.56293E-09  1.58104E-09  1.59811E-09  1.61412E-09  1.62905E-09  1.64288E-09  1.65558E-09  1.66714E-09
   1.67753E-09  1.68674E-09  1.69475E-09
 GABA     Conc. = 7.81E-10
   4.22840E-09  4.26403E-09  4.29837E-09  4.33143E-09  4.36317E-09  4.39359E-09  4.42266E-09  4.45036E-09  4.47666E-09  4.50152E-09
   4.52492E-09  4.54681E-09  4.56714E-09  4.58586E-09  4.60292E-09  4.61826E-09  4.63177E-09  4.64333E-09  4.65287E-09  4.66016E-09
   4.66503E-09  4.66726E-09  4.66655E-09  4.66252E-09  4.65488E-09  4.64304E-09  4.62677E-09  4.60641E-09  4.58589E-09  4.59648E-09
   4.63052E-09  4.67003E-09  4.78620E-09  4.98457E-09  5.20832E-09  5.47551E-09  5.80707E-09  6.16769E-09  6.47869E-09  6.67600E-09
   6.77081E-09  6.94011E-09  6.99462E-09  6.72749E-09  6.56317E-09  6.50422E-09  6.29898E-09  6.10746E-09  5.97530E-09  5.87750E-09
   5.80087E-09  5.73818E-09  5.68500E-09  5.63861E-09  5.59710E-09  5.55889E-09  5.52294E-09  5.48858E-09  5.45554E-09  5.42470E-09
   5.39922E-09  5.39527E-09  5.44320E-09  5.51046E-09  5.61915E-09  5.82765E-09  6.07923E-09  6.33501E-09  6.61355E-09  6.90336E-09
   7.14014E-09  7.24679E-09  7.19984E-09  7.10748E-09  7.09595E-09  6.84706E-09  6.48893E-09  6.38238E-09  6.26515E-09  6.08543E-09
   5.98278E-09  5.91035E-09  5.86075E-09  5.87509E-09  5.91796E-09  5.96645E-09  6.05833E-09  6.19240E-09  6.34603E-09  6.49216E-09
   6.58401E-09  6.67593E-09  6.82392E-09  6.81825E-09  6.69243E-09  6.71195E-09  6.65551E-09  6.46818E-09  6.36635E-09  6.28009E-09
   6.16674E-09  6.07240E-09  5.99417E-09  5.92699E-09  5.86753E-09  5.81353E-09  5.76350E-09  5.71639E-09  5.67145E-09  5.62812E-09
   5.58586E-09  5.54415E-09  5.50269E-09  5.46124E-09  5.41960E-09  5.37762E-09  5.33512E-09  5.29188E-09  5.24776E-09  5.20262E-09
   5.15634E-09  5.10884E-09  5.05999E-09  5.00970E-09  4.95785E-09  4.90439E-09  4.84918E-09  4.79216E-09  4.73325E-09  4.67235E-09
   4.60940E-09  4.54432E-09  4.47704E-09  4.40746E-09  4.33554E-09  4.26118E-09  4.18434E-09  4.10492E-09  4.02287E-09  3.93812E-09
   3.85059E-09  3.76023E-09  3.66697E-09  3.57075E-09  3.47148E-09  3.36912E-09  3.26361E-09  3.15489E-09  3.04288E-09  2.92757E-09
   2.80883E-09  2.68666E-09  2.56102E-09  2.43180E-09  2.29900E-09  2.16255E-09  2.02252E-09  1.87901E-09  1.73234E-09  1.58280E-09
   1.43076E-09  1.27668E-09  1.12123E-09  9.65502E-10  8.11789E-10  6.66539E-10  5.59262E-10  5.62705E-10  6.19667E-10  7.19890E-10
   8.66698E-10  1.01968E-09  1.09801E-09  1.05792E-09  9.20612E-10  6.86084E-10  2.70705E-10 -4.19984E-10 -1.18872E-09 -1.51872E-09
  -1.74591E-09 -1.94046E-09 -2.11971E-09 -2.28974E-09 -2.45317E-09 -2.61114E-09 -2.76430E-09 -2.91291E-09 -3.05702E-09 -3.19665E-09
  -3.33171E-09 -3.46207E-09 -3.58761E-09 -3.70812E-09 -3.82347E-09 -3.93345E-09 -4.03787E-09 -4.13653E-09 -4.22925E-09 -4.31580E-09
  -4.39600E-09 -4.46965E-09 -4.53654E-09 -4.59649E-09 -4.64928E-09 -4.69474E-09 -4.73264E-09 -4.76284E-09 -4.78521E-09 -4.79997E-09
  -4.80733E-09 -4.80756E-09 -4.80088E-09 -4.78754E-09 -4.76778E-09 -4.74183E-09 -4.70995E-09 -4.67236E-09 -4.62931E-09 -4.58104E-09
  -4.52779E-09 -4.46979E-09 -4.40731E-09 -4.34056E-09 -4.26979E-09 -4.19524E-09 -4.11713E-09 -4.03573E-09 -3.95126E-09 -3.86395E-09
