 LCModel (Version 6.3-1R) Copyright: S.W. Provencher.          Ref.: Magn. Reson. Med. 30:672-679 (1993).                
 onepulse 21x14_ftSpec_smooth_lcm
 26 lines in following concentration table = NCONC+1
    Conc.  %SD /Cr+PCr  Metabolite                                         
    0.000 999%   0.000 Ala                                                 
    0.000 999%   0.000 Asp                                                 
    0.000 999%   0.000 Cr                                                  
    0.000 999%   0.000 GABA                                                
    0.000 999%   0.000 Glc                                                 
 2.90E-09  12%   8.750 Gln                                                 
    0.000 999%   0.000 Glu                                                 
 1.18E-09  17%   3.543 Glyc                                                
 2.82E-10  17%   0.850 GPC                                                 
    0.000 999%   0.000 GSH                                                 
    0.000 999%   0.000 Ins                                                 
    0.000 999%   0.000 Lac                                                 
    0.000 999%   0.000 NAAG                                                
 3.97E-10  39%   1.195 NAA                                                 
    0.000 999%   0.000 PCh                                                 
 3.32E-10  41%   1.000 PCr                                                 
    0.000 999%   0.000 PE                                                  
 3.39E-10  20%   1.021 Scyllo                                              
 1.95E-09  17%   5.885 Ser                                                 
    0.000 999%   0.000 Tau                                                 
 2.82E-10  17%   0.850 GPC+PCh                                             
 3.97E-10  39%   1.195 NAA+NAAG                                            
 1.18E-09  17%   3.543 Ins+Glyc                                            
 3.32E-10  41%   1.000 Cr+PCr                                              
 2.90E-09  12%   8.750 Glu+Gln                                             
   6 lines in following misc. output table
  FWHM = 0.078 ppm    S/N =   5                                            
  Data shift = 0.347 ppm                                                   
  Ph: -44 deg     -21.8 deg/ppm                                            
  alphaB,S = 1.9E-01,   4.9E+01                                            
   16 spline knots.   Ns = 5(1)                                            
  ( 5) 4 infls.   ( 5) 1 extrs.                                            
  363 points on ppm-axis = NY
      4.250000     4.238821     4.227641     4.216462     4.205282     4.194103     4.182923     4.171744     4.160564     4.149385
      4.138206     4.127026     4.115847     4.104667     4.093488     4.082308     4.071129     4.059949     4.048770     4.037591
      4.026411     4.015232     4.004052     3.992873     3.981693     3.970514     3.959334     3.948155     3.936975     3.925796
      3.914617     3.903437     3.892258     3.881078     3.869899     3.858719     3.847540     3.836360     3.825181     3.814002
      3.802822     3.791643     3.780463     3.769284     3.758104     3.746925     3.735745     3.724566     3.713387     3.702207
      3.691028     3.679848     3.668669     3.657489     3.646310     3.635130     3.623951     3.612772     3.601592     3.590413
      3.579233     3.568054     3.556874     3.545695     3.534515     3.523336     3.512156     3.500977     3.489798     3.478618
      3.467439     3.456259     3.445080     3.433900     3.422721     3.411541     3.400362     3.389183     3.378003     3.366824
      3.355644     3.344465     3.333285     3.322106     3.310926     3.299747     3.288568     3.277388     3.266209     3.255029
      3.243850     3.232670     3.221491     3.210311     3.199132     3.187953     3.176773     3.165594     3.154414     3.143235
      3.132055     3.120876     3.109696     3.098517     3.087337     3.076158     3.064979     3.053799     3.042620     3.031440
      3.020261     3.009081     2.997902     2.986722     2.975543     2.964364     2.953184     2.942005     2.930825     2.919646
      2.908466     2.897287     2.886107     2.874928     2.863749     2.852569     2.841390     2.830210     2.819031     2.807851
      2.796672     2.785492     2.774313     2.763134     2.751954     2.740775     2.729595     2.718416     2.707236     2.696057
      2.684877     2.673698     2.662519     2.651339     2.640160     2.628980     2.617801     2.606621     2.595442     2.584262
      2.573083     2.561903     2.550724     2.539545     2.528365     2.517186     2.506006     2.494827     2.483647     2.472468
      2.461288     2.450109     2.438930     2.427750     2.416571     2.405391     2.394212     2.383032     2.371853     2.360673
      2.349494     2.338315     2.327135     2.315956     2.304776     2.293597     2.282417     2.271238     2.260058     2.248879
      2.237700     2.226520     2.215341     2.204161     2.192982     2.181802     2.170623     2.159443     2.148264     2.137084
      2.125905     2.114726     2.103546     2.092367     2.081187     2.070008     2.058828     2.047649     2.036469     2.025290
      2.014111     2.002931     1.991752     1.980572     1.969393     1.958213     1.947034     1.935854     1.924675     1.913496
      1.902316     1.891137     1.879957     1.868778     1.857598     1.846419     1.835239     1.824060     1.812881     1.801701
      1.790522     1.779342     1.768163     1.756983     1.745804     1.734624     1.723445     1.712265     1.701086     1.689907
      1.678727     1.667548     1.656368     1.645189     1.634009     1.622830     1.611650     1.600471     1.589292     1.578112
      1.566933     1.555753     1.544574     1.533394     1.522215     1.511035     1.499856     1.488677     1.477497     1.466318
      1.455138     1.443959     1.432779     1.421600     1.410420     1.399241     1.388062     1.376882     1.365703     1.354523
      1.343344     1.332164     1.320985     1.309805     1.298626     1.287446     1.276267     1.265088     1.253908     1.242729
      1.231549     1.220370     1.209190     1.198011     1.186831     1.175652     1.164473     1.153293     1.142114     1.130934
      1.119755     1.108575     1.097396     1.086216     1.075037     1.063858     1.052678     1.041499     1.030319     1.019140
      1.007960     0.996781     0.985601     0.974422     0.963243     0.952063     0.940884     0.929704     0.918525     0.907345
      0.896166     0.884986     0.873807     0.862628     0.851448     0.840269     0.829089     0.817910     0.806730     0.795551
      0.784371     0.773192     0.762012     0.750833     0.739654     0.728474     0.717295     0.706115     0.694936     0.683756
      0.672577     0.661397     0.650218     0.639039     0.627859     0.616680     0.605500     0.594321     0.583141     0.571962
      0.560782     0.549603     0.538424     0.527244     0.516065     0.504885     0.493706     0.482526     0.471347     0.460167
      0.448988     0.437809     0.426629     0.415450     0.404270     0.393091     0.381911     0.370732     0.359552     0.348373
      0.337193     0.326014     0.314835     0.303655     0.292476     0.281296     0.270117     0.258937     0.247758     0.236578
      0.225399     0.214220     0.203040
 NY phased data points follow
   1.80152E-08  1.71611E-08  1.38566E-08  1.18715E-08  1.02251E-08  1.03274E-08  9.45050E-09  9.69949E-09  9.21528E-09  1.03030E-08
   1.00183E-08  1.06435E-08  1.06037E-08  1.10226E-08  1.08750E-08  1.17484E-08  1.00354E-08  9.64041E-09  9.01893E-09  9.58657E-09
   8.66592E-09  8.52763E-09  8.16353E-09  9.59158E-09  9.23557E-09  9.93253E-09  9.31047E-09  9.04592E-09  7.58189E-09  8.97051E-09
   8.91939E-09  1.07288E-08  1.11813E-08  1.02934E-08  8.80341E-09  7.06442E-09  5.52901E-09  4.41637E-09  4.19730E-09  4.63103E-09
   4.35231E-09  4.09277E-09  4.09093E-09  4.77225E-09  3.46867E-09  3.82640E-09  3.40510E-09  3.40813E-09  3.75748E-09  4.00807E-09
   4.75015E-09  4.76260E-09  4.42698E-09  5.54151E-09  4.30415E-09  3.86169E-09  4.39191E-09  5.02996E-09  5.21959E-09  6.76034E-09
   7.82132E-09  9.20673E-09  1.09801E-08  1.39975E-08  1.40306E-08  1.12760E-08  8.27147E-09  5.81720E-09  4.64356E-09  3.83111E-09
   3.56471E-09  3.41234E-09  2.75201E-09  2.65780E-09  3.55805E-09  3.86350E-09  4.18860E-09  6.42803E-09  7.96479E-09  1.10025E-08
   1.41280E-08  1.42339E-08  1.08590E-08  8.34228E-09  6.83410E-09  6.06301E-09  5.50610E-09  5.36979E-09  4.30269E-09  4.19592E-09
   4.18614E-09  3.63094E-09  3.00240E-09  3.14916E-09  2.59321E-09  2.05027E-09  2.34051E-09  1.89447E-09  1.88119E-09  1.99890E-09
   1.86011E-09  1.65192E-09  2.77419E-09  2.90657E-09  2.38231E-09  2.34129E-09  2.74875E-09  1.88215E-09  1.85837E-09  1.72887E-09
   7.88088E-10  1.02331E-09  9.46202E-10  2.07435E-09  2.01262E-09  3.10789E-09  2.44257E-09  3.09101E-09  3.21220E-09  2.74103E-09
   3.10716E-09  2.73768E-09  2.35589E-09  1.81647E-09  1.13704E-09  1.37820E-09  1.28055E-09  1.31672E-09  1.30483E-09  2.40476E-09
   1.60420E-09  1.96541E-09  2.36000E-09  1.79965E-09  2.35817E-09  2.40407E-09  1.93281E-09  2.20245E-09  1.80264E-09  3.01309E-09
   4.22128E-09  4.93195E-09  4.31094E-09  3.49499E-09  3.93467E-09  3.75945E-09  4.80314E-09  3.82727E-09  5.20040E-09  3.56794E-09
   3.89820E-09  3.75632E-09  3.31321E-09  3.26718E-09  2.95258E-09  3.23820E-09  3.04231E-09  3.29032E-09  3.63890E-09  3.32017E-09
   3.92994E-09  3.98150E-09  4.09084E-09  4.10943E-09  3.80914E-09  4.23574E-09  4.83345E-09  5.60864E-09  7.01898E-09  7.75712E-09
   1.01230E-08  1.53406E-08  1.82994E-08  1.71934E-08  1.35856E-08  1.11216E-08  9.84023E-09  8.87457E-09  7.41935E-09  6.32631E-09
   5.90586E-09  5.20196E-09  4.58478E-09  4.37735E-09  3.44703E-09  3.01242E-09  2.58709E-09  2.32422E-09  1.25291E-09  6.69431E-11
   3.33313E-10 -3.00079E-10 -1.27961E-09 -1.95203E-09 -3.13203E-09 -4.65872E-09 -4.59647E-09 -5.42882E-09 -7.07874E-09 -7.72474E-09
  -7.95536E-09 -8.79959E-09 -8.63541E-09 -9.02264E-09 -8.46364E-09 -8.18055E-09 -7.72437E-09 -7.40681E-09 -6.85216E-09 -5.86237E-09
  -4.72593E-09 -4.39751E-09 -3.59166E-09 -2.45218E-09 -2.55412E-09 -1.48232E-09 -1.81557E-09 -6.90521E-10 -1.23878E-09 -1.29461E-09
  -1.42784E-09 -1.86033E-09 -1.07885E-09 -1.34770E-09 -1.09371E-09 -9.42977E-10 -7.15272E-10 -1.09499E-09 -6.71659E-10 -5.87476E-10
  -7.10005E-10 -6.79309E-10 -9.89033E-10 -1.22327E-09 -1.07171E-09 -1.14085E-09 -1.09324E-09 -4.67071E-10 -7.19489E-10 -2.41677E-10
  -5.04582E-10 -4.36823E-10 -2.32699E-10 -1.06683E-09 -1.19907E-09 -5.92175E-10 -5.49817E-10 -1.44914E-09 -8.64854E-10 -7.36254E-10
  -5.35073E-10 -3.94263E-10  4.17354E-12  2.88295E-11  4.99942E-10  6.12534E-11  5.83739E-10 -4.18877E-10 -3.42030E-10 -4.81531E-10
  -3.42527E-10 -8.74352E-10 -8.41579E-10 -1.70449E-09 -1.12049E-09 -1.37222E-09 -6.35658E-10 -1.55986E-09 -1.21063E-09 -7.97173E-10
  -5.09301E-10  5.94290E-11 -2.49277E-11  5.07835E-10  6.61671E-10  6.76669E-10  1.91515E-10  1.01840E-09  5.07506E-10  3.44547E-10
   2.21373E-10  3.11874E-10  2.95186E-10 -1.43934E-10 -5.02809E-11 -4.79209E-10 -3.15057E-10 -6.15717E-10 -7.68287E-10 -1.84796E-10
  -1.27944E-10 -9.50549E-10 -5.07836E-10 -7.48177E-10 -4.12331E-10 -5.59655E-10 -5.27637E-10 -3.31031E-10 -7.63457E-10 -9.40685E-10
  -6.27217E-10 -4.81678E-10 -1.04654E-09 -4.65714E-10 -7.88586E-10 -7.16781E-10 -6.37244E-10 -9.44807E-10 -1.41547E-10 -1.24918E-09
  -8.49429E-10 -2.12191E-10 -1.02942E-09 -6.99623E-10 -4.55188E-10 -1.52739E-09 -7.87439E-10 -3.62685E-10 -5.41141E-10 -6.24098E-10
  -7.51280E-10 -6.50723E-10 -3.95396E-10 -6.91631E-10 -8.22494E-10 -9.51148E-10 -4.32853E-10 -8.94976E-10 -2.91746E-10 -5.79800E-10
  -4.77223E-10 -4.10079E-10 -6.93154E-10 -4.77857E-10 -4.58798E-10 -7.03037E-10 -5.18896E-10 -6.18903E-10 -7.21016E-10 -1.24008E-09
  -3.07188E-11 -5.71278E-10 -6.20301E-10 -1.01599E-09  2.49220E-11 -2.31880E-10 -1.09202E-09 -5.66460E-10 -7.41233E-10 -5.53611E-10
  -8.21716E-10 -7.54035E-10 -7.04335E-10 -3.23702E-10 -5.77508E-10 -7.62117E-10 -5.43232E-10 -6.22797E-10 -3.94588E-10 -2.37085E-11
   1.49956E-10 -6.35785E-10 -6.52967E-10
 NY points of the fit to the data follow
   1.57052E-08  1.45363E-08  1.32257E-08  1.26336E-08  1.23562E-08  1.19038E-08  1.12471E-08  1.06446E-08  1.02941E-08  1.03621E-08
   1.04731E-08  1.05445E-08  1.10288E-08  1.11976E-08  1.09422E-08  1.02225E-08  9.43715E-09  9.08239E-09  8.82446E-09  8.33003E-09
   8.04611E-09  8.58034E-09  8.93378E-09  8.92742E-09  9.08839E-09  9.42373E-09  9.82827E-09  1.00092E-08  9.83584E-09  9.87757E-09
   9.55240E-09  9.09493E-09  8.72058E-09  8.25225E-09  7.36548E-09  6.29619E-09  6.06070E-09  5.84087E-09  5.52941E-09  5.22216E-09
   4.88935E-09  4.40034E-09  3.81879E-09  3.60006E-09  3.56495E-09  3.57925E-09  3.61047E-09  3.64510E-09  3.68288E-09  3.72226E-09
   3.78471E-09  3.88247E-09  4.03114E-09  4.22966E-09  4.52664E-09  5.02533E-09  5.63818E-09  6.33970E-09  7.29249E-09  8.25359E-09
   8.98925E-09  9.54453E-09  9.90654E-09  9.90875E-09  9.42721E-09  8.50235E-09  7.47943E-09  6.68501E-09  5.69033E-09  4.57340E-09
   4.09627E-09  3.98125E-09  3.94498E-09  4.16602E-09  4.61883E-09  5.36637E-09  6.23936E-09  7.27534E-09  8.32358E-09  9.30716E-09
   1.01679E-08  1.06694E-08  1.04872E-08  9.81815E-09  9.01940E-09  7.94915E-09  6.69841E-09  5.58513E-09  4.39222E-09  3.72965E-09
   3.38352E-09  3.16494E-09  3.01349E-09  2.90288E-09  2.81709E-09  2.74899E-09  2.69497E-09  2.65133E-09  2.61558E-09  2.58661E-09
   2.56304E-09  2.54369E-09  2.52796E-09  2.51545E-09  2.50588E-09  2.49901E-09  2.49435E-09  2.49166E-09  2.49080E-09  2.49163E-09
   2.49402E-09  2.49786E-09  2.50306E-09  2.50949E-09  2.51698E-09  2.52537E-09  2.53452E-09  2.54427E-09  2.55449E-09  2.56504E-09
   2.57579E-09  2.58662E-09  2.59741E-09  2.60802E-09  2.61835E-09  2.62827E-09  2.63768E-09  2.64646E-09  2.65450E-09  2.66169E-09
   2.66791E-09  2.67308E-09  2.67707E-09  2.67979E-09  2.68114E-09  2.68100E-09  2.67929E-09  2.67591E-09  2.67076E-09  2.66375E-09
   2.65478E-09  2.64382E-09  2.63083E-09  2.61578E-09  2.59865E-09  2.57942E-09  2.55808E-09  2.53463E-09  2.50908E-09  2.48145E-09
   2.45179E-09  2.42017E-09  2.38668E-09  2.35147E-09  2.31475E-09  2.27679E-09  2.23801E-09  2.19898E-09  2.16054E-09  2.12393E-09
   2.09108E-09  2.06505E-09  2.05111E-09  2.05891E-09  2.10873E-09  2.25262E-09  2.68366E-09  4.01358E-09  6.28949E-09  9.04582E-09
   1.22080E-08  1.52922E-08  1.72633E-08  1.73810E-08  1.59939E-08  1.40598E-08  1.18200E-08  8.61787E-09  4.55583E-09  1.83782E-09
   9.80230E-10  5.49971E-10  2.65270E-10  4.72103E-11 -1.34526E-10 -2.93974E-10 -4.38419E-10 -5.71946E-10 -6.96951E-10 -8.14899E-10
  -9.26682E-10 -1.03283E-09 -1.13365E-09 -1.22926E-09 -1.31972E-09 -1.40499E-09 -1.48503E-09 -1.56001E-09 -1.63012E-09 -1.69551E-09
  -1.75632E-09 -1.81267E-09 -1.86470E-09 -1.91249E-09 -1.95615E-09 -1.99578E-09 -2.03146E-09 -2.06328E-09 -2.09132E-09 -2.11566E-09
  -2.13638E-09 -2.15356E-09 -2.16726E-09 -2.17757E-09 -2.18456E-09 -2.18829E-09 -2.18884E-09 -2.18627E-09 -2.18065E-09 -2.17206E-09
  -2.16057E-09 -2.14622E-09 -2.12911E-09 -2.10928E-09 -2.08684E-09 -2.06193E-09 -2.03467E-09 -2.00523E-09 -1.97374E-09 -1.94035E-09
  -1.90520E-09 -1.86844E-09 -1.83020E-09 -1.79064E-09 -1.74988E-09 -1.70809E-09 -1.66540E-09 -1.62195E-09 -1.57788E-09 -1.53335E-09
  -1.48849E-09 -1.44344E-09 -1.39835E-09 -1.35337E-09 -1.30862E-09 -1.26426E-09 -1.22043E-09 -1.17726E-09 -1.13492E-09 -1.09353E-09
  -1.05322E-09 -1.01417E-09 -9.76432E-10 -9.40000E-10 -9.04867E-10 -8.71022E-10 -8.38445E-10 -8.07130E-10 -7.77059E-10 -7.48222E-10
  -7.20609E-10 -6.94199E-10 -6.68988E-10 -6.44956E-10 -6.22097E-10 -6.00394E-10 -5.79825E-10 -5.60398E-10 -5.42089E-10 -5.24881E-10
  -5.08761E-10 -4.93727E-10 -4.79752E-10 -4.66831E-10 -4.54957E-10 -4.44099E-10 -4.34265E-10 -4.25429E-10 -4.17584E-10 -4.10710E-10
  -4.04785E-10 -3.99773E-10 -3.95635E-10 -3.92330E-10 -3.89828E-10 -3.88084E-10 -3.87065E-10 -3.86730E-10 -3.87042E-10 -3.87966E-10
  -3.89461E-10 -3.91491E-10 -3.94017E-10 -3.97003E-10 -4.00412E-10 -4.04202E-10 -4.08340E-10 -4.12785E-10 -4.17505E-10 -4.22452E-10
  -4.27599E-10 -4.32901E-10 -4.38322E-10 -4.43829E-10 -4.49379E-10 -4.54936E-10 -4.60464E-10 -4.65921E-10 -4.71297E-10 -4.76587E-10
  -4.81786E-10 -4.86892E-10 -4.91900E-10 -4.96805E-10 -5.01606E-10 -5.06297E-10 -5.10875E-10 -5.15337E-10 -5.19679E-10 -5.23895E-10
  -5.27985E-10 -5.31942E-10 -5.35763E-10 -5.39447E-10 -5.42986E-10 -5.46380E-10 -5.49623E-10 -5.52710E-10 -5.55641E-10 -5.58411E-10
  -5.61014E-10 -5.63448E-10 -5.65708E-10 -5.67792E-10 -5.69697E-10 -5.71416E-10 -5.72957E-10 -5.74328E-10 -5.75533E-10 -5.76582E-10
  -5.77481E-10 -5.78237E-10 -5.78859E-10 -5.79353E-10 -5.79729E-10 -5.79989E-10 -5.80146E-10 -5.80204E-10 -5.80172E-10 -5.80056E-10
  -5.79862E-10 -5.79600E-10 -5.79276E-10 -5.78897E-10 -5.78472E-10 -5.78007E-10 -5.77509E-10 -5.76985E-10 -5.76443E-10 -5.75892E-10
  -5.75338E-10 -5.74789E-10 -5.74248E-10
 NY background values follow
     3.031E-09    3.012E-09    2.993E-09    2.975E-09    2.957E-09    2.938E-09    2.920E-09    2.902E-09    2.884E-09    2.866E-09
     2.848E-09    2.830E-09    2.812E-09    2.794E-09    2.777E-09    2.759E-09    2.741E-09    2.723E-09    2.705E-09    2.688E-09
     2.670E-09    2.652E-09    2.634E-09    2.616E-09    2.598E-09    2.580E-09    2.562E-09    2.544E-09    2.525E-09    2.507E-09
     2.489E-09    2.470E-09    2.452E-09    2.433E-09    2.414E-09    2.396E-09    2.377E-09    2.358E-09    2.339E-09    2.321E-09
     2.302E-09    2.283E-09    2.264E-09    2.246E-09    2.227E-09    2.208E-09    2.190E-09    2.171E-09    2.153E-09    2.135E-09
     2.116E-09    2.098E-09    2.080E-09    2.062E-09    2.044E-09    2.027E-09    2.009E-09    1.992E-09    1.974E-09    1.957E-09
     1.940E-09    1.924E-09    1.907E-09    1.891E-09    1.875E-09    1.860E-09    1.845E-09    1.830E-09    1.815E-09    1.801E-09
     1.787E-09    1.774E-09    1.761E-09    1.748E-09    1.737E-09    1.725E-09    1.714E-09    1.704E-09    1.694E-09    1.685E-09
     1.676E-09    1.668E-09    1.660E-09    1.654E-09    1.647E-09    1.642E-09    1.637E-09    1.633E-09    1.630E-09    1.627E-09
     1.625E-09    1.624E-09    1.623E-09    1.623E-09    1.624E-09    1.625E-09    1.627E-09    1.630E-09    1.633E-09    1.637E-09
     1.642E-09    1.647E-09    1.653E-09    1.660E-09    1.667E-09    1.676E-09    1.684E-09    1.694E-09    1.704E-09    1.714E-09
     1.726E-09    1.738E-09    1.751E-09    1.764E-09    1.778E-09    1.792E-09    1.806E-09    1.821E-09    1.836E-09    1.851E-09
     1.865E-09    1.880E-09    1.894E-09    1.908E-09    1.921E-09    1.933E-09    1.945E-09    1.956E-09    1.966E-09    1.975E-09
     1.983E-09    1.990E-09    1.995E-09    1.999E-09    2.002E-09    2.002E-09    2.001E-09    1.998E-09    1.994E-09    1.987E-09
     1.978E-09    1.966E-09    1.953E-09    1.937E-09    1.919E-09    1.898E-09    1.875E-09    1.850E-09    1.822E-09    1.791E-09
     1.758E-09    1.721E-09    1.683E-09    1.641E-09    1.596E-09    1.549E-09    1.498E-09    1.445E-09    1.389E-09    1.329E-09
     1.266E-09    1.200E-09    1.131E-09    1.059E-09    9.826E-10    9.033E-10    8.206E-10    7.343E-10    6.446E-10    5.515E-10
     4.555E-10    3.567E-10    2.554E-10    1.521E-10    4.681E-11   -6.002E-11   -1.681E-10   -2.773E-10   -3.871E-10   -4.974E-10
    -6.078E-10   -7.181E-10   -8.280E-10   -9.372E-10   -1.045E-09   -1.152E-09   -1.258E-09   -1.361E-09   -1.462E-09   -1.561E-09
    -1.658E-09   -1.751E-09   -1.841E-09   -1.927E-09   -2.009E-09   -2.088E-09   -2.162E-09   -2.232E-09   -2.297E-09   -2.358E-09
    -2.415E-09   -2.468E-09   -2.517E-09   -2.562E-09   -2.603E-09   -2.641E-09   -2.674E-09   -2.704E-09   -2.730E-09   -2.753E-09
    -2.772E-09   -2.788E-09   -2.800E-09   -2.809E-09   -2.815E-09   -2.817E-09   -2.817E-09   -2.813E-09   -2.806E-09   -2.797E-09
    -2.785E-09   -2.769E-09   -2.751E-09   -2.731E-09   -2.708E-09   -2.682E-09   -2.654E-09   -2.624E-09   -2.592E-09   -2.558E-09
    -2.522E-09   -2.485E-09   -2.446E-09   -2.406E-09   -2.365E-09   -2.322E-09   -2.279E-09   -2.235E-09   -2.191E-09   -2.146E-09
    -2.100E-09   -2.055E-09   -2.009E-09   -1.964E-09   -1.919E-09   -1.874E-09   -1.830E-09   -1.786E-09   -1.744E-09   -1.702E-09
    -1.661E-09   -1.622E-09   -1.584E-09   -1.547E-09   -1.511E-09   -1.477E-09   -1.444E-09   -1.413E-09   -1.382E-09   -1.353E-09
    -1.325E-09   -1.299E-09   -1.273E-09   -1.249E-09   -1.226E-09   -1.204E-09   -1.183E-09   -1.163E-09   -1.144E-09   -1.127E-09
    -1.110E-09   -1.095E-09   -1.081E-09   -1.068E-09   -1.056E-09   -1.044E-09   -1.034E-09   -1.025E-09   -1.017E-09   -1.010E-09
    -1.004E-09   -9.985E-10   -9.941E-10   -9.906E-10   -9.878E-10   -9.858E-10   -9.845E-10   -9.839E-10   -9.840E-10   -9.847E-10
    -9.859E-10   -9.877E-10   -9.900E-10   -9.927E-10   -9.959E-10   -9.994E-10   -1.003E-09   -1.007E-09   -1.012E-09   -1.017E-09
    -1.022E-09   -1.027E-09   -1.032E-09   -1.037E-09   -1.042E-09   -1.048E-09   -1.053E-09   -1.058E-09   -1.063E-09   -1.068E-09
    -1.073E-09   -1.078E-09   -1.083E-09   -1.088E-09   -1.092E-09   -1.097E-09   -1.101E-09   -1.105E-09   -1.109E-09   -1.113E-09
    -1.117E-09   -1.121E-09   -1.124E-09   -1.128E-09   -1.131E-09   -1.134E-09   -1.137E-09   -1.140E-09   -1.143E-09   -1.145E-09
    -1.147E-09   -1.150E-09   -1.152E-09   -1.153E-09   -1.155E-09   -1.157E-09   -1.158E-09   -1.159E-09   -1.160E-09   -1.161E-09
    -1.161E-09   -1.162E-09   -1.162E-09   -1.162E-09   -1.162E-09   -1.162E-09   -1.162E-09   -1.162E-09   -1.162E-09   -1.161E-09
    -1.161E-09   -1.160E-09   -1.160E-09   -1.159E-09   -1.158E-09   -1.158E-09   -1.157E-09   -1.156E-09   -1.155E-09   -1.154E-09
    -1.154E-09   -1.153E-09   -1.152E-09
 Gln      Conc. = 2.90E-09
   4.94591E-09  5.50674E-09  6.10386E-09  6.70968E-09  7.22294E-09  7.53238E-09  7.54488E-09  7.27342E-09  6.82176E-09  6.31816E-09
   5.63309E-09  4.82603E-09  4.42265E-09  3.96651E-09  3.65213E-09  3.48879E-09  3.38545E-09  3.31133E-09  3.25384E-09  3.20695E-09
   3.16734E-09  3.13294E-09  3.10241E-09  3.07498E-09  3.05035E-09  3.02816E-09  3.00740E-09  2.98793E-09  2.96993E-09  2.95278E-09
   2.93647E-09  2.92101E-09  2.90643E-09  2.89278E-09  2.88008E-09  2.86842E-09  2.85789E-09  2.84859E-09  2.84065E-09  2.83424E-09
   2.82967E-09  2.82717E-09  2.82727E-09  2.83050E-09  2.83745E-09  2.84894E-09  2.86600E-09  2.88953E-09  2.92173E-09  2.96602E-09
   3.02544E-09  3.10695E-09  3.22333E-09  3.39684E-09  3.67981E-09  4.17302E-09  4.77822E-09  5.49083E-09  6.46988E-09  7.46377E-09
   8.22292E-09  8.81528E-09  9.20922E-09  9.24385E-09  8.76029E-09  7.83470E-09  6.83064E-09  6.06868E-09  5.10499E-09  4.01619E-09
   3.53864E-09  3.42444E-09  3.40781E-09  3.64667E-09  4.09528E-09  4.81255E-09  5.58883E-09  6.30028E-09  6.92524E-09  7.40879E-09
   7.69985E-09  7.69988E-09  7.28548E-09  6.72314E-09  6.21602E-09  5.45721E-09  4.59229E-09  4.09588E-09  3.61224E-09  3.16814E-09
   2.89824E-09  2.71737E-09  2.58822E-09  2.49225E-09  2.41676E-09  2.35628E-09  2.30811E-09  2.26909E-09  2.23707E-09  2.21117E-09
   2.19018E-09  2.17300E-09  2.15914E-09  2.14824E-09  2.14006E-09  2.13443E-09  2.13084E-09  2.12911E-09  2.12910E-09  2.13068E-09
   2.13373E-09  2.13817E-09  2.14389E-09  2.15078E-09  2.15869E-09  2.16743E-09  2.17689E-09  2.18690E-09  2.19734E-09  2.20807E-09
   2.21897E-09  2.22990E-09  2.24074E-09  2.25138E-09  2.26169E-09  2.27156E-09  2.28088E-09  2.28952E-09  2.29738E-09  2.30435E-09
   2.31031E-09  2.31517E-09  2.31880E-09  2.32110E-09  2.32196E-09  2.32128E-09  2.31896E-09  2.31489E-09  2.30897E-09  2.30110E-09
   2.29116E-09  2.27912E-09  2.26491E-09  2.24850E-09  2.22984E-09  2.20889E-09  2.18561E-09  2.15996E-09  2.13192E-09  2.10144E-09
   2.06853E-09  2.03315E-09  1.99531E-09  1.95502E-09  1.91232E-09  1.86724E-09  1.81990E-09  1.77044E-09  1.71910E-09  1.66623E-09
   1.61240E-09  1.55854E-09  1.50621E-09  1.45821E-09  1.42013E-09  1.40487E-09  1.45087E-09  1.73424E-09  2.50298E-09  3.47297E-09
   4.62255E-09  5.87177E-09  6.84455E-09  7.11880E-09  6.65602E-09  5.85405E-09  4.99309E-09  3.85972E-09  2.20805E-09  6.56864E-10
   1.53145E-10 -1.16228E-10 -3.10769E-10 -4.72048E-10 -6.15260E-10 -7.47178E-10 -8.71174E-10 -9.89050E-10 -1.10178E-09 -1.20992E-09
  -1.31372E-09 -1.41329E-09 -1.50861E-09 -1.59959E-09 -1.68609E-09 -1.76796E-09 -1.84505E-09 -1.91747E-09 -1.98532E-09 -2.04871E-09
  -2.10775E-09 -2.16253E-09 -2.21313E-09 -2.25965E-09 -2.30215E-09 -2.34073E-09 -2.37545E-09 -2.40639E-09 -2.43363E-09 -2.45723E-09
  -2.47727E-09 -2.49382E-09 -2.50693E-09 -2.51670E-09 -2.52317E-09 -2.52643E-09 -2.52653E-09 -2.52354E-09 -2.51753E-09 -2.50856E-09
  -2.49671E-09 -2.48203E-09 -2.46460E-09 -2.44447E-09 -2.42174E-09 -2.39655E-09 -2.36903E-09 -2.33934E-09 -2.30761E-09 -2.27398E-09
  -2.23861E-09 -2.20162E-09 -2.16318E-09 -2.12341E-09 -2.08246E-09 -2.04048E-09 -1.99760E-09 -1.95398E-09 -1.90974E-09 -1.86504E-09
  -1.82001E-09 -1.77480E-09 -1.72956E-09 -1.68442E-09 -1.63952E-09 -1.59501E-09 -1.55104E-09 -1.50773E-09 -1.46524E-09 -1.42371E-09
  -1.38328E-09 -1.34409E-09 -1.30622E-09 -1.26966E-09 -1.23440E-09 -1.20043E-09 -1.16773E-09 -1.13629E-09 -1.10610E-09 -1.07714E-09
  -1.04941E-09 -1.02288E-09 -9.97549E-10 -9.73400E-10 -9.50425E-10 -9.28607E-10 -9.07923E-10 -8.88382E-10 -8.69960E-10 -8.52639E-10
  -8.36408E-10 -8.21262E-10 -8.07177E-10 -7.94145E-10 -7.82161E-10 -7.71194E-10 -7.61250E-10 -7.52305E-10 -7.44351E-10 -7.37368E-10
  -7.31335E-10 -7.26215E-10 -7.21968E-10 -7.18555E-10 -7.15944E-10 -7.14091E-10 -7.12964E-10 -7.12520E-10 -7.12724E-10 -7.13539E-10
  -7.14926E-10 -7.16847E-10 -7.19265E-10 -7.22142E-10 -7.25441E-10 -7.29123E-10 -7.33152E-10 -7.37487E-10 -7.42097E-10 -7.46934E-10
  -7.51971E-10 -7.57163E-10 -7.62473E-10 -7.67869E-10 -7.73308E-10 -7.78753E-10 -7.84168E-10 -7.89513E-10 -7.94776E-10 -7.99953E-10
  -8.05038E-10 -8.10029E-10 -8.14923E-10 -8.19713E-10 -8.24398E-10 -8.28974E-10 -8.33436E-10 -8.37781E-10 -8.42005E-10 -8.46104E-10
  -8.50076E-10 -8.53914E-10 -8.57616E-10 -8.61180E-10 -8.64599E-10 -8.67872E-10 -8.70993E-10 -8.73958E-10 -8.76766E-10 -8.79413E-10
  -8.81891E-10 -8.84200E-10 -8.86335E-10 -8.88293E-10 -8.90071E-10 -8.91663E-10 -8.93076E-10 -8.94317E-10 -8.95393E-10 -8.96312E-10
  -8.97080E-10 -8.97705E-10 -8.98195E-10 -8.98555E-10 -8.98797E-10 -8.98922E-10 -8.98943E-10 -8.98864E-10 -8.98694E-10 -8.98439E-10
  -8.98105E-10 -8.97703E-10 -8.97238E-10 -8.96718E-10 -8.96149E-10 -8.95541E-10 -8.94899E-10 -8.94229E-10 -8.93540E-10 -8.92842E-10
  -8.92139E-10 -8.91440E-10 -8.90749E-10
 Glyc     Conc. = 1.18E-09
   3.11297E-09  3.10172E-09  3.09306E-09  3.08825E-09  3.08953E-09  3.10131E-09  3.13371E-09  3.21672E-09  3.48781E-09  4.16483E-09
   5.00901E-09  6.00248E-09  7.08667E-09  7.95731E-09  8.26326E-09  7.96245E-09  7.37959E-09  6.75372E-09  5.91423E-09  4.64535E-09
   3.42944E-09  3.08849E-09  2.94127E-09  2.85486E-09  2.79488E-09  2.74871E-09  2.71057E-09  2.67750E-09  2.64780E-09  2.62044E-09
   2.59476E-09  2.57032E-09  2.54682E-09  2.52404E-09  2.50184E-09  2.48009E-09  2.45872E-09  2.43767E-09  2.41688E-09  2.39631E-09
   2.37596E-09  2.35577E-09  2.33576E-09  2.31590E-09  2.29619E-09  2.27661E-09  2.25717E-09  2.23787E-09  2.21870E-09  2.19966E-09
   2.18077E-09  2.16202E-09  2.14341E-09  2.12495E-09  2.10666E-09  2.08851E-09  2.07051E-09  2.05270E-09  2.03508E-09  2.01766E-09
   2.00047E-09  1.98352E-09  1.96684E-09  1.95043E-09  1.93432E-09  1.91853E-09  1.90307E-09  1.88796E-09  1.87323E-09  1.85888E-09
   1.84495E-09  1.83144E-09  1.81838E-09  1.80579E-09  1.79368E-09  1.78208E-09  1.77100E-09  1.76046E-09  1.75049E-09  1.74110E-09
   1.73229E-09  1.72412E-09  1.71658E-09  1.70970E-09  1.70349E-09  1.69798E-09  1.69314E-09  1.68900E-09  1.68554E-09  1.68276E-09
   1.68067E-09  1.67925E-09  1.67852E-09  1.67847E-09  1.67910E-09  1.68040E-09  1.68239E-09  1.68505E-09  1.68838E-09  1.69240E-09
   1.69709E-09  1.70245E-09  1.70849E-09  1.71520E-09  1.72258E-09  1.73063E-09  1.73936E-09  1.74875E-09  1.75881E-09  1.76954E-09
   1.78095E-09  1.79302E-09  1.80574E-09  1.81907E-09  1.83291E-09  1.84715E-09  1.86169E-09  1.87642E-09  1.89125E-09  1.90607E-09
   1.92079E-09  1.93529E-09  1.94948E-09  1.96326E-09  1.97653E-09  1.98918E-09  2.00111E-09  2.01223E-09  2.02242E-09  2.03159E-09
   2.03964E-09  2.04647E-09  2.05197E-09  2.05605E-09  2.05860E-09  2.05952E-09  2.05872E-09  2.05610E-09  2.05154E-09  2.04497E-09
   2.03626E-09  2.02537E-09  2.01226E-09  1.99688E-09  1.97917E-09  1.95911E-09  1.93664E-09  1.91173E-09  1.88435E-09  1.85444E-09
   1.82198E-09  1.78695E-09  1.74932E-09  1.70908E-09  1.66621E-09  1.62074E-09  1.57269E-09  1.52212E-09  1.46915E-09  1.41393E-09
   1.35675E-09  1.29810E-09  1.23882E-09  1.18045E-09  1.12622E-09  1.08405E-09  1.08069E-09  1.24913E-09  1.54488E-09  1.91032E-09
   2.34247E-09  2.74911E-09  2.95056E-09  2.83706E-09  2.49674E-09  2.09592E-09  1.64751E-09  1.01786E-09  2.37811E-10 -2.18853E-10
  -4.29618E-10 -5.84189E-10 -7.18349E-10 -8.42555E-10 -9.60779E-10 -1.07477E-09 -1.18530E-09 -1.29273E-09 -1.39712E-09 -1.49845E-09
  -1.59661E-09 -1.69141E-09 -1.78266E-09 -1.87011E-09 -1.95355E-09 -2.03270E-09 -2.10739E-09 -2.17765E-09 -2.24356E-09 -2.30521E-09
  -2.36265E-09 -2.41597E-09 -2.46523E-09 -2.51051E-09 -2.55188E-09 -2.58939E-09 -2.62313E-09 -2.65314E-09 -2.67952E-09 -2.70230E-09
  -2.72158E-09 -2.73739E-09 -2.74983E-09 -2.75894E-09 -2.76479E-09 -2.76746E-09 -2.76700E-09 -2.76347E-09 -2.75695E-09 -2.74750E-09
  -2.73517E-09 -2.72004E-09 -2.70218E-09 -2.68163E-09 -2.65850E-09 -2.63292E-09 -2.60503E-09 -2.57497E-09 -2.54289E-09 -2.50893E-09
