 LCModel (Version 6.3-1R) Copyright: S.W. Provencher.          Ref.: Magn. Reson. Med. 30:672-679 (1993).                
 onepulse 21x18_ftSpec_smooth_lcm
 26 lines in following concentration table = NCONC+1
    Conc.  %SD   /Cr    Metabolite                                         
 8.46E-11 220%   0.000 Ala                                                 
 5.21E-10  72%   0.000 Asp                                                 
    0.000 999%   0.000 Cr                                                  
 2.79E-09  14%   0.000 GABA                                                
 1.60E-09  19%   0.000 Glc                                                 
    0.000 999%   0.000 Gln                                                 
 3.71E-10 108%   0.000 Glu                                                 
    0.000 999%   0.000 Glyc                                                
    0.000 999%   0.000 GPC                                                 
 3.31E-11 612%   0.000 GSH                                                 
 1.93E-10 109%   0.000 Ins                                                 
    0.000 999%   0.000 Lac                                                 
    0.000 999%   0.000 NAAG                                                
 1.05E-09  16%   0.000 NAA                                                 
 1.15E-10  45%   0.000 PCh                                                 
    0.000 999%   0.000 PCr                                                 
    0.000 999%   0.000 PE                                                  
    0.000 999%   0.000 Scyllo                                              
    0.000 999%   0.000 Ser                                                 
    0.000 999%   0.000 Tau                                                 
 1.15E-10  45%   0.000 GPC+PCh                                             
 1.05E-09  16%   0.000 NAA+NAAG                                            
 1.93E-10 109%   0.000 Ins+Glyc                                            
    0.000 999%   0.000 Cr+PCr                                              
 3.71E-10 108%   0.000 Glu+Gln                                             
   6 lines in following misc. output table
  FWHM = 0.078 ppm    S/N =   4                                            
  Data shift = 0.324 ppm                                                   
  Ph:  50 deg      33.3 deg/ppm                                            
  alphaB,S = 1.7E-01,   7.9E+01                                            
   16 spline knots.   Ns = 5(1)                                            
  ( 7) 2 infls.   ( 3) 1 extrs.                                            
  363 points on ppm-axis = NY
      4.250000     4.238821     4.227641     4.216462     4.205282     4.194103     4.182923     4.171744     4.160564     4.149385
      4.138206     4.127026     4.115847     4.104667     4.093488     4.082308     4.071129     4.059949     4.048770     4.037591
      4.026411     4.015232     4.004052     3.992873     3.981693     3.970514     3.959334     3.948155     3.936975     3.925796
      3.914617     3.903437     3.892258     3.881078     3.869899     3.858719     3.847540     3.836360     3.825181     3.814002
      3.802822     3.791643     3.780463     3.769284     3.758104     3.746925     3.735745     3.724566     3.713387     3.702207
      3.691028     3.679848     3.668669     3.657489     3.646310     3.635130     3.623951     3.612772     3.601592     3.590413
      3.579233     3.568054     3.556874     3.545695     3.534515     3.523336     3.512156     3.500977     3.489798     3.478618
      3.467439     3.456259     3.445080     3.433900     3.422721     3.411541     3.400362     3.389183     3.378003     3.366824
      3.355644     3.344465     3.333285     3.322106     3.310926     3.299747     3.288568     3.277388     3.266209     3.255029
      3.243850     3.232670     3.221491     3.210311     3.199132     3.187953     3.176773     3.165594     3.154414     3.143235
      3.132055     3.120876     3.109696     3.098517     3.087337     3.076158     3.064979     3.053799     3.042620     3.031440
      3.020261     3.009081     2.997902     2.986722     2.975543     2.964364     2.953184     2.942005     2.930825     2.919646
      2.908466     2.897287     2.886107     2.874928     2.863749     2.852569     2.841390     2.830210     2.819031     2.807851
      2.796672     2.785492     2.774313     2.763134     2.751954     2.740775     2.729595     2.718416     2.707236     2.696057
      2.684877     2.673698     2.662519     2.651339     2.640160     2.628980     2.617801     2.606621     2.595442     2.584262
      2.573083     2.561903     2.550724     2.539545     2.528365     2.517186     2.506006     2.494827     2.483647     2.472468
      2.461288     2.450109     2.438930     2.427750     2.416571     2.405391     2.394212     2.383032     2.371853     2.360673
      2.349494     2.338315     2.327135     2.315956     2.304776     2.293597     2.282417     2.271238     2.260058     2.248879
      2.237700     2.226520     2.215341     2.204161     2.192982     2.181802     2.170623     2.159443     2.148264     2.137084
      2.125905     2.114726     2.103546     2.092367     2.081187     2.070008     2.058828     2.047649     2.036469     2.025290
      2.014111     2.002931     1.991752     1.980572     1.969393     1.958213     1.947034     1.935854     1.924675     1.913496
      1.902316     1.891137     1.879957     1.868778     1.857598     1.846419     1.835239     1.824060     1.812881     1.801701
      1.790522     1.779342     1.768163     1.756983     1.745804     1.734624     1.723445     1.712265     1.701086     1.689907
      1.678727     1.667548     1.656368     1.645189     1.634009     1.622830     1.611650     1.600471     1.589292     1.578112
      1.566933     1.555753     1.544574     1.533394     1.522215     1.511035     1.499856     1.488677     1.477497     1.466318
      1.455138     1.443959     1.432779     1.421600     1.410420     1.399241     1.388062     1.376882     1.365703     1.354523
      1.343344     1.332164     1.320985     1.309805     1.298626     1.287446     1.276267     1.265088     1.253908     1.242729
      1.231549     1.220370     1.209190     1.198011     1.186831     1.175652     1.164473     1.153293     1.142114     1.130934
      1.119755     1.108575     1.097396     1.086216     1.075037     1.063858     1.052678     1.041499     1.030319     1.019140
      1.007960     0.996781     0.985601     0.974422     0.963243     0.952063     0.940884     0.929704     0.918525     0.907345
      0.896166     0.884986     0.873807     0.862628     0.851448     0.840269     0.829089     0.817910     0.806730     0.795551
      0.784371     0.773192     0.762012     0.750833     0.739654     0.728474     0.717295     0.706115     0.694936     0.683756
      0.672577     0.661397     0.650218     0.639039     0.627859     0.616680     0.605500     0.594321     0.583141     0.571962
      0.560782     0.549603     0.538424     0.527244     0.516065     0.504885     0.493706     0.482526     0.471347     0.460167
      0.448988     0.437809     0.426629     0.415450     0.404270     0.393091     0.381911     0.370732     0.359552     0.348373
      0.337193     0.326014     0.314835     0.303655     0.292476     0.281296     0.270117     0.258937     0.247758     0.236578
      0.225399     0.214220     0.203040
 NY phased data points follow
   4.76768E-10  1.72903E-09  6.00455E-09  7.06120E-09  9.22946E-09  7.97889E-09  7.15520E-09  5.96975E-09  5.17279E-09  3.97035E-09
   4.57597E-09  3.73091E-09  4.05787E-09  3.84349E-09  5.12736E-09  5.09073E-09  5.68400E-09  6.50403E-09  6.90686E-09  6.24393E-09
   6.70324E-09  5.82577E-09  6.67468E-09  6.11014E-09  5.04720E-09  5.31501E-09  5.70684E-09  6.69730E-09  7.38359E-09  7.02017E-09
   6.59146E-09  5.69901E-09  5.58032E-09  6.58442E-09  8.59703E-09  9.53359E-09  1.04121E-08  9.33921E-09  8.63005E-09  6.39098E-09
   5.81282E-09  5.23491E-09  5.68893E-09  3.52778E-09  4.96940E-09  4.70826E-09  4.18663E-09  3.80291E-09  4.74979E-09  3.67040E-09
   2.84410E-09  2.72155E-09  3.73250E-09  3.25488E-09  4.57265E-09  4.08166E-09  3.53919E-09  2.64637E-09  3.56526E-09  2.77035E-09
   2.36671E-09  3.42892E-09  4.59269E-09  4.70291E-09  6.17812E-09  8.81822E-09  1.22819E-08  1.23881E-08  1.07094E-08  8.30587E-09
   6.69390E-09  5.37290E-09  5.62017E-09  4.20811E-09  3.37644E-09  2.71120E-09  3.58773E-09  2.42976E-09  2.99814E-09  3.67052E-09
   5.06020E-09  7.82770E-09  1.16898E-08  1.43005E-08  1.33739E-08  1.00330E-08  9.32704E-09  7.65892E-09  7.99639E-09  6.45948E-09
   6.43391E-09  6.07926E-09  5.24212E-09  5.46390E-09  5.35793E-09  4.25980E-09  4.46315E-09  3.25212E-09  4.27364E-09  2.96999E-09
   2.71965E-09  2.62094E-09  3.33888E-09  3.71041E-09  3.19018E-09  4.31725E-09  3.52950E-09  3.58835E-09  3.81939E-09  3.45953E-09
   3.58069E-09  2.23429E-09  2.26043E-09  2.11779E-09  2.81489E-09  2.66917E-09  3.78720E-09  3.40436E-09  4.27392E-09  3.99831E-09
   4.15569E-09  4.07960E-09  4.30235E-09  3.37154E-09  3.72031E-09  2.87481E-09  2.15444E-09  2.31156E-09  2.37414E-09  2.15591E-09
   2.69975E-09  3.57929E-09  3.07893E-09  2.74561E-09  3.21622E-09  3.67668E-09  3.02174E-09  2.96614E-09  2.90068E-09  2.51265E-09
   3.02553E-09  3.67480E-09  4.26061E-09  5.18803E-09  5.21302E-09  4.18732E-09  4.07010E-09  4.53989E-09  5.31084E-09  4.84401E-09
   5.38867E-09  4.77687E-09  4.14292E-09  4.40621E-09  4.97666E-09  4.39127E-09  4.60937E-09  4.33829E-09  5.04197E-09  5.12605E-09
   5.78783E-09  6.03093E-09  6.21399E-09  6.07241E-09  6.51779E-09  6.69581E-09  7.40271E-09  7.96820E-09  8.07094E-09  8.74610E-09
   1.12023E-08  1.26564E-08  1.49928E-08  1.75699E-08  1.80022E-08  1.42512E-08  1.06734E-08  6.99731E-09  5.37224E-09  4.57492E-09
   4.88140E-09  2.96205E-09  3.67087E-09  2.18756E-09  2.52105E-09  1.30987E-09  1.52786E-09  9.38945E-10  9.06742E-10  6.77383E-10
   5.67046E-10 -1.94980E-10 -7.06372E-10 -1.71552E-09 -2.39420E-09 -2.94142E-09 -3.96931E-09 -4.80650E-09 -5.80398E-09 -6.59192E-09
  -8.04916E-09 -8.60611E-09 -9.63219E-09 -1.02266E-08 -1.08178E-08 -1.12824E-08 -1.17871E-08 -1.16371E-08 -1.15516E-08 -1.14945E-08
  -1.05660E-08 -1.01476E-08 -8.78570E-09 -7.32364E-09 -6.83403E-09 -5.39529E-09 -3.94758E-09 -3.33974E-09 -3.27900E-09 -2.25900E-09
  -2.62386E-09 -1.84131E-09 -2.91005E-09 -2.75210E-09 -2.50433E-09 -3.59928E-09 -2.62594E-09 -1.97458E-09 -2.81124E-09 -2.38755E-09
  -2.56642E-09 -2.22507E-09 -2.10625E-09 -2.44029E-09 -2.19322E-09 -3.12348E-09 -2.78836E-09 -2.85672E-09 -2.26862E-09 -1.95537E-09
  -2.62911E-09 -1.56966E-09 -1.88692E-09 -1.68443E-09 -2.22118E-09 -2.57638E-09 -2.26413E-09 -2.34234E-09 -2.36657E-09 -2.41147E-09
  -2.34390E-09 -1.69077E-09 -1.78646E-09 -1.34906E-09 -1.45563E-09 -1.62222E-09 -1.32723E-09 -1.41249E-09 -1.87580E-09 -2.21139E-09
  -2.26932E-09 -1.99522E-09 -2.46115E-09 -3.33043E-09 -2.55187E-09 -2.37551E-09 -1.37365E-09 -1.99664E-09 -1.16904E-09 -1.39023E-09
  -7.40909E-10 -8.69522E-10 -1.10252E-09 -8.40279E-10 -1.10722E-09 -7.60334E-10 -1.11425E-09 -1.98647E-09 -1.62554E-09 -2.18057E-09
  -1.96757E-09 -1.81007E-09 -2.17280E-09 -2.14965E-09 -1.88505E-09 -2.22773E-09 -1.57360E-09 -1.83252E-09 -1.24379E-09 -1.66836E-09
  -1.04461E-09 -1.73767E-09 -1.57924E-09 -1.76445E-09 -1.34423E-09 -1.37707E-09 -1.68372E-09 -1.48457E-09 -1.08794E-09 -1.85440E-09
  -1.64637E-09 -1.00396E-09 -1.52921E-09 -1.50494E-09 -1.18043E-09 -1.37183E-09 -1.10575E-09 -1.38825E-09 -1.28707E-09 -1.32531E-09
  -1.18252E-09 -1.88307E-09 -1.35841E-09 -9.93872E-10 -8.63273E-10 -1.33636E-09 -1.19406E-09 -1.07212E-09 -1.05508E-09 -1.63654E-09
  -6.99126E-10 -1.36776E-09 -1.02455E-09 -9.06424E-10 -1.66405E-09 -6.60143E-10 -1.03245E-09 -1.18829E-09 -1.04252E-09 -1.47814E-09
  -4.53887E-10 -1.08112E-09 -1.43002E-09 -1.36567E-09 -1.10949E-09 -1.55675E-09 -8.36929E-10 -1.52240E-09 -1.02394E-09 -9.21001E-10
  -6.17703E-10 -9.66398E-10 -8.03270E-10 -4.75266E-10 -1.12316E-09 -8.00624E-10 -7.70864E-10 -1.18100E-09 -4.93541E-10 -1.14627E-09
  -8.55178E-10 -7.95430E-10 -8.40734E-10 -3.55814E-10 -6.10097E-10 -3.90935E-10 -8.00370E-10 -7.00107E-10 -7.61313E-10 -6.17687E-10
  -8.99852E-10 -1.15034E-09 -2.80092E-10
 NY points of the fit to the data follow
   4.20712E-09  4.79876E-09  5.43198E-09  6.00832E-09  6.36693E-09  6.40473E-09  6.10941E-09  5.58835E-09  5.04281E-09  4.53123E-09
   4.24928E-09  4.17767E-09  4.24956E-09  4.42990E-09  4.73345E-09  5.11037E-09  5.53964E-09  6.02194E-09  6.51040E-09  6.95077E-09
   7.29175E-09  7.31187E-09  6.90690E-09  6.28291E-09  5.60852E-09  5.07954E-09  4.95868E-09  5.34611E-09  6.00743E-09  6.66481E-09
   7.01251E-09  7.20011E-09  7.38985E-09  7.46644E-09  7.57054E-09  7.95642E-09  8.33652E-09  8.45252E-09  8.21858E-09  7.69198E-09
   7.02005E-09  6.18068E-09  5.12993E-09  4.35434E-09  3.85218E-09  3.32464E-09  2.97960E-09  2.92271E-09  3.03373E-09  3.19000E-09
   3.31273E-09  3.33966E-09  3.30085E-09  3.23671E-09  3.22035E-09  3.29354E-09  3.42177E-09  3.53036E-09  3.54275E-09  3.52703E-09
   3.65925E-09  4.09188E-09  4.72040E-09  5.48440E-09  6.55291E-09  7.56092E-09  8.32346E-09  8.92483E-09  9.28599E-09  9.26482E-09
   8.82129E-09  7.93112E-09  6.80035E-09  5.77223E-09  4.74014E-09  3.93893E-09  3.84823E-09  4.29269E-09  4.96215E-09  6.02262E-09
   7.34748E-09  8.86566E-09  1.04915E-08  1.16681E-08  1.18805E-08  1.11642E-08  9.75562E-09  8.07029E-09  6.72301E-09  6.33932E-09
   6.24367E-09  6.18340E-09  5.90735E-09  5.46748E-09  5.16449E-09  4.77136E-09  4.24879E-09  3.90867E-09  3.65880E-09  3.41869E-09
   3.27785E-09  3.20565E-09  3.18046E-09  3.20371E-09  3.25322E-09  3.30942E-09  3.35666E-09  3.38540E-09  3.39342E-09  3.38060E-09
   3.34941E-09  3.31485E-09  3.29255E-09  3.25866E-09  3.23634E-09  3.25130E-09  3.27859E-09  3.31111E-09  3.34632E-09  3.38300E-09
   3.42046E-09  3.45819E-09  3.49584E-09  3.53312E-09  3.56979E-09  3.60565E-09  3.64052E-09  3.67425E-09  3.70670E-09  3.73773E-09
   3.76719E-09  3.79498E-09  3.82098E-09  3.84506E-09  3.86712E-09  3.88704E-09  3.90471E-09  3.92006E-09  3.93298E-09  3.94338E-09
   3.95117E-09  3.95620E-09  3.95831E-09  3.95737E-09  3.95324E-09  3.94579E-09  3.93490E-09  3.92045E-09  3.90234E-09  3.88047E-09
   3.85480E-09  3.82529E-09  3.79195E-09  3.75483E-09  3.71406E-09  3.66985E-09  3.62255E-09  3.57271E-09  3.52120E-09  3.46932E-09
   3.41920E-09  3.37436E-09  3.34105E-09  3.33140E-09  3.37328E-09  3.55127E-09  4.23756E-09  5.63604E-09  7.46575E-09  9.59213E-09
   1.20882E-08  1.47952E-08  1.70961E-08  1.80898E-08  1.71162E-08  1.41980E-08  1.00240E-08  5.71545E-09  2.66886E-09  1.26723E-09
   6.63255E-10  2.73090E-10 -3.42245E-11 -3.00566E-10 -5.43333E-10 -7.70917E-10 -9.87679E-10 -1.19600E-09 -1.39715E-09 -1.59181E-09
  -1.78027E-09 -1.96256E-09 -2.13855E-09 -2.30801E-09 -2.47065E-09 -2.62610E-09 -2.77409E-09 -2.91469E-09 -3.04805E-09 -3.17428E-09
  -3.29349E-09 -3.40578E-09 -3.51123E-09 -3.60994E-09 -3.70198E-09 -3.78742E-09 -3.86635E-09 -3.93883E-09 -4.00492E-09 -4.06469E-09
  -4.11822E-09 -4.16556E-09 -4.20677E-09 -4.24193E-09 -4.27108E-09 -4.29430E-09 -4.31164E-09 -4.32315E-09 -4.32891E-09 -4.32896E-09
  -4.32337E-09 -4.31219E-09 -4.29549E-09 -4.27332E-09 -4.24581E-09 -4.21325E-09 -4.17590E-09 -4.13408E-09 -4.08806E-09 -4.03814E-09
  -3.98462E-09 -3.92777E-09 -3.86790E-09 -3.80530E-09 -3.74024E-09 -3.67304E-09 -3.60397E-09 -3.53333E-09 -3.46140E-09 -3.38848E-09
  -3.31487E-09 -3.24083E-09 -3.16668E-09 -3.09271E-09 -3.01918E-09 -2.94641E-09 -2.87468E-09 -2.80428E-09 -2.73551E-09 -2.66865E-09
  -2.60398E-09 -2.54182E-09 -2.48228E-09 -2.42530E-09 -2.37081E-09 -2.31874E-09 -2.26901E-09 -2.22154E-09 -2.17626E-09 -2.13309E-09
  -2.09196E-09 -2.05278E-09 -2.01549E-09 -1.98000E-09 -1.94625E-09 -1.91415E-09 -1.88362E-09 -1.85461E-09 -1.82703E-09 -1.80079E-09
  -1.77582E-09 -1.75206E-09 -1.72942E-09 -1.70782E-09 -1.68721E-09 -1.66748E-09 -1.64858E-09 -1.63041E-09 -1.61293E-09 -1.59602E-09
  -1.57967E-09 -1.56384E-09 -1.54852E-09 -1.53368E-09 -1.51931E-09 -1.50538E-09 -1.49188E-09 -1.47879E-09 -1.46608E-09 -1.45374E-09
  -1.44174E-09 -1.43007E-09 -1.41870E-09 -1.40762E-09 -1.39680E-09 -1.38623E-09 -1.37588E-09 -1.36574E-09 -1.35579E-09 -1.34600E-09
  -1.33635E-09 -1.32683E-09 -1.31742E-09 -1.30809E-09 -1.29883E-09 -1.28961E-09 -1.28042E-09 -1.27122E-09 -1.26203E-09 -1.25283E-09
  -1.24362E-09 -1.23438E-09 -1.22513E-09 -1.21585E-09 -1.20654E-09 -1.19719E-09 -1.18780E-09 -1.17836E-09 -1.16888E-09 -1.15934E-09
  -1.14975E-09 -1.14009E-09 -1.13036E-09 -1.12056E-09 -1.11068E-09 -1.10073E-09 -1.09069E-09 -1.08055E-09 -1.07033E-09 -1.06001E-09
  -1.04957E-09 -1.03904E-09 -1.02839E-09 -1.01762E-09 -1.00673E-09 -9.95716E-10 -9.84579E-10 -9.73329E-10 -9.61967E-10 -9.50502E-10
  -9.38940E-10 -9.27284E-10 -9.15543E-10 -9.03722E-10 -8.91829E-10 -8.79864E-10 -8.67842E-10 -8.55763E-10 -8.43634E-10 -8.31461E-10
  -8.19249E-10 -8.07007E-10 -7.94738E-10 -7.82450E-10 -7.70148E-10 -7.57840E-10 -7.45530E-10 -7.33221E-10 -7.20923E-10 -7.08644E-10
  -6.96388E-10 -6.84161E-10 -6.71963E-10
 NY background values follow
    -1.228E-09   -1.194E-09   -1.160E-09   -1.127E-09   -1.093E-09   -1.060E-09   -1.026E-09   -9.931E-10   -9.602E-10   -9.275E-10
    -8.951E-10   -8.629E-10   -8.309E-10   -7.993E-10   -7.680E-10   -7.370E-10   -7.063E-10   -6.760E-10   -6.461E-10   -6.166E-10
    -5.875E-10   -5.588E-10   -5.306E-10   -5.029E-10   -4.756E-10   -4.489E-10   -4.227E-10   -3.970E-10   -3.719E-10   -3.474E-10
    -3.234E-10   -3.000E-10   -2.770E-10   -2.546E-10   -2.326E-10   -2.110E-10   -1.899E-10   -1.692E-10   -1.488E-10   -1.288E-10
    -1.091E-10   -8.971E-11   -7.060E-11   -5.175E-11   -3.314E-11   -1.473E-11    3.488E-12    2.153E-11    3.944E-11    5.723E-11
     7.492E-11    9.253E-11    1.101E-10    1.276E-10    1.451E-10    1.627E-10    1.803E-10    1.979E-10    2.157E-10    2.336E-10
     2.518E-10    2.702E-10    2.889E-10    3.080E-10    3.275E-10    3.475E-10    3.679E-10    3.889E-10    4.106E-10    4.328E-10
     4.558E-10    4.796E-10    5.041E-10    5.295E-10    5.557E-10    5.829E-10    6.111E-10    6.404E-10    6.707E-10    7.022E-10
     7.349E-10    7.688E-10    8.040E-10    8.405E-10    8.784E-10    9.177E-10    9.583E-10    1.000E-09    1.043E-09    1.087E-09
     1.133E-09    1.179E-09    1.226E-09    1.274E-09    1.323E-09    1.373E-09    1.424E-09    1.475E-09    1.526E-09    1.579E-09
     1.631E-09    1.685E-09    1.738E-09    1.792E-09    1.846E-09    1.900E-09    1.954E-09    2.009E-09    2.063E-09    2.117E-09
     2.172E-09    2.225E-09    2.279E-09    2.333E-09    2.386E-09    2.438E-09    2.490E-09    2.541E-09    2.591E-09    2.640E-09
     2.689E-09    2.736E-09    2.782E-09    2.827E-09    2.870E-09    2.912E-09    2.952E-09    2.991E-09    3.028E-09    3.063E-09
     3.096E-09    3.126E-09    3.155E-09    3.182E-09    3.206E-09    3.227E-09    3.246E-09    3.263E-09    3.276E-09    3.287E-09
     3.295E-09    3.300E-09    3.301E-09    3.300E-09    3.294E-09    3.285E-09    3.272E-09    3.254E-09    3.233E-09    3.207E-09
     3.176E-09    3.141E-09    3.100E-09    3.055E-09    3.004E-09    2.948E-09    2.886E-09    2.818E-09    2.745E-09    2.665E-09
     2.579E-09    2.486E-09    2.387E-09    2.281E-09    2.168E-09    2.048E-09    1.921E-09    1.786E-09    1.644E-09    1.494E-09
     1.338E-09    1.175E-09    1.008E-09    8.345E-10    6.569E-10    4.753E-10    2.902E-10    1.021E-10   -8.837E-11   -2.808E-10
    -4.746E-10   -6.693E-10   -8.643E-10   -1.059E-09   -1.253E-09   -1.446E-09   -1.637E-09   -1.826E-09   -2.012E-09   -2.195E-09
    -2.373E-09   -2.548E-09   -2.717E-09   -2.881E-09   -3.039E-09   -3.191E-09   -3.336E-09   -3.473E-09   -3.604E-09   -3.728E-09
    -3.845E-09   -3.956E-09   -4.060E-09   -4.157E-09   -4.248E-09   -4.333E-09   -4.411E-09   -4.482E-09   -4.547E-09   -4.606E-09
    -4.659E-09   -4.706E-09   -4.747E-09   -4.781E-09   -4.810E-09   -4.833E-09   -4.850E-09   -4.861E-09   -4.866E-09   -4.866E-09
    -4.860E-09   -4.848E-09   -4.831E-09   -4.809E-09   -4.781E-09   -4.748E-09   -4.711E-09   -4.669E-09   -4.623E-09   -4.572E-09
    -4.519E-09   -4.462E-09   -4.402E-09   -4.339E-09   -4.274E-09   -4.206E-09   -4.137E-09   -4.066E-09   -3.994E-09   -3.921E-09
    -3.847E-09   -3.773E-09   -3.699E-09   -3.625E-09   -3.551E-09   -3.478E-09   -3.406E-09   -3.336E-09   -3.267E-09   -3.200E-09
    -3.135E-09   -3.073E-09   -3.013E-09   -2.956E-09   -2.901E-09   -2.849E-09   -2.799E-09   -2.752E-09   -2.706E-09   -2.663E-09
    -2.622E-09   -2.582E-09   -2.545E-09   -2.509E-09   -2.476E-09   -2.443E-09   -2.413E-09   -2.384E-09   -2.356E-09   -2.330E-09
    -2.305E-09   -2.281E-09   -2.258E-09   -2.236E-09   -2.215E-09   -2.196E-09   -2.177E-09   -2.158E-09   -2.141E-09   -2.124E-09
    -2.107E-09   -2.091E-09   -2.076E-09   -2.061E-09   -2.046E-09   -2.032E-09   -2.019E-09   -2.006E-09   -1.993E-09   -1.980E-09
    -1.968E-09   -1.956E-09   -1.945E-09   -1.934E-09   -1.923E-09   -1.912E-09   -1.902E-09   -1.891E-09   -1.881E-09   -1.871E-09
    -1.862E-09   -1.852E-09   -1.842E-09   -1.833E-09   -1.823E-09   -1.814E-09   -1.805E-09   -1.795E-09   -1.786E-09   -1.777E-09
    -1.767E-09   -1.758E-09   -1.749E-09   -1.739E-09   -1.730E-09   -1.720E-09   -1.711E-09   -1.701E-09   -1.692E-09   -1.682E-09
    -1.672E-09   -1.662E-09   -1.653E-09   -1.643E-09   -1.633E-09   -1.622E-09   -1.612E-09   -1.602E-09   -1.592E-09   -1.581E-09
    -1.571E-09   -1.560E-09   -1.549E-09   -1.538E-09   -1.527E-09   -1.516E-09   -1.505E-09   -1.493E-09   -1.482E-09   -1.470E-09
    -1.458E-09   -1.446E-09   -1.435E-09   -1.423E-09   -1.410E-09   -1.398E-09   -1.386E-09   -1.374E-09   -1.362E-09   -1.349E-09
    -1.337E-09   -1.324E-09   -1.312E-09   -1.299E-09   -1.287E-09   -1.274E-09   -1.262E-09   -1.249E-09   -1.237E-09   -1.225E-09
    -1.212E-09   -1.200E-09   -1.187E-09
 Ala      Conc. = 8.46E-11
  -1.17033E-09 -1.12901E-09 -1.08944E-09 -1.05174E-09 -1.01635E-09 -9.82977E-10 -9.52565E-10 -9.26260E-10 -8.99745E-10 -8.73180E-10
  -8.51068E-10 -8.27510E-10 -8.00763E-10 -7.75101E-10 -7.48787E-10 -7.20838E-10 -6.92219E-10 -6.63381E-10 -6.34554E-10 -6.05874E-10
  -5.77437E-10 -5.49304E-10 -5.21535E-10 -4.94161E-10 -4.67215E-10 -4.40740E-10 -4.14751E-10 -3.89275E-10 -3.64339E-10 -3.39955E-10
  -3.16107E-10 -2.92772E-10 -2.69933E-10 -2.47567E-10 -2.25654E-10 -2.04171E-10 -1.83098E-10 -1.62413E-10 -1.42092E-10 -1.22112E-10
  -1.02456E-10 -8.30949E-11 -6.40123E-11 -4.51809E-11 -2.65838E-11 -8.19070E-12  1.00148E-11  2.80539E-11  4.59583E-11  6.37424E-11
   8.14289E-11  9.90479E-11  1.16614E-10  1.34155E-10  1.51683E-10  1.69240E-10  1.86840E-10  2.04511E-10  2.22302E-10  2.40264E-10
   2.58444E-10  2.76891E-10  2.95654E-10  3.14782E-10  3.34324E-10  3.54329E-10  3.74845E-10  3.95922E-10  4.17608E-10  4.39953E-10
   4.63006E-10  4.86816E-10  5.11433E-10  5.36905E-10  5.63284E-10  5.90617E-10  6.18956E-10  6.48350E-10  6.78851E-10  7.10508E-10
   7.43375E-10  7.77500E-10  8.12941E-10  8.49746E-10  8.87972E-10  9.27622E-10  9.68648E-10  1.01100E-09  1.05464E-09  1.09953E-09
   1.14563E-09  1.19292E-09  1.24140E-09  1.29109E-09  1.34206E-09  1.39445E-09  1.44857E-09  1.50503E-09  1.56540E-09  1.63463E-09
   1.72134E-09  1.80997E-09  1.90473E-09  2.02111E-09  2.14511E-09  2.26206E-09  2.35945E-09  2.43013E-09  2.47375E-09  2.49163E-09
   2.48742E-09  2.47658E-09  2.47514E-09  2.45957E-09  2.45339E-09  2.48265E-09  2.52283E-09  2.56697E-09  2.61269E-09  2.65886E-09
   2.70488E-09  2.75036E-09  2.79504E-09  2.83870E-09  2.88118E-09  2.92232E-09  2.96200E-09  3.00009E-09  3.03648E-09  3.07105E-09
   3.10369E-09  3.13431E-09  3.16279E-09  3.18904E-09  3.21296E-09  3.23443E-09  3.25337E-09  3.26968E-09  3.28326E-09  3.29400E-09
   3.30181E-09  3.30654E-09  3.30801E-09  3.30607E-09  3.30054E-09  3.29125E-09  3.27803E-09  3.26071E-09  3.23913E-09  3.21312E-09
   3.18250E-09  3.14712E-09  3.10680E-09  3.06138E-09  3.01070E-09  2.95458E-09  2.89286E-09  2.82539E-09  2.75201E-09  2.67256E-09
   2.58689E-09  2.49489E-09  2.39646E-09  2.29155E-09  2.18028E-09  2.06329E-09  1.94378E-09  1.82985E-09  1.71266E-09  1.59148E-09
   1.46910E-09  1.34496E-09  1.21175E-09  1.05706E-09  8.71064E-10  6.54076E-10  4.16064E-10  1.71890E-10 -5.96022E-11 -2.63540E-10
  -4.61845E-10 -6.58845E-10 -8.55256E-10 -1.05100E-09 -1.24575E-09 -1.43908E-09 -1.63054E-09 -1.81963E-09 -2.00584E-09 -2.18866E-09
  -2.36758E-09 -2.54210E-09 -2.71167E-09 -2.87576E-09 -3.03388E-09 -3.18549E-09 -3.33019E-09 -3.46795E-09 -3.59884E-09 -3.72291E-09
  -3.84023E-09 -3.95084E-09 -4.05482E-09 -4.15220E-09 -4.24305E-09 -4.32743E-09 -4.40540E-09 -4.47700E-09 -4.54230E-09 -4.60136E-09
  -4.65422E-09 -4.70095E-09 -4.74161E-09 -4.77625E-09 -4.80492E-09 -4.82769E-09 -4.84461E-09 -4.85574E-09 -4.86113E-09 -4.86084E-09
  -4.85493E-09 -4.84345E-09 -4.82646E-09 -4.80402E-09 -4.77626E-09 -4.74344E-09 -4.70586E-09 -4.66381E-09 -4.61758E-09 -4.56746E-09
  -4.51374E-09 -4.45670E-09 -4.39665E-09 -4.33387E-09 -4.26864E-09 -4.20127E-09 -4.13204E-09 -4.06125E-09 -3.98916E-09 -3.91610E-09
  -3.84233E-09 -3.76816E-09 -3.69387E-09 -3.61976E-09 -3.54610E-09 -3.47320E-09 -3.40134E-09 -3.33081E-09 -3.26191E-09 -3.19492E-09
  -3.13013E-09 -3.06785E-09 -3.00819E-09 -2.95109E-09 -2.89649E-09 -2.84430E-09 -2.79445E-09 -2.74687E-09 -2.70147E-09 -2.65819E-09
  -2.61694E-09 -2.57765E-09 -2.54025E-09 -2.50465E-09 -2.47078E-09 -2.43858E-09 -2.40793E-09 -2.37881E-09 -2.35112E-09 -2.32477E-09
  -2.29969E-09 -2.27582E-09 -2.25307E-09 -2.23136E-09 -2.21064E-09 -2.19079E-09 -2.17178E-09 -2.15351E-09 -2.13591E-09 -2.11889E-09
  -2.10242E-09 -2.08648E-09 -2.07105E-09 -2.05609E-09 -2.04161E-09 -2.02757E-09 -2.01396E-09 -2.00075E-09 -1.98792E-09 -1.97546E-09
  -1.96335E-09 -1.95156E-09 -1.94007E-09 -1.92887E-09 -1.91793E-09 -1.90724E-09 -1.89678E-09 -1.88651E-09 -1.87644E-09 -1.86652E-09
  -1.85676E-09 -1.84711E-09 -1.83757E-09 -1.82812E-09 -1.81873E-09 -1.80938E-09 -1.80006E-09 -1.79074E-09 -1.78142E-09 -1.77208E-09
  -1.76274E-09 -1.75337E-09 -1.74398E-09 -1.73457E-09 -1.72512E-09 -1.71563E-09 -1.70610E-09 -1.69653E-09 -1.68691E-09 -1.67723E-09
  -1.66749E-09 -1.65769E-09 -1.64781E-09 -1.63787E-09 -1.62785E-09 -1.61775E-09 -1.60756E-09 -1.59727E-09 -1.58690E-09 -1.57642E-09
  -1.56584E-09 -1.55515E-09 -1.54434E-09 -1.53342E-09 -1.52237E-09 -1.51119E-09 -1.49990E-09 -1.48848E-09 -1.47696E-09 -1.46533E-09
  -1.45360E-09 -1.44178E-09 -1.42987E-09 -1.41787E-09 -1.40581E-09 -1.39367E-09 -1.38148E-09 -1.36922E-09 -1.35691E-09 -1.34456E-09
  -1.33217E-09 -1.31974E-09 -1.30729E-09 -1.29482E-09 -1.28233E-09 -1.26983E-09 -1.25733E-09 -1.24483E-09 -1.23234E-09 -1.21986E-09
  -1.20741E-09 -1.19498E-09 -1.18259E-09
 Asp      Conc. = 5.21E-10
  -5.85232E-10 -6.16328E-10 -6.52600E-10 -7.04540E-10 -7.59879E-10 -8.21136E-10 -8.63021E-10 -8.83888E-10 -8.77183E-10 -8.59478E-10
  -8.36233E-10 -8.09776E-10 -7.81399E-10 -7.51984E-10 -7.22322E-10 -6.92576E-10 -6.62764E-10 -6.32963E-10 -6.03237E-10 -5.73639E-10
  -5.44209E-10 -5.14976E-10 -4.85967E-10 -4.57183E-10 -4.28625E-10 -4.00294E-10 -3.72159E-10 -3.44180E-10 -3.16302E-10 -2.88424E-10
  -2.60376E-10 -2.31908E-10 -2.02664E-10 -1.72072E-10 -1.39125E-10 -1.01731E-10 -5.49573E-11 -3.61668E-12  5.68042E-11  1.18290E-10
   1.78713E-10  2.36275E-10  2.90073E-10  3.42652E-10  3.92250E-10  4.59486E-10  5.33752E-10  6.32454E-10  7.85985E-10  9.52157E-10
   1.08445E-09  1.13189E-09  1.08660E-09  9.73877E-10  8.42849E-10  7.40848E-10  6.71120E-10  6.39407E-10  5.82051E-10  5.17780E-10
   4.98913E-10  5.04675E-10  5.15605E-10  5.30482E-10  5.35905E-10  5.23435E-10  5.04263E-10  5.01480E-10  5.07383E-10  5.18363E-10
   5.32788E-10  5.49803E-10  5.68925E-10  5.89859E-10  6.12422E-10  6.36502E-10  6.62028E-10  6.88964E-10  7.17291E-10  7.47004E-10
   7.78115E-10  8.10636E-10  8.44594E-10  8.80012E-10  9.16923E-10  9.55307E-10  9.95095E-10  1.03622E-09  1.07860E-09  1.12219E-09
   1.16690E-09  1.21268E-09  1.25945E-09  1.30716E-09  1.35574E-09  1.40513E-09  1.45526E-09  1.50607E-09  1.55750E-09  1.60949E-09
   1.66197E-09  1.71488E-09  1.76816E-09  1.82175E-09  1.87559E-09  1.92961E-09  1.98376E-09  2.03797E-09  2.09218E-09  2.14634E-09
   2.20037E-09  2.25423E-09  2.30784E-09  2.36113E-09  2.41399E-09  2.46634E-09  2.51807E-09  2.56909E-09  2.61931E-09  2.66861E-09
   2.71692E-09  2.76412E-09  2.81013E-09  2.85485E-09  2.89818E-09  2.94002E-09  2.98028E-09  3.01887E-09  3.05568E-09  3.09061E-09
   3.12359E-09  3.15449E-09  3.18324E-09  3.20973E-09  3.23387E-09  3.25557E-09  3.27471E-09  3.29122E-09  3.30500E-09  3.31594E-09
   3.32395E-09  3.32889E-09  3.33058E-09  3.32887E-09  3.32358E-09  3.31454E-09  3.30160E-09  3.28459E-09  3.26335E-09  3.23770E-09
   3.20750E-09  3.17258E-09  3.13279E-09  3.08798E-09  3.03799E-09  2.98269E-09  2.92194E-09  2.85563E-09  2.78366E-09  2.70596E-09
   2.62251E-09  2.53340E-09  2.43889E-09  2.33957E-09  2.23692E-09  2.13515E-09  2.05115E-09  2.04160E-09  2.05372E-09  2.07726E-09
   2.12689E-09  2.19936E-09  2.25036E-09  2.20133E-09  1.98508E-09  1.59534E-09  1.08749E-09  5.48422E-10  8.97405E-11 -1.83164E-10
  -4.06401E-10 -6.15716E-10 -8.19261E-10 -1.01955E-09 -1.21737E-09 -1.41290E-09 -1.60596E-09 -1.79627E-09 -1.98342E-09 -2.16698E-09
  -2.34649E-09 -2.52148E-09 -2.69144E-09 -2.85586E-09 -3.01424E-09 -3.16608E-09 -3.31097E-09 -3.44889E-09 -3.57993E-09 -3.70412E-09
  -3.82154E-09 -3.93225E-09 -4.03630E-09 -4.13375E-09 -4.22467E-09 -4.30910E-09 -4.38712E-09 -4.45876E-09 -4.52410E-09 -4.58319E-09
  -4.63609E-09 -4.68285E-09 -4.72352E-09 -4.75819E-09 -4.78688E-09 -4.80967E-09 -4.82661E-09 -4.83775E-09 -4.84315E-09 -4.84287E-09
  -4.83697E-09 -4.82550E-09 -4.80852E-09 -4.78609E-09 -4.75834E-09 -4.72553E-09 -4.68796E-09 -4.64592E-09 -4.59969E-09 -4.54957E-09
