 LCModel (Version 6.3-1R) Copyright: S.W. Provencher.          Ref.: Magn. Reson. Med. 30:672-679 (1993).                
 onepulse 21x15_ftSpec_smooth_lcm
 26 lines in following concentration table = NCONC+1
    Conc.  %SD   /Cr    Metabolite                                         
 1.50E-10 110%   0.000 Ala                                                 
 5.42E-10  59%   0.000 Asp                                                 
    0.000 999%   0.000 Cr                                                  
 3.23E-09  10%   0.000 GABA                                                
 1.32E-09  27%   0.000 Glc                                                 
    0.000 999%   0.000 Gln                                                 
 1.27E-10 255%   0.000 Glu                                                 
    0.000 999%   0.000 Glyc                                                
    0.000 999%   0.000 GPC                                                 
    0.000 999%   0.000 GSH                                                 
 1.01E-10 176%   0.000 Ins                                                 
    0.000 999%   0.000 Lac                                                 
    0.000 999%   0.000 NAAG                                                
 1.12E-09  13%   0.000 NAA                                                 
 1.03E-10  46%   0.000 PCh                                                 
    0.000 999%   0.000 PCr                                                 
    0.000 999%   0.000 PE                                                  
 3.62E-12 999%   0.000 Scyllo                                              
    0.000 999%   0.000 Ser                                                 
    0.000 999%   0.000 Tau                                                 
 1.03E-10  46%   0.000 GPC+PCh                                             
 1.12E-09  13%   0.000 NAA+NAAG                                            
 1.01E-10 176%   0.000 Ins+Glyc                                            
    0.000 999%   0.000 Cr+PCr                                              
 1.27E-10 255%   0.000 Glu+Gln                                             
   6 lines in following misc. output table
  FWHM = 0.056 ppm    S/N =   5                                            
  Data shift = 0.335 ppm                                                   
  Ph:  78 deg      37.2 deg/ppm                                            
  alphaB,S = 1.7E-01,   4.0E+01                                            
   16 spline knots.   Ns = 5(1)                                            
  ( 7) 2 infls.   ( 3) 1 extrs.                                            
  363 points on ppm-axis = NY
      4.250000     4.238821     4.227641     4.216462     4.205282     4.194103     4.182923     4.171744     4.160564     4.149385
      4.138206     4.127026     4.115847     4.104667     4.093488     4.082308     4.071129     4.059949     4.048770     4.037591
      4.026411     4.015232     4.004052     3.992873     3.981693     3.970514     3.959334     3.948155     3.936975     3.925796
      3.914617     3.903437     3.892258     3.881078     3.869899     3.858719     3.847540     3.836360     3.825181     3.814002
      3.802822     3.791643     3.780463     3.769284     3.758104     3.746925     3.735745     3.724566     3.713387     3.702207
      3.691028     3.679848     3.668669     3.657489     3.646310     3.635130     3.623951     3.612772     3.601592     3.590413
      3.579233     3.568054     3.556874     3.545695     3.534515     3.523336     3.512156     3.500977     3.489798     3.478618
      3.467439     3.456259     3.445080     3.433900     3.422721     3.411541     3.400362     3.389183     3.378003     3.366824
      3.355644     3.344465     3.333285     3.322106     3.310926     3.299747     3.288568     3.277388     3.266209     3.255029
      3.243850     3.232670     3.221491     3.210311     3.199132     3.187953     3.176773     3.165594     3.154414     3.143235
      3.132055     3.120876     3.109696     3.098517     3.087337     3.076158     3.064979     3.053799     3.042620     3.031440
      3.020261     3.009081     2.997902     2.986722     2.975543     2.964364     2.953184     2.942005     2.930825     2.919646
      2.908466     2.897287     2.886107     2.874928     2.863749     2.852569     2.841390     2.830210     2.819031     2.807851
      2.796672     2.785492     2.774313     2.763134     2.751954     2.740775     2.729595     2.718416     2.707236     2.696057
      2.684877     2.673698     2.662519     2.651339     2.640160     2.628980     2.617801     2.606621     2.595442     2.584262
      2.573083     2.561903     2.550724     2.539545     2.528365     2.517186     2.506006     2.494827     2.483647     2.472468
      2.461288     2.450109     2.438930     2.427750     2.416571     2.405391     2.394212     2.383032     2.371853     2.360673
      2.349494     2.338315     2.327135     2.315956     2.304776     2.293597     2.282417     2.271238     2.260058     2.248879
      2.237700     2.226520     2.215341     2.204161     2.192982     2.181802     2.170623     2.159443     2.148264     2.137084
      2.125905     2.114726     2.103546     2.092367     2.081187     2.070008     2.058828     2.047649     2.036469     2.025290
      2.014111     2.002931     1.991752     1.980572     1.969393     1.958213     1.947034     1.935854     1.924675     1.913496
      1.902316     1.891137     1.879957     1.868778     1.857598     1.846419     1.835239     1.824060     1.812881     1.801701
      1.790522     1.779342     1.768163     1.756983     1.745804     1.734624     1.723445     1.712265     1.701086     1.689907
      1.678727     1.667548     1.656368     1.645189     1.634009     1.622830     1.611650     1.600471     1.589292     1.578112
      1.566933     1.555753     1.544574     1.533394     1.522215     1.511035     1.499856     1.488677     1.477497     1.466318
      1.455138     1.443959     1.432779     1.421600     1.410420     1.399241     1.388062     1.376882     1.365703     1.354523
      1.343344     1.332164     1.320985     1.309805     1.298626     1.287446     1.276267     1.265088     1.253908     1.242729
      1.231549     1.220370     1.209190     1.198011     1.186831     1.175652     1.164473     1.153293     1.142114     1.130934
      1.119755     1.108575     1.097396     1.086216     1.075037     1.063858     1.052678     1.041499     1.030319     1.019140
      1.007960     0.996781     0.985601     0.974422     0.963243     0.952063     0.940884     0.929704     0.918525     0.907345
      0.896166     0.884986     0.873807     0.862628     0.851448     0.840269     0.829089     0.817910     0.806730     0.795551
      0.784371     0.773192     0.762012     0.750833     0.739654     0.728474     0.717295     0.706115     0.694936     0.683756
      0.672577     0.661397     0.650218     0.639039     0.627859     0.616680     0.605500     0.594321     0.583141     0.571962
      0.560782     0.549603     0.538424     0.527244     0.516065     0.504885     0.493706     0.482526     0.471347     0.460167
      0.448988     0.437809     0.426629     0.415450     0.404270     0.393091     0.381911     0.370732     0.359552     0.348373
      0.337193     0.326014     0.314835     0.303655     0.292476     0.281296     0.270117     0.258937     0.247758     0.236578
      0.225399     0.214220     0.203040
 NY phased data points follow
   7.49440E-10  3.74474E-09  6.17957E-09  8.03823E-09  7.34028E-09  6.22085E-09  5.40842E-09  4.85690E-09  4.25605E-09  3.64966E-09
   3.43446E-09  3.85889E-09  3.66410E-09  4.07713E-09  4.79647E-09  4.73629E-09  6.06335E-09  6.73664E-09  6.04715E-09  5.98450E-09
   5.81835E-09  6.50095E-09  5.96822E-09  4.79064E-09  5.22667E-09  5.77063E-09  6.46246E-09  7.28328E-09  7.49081E-09  6.46016E-09
   5.80930E-09  6.27994E-09  6.37122E-09  9.37539E-09  1.01711E-08  1.12131E-08  1.02051E-08  9.87500E-09  8.00056E-09  6.86492E-09
   6.59457E-09  6.77096E-09  5.73590E-09  5.36494E-09  6.14874E-09  5.33856E-09  4.31117E-09  4.99979E-09  3.95093E-09  3.88663E-09
   3.24138E-09  3.69562E-09  4.10186E-09  3.99807E-09  4.44798E-09  4.32061E-09  2.83744E-09  2.88113E-09  2.97994E-09  2.25722E-09
   2.42394E-09  3.79944E-09  4.28266E-09  5.51237E-09  9.02800E-09  1.35595E-08  1.35093E-08  1.19696E-08  9.68724E-09  8.25827E-09
   7.04298E-09  6.40125E-09  5.57966E-09  4.65229E-09  3.25570E-09  3.80742E-09  3.29828E-09  2.41336E-09  3.42288E-09  4.66029E-09
   6.75205E-09  1.12752E-08  1.45540E-08  1.42876E-08  1.17157E-08  1.03970E-08  9.31656E-09  8.92497E-09  8.53543E-09  7.59961E-09
   7.10204E-09  7.19593E-09  6.65361E-09  6.08145E-09  5.53617E-09  5.68406E-09  4.49379E-09  4.86545E-09  4.11561E-09  3.75194E-09
   3.73698E-09  4.07183E-09  3.37253E-09  3.58542E-09  4.74283E-09  4.21546E-09  3.87149E-09  4.31746E-09  3.74949E-09  3.67742E-09
   3.32762E-09  2.38524E-09  2.24917E-09  2.01908E-09  2.61528E-09  2.88801E-09  3.93545E-09  3.69106E-09  3.61888E-09  4.10794E-09
   3.74163E-09  4.36009E-09  3.69518E-09  3.39594E-09  3.12869E-09  2.04723E-09  2.20096E-09  1.92560E-09  2.00266E-09  2.07456E-09
   3.03398E-09  2.27792E-09  2.22800E-09  2.90447E-09  2.28415E-09  2.60984E-09  2.63285E-09  2.22582E-09  2.07068E-09  1.87669E-09
   2.95113E-09  3.97423E-09  4.93480E-09  4.72806E-09  3.51651E-09  3.88085E-09  3.64060E-09  4.90831E-09  3.82122E-09  5.07409E-09
   3.75767E-09  3.99651E-09  3.91971E-09  3.52385E-09  3.45721E-09  3.27976E-09  3.19470E-09  3.39291E-09  3.53391E-09  3.87439E-09
   3.68202E-09  4.54187E-09  4.51821E-09  4.45089E-09  4.36976E-09  4.45204E-09  4.99898E-09  5.70470E-09  6.69243E-09  8.21947E-09
   9.14392E-09  1.18475E-08  1.64887E-08  1.85633E-08  1.54794E-08  1.09515E-08  8.14011E-09  6.92664E-09  5.85688E-09  4.76524E-09
   3.38301E-09  3.29131E-09  2.36780E-09  2.01095E-09  1.64885E-09  6.79113E-10  4.41355E-10  9.22391E-11 -2.85690E-10 -1.30568E-09
  -1.98583E-09 -2.00488E-09 -2.77944E-09 -3.65617E-09 -4.40757E-09 -5.39376E-09 -6.48639E-09 -6.39368E-09 -7.44303E-09 -8.89755E-09
  -8.99466E-09 -9.01161E-09 -9.55733E-09 -9.21489E-09 -9.36410E-09 -8.47241E-09 -8.30324E-09 -7.84368E-09 -7.54782E-09 -6.71669E-09
  -5.85431E-09 -4.93505E-09 -4.37523E-09 -3.51826E-09 -2.71882E-09 -2.45275E-09 -1.50924E-09 -2.23219E-09 -7.35837E-10 -2.16041E-09
  -1.29183E-09 -2.06413E-09 -2.16699E-09 -1.66153E-09 -2.17706E-09 -1.61902E-09 -1.34356E-09 -1.43519E-09 -1.68045E-09 -1.19472E-09
  -1.47931E-09 -1.50274E-09 -1.58212E-09 -1.97367E-09 -1.99775E-09 -1.74676E-09 -1.90815E-09 -1.39529E-09 -1.13308E-09 -1.22149E-09
  -7.84997E-10 -1.47628E-09 -1.10023E-09 -1.59981E-09 -2.00633E-09 -1.70037E-09 -1.07357E-09 -1.70405E-09 -1.59690E-09 -1.26961E-09
  -1.02537E-09 -9.56550E-10 -4.47006E-10 -5.78684E-10 -8.04378E-10 -7.27637E-10 -7.90965E-10 -1.13882E-09 -1.80123E-09 -1.55282E-09
  -1.51619E-09 -1.77291E-09 -1.93925E-09 -2.25203E-09 -1.91395E-09 -1.13215E-09 -1.24792E-09 -8.24842E-10 -1.60935E-09 -1.00960E-10
  -1.67826E-10  9.01246E-11 -1.18125E-10  1.12439E-11  2.46131E-10 -6.06473E-11 -1.03071E-09 -4.17656E-10 -6.14179E-10 -1.46284E-09
  -1.27580E-09 -1.45808E-09 -1.17316E-09 -1.80292E-09 -1.48777E-09 -1.39982E-09 -1.63785E-09 -1.25056E-09 -1.47528E-09 -1.03477E-09
  -8.07014E-10 -1.32918E-09 -1.31154E-09 -9.42397E-10 -9.34650E-10 -7.51108E-10 -1.05822E-09 -8.30908E-10 -1.20980E-09 -1.35396E-09
  -7.54846E-10 -7.15252E-10 -1.16229E-09 -8.89188E-10 -5.69766E-10 -9.84389E-10 -5.69296E-10 -1.02122E-09 -4.17795E-10 -8.74124E-10
  -1.19872E-09 -1.96442E-10 -7.96656E-10 -6.70584E-10 -3.78505E-10 -9.47265E-10 -5.31539E-10  2.21771E-10 -5.20244E-10 -5.29708E-10
  -5.08638E-10 -5.33444E-10 -1.73845E-10 -7.69472E-10 -3.67205E-10 -3.37555E-10 -1.45402E-10 -2.38148E-10 -3.47966E-10  8.71058E-11
  -2.62106E-10 -3.92471E-10 -4.97866E-10 -2.52159E-10 -3.24229E-10 -4.17808E-10 -2.88349E-10 -3.12437E-10 -3.08514E-10 -2.89071E-10
   2.47022E-10  9.54237E-11 -3.81941E-10 -1.56848E-10  1.28048E-10  5.64009E-11 -9.59603E-10  4.28048E-11 -7.40194E-11  1.77283E-11
   3.41892E-11  1.06609E-13  2.47230E-10  2.36743E-10 -2.78216E-11  2.06622E-12  2.79763E-10  2.27078E-10  4.55684E-10  9.58453E-11
  -1.22830E-10 -3.40548E-10 -2.58849E-10
 NY points of the fit to the data follow
   4.67917E-09  5.11601E-09  5.49007E-09  5.75521E-09  5.80036E-09  5.58073E-09  5.15134E-09  4.67376E-09  4.29967E-09  4.00021E-09
   3.90738E-09  3.94154E-09  4.04499E-09  4.23981E-09  4.55408E-09  4.90656E-09  5.30331E-09  5.79225E-09  6.31745E-09  6.74310E-09
   6.93611E-09  6.69836E-09  6.11703E-09  5.57590E-09  5.18964E-09  4.98096E-09  5.11034E-09  5.67260E-09  6.43491E-09  7.06803E-09
   7.25365E-09  7.42943E-09  7.99144E-09  8.49892E-09  8.72460E-09  9.12827E-09  9.61864E-09  9.80007E-09  9.32710E-09  8.38619E-09
   7.52500E-09  6.80359E-09  5.59846E-09  4.51430E-09  4.06588E-09  3.65077E-09  3.32146E-09  3.35704E-09  3.55587E-09  3.72352E-09
   3.78952E-09  3.74721E-09  3.72235E-09  3.75841E-09  3.84626E-09  3.95346E-09  4.04683E-09  4.10588E-09  4.07300E-09  4.05407E-09
   4.30659E-09  4.90334E-09  5.60316E-09  6.31231E-09  7.42848E-09  8.56417E-09  9.35357E-09  9.87315E-09  1.02055E-08  1.02265E-08
   9.67867E-09  8.46540E-09  7.09807E-09  6.22862E-09  5.34339E-09  4.32773E-09  4.20954E-09  4.85511E-09  5.55686E-09  6.63058E-09
   8.17763E-09  1.01663E-08  1.21412E-08  1.30154E-08  1.23203E-08  1.09349E-08  9.65702E-09  8.47939E-09  7.27370E-09  6.95422E-09
   6.84057E-09  6.87730E-09  6.65090E-09  6.01446E-09  5.59739E-09  5.26472E-09  4.66229E-09  4.21692E-09  3.96414E-09  3.72020E-09
   3.58087E-09  3.51594E-09  3.50856E-09  3.57995E-09  3.68590E-09  3.76668E-09  3.79318E-09  3.78977E-09  3.77880E-09  3.72792E-09
   3.60730E-09  3.46670E-09  3.39070E-09  3.30728E-09  3.22311E-09  3.20153E-09  3.19875E-09  3.20309E-09  3.21064E-09  3.21963E-09
   3.22914E-09  3.23859E-09  3.24756E-09  3.25576E-09  3.26297E-09  3.26901E-09  3.27371E-09  3.27698E-09  3.27870E-09  3.27876E-09
   3.27708E-09  3.27356E-09  3.26814E-09  3.26072E-09  3.25123E-09  3.23960E-09  3.22577E-09  3.20969E-09  3.19130E-09  3.17055E-09
   3.14735E-09  3.12168E-09  3.09350E-09  3.06277E-09  3.02948E-09  2.99360E-09  2.95513E-09  2.91405E-09  2.87037E-09  2.82411E-09
   2.77534E-09  2.72411E-09  2.67055E-09  2.61481E-09  2.55711E-09  2.49776E-09  2.43721E-09  2.37610E-09  2.31536E-09  2.25640E-09
   2.20138E-09  2.15388E-09  2.12016E-09  2.11231E-09  2.15787E-09  2.33920E-09  3.03072E-09  4.48480E-09  6.24272E-09  8.32875E-09
   1.11724E-08  1.45854E-08  1.71955E-08  1.74527E-08  1.52376E-08  1.18131E-08  8.21815E-09  4.64148E-09  1.80792E-09  5.89293E-10
   6.73381E-11 -2.62712E-10 -5.14825E-10 -7.26895E-10 -9.15120E-10 -1.08752E-09 -1.24839E-09 -1.40018E-09 -1.54428E-09 -1.68149E-09
  -1.81227E-09 -1.93681E-09 -2.05514E-09 -2.16717E-09 -2.27280E-09 -2.37180E-09 -2.46404E-09 -2.54970E-09 -2.62899E-09 -2.70210E-09
  -2.76923E-09 -2.83054E-09 -2.88621E-09 -2.93639E-09 -2.98124E-09 -3.02091E-09 -3.05555E-09 -3.08530E-09 -3.11032E-09 -3.13073E-09
  -3.14668E-09 -3.15830E-09 -3.16575E-09 -3.16914E-09 -3.16862E-09 -3.16433E-09 -3.15639E-09 -3.14494E-09 -3.13011E-09 -3.11204E-09
  -3.09086E-09 -3.06670E-09 -3.03970E-09 -3.00998E-09 -2.97769E-09 -2.94298E-09 -2.90600E-09 -2.86691E-09 -2.82587E-09 -2.78302E-09
  -2.73854E-09 -2.69256E-09 -2.64525E-09 -2.59676E-09 -2.54723E-09 -2.49685E-09 -2.44574E-09 -2.39407E-09 -2.34198E-09 -2.28966E-09
  -2.23723E-09 -2.18485E-09 -2.13268E-09 -2.08088E-09 -2.02959E-09 -1.97897E-09 -1.92917E-09 -1.88035E-09 -1.83266E-09 -1.78627E-09
  -1.74130E-09 -1.69793E-09 -1.65622E-09 -1.61613E-09 -1.57762E-09 -1.54063E-09 -1.50513E-09 -1.47106E-09 -1.43837E-09 -1.40703E-09
  -1.37698E-09 -1.34817E-09 -1.32057E-09 -1.29411E-09 -1.26877E-09 -1.24448E-09 -1.22120E-09 -1.19889E-09 -1.17750E-09 -1.15698E-09
  -1.13727E-09 -1.11835E-09 -1.10016E-09 -1.08265E-09 -1.06578E-09 -1.04949E-09 -1.03375E-09 -1.01851E-09 -1.00372E-09 -9.89324E-10
  -9.75300E-10 -9.61626E-10 -9.48276E-10 -9.35225E-10 -9.22460E-10 -9.09950E-10 -8.97681E-10 -8.85624E-10 -8.73760E-10 -8.62070E-10
  -8.50527E-10 -8.39112E-10 -8.27802E-10 -8.16574E-10 -8.05410E-10 -7.94284E-10 -7.83177E-10 -7.72063E-10 -7.60930E-10 -7.49740E-10
  -7.38487E-10 -7.27140E-10 -7.15677E-10 -7.04086E-10 -6.92335E-10 -6.80404E-10 -6.68276E-10 -6.55922E-10 -6.43349E-10 -6.30565E-10
  -6.17580E-10 -6.04406E-10 -5.91053E-10 -5.77528E-10 -5.63846E-10 -5.50016E-10 -5.36048E-10 -5.21953E-10 -5.07742E-10 -4.93422E-10
  -4.79010E-10 -4.64509E-10 -4.49933E-10 -4.35296E-10 -4.20601E-10 -4.05866E-10 -3.91096E-10 -3.76302E-10 -3.61497E-10 -3.46694E-10
  -3.31894E-10 -3.17115E-10 -3.02364E-10 -2.87654E-10 -2.72996E-10 -2.58393E-10 -2.43853E-10 -2.29373E-10 -2.14950E-10 -2.00584E-10
  -1.86274E-10 -1.72017E-10 -1.57811E-10 -1.43657E-10 -1.29554E-10 -1.15495E-10 -1.01487E-10 -8.75222E-11 -7.36022E-11 -5.97238E-11
  -4.58852E-11 -3.20884E-11 -1.83288E-11 -4.60643E-12  9.08124E-12  2.27337E-11  3.63540E-11  4.99448E-11  6.35055E-11  7.70359E-11
   9.05396E-11  1.04017E-10  1.17473E-10
 NY background values follow
    -8.200E-10   -7.881E-10   -7.563E-10   -7.245E-10   -6.927E-10   -6.610E-10   -6.293E-10   -5.977E-10   -5.662E-10   -5.348E-10
    -5.035E-10   -4.724E-10   -4.414E-10   -4.106E-10   -3.800E-10   -3.495E-10   -3.193E-10   -2.893E-10   -2.596E-10   -2.301E-10
    -2.009E-10   -1.720E-10   -1.434E-10   -1.151E-10   -8.719E-11   -5.961E-11   -3.240E-11   -5.575E-12    2.085E-11    4.687E-11
     7.250E-11    9.778E-11    1.227E-10    1.474E-10    1.717E-10    1.958E-10    2.197E-10    2.434E-10    2.669E-10    2.903E-10
     3.135E-10    3.367E-10    3.598E-10    3.828E-10    4.058E-10    4.289E-10    4.520E-10    4.751E-10    4.984E-10    5.217E-10
     5.453E-10    5.689E-10    5.928E-10    6.169E-10    6.413E-10    6.660E-10    6.909E-10    7.162E-10    7.418E-10    7.677E-10
     7.940E-10    8.206E-10    8.475E-10    8.748E-10    9.024E-10    9.303E-10    9.585E-10    9.871E-10    1.016E-09    1.045E-09
     1.075E-09    1.105E-09    1.135E-09    1.166E-09    1.197E-09    1.228E-09    1.259E-09    1.291E-09    1.324E-09    1.356E-09
     1.389E-09    1.423E-09    1.456E-09    1.490E-09    1.525E-09    1.559E-09    1.594E-09    1.629E-09    1.665E-09    1.700E-09
     1.736E-09    1.771E-09    1.807E-09    1.842E-09    1.878E-09    1.913E-09    1.948E-09    1.983E-09    2.018E-09    2.052E-09
     2.086E-09    2.119E-09    2.152E-09    2.185E-09    2.216E-09    2.248E-09    2.278E-09    2.308E-09    2.337E-09    2.365E-09
     2.393E-09    2.419E-09    2.445E-09    2.469E-09    2.493E-09    2.515E-09    2.536E-09    2.556E-09    2.575E-09    2.592E-09
     2.608E-09    2.622E-09    2.635E-09    2.646E-09    2.655E-09    2.663E-09    2.669E-09    2.673E-09    2.675E-09    2.675E-09
     2.673E-09    2.669E-09    2.663E-09    2.654E-09    2.644E-09    2.631E-09    2.615E-09    2.597E-09    2.577E-09    2.554E-09
     2.528E-09    2.500E-09    2.469E-09    2.435E-09    2.398E-09    2.358E-09    2.315E-09    2.269E-09    2.221E-09    2.169E-09
     2.113E-09    2.055E-09    1.993E-09    1.928E-09    1.859E-09    1.787E-09    1.711E-09    1.632E-09    1.549E-09    1.463E-09
     1.372E-09    1.278E-09    1.180E-09    1.078E-09    9.723E-10    8.623E-10    7.482E-10    6.300E-10    5.076E-10    3.814E-10
     2.517E-10    1.188E-10   -1.677E-11   -1.547E-10   -2.946E-10   -4.362E-10   -5.790E-10   -7.226E-10   -8.668E-10   -1.011E-09
    -1.155E-09   -1.298E-09   -1.441E-09   -1.582E-09   -1.721E-09   -1.858E-09   -1.993E-09   -2.124E-09   -2.253E-09   -2.378E-09
    -2.499E-09   -2.615E-09   -2.727E-09   -2.833E-09   -2.934E-09   -3.029E-09   -3.119E-09   -3.201E-09   -3.278E-09   -3.350E-09
    -3.415E-09   -3.475E-09   -3.530E-09   -3.579E-09   -3.623E-09   -3.662E-09   -3.696E-09   -3.725E-09   -3.750E-09   -3.770E-09
    -3.785E-09   -3.797E-09   -3.804E-09   -3.807E-09   -3.807E-09   -3.802E-09   -3.795E-09   -3.783E-09   -3.768E-09   -3.750E-09
    -3.729E-09   -3.705E-09   -3.678E-09   -3.649E-09   -3.617E-09   -3.582E-09   -3.545E-09   -3.506E-09   -3.466E-09   -3.423E-09
    -3.379E-09   -3.333E-09   -3.286E-09   -3.237E-09   -3.188E-09   -3.138E-09   -3.087E-09   -3.035E-09   -2.984E-09   -2.931E-09
    -2.879E-09   -2.827E-09   -2.775E-09   -2.723E-09   -2.672E-09   -2.622E-09   -2.572E-09   -2.524E-09   -2.476E-09   -2.430E-09
    -2.385E-09   -2.342E-09   -2.300E-09   -2.260E-09   -2.222E-09   -2.185E-09   -2.150E-09   -2.116E-09   -2.083E-09   -2.052E-09
    -2.022E-09   -1.994E-09   -1.966E-09   -1.940E-09   -1.915E-09   -1.890E-09   -1.867E-09   -1.845E-09   -1.824E-09   -1.803E-09
    -1.784E-09   -1.765E-09   -1.747E-09   -1.729E-09   -1.712E-09   -1.696E-09   -1.680E-09   -1.665E-09   -1.651E-09   -1.636E-09
    -1.622E-09   -1.609E-09   -1.595E-09   -1.582E-09   -1.569E-09   -1.557E-09   -1.545E-09   -1.533E-09   -1.521E-09   -1.509E-09
    -1.497E-09   -1.486E-09   -1.475E-09   -1.463E-09   -1.452E-09   -1.441E-09   -1.430E-09   -1.419E-09   -1.408E-09   -1.396E-09
    -1.385E-09   -1.374E-09   -1.362E-09   -1.350E-09   -1.339E-09   -1.326E-09   -1.314E-09   -1.302E-09   -1.289E-09   -1.276E-09
    -1.263E-09   -1.250E-09   -1.236E-09   -1.223E-09   -1.209E-09   -1.195E-09   -1.181E-09   -1.167E-09   -1.152E-09   -1.138E-09
    -1.123E-09   -1.109E-09   -1.094E-09   -1.079E-09   -1.064E-09   -1.049E-09   -1.034E-09   -1.019E-09   -1.004E-09   -9.892E-10
    -9.742E-10   -9.592E-10   -9.443E-10   -9.294E-10   -9.145E-10   -8.996E-10   -8.849E-10   -8.701E-10   -8.555E-10   -8.409E-10
    -8.263E-10   -8.118E-10   -7.973E-10   -7.829E-10   -7.685E-10   -7.542E-10   -7.399E-10   -7.256E-10   -7.114E-10   -6.973E-10
    -6.831E-10   -6.690E-10   -6.550E-10   -6.409E-10   -6.269E-10   -6.129E-10   -5.990E-10   -5.851E-10   -5.712E-10   -5.573E-10
    -5.434E-10   -5.296E-10   -5.158E-10
 Ala      Conc. = 1.50E-10
  -7.02141E-10 -6.57687E-10 -6.18840E-10 -5.85985E-10 -5.55034E-10 -5.24138E-10 -5.00097E-10 -4.87049E-10 -4.69816E-10 -4.47391E-10
  -4.35102E-10 -4.20353E-10 -3.97241E-10 -3.75501E-10 -3.52293E-10 -3.26023E-10 -2.98404E-10 -2.70162E-10 -2.41645E-10 -2.13050E-10
  -1.84500E-10 -1.56078E-10 -1.27850E-10 -9.98536E-11 -7.21259E-11 -4.47069E-11 -1.76151E-11  9.12584E-12  3.54905E-11  6.14693E-11
   8.70807E-11  1.12350E-10  1.37300E-10  1.61955E-10  1.86341E-10  2.10482E-10  2.34405E-10  2.58133E-10  2.81695E-10  3.05117E-10
   3.28422E-10  3.51641E-10  3.74796E-10  3.97916E-10  4.21024E-10  4.44153E-10  4.67324E-10  4.90564E-10  5.13905E-10  5.37368E-10
   5.60980E-10  5.84774E-10  6.08769E-10  6.32998E-10  6.57479E-10  6.82253E-10  7.07340E-10  7.32755E-10  7.58503E-10  7.84585E-10
   8.11003E-10  8.37756E-10  8.64848E-10  8.92278E-10  9.20049E-10  9.48161E-10  9.76617E-10  1.00542E-09  1.03457E-09  1.06406E-09
   1.09391E-09  1.12411E-09  1.15467E-09  1.18559E-09  1.21687E-09  1.24851E-09  1.28052E-09  1.31291E-09  1.34568E-09  1.37883E-09
   1.41238E-09  1.44632E-09  1.48068E-09  1.51546E-09  1.55067E-09  1.58632E-09  1.62237E-09  1.65882E-09  1.69563E-09  1.73283E-09
   1.77041E-09  1.80842E-09  1.84692E-09  1.88605E-09  1.92601E-09  1.96716E-09  2.01019E-09  2.05639E-09  2.10882E-09  2.17686E-09
   2.27413E-09  2.36918E-09  2.47664E-09  2.63397E-09  2.80602E-09  2.93865E-09  3.00632E-09  3.03615E-09  3.05248E-09  3.02426E-09
   2.92284E-09  2.79838E-09  2.73586E-09  2.66373E-09  2.58901E-09  2.57527E-09  2.57918E-09  2.58919E-09  2.60150E-09  2.61448E-09
   2.62728E-09  2.63938E-09  2.65049E-09  2.66037E-09  2.66884E-09  2.67579E-09  2.68110E-09  2.68467E-09  2.68641E-09  2.68625E-09
   2.68410E-09  2.67990E-09  2.67357E-09  2.66505E-09  2.65428E-09  2.64118E-09  2.62569E-09  2.60776E-09  2.58731E-09  2.56429E-09
   2.53862E-09  2.51026E-09  2.47915E-09  2.44523E-09  2.40845E-09  2.36874E-09  2.32607E-09  2.28037E-09  2.23158E-09  2.17965E-09
   2.12453E-09  2.06617E-09  2.00451E-09  1.93950E-09  1.87109E-09  1.79923E-09  1.72388E-09  1.64499E-09  1.56254E-09  1.47649E-09
   1.38683E-09  1.29357E-09  1.19681E-09  1.09669E-09  9.93703E-10  8.89244E-10  7.89524E-10  7.09469E-10  6.30194E-10  5.52078E-10
   4.89164E-10  4.42643E-10  3.79962E-10  2.57304E-10  6.78656E-11 -1.52688E-10 -3.74946E-10 -5.97634E-10 -8.13692E-10 -9.78263E-10
  -1.13017E-09 -1.27765E-09 -1.42250E-09 -1.56513E-09 -1.70550E-09 -1.84343E-09 -1.97865E-09 -2.11085E-09 -2.23969E-09 -2.36482E-09
  -2.48589E-09 -2.60255E-09 -2.71441E-09 -2.82111E-09 -2.92229E-09 -3.01757E-09 -3.10670E-09 -3.18972E-09 -3.26679E-09 -3.33802E-09
  -3.40355E-09 -3.46351E-09 -3.51803E-09 -3.56724E-09 -3.61128E-09 -3.65026E-09 -3.68434E-09 -3.71362E-09 -3.73825E-09 -3.75835E-09
  -3.77406E-09 -3.78550E-09 -3.79281E-09 -3.79611E-09 -3.79554E-09 -3.79123E-09 -3.78331E-09 -3.77189E-09 -3.75713E-09 -3.73915E-09
  -3.71807E-09 -3.69403E-09 -3.66715E-09 -3.63758E-09 -3.60544E-09 -3.57090E-09 -3.53409E-09 -3.49518E-09 -3.45432E-09 -3.41166E-09
  -3.36737E-09 -3.32158E-09 -3.27447E-09 -3.22618E-09 -3.17685E-09 -3.12667E-09 -3.07576E-09 -3.02429E-09 -2.97240E-09 -2.92027E-09
  -2.86804E-09 -2.81585E-09 -2.76388E-09 -2.71227E-09 -2.66116E-09 -2.61073E-09 -2.56111E-09 -2.51247E-09 -2.46496E-09 -2.41873E-09
  -2.37393E-09 -2.33073E-09 -2.28918E-09 -2.24925E-09 -2.21088E-09 -2.17405E-09 -2.13869E-09 -2.10476E-09 -2.07221E-09 -2.04100E-09
  -2.01108E-09 -1.98239E-09 -1.95491E-09 -1.92857E-09 -1.90333E-09 -1.87915E-09 -1.85596E-09 -1.83375E-09 -1.81245E-09 -1.79201E-09
  -1.77239E-09 -1.75355E-09 -1.73543E-09 -1.71798E-09 -1.70118E-09 -1.68494E-09 -1.66926E-09 -1.65406E-09 -1.63932E-09 -1.62496E-09
  -1.61097E-09 -1.59732E-09 -1.58400E-09 -1.57097E-09 -1.55822E-09 -1.54571E-09 -1.53345E-09 -1.52139E-09 -1.50952E-09 -1.49782E-09
  -1.48627E-09 -1.47483E-09 -1.46350E-09 -1.45224E-09 -1.44104E-09 -1.42988E-09 -1.41873E-09 -1.40757E-09 -1.39638E-09 -1.38514E-09
  -1.37382E-09 -1.36241E-09 -1.35087E-09 -1.33921E-09 -1.32737E-09 -1.31536E-09 -1.30314E-09 -1.29069E-09 -1.27802E-09 -1.26513E-09
  -1.25204E-09 -1.23875E-09 -1.22528E-09 -1.21163E-09 -1.19782E-09 -1.18386E-09 -1.16975E-09 -1.15552E-09 -1.14116E-09 -1.12669E-09
  -1.11212E-09 -1.09746E-09 -1.08272E-09 -1.06791E-09 -1.05304E-09 -1.03813E-09 -1.02318E-09 -1.00820E-09 -9.93199E-10 -9.78199E-10
  -9.63197E-10 -9.48212E-10 -9.33250E-10 -9.18326E-10 -9.03447E-10 -8.88620E-10 -8.73851E-10 -8.59137E-10 -8.44476E-10 -8.29868E-10
  -8.15310E-10 -8.00800E-10 -7.86339E-10 -7.71923E-10 -7.57555E-10 -7.43226E-10 -7.28943E-10 -7.14699E-10 -7.00495E-10 -6.86328E-10
  -6.72196E-10 -6.58102E-10 -6.44039E-10 -6.30010E-10 -6.16010E-10 -6.02042E-10 -5.88100E-10 -5.74184E-10 -5.60293E-10 -5.46427E-10
  -5.32584E-10 -5.18763E-10 -5.04957E-10
 Asp      Conc. = 5.42E-10
  -1.73735E-10 -2.22853E-10 -2.82279E-10 -3.59077E-10 -4.19987E-10 -4.76703E-10 -5.07727E-10 -5.23018E-10 -5.10254E-10 -4.87403E-10
  -4.59959E-10 -4.30251E-10 -3.99335E-10 -3.67686E-10 -3.36001E-10 -3.04383E-10 -2.72771E-10 -2.41194E-10 -2.09680E-10 -1.78250E-10
  -1.46917E-10 -1.15685E-10 -8.45565E-11 -5.35139E-11 -2.25367E-11  8.39658E-12  3.93388E-11  7.03524E-11  1.01520E-10  1.32975E-10
   1.64925E-10  1.97666E-10  2.31614E-10  2.67420E-10  3.06192E-10  3.50139E-10  4.04135E-10  4.61980E-10  5.29242E-10  5.98596E-10
   6.68709E-10  7.34565E-10  7.90261E-10  8.37070E-10  8.77568E-10  9.46256E-10  1.03890E-09  1.17132E-09  1.36442E-09  1.53846E-09
   1.63115E-09  1.60642E-09  1.51507E-09  1.41442E-09  1.31502E-09  1.22031E-09  1.12494E-09  1.09284E-09  1.04992E-09  9.99055E-10
   1.00736E-09  1.03757E-09  1.04965E-09  1.05798E-09  1.06879E-09  1.07072E-09  1.06081E-09  1.06789E-09  1.08339E-09  1.10345E-09
   1.12637E-09  1.15128E-09  1.17767E-09  1.20522E-09  1.23372E-09  1.26302E-09  1.29302E-09  1.32364E-09  1.35484E-09  1.38656E-09
   1.41877E-09  1.45145E-09  1.48458E-09  1.51813E-09  1.55211E-09  1.58646E-09  1.62115E-09  1.65610E-09  1.69128E-09  1.72663E-09
   1.76209E-09  1.79762E-09  1.83316E-09  1.86867E-09  1.90409E-09  1.93938E-09  1.97448E-09  2.00936E-09  2.04395E-09  2.07822E-09
   2.11210E-09  2.14557E-09  2.17855E-09  2.21102E-09  2.24292E-09  2.27420E-09  2.30481E-09  2.33472E-09  2.36386E-09  2.39220E-09
   2.41968E-09  2.44625E-09  2.47188E-09  2.49650E-09  2.52005E-09  2.54247E-09  2.56371E-09  2.58370E-09  2.60237E-09  2.61968E-09
   2.63555E-09  2.64993E-09  2.66276E-09  2.67397E-09  2.68351E-09  2.69132E-09  2.69733E-09  2.70149E-09  2.70373E-09  2.70399E-09
   2.70222E-09  2.69835E-09  2.69232E-09  2.68408E-09  2.67355E-09  2.66069E-09  2.64543E-09  2.62771E-09  2.60748E-09  2.58467E-09
   2.55922E-09  2.53108E-09  2.50019E-09  2.46651E-09  2.42998E-09  2.39054E-09  2.34815E-09  2.30275E-09  2.25430E-09  2.20273E-09
   2.14802E-09  2.09010E-09  2.02895E-09  1.96452E-09  1.89677E-09  1.82568E-09  1.75124E-09  1.67343E-09  1.59228E-09  1.50784E-09
   1.42021E-09  1.32959E-09  1.23637E-09  1.14127E-09  1.04593E-09  9.54732E-10  8.84706E-10  8.99079E-10  9.31762E-10  9.74268E-10
   1.07575E-09  1.25140E-09  1.39428E-09  1.33826E-09  1.03755E-09  6.12623E-10  1.79435E-10 -2.51231E-10 -6.71986E-10 -9.04001E-10
  -1.07900E-09 -1.23761E-09 -1.38883E-09 -1.53548E-09 -1.67856E-09 -1.81841E-09 -1.95504E-09 -2.08829E-09 -2.21793E-09 -2.34369E-09
  -2.46526E-09 -2.58232E-09 -2.69451E-09 -2.80147E-09 -2.90286E-09 -2.99833E-09 -3.08760E-09 -3.17075E-09 -3.24792E-09 -3.31923E-09
  -3.38484E-09 -3.44486E-09 -3.49943E-09 -3.54868E-09 -3.59276E-09 -3.63177E-09 -3.66587E-09 -3.69517E-09 -3.71982E-09 -3.73993E-09
  -3.75565E-09 -3.76710E-09 -3.77441E-09 -3.77772E-09 -3.77715E-09 -3.77284E-09 -3.76491E-09 -3.75350E-09 -3.73873E-09 -3.72074E-09
  -3.69966E-09 -3.67561E-09 -3.64874E-09 -3.61916E-09 -3.58701E-09 -3.55246E-09 -3.51564E-09 -3.47672E-09 -3.43586E-09 -3.39319E-09
