 LCModel (Version 6.3-1R) Copyright: S.W. Provencher.          Ref.: Magn. Reson. Med. 30:672-679 (1993).                
 onepulse 21x12_ftSpec_smooth_lcm
 26 lines in following concentration table = NCONC+1
    Conc.  %SD /Cr+PCr  Metabolite                                         
    0.000 999%   0.000 Ala                                                 
    0.000 999%   0.000 Asp                                                 
 2.24E-10  94%   1.000 Cr                                                  
    0.000 999%   0.000 GABA                                                
    0.000 999%   0.000 Glc                                                 
 3.31E-09  14%  14.761 Gln                                                 
    0.000 999%   0.000 Glu                                                 
 3.31E-10 362%   1.475 Glyc                                                
    0.000 999%   0.000 GPC                                                 
    0.000 999%   0.000 GSH                                                 
 7.78E-10 133%   3.472 Ins                                                 
    0.000 999%   0.000 Lac                                                 
 1.64E-10 157%   0.731 NAAG                                                
 1.23E-10 268%   0.551 NAA                                                 
    0.000 999%   0.000 PCh                                                 
    0.000 999%   0.000 PCr                                                 
 1.21E-09  58%   5.386 PE                                                  
 2.17E-11 999% 9.7E-02 Scyllo                                              
 9.60E-10  58%   4.283 Ser                                                 
 7.47E-10 105%   3.333 Tau                                                 
    0.000 999%   0.000 GPC+PCh                                             
 2.87E-10  78%   1.282 NAA+NAAG                                            
 1.11E-09  33%   4.947 Ins+Glyc                                            
 2.24E-10  94%   1.000 Cr+PCr                                              
 3.31E-09  14%  14.761 Glu+Gln                                             
   6 lines in following misc. output table
  FWHM = 0.089 ppm    S/N =   3                                            
  Data shift = 0.369 ppm                                                   
  Ph: -44 deg     -35.2 deg/ppm                                            
  alphaB,S = 9.2E-01,   4.1E+01                                            
    9 spline knots.   Ns = 5(1)                                            
  ( 7) 2 infls.   ( 5) 1 extrs.                                            
  363 points on ppm-axis = NY
      4.250000     4.238821     4.227641     4.216462     4.205282     4.194103     4.182923     4.171744     4.160564     4.149385
      4.138206     4.127026     4.115847     4.104667     4.093488     4.082308     4.071129     4.059949     4.048770     4.037591
      4.026411     4.015232     4.004052     3.992873     3.981693     3.970514     3.959334     3.948155     3.936975     3.925796
      3.914617     3.903437     3.892258     3.881078     3.869899     3.858719     3.847540     3.836360     3.825181     3.814002
      3.802822     3.791643     3.780463     3.769284     3.758104     3.746925     3.735745     3.724566     3.713387     3.702207
      3.691028     3.679848     3.668669     3.657489     3.646310     3.635130     3.623951     3.612772     3.601592     3.590413
      3.579233     3.568054     3.556874     3.545695     3.534515     3.523336     3.512156     3.500977     3.489798     3.478618
      3.467439     3.456259     3.445080     3.433900     3.422721     3.411541     3.400362     3.389183     3.378003     3.366824
      3.355644     3.344465     3.333285     3.322106     3.310926     3.299747     3.288568     3.277388     3.266209     3.255029
      3.243850     3.232670     3.221491     3.210311     3.199132     3.187953     3.176773     3.165594     3.154414     3.143235
      3.132055     3.120876     3.109696     3.098517     3.087337     3.076158     3.064979     3.053799     3.042620     3.031440
      3.020261     3.009081     2.997902     2.986722     2.975543     2.964364     2.953184     2.942005     2.930825     2.919646
      2.908466     2.897287     2.886107     2.874928     2.863749     2.852569     2.841390     2.830210     2.819031     2.807851
      2.796672     2.785492     2.774313     2.763134     2.751954     2.740775     2.729595     2.718416     2.707236     2.696057
      2.684877     2.673698     2.662519     2.651339     2.640160     2.628980     2.617801     2.606621     2.595442     2.584262
      2.573083     2.561903     2.550724     2.539545     2.528365     2.517186     2.506006     2.494827     2.483647     2.472468
      2.461288     2.450109     2.438930     2.427750     2.416571     2.405391     2.394212     2.383032     2.371853     2.360673
      2.349494     2.338315     2.327135     2.315956     2.304776     2.293597     2.282417     2.271238     2.260058     2.248879
      2.237700     2.226520     2.215341     2.204161     2.192982     2.181802     2.170623     2.159443     2.148264     2.137084
      2.125905     2.114726     2.103546     2.092367     2.081187     2.070008     2.058828     2.047649     2.036469     2.025290
      2.014111     2.002931     1.991752     1.980572     1.969393     1.958213     1.947034     1.935854     1.924675     1.913496
      1.902316     1.891137     1.879957     1.868778     1.857598     1.846419     1.835239     1.824060     1.812881     1.801701
      1.790522     1.779342     1.768163     1.756983     1.745804     1.734624     1.723445     1.712265     1.701086     1.689907
      1.678727     1.667548     1.656368     1.645189     1.634009     1.622830     1.611650     1.600471     1.589292     1.578112
      1.566933     1.555753     1.544574     1.533394     1.522215     1.511035     1.499856     1.488677     1.477497     1.466318
      1.455138     1.443959     1.432779     1.421600     1.410420     1.399241     1.388062     1.376882     1.365703     1.354523
      1.343344     1.332164     1.320985     1.309805     1.298626     1.287446     1.276267     1.265088     1.253908     1.242729
      1.231549     1.220370     1.209190     1.198011     1.186831     1.175652     1.164473     1.153293     1.142114     1.130934
      1.119755     1.108575     1.097396     1.086216     1.075037     1.063858     1.052678     1.041499     1.030319     1.019140
      1.007960     0.996781     0.985601     0.974422     0.963243     0.952063     0.940884     0.929704     0.918525     0.907345
      0.896166     0.884986     0.873807     0.862628     0.851448     0.840269     0.829089     0.817910     0.806730     0.795551
      0.784371     0.773192     0.762012     0.750833     0.739654     0.728474     0.717295     0.706115     0.694936     0.683756
      0.672577     0.661397     0.650218     0.639039     0.627859     0.616680     0.605500     0.594321     0.583141     0.571962
      0.560782     0.549603     0.538424     0.527244     0.516065     0.504885     0.493706     0.482526     0.471347     0.460167
      0.448988     0.437809     0.426629     0.415450     0.404270     0.393091     0.381911     0.370732     0.359552     0.348373
      0.337193     0.326014     0.314835     0.303655     0.292476     0.281296     0.270117     0.258937     0.247758     0.236578
      0.225399     0.214220     0.203040
 NY phased data points follow
   1.28017E-08  1.13155E-08  9.76177E-09  9.85010E-09  8.72884E-09  9.21047E-09  8.79856E-09  9.69571E-09  9.45148E-09  1.06341E-08
   1.01631E-08  1.07380E-08  1.04247E-08  1.11649E-08  1.01057E-08  9.36342E-09  9.04327E-09  9.22173E-09  7.74187E-09  9.13017E-09
   8.28065E-09  9.28029E-09  8.62333E-09  9.01281E-09  8.80980E-09  9.13811E-09  8.03464E-09  8.85927E-09  9.08510E-09  1.07047E-08
   1.06220E-08  1.05742E-08  9.11853E-09  8.03224E-09  6.05278E-09  5.77940E-09  4.54583E-09  5.29728E-09  4.86249E-09  5.17028E-09
   4.64367E-09  5.22555E-09  4.20426E-09  4.08671E-09  3.40608E-09  3.77230E-09  3.90592E-09  4.77335E-09  4.56816E-09  4.77247E-09
   4.03835E-09  5.55138E-09  4.52289E-09  4.31035E-09  3.76820E-09  5.13884E-09  5.32543E-09  6.55444E-09  7.39436E-09  9.25821E-09
   1.10822E-08  1.29316E-08  1.32222E-08  1.26932E-08  1.03434E-08  8.11201E-09  6.28384E-09  5.36361E-09  4.77508E-09  4.95584E-09
   3.98767E-09  4.08116E-09  3.64941E-09  5.02409E-09  5.01909E-09  6.70016E-09  8.37812E-09  1.14815E-08  1.40997E-08  1.52809E-08
   1.30791E-08  1.18480E-08  9.95737E-09  9.09960E-09  8.32265E-09  7.99699E-09  7.27705E-09  7.06917E-09  6.62228E-09  6.19306E-09
   5.46973E-09  5.89585E-09  4.99800E-09  4.30109E-09  4.47376E-09  4.14670E-09  3.90015E-09  3.65607E-09  3.16037E-09  3.55316E-09
   4.39268E-09  4.12244E-09  3.84216E-09  3.49201E-09  3.84687E-09  3.43782E-09  2.88291E-09  3.16264E-09  1.71949E-09  2.42622E-09
   1.47387E-09  2.90689E-09  2.85530E-09  3.70786E-09  2.80826E-09  4.04180E-09  4.20359E-09  3.90627E-09  3.81146E-09  3.99237E-09
   3.82235E-09  3.06451E-09  2.45846E-09  2.67318E-09  2.37992E-09  2.05138E-09  1.83860E-09  3.00045E-09  2.70072E-09  3.17251E-09
   3.00395E-09  2.86088E-09  3.26330E-09  3.11272E-09  2.92573E-09  3.27600E-09  3.01531E-09  3.36273E-09  4.79262E-09  5.38824E-09
   5.09468E-09  5.21415E-09  5.04814E-09  5.16808E-09  5.64993E-09  5.50284E-09  6.51659E-09  5.72598E-09  5.03385E-09  5.05836E-09
   4.88544E-09  4.78859E-09  4.13112E-09  4.37966E-09  4.08093E-09  4.42233E-09  4.35533E-09  4.20611E-09  4.20655E-09  3.92406E-09
   4.24859E-09  4.67483E-09  4.02344E-09  4.21731E-09  4.22248E-09  4.38051E-09  5.27176E-09  6.61161E-09  7.56724E-09  1.22025E-08
   1.59507E-08  1.77649E-08  1.69036E-08  1.58064E-08  1.44607E-08  1.37570E-08  1.25419E-08  1.12560E-08  1.06363E-08  1.00476E-08
   9.38785E-09  8.55606E-09  7.74649E-09  7.16497E-09  6.41878E-09  5.78440E-09  4.63553E-09  3.14233E-09  2.97853E-09  2.15511E-09
   8.27416E-10 -3.03706E-10 -1.93786E-09 -3.51307E-09 -4.64741E-09 -5.23022E-09 -6.82642E-09 -7.99743E-09 -8.49297E-09 -9.47904E-09
  -9.44531E-09 -1.01236E-08 -1.00844E-08 -9.87382E-09 -9.19812E-09 -8.45207E-09 -7.64094E-09 -7.11703E-09 -5.28141E-09 -4.86232E-09
  -3.86097E-09 -2.48084E-09 -2.24841E-09 -2.04307E-09 -1.51957E-09 -1.39552E-09 -1.41063E-09 -1.45571E-09 -1.98989E-09 -2.43617E-09
  -1.73006E-09 -1.37579E-09 -9.93659E-10 -6.17815E-10 -6.97357E-10 -1.05281E-09 -1.16099E-09 -1.07914E-09 -6.47504E-10 -1.16780E-09
  -1.10797E-09 -9.06817E-10 -1.26890E-09 -9.53941E-10 -9.88750E-10 -4.16368E-10 -7.42632E-10 -8.45047E-10 -6.47700E-10 -7.92336E-10
  -2.26250E-10 -9.53700E-10 -1.25347E-09 -1.01903E-09 -4.96390E-10 -1.48322E-09 -1.03015E-09 -9.22333E-10 -6.19533E-10 -1.13071E-09
  -6.31617E-10 -4.48145E-10  2.81729E-10 -3.21254E-10  6.48931E-10  3.26992E-11  5.00655E-11 -4.62353E-10  1.81218E-10 -9.04693E-10
  -9.18593E-10 -1.11306E-09 -1.24624E-09 -1.63067E-09 -1.47721E-09 -1.66078E-09 -1.64674E-09 -1.58294E-09 -1.69143E-09 -8.86295E-10
  -1.05688E-09 -4.49431E-10 -6.77870E-10 -6.23909E-11 -3.49411E-10  3.80518E-10  5.28546E-10 -9.02962E-11  2.11665E-10  2.48855E-10
   2.75868E-10  2.44552E-10  2.93837E-10 -1.58603E-10  9.50395E-11 -2.57286E-10 -2.40571E-10 -2.20622E-10  2.21987E-10 -7.40655E-10
  -5.08690E-10 -5.77885E-10 -7.27758E-10 -6.08208E-10 -8.01831E-10 -6.41051E-10 -7.60464E-10 -7.83586E-10 -1.37352E-09 -9.12230E-10
  -1.17691E-09 -1.40860E-09 -9.39153E-10 -1.37452E-09 -1.08158E-09 -1.35466E-09 -1.06581E-09 -1.62003E-09 -1.71556E-09 -9.70757E-10
  -1.07648E-09 -1.79502E-09 -7.33327E-10 -1.82003E-09 -1.91936E-09 -1.47323E-09 -1.70122E-09 -1.81125E-09 -1.61631E-09 -1.62923E-09
  -1.32025E-09 -1.23326E-09 -1.53879E-09 -2.34400E-09 -1.48289E-09 -2.16125E-09 -1.38182E-09 -1.63955E-09 -2.09502E-09 -1.68647E-09
  -1.89821E-09 -1.72448E-09 -1.61082E-09 -2.12948E-09 -1.83864E-09 -1.90933E-09 -1.56176E-09 -2.77698E-09 -1.47077E-09 -1.92493E-09
  -2.25638E-09 -2.26108E-09 -2.00836E-09 -1.71539E-09 -2.40875E-09 -2.13289E-09 -2.07540E-09 -1.90134E-09 -2.27262E-09 -2.25827E-09
  -2.54905E-09 -2.18761E-09 -2.04499E-09 -2.39379E-09 -2.03982E-09 -2.33754E-09 -2.75956E-09 -2.30855E-09 -1.53297E-09 -1.87966E-09
  -2.13803E-09 -2.24076E-09 -2.60909E-09
 NY points of the fit to the data follow
   1.13172E-08  1.07466E-08  1.03536E-08  1.02219E-08  1.02182E-08  1.01269E-08  9.86370E-09  9.56368E-09  9.54745E-09  9.82736E-09
   9.96538E-09  1.01082E-08  1.02962E-08  1.01854E-08  1.00840E-08  9.93030E-09  9.84543E-09  9.64521E-09  8.97170E-09  8.04732E-09
   7.65186E-09  7.72839E-09  8.03234E-09  8.50292E-09  9.02119E-09  9.53106E-09  9.99357E-09  1.02210E-08  1.03032E-08  1.01193E-08
   9.60420E-09  8.79910E-09  7.96922E-09  7.28961E-09  6.73800E-09  6.18855E-09  5.66705E-09  5.31986E-09  5.10737E-09  4.94550E-09
   4.76477E-09  4.49088E-09  4.13823E-09  3.90750E-09  3.87648E-09  3.89068E-09  3.92358E-09  3.96843E-09  4.03445E-09  4.12381E-09
   4.24173E-09  4.39331E-09  4.59626E-09  4.87637E-09  5.35224E-09  6.09654E-09  6.92121E-09  7.84486E-09  8.88458E-09  9.82024E-09
   1.05374E-08  1.10346E-08  1.11939E-08  1.09381E-08  1.02772E-08  9.33159E-09  8.41839E-09  7.62425E-09  6.55054E-09  5.73341E-09
   5.51483E-09  5.57264E-09  5.79116E-09  6.31069E-09  7.05859E-09  8.01033E-09  9.00958E-09  1.00490E-08  1.09866E-08  1.16427E-08
   1.19247E-08  1.17508E-08  1.11021E-08  1.04087E-08  9.64959E-09  8.49705E-09  7.34231E-09  6.45404E-09  5.62886E-09  5.11544E-09
   4.81667E-09  4.61781E-09  4.47261E-09  4.36182E-09  4.26993E-09  4.19561E-09  4.13562E-09  4.08437E-09  4.03837E-09  3.99641E-09
   3.96329E-09  3.93498E-09  3.90730E-09  3.88127E-09  3.85807E-09  3.83691E-09  3.81696E-09  3.79782E-09  3.77913E-09  3.76072E-09
   3.74240E-09  3.72402E-09  3.70543E-09  3.68651E-09  3.66714E-09  3.64723E-09  3.62669E-09  3.60545E-09  3.58344E-09  3.56059E-09
   3.53683E-09  3.51212E-09  3.48643E-09  3.45975E-09  3.43210E-09  3.40348E-09  3.37390E-09  3.34339E-09  3.31195E-09  3.27961E-09
   3.24639E-09  3.21230E-09  3.17737E-09  3.14162E-09  3.10509E-09  3.06780E-09  3.02977E-09  2.99105E-09  2.95167E-09  2.91167E-09
   2.87108E-09  2.82996E-09  2.78834E-09  2.74630E-09  2.70387E-09  2.66112E-09  2.61814E-09  2.57501E-09  2.53183E-09  2.48871E-09
   2.44580E-09  2.40325E-09  2.36129E-09  2.32019E-09  2.28027E-09  2.24198E-09  2.20592E-09  2.17291E-09  2.14409E-09  2.12119E-09
   2.10681E-09  2.10517E-09  2.12353E-09  2.17565E-09  2.29119E-09  2.54934E-09  3.25674E-09  5.54536E-09  8.91728E-09  1.25908E-08
   1.56703E-08  1.74041E-08  1.77044E-08  1.71222E-08  1.62132E-08  1.49249E-08  1.25559E-08  8.57096E-09  4.06623E-09  2.26515E-09
   1.65087E-09  1.33511E-09  1.13312E-09  9.86120E-10  8.69767E-10  7.72197E-10  6.86959E-10  6.10256E-10  5.39727E-10  4.73829E-10
   4.11507E-10  3.52043E-10  2.94903E-10  2.39718E-10  1.86194E-10  1.34115E-10  8.33279E-11  3.37039E-11 -1.48590E-11 -6.24302E-11
  -1.09071E-10 -1.54836E-10 -1.99754E-10 -2.43851E-10 -2.87157E-10 -3.29683E-10 -3.71446E-10 -4.12441E-10 -4.52692E-10 -4.92197E-10
  -5.30956E-10 -5.68962E-10 -6.06223E-10 -6.42727E-10 -6.78486E-10 -7.13481E-10 -7.47705E-10 -7.81158E-10 -8.13839E-10 -8.45728E-10
  -8.76819E-10 -9.07107E-10 -9.36585E-10 -9.65248E-10 -9.93088E-10 -1.02007E-09 -1.04623E-09 -1.07152E-09 -1.09594E-09 -1.11949E-09
  -1.14214E-09 -1.16391E-09 -1.18476E-09 -1.20469E-09 -1.22370E-09 -1.24177E-09 -1.25888E-09 -1.27504E-09 -1.29023E-09 -1.30444E-09
  -1.31765E-09 -1.32986E-09 -1.34105E-09 -1.35125E-09 -1.36048E-09 -1.36877E-09 -1.37615E-09 -1.38265E-09 -1.38830E-09 -1.39313E-09
  -1.39718E-09 -1.40046E-09 -1.40301E-09 -1.40486E-09 -1.40604E-09 -1.40657E-09 -1.40650E-09 -1.40584E-09 -1.40463E-09 -1.40289E-09
  -1.40066E-09 -1.39797E-09 -1.39484E-09 -1.39131E-09 -1.38740E-09 -1.38315E-09 -1.37858E-09 -1.37372E-09 -1.36861E-09 -1.36326E-09
  -1.35772E-09 -1.35201E-09 -1.34616E-09 -1.34020E-09 -1.33416E-09 -1.32806E-09 -1.32195E-09 -1.31584E-09 -1.30977E-09 -1.30377E-09
  -1.29787E-09 -1.29209E-09 -1.28646E-09 -1.28102E-09 -1.27580E-09 -1.27082E-09 -1.26611E-09 -1.26170E-09 -1.25762E-09 -1.25391E-09
  -1.25059E-09 -1.24769E-09 -1.24523E-09 -1.24326E-09 -1.24180E-09 -1.24087E-09 -1.24051E-09 -1.24075E-09 -1.24161E-09 -1.24313E-09
  -1.24534E-09 -1.24826E-09 -1.25192E-09 -1.25634E-09 -1.26150E-09 -1.26738E-09 -1.27397E-09 -1.28124E-09 -1.28918E-09 -1.29778E-09
  -1.30702E-09 -1.31686E-09 -1.32731E-09 -1.33834E-09 -1.34994E-09 -1.36208E-09 -1.37475E-09 -1.38794E-09 -1.40161E-09 -1.41577E-09
  -1.43038E-09 -1.44544E-09 -1.46092E-09 -1.47681E-09 -1.49308E-09 -1.50973E-09 -1.52672E-09 -1.54406E-09 -1.56172E-09 -1.57967E-09
  -1.59791E-09 -1.61642E-09 -1.63517E-09 -1.65415E-09 -1.67335E-09 -1.69274E-09 -1.71231E-09 -1.73204E-09 -1.75191E-09 -1.77191E-09
  -1.79202E-09 -1.81221E-09 -1.83248E-09 -1.85280E-09 -1.87317E-09 -1.89355E-09 -1.91393E-09 -1.93430E-09 -1.95463E-09 -1.97491E-09
  -1.99513E-09 -2.01526E-09 -2.03529E-09 -2.05520E-09 -2.07496E-09 -2.09457E-09 -2.11401E-09 -2.13325E-09 -2.15229E-09 -2.17111E-09
  -2.18967E-09 -2.20798E-09 -2.22601E-09
 NY background values follow
     1.896E-09    1.906E-09    1.917E-09    1.928E-09    1.938E-09    1.948E-09    1.959E-09    1.969E-09    1.979E-09    1.989E-09
     1.999E-09    2.009E-09    2.019E-09    2.029E-09    2.039E-09    2.049E-09    2.059E-09    2.068E-09    2.078E-09    2.088E-09
     2.097E-09    2.107E-09    2.117E-09    2.126E-09    2.136E-09    2.146E-09    2.156E-09    2.165E-09    2.175E-09    2.185E-09
     2.195E-09    2.204E-09    2.214E-09    2.224E-09    2.234E-09    2.244E-09    2.255E-09    2.265E-09    2.275E-09    2.285E-09
     2.296E-09    2.306E-09    2.317E-09    2.328E-09    2.339E-09    2.349E-09    2.361E-09    2.372E-09    2.383E-09    2.394E-09
     2.406E-09    2.418E-09    2.430E-09    2.441E-09    2.454E-09    2.466E-09    2.478E-09    2.491E-09    2.504E-09    2.517E-09
     2.530E-09    2.543E-09    2.557E-09    2.570E-09    2.584E-09    2.598E-09    2.612E-09    2.626E-09    2.640E-09    2.654E-09
     2.668E-09    2.682E-09    2.696E-09    2.710E-09    2.723E-09    2.737E-09    2.750E-09    2.763E-09    2.776E-09    2.789E-09
     2.801E-09    2.813E-09    2.825E-09    2.836E-09    2.847E-09    2.858E-09    2.868E-09    2.877E-09    2.887E-09    2.895E-09
     2.904E-09    2.911E-09    2.918E-09    2.925E-09    2.931E-09    2.936E-09    2.940E-09    2.944E-09    2.947E-09    2.949E-09
     2.951E-09    2.952E-09    2.952E-09    2.951E-09    2.949E-09    2.946E-09    2.943E-09    2.938E-09    2.932E-09    2.926E-09
     2.918E-09    2.910E-09    2.900E-09    2.889E-09    2.877E-09    2.864E-09    2.850E-09    2.834E-09    2.818E-09    2.800E-09
     2.781E-09    2.760E-09    2.738E-09    2.715E-09    2.691E-09    2.665E-09    2.638E-09    2.610E-09    2.581E-09    2.551E-09
     2.520E-09    2.487E-09    2.454E-09    2.420E-09    2.384E-09    2.348E-09    2.311E-09    2.272E-09    2.233E-09    2.193E-09
     2.153E-09    2.111E-09    2.069E-09    2.026E-09    1.982E-09    1.938E-09    1.892E-09    1.847E-09    1.800E-09    1.753E-09
     1.706E-09    1.658E-09    1.610E-09    1.561E-09    1.511E-09    1.461E-09    1.411E-09    1.361E-09    1.310E-09    1.259E-09
     1.207E-09    1.155E-09    1.103E-09    1.051E-09    9.990E-10    9.466E-10    8.940E-10    8.413E-10    7.886E-10    7.358E-10
     6.830E-10    6.303E-10    5.776E-10    5.249E-10    4.724E-10    4.200E-10    3.677E-10    3.156E-10    2.637E-10    2.121E-10
     1.607E-10    1.096E-10    5.886E-11    8.417E-12   -4.169E-11   -9.145E-11   -1.408E-10   -1.899E-10   -2.385E-10   -2.867E-10
    -3.346E-10   -3.820E-10   -4.290E-10   -4.755E-10   -5.216E-10   -5.672E-10   -6.124E-10   -6.570E-10   -7.012E-10   -7.448E-10
    -7.880E-10   -8.305E-10   -8.726E-10   -9.141E-10   -9.550E-10   -9.953E-10   -1.035E-09   -1.074E-09   -1.113E-09   -1.151E-09
    -1.188E-09   -1.225E-09   -1.260E-09   -1.296E-09   -1.330E-09   -1.364E-09   -1.397E-09   -1.430E-09   -1.462E-09   -1.493E-09
    -1.523E-09   -1.552E-09   -1.581E-09   -1.609E-09   -1.636E-09   -1.662E-09   -1.688E-09   -1.713E-09   -1.736E-09   -1.759E-09
    -1.781E-09   -1.803E-09   -1.823E-09   -1.842E-09   -1.861E-09   -1.879E-09   -1.895E-09   -1.911E-09   -1.926E-09   -1.939E-09
    -1.952E-09   -1.964E-09   -1.975E-09   -1.984E-09   -1.993E-09   -2.001E-09   -2.008E-09   -2.014E-09   -2.020E-09   -2.024E-09
    -2.028E-09   -2.031E-09   -2.033E-09   -2.034E-09   -2.035E-09   -2.035E-09   -2.035E-09   -2.034E-09   -2.033E-09   -2.031E-09
    -2.028E-09   -2.025E-09   -2.022E-09   -2.018E-09   -2.014E-09   -2.009E-09   -2.004E-09   -1.999E-09   -1.994E-09   -1.988E-09
    -1.982E-09   -1.976E-09   -1.970E-09   -1.964E-09   -1.957E-09   -1.951E-09   -1.945E-09   -1.938E-09   -1.932E-09   -1.926E-09
    -1.920E-09   -1.913E-09   -1.908E-09   -1.902E-09   -1.896E-09   -1.891E-09   -1.886E-09   -1.881E-09   -1.877E-09   -1.873E-09
    -1.870E-09   -1.866E-09   -1.864E-09   -1.862E-09   -1.860E-09   -1.859E-09   -1.858E-09   -1.858E-09   -1.859E-09   -1.860E-09
    -1.862E-09   -1.864E-09   -1.868E-09   -1.872E-09   -1.877E-09   -1.883E-09   -1.889E-09   -1.896E-09   -1.904E-09   -1.912E-09
    -1.921E-09   -1.930E-09   -1.941E-09   -1.951E-09   -1.963E-09   -1.975E-09   -1.987E-09   -2.000E-09   -2.013E-09   -2.027E-09
    -2.042E-09   -2.056E-09   -2.072E-09   -2.087E-09   -2.103E-09   -2.120E-09   -2.136E-09   -2.154E-09   -2.171E-09   -2.189E-09
    -2.207E-09   -2.225E-09   -2.243E-09   -2.262E-09   -2.281E-09   -2.300E-09   -2.319E-09   -2.339E-09   -2.358E-09   -2.378E-09
    -2.398E-09   -2.418E-09   -2.438E-09   -2.458E-09   -2.478E-09   -2.498E-09   -2.518E-09   -2.538E-09   -2.558E-09   -2.578E-09
    -2.598E-09   -2.618E-09   -2.638E-09   -2.657E-09   -2.677E-09   -2.696E-09   -2.715E-09   -2.734E-09   -2.753E-09   -2.771E-09
    -2.790E-09   -2.808E-09   -2.825E-09
 Cr       Conc. = 2.24E-10
   2.70997E-09  2.57472E-09  2.34264E-09  2.09752E-09  2.03500E-09  2.01890E-09  2.01598E-09  2.01845E-09  2.02361E-09  2.03029E-09
   2.03792E-09  2.04616E-09  2.05483E-09  2.06382E-09  2.07305E-09  2.08248E-09  2.09210E-09  2.10190E-09  2.11187E-09  2.12205E-09
   2.13245E-09  2.14315E-09  2.15420E-09  2.16574E-09  2.17794E-09  2.19108E-09  2.20564E-09  2.22251E-09  2.24345E-09  2.27270E-09
   2.32377E-09  2.46364E-09  2.72657E-09  3.04284E-09  3.34385E-09  3.55782E-09  3.64950E-09  3.64371E-09  3.59259E-09  3.51790E-09
   3.38265E-09  3.12632E-09  2.76715E-09  2.51453E-09  2.45341E-09  2.43380E-09  2.42827E-09  2.42916E-09  2.43354E-09  2.44003E-09
   2.44791E-09  2.45679E-09  2.46641E-09  2.47661E-09  2.48729E-09  2.49837E-09  2.50981E-09  2.52157E-09  2.53362E-09  2.54595E-09
   2.55854E-09  2.57139E-09  2.58446E-09  2.59773E-09  2.61116E-09  2.62473E-09  2.63840E-09  2.65214E-09  2.66593E-09  2.67973E-09
   2.69352E-09  2.70728E-09  2.72097E-09  2.73458E-09  2.74806E-09  2.76141E-09  2.77458E-09  2.78757E-09  2.80032E-09  2.81284E-09
   2.82509E-09  2.83703E-09  2.84866E-09  2.85994E-09  2.87085E-09  2.88135E-09  2.89144E-09  2.90107E-09  2.91023E-09  2.91890E-09
   2.92703E-09  2.93463E-09  2.94164E-09  2.94806E-09  2.95385E-09  2.95899E-09  2.96346E-09  2.96722E-09  2.97027E-09  2.97256E-09
   2.97408E-09  2.97480E-09  2.97469E-09  2.97373E-09  2.97190E-09  2.96917E-09  2.96551E-09  2.96090E-09  2.95532E-09  2.94874E-09
   2.94113E-09  2.93247E-09  2.92274E-09  2.91191E-09  2.89995E-09  2.88684E-09  2.87256E-09  2.85708E-09  2.84038E-09  2.82243E-09
   2.80320E-09  2.78267E-09  2.76083E-09  2.73772E-09  2.71336E-09  2.68776E-09  2.66097E-09  2.63301E-09  2.60390E-09  2.57368E-09
   2.54237E-09  2.50999E-09  2.47658E-09  2.44216E-09  2.40676E-09  2.37040E-09  2.33312E-09  2.29493E-09  2.25588E-09  2.21598E-09
   2.17527E-09  2.13376E-09  2.09149E-09  2.04850E-09  2.00479E-09  1.96040E-09  1.91536E-09  1.86971E-09  1.82346E-09  1.77665E-09
   1.72931E-09  1.68146E-09  1.63314E-09  1.58439E-09  1.53524E-09  1.48572E-09  1.43589E-09  1.38578E-09  1.33546E-09  1.28502E-09
   1.23453E-09  1.18417E-09  1.13418E-09  1.08503E-09  1.03775E-09  9.95238E-10  9.69996E-10  9.94754E-10  1.04552E-09  1.10015E-09
   1.13225E-09  1.12246E-09  1.07289E-09  1.00206E-09  9.24095E-10  8.32882E-10  7.05518E-10  5.31372E-10  3.56487E-10  2.70968E-10
   2.06722E-10  1.49000E-10  9.42230E-11  4.11269E-11 -1.08564E-11 -6.19988E-11 -1.12452E-10 -1.62309E-10 -2.11616E-10 -2.60403E-10
  -3.08695E-10 -3.56491E-10 -4.03804E-10 -4.50623E-10 -4.96953E-10 -5.42793E-10 -5.88125E-10 -6.32947E-10 -6.77255E-10 -7.21032E-10
  -7.64272E-10 -8.06972E-10 -8.49116E-10 -8.90689E-10 -9.31690E-10 -9.72104E-10 -1.01192E-09 -1.05112E-09 -1.08971E-09 -1.12767E-09
  -1.16499E-09 -1.20165E-09 -1.23765E-09 -1.27297E-09 -1.30761E-09 -1.34155E-09 -1.37478E-09 -1.40729E-09 -1.43907E-09 -1.47011E-09
  -1.50039E-09 -1.52990E-09 -1.55864E-09 -1.58659E-09 -1.61375E-09 -1.64008E-09 -1.66560E-09 -1.69029E-09 -1.71413E-09 -1.73710E-09
  -1.75922E-09 -1.78045E-09 -1.80079E-09 -1.82023E-09 -1.83875E-09 -1.85634E-09 -1.87300E-09 -1.88872E-09 -1.90347E-09 -1.91725E-09
  -1.93005E-09 -1.94185E-09 -1.95265E-09 -1.96246E-09 -1.97130E-09 -1.97922E-09 -1.98623E-09 -1.99238E-09 -1.99767E-09 -2.00216E-09
  -2.00586E-09 -2.00880E-09 -2.01102E-09 -2.01255E-09 -2.01340E-09 -2.01362E-09 -2.01323E-09 -2.01226E-09 -2.01075E-09 -2.00871E-09
  -2.00618E-09 -2.00319E-09 -1.99977E-09 -1.99595E-09 -1.99175E-09 -1.98722E-09 -1.98236E-09 -1.97723E-09 -1.97183E-09 -1.96621E-09
  -1.96040E-09 -1.95442E-09 -1.94830E-09 -1.94207E-09 -1.93576E-09 -1.92940E-09 -1.92303E-09 -1.91666E-09 -1.91033E-09 -1.90407E-09
  -1.89791E-09 -1.89187E-09 -1.88599E-09 -1.88030E-09 -1.87482E-09 -1.86958E-09 -1.86462E-09 -1.85996E-09 -1.85564E-09 -1.85167E-09
  -1.84810E-09 -1.84495E-09 -1.84225E-09 -1.84003E-09 -1.83831E-09 -1.83714E-09 -1.83653E-09 -1.83652E-09 -1.83714E-09 -1.83841E-09
  -1.84037E-09 -1.84304E-09 -1.84646E-09 -1.85063E-09 -1.85555E-09 -1.86118E-09 -1.86752E-09 -1.87455E-09 -1.88225E-09 -1.89060E-09
  -1.89958E-09 -1.90918E-09 -1.91938E-09 -1.93017E-09 -1.94151E-09 -1.95341E-09 -1.96583E-09 -1.97876E-09 -1.99219E-09 -2.00609E-09
  -2.02045E-09 -2.03526E-09 -2.05048E-09 -2.06612E-09 -2.08214E-09 -2.09853E-09 -2.11527E-09 -2.13235E-09 -2.14975E-09 -2.16744E-09
  -2.18542E-09 -2.20367E-09 -2.22216E-09 -2.24088E-09 -2.25982E-09 -2.27895E-09 -2.29825E-09 -2.31772E-09 -2.33732E-09 -2.35705E-09
  -2.37689E-09 -2.39682E-09 -2.41682E-09 -2.43687E-09 -2.45696E-09 -2.47706E-09 -2.49717E-09 -2.51726E-09 -2.53732E-09 -2.55732E-09
  -2.57725E-09 -2.59710E-09 -2.61685E-09 -2.63647E-09 -2.65594E-09 -2.67527E-09 -2.69442E-09 -2.71337E-09 -2.73212E-09 -2.75064E-09
  -2.76891E-09 -2.78692E-09 -2.80465E-09
 Gln      Conc. = 3.31E-09
   4.49456E-09  5.12554E-09  5.78566E-09  6.37119E-09  6.78564E-09  6.96461E-09  6.87014E-09  6.51823E-09  6.02057E-09  5.53931E-09
   4.81337E-09  4.15772E-09  3.73474E-09  3.23253E-09  2.98518E-09  2.85930E-09  2.78527E-09  2.73830E-09  2.70757E-09  2.68745E-09
   2.67467E-09  2.66724E-09  2.66392E-09  2.66401E-09  2.66716E-09  2.67281E-09  2.68002E-09  2.68898E-09  2.69951E-09  2.71113E-09
   2.72385E-09  2.73770E-09  2.75270E-09  2.76892E-09  2.78639E-09  2.80521E-09  2.82550E-09  2.84738E-09  2.87102E-09  2.89667E-09
   2.92469E-09  2.95549E-09  2.98972E-09  3.02801E-09  3.07105E-09  3.11992E-09  3.17587E-09  3.24028E-09  3.31662E-09  3.40961E-09
   3.52417E-09  3.67110E-09  3.86945E-09  4.15835E-09  4.64012E-09  5.39099E-09  6.21809E-09  7.14383E-09  8.18747E-09  9.14528E-09
   9.88525E-09  1.04060E-08  1.05699E-08  1.03037E-08  9.62557E-09  8.67114E-09  7.74690E-09  6.94280E-09  5.83805E-09  4.97465E-09
   4.69950E-09  4.69749E-09  4.85469E-09  5.32154E-09  6.02351E-09  6.89531E-09  7.72146E-09  8.46515E-09  9.06300E-09  9.43645E-09
   9.56125E-09  9.37583E-09  8.80823E-09  8.21156E-09  7.59222E-09  6.68837E-09  5.92207E-09  5.44522E-09  4.90493E-09  4.50147E-09
   4.25431E-09  4.08666E-09  3.96668E-09  3.87632E-09  3.80395E-09  3.74570E-09  3.69824E-09  3.65837E-09  3.62465E-09  3.59589E-09
   3.57052E-09  3.54746E-09  3.52634E-09  3.50683E-09  3.48865E-09  3.47146E-09  3.45479E-09  3.43843E-09  3.42221E-09  3.40597E-09
   3.38957E-09  3.37289E-09  3.35581E-09  3.33823E-09  3.32008E-09  3.30127E-09  3.28173E-09  3.26138E-09  3.24018E-09  3.21806E-09
   3.19496E-09  3.17085E-09  3.14568E-09  3.11948E-09  3.09224E-09  3.06399E-09  3.03472E-09  3.00447E-09  2.97324E-09  2.94105E-09
   2.90793E-09  2.87390E-09  2.83897E-09  2.80316E-09  2.76651E-09  2.72904E-09  2.69077E-09  2.65173E-09  2.61196E-09  2.57147E-09
   2.53030E-09  2.48849E-09  2.44607E-09  2.40308E-09  2.35955E-09  2.31553E-09  2.27108E-09  2.22623E-09  2.18105E-09  2.13561E-09
   2.08998E-09  2.04424E-09  1.99851E-09  1.95292E-09  1.90762E-09  1.86281E-09  1.81878E-09  1.77586E-09  1.73455E-09  1.69557E-09
   1.65996E-09  1.62942E-09  1.60674E-09  1.59704E-09  1.61082E-09  1.67392E-09  1.87275E-09  2.63119E-09  3.91229E-09  5.38527E-09
   6.69437E-09  7.50408E-09  7.71037E-09  7.49354E-09  7.10198E-09  6.58032E-09  5.68872E-09  4.15700E-09  2.24280E-09  1.20016E-09
   8.60235E-10  6.81842E-10  5.61146E-10  4.67279E-10  3.88002E-10  3.17550E-10  2.52864E-10  1.92178E-10  1.34416E-10  7.88860E-11
   2.51200E-11 -2.71880E-11 -7.82709E-11 -1.28278E-10 -1.77332E-10 -2.25522E-10 -2.72899E-10 -3.19514E-10 -3.65405E-10 -4.10589E-10
  -4.55088E-10 -4.98920E-10 -5.42087E-10 -5.84591E-10 -6.26441E-10 -6.67634E-10 -7.08170E-10 -7.48033E-10 -7.87237E-10 -8.25769E-10
  -8.63623E-10 -9.00785E-10 -9.37255E-10 -9.73018E-10 -1.00808E-09 -1.04242E-09 -1.07602E-09 -1.10889E-09 -1.14102E-09 -1.17238E-09
  -1.20298E-09 -1.23279E-09 -1.26181E-09 -1.29004E-09 -1.31747E-09 -1.34406E-09 -1.36983E-09 -1.39475E-09 -1.41882E-09 -1.44203E-09
