 LCModel (Version 6.3-1R) Copyright: S.W. Provencher.          Ref.: Magn. Reson. Med. 30:672-679 (1993).                
 onepulse 21x13_ftSpec_smooth_lcm
 26 lines in following concentration table = NCONC+1
    Conc.  %SD /Cr+PCr  Metabolite                                         
    0.000 999%   0.000 Ala                                                 
    0.000 999%   0.000 Asp                                                 
    0.000 999%   0.000 Cr                                                  
    0.000 999%   0.000 GABA                                                
    0.000 999%   0.000 Glc                                                 
 3.17E-09  13%   9.743 Gln                                                 
    0.000 999%   0.000 Glu                                                 
 1.00E-09  32%   3.079 Glyc                                                
 1.99E-10  44%   0.612 GPC                                                 
    0.000 999%   0.000 GSH                                                 
    0.000 999%   0.000 Ins                                                 
    0.000 999%   0.000 Lac                                                 
 1.17E-10 191%   0.361 NAAG                                                
 2.51E-10 113%   0.770 NAA                                                 
    0.000 999%   0.000 PCh                                                 
 3.25E-10  53%   1.000 PCr                                                 
    0.000 999%   0.000 PE                                                  
 1.24E-10 170%   0.381 Scyllo                                              
 1.64E-09  26%   5.044 Ser                                                 
 7.50E-10  79%   2.304 Tau                                                 
 1.99E-10  44%   0.612 GPC+PCh                                             
 3.68E-10  49%   1.131 NAA+NAAG                                            
 1.00E-09  32%   3.079 Ins+Glyc                                            
 3.25E-10  53%   1.000 Cr+PCr                                              
 3.17E-09  13%   9.743 Glu+Gln                                             
   6 lines in following misc. output table
  FWHM = 0.089 ppm    S/N =   4                                            
  Data shift = 0.358 ppm                                                   
  Ph: -40 deg     -24.8 deg/ppm                                            
  alphaB,S = 1.8E-01,   4.7E+01                                            
   16 spline knots.   Ns = 5(1)                                            
  (11) 4 infls.   ( 9) 1 extrs.                                            
  363 points on ppm-axis = NY
      4.250000     4.238821     4.227641     4.216462     4.205282     4.194103     4.182923     4.171744     4.160564     4.149385
      4.138206     4.127026     4.115847     4.104667     4.093488     4.082308     4.071129     4.059949     4.048770     4.037591
      4.026411     4.015232     4.004052     3.992873     3.981693     3.970514     3.959334     3.948155     3.936975     3.925796
      3.914617     3.903437     3.892258     3.881078     3.869899     3.858719     3.847540     3.836360     3.825181     3.814002
      3.802822     3.791643     3.780463     3.769284     3.758104     3.746925     3.735745     3.724566     3.713387     3.702207
      3.691028     3.679848     3.668669     3.657489     3.646310     3.635130     3.623951     3.612772     3.601592     3.590413
      3.579233     3.568054     3.556874     3.545695     3.534515     3.523336     3.512156     3.500977     3.489798     3.478618
      3.467439     3.456259     3.445080     3.433900     3.422721     3.411541     3.400362     3.389183     3.378003     3.366824
      3.355644     3.344465     3.333285     3.322106     3.310926     3.299747     3.288568     3.277388     3.266209     3.255029
      3.243850     3.232670     3.221491     3.210311     3.199132     3.187953     3.176773     3.165594     3.154414     3.143235
      3.132055     3.120876     3.109696     3.098517     3.087337     3.076158     3.064979     3.053799     3.042620     3.031440
      3.020261     3.009081     2.997902     2.986722     2.975543     2.964364     2.953184     2.942005     2.930825     2.919646
      2.908466     2.897287     2.886107     2.874928     2.863749     2.852569     2.841390     2.830210     2.819031     2.807851
      2.796672     2.785492     2.774313     2.763134     2.751954     2.740775     2.729595     2.718416     2.707236     2.696057
      2.684877     2.673698     2.662519     2.651339     2.640160     2.628980     2.617801     2.606621     2.595442     2.584262
      2.573083     2.561903     2.550724     2.539545     2.528365     2.517186     2.506006     2.494827     2.483647     2.472468
      2.461288     2.450109     2.438930     2.427750     2.416571     2.405391     2.394212     2.383032     2.371853     2.360673
      2.349494     2.338315     2.327135     2.315956     2.304776     2.293597     2.282417     2.271238     2.260058     2.248879
      2.237700     2.226520     2.215341     2.204161     2.192982     2.181802     2.170623     2.159443     2.148264     2.137084
      2.125905     2.114726     2.103546     2.092367     2.081187     2.070008     2.058828     2.047649     2.036469     2.025290
      2.014111     2.002931     1.991752     1.980572     1.969393     1.958213     1.947034     1.935854     1.924675     1.913496
      1.902316     1.891137     1.879957     1.868778     1.857598     1.846419     1.835239     1.824060     1.812881     1.801701
      1.790522     1.779342     1.768163     1.756983     1.745804     1.734624     1.723445     1.712265     1.701086     1.689907
      1.678727     1.667548     1.656368     1.645189     1.634009     1.622830     1.611650     1.600471     1.589292     1.578112
      1.566933     1.555753     1.544574     1.533394     1.522215     1.511035     1.499856     1.488677     1.477497     1.466318
      1.455138     1.443959     1.432779     1.421600     1.410420     1.399241     1.388062     1.376882     1.365703     1.354523
      1.343344     1.332164     1.320985     1.309805     1.298626     1.287446     1.276267     1.265088     1.253908     1.242729
      1.231549     1.220370     1.209190     1.198011     1.186831     1.175652     1.164473     1.153293     1.142114     1.130934
      1.119755     1.108575     1.097396     1.086216     1.075037     1.063858     1.052678     1.041499     1.030319     1.019140
      1.007960     0.996781     0.985601     0.974422     0.963243     0.952063     0.940884     0.929704     0.918525     0.907345
      0.896166     0.884986     0.873807     0.862628     0.851448     0.840269     0.829089     0.817910     0.806730     0.795551
      0.784371     0.773192     0.762012     0.750833     0.739654     0.728474     0.717295     0.706115     0.694936     0.683756
      0.672577     0.661397     0.650218     0.639039     0.627859     0.616680     0.605500     0.594321     0.583141     0.571962
      0.560782     0.549603     0.538424     0.527244     0.516065     0.504885     0.493706     0.482526     0.471347     0.460167
      0.448988     0.437809     0.426629     0.415450     0.404270     0.393091     0.381911     0.370732     0.359552     0.348373
      0.337193     0.326014     0.314835     0.303655     0.292476     0.281296     0.270117     0.258937     0.247758     0.236578
      0.225399     0.214220     0.203040
 NY phased data points follow
   1.68583E-08  1.35751E-08  1.19353E-08  1.01745E-08  1.04070E-08  9.20504E-09  9.67331E-09  9.02918E-09  1.01449E-08  9.75025E-09
   1.07583E-08  1.03588E-08  1.09796E-08  1.07455E-08  1.16770E-08  1.01921E-08  9.69379E-09  9.06039E-09  9.56447E-09  8.21700E-09
   8.95572E-09  8.18233E-09  9.50227E-09  8.97299E-09  9.57011E-09  9.08983E-09  9.22307E-09  7.80893E-09  9.01688E-09  9.04810E-09
   1.08082E-08  1.10365E-08  1.05909E-08  9.12329E-09  7.68079E-09  5.78431E-09  5.17270E-09  4.39310E-09  4.96141E-09  4.59100E-09
   4.66910E-09  4.22416E-09  5.02547E-09  3.84510E-09  3.92563E-09  3.19874E-09  3.50328E-09  3.71523E-09  4.33425E-09  4.58231E-09
   4.64486E-09  4.07093E-09  5.60769E-09  4.32956E-09  3.97557E-09  3.92773E-09  4.97755E-09  5.20400E-09  6.55507E-09  7.47022E-09
   9.24329E-09  1.09926E-08  1.35107E-08  1.36874E-08  1.21387E-08  9.33512E-09  6.83698E-09  5.25390E-09  4.33779E-09  3.97031E-09
   3.99778E-09  3.21044E-09  3.16214E-09  3.38997E-09  4.38961E-09  4.43091E-09  6.51982E-09  8.03141E-09  1.12215E-08  1.41677E-08
   1.48217E-08  1.17887E-08  9.93996E-09  8.08440E-09  7.28603E-09  6.54517E-09  6.48408E-09  5.50273E-09  5.28811E-09  5.09371E-09
   4.61596E-09  3.91829E-09  4.25045E-09  3.34122E-09  2.87750E-09  2.99492E-09  2.68961E-09  2.51499E-09  2.45294E-09  2.05877E-09
   2.28296E-09  3.33713E-09  3.06666E-09  2.71377E-09  2.57689E-09  3.04474E-09  2.26626E-09  1.98097E-09  2.13731E-09  8.95404E-10
   1.35948E-09  8.69777E-10  2.28146E-09  2.06421E-09  3.06367E-09  2.30201E-09  3.37350E-09  3.45224E-09  3.00467E-09  3.12029E-09
   3.12824E-09  2.75015E-09  2.05495E-09  1.48504E-09  1.65194E-09  1.60043E-09  1.36735E-09  1.24385E-09  2.42484E-09  1.92989E-09
   2.29817E-09  2.38738E-09  2.06764E-09  2.58791E-09  2.59711E-09  2.20409E-09  2.65117E-09  2.14588E-09  3.02618E-09  4.45621E-09
   5.01371E-09  4.49071E-09  4.04660E-09  4.30420E-09  4.23932E-09  5.01588E-09  4.41577E-09  5.72880E-09  4.17070E-09  4.09547E-09
   4.03183E-09  3.73025E-09  3.58102E-09  3.12979E-09  3.55735E-09  3.20652E-09  3.48692E-09  3.71174E-09  3.44380E-09  3.71843E-09
   3.64949E-09  3.98307E-09  4.17221E-09  3.63515E-09  3.97503E-09  4.35950E-09  4.87413E-09  6.17784E-09  7.16038E-09  8.92647E-09
   1.41276E-08  1.72105E-08  1.74389E-08  1.48709E-08  1.28388E-08  1.13670E-08  1.04107E-08  8.80615E-09  7.66339E-09  7.08463E-09
   6.34024E-09  5.60361E-09  5.05148E-09  4.18968E-09  3.60453E-09  2.95449E-09  2.50616E-09  1.32328E-09 -1.36905E-10  5.52333E-11
  -7.54816E-10 -1.94152E-09 -2.77808E-09 -4.24994E-09 -5.87643E-09 -6.17936E-09 -6.83429E-09 -8.44678E-09 -9.20517E-09 -9.48404E-09
  -1.03029E-08 -1.00625E-08 -1.04340E-08 -9.95407E-09 -9.53454E-09 -8.72976E-09 -8.10286E-09 -7.32062E-09 -6.31815E-09 -4.65907E-09
  -4.43996E-09 -3.35896E-09 -2.17726E-09 -2.21222E-09 -1.59979E-09 -1.49389E-09 -9.41502E-10 -1.21776E-09 -1.39588E-09 -1.84405E-09
  -2.06414E-09 -1.27168E-09 -1.17810E-09 -9.15720E-10 -7.92870E-10 -7.59285E-10 -1.12319E-09 -9.14113E-10 -7.11348E-10 -6.78345E-10
  -9.27836E-10 -1.00057E-09 -1.11620E-09 -1.16098E-09 -1.00490E-09 -1.03349E-09 -3.76796E-10 -7.21927E-10 -4.96578E-10 -5.80104E-10
  -5.75425E-10 -1.93988E-10 -1.06784E-09 -1.22339E-09 -7.03357E-10 -4.92844E-10 -1.52540E-09 -9.30167E-10 -7.07380E-10 -5.31178E-10
  -6.15012E-10 -2.37989E-10  4.95535E-11  5.85778E-10 -5.04200E-11  7.42797E-10 -2.65711E-10 -2.13244E-10 -5.79962E-10 -2.11389E-10
  -1.10043E-09 -7.93353E-10 -1.48820E-09 -1.21734E-09 -1.53280E-09 -9.60231E-10 -1.51444E-09 -1.25665E-09 -1.12698E-09 -8.41474E-10
  -1.55257E-10 -2.41853E-10  3.42145E-10  1.47584E-10  6.24023E-10  1.32670E-10  8.94635E-10  5.91357E-10  2.65239E-10  3.78928E-10
   3.66745E-10  4.24956E-10  2.41019E-10  9.24075E-11 -2.74675E-10 -1.04774E-10 -4.70182E-10 -5.82541E-10 -1.78530E-10 -9.12576E-13
  -9.99434E-10 -5.15225E-10 -7.85939E-10 -5.83202E-10 -6.90083E-10 -7.24996E-10 -5.49281E-10 -7.76320E-10 -9.90217E-10 -1.08166E-09
  -6.12293E-10 -1.24563E-09 -7.95500E-10 -9.29974E-10 -1.00999E-09 -8.48319E-10 -1.15424E-09 -5.98197E-10 -1.43108E-09 -1.18524E-09
  -3.60807E-10 -1.14531E-09 -1.11498E-09 -5.32140E-10 -1.81485E-09 -1.25771E-09 -8.96934E-10 -9.73619E-10 -1.06199E-09 -1.01166E-09
  -9.88787E-10 -6.96551E-10 -7.72500E-10 -1.23188E-09 -1.47556E-09 -8.02177E-10 -1.37186E-09 -5.20897E-10 -1.10848E-09 -1.09310E-09
  -7.64957E-10 -1.09149E-09 -8.90372E-10 -8.93223E-10 -1.20182E-09 -9.37310E-10 -1.00113E-09 -1.00724E-09 -1.81500E-09 -3.90819E-10
  -1.15928E-09 -1.12706E-09 -1.50651E-09 -6.10401E-10 -7.17778E-10 -1.47504E-09 -1.01410E-09 -1.09507E-09 -9.85160E-10 -1.33612E-09
  -1.23413E-09 -1.36251E-09 -8.61296E-10 -9.47347E-10 -1.25876E-09 -9.28163E-10 -1.23744E-09 -1.24640E-09 -6.04821E-10 -2.40472E-10
  -1.03050E-09 -1.10806E-09 -1.06038E-09
 NY points of the fit to the data follow
   1.35285E-08  1.26121E-08  1.17548E-08  1.16065E-08  1.14981E-08  1.11529E-08  1.06768E-08  1.02256E-08  1.01771E-08  1.03606E-08
   1.05396E-08  1.06062E-08  1.08369E-08  1.05807E-08  1.01633E-08  9.77888E-09  9.58546E-09  9.42636E-09  8.98428E-09  8.27519E-09
   8.13720E-09  8.20195E-09  8.28342E-09  8.47572E-09  8.95358E-09  9.53148E-09  1.01606E-08  1.04772E-08  1.03938E-08  9.96708E-09
   9.33711E-09  8.77530E-09  8.36439E-09  7.78298E-09  7.02353E-09  6.25748E-09  5.94004E-09  5.64653E-09  5.35729E-09  5.11019E-09
   4.83654E-09  4.41284E-09  3.88904E-09  3.64910E-09  3.60684E-09  3.60999E-09  3.62798E-09  3.64980E-09  3.68570E-09  3.73943E-09
   3.82576E-09  3.94761E-09  4.11673E-09  4.33630E-09  4.68344E-09  5.28795E-09  6.02693E-09  6.85003E-09  7.92382E-09  8.92968E-09
   9.65582E-09  1.02077E-08  1.04999E-08  1.03559E-08  9.75791E-09  8.80730E-09  7.78307E-09  6.97322E-09  5.99873E-09  4.93471E-09
   4.51842E-09  4.48546E-09  4.57207E-09  4.92368E-09  5.50982E-09  6.41703E-09  7.41216E-09  8.49986E-09  9.58978E-09  1.05074E-08
   1.10928E-08  1.11889E-08  1.06576E-08  9.84611E-09  9.05785E-09  7.99829E-09  6.71221E-09  5.68483E-09  4.71466E-09  4.08940E-09
   3.74306E-09  3.52072E-09  3.36357E-09  3.24734E-09  3.15420E-09  3.07997E-09  3.02207E-09  2.97522E-09  2.93514E-09  2.90056E-09
   2.87501E-09  2.85533E-09  2.83812E-09  2.82391E-09  2.81343E-09  2.80615E-09  2.80132E-09  2.79856E-09  2.79759E-09  2.79826E-09
   2.80041E-09  2.80389E-09  2.80859E-09  2.81435E-09  2.82098E-09  2.82831E-09  2.83617E-09  2.84440E-09  2.85286E-09  2.86139E-09
   2.86986E-09  2.87813E-09  2.88606E-09  2.89355E-09  2.90044E-09  2.90663E-09  2.91198E-09  2.91639E-09  2.91973E-09  2.92189E-09
   2.92276E-09  2.92221E-09  2.92015E-09  2.91646E-09  2.91103E-09  2.90376E-09  2.89454E-09  2.88327E-09  2.86986E-09  2.85419E-09
   2.83617E-09  2.81578E-09  2.79299E-09  2.76778E-09  2.74014E-09  2.71007E-09  2.67758E-09  2.64267E-09  2.60537E-09  2.56572E-09
   2.52379E-09  2.47964E-09  2.43342E-09  2.38528E-09  2.33546E-09  2.28428E-09  2.23221E-09  2.17990E-09  2.12830E-09  2.07886E-09
   2.03383E-09  1.99687E-09  1.97440E-09  1.97861E-09  2.03606E-09  2.21857E-09  2.81150E-09  4.67567E-09  7.57692E-09  1.09308E-08
   1.42690E-08  1.66835E-08  1.73708E-08  1.64897E-08  1.49341E-08  1.33035E-08  1.12172E-08  7.89250E-09  3.81348E-09  1.46882E-09
   6.71117E-10  2.51490E-10 -3.57748E-11 -2.60827E-10 -4.51074E-10 -6.19383E-10 -7.72500E-10 -9.14236E-10 -1.04683E-09 -1.17165E-09
  -1.28953E-09 -1.40094E-09 -1.50615E-09 -1.60525E-09 -1.69825E-09 -1.78509E-09 -1.86572E-09 -1.94035E-09 -2.00919E-09 -2.07247E-09
  -2.13037E-09 -2.18305E-09 -2.23069E-09 -2.27344E-09 -2.31144E-09 -2.34483E-09 -2.37376E-09 -2.39834E-09 -2.41872E-09 -2.43501E-09
  -2.44734E-09 -2.45584E-09 -2.46061E-09 -2.46178E-09 -2.45947E-09 -2.45380E-09 -2.44488E-09 -2.43281E-09 -2.41773E-09 -2.39974E-09
  -2.37896E-09 -2.35549E-09 -2.32945E-09 -2.30095E-09 -2.27011E-09 -2.23708E-09 -2.20198E-09 -2.16497E-09 -2.12618E-09 -2.08575E-09
  -2.04382E-09 -2.00053E-09 -1.95603E-09 -1.91044E-09 -1.86391E-09 -1.81659E-09 -1.76860E-09 -1.72009E-09 -1.67118E-09 -1.62204E-09
  -1.57280E-09 -1.52358E-09 -1.47454E-09 -1.42581E-09 -1.37752E-09 -1.32982E-09 -1.28285E-09 -1.23674E-09 -1.19164E-09 -1.14768E-09
  -1.10499E-09 -1.06373E-09 -1.02397E-09 -9.85680E-10 -9.48873E-10 -9.13536E-10 -8.79647E-10 -8.47204E-10 -8.16188E-10 -7.86591E-10
  -7.58405E-10 -7.31609E-10 -7.06202E-10 -6.82164E-10 -6.59490E-10 -6.38165E-10 -6.18168E-10 -5.99508E-10 -5.82163E-10 -5.66115E-10
  -5.51356E-10 -5.37881E-10 -5.25668E-10 -5.14710E-10 -5.05004E-10 -4.96518E-10 -4.89263E-10 -4.83212E-10 -4.78362E-10 -4.74692E-10
  -4.72179E-10 -4.70780E-10 -4.70449E-10 -4.71141E-10 -4.72819E-10 -4.75431E-10 -4.78941E-10 -4.83300E-10 -4.88464E-10 -4.94395E-10
  -5.01043E-10 -5.08368E-10 -5.16325E-10 -5.24871E-10 -5.33962E-10 -5.43553E-10 -5.53603E-10 -5.64065E-10 -5.74902E-10 -5.86058E-10
  -5.97503E-10 -6.09184E-10 -6.21059E-10 -6.33090E-10 -6.45227E-10 -6.57428E-10 -6.69652E-10 -6.81851E-10 -6.94010E-10 -7.06120E-10
  -7.18173E-10 -7.30163E-10 -7.42082E-10 -7.53921E-10 -7.65674E-10 -7.77334E-10 -7.88892E-10 -8.00343E-10 -8.11678E-10 -8.22889E-10
  -8.33971E-10 -8.44914E-10 -8.55711E-10 -8.66357E-10 -8.76841E-10 -8.87160E-10 -8.97302E-10 -9.07261E-10 -9.17032E-10 -9.26607E-10
  -9.35974E-10 -9.45131E-10 -9.54068E-10 -9.62779E-10 -9.71256E-10 -9.79492E-10 -9.87493E-10 -9.95271E-10 -1.00283E-09 -1.01019E-09
  -1.01735E-09 -1.02433E-09 -1.03113E-09 -1.03777E-09 -1.04425E-09 -1.05058E-09 -1.05678E-09 -1.06286E-09 -1.06882E-09 -1.07467E-09
  -1.08042E-09 -1.08609E-09 -1.09168E-09 -1.09720E-09 -1.10267E-09 -1.10809E-09 -1.11347E-09 -1.11882E-09 -1.12416E-09 -1.12949E-09
  -1.13482E-09 -1.14016E-09 -1.14553E-09
 NY background values follow
     2.912E-09    2.895E-09    2.877E-09    2.860E-09    2.843E-09    2.825E-09    2.808E-09    2.791E-09    2.774E-09    2.757E-09
     2.740E-09    2.723E-09    2.706E-09    2.689E-09    2.672E-09    2.655E-09    2.638E-09    2.622E-09    2.605E-09    2.588E-09
     2.571E-09    2.554E-09    2.537E-09    2.520E-09    2.503E-09    2.486E-09    2.469E-09    2.452E-09    2.435E-09    2.417E-09
     2.400E-09    2.382E-09    2.365E-09    2.348E-09    2.330E-09    2.313E-09    2.296E-09    2.279E-09    2.261E-09    2.244E-09
     2.228E-09    2.211E-09    2.194E-09    2.178E-09    2.162E-09    2.146E-09    2.130E-09    2.114E-09    2.099E-09    2.084E-09
     2.069E-09    2.055E-09    2.041E-09    2.027E-09    2.014E-09    2.001E-09    1.989E-09    1.977E-09    1.965E-09    1.954E-09
     1.943E-09    1.932E-09    1.922E-09    1.913E-09    1.904E-09    1.895E-09    1.887E-09    1.879E-09    1.872E-09    1.865E-09
     1.859E-09    1.853E-09    1.848E-09    1.843E-09    1.838E-09    1.834E-09    1.831E-09    1.828E-09    1.826E-09    1.824E-09
     1.822E-09    1.821E-09    1.821E-09    1.821E-09    1.822E-09    1.823E-09    1.825E-09    1.827E-09    1.830E-09    1.833E-09
     1.837E-09    1.841E-09    1.846E-09    1.851E-09    1.857E-09    1.863E-09    1.869E-09    1.877E-09    1.884E-09    1.892E-09
     1.901E-09    1.910E-09    1.919E-09    1.929E-09    1.939E-09    1.950E-09    1.961E-09    1.972E-09    1.984E-09    1.996E-09
     2.009E-09    2.022E-09    2.036E-09    2.049E-09    2.063E-09    2.078E-09    2.092E-09    2.106E-09    2.120E-09    2.133E-09
     2.146E-09    2.159E-09    2.171E-09    2.182E-09    2.192E-09    2.202E-09    2.210E-09    2.217E-09    2.223E-09    2.227E-09
     2.230E-09    2.232E-09    2.232E-09    2.230E-09    2.226E-09    2.220E-09    2.212E-09    2.201E-09    2.189E-09    2.174E-09
     2.156E-09    2.136E-09    2.113E-09    2.088E-09    2.059E-09    2.028E-09    1.995E-09    1.958E-09    1.919E-09    1.877E-09
     1.832E-09    1.784E-09    1.732E-09    1.678E-09    1.621E-09    1.561E-09    1.498E-09    1.431E-09    1.362E-09    1.289E-09
     1.212E-09    1.133E-09    1.050E-09    9.640E-10    8.744E-10    7.813E-10    6.848E-10    5.848E-10    4.813E-10    3.745E-10
     2.647E-10    1.524E-10    3.776E-11   -7.886E-11   -1.971E-10   -3.167E-10   -4.374E-10   -5.587E-10   -6.804E-10   -8.022E-10
    -9.237E-10   -1.045E-09   -1.165E-09   -1.283E-09   -1.401E-09   -1.516E-09   -1.629E-09   -1.740E-09   -1.848E-09   -1.953E-09
    -2.054E-09   -2.151E-09   -2.245E-09   -2.334E-09   -2.418E-09   -2.497E-09   -2.571E-09   -2.640E-09   -2.703E-09   -2.762E-09
    -2.815E-09   -2.864E-09   -2.908E-09   -2.948E-09   -2.983E-09   -3.013E-09   -3.040E-09   -3.062E-09   -3.080E-09   -3.094E-09
    -3.105E-09   -3.112E-09   -3.115E-09   -3.114E-09   -3.110E-09   -3.103E-09   -3.093E-09   -3.080E-09   -3.064E-09   -3.044E-09
    -3.023E-09   -2.998E-09   -2.971E-09   -2.942E-09   -2.910E-09   -2.876E-09   -2.840E-09   -2.802E-09   -2.763E-09   -2.721E-09
    -2.679E-09   -2.635E-09   -2.590E-09   -2.543E-09   -2.496E-09   -2.448E-09   -2.400E-09   -2.350E-09   -2.301E-09   -2.251E-09
    -2.201E-09   -2.152E-09   -2.102E-09   -2.053E-09   -2.004E-09   -1.956E-09   -1.908E-09   -1.862E-09   -1.816E-09   -1.772E-09
    -1.729E-09   -1.687E-09   -1.647E-09   -1.608E-09   -1.571E-09   -1.535E-09   -1.501E-09   -1.468E-09   -1.437E-09   -1.407E-09
    -1.378E-09   -1.351E-09   -1.325E-09   -1.301E-09   -1.278E-09   -1.256E-09   -1.236E-09   -1.217E-09   -1.199E-09   -1.183E-09
    -1.168E-09   -1.154E-09   -1.141E-09   -1.130E-09   -1.120E-09   -1.111E-09   -1.104E-09   -1.097E-09   -1.092E-09   -1.088E-09
    -1.085E-09   -1.084E-09   -1.083E-09   -1.083E-09   -1.085E-09   -1.087E-09   -1.090E-09   -1.094E-09   -1.099E-09   -1.105E-09
    -1.111E-09   -1.118E-09   -1.126E-09   -1.134E-09   -1.143E-09   -1.152E-09   -1.162E-09   -1.172E-09   -1.183E-09   -1.194E-09
    -1.205E-09   -1.216E-09   -1.228E-09   -1.240E-09   -1.252E-09   -1.263E-09   -1.275E-09   -1.287E-09   -1.299E-09   -1.311E-09
    -1.323E-09   -1.335E-09   -1.346E-09   -1.358E-09   -1.369E-09   -1.381E-09   -1.392E-09   -1.403E-09   -1.414E-09   -1.425E-09
    -1.436E-09   -1.447E-09   -1.457E-09   -1.467E-09   -1.478E-09   -1.488E-09   -1.498E-09   -1.507E-09   -1.517E-09   -1.526E-09
    -1.535E-09   -1.544E-09   -1.553E-09   -1.561E-09   -1.569E-09   -1.577E-09   -1.585E-09   -1.592E-09   -1.600E-09   -1.607E-09
    -1.614E-09   -1.620E-09   -1.627E-09   -1.633E-09   -1.639E-09   -1.645E-09   -1.651E-09   -1.657E-09   -1.663E-09   -1.668E-09
    -1.674E-09   -1.679E-09   -1.684E-09   -1.690E-09   -1.695E-09   -1.700E-09   -1.705E-09   -1.710E-09   -1.715E-09   -1.720E-09
    -1.725E-09   -1.730E-09   -1.735E-09
 Gln      Conc. = 3.17E-09
   5.17747E-09  5.80679E-09  6.46257E-09  7.09785E-09  7.56996E-09  7.77595E-09  7.70153E-09  7.37294E-09  6.87827E-09  6.34176E-09
   5.64625E-09  4.82462E-09  4.41012E-09  3.94198E-09  3.61152E-09  3.44084E-09  3.33360E-09  3.25715E-09  3.19836E-09  3.15088E-09
   3.11113E-09  3.07690E-09  3.04681E-09  3.02005E-09  2.99621E-09  2.97493E-09  2.95519E-09  2.93688E-09  2.92016E-09  2.90442E-09
   2.88962E-09  2.87581E-09  2.86302E-09  2.85130E-09  2.84073E-09  2.83139E-09  2.82339E-09  2.81687E-09  2.81198E-09  2.80892E-09
   2.80806E-09  2.80969E-09  2.81446E-09  2.82298E-09  2.83592E-09  2.85418E-09  2.87893E-09  2.91121E-09  2.95373E-09  3.01070E-09
   3.08583E-09  3.18756E-09  3.33118E-09  3.54424E-09  3.89280E-09  4.50750E-09  5.25269E-09  6.08351E-09  7.16248E-09  8.18644E-09
   8.93273E-09  9.51923E-09  9.83461E-09  9.70040E-09  9.08605E-09  8.12186E-09  7.09351E-09  6.29139E-09  5.30819E-09  4.22172E-09
   3.76378E-09  3.68759E-09  3.73803E-09  4.05687E-09  4.60199E-09  5.43208E-09  6.26286E-09  6.99529E-09  7.64276E-09  8.10419E-09
   8.31735E-09  8.24908E-09  7.78938E-09  7.17259E-09  6.61692E-09  5.83238E-09  4.94660E-09  4.43616E-09  3.94029E-09  3.47953E-09
   3.19991E-09  3.01414E-09  2.88282E-09  2.78639E-09  2.71143E-09  2.65195E-09  2.60509E-09  2.56762E-09  2.53738E-09  2.51345E-09
   2.49450E-09  2.47933E-09  2.46738E-09  2.45830E-09  2.45185E-09  2.44780E-09  2.44566E-09  2.44521E-09  2.44628E-09  2.44875E-09
   2.45249E-09  2.45739E-09  2.46335E-09  2.47024E-09  2.47789E-09  2.48613E-09  2.49482E-09  2.50380E-09  2.51293E-09  2.52207E-09
   2.53109E-09  2.53985E-09  2.54823E-09  2.55610E-09  2.56334E-09  2.56982E-09  2.57542E-09  2.58003E-09  2.58354E-09  2.58582E-09
   2.58675E-09  2.58623E-09  2.58414E-09  2.58038E-09  2.57482E-09  2.56736E-09  2.55790E-09  2.54632E-09  2.53252E-09  2.51639E-09
   2.49782E-09  2.47677E-09  2.45321E-09  2.42711E-09  2.39844E-09  2.36717E-09  2.33328E-09  2.29675E-09  2.25757E-09  2.21572E-09
   2.17121E-09  2.12403E-09  2.07422E-09  2.02180E-09  1.96684E-09  1.90942E-09  1.84968E-09  1.78783E-09  1.72415E-09  1.65912E-09
   1.59343E-09  1.52823E-09  1.46546E-09  1.40859E-09  1.36465E-09  1.34993E-09  1.41332E-09  1.77885E-09  2.79087E-09  4.04810E-09
   5.42399E-09  6.64396E-09  7.26946E-09  7.10995E-09  6.45498E-09  5.70684E-09  4.93737E-09  3.80252E-09  2.07784E-09  4.32664E-10
  -1.08030E-10 -3.97523E-10 -6.07076E-10 -7.80970E-10 -9.35293E-10 -1.07719E-09 -1.21019E-09 -1.33618E-09 -1.45618E-09 -1.57074E-09
  -1.68012E-09 -1.78440E-09 -1.88357E-09 -1.97748E-09 -2.06600E-09 -2.14893E-09 -2.22613E-09 -2.29772E-09 -2.36386E-09 -2.42472E-09
  -2.48045E-09 -2.53117E-09 -2.57703E-09 -2.61815E-09 -2.65467E-09 -2.68670E-09 -2.71437E-09 -2.73780E-09 -2.75710E-09 -2.77240E-09
  -2.78381E-09 -2.79143E-09 -2.79540E-09 -2.79581E-09 -2.79279E-09 -2.78644E-09 -2.77688E-09 -2.76422E-09 -2.74857E-09 -2.73004E-09
  -2.70874E-09 -2.68478E-09 -2.65827E-09 -2.62933E-09 -2.59807E-09 -2.56463E-09 -2.52914E-09 -2.49175E-09 -2.45260E-09 -2.41182E-09
  -2.36956E-09 -2.32595E-09 -2.28113E-09 -2.23525E-09 -2.18842E-09 -2.14081E-09 -2.09255E-09 -2.04377E-09 -1.99461E-09 -1.94522E-09
  -1.89573E-09 -1.84627E-09 -1.79699E-09 -1.74804E-09 -1.69953E-09 -1.65161E-09 -1.60443E-09 -1.55811E-09 -1.51280E-09 -1.46864E-09
  -1.42576E-09 -1.38431E-09 -1.34435E-09 -1.30588E-09 -1.26889E-09 -1.23338E-09 -1.19931E-09 -1.16669E-09 -1.13551E-09 -1.10574E-09
  -1.07739E-09 -1.05043E-09 -1.02486E-09 -1.00066E-09 -9.77825E-10 -9.56343E-10 -9.36191E-10 -9.17377E-10 -8.99880E-10 -8.83681E-10
  -8.68773E-10 -8.55150E-10 -8.42791E-10 -8.31688E-10 -8.21837E-10 -8.13209E-10 -8.05811E-10 -7.99620E-10 -7.94630E-10 -7.90820E-10
  -7.88168E-10 -7.86631E-10 -7.86163E-10 -7.86718E-10 -7.88260E-10 -7.90738E-10 -7.94113E-10 -7.98337E-10 -8.03367E-10 -8.09164E-10
  -8.15680E-10 -8.22873E-10 -8.30698E-10 -8.39111E-10 -8.48072E-10 -8.57532E-10 -8.67450E-10 -8.77782E-10 -8.88488E-10 -8.99514E-10
  -9.10829E-10 -9.22380E-10 -9.34125E-10 -9.46027E-10 -9.58034E-10 -9.70105E-10 -9.82199E-10 -9.94268E-10 -1.00630E-09 -1.01828E-09
  -1.03020E-09 -1.04206E-09 -1.05385E-09 -1.06556E-09 -1.07718E-09 -1.08871E-09 -1.10014E-09 -1.11146E-09 -1.12266E-09 -1.13374E-09
  -1.14469E-09 -1.15550E-09 -1.16617E-09 -1.17668E-09 -1.18703E-09 -1.19722E-09 -1.20723E-09 -1.21705E-09 -1.22669E-09 -1.23613E-09
  -1.24536E-09 -1.25438E-09 -1.26318E-09 -1.27176E-09 -1.28010E-09 -1.28819E-09 -1.29606E-09 -1.30370E-09 -1.31112E-09 -1.31834E-09
  -1.32536E-09 -1.33220E-09 -1.33886E-09 -1.34535E-09 -1.35169E-09 -1.35788E-09 -1.36394E-09 -1.36987E-09 -1.37568E-09 -1.38139E-09
  -1.38700E-09 -1.39252E-09 -1.39796E-09 -1.40334E-09 -1.40865E-09 -1.41392E-09 -1.41915E-09 -1.42436E-09 -1.42954E-09 -1.43471E-09
  -1.43989E-09 -1.44508E-09 -1.45029E-09
 Glyc     Conc. = 1.00E-09
   3.01790E-09  3.01094E-09  3.00748E-09  3.00933E-09  3.01982E-09  3.04594E-09  3.10535E-09  3.26037E-09  3.80937E-09  4.59593E-09
   5.49482E-09  6.38508E-09  7.00520E-09  7.13841E-09  6.86217E-09  6.43993E-09  6.02747E-09  5.48959E-09  4.58907E-09  3.46420E-09
   2.95753E-09  2.79189E-09  2.70770E-09  2.65339E-09  2.61310E-09  2.58042E-09  2.55226E-09  2.52696E-09  2.50358E-09  2.48152E-09
   2.46041E-09  2.44000E-09  2.42015E-09  2.40073E-09  2.38167E-09  2.36291E-09  2.34444E-09  2.32621E-09  2.30821E-09  2.29045E-09
   2.27291E-09  2.25559E-09  2.23851E-09  2.22166E-09  2.20507E-09  2.18872E-09  2.17264E-09  2.15685E-09  2.14135E-09  2.12615E-09
   2.11128E-09  2.09674E-09  2.08255E-09  2.06872E-09  2.05531E-09  2.04226E-09  2.02961E-09  2.01741E-09  2.00563E-09  1.99428E-09
   1.98337E-09  1.97290E-09  1.96287E-09  1.95328E-09  1.94415E-09  1.93547E-09  1.92724E-09  1.91947E-09  1.91217E-09  1.90534E-09
   1.89898E-09  1.89309E-09  1.88769E-09  1.88277E-09  1.87833E-09  1.87439E-09  1.87094E-09  1.86799E-09  1.86555E-09  1.86362E-09
   1.86219E-09  1.86129E-09  1.86089E-09  1.86103E-09  1.86169E-09  1.86288E-09  1.86459E-09  1.86683E-09  1.86957E-09  1.87282E-09
   1.87658E-09  1.88082E-09  1.88557E-09  1.89080E-09  1.89651E-09  1.90269E-09  1.90935E-09  1.91647E-09  1.92405E-09  1.93209E-09
   1.94058E-09  1.94951E-09  1.95889E-09  1.96870E-09  1.97894E-09  1.98960E-09  2.00069E-09  2.01219E-09  2.02410E-09  2.03641E-09
   2.04913E-09  2.06223E-09  2.07572E-09  2.08953E-09  2.10356E-09  2.11770E-09  2.13185E-09  2.14589E-09  2.15973E-09  2.17325E-09
   2.18636E-09  2.19894E-09  2.21089E-09  2.22210E-09  2.23247E-09  2.24189E-09  2.25026E-09  2.25747E-09  2.26342E-09  2.26800E-09
   2.27109E-09  2.27261E-09  2.27244E-09  2.27048E-09  2.26663E-09  2.26076E-09  2.25280E-09  2.24262E-09  2.23013E-09  2.21522E-09
   2.19777E-09  2.17777E-09  2.15515E-09  2.12990E-09  2.10198E-09  2.07136E-09  2.03801E-09  2.00190E-09  1.96301E-09  1.92131E-09
   1.87678E-09  1.82939E-09  1.77915E-09  1.72604E-09  1.67007E-09  1.61125E-09  1.54963E-09  1.48526E-09  1.41827E-09  1.34884E-09
   1.27728E-09  1.20414E-09  1.13042E-09  1.05808E-09  9.91649E-10  9.44160E-10  9.72042E-10  1.21832E-09  1.54665E-09  1.91780E-09
   2.25252E-09  2.40613E-09  2.29919E-09  2.01560E-09  1.69313E-09  1.37297E-09  9.49046E-10  3.24782E-10 -3.28070E-10 -5.99635E-10
  -7.77947E-10 -9.28095E-10 -1.06573E-09 -1.19621E-09 -1.32170E-09 -1.44317E-09 -1.56103E-09 -1.67538E-09 -1.78619E-09 -1.89332E-09
  -1.99658E-09 -2.09575E-09 -2.19057E-09 -2.28076E-09 -2.36605E-09 -2.44615E-09 -2.52084E-09 -2.59020E-09 -2.65435E-09 -2.71342E-09
  -2.76752E-09 -2.81676E-09 -2.86126E-09 -2.90114E-09 -2.93650E-09 -2.96747E-09 -2.99415E-09 -3.01665E-09 -3.03509E-09 -3.04958E-09
  -3.06022E-09 -3.06712E-09 -3.07041E-09 -3.07018E-09 -3.06654E-09 -3.05961E-09 -3.04950E-09 -3.03631E-09 -3.02015E-09 -3.00113E-09
  -2.97937E-09 -2.95496E-09 -2.92803E-09 -2.89867E-09 -2.86701E-09 -2.83319E-09 -2.79733E-09 -2.75958E-09 -2.72008E-09 -2.67897E-09
