 LCModel (Version 6.3-1R) Copyright: S.W. Provencher.          Ref.: Magn. Reson. Med. 30:672-679 (1993).                
 onepulse 21x17_ftSpec_smooth_lcm
 26 lines in following concentration table = NCONC+1
    Conc.  %SD   /Cr    Metabolite                                         
 9.83E-11 174%   0.000 Ala                                                 
 4.36E-10  75%   0.000 Asp                                                 
    0.000 999%   0.000 Cr                                                  
 2.87E-09  10%   0.000 GABA                                                
 1.52E-09  18%   0.000 Glc                                                 
    0.000 999%   0.000 Gln                                                 
 3.87E-10  81%   0.000 Glu                                                 
    0.000 999%   0.000 Glyc                                                
    0.000 999%   0.000 GPC                                                 
    0.000 999%   0.000 GSH                                                 
 1.61E-10 109%   0.000 Ins                                                 
    0.000 999%   0.000 Lac                                                 
    0.000 999%   0.000 NAAG                                                
 1.07E-09  14%   0.000 NAA                                                 
 1.19E-10  37%   0.000 PCh                                                 
    0.000 999%   0.000 PCr                                                 
    0.000 999%   0.000 PE                                                  
    0.000 999%   0.000 Scyllo                                              
    0.000 999%   0.000 Ser                                                 
    0.000 999%   0.000 Tau                                                 
 1.19E-10  37%   0.000 GPC+PCh                                             
 1.07E-09  14%   0.000 NAA+NAAG                                            
 1.61E-10 109%   0.000 Ins+Glyc                                            
    0.000 999%   0.000 Cr+PCr                                              
 3.87E-10  81%   0.000 Glu+Gln                                             
   6 lines in following misc. output table
  FWHM = 0.067 ppm    S/N =   5                                            
  Data shift = 0.324 ppm                                                   
  Ph:  53 deg      33.9 deg/ppm                                            
  alphaB,S = 1.7E-01,   7.8E+01                                            
   16 spline knots.   Ns = 5(1)                                            
  ( 7) 2 infls.   ( 3) 1 extrs.                                            
  363 points on ppm-axis = NY
      4.250000     4.238821     4.227641     4.216462     4.205282     4.194103     4.182923     4.171744     4.160564     4.149385
      4.138206     4.127026     4.115847     4.104667     4.093488     4.082308     4.071129     4.059949     4.048770     4.037591
      4.026411     4.015232     4.004052     3.992873     3.981693     3.970514     3.959334     3.948155     3.936975     3.925796
      3.914617     3.903437     3.892258     3.881078     3.869899     3.858719     3.847540     3.836360     3.825181     3.814002
      3.802822     3.791643     3.780463     3.769284     3.758104     3.746925     3.735745     3.724566     3.713387     3.702207
      3.691028     3.679848     3.668669     3.657489     3.646310     3.635130     3.623951     3.612772     3.601592     3.590413
      3.579233     3.568054     3.556874     3.545695     3.534515     3.523336     3.512156     3.500977     3.489798     3.478618
      3.467439     3.456259     3.445080     3.433900     3.422721     3.411541     3.400362     3.389183     3.378003     3.366824
      3.355644     3.344465     3.333285     3.322106     3.310926     3.299747     3.288568     3.277388     3.266209     3.255029
      3.243850     3.232670     3.221491     3.210311     3.199132     3.187953     3.176773     3.165594     3.154414     3.143235
      3.132055     3.120876     3.109696     3.098517     3.087337     3.076158     3.064979     3.053799     3.042620     3.031440
      3.020261     3.009081     2.997902     2.986722     2.975543     2.964364     2.953184     2.942005     2.930825     2.919646
      2.908466     2.897287     2.886107     2.874928     2.863749     2.852569     2.841390     2.830210     2.819031     2.807851
      2.796672     2.785492     2.774313     2.763134     2.751954     2.740775     2.729595     2.718416     2.707236     2.696057
      2.684877     2.673698     2.662519     2.651339     2.640160     2.628980     2.617801     2.606621     2.595442     2.584262
      2.573083     2.561903     2.550724     2.539545     2.528365     2.517186     2.506006     2.494827     2.483647     2.472468
      2.461288     2.450109     2.438930     2.427750     2.416571     2.405391     2.394212     2.383032     2.371853     2.360673
      2.349494     2.338315     2.327135     2.315956     2.304776     2.293597     2.282417     2.271238     2.260058     2.248879
      2.237700     2.226520     2.215341     2.204161     2.192982     2.181802     2.170623     2.159443     2.148264     2.137084
      2.125905     2.114726     2.103546     2.092367     2.081187     2.070008     2.058828     2.047649     2.036469     2.025290
      2.014111     2.002931     1.991752     1.980572     1.969393     1.958213     1.947034     1.935854     1.924675     1.913496
      1.902316     1.891137     1.879957     1.868778     1.857598     1.846419     1.835239     1.824060     1.812881     1.801701
      1.790522     1.779342     1.768163     1.756983     1.745804     1.734624     1.723445     1.712265     1.701086     1.689907
      1.678727     1.667548     1.656368     1.645189     1.634009     1.622830     1.611650     1.600471     1.589292     1.578112
      1.566933     1.555753     1.544574     1.533394     1.522215     1.511035     1.499856     1.488677     1.477497     1.466318
      1.455138     1.443959     1.432779     1.421600     1.410420     1.399241     1.388062     1.376882     1.365703     1.354523
      1.343344     1.332164     1.320985     1.309805     1.298626     1.287446     1.276267     1.265088     1.253908     1.242729
      1.231549     1.220370     1.209190     1.198011     1.186831     1.175652     1.164473     1.153293     1.142114     1.130934
      1.119755     1.108575     1.097396     1.086216     1.075037     1.063858     1.052678     1.041499     1.030319     1.019140
      1.007960     0.996781     0.985601     0.974422     0.963243     0.952063     0.940884     0.929704     0.918525     0.907345
      0.896166     0.884986     0.873807     0.862628     0.851448     0.840269     0.829089     0.817910     0.806730     0.795551
      0.784371     0.773192     0.762012     0.750833     0.739654     0.728474     0.717295     0.706115     0.694936     0.683756
      0.672577     0.661397     0.650218     0.639039     0.627859     0.616680     0.605500     0.594321     0.583141     0.571962
      0.560782     0.549603     0.538424     0.527244     0.516065     0.504885     0.493706     0.482526     0.471347     0.460167
      0.448988     0.437809     0.426629     0.415450     0.404270     0.393091     0.381911     0.370732     0.359552     0.348373
      0.337193     0.326014     0.314835     0.303655     0.292476     0.281296     0.270117     0.258937     0.247758     0.236578
      0.225399     0.214220     0.203040
 NY phased data points follow
  -6.25960E-10  8.42685E-10  4.89042E-09  6.35142E-09  8.44098E-09  7.17191E-09  6.30183E-09  5.23805E-09  4.49103E-09  3.46933E-09
   3.72501E-09  3.16485E-09  3.54789E-09  3.25124E-09  4.32971E-09  4.75927E-09  4.94586E-09  5.97746E-09  6.38965E-09  5.62383E-09
   6.07737E-09  5.38400E-09  6.34537E-09  5.70907E-09  4.56326E-09  4.94525E-09  5.39255E-09  6.45886E-09  7.13746E-09  6.96778E-09
   6.20913E-09  5.50117E-09  5.45147E-09  6.27095E-09  8.72650E-09  9.44531E-09  1.04146E-08  9.09195E-09  8.75381E-09  6.41427E-09
   5.72775E-09  5.28917E-09  5.87532E-09  3.79717E-09  4.78947E-09  5.04750E-09  4.13269E-09  3.31090E-09  4.61864E-09  3.59964E-09
   2.88378E-09  2.58338E-09  3.48740E-09  3.25751E-09  4.37605E-09  4.02492E-09  3.44324E-09  2.45361E-09  3.29822E-09  2.82095E-09
   2.11287E-09  2.81512E-09  4.42494E-09  4.51769E-09  5.93597E-09  8.99814E-09  1.30287E-08  1.25836E-08  1.06928E-08  8.28815E-09
   6.74829E-09  5.65258E-09  5.75818E-09  4.30751E-09  3.50370E-09  2.55645E-09  3.67767E-09  2.46320E-09  2.60319E-09  3.54581E-09
   4.99504E-09  7.50650E-09  1.15812E-08  1.42524E-08  1.36016E-08  1.01404E-08  9.23117E-09  7.68751E-09  8.06784E-09  6.71462E-09
   6.36258E-09  6.10810E-09  5.54202E-09  5.39081E-09  5.18932E-09  4.13204E-09  4.60407E-09  3.29029E-09  4.25188E-09  2.94005E-09
   2.66293E-09  2.54006E-09  3.52704E-09  3.46980E-09  2.99686E-09  4.43019E-09  3.62638E-09  3.44814E-09  3.75999E-09  3.34744E-09
   3.59531E-09  2.24796E-09  2.12675E-09  2.06370E-09  2.42994E-09  2.41583E-09  3.53859E-09  3.68985E-09  4.05391E-09  3.69752E-09
   4.01825E-09  4.00066E-09  4.38392E-09  3.18480E-09  3.56092E-09  2.95181E-09  1.96460E-09  2.17953E-09  2.20730E-09  2.13920E-09
   2.69630E-09  3.43026E-09  2.85889E-09  2.61087E-09  3.01330E-09  3.25403E-09  2.90765E-09  2.78699E-09  2.70350E-09  2.20850E-09
   2.70488E-09  3.48414E-09  4.14979E-09  5.10402E-09  5.10087E-09  3.83555E-09  3.87493E-09  4.12599E-09  5.21798E-09  4.44938E-09
   5.23531E-09  4.36388E-09  4.02650E-09  4.16352E-09  4.59491E-09  4.04453E-09  4.28470E-09  3.84572E-09  4.73112E-09  4.67590E-09
   5.22244E-09  5.46618E-09  6.04308E-09  5.74148E-09  5.96608E-09  5.95640E-09  6.69815E-09  7.25748E-09  7.66415E-09  8.39728E-09
   1.06293E-08  1.19948E-08  1.42845E-08  1.74482E-08  1.81658E-08  1.40586E-08  9.96040E-09  6.60559E-09  5.29312E-09  4.47938E-09
   4.50920E-09  2.54823E-09  3.33586E-09  1.86382E-09  2.16610E-09  1.01739E-09  1.06419E-09  6.23317E-10  6.46192E-10  2.70742E-10
   1.20764E-10 -6.13977E-10 -1.05215E-09 -2.07307E-09 -2.69590E-09 -3.54343E-09 -4.24011E-09 -5.24185E-09 -5.79119E-09 -6.67437E-09
  -8.28299E-09 -8.65710E-09 -9.09636E-09 -9.91659E-09 -1.01234E-08 -1.06315E-08 -1.05821E-08 -1.05947E-08 -1.03990E-08 -1.03527E-08
  -9.34093E-09 -8.98296E-09 -7.76794E-09 -6.55559E-09 -5.88583E-09 -4.70379E-09 -3.44152E-09 -2.93701E-09 -3.17714E-09 -1.85456E-09
  -2.71207E-09 -1.55451E-09 -2.89246E-09 -2.79566E-09 -2.52886E-09 -3.44869E-09 -2.31589E-09 -1.85888E-09 -2.54449E-09 -2.34277E-09
  -2.24002E-09 -2.17278E-09 -2.07906E-09 -2.35028E-09 -2.29243E-09 -2.95817E-09 -2.54639E-09 -2.80785E-09 -2.04464E-09 -1.82548E-09
  -2.14821E-09 -1.58279E-09 -1.90860E-09 -1.67031E-09 -2.12394E-09 -2.58791E-09 -2.18907E-09 -2.13064E-09 -2.18087E-09 -2.22129E-09
  -2.20362E-09 -1.61929E-09 -1.69778E-09 -1.11261E-09 -1.26226E-09 -1.68263E-09 -1.26662E-09 -1.16910E-09 -1.80601E-09 -2.20368E-09
  -2.36358E-09 -2.04352E-09 -2.48370E-09 -2.96292E-09 -2.60255E-09 -2.22236E-09 -1.32396E-09 -1.85467E-09 -1.03391E-09 -1.48872E-09
  -4.74386E-10 -6.55867E-10 -9.48895E-10 -8.83785E-10 -8.00883E-10 -5.27578E-10 -1.06642E-09 -2.06845E-09 -1.24631E-09 -1.93915E-09
  -2.06843E-09 -1.94674E-09 -2.15994E-09 -1.99384E-09 -2.00580E-09 -1.93834E-09 -1.47951E-09 -1.88233E-09 -1.29001E-09 -1.63193E-09
  -1.15225E-09 -1.56814E-09 -1.41986E-09 -1.79072E-09 -1.25207E-09 -1.22853E-09 -1.38169E-09 -1.41206E-09 -1.09579E-09 -1.78211E-09
  -1.54729E-09 -1.01266E-09 -1.35483E-09 -1.47605E-09 -1.14653E-09 -1.19216E-09 -1.09261E-09 -1.26733E-09 -1.31272E-09 -1.19369E-09
  -1.15973E-09 -1.74084E-09 -1.14165E-09 -9.87764E-10 -7.99636E-10 -1.28267E-09 -1.15252E-09 -1.02401E-09 -6.96261E-10 -1.49388E-09
  -6.49286E-10 -1.12099E-09 -9.15144E-10 -8.11198E-10 -1.60722E-09 -5.88960E-10 -8.23942E-10 -1.02241E-09 -9.23458E-10 -1.31185E-09
  -2.81370E-10 -9.00244E-10 -1.31493E-09 -1.10157E-09 -9.54983E-10 -1.40020E-09 -7.17369E-10 -1.22251E-09 -7.74708E-10 -8.61985E-10
  -4.06562E-10 -7.41128E-10 -5.52304E-10 -6.35538E-10 -8.28519E-10 -5.85114E-10 -8.04475E-10 -1.15589E-09 -4.33526E-10 -9.44725E-10
  -6.67565E-10 -5.29139E-10 -5.77362E-10 -2.17623E-10 -4.32331E-10 -3.67540E-10 -5.53537E-10 -4.09550E-10 -5.48959E-10 -3.45195E-10
  -8.03466E-10 -9.95553E-10 -1.81734E-10
 NY points of the fit to the data follow
   3.37302E-09  3.94539E-09  4.56058E-09  5.12483E-09  5.49301E-09  5.57068E-09  5.34453E-09  4.89952E-09  4.42421E-09  3.96761E-09
   3.69684E-09  3.61490E-09  3.66845E-09  3.81873E-09  4.09418E-09  4.45743E-09  4.88330E-09  5.37270E-09  5.88618E-09  6.36078E-09
   6.73513E-09  6.79688E-09  6.43665E-09  5.85227E-09  5.23048E-09  4.76110E-09  4.67970E-09  5.08614E-09  5.75458E-09  6.45402E-09
   6.82784E-09  6.96665E-09  7.14746E-09  7.28334E-09  7.44170E-09  7.86931E-09  8.28643E-09  8.45712E-09  8.28025E-09  7.76255E-09
   7.05415E-09  6.25334E-09  5.21730E-09  4.36001E-09  3.84652E-09  3.31878E-09  2.91570E-09  2.83091E-09  2.91152E-09  3.03768E-09
   3.13082E-09  3.13634E-09  3.08978E-09  3.03415E-09  3.03602E-09  3.12459E-09  3.25583E-09  3.35955E-09  3.37216E-09  3.35834E-09
   3.48324E-09  3.91369E-09  4.57606E-09  5.36117E-09  6.43144E-09  7.48988E-09  8.32953E-09  8.99647E-09  9.41447E-09  9.44428E-09
   9.04331E-09  8.16382E-09  6.97882E-09  5.87638E-09  4.83146E-09  3.96883E-09  3.78124E-09  4.18260E-09  4.83484E-09  5.88597E-09
   7.23749E-09  8.79098E-09  1.04594E-08  1.17151E-08  1.19611E-08  1.11886E-08  9.73013E-09  8.05841E-09  6.75194E-09  6.37363E-09
   6.27663E-09  6.21797E-09  5.98747E-09  5.55478E-09  5.20882E-09  4.82438E-09  4.29747E-09  3.91373E-09  3.64674E-09  3.39519E-09
   3.23889E-09  3.15798E-09  3.12852E-09  3.15241E-09  3.20640E-09  3.26803E-09  3.31680E-09  3.34104E-09  3.34070E-09  3.31802E-09
   3.27409E-09  3.22311E-09  3.18486E-09  3.13592E-09  3.10138E-09  3.10876E-09  3.13017E-09  3.15759E-09  3.18814E-09  3.22045E-09
   3.25373E-09  3.28745E-09  3.32121E-09  3.35469E-09  3.38765E-09  3.41988E-09  3.45118E-09  3.48140E-09  3.51040E-09  3.53802E-09
   3.56414E-09  3.58864E-09  3.61138E-09  3.63227E-09  3.65118E-09  3.66799E-09  3.68262E-09  3.69496E-09  3.70493E-09  3.71244E-09
   3.71738E-09  3.71962E-09  3.71902E-09  3.71544E-09  3.70877E-09  3.69888E-09  3.68566E-09  3.66901E-09  3.64882E-09  3.62502E-09
   3.59756E-09  3.56641E-09  3.53159E-09  3.49315E-09  3.45121E-09  3.40598E-09  3.35780E-09  3.30719E-09  3.25498E-09  3.20240E-09
   3.15145E-09  3.10545E-09  3.07019E-09  3.05684E-09  3.09047E-09  3.24421E-09  3.83905E-09  5.16830E-09  6.96006E-09  9.05594E-09
   1.15202E-08  1.42427E-08  1.66459E-08  1.77749E-08  1.68714E-08  1.39525E-08  9.80342E-09  5.56253E-09  2.50612E-09  1.11915E-09
   5.22665E-10  1.40249E-10 -1.59111E-10 -4.17230E-10 -6.51494E-10 -8.70302E-10 -1.07803E-09 -1.27709E-09 -1.46876E-09 -1.65375E-09
  -1.83235E-09 -2.00462E-09 -2.17046E-09 -2.32962E-09 -2.48185E-09 -2.62680E-09 -2.76420E-09 -2.89415E-09 -3.01683E-09 -3.13237E-09
  -3.24092E-09 -3.34258E-09 -3.43748E-09 -3.52574E-09 -3.60744E-09 -3.68270E-09 -3.75161E-09 -3.81428E-09 -3.87077E-09 -3.92121E-09
  -3.96566E-09 -4.00423E-09 -4.03699E-09 -4.06405E-09 -4.08547E-09 -4.10135E-09 -4.11178E-09 -4.11683E-09 -4.11660E-09 -4.11115E-09
  -4.10059E-09 -4.08499E-09 -4.06444E-09 -4.03902E-09 -4.00886E-09 -3.97423E-09 -3.93538E-09 -3.89258E-09 -3.84610E-09 -3.79621E-09
  -3.74316E-09 -3.68723E-09 -3.62868E-09 -3.56778E-09 -3.50478E-09 -3.43996E-09 -3.37358E-09 -3.30592E-09 -3.23721E-09 -3.16775E-09
  -3.09780E-09 -3.02761E-09 -2.95745E-09 -2.88760E-09 -2.81829E-09 -2.74982E-09 -2.68244E-09 -2.61642E-09 -2.55202E-09 -2.48951E-09
  -2.42915E-09 -2.37121E-09 -2.31580E-09 -2.26286E-09 -2.21232E-09 -2.16411E-09 -2.11813E-09 -2.07433E-09 -2.03262E-09 -1.99292E-09
  -1.95517E-09 -1.91927E-09 -1.88517E-09 -1.85277E-09 -1.82201E-09 -1.79280E-09 -1.76506E-09 -1.73875E-09 -1.71376E-09 -1.69002E-09
  -1.66745E-09 -1.64599E-09 -1.62554E-09 -1.60603E-09 -1.58741E-09 -1.56956E-09 -1.55245E-09 -1.53597E-09 -1.52005E-09 -1.50463E-09
  -1.48964E-09 -1.47508E-09 -1.46092E-09 -1.44714E-09 -1.43373E-09 -1.42066E-09 -1.40793E-09 -1.39549E-09 -1.38334E-09 -1.37146E-09
  -1.35983E-09 -1.34843E-09 -1.33723E-09 -1.32623E-09 -1.31539E-09 -1.30471E-09 -1.29416E-09 -1.28372E-09 -1.27338E-09 -1.26311E-09
  -1.25290E-09 -1.24272E-09 -1.23255E-09 -1.22239E-09 -1.21220E-09 -1.20196E-09 -1.19167E-09 -1.18130E-09 -1.17083E-09 -1.16029E-09
  -1.14965E-09 -1.13893E-09 -1.12812E-09 -1.11722E-09 -1.10623E-09 -1.09515E-09 -1.08398E-09 -1.07272E-09 -1.06137E-09 -1.04993E-09
  -1.03841E-09 -1.02678E-09 -1.01507E-09 -1.00327E-09 -9.91369E-10 -9.79383E-10 -9.67301E-10 -9.55125E-10 -9.42856E-10 -9.30498E-10
  -9.18040E-10 -9.05490E-10 -8.92843E-10 -8.80104E-10 -8.67270E-10 -8.54337E-10 -8.41314E-10 -8.28205E-10 -8.15013E-10 -8.01742E-10
  -7.88400E-10 -7.74987E-10 -7.61510E-10 -7.47974E-10 -7.34385E-10 -7.20742E-10 -7.07058E-10 -6.93332E-10 -6.79570E-10 -6.65776E-10
  -6.51953E-10 -6.38111E-10 -6.24249E-10 -6.10376E-10 -5.96493E-10 -5.82609E-10 -5.68724E-10 -5.54844E-10 -5.40973E-10 -5.27121E-10
  -5.13287E-10 -4.99479E-10 -4.85695E-10
 NY background values follow
    -1.532E-09   -1.490E-09   -1.449E-09   -1.408E-09   -1.366E-09   -1.325E-09   -1.285E-09   -1.244E-09   -1.204E-09   -1.164E-09
    -1.124E-09   -1.085E-09   -1.046E-09   -1.007E-09   -9.686E-10   -9.307E-10   -8.932E-10   -8.563E-10   -8.198E-10   -7.838E-10
    -7.483E-10   -7.135E-10   -6.792E-10   -6.455E-10   -6.125E-10   -5.801E-10   -5.484E-10   -5.175E-10   -4.872E-10   -4.578E-10
    -4.290E-10   -4.010E-10   -3.737E-10   -3.470E-10   -3.210E-10   -2.956E-10   -2.708E-10   -2.465E-10   -2.229E-10   -1.997E-10
    -1.771E-10   -1.549E-10   -1.333E-10   -1.120E-10   -9.123E-11   -7.081E-11   -5.077E-11   -3.110E-11   -1.174E-11    7.301E-12
     2.605E-11    4.455E-11    6.279E-11    8.082E-11    9.864E-11    1.163E-10    1.338E-10    1.512E-10    1.685E-10    1.858E-10
     2.032E-10    2.207E-10    2.383E-10    2.562E-10    2.743E-10    2.928E-10    3.116E-10    3.309E-10    3.507E-10    3.711E-10
     3.921E-10    4.138E-10    4.361E-10    4.593E-10    4.833E-10    5.083E-10    5.341E-10    5.610E-10    5.890E-10    6.181E-10
     6.483E-10    6.799E-10    7.127E-10    7.468E-10    7.824E-10    8.194E-10    8.577E-10    8.973E-10    9.381E-10    9.801E-10
     1.023E-09    1.067E-09    1.112E-09    1.158E-09    1.205E-09    1.253E-09    1.301E-09    1.350E-09    1.400E-09    1.450E-09
     1.501E-09    1.552E-09    1.603E-09    1.655E-09    1.707E-09    1.759E-09    1.811E-09    1.863E-09    1.915E-09    1.967E-09
     2.019E-09    2.071E-09    2.122E-09    2.173E-09    2.224E-09    2.274E-09    2.323E-09    2.372E-09    2.419E-09    2.466E-09
     2.512E-09    2.557E-09    2.600E-09    2.642E-09    2.683E-09    2.723E-09    2.760E-09    2.796E-09    2.831E-09    2.863E-09
     2.893E-09    2.922E-09    2.948E-09    2.972E-09    2.994E-09    3.013E-09    3.030E-09    3.044E-09    3.055E-09    3.064E-09
     3.070E-09    3.072E-09    3.072E-09    3.068E-09    3.061E-09    3.049E-09    3.035E-09    3.016E-09    2.993E-09    2.966E-09
     2.934E-09    2.898E-09    2.857E-09    2.811E-09    2.760E-09    2.704E-09    2.642E-09    2.575E-09    2.502E-09    2.423E-09
     2.339E-09    2.248E-09    2.151E-09    2.047E-09    1.937E-09    1.820E-09    1.697E-09    1.566E-09    1.428E-09    1.283E-09
     1.132E-09    9.748E-10    8.127E-10    6.459E-10    4.749E-10    3.002E-10    1.223E-10   -5.822E-11   -2.409E-10   -4.253E-10
    -6.107E-10   -7.968E-10   -9.830E-10   -1.169E-09   -1.354E-09   -1.537E-09   -1.718E-09   -1.897E-09   -2.073E-09   -2.246E-09
    -2.414E-09   -2.578E-09   -2.737E-09   -2.890E-09   -3.038E-09   -3.178E-09   -3.312E-09   -3.439E-09   -3.559E-09   -3.672E-09
    -3.778E-09   -3.878E-09   -3.971E-09   -4.057E-09   -4.138E-09   -4.212E-09   -4.279E-09   -4.341E-09   -4.396E-09   -4.446E-09
    -4.489E-09   -4.527E-09   -4.559E-09   -4.586E-09   -4.606E-09   -4.622E-09   -4.631E-09   -4.636E-09   -4.635E-09   -4.629E-09
    -4.618E-09   -4.602E-09   -4.581E-09   -4.555E-09   -4.525E-09   -4.490E-09   -4.451E-09   -4.407E-09   -4.361E-09   -4.310E-09
    -4.257E-09   -4.201E-09   -4.142E-09   -4.081E-09   -4.017E-09   -3.952E-09   -3.886E-09   -3.818E-09   -3.749E-09   -3.679E-09
    -3.609E-09   -3.538E-09   -3.468E-09   -3.398E-09   -3.328E-09   -3.260E-09   -3.192E-09   -3.126E-09   -3.061E-09   -2.998E-09
    -2.938E-09   -2.880E-09   -2.824E-09   -2.771E-09   -2.720E-09   -2.672E-09   -2.626E-09   -2.582E-09   -2.540E-09   -2.500E-09
    -2.462E-09   -2.426E-09   -2.392E-09   -2.359E-09   -2.328E-09   -2.299E-09   -2.271E-09   -2.244E-09   -2.219E-09   -2.195E-09
    -2.172E-09   -2.151E-09   -2.130E-09   -2.111E-09   -2.092E-09   -2.074E-09   -2.056E-09   -2.040E-09   -2.024E-09   -2.008E-09
    -1.993E-09   -1.978E-09   -1.964E-09   -1.950E-09   -1.936E-09   -1.923E-09   -1.910E-09   -1.898E-09   -1.885E-09   -1.873E-09
    -1.862E-09   -1.850E-09   -1.839E-09   -1.827E-09   -1.817E-09   -1.806E-09   -1.795E-09   -1.784E-09   -1.774E-09   -1.763E-09
    -1.753E-09   -1.743E-09   -1.732E-09   -1.722E-09   -1.712E-09   -1.701E-09   -1.691E-09   -1.680E-09   -1.670E-09   -1.659E-09
    -1.648E-09   -1.637E-09   -1.626E-09   -1.615E-09   -1.604E-09   -1.593E-09   -1.582E-09   -1.570E-09   -1.559E-09   -1.547E-09
    -1.535E-09   -1.524E-09   -1.512E-09   -1.500E-09   -1.488E-09   -1.475E-09   -1.463E-09   -1.451E-09   -1.438E-09   -1.426E-09
    -1.413E-09   -1.401E-09   -1.388E-09   -1.375E-09   -1.362E-09   -1.349E-09   -1.335E-09   -1.322E-09   -1.309E-09   -1.295E-09
    -1.282E-09   -1.268E-09   -1.255E-09   -1.241E-09   -1.227E-09   -1.213E-09   -1.199E-09   -1.186E-09   -1.172E-09   -1.158E-09
    -1.144E-09   -1.130E-09   -1.115E-09   -1.101E-09   -1.087E-09   -1.073E-09   -1.059E-09   -1.045E-09   -1.031E-09   -1.017E-09
    -1.003E-09   -9.889E-10   -9.749E-10
 Ala      Conc. = 9.83E-11
  -1.46597E-09 -1.41567E-09 -1.36720E-09 -1.32103E-09 -1.27778E-09 -1.23682E-09 -1.19898E-09 -1.16600E-09 -1.13332E-09 -1.10048E-09
  -1.07245E-09 -1.04308E-09 -1.01020E-09 -9.78441E-10 -9.45961E-10 -9.11662E-10 -8.76632E-10 -8.41391E-10 -8.06206E-10 -7.71240E-10
  -7.36607E-10 -7.02382E-10 -6.68639E-10 -6.35417E-10 -6.02760E-10 -5.70720E-10 -5.39321E-10 -5.08594E-10 -4.78577E-10 -4.49286E-10
  -4.20708E-10 -3.92821E-10 -3.65608E-10 -3.39048E-10 -3.13120E-10 -2.87803E-10 -2.63077E-10 -2.38922E-10 -2.15312E-10 -1.92227E-10
  -1.69650E-10 -1.47550E-10 -1.25915E-10 -1.04716E-10 -8.39370E-11 -6.35474E-11 -4.35325E-11 -2.38720E-11 -4.53223E-12  1.44986E-11
   3.32428E-11  5.17318E-11  6.99780E-11  8.80090E-11  1.05834E-10  1.23502E-10  1.41021E-10  1.58421E-10  1.75762E-10  1.93099E-10
   2.10491E-10  2.27992E-10  2.45661E-10  2.63555E-10  2.81730E-10  3.00243E-10  3.19151E-10  3.38512E-10  3.58381E-10  3.78818E-10
   3.99879E-10  4.21620E-10  4.44101E-10  4.67377E-10  4.91508E-10  5.16551E-10  5.42564E-10  5.69606E-10  5.97736E-10  6.27011E-10
   6.57495E-10  6.89244E-10  7.22323E-10  7.56790E-10  7.92710E-10  8.30091E-10  8.68883E-10  9.09039E-10  9.50514E-10  9.93268E-10
   1.03727E-09  1.08251E-09  1.12898E-09  1.17672E-09  1.22580E-09  1.27640E-09  1.32886E-09  1.38391E-09  1.44330E-09  1.51270E-09
   1.60221E-09  1.69490E-09  1.79482E-09  1.91916E-09  2.05357E-09  2.18092E-09  2.28406E-09  2.35388E-09  2.39232E-09  2.40317E-09
   2.38876E-09  2.36383E-09  2.34854E-09  2.31986E-09  2.30324E-09  2.32656E-09  2.36237E-09  2.40284E-09  2.44524E-09  2.48830E-09
   2.53135E-09  2.57395E-09  2.61582E-09  2.65671E-09  2.69646E-09  2.73491E-09  2.77192E-09  2.80737E-09  2.84115E-09  2.87313E-09
   2.90321E-09  2.93129E-09  2.95727E-09  2.98104E-09  3.00251E-09  3.02158E-09  3.03815E-09  3.05213E-09  3.06341E-09  3.07191E-09
   3.07751E-09  3.08009E-09  3.07950E-09  3.07556E-09  3.06813E-09  3.05705E-09  3.04217E-09  3.02333E-09  3.00037E-09  2.97313E-09
   2.94148E-09  2.90524E-09  2.86427E-09  2.81842E-09  2.76753E-09  2.71145E-09  2.65003E-09  2.58313E-09  2.51060E-09  2.43231E-09
   2.34813E-09  2.25794E-09  2.16170E-09  2.05936E-09  1.95113E-09  1.83775E-09  1.72290E-09  1.61589E-09  1.50733E-09  1.39607E-09
   1.28478E-09  1.17308E-09  1.05255E-09  9.07484E-10  7.25044E-10  5.06222E-10  2.65246E-10  2.04348E-11 -2.08250E-10 -4.05585E-10
  -5.96149E-10 -7.84871E-10 -9.72636E-10 -1.15944E-09 -1.34498E-09 -1.52889E-09 -1.71071E-09 -1.88997E-09 -2.06618E-09 -2.23883E-09
  -2.40745E-09 -2.57151E-09 -2.73052E-09 -2.88394E-09 -3.03129E-09 -3.17205E-09 -3.30583E-09 -3.43263E-09 -3.55254E-09 -3.66565E-09
  -3.77203E-09 -3.87176E-09 -3.96493E-09 -4.05161E-09 -4.13190E-09 -4.20587E-09 -4.27360E-09 -4.33518E-09 -4.39068E-09 -4.44019E-09
  -4.48380E-09 -4.52156E-09 -4.55359E-09 -4.57994E-09 -4.60072E-09 -4.61599E-09 -4.62583E-09 -4.63034E-09 -4.62958E-09 -4.62365E-09
  -4.61262E-09 -4.59657E-09 -4.57559E-09 -4.54975E-09 -4.51921E-09 -4.48420E-09 -4.44498E-09 -4.40183E-09 -4.35502E-09 -4.30479E-09
  -4.25143E-09 -4.19519E-09 -4.13634E-09 -4.07515E-09 -4.01187E-09 -3.94678E-09 -3.88013E-09 -3.81221E-09 -3.74324E-09 -3.67354E-09
  -3.60334E-09 -3.53291E-09 -3.46252E-09 -3.39243E-09 -3.32290E-09 -3.25421E-09 -3.18661E-09 -3.12038E-09 -3.05577E-09 -2.99305E-09
  -2.93248E-09 -2.87434E-09 -2.81873E-09 -2.76559E-09 -2.71486E-09 -2.66645E-09 -2.62029E-09 -2.57630E-09 -2.53440E-09 -2.49452E-09
  -2.45658E-09 -2.42050E-09 -2.38622E-09 -2.35364E-09 -2.32271E-09 -2.29333E-09 -2.26542E-09 -2.23893E-09 -2.21377E-09 -2.18986E-09
  -2.16712E-09 -2.14549E-09 -2.12487E-09 -2.10520E-09 -2.08641E-09 -2.06840E-09 -2.05112E-09 -2.03448E-09 -2.01840E-09 -2.00281E-09
  -1.98766E-09 -1.97294E-09 -1.95862E-09 -1.94468E-09 -1.93111E-09 -1.91789E-09 -1.90499E-09 -1.89239E-09 -1.88009E-09 -1.86805E-09
  -1.85626E-09 -1.84470E-09 -1.83335E-09 -1.82218E-09 -1.81119E-09 -1.80035E-09 -1.78965E-09 -1.77905E-09 -1.76856E-09 -1.75812E-09
  -1.74775E-09 -1.73741E-09 -1.72709E-09 -1.71677E-09 -1.70642E-09 -1.69603E-09 -1.68558E-09 -1.67505E-09 -1.66443E-09 -1.65372E-09
  -1.64292E-09 -1.63204E-09 -1.62107E-09 -1.61001E-09 -1.59886E-09 -1.58762E-09 -1.57629E-09 -1.56487E-09 -1.55336E-09 -1.54176E-09
  -1.53007E-09 -1.51828E-09 -1.50640E-09 -1.49443E-09 -1.48237E-09 -1.47022E-09 -1.45797E-09 -1.44562E-09 -1.43319E-09 -1.42066E-09
  -1.40803E-09 -1.39531E-09 -1.38250E-09 -1.36958E-09 -1.35658E-09 -1.34347E-09 -1.33028E-09 -1.31699E-09 -1.30362E-09 -1.29018E-09
  -1.27666E-09 -1.26307E-09 -1.24941E-09 -1.23569E-09 -1.22192E-09 -1.20810E-09 -1.19423E-09 -1.18032E-09 -1.16638E-09 -1.15240E-09
  -1.13839E-09 -1.12436E-09 -1.11030E-09 -1.09624E-09 -1.08217E-09 -1.06809E-09 -1.05401E-09 -1.03994E-09 -1.02587E-09 -1.01182E-09
  -9.97785E-10 -9.83777E-10 -9.69791E-10
 Asp      Conc. = 4.36E-10
  -9.93509E-10 -1.00420E-09 -1.02040E-09 -1.05072E-09 -1.08492E-09 -1.12343E-09 -1.14532E-09 -1.14986E-09 -1.13193E-09 -1.10493E-09
  -1.07333E-09 -1.03909E-09 -1.00333E-09 -9.66811E-10 -9.30178E-10 -8.93589E-10 -8.57077E-10 -8.20723E-10 -7.84592E-10 -7.48738E-10
  -7.13211E-10 -6.78042E-10 -6.43270E-10 -6.08903E-10 -5.74953E-10 -5.41438E-10 -5.08336E-10 -4.75629E-10 -4.43282E-10 -4.11221E-10
  -3.79304E-10 -3.47323E-10 -3.14983E-10 -2.81812E-10 -2.46980E-10 -2.08761E-10 -1.63044E-10 -1.13452E-10 -5.63747E-11  1.71668E-12
   5.89720E-11  1.13533E-10  1.64136E-10  2.12648E-10  2.57637E-10  3.17190E-10  3.84489E-10  4.74199E-10  6.10072E-10  7.57236E-10
   8.74907E-10  9.18022E-10  8.80594E-10  7.88007E-10  6.83912E-10  6.05090E-10  5.49914E-10  5.23613E-10  4.77450E-10  4.26568E-10
   4.13147E-10  4.21253E-10  4.33514E-10  4.47071E-10  4.51984E-10  4.42894E-10  4.28917E-10  4.28295E-10  4.34824E-10  4.45585E-10
   4.59255E-10  4.75143E-10  4.92864E-10  5.12188E-10  5.32978E-10  5.55156E-10  5.78679E-10  6.03530E-10  6.29709E-10  6.57228E-10
   6.86112E-10  7.16387E-10  7.48091E-10  7.81258E-10  8.15932E-10  8.52097E-10  8.89686E-10  9.28625E-10  9.68845E-10  1.01028E-09
   1.05285E-09  1.09650E-09  1.14116E-09  1.18677E-09  1.23325E-09  1.28054E-09  1.32858E-09  1.37730E-09  1.42663E-09  1.47652E-09
   1.52689E-09  1.57769E-09  1.62885E-09  1.68031E-09  1.73199E-09  1.78385E-09  1.83581E-09  1.88781E-09  1.93980E-09  1.99169E-09
   2.04344E-09  2.09498E-09  2.14624E-09  2.19715E-09  2.24760E-09  2.29751E-09  2.34678E-09  2.39532E-09  2.44303E-09  2.48982E-09
   2.53560E-09  2.58027E-09  2.62373E-09  2.66590E-09  2.70667E-09  2.74597E-09  2.78368E-09  2.81972E-09  2.85400E-09  2.88642E-09
   2.91689E-09  2.94531E-09  2.97159E-09  2.99564E-09  3.01736E-09  3.03666E-09  3.05345E-09  3.06764E-09  3.07912E-09  3.08782E-09
   3.09362E-09  3.09640E-09  3.09600E-09  3.09227E-09  3.08505E-09  3.07420E-09  3.05955E-09  3.04096E-09  3.01828E-09  2.99135E-09
   2.96004E-09  2.92417E-09  2.88363E-09  2.83826E-09  2.78792E-09  2.73249E-09  2.67183E-09  2.60583E-09  2.53441E-09  2.45748E-09
   2.37502E-09  2.28709E-09  2.19387E-09  2.09585E-09  1.99423E-09  1.89245E-09  1.80429E-09  1.77636E-09  1.76815E-09  1.77069E-09
   1.79382E-09  1.83645E-09  1.86280E-09  1.80213E-09  1.59206E-09  1.22971E-09  7.73734E-10  3.03105E-10 -9.62115E-11 -3.45553E-10
  -5.54932E-10 -7.52953E-10 -9.46105E-10 -1.13634E-09 -1.32420E-09 -1.50976E-09 -1.69279E-09 -1.87297E-09 -2.04987E-09 -2.22308E-09
  -2.39214E-09 -2.55656E-09 -2.71586E-09 -2.86952E-09 -3.01707E-09 -3.15800E-09 -3.29192E-09 -3.41884E-09 -3.53886E-09 -3.65205E-09
  -3.75851E-09 -3.85830E-09 -3.95153E-09 -4.03827E-09 -4.11860E-09 -4.19261E-09 -4.26038E-09 -4.32199E-09 -4.37752E-09 -4.42705E-09
  -4.47068E-09 -4.50847E-09 -4.54051E-09 -4.56688E-09 -4.58767E-09 -4.60295E-09 -4.61281E-09 -4.61733E-09 -4.61658E-09 -4.61066E-09
  -4.59964E-09 -4.58360E-09 -4.56262E-09 -4.53679E-09 -4.50625E-09 -4.47125E-09 -4.43204E-09 -4.38890E-09 -4.34208E-09 -4.29186E-09
