 LCModel (Version 6.3-1R) Copyright: S.W. Provencher.          Ref.: Magn. Reson. Med. 30:672-679 (1993).                
 onepulse 21x19_ftSpec_smooth_lcm
 26 lines in following concentration table = NCONC+1
    Conc.  %SD   /Cr    Metabolite                                         
 5.46E-11 344%   0.000 Ala                                                 
 5.26E-10  74%   0.000 Asp                                                 
    0.000 999%   0.000 Cr                                                  
 2.64E-09  14%   0.000 GABA                                                
 1.72E-09  18%   0.000 Glc                                                 
    0.000 999%   0.000 Gln                                                 
 4.38E-10  91%   0.000 Glu                                                 
    0.000 999%   0.000 Glyc                                                
    0.000 999%   0.000 GPC                                                 
 1.28E-10 163%   0.000 GSH                                                 
 2.38E-10  92%   0.000 Ins                                                 
    0.000 999%   0.000 Lac                                                 
    0.000 999%   0.000 NAAG                                                
 1.01E-09  17%   0.000 NAA                                                 
 1.00E-10  52%   0.000 PCh                                                 
    0.000 999%   0.000 PCr                                                 
    0.000 999%   0.000 PE                                                  
    0.000 999%   0.000 Scyllo                                              
    0.000 999%   0.000 Ser                                                 
    0.000 999%   0.000 Tau                                                 
 1.00E-10  52%   0.000 GPC+PCh                                             
 1.01E-09  17%   0.000 NAA+NAAG                                            
 2.38E-10  92%   0.000 Ins+Glyc                                            
    0.000 999%   0.000 Cr+PCr                                              
 4.38E-10  91%   0.000 Glu+Gln                                             
   6 lines in following misc. output table
  FWHM = 0.067 ppm    S/N =   4                                            
  Data shift = 0.324 ppm                                                   
  Ph:  41 deg      30.4 deg/ppm                                            
  alphaB,S = 1.6E-01,   7.7E+01                                            
   16 spline knots.   Ns = 5(1)                                            
  ( 7) 2 infls.   ( 3) 1 extrs.                                            
  363 points on ppm-axis = NY
      4.250000     4.238821     4.227641     4.216462     4.205282     4.194103     4.182923     4.171744     4.160564     4.149385
      4.138206     4.127026     4.115847     4.104667     4.093488     4.082308     4.071129     4.059949     4.048770     4.037591
      4.026411     4.015232     4.004052     3.992873     3.981693     3.970514     3.959334     3.948155     3.936975     3.925796
      3.914617     3.903437     3.892258     3.881078     3.869899     3.858719     3.847540     3.836360     3.825181     3.814002
      3.802822     3.791643     3.780463     3.769284     3.758104     3.746925     3.735745     3.724566     3.713387     3.702207
      3.691028     3.679848     3.668669     3.657489     3.646310     3.635130     3.623951     3.612772     3.601592     3.590413
      3.579233     3.568054     3.556874     3.545695     3.534515     3.523336     3.512156     3.500977     3.489798     3.478618
      3.467439     3.456259     3.445080     3.433900     3.422721     3.411541     3.400362     3.389183     3.378003     3.366824
      3.355644     3.344465     3.333285     3.322106     3.310926     3.299747     3.288568     3.277388     3.266209     3.255029
      3.243850     3.232670     3.221491     3.210311     3.199132     3.187953     3.176773     3.165594     3.154414     3.143235
      3.132055     3.120876     3.109696     3.098517     3.087337     3.076158     3.064979     3.053799     3.042620     3.031440
      3.020261     3.009081     2.997902     2.986722     2.975543     2.964364     2.953184     2.942005     2.930825     2.919646
      2.908466     2.897287     2.886107     2.874928     2.863749     2.852569     2.841390     2.830210     2.819031     2.807851
      2.796672     2.785492     2.774313     2.763134     2.751954     2.740775     2.729595     2.718416     2.707236     2.696057
      2.684877     2.673698     2.662519     2.651339     2.640160     2.628980     2.617801     2.606621     2.595442     2.584262
      2.573083     2.561903     2.550724     2.539545     2.528365     2.517186     2.506006     2.494827     2.483647     2.472468
      2.461288     2.450109     2.438930     2.427750     2.416571     2.405391     2.394212     2.383032     2.371853     2.360673
      2.349494     2.338315     2.327135     2.315956     2.304776     2.293597     2.282417     2.271238     2.260058     2.248879
      2.237700     2.226520     2.215341     2.204161     2.192982     2.181802     2.170623     2.159443     2.148264     2.137084
      2.125905     2.114726     2.103546     2.092367     2.081187     2.070008     2.058828     2.047649     2.036469     2.025290
      2.014111     2.002931     1.991752     1.980572     1.969393     1.958213     1.947034     1.935854     1.924675     1.913496
      1.902316     1.891137     1.879957     1.868778     1.857598     1.846419     1.835239     1.824060     1.812881     1.801701
      1.790522     1.779342     1.768163     1.756983     1.745804     1.734624     1.723445     1.712265     1.701086     1.689907
      1.678727     1.667548     1.656368     1.645189     1.634009     1.622830     1.611650     1.600471     1.589292     1.578112
      1.566933     1.555753     1.544574     1.533394     1.522215     1.511035     1.499856     1.488677     1.477497     1.466318
      1.455138     1.443959     1.432779     1.421600     1.410420     1.399241     1.388062     1.376882     1.365703     1.354523
      1.343344     1.332164     1.320985     1.309805     1.298626     1.287446     1.276267     1.265088     1.253908     1.242729
      1.231549     1.220370     1.209190     1.198011     1.186831     1.175652     1.164473     1.153293     1.142114     1.130934
      1.119755     1.108575     1.097396     1.086216     1.075037     1.063858     1.052678     1.041499     1.030319     1.019140
      1.007960     0.996781     0.985601     0.974422     0.963243     0.952063     0.940884     0.929704     0.918525     0.907345
      0.896166     0.884986     0.873807     0.862628     0.851448     0.840269     0.829089     0.817910     0.806730     0.795551
      0.784371     0.773192     0.762012     0.750833     0.739654     0.728474     0.717295     0.706115     0.694936     0.683756
      0.672577     0.661397     0.650218     0.639039     0.627859     0.616680     0.605500     0.594321     0.583141     0.571962
      0.560782     0.549603     0.538424     0.527244     0.516065     0.504885     0.493706     0.482526     0.471347     0.460167
      0.448988     0.437809     0.426629     0.415450     0.404270     0.393091     0.381911     0.370732     0.359552     0.348373
      0.337193     0.326014     0.314835     0.303655     0.292476     0.281296     0.270117     0.258937     0.247758     0.236578
      0.225399     0.214220     0.203040
 NY phased data points follow
   2.15891E-09  3.70412E-09  7.55835E-09  8.59313E-09  1.07536E-08  9.56473E-09  8.52212E-09  7.34893E-09  6.45801E-09  5.16477E-09
   5.74243E-09  4.81170E-09  5.18647E-09  5.06077E-09  6.34013E-09  6.00149E-09  6.79631E-09  7.51194E-09  7.94980E-09  7.35406E-09
   7.64541E-09  6.84184E-09  7.37585E-09  6.97490E-09  5.91320E-09  6.10585E-09  6.37495E-09  7.35193E-09  7.87341E-09  7.52596E-09
   7.18663E-09  6.18718E-09  6.20000E-09  7.14574E-09  8.67782E-09  9.99166E-09  1.05876E-08  9.88371E-09  8.69625E-09  6.79647E-09
   6.06525E-09  5.42098E-09  5.62298E-09  3.78287E-09  5.28412E-09  4.65447E-09  4.37395E-09  4.47453E-09  4.93638E-09  3.73452E-09
   3.07654E-09  3.02446E-09  3.98933E-09  3.47217E-09  4.73803E-09  4.28878E-09  3.91830E-09  2.98486E-09  3.73533E-09  2.95110E-09
   2.92960E-09  4.18110E-09  4.88023E-09  5.11400E-09  6.53890E-09  8.81532E-09  1.15235E-08  1.22934E-08  1.07707E-08  8.54905E-09
   6.88643E-09  5.32254E-09  5.38190E-09  4.33041E-09  3.30421E-09  3.07427E-09  3.53297E-09  2.62351E-09  3.40310E-09  3.85389E-09
   5.13321E-09  8.12394E-09  1.18849E-08  1.44433E-08  1.32282E-08  1.02713E-08  9.54974E-09  7.79111E-09  7.82284E-09  6.43193E-09
   6.39656E-09  6.07627E-09  5.09157E-09  5.56637E-09  5.44788E-09  4.47283E-09  4.29245E-09  3.33489E-09  4.18142E-09  2.97982E-09
   2.72446E-09  2.87812E-09  3.19795E-09  3.69897E-09  3.31204E-09  4.08006E-09  3.32408E-09  3.57302E-09  3.82752E-09  3.43772E-09
   3.42795E-09  2.43500E-09  2.26524E-09  2.04107E-09  2.96847E-09  2.87863E-09  3.84652E-09  3.13859E-09  4.27656E-09  4.08322E-09
   4.11069E-09  3.96170E-09  4.08897E-09  3.54296E-09  3.52090E-09  2.65516E-09  2.21090E-09  2.34990E-09  2.32557E-09  1.99689E-09
   2.48345E-09  3.57043E-09  3.05600E-09  2.74255E-09  3.37659E-09  3.81220E-09  3.02231E-09  3.03154E-09  2.91085E-09  2.71850E-09
   3.09510E-09  3.80165E-09  4.27953E-09  5.13375E-09  5.15597E-09  4.40985E-09  4.16922E-09  4.78078E-09  5.08797E-09  4.96796E-09
   5.38799E-09  4.90487E-09  4.19655E-09  4.52026E-09  4.95795E-09  4.50216E-09  4.64569E-09  4.60340E-09  5.00089E-09  5.22237E-09
   5.99648E-09  6.10923E-09  6.11678E-09  6.11559E-09  6.69935E-09  7.05314E-09  7.61648E-09  8.16598E-09  8.18967E-09  8.89479E-09
   1.12591E-08  1.28181E-08  1.52911E-08  1.74183E-08  1.78971E-08  1.43891E-08  1.11880E-08  7.35390E-09  5.54744E-09  4.46939E-09
   4.95514E-09  3.20890E-09  3.65986E-09  2.24785E-09  2.62024E-09  1.66240E-09  1.64517E-09  1.07020E-09  8.80606E-10  6.70903E-10
   4.54195E-10 -2.12517E-10 -7.61297E-10 -1.61536E-09 -2.34022E-09 -2.51934E-09 -3.88064E-09 -4.61071E-09 -5.84072E-09 -6.72103E-09
  -7.79219E-09 -8.42055E-09 -9.90110E-09 -1.03167E-08 -1.10687E-08 -1.15221E-08 -1.22696E-08 -1.20736E-08 -1.19575E-08 -1.18774E-08
  -1.12199E-08 -1.07776E-08 -9.18816E-09 -7.70554E-09 -7.30758E-09 -5.67925E-09 -4.35995E-09 -3.47678E-09 -3.21975E-09 -2.35460E-09
  -2.35650E-09 -2.02202E-09 -2.70550E-09 -2.69677E-09 -2.22587E-09 -3.32350E-09 -2.90281E-09 -2.10357E-09 -2.79971E-09 -2.37266E-09
  -2.55082E-09 -2.15838E-09 -1.98453E-09 -2.47958E-09 -1.97427E-09 -3.05039E-09 -2.89485E-09 -2.72308E-09 -2.33962E-09 -2.10925E-09
  -2.79396E-09 -1.48995E-09 -1.66953E-09 -1.65306E-09 -2.18873E-09 -2.50074E-09 -2.18503E-09 -2.39646E-09 -2.42650E-09 -2.45295E-09
  -2.26136E-09 -1.75909E-09 -1.69424E-09 -1.50547E-09 -1.49987E-09 -1.46405E-09 -1.26221E-09 -1.63412E-09 -1.71232E-09 -2.28484E-09
  -1.92001E-09 -1.89787E-09 -2.28745E-09 -3.39586E-09 -2.48738E-09 -2.44753E-09 -1.47534E-09 -1.97959E-09 -1.30812E-09 -1.34330E-09
  -7.97740E-10 -1.00595E-09 -1.04608E-09 -7.00407E-10 -1.24559E-09 -9.82543E-10 -8.86574E-10 -1.66244E-09 -1.66802E-09 -2.32304E-09
  -1.86351E-09 -1.72337E-09 -1.95644E-09 -2.18951E-09 -1.75199E-09 -2.37363E-09 -1.64939E-09 -1.88825E-09 -1.16850E-09 -1.75056E-09
  -9.10296E-10 -1.74559E-09 -1.75034E-09 -1.53833E-09 -1.21559E-09 -1.43569E-09 -1.81549E-09 -1.49270E-09 -1.16926E-09 -1.81221E-09
  -1.75240E-09 -9.97301E-10 -1.49689E-09 -1.57577E-09 -1.20717E-09 -1.32054E-09 -1.01927E-09 -1.45978E-09 -1.19457E-09 -1.30781E-09
  -1.25005E-09 -1.82570E-09 -1.32453E-09 -1.01287E-09 -8.59385E-10 -1.28373E-09 -1.23964E-09 -1.02523E-09 -1.17454E-09 -1.66388E-09
  -7.14258E-10 -1.54635E-09 -1.10275E-09 -1.00082E-09 -1.49188E-09 -7.69207E-10 -1.15782E-09 -1.26665E-09 -9.09462E-10 -1.49121E-09
  -5.07566E-10 -1.12760E-09 -1.34188E-09 -1.55774E-09 -1.05370E-09 -1.46043E-09 -9.38669E-10 -1.57103E-09 -1.25407E-09 -9.51880E-10
  -8.73857E-10 -1.11153E-09 -1.01757E-09 -3.19903E-10 -1.10304E-09 -1.05269E-09 -5.70864E-10 -1.29747E-09 -4.17854E-10 -1.09803E-09
  -8.01016E-10 -9.58559E-10 -1.08233E-09 -5.66138E-10 -7.51317E-10 -5.51068E-10 -8.36697E-10 -1.06798E-09 -8.54101E-10 -7.95202E-10
  -9.05645E-10 -1.23239E-09 -6.16531E-10
 NY points of the fit to the data follow
   5.37142E-09  6.06848E-09  6.83433E-09  7.56446E-09  8.05594E-09  8.16288E-09  7.83855E-09  7.19827E-09  6.48078E-09  5.77958E-09
   5.37654E-09  5.24269E-09  5.28693E-09  5.47050E-09  5.79230E-09  6.18010E-09  6.60586E-09  7.07555E-09  7.53992E-09  7.96406E-09
   8.31819E-09  8.35278E-09  7.93053E-09  7.23738E-09  6.44191E-09  5.75571E-09  5.49097E-09  5.79817E-09  6.46240E-09  7.05495E-09
   7.44318E-09  7.84302E-09  8.09275E-09  8.12572E-09  8.20765E-09  8.48015E-09  8.72104E-09  8.68677E-09  8.34074E-09  7.83344E-09
   7.26336E-09  6.31816E-09  5.32521E-09  4.75453E-09  4.14406E-09  3.53325E-09  3.27308E-09  3.20009E-09  3.29339E-09  3.44675E-09
   3.58109E-09  3.62601E-09  3.60035E-09  3.54192E-09  3.52665E-09  3.60316E-09  3.74734E-09  3.88234E-09  3.91922E-09  3.92681E-09
   4.10714E-09  4.50521E-09  5.08084E-09  5.93230E-09  6.98437E-09  7.87920E-09  8.55866E-09  9.04424E-09  9.25526E-09  9.06328E-09
   8.46349E-09  7.52019E-09  6.47196E-09  5.43530E-09  4.45639E-09  3.94741E-09  3.90295E-09  4.35168E-09  5.13685E-09  6.19111E-09
   7.42597E-09  8.93633E-09  1.05667E-08  1.17031E-08  1.19924E-08  1.14202E-08  1.00740E-08  8.35911E-09  6.89401E-09  6.43210E-09
   6.30091E-09  6.14553E-09  5.75879E-09  5.37242E-09  5.08012E-09  4.60901E-09  4.15553E-09  3.88374E-09  3.62960E-09  3.41662E-09
   3.29584E-09  3.22608E-09  3.19246E-09  3.19649E-09  3.22210E-09  3.25578E-09  3.28771E-09  3.31140E-09  3.32390E-09  3.32335E-09
   3.31131E-09  3.29858E-09  3.29541E-09  3.28347E-09  3.27803E-09  3.29815E-09  3.32722E-09  3.36030E-09  3.39556E-09  3.43210E-09
   3.46936E-09  3.50691E-09  3.54443E-09  3.58166E-09  3.61838E-09  3.65439E-09  3.68952E-09  3.72361E-09  3.75650E-09  3.78804E-09
   3.81810E-09  3.84655E-09  3.87325E-09  3.89807E-09  3.92090E-09  3.94160E-09  3.96006E-09  3.97618E-09  3.98984E-09  4.00095E-09
   4.00937E-09  4.01495E-09  4.01749E-09  4.01683E-09  4.01281E-09  4.00524E-09  3.99399E-09  3.97887E-09  3.95975E-09  3.93650E-09
   3.90901E-09  3.87721E-09  3.84103E-09  3.80046E-09  3.75556E-09  3.70645E-09  3.65339E-09  3.59683E-09  3.53750E-09  3.47663E-09
   3.41626E-09  3.36000E-09  3.31466E-09  3.29483E-09  3.33944E-09  3.60159E-09  4.40954E-09  5.85583E-09  7.70821E-09  9.85098E-09
   1.23565E-08  1.50279E-08  1.72300E-08  1.81241E-08  1.71316E-08  1.42653E-08  1.01611E-08  5.98270E-09  3.00967E-09  1.53705E-09
   8.84235E-10  4.55594E-10  1.16369E-10 -1.77380E-10 -4.44280E-10 -6.93503E-10 -9.29933E-10 -1.15631E-09 -1.37415E-09 -1.58431E-09
  -1.78721E-09 -1.98297E-09 -2.17153E-09 -2.35269E-09 -2.52618E-09 -2.69166E-09 -2.84886E-09 -2.99791E-09 -3.13898E-09 -3.27223E-09
  -3.39780E-09 -3.51580E-09 -3.62637E-09 -3.72960E-09 -3.82560E-09 -3.91447E-09 -3.99630E-09 -4.07117E-09 -4.13916E-09 -4.20037E-09
  -4.25488E-09 -4.30275E-09 -4.34406E-09 -4.37891E-09 -4.40735E-09 -4.42947E-09 -4.44533E-09 -4.45500E-09 -4.45857E-09 -4.45609E-09
  -4.44764E-09 -4.43329E-09 -4.41311E-09 -4.38717E-09 -4.35561E-09 -4.31873E-09 -4.27684E-09 -4.23025E-09 -4.17929E-09 -4.12425E-09
  -4.06546E-09 -4.00323E-09 -3.93787E-09 -3.86970E-09 -3.79902E-09 -3.72616E-09 -3.65141E-09 -3.57510E-09 -3.49753E-09 -3.41903E-09
  -3.33991E-09 -3.26046E-09 -3.18101E-09 -3.10187E-09 -3.02335E-09 -2.94576E-09 -2.86942E-09 -2.79463E-09 -2.72171E-09 -2.65098E-09
  -2.58273E-09 -2.51730E-09 -2.45480E-09 -2.39518E-09 -2.33834E-09 -2.28421E-09 -2.23269E-09 -2.18369E-09 -2.13713E-09 -2.09292E-09
  -2.05097E-09 -2.01119E-09 -1.97350E-09 -1.93781E-09 -1.90403E-09 -1.87207E-09 -1.84183E-09 -1.81325E-09 -1.78624E-09 -1.76069E-09
  -1.73651E-09 -1.71365E-09 -1.69198E-09 -1.67143E-09 -1.65192E-09 -1.63334E-09 -1.61563E-09 -1.59868E-09 -1.58242E-09 -1.56674E-09
  -1.55161E-09 -1.53700E-09 -1.52290E-09 -1.50927E-09 -1.49612E-09 -1.48341E-09 -1.47113E-09 -1.45925E-09 -1.44776E-09 -1.43664E-09
  -1.42587E-09 -1.41543E-09 -1.40531E-09 -1.39547E-09 -1.38592E-09 -1.37661E-09 -1.36754E-09 -1.35869E-09 -1.35003E-09 -1.34155E-09
  -1.33323E-09 -1.32505E-09 -1.31699E-09 -1.30904E-09 -1.30117E-09 -1.29335E-09 -1.28559E-09 -1.27784E-09 -1.27012E-09 -1.26241E-09
  -1.25470E-09 -1.24701E-09 -1.23932E-09 -1.23162E-09 -1.22392E-09 -1.21621E-09 -1.20849E-09 -1.20075E-09 -1.19300E-09 -1.18522E-09
  -1.17741E-09 -1.16958E-09 -1.16171E-09 -1.15380E-09 -1.14585E-09 -1.13787E-09 -1.12983E-09 -1.12174E-09 -1.11359E-09 -1.10540E-09
  -1.09713E-09 -1.08880E-09 -1.08040E-09 -1.07192E-09 -1.06338E-09 -1.05475E-09 -1.04604E-09 -1.03726E-09 -1.02842E-09 -1.01951E-09
  -1.01055E-09 -1.00153E-09 -9.92458E-10 -9.83345E-10 -9.74194E-10 -9.65004E-10 -9.55788E-10 -9.46544E-10 -9.37280E-10 -9.27999E-10
  -9.18704E-10 -9.09404E-10 -9.00100E-10 -8.90799E-10 -8.81504E-10 -8.72221E-10 -8.62954E-10 -8.53704E-10 -8.44480E-10 -8.35289E-10
  -8.26131E-10 -8.17014E-10 -8.07935E-10
 NY background values follow
    -3.472E-10   -3.296E-10   -3.121E-10   -2.947E-10   -2.774E-10   -2.601E-10   -2.430E-10   -2.260E-10   -2.092E-10   -1.925E-10
    -1.759E-10   -1.596E-10   -1.434E-10   -1.274E-10   -1.116E-10   -9.608E-11   -8.075E-11   -6.566E-11   -5.083E-11   -3.626E-11
    -2.197E-11   -7.965E-12    5.739E-12    1.913E-11    3.221E-11    4.495E-11    5.734E-11    6.938E-11    8.105E-11    9.235E-11
     1.033E-10    1.139E-10    1.242E-10    1.343E-10    1.441E-10    1.536E-10    1.630E-10    1.722E-10    1.812E-10    1.900E-10
     1.988E-10    2.075E-10    2.161E-10    2.246E-10    2.332E-10    2.417E-10    2.503E-10    2.589E-10    2.677E-10    2.765E-10
     2.854E-10    2.945E-10    3.038E-10    3.132E-10    3.229E-10    3.328E-10    3.430E-10    3.535E-10    3.644E-10    3.756E-10
     3.872E-10    3.993E-10    4.119E-10    4.251E-10    4.388E-10    4.532E-10    4.682E-10    4.840E-10    5.005E-10    5.178E-10
     5.359E-10    5.550E-10    5.749E-10    5.959E-10    6.178E-10    6.407E-10    6.648E-10    6.900E-10    7.164E-10    7.439E-10
     7.728E-10    8.029E-10    8.344E-10    8.672E-10    9.015E-10    9.372E-10    9.743E-10    1.013E-09    1.052E-09    1.093E-09
     1.135E-09    1.178E-09    1.222E-09    1.267E-09    1.314E-09    1.360E-09    1.408E-09    1.457E-09    1.506E-09    1.556E-09
     1.607E-09    1.658E-09    1.709E-09    1.762E-09    1.814E-09    1.867E-09    1.920E-09    1.974E-09    2.027E-09    2.081E-09
     2.135E-09    2.189E-09    2.242E-09    2.296E-09    2.350E-09    2.403E-09    2.455E-09    2.508E-09    2.559E-09    2.610E-09
     2.660E-09    2.709E-09    2.757E-09    2.804E-09    2.850E-09    2.894E-09    2.937E-09    2.978E-09    3.017E-09    3.055E-09
     3.091E-09    3.124E-09    3.156E-09    3.186E-09    3.213E-09    3.238E-09    3.260E-09    3.280E-09    3.296E-09    3.310E-09
     3.322E-09    3.330E-09    3.334E-09    3.335E-09    3.333E-09    3.327E-09    3.316E-09    3.302E-09    3.282E-09    3.259E-09
     3.230E-09    3.197E-09    3.158E-09    3.114E-09    3.064E-09    3.009E-09    2.947E-09    2.880E-09    2.806E-09    2.725E-09
     2.638E-09    2.544E-09    2.443E-09    2.335E-09    2.219E-09    2.095E-09    1.964E-09    1.824E-09    1.677E-09    1.521E-09
     1.359E-09    1.190E-09    1.014E-09    8.339E-10    6.484E-10    4.586E-10    2.650E-10    6.826E-11   -1.312E-10   -3.326E-10
    -5.356E-10   -7.396E-10   -9.439E-10   -1.148E-09   -1.351E-09   -1.553E-09   -1.754E-09   -1.951E-09   -2.146E-09   -2.337E-09
    -2.524E-09   -2.706E-09   -2.883E-09   -3.054E-09   -3.219E-09   -3.377E-09   -3.527E-09   -3.670E-09   -3.805E-09   -3.933E-09
    -4.054E-09   -4.168E-09   -4.275E-09   -4.375E-09   -4.467E-09   -4.553E-09   -4.632E-09   -4.704E-09   -4.770E-09   -4.829E-09
    -4.881E-09   -4.927E-09   -4.966E-09   -4.999E-09   -5.026E-09   -5.046E-09   -5.060E-09   -5.068E-09   -5.071E-09   -5.067E-09
    -5.057E-09   -5.041E-09   -5.020E-09   -4.993E-09   -4.960E-09   -4.922E-09   -4.879E-09   -4.831E-09   -4.779E-09   -4.723E-09
    -4.663E-09   -4.600E-09   -4.534E-09   -4.465E-09   -4.393E-09   -4.320E-09   -4.244E-09   -4.167E-09   -4.089E-09   -4.009E-09
    -3.929E-09   -3.849E-09   -3.769E-09   -3.689E-09   -3.610E-09   -3.532E-09   -3.455E-09   -3.379E-09   -3.306E-09   -3.235E-09
    -3.166E-09   -3.100E-09   -3.037E-09   -2.976E-09   -2.919E-09   -2.864E-09   -2.812E-09   -2.763E-09   -2.716E-09   -2.671E-09
    -2.628E-09   -2.588E-09   -2.550E-09   -2.514E-09   -2.479E-09   -2.447E-09   -2.416E-09   -2.387E-09   -2.360E-09   -2.334E-09
    -2.309E-09   -2.286E-09   -2.264E-09   -2.243E-09   -2.223E-09   -2.204E-09   -2.185E-09   -2.168E-09   -2.151E-09   -2.135E-09
    -2.120E-09   -2.105E-09   -2.090E-09   -2.076E-09   -2.063E-09   -2.050E-09   -2.037E-09   -2.025E-09   -2.013E-09   -2.001E-09
    -1.990E-09   -1.979E-09   -1.969E-09   -1.959E-09   -1.949E-09   -1.939E-09   -1.929E-09   -1.920E-09   -1.911E-09   -1.902E-09
    -1.894E-09   -1.885E-09   -1.877E-09   -1.868E-09   -1.860E-09   -1.852E-09   -1.844E-09   -1.836E-09   -1.828E-09   -1.820E-09
    -1.812E-09   -1.804E-09   -1.796E-09   -1.788E-09   -1.780E-09   -1.771E-09   -1.763E-09   -1.755E-09   -1.747E-09   -1.739E-09
    -1.731E-09   -1.723E-09   -1.715E-09   -1.706E-09   -1.698E-09   -1.690E-09   -1.681E-09   -1.673E-09   -1.665E-09   -1.656E-09
    -1.647E-09   -1.639E-09   -1.630E-09   -1.621E-09   -1.612E-09   -1.603E-09   -1.594E-09   -1.585E-09   -1.576E-09   -1.567E-09
    -1.558E-09   -1.548E-09   -1.539E-09   -1.529E-09   -1.520E-09   -1.510E-09   -1.501E-09   -1.491E-09   -1.482E-09   -1.472E-09
    -1.463E-09   -1.453E-09   -1.443E-09   -1.434E-09   -1.424E-09   -1.414E-09   -1.405E-09   -1.395E-09   -1.386E-09   -1.376E-09
    -1.367E-09   -1.357E-09   -1.348E-09
 Ala      Conc. = 5.46E-11
  -3.11649E-10 -2.89095E-10 -2.67746E-10 -2.47491E-10 -2.28610E-10 -2.11010E-10 -1.95413E-10 -1.82633E-10 -1.69642E-10 -1.56498E-10
  -1.46620E-10 -1.35992E-10 -1.23096E-10 -1.11011E-10 -9.86402E-11 -8.51869E-11 -7.12811E-11 -5.72212E-11 -4.31613E-11 -2.91942E-11
  -1.53815E-11 -1.76614E-12  1.16154E-11  2.47400E-11  3.75853E-11  5.01270E-11  6.23515E-11  7.42429E-11  8.57843E-11  9.69703E-11
   1.07819E-10  1.18353E-10  1.28593E-10  1.38563E-10  1.48286E-10  1.57783E-10  1.67079E-10  1.76195E-10  1.85157E-10  1.93986E-10
   2.02706E-10  2.11342E-10  2.19915E-10  2.28450E-10  2.36969E-10  2.45499E-10  2.54060E-10  2.62677E-10  2.71375E-10  2.80175E-10
   2.89102E-10  2.98182E-10  3.07434E-10  3.16886E-10  3.26557E-10  3.36477E-10  3.46667E-10  3.57155E-10  3.67985E-10  3.79196E-10
   3.90831E-10  4.02933E-10  4.15541E-10  4.28699E-10  4.42448E-10  4.56830E-10  4.71886E-10  4.87659E-10  5.04190E-10  5.21522E-10
   5.39695E-10  5.58753E-10  5.78738E-10  5.99691E-10  6.21654E-10  6.44671E-10  6.68783E-10  6.94033E-10  7.20463E-10  7.48118E-10
   7.77038E-10  8.07269E-10  8.38854E-10  8.71838E-10  9.06262E-10  9.42131E-10  9.79397E-10  1.01801E-09  1.05794E-09  1.09913E-09
   1.14154E-09  1.18516E-09  1.22995E-09  1.27592E-09  1.32309E-09  1.37152E-09  1.42138E-09  1.47306E-09  1.52753E-09  1.58805E-09
   1.66056E-09  1.73363E-09  1.81042E-09  1.90268E-09  2.00061E-09  2.09444E-09  2.17703E-09  2.24395E-09  2.29389E-09  2.32628E-09
   2.34355E-09  2.35690E-09  2.37697E-09  2.38578E-09  2.39894E-09  2.43596E-09  2.48047E-09  2.52770E-09  2.57597E-09  2.62446E-09
   2.67272E-09  2.72043E-09  2.76738E-09  2.81338E-09  2.85827E-09  2.90192E-09  2.94418E-09  2.98493E-09  3.02406E-09  3.06145E-09
   3.09699E-09  3.13056E-09  3.16206E-09  3.19138E-09  3.21840E-09  3.24303E-09  3.26515E-09  3.28465E-09  3.30144E-09  3.31540E-09
   3.32642E-09  3.33434E-09  3.33897E-09  3.34011E-09  3.33758E-09  3.33119E-09  3.32075E-09  3.30606E-09  3.28694E-09  3.26319E-09
   3.23464E-09  3.20108E-09  3.16233E-09  3.11821E-09  3.06852E-09  3.01307E-09  2.95168E-09  2.88416E-09  2.81034E-09  2.73002E-09
   2.64304E-09  2.54922E-09  2.44843E-09  2.34053E-09  2.22554E-09  2.10375E-09  1.97722E-09  1.85141E-09  1.71968E-09  1.58175E-09
   1.44037E-09  1.29584E-09  1.14375E-09  9.76577E-10  7.88109E-10  5.78043E-10  3.51547E-10  1.17852E-10 -1.09652E-10 -3.19303E-10
  -5.25567E-10 -7.31234E-10 -9.36611E-10 -1.14145E-09 -1.34531E-09 -1.54773E-09 -1.74817E-09 -1.94610E-09 -2.14096E-09 -2.33221E-09
  -2.51928E-09 -2.70162E-09 -2.87867E-09 -3.04984E-09 -3.21459E-09 -3.37237E-09 -3.52272E-09 -3.66564E-09 -3.80119E-09 -3.92944E-09
  -4.05046E-09 -4.16430E-09 -4.27104E-09 -4.37075E-09 -4.46349E-09 -4.54932E-09 -4.62832E-09 -4.70055E-09 -4.76606E-09 -4.82494E-09
  -4.87725E-09 -4.92305E-09 -4.96240E-09 -4.99539E-09 -5.02206E-09 -5.04249E-09 -5.05674E-09 -5.06487E-09 -5.06697E-09 -5.06307E-09
  -5.05327E-09 -5.03762E-09 -5.01618E-09 -4.98903E-09 -4.95631E-09 -4.91830E-09 -4.87532E-09 -4.82768E-09 -4.77570E-09 -4.71967E-09
  -4.65993E-09 -4.59676E-09 -4.53050E-09 -4.46145E-09 -4.38991E-09 -4.31620E-09 -4.24064E-09 -4.16354E-09 -4.08519E-09 -4.00594E-09
  -3.92607E-09 -3.84590E-09 -3.76574E-09 -3.68591E-09 -3.60670E-09 -3.52845E-09 -3.45145E-09 -3.37602E-09 -3.30248E-09 -3.23113E-09
  -3.16227E-09 -3.09624E-09 -3.03316E-09 -2.97296E-09 -2.91556E-09 -2.86087E-09 -2.80880E-09 -2.75927E-09 -2.71217E-09 -2.66743E-09
  -2.62497E-09 -2.58468E-09 -2.54649E-09 -2.51029E-09 -2.47602E-09 -2.44358E-09 -2.41286E-09 -2.38381E-09 -2.35633E-09 -2.33032E-09
  -2.30569E-09 -2.28238E-09 -2.26026E-09 -2.23927E-09 -2.21933E-09 -2.20031E-09 -2.18218E-09 -2.16481E-09 -2.14812E-09 -2.13203E-09
  -2.11649E-09 -2.10147E-09 -2.08696E-09 -2.07294E-09 -2.05939E-09 -2.04628E-09 -2.03361E-09 -2.02134E-09 -2.00946E-09 -1.99796E-09
  -1.98681E-09 -1.97600E-09 -1.96550E-09 -1.95529E-09 -1.94537E-09 -1.93569E-09 -1.92626E-09 -1.91704E-09 -1.90803E-09 -1.89918E-09
  -1.89051E-09 -1.88198E-09 -1.87356E-09 -1.86526E-09 -1.85703E-09 -1.84887E-09 -1.84076E-09 -1.83267E-09 -1.82460E-09 -1.81655E-09
  -1.80850E-09 -1.80047E-09 -1.79244E-09 -1.78440E-09 -1.77637E-09 -1.76832E-09 -1.76027E-09 -1.75220E-09 -1.74411E-09 -1.73600E-09
  -1.72787E-09 -1.71970E-09 -1.71150E-09 -1.70327E-09 -1.69499E-09 -1.68668E-09 -1.67832E-09 -1.66990E-09 -1.66143E-09 -1.65291E-09
  -1.64431E-09 -1.63566E-09 -1.62693E-09 -1.61814E-09 -1.60927E-09 -1.60032E-09 -1.59129E-09 -1.58219E-09 -1.57302E-09 -1.56379E-09
  -1.55450E-09 -1.54516E-09 -1.53577E-09 -1.52633E-09 -1.51686E-09 -1.50735E-09 -1.49781E-09 -1.48824E-09 -1.47866E-09 -1.46905E-09
  -1.45943E-09 -1.44981E-09 -1.44018E-09 -1.43056E-09 -1.42093E-09 -1.41133E-09 -1.40173E-09 -1.39216E-09 -1.38260E-09 -1.37308E-09
  -1.36360E-09 -1.35415E-09 -1.34474E-09
 Asp      Conc. = 5.26E-10
   3.06876E-10  2.62701E-10  2.13034E-10  1.48454E-10  7.86889E-11 -3.09169E-13 -6.15005E-11 -1.03807E-10 -1.16394E-10 -1.16929E-10
  -1.11330E-10 -1.02094E-10 -9.05773E-11 -7.77179E-11 -6.43745E-11 -5.07742E-11 -3.69350E-11 -2.29372E-11 -8.84971E-12  5.27229E-12
   1.93872E-11  3.34668E-11  4.74894E-11  6.14501E-11  7.53495E-11  8.91946E-11  1.03013E-10  1.16846E-10  1.30750E-10  1.44824E-10
   1.59234E-10  1.74217E-10  1.90121E-10  2.07505E-10  2.27360E-10  2.51787E-10  2.85934E-10  3.24570E-10  3.72640E-10  4.21718E-10
   4.70229E-10  5.17253E-10  5.62326E-10  6.08522E-10  6.50252E-10  7.09207E-10  7.70424E-10  8.52834E-10  9.94074E-10  1.15568E-09
   1.29028E-09  1.34446E-09  1.30538E-09  1.19186E-09  1.05052E-09  9.36334E-10  8.55468E-10  8.20214E-10  7.57363E-10  6.83252E-10
   6.53766E-10  6.50740E-10  6.53973E-10  6.63516E-10  6.65525E-10  6.48046E-10  6.21233E-10  6.11392E-10  6.10844E-10  6.15791E-10
   6.24501E-10  6.36064E-10  6.49955E-10  6.65853E-10  6.83552E-10  7.02924E-10  7.23882E-10  7.46375E-10  7.70372E-10  7.95861E-10
   8.22837E-10  8.51309E-10  8.81288E-10  9.12795E-10  9.45848E-10  9.80430E-10  1.01647E-09  1.05392E-09  1.09270E-09  1.13275E-09
   1.17402E-09  1.21644E-09  1.25995E-09  1.30450E-09  1.35003E-09  1.39648E-09  1.44379E-09  1.49191E-09  1.54079E-09  1.59036E-09
   1.64057E-09  1.69137E-09  1.74269E-09  1.79450E-09  1.84672E-09  1.89931E-09  1.95221E-09  2.00536E-09  2.05873E-09  2.11223E-09
   2.16584E-09  2.21948E-09  2.27311E-09  2.32663E-09  2.37995E-09  2.43296E-09  2.48556E-09  2.53763E-09  2.58907E-09  2.63979E-09
   2.68967E-09  2.73860E-09  2.78650E-09  2.83323E-09  2.87872E-09  2.92284E-09  2.96549E-09  3.00658E-09  3.04598E-09  3.08361E-09
   3.11935E-09  3.15310E-09  3.18476E-09  3.21422E-09  3.24137E-09  3.26611E-09  3.28834E-09  3.30796E-09  3.32485E-09  3.33892E-09
   3.35004E-09  3.35807E-09  3.36282E-09  3.36409E-09  3.36170E-09  3.35545E-09  3.34518E-09  3.33067E-09  3.31176E-09  3.28825E-09
   3.25997E-09  3.22673E-09  3.18835E-09  3.14465E-09  3.09548E-09  3.04064E-09  2.98000E-09  2.91339E-09  2.84071E-09  2.76183E-09
   2.67672E-09  2.58541E-09  2.48811E-09  2.38532E-09  2.27846E-09  2.17158E-09  2.08156E-09  2.06968E-09  2.07465E-09  2.08513E-09
   2.12242E-09  2.18841E-09  2.23958E-09  2.19935E-09  1.99931E-09  1.62627E-09  1.12119E-09  5.64578E-10  7.72173E-11 -2.14759E-10
  -4.51486E-10 -6.72578E-10 -8.87122E-10 -1.09795E-09 -1.30599E-09 -1.51145E-09 -1.71420E-09 -1.91392E-09 -2.11020E-09 -2.30260E-09
  -2.49062E-09 -2.67375E-09 -2.85146E-09 -3.02321E-09 -3.18846E-09 -3.34666E-09 -3.49739E-09 -3.64063E-09 -3.77647E-09 -3.90499E-09
  -4.02624E-09 -4.14029E-09 -4.24723E-09 -4.34711E-09 -4.44001E-09 -4.52599E-09 -4.60512E-09 -4.67747E-09 -4.74310E-09 -4.80209E-09
  -4.85450E-09 -4.90039E-09 -4.93983E-09 -4.97289E-09 -4.99964E-09 -5.02014E-09 -5.03446E-09 -5.04266E-09 -5.04482E-09 -5.04098E-09
  -5.03124E-09 -5.01563E-09 -4.99425E-09 -4.96715E-09 -4.93447E-09 -4.89651E-09 -4.85357E-09 -4.80598E-09 -4.75403E-09 -4.69804E-09
