 LCModel (Version 6.3-1R) Copyright: S.W. Provencher.          Ref.: Magn. Reson. Med. 30:672-679 (1993).                
 onepulse 21x11_ftSpec_smooth_lcm
 26 lines in following concentration table = NCONC+1
    Conc.  %SD /Cr+PCr  Metabolite                                         
 7.70E-10  42%   1.969 Ala                                                 
 3.77E-09  20%   9.649 Asp                                                 
 3.91E-10  90%   1.000 Cr                                                  
 1.42E-09  42%   3.642 GABA                                                
 1.25E-09  74%   3.199 Glc                                                 
    0.000 999%   0.000 Gln                                                 
    0.000 999%   0.000 Glu                                                 
    0.000 999%   0.000 Glyc                                                
    0.000 999%   0.000 GPC                                                 
    0.000 999%   0.000 GSH                                                 
 8.66E-10  65%   2.216 Ins                                                 
 2.59E-10 125%   0.663 Lac                                                 
    0.000 999%   0.000 NAAG                                                
 2.59E-11 872% 6.6E-02 NAA                                                 
    0.000 999%   0.000 PCh                                                 
    0.000 999%   0.000 PCr                                                 
    0.000 999%   0.000 PE                                                  
 7.45E-12 999% 1.9E-02 Scyllo                                              
 1.66E-09  85%   4.238 Ser                                                 
    0.000 999%   0.000 Tau                                                 
    0.000 999%   0.000 GPC+PCh                                             
 2.59E-11 872% 6.6E-02 NAA+NAAG                                            
 8.66E-10  65%   2.216 Ins+Glyc                                            
 3.91E-10  90%   1.000 Cr+PCr                                              
    0.000 999%   0.000 Glu+Gln                                             
   6 lines in following misc. output table
  FWHM = 0.123 ppm    S/N =   3                                            
  Data shift = 0.436 ppm                                                   
  Ph: -72 deg      86.0 deg/ppm                                            
  alphaB,S = 5.1E-01,   1.4E+01                                            
    9 spline knots.   Ns = 5(1)                                            
  (10) 8 infls.   ( 9) 5 extrs.                                            
  363 points on ppm-axis = NY
      4.250000     4.238821     4.227641     4.216462     4.205282     4.194103     4.182923     4.171744     4.160564     4.149385
      4.138206     4.127026     4.115847     4.104667     4.093488     4.082308     4.071129     4.059949     4.048770     4.037591
      4.026411     4.015232     4.004052     3.992873     3.981693     3.970514     3.959334     3.948155     3.936975     3.925796
      3.914617     3.903437     3.892258     3.881078     3.869899     3.858719     3.847540     3.836360     3.825181     3.814002
      3.802822     3.791643     3.780463     3.769284     3.758104     3.746925     3.735745     3.724566     3.713387     3.702207
      3.691028     3.679848     3.668669     3.657489     3.646310     3.635130     3.623951     3.612772     3.601592     3.590413
      3.579233     3.568054     3.556874     3.545695     3.534515     3.523336     3.512156     3.500977     3.489798     3.478618
      3.467439     3.456259     3.445080     3.433900     3.422721     3.411541     3.400362     3.389183     3.378003     3.366824
      3.355644     3.344465     3.333285     3.322106     3.310926     3.299747     3.288568     3.277388     3.266209     3.255029
      3.243850     3.232670     3.221491     3.210311     3.199132     3.187953     3.176773     3.165594     3.154414     3.143235
      3.132055     3.120876     3.109696     3.098517     3.087337     3.076158     3.064979     3.053799     3.042620     3.031440
      3.020261     3.009081     2.997902     2.986722     2.975543     2.964364     2.953184     2.942005     2.930825     2.919646
      2.908466     2.897287     2.886107     2.874928     2.863749     2.852569     2.841390     2.830210     2.819031     2.807851
      2.796672     2.785492     2.774313     2.763134     2.751954     2.740775     2.729595     2.718416     2.707236     2.696057
      2.684877     2.673698     2.662519     2.651339     2.640160     2.628980     2.617801     2.606621     2.595442     2.584262
      2.573083     2.561903     2.550724     2.539545     2.528365     2.517186     2.506006     2.494827     2.483647     2.472468
      2.461288     2.450109     2.438930     2.427750     2.416571     2.405391     2.394212     2.383032     2.371853     2.360673
      2.349494     2.338315     2.327135     2.315956     2.304776     2.293597     2.282417     2.271238     2.260058     2.248879
      2.237700     2.226520     2.215341     2.204161     2.192982     2.181802     2.170623     2.159443     2.148264     2.137084
      2.125905     2.114726     2.103546     2.092367     2.081187     2.070008     2.058828     2.047649     2.036469     2.025290
      2.014111     2.002931     1.991752     1.980572     1.969393     1.958213     1.947034     1.935854     1.924675     1.913496
      1.902316     1.891137     1.879957     1.868778     1.857598     1.846419     1.835239     1.824060     1.812881     1.801701
      1.790522     1.779342     1.768163     1.756983     1.745804     1.734624     1.723445     1.712265     1.701086     1.689907
      1.678727     1.667548     1.656368     1.645189     1.634009     1.622830     1.611650     1.600471     1.589292     1.578112
      1.566933     1.555753     1.544574     1.533394     1.522215     1.511035     1.499856     1.488677     1.477497     1.466318
      1.455138     1.443959     1.432779     1.421600     1.410420     1.399241     1.388062     1.376882     1.365703     1.354523
      1.343344     1.332164     1.320985     1.309805     1.298626     1.287446     1.276267     1.265088     1.253908     1.242729
      1.231549     1.220370     1.209190     1.198011     1.186831     1.175652     1.164473     1.153293     1.142114     1.130934
      1.119755     1.108575     1.097396     1.086216     1.075037     1.063858     1.052678     1.041499     1.030319     1.019140
      1.007960     0.996781     0.985601     0.974422     0.963243     0.952063     0.940884     0.929704     0.918525     0.907345
      0.896166     0.884986     0.873807     0.862628     0.851448     0.840269     0.829089     0.817910     0.806730     0.795551
      0.784371     0.773192     0.762012     0.750833     0.739654     0.728474     0.717295     0.706115     0.694936     0.683756
      0.672577     0.661397     0.650218     0.639039     0.627859     0.616680     0.605500     0.594321     0.583141     0.571962
      0.560782     0.549603     0.538424     0.527244     0.516065     0.504885     0.493706     0.482526     0.471347     0.460167
      0.448988     0.437809     0.426629     0.415450     0.404270     0.393091     0.381911     0.370732     0.359552     0.348373
      0.337193     0.326014     0.314835     0.303655     0.292476     0.281296     0.270117     0.258937     0.247758     0.236578
      0.225399     0.214220     0.203040
 NY phased data points follow
  -1.01822E-08 -1.07509E-08 -1.00276E-08 -1.13034E-08 -1.12408E-08 -1.20754E-08 -1.19170E-08 -1.29134E-08 -1.31329E-08 -1.29405E-08
  -1.19458E-08 -1.30394E-08 -1.08930E-08 -1.19145E-08 -1.16514E-08 -1.22406E-08 -1.16961E-08 -1.17070E-08 -1.16265E-08 -1.22757E-08
  -1.14264E-08 -1.16386E-08 -1.14701E-08 -1.33474E-08 -1.35085E-08 -1.45353E-08 -1.36583E-08 -1.33411E-08 -1.14207E-08 -1.10524E-08
  -9.06013E-09 -9.25124E-09 -8.62132E-09 -8.76544E-09 -8.21377E-09 -8.23067E-09 -7.38150E-09 -6.82159E-09 -6.01969E-09 -5.95992E-09
  -5.73775E-09 -6.52226E-09 -5.91200E-09 -6.26453E-09 -5.18136E-09 -6.15520E-09 -5.55578E-09 -5.37234E-09 -4.26020E-09 -5.54929E-09
  -5.80928E-09 -6.87036E-09 -7.59893E-09 -9.32025E-09 -1.11958E-08 -1.25298E-08 -1.25405E-08 -1.22081E-08 -1.00754E-08 -7.90377E-09
  -6.05065E-09 -5.07086E-09 -4.29241E-09 -4.42601E-09 -3.40981E-09 -3.55029E-09 -3.13723E-09 -4.76574E-09 -4.99980E-09 -6.59587E-09
  -8.67319E-09 -1.10955E-08 -1.24147E-08 -1.21885E-08 -9.67471E-09 -8.13297E-09 -5.85811E-09 -4.96399E-09 -3.81900E-09 -3.06964E-09
  -2.42009E-09 -2.08727E-09 -1.13332E-09 -5.08571E-10  8.11846E-11 -7.80733E-11  1.11886E-09  1.60873E-09  1.36844E-09  1.99082E-09
   2.05027E-09  2.44362E-09  2.49730E-09  1.93138E-09  1.70393E-09  2.34167E-09  2.60482E-09  3.19541E-09  2.72720E-09  3.65672E-09
   3.29798E-09  4.03250E-09  3.94589E-09  3.47683E-09  3.46391E-09  2.08786E-09  2.20088E-09  2.24950E-09  2.63923E-09  1.52842E-09
   2.67753E-09  2.78258E-09  3.10324E-09  2.96920E-09  3.73323E-09  4.24924E-09  3.90856E-09  3.72244E-09  4.00800E-09  3.43583E-09
   2.67990E-09  2.29391E-09  2.71306E-09  2.14217E-09  2.95934E-09  2.24130E-09  2.64167E-09  2.42318E-09  2.24290E-09  1.92251E-09
   1.74645E-09  1.24233E-09  9.48316E-10  2.07489E-09  2.11647E-09  2.76621E-09  3.20050E-09  2.94559E-09  3.49841E-09  3.70921E-09
   4.17485E-09  5.22101E-09  5.37023E-09  5.06864E-09  5.24084E-09  5.51784E-09  5.38600E-09  5.00156E-09  4.76451E-09  4.89294E-09
   5.09384E-09  4.65827E-09  4.82092E-09  4.27064E-09  3.89665E-09  4.37508E-09  3.96258E-09  3.65378E-09  3.32234E-09  2.46123E-09
   1.83648E-09  2.33580E-09  1.96527E-09  3.82422E-09  8.25881E-09  1.24367E-08  1.48849E-08  1.63449E-08  1.67771E-08  1.71380E-08
   1.74828E-08  1.67991E-08  1.64395E-08  1.63170E-08  1.63411E-08  1.56973E-08  1.50793E-08  1.45170E-08  1.38540E-08  1.30789E-08
   1.19724E-08  1.04332E-08  9.54269E-09  8.52341E-09  6.90568E-09  5.21091E-09  3.00277E-09  1.23999E-09 -8.55012E-10 -2.15618E-09
  -4.07066E-09 -5.84407E-09 -6.98661E-09 -8.32732E-09 -8.59256E-09 -9.62581E-09 -9.92723E-09 -9.80218E-09 -9.39876E-09 -8.50983E-09
  -7.58454E-09 -7.20821E-09 -5.53940E-09 -4.80274E-09 -3.88621E-09 -2.54066E-09 -2.25927E-09 -2.35923E-09 -1.76531E-09 -1.97237E-09
  -2.06282E-09 -1.93464E-09 -2.58957E-09 -2.76226E-09 -2.14912E-09 -1.61175E-09 -1.36626E-09 -7.03034E-10 -1.23340E-09 -1.44388E-09
  -1.82864E-09 -1.68943E-09 -1.29763E-09 -1.89944E-09 -1.57503E-09 -1.13031E-09 -1.65185E-09 -1.02705E-09 -1.22308E-09 -6.88565E-10
  -1.54719E-09 -1.22202E-09 -1.35462E-09 -9.82863E-10 -1.18100E-09 -1.42379E-09 -1.73587E-09 -1.03371E-09 -1.20707E-09 -1.34096E-09
  -8.61503E-10 -7.23709E-10 -8.44281E-10 -1.03438E-09 -4.04009E-10 -2.82392E-10 -1.99463E-10 -2.45945E-10 -1.53722E-11 -6.34762E-10
  -7.16412E-10 -8.12114E-10 -7.34524E-10 -2.03297E-09 -1.44800E-09 -1.49935E-09 -1.55909E-09 -1.55923E-09 -1.16107E-09 -1.14800E-09
  -6.26967E-10 -7.06691E-10 -1.21715E-10  3.05369E-10  2.57492E-10  5.87425E-10  6.87919E-10  9.36283E-10  7.06867E-10  1.35614E-09
   8.48342E-11  3.20687E-10  2.65420E-10  2.49615E-10 -2.98388E-10  6.11658E-11 -4.38664E-10 -3.46833E-10 -4.70473E-10 -4.08262E-10
  -5.13945E-10 -4.78023E-10 -9.64459E-10 -1.01021E-09 -4.90760E-10 -8.82715E-10 -6.32654E-10 -5.85449E-10 -6.89540E-10 -5.62025E-10
  -7.42239E-10 -7.52111E-10 -8.53391E-10 -5.27062E-12 -7.65089E-10  1.08063E-10 -2.46854E-10 -1.63759E-10 -9.55765E-11  1.68743E-11
  -1.62259E-10  1.18863E-10  4.59485E-10  6.11918E-10 -2.38857E-10  6.65323E-10  3.09658E-10  6.01626E-11  9.90067E-10  4.95346E-10
   6.63311E-10  1.25293E-09  1.01030E-09  1.28086E-09  9.47022E-10  7.88719E-10  6.07460E-10  1.72980E-09  1.20451E-09  1.62878E-09
   1.50835E-09  1.16889E-09  1.82453E-09  1.74321E-09  1.98327E-09  1.86689E-09  1.48470E-09  2.08994E-09  2.07105E-09  2.24378E-09
   1.58793E-09  2.90034E-09  2.06523E-09  1.99165E-09  2.77375E-09  2.49433E-09  2.50709E-09  2.40299E-09  2.78367E-09  2.79411E-09
   2.72613E-09  2.51489E-09  2.81191E-09  2.80733E-09  3.18320E-09  2.86906E-09  2.85160E-09  3.12150E-09  2.84952E-09  3.05982E-09
   3.61322E-09  3.24424E-09  2.49040E-09  2.60935E-09  2.81289E-09  3.19834E-09  3.43621E-09  3.13142E-09  2.90491E-09  3.02275E-09
   2.95752E-09  3.36878E-09  2.93447E-09
 NY points of the fit to the data follow
  -7.61410E-09 -9.59743E-09 -1.11858E-08 -1.18620E-08 -1.18818E-08 -1.23287E-08 -1.34015E-08 -1.33178E-08 -1.27854E-08 -1.24793E-08
  -1.25836E-08 -1.24045E-08 -1.18849E-08 -1.11195E-08 -1.06521E-08 -1.10193E-08 -1.12285E-08 -1.12985E-08 -1.19041E-08 -1.26064E-08
  -1.27931E-08 -1.25648E-08 -1.25432E-08 -1.26272E-08 -1.28666E-08 -1.30977E-08 -1.28081E-08 -1.23480E-08 -1.17087E-08 -1.08308E-08
  -1.04151E-08 -9.27781E-09 -7.81341E-09 -7.70167E-09 -7.87162E-09 -7.25650E-09 -6.92110E-09 -6.87707E-09 -7.09498E-09 -7.42907E-09
  -7.60602E-09 -7.17851E-09 -7.08362E-09 -7.51124E-09 -5.95033E-09 -5.94885E-09 -6.95201E-09 -6.87794E-09 -6.38500E-09 -6.19488E-09
  -5.94586E-09 -5.59131E-09 -5.84097E-09 -6.67558E-09 -6.91049E-09 -7.89936E-09 -7.56240E-09 -7.08771E-09 -7.16180E-09 -7.29876E-09
  -6.90425E-09 -6.37424E-09 -6.08001E-09 -5.72317E-09 -4.79594E-09 -4.54830E-09 -4.77222E-09 -4.68668E-09 -4.44173E-09 -4.32965E-09
  -4.31016E-09 -4.39714E-09 -4.63726E-09 -4.60768E-09 -4.46405E-09 -4.85858E-09 -4.87264E-09 -4.45948E-09 -4.31294E-09 -4.02752E-09
  -3.67343E-09 -3.51425E-09 -3.00373E-09 -2.34157E-09 -2.17110E-09 -1.83244E-09 -1.26156E-09 -1.00597E-09 -8.19136E-10 -5.52594E-10
  -4.47888E-10 -2.87606E-10  1.02240E-11 -5.27556E-11 -1.25432E-10  2.02323E-10  2.89272E-10  3.09987E-10  7.04294E-10  1.43726E-09
   2.03893E-09  2.02028E-09  2.49443E-09  3.22940E-09  3.46555E-09  3.52123E-09  3.72285E-09  4.03627E-09  4.05350E-09  4.02352E-09
   3.72873E-09  3.44568E-09  3.57510E-09  3.18125E-09  2.70367E-09  2.62890E-09  2.60972E-09  2.50510E-09  2.38304E-09  2.47567E-09
   2.39493E-09  2.27349E-09  2.29750E-09  2.35214E-09  2.41398E-09  2.47623E-09  2.53633E-09  2.59310E-09  2.64603E-09  2.69485E-09
   2.73946E-09  2.77982E-09  2.81599E-09  2.84800E-09  2.87594E-09  2.89987E-09  2.91992E-09  2.93617E-09  2.94873E-09  2.95775E-09
   2.96335E-09  2.96567E-09  2.96485E-09  2.96101E-09  2.95437E-09  2.94509E-09  2.93336E-09  2.91940E-09  2.90351E-09  2.88591E-09
   2.86696E-09  2.84711E-09  2.82682E-09  2.80669E-09  2.78760E-09  2.77059E-09  2.75707E-09  2.74917E-09  2.74994E-09  2.76404E-09
   2.79924E-09  2.86901E-09  2.99944E-09  3.24767E-09  3.76555E-09  5.10197E-09  1.01714E-08  1.77997E-08  1.92593E-08  1.83266E-08
   1.77276E-08  1.73762E-08  1.68272E-08  1.63614E-08  1.62997E-08  1.66558E-08  1.61078E-08  1.12985E-08  4.38401E-09  2.58296E-09
   1.90002E-09  1.53420E-09  1.29574E-09  1.11991E-09  9.79113E-10  8.59767E-10  7.54469E-10  6.58873E-10  5.70287E-10  4.86962E-10
   4.07715E-10  3.31747E-10  2.58470E-10  1.87484E-10  1.18478E-10  5.12209E-11 -1.44393E-11 -7.86313E-11 -1.41452E-10 -2.02962E-10
  -2.63214E-10 -3.22254E-10 -3.80095E-10 -4.36748E-10 -4.92234E-10 -5.46553E-10 -5.99705E-10 -6.51666E-10 -7.02453E-10 -7.52048E-10
  -8.00434E-10 -8.47588E-10 -8.93505E-10 -9.38160E-10 -9.81554E-10 -1.02365E-09 -1.06442E-09 -1.10386E-09 -1.14195E-09 -1.17866E-09
  -1.21397E-09 -1.24785E-09 -1.28029E-09 -1.31126E-09 -1.34076E-09 -1.36873E-09 -1.39517E-09 -1.42006E-09 -1.44336E-09 -1.46507E-09
  -1.48514E-09 -1.50357E-09 -1.52033E-09 -1.53540E-09 -1.54875E-09 -1.56036E-09 -1.57021E-09 -1.57828E-09 -1.58455E-09 -1.58899E-09
  -1.59158E-09 -1.59230E-09 -1.59112E-09 -1.58808E-09 -1.58319E-09 -1.57650E-09 -1.56805E-09 -1.55786E-09 -1.54598E-09 -1.53244E-09
  -1.51728E-09 -1.50053E-09 -1.48224E-09 -1.46243E-09 -1.44114E-09 -1.41841E-09 -1.39428E-09 -1.36878E-09 -1.34194E-09 -1.31381E-09
  -1.28442E-09 -1.25380E-09 -1.22199E-09 -1.18904E-09 -1.15496E-09 -1.11980E-09 -1.08360E-09 -1.04639E-09 -1.00821E-09 -9.69082E-10
  -9.29057E-10 -8.88165E-10 -8.46443E-10 -8.03923E-10 -7.60642E-10 -7.16637E-10 -6.71943E-10 -6.26593E-10 -5.80621E-10 -5.34067E-10
  -4.86963E-10 -4.39343E-10 -3.91243E-10 -3.42697E-10 -2.93739E-10 -2.44405E-10 -1.94729E-10 -1.44744E-10 -9.44852E-11 -4.39899E-11
   6.71629E-12  5.75940E-11  1.08611E-10  1.59730E-10  2.10924E-10  2.62154E-10  3.13390E-10  3.64598E-10  4.15745E-10  4.66801E-10
   5.17730E-10  5.68501E-10  6.19079E-10  6.69450E-10  7.19608E-10  7.69561E-10  8.19310E-10  8.68853E-10  9.18199E-10  9.67343E-10
   1.01629E-09  1.06504E-09  1.11360E-09  1.16197E-09  1.21015E-09  1.25814E-09  1.30595E-09  1.35357E-09  1.40101E-09  1.44828E-09
   1.49536E-09  1.54228E-09  1.58901E-09  1.63558E-09  1.68197E-09  1.72820E-09  1.77427E-09  1.82017E-09  1.86590E-09  1.91148E-09
   1.95689E-09  2.00215E-09  2.04725E-09  2.09220E-09  2.13699E-09  2.18164E-09  2.22615E-09  2.27049E-09  2.31470E-09  2.35876E-09
   2.40268E-09  2.44646E-09  2.49010E-09  2.53360E-09  2.57696E-09  2.62019E-09  2.66329E-09  2.70626E-09  2.74909E-09  2.79180E-09
   2.83438E-09  2.87683E-09  2.91916E-09  2.96136E-09  3.00345E-09  3.04541E-09  3.08725E-09  3.12897E-09  3.17057E-09  3.21206E-09
   3.25343E-09  3.29469E-09  3.33584E-09
 NY background values follow
    -2.050E-08   -2.033E-08   -2.015E-08   -1.998E-08   -1.981E-08   -1.963E-08   -1.945E-08   -1.928E-08   -1.910E-08   -1.892E-08
    -1.874E-08   -1.856E-08   -1.838E-08   -1.819E-08   -1.801E-08   -1.782E-08   -1.764E-08   -1.745E-08   -1.727E-08   -1.708E-08
    -1.689E-08   -1.670E-08   -1.651E-08   -1.632E-08   -1.613E-08   -1.594E-08   -1.575E-08   -1.555E-08   -1.536E-08   -1.516E-08
    -1.497E-08   -1.477E-08   -1.457E-08   -1.438E-08   -1.418E-08   -1.398E-08   -1.378E-08   -1.358E-08   -1.338E-08   -1.318E-08
    -1.298E-08   -1.277E-08   -1.257E-08   -1.236E-08   -1.216E-08   -1.196E-08   -1.175E-08   -1.154E-08   -1.134E-08   -1.113E-08
    -1.092E-08   -1.071E-08   -1.050E-08   -1.029E-08   -1.008E-08   -9.873E-09   -9.662E-09   -9.450E-09   -9.238E-09   -9.026E-09
    -8.813E-09   -8.600E-09   -8.386E-09   -8.172E-09   -7.958E-09   -7.743E-09   -7.529E-09   -7.314E-09   -7.100E-09   -6.886E-09
    -6.672E-09   -6.459E-09   -6.246E-09   -6.034E-09   -5.822E-09   -5.612E-09   -5.402E-09   -5.193E-09   -4.984E-09   -4.778E-09
    -4.572E-09   -4.368E-09   -4.165E-09   -3.963E-09   -3.763E-09   -3.565E-09   -3.369E-09   -3.174E-09   -2.981E-09   -2.791E-09
    -2.602E-09   -2.416E-09   -2.232E-09   -2.051E-09   -1.872E-09   -1.696E-09   -1.522E-09   -1.351E-09   -1.183E-09   -1.018E-09
    -8.564E-10   -6.977E-10   -5.423E-10   -3.902E-10   -2.416E-10   -9.651E-11    4.493E-11    1.826E-10    3.164E-10    4.463E-10
     5.722E-10    6.940E-10    8.115E-10    9.248E-10    1.034E-09    1.138E-09    1.238E-09    1.333E-09    1.423E-09    1.508E-09
     1.589E-09    1.664E-09    1.734E-09    1.800E-09    1.860E-09    1.915E-09    1.966E-09    2.012E-09    2.054E-09    2.090E-09
     2.123E-09    2.151E-09    2.175E-09    2.195E-09    2.210E-09    2.222E-09    2.230E-09    2.234E-09    2.234E-09    2.230E-09
     2.223E-09    2.213E-09    2.199E-09    2.182E-09    2.162E-09    2.138E-09    2.112E-09    2.083E-09    2.051E-09    2.016E-09
     1.978E-09    1.938E-09    1.896E-09    1.851E-09    1.804E-09    1.755E-09    1.703E-09    1.650E-09    1.595E-09    1.538E-09
     1.479E-09    1.419E-09    1.357E-09    1.294E-09    1.229E-09    1.163E-09    1.097E-09    1.029E-09    9.597E-10    8.900E-10
     8.195E-10    7.484E-10    6.767E-10    6.046E-10    5.321E-10    4.593E-10    3.864E-10    3.134E-10    2.403E-10    1.675E-10
     9.478E-11    2.243E-11   -4.955E-11   -1.211E-10   -1.922E-10   -2.628E-10   -3.328E-10   -4.024E-10   -4.714E-10   -5.397E-10
    -6.075E-10   -6.746E-10   -7.410E-10   -8.068E-10   -8.717E-10   -9.360E-10   -9.994E-10   -1.062E-09   -1.124E-09   -1.185E-09
    -1.245E-09   -1.304E-09   -1.362E-09   -1.419E-09   -1.476E-09   -1.531E-09   -1.585E-09   -1.638E-09   -1.690E-09   -1.741E-09
    -1.791E-09   -1.839E-09   -1.886E-09   -1.932E-09   -1.977E-09   -2.021E-09   -2.063E-09   -2.104E-09   -2.144E-09   -2.182E-09
    -2.218E-09   -2.254E-09   -2.288E-09   -2.320E-09   -2.351E-09   -2.380E-09   -2.408E-09   -2.434E-09   -2.459E-09   -2.482E-09
    -2.503E-09   -2.523E-09   -2.541E-09   -2.557E-09   -2.572E-09   -2.585E-09   -2.596E-09   -2.605E-09   -2.612E-09   -2.618E-09
    -2.621E-09   -2.623E-09   -2.623E-09   -2.621E-09   -2.617E-09   -2.611E-09   -2.603E-09   -2.594E-09   -2.583E-09   -2.570E-09
    -2.556E-09   -2.540E-09   -2.522E-09   -2.503E-09   -2.482E-09   -2.460E-09   -2.437E-09   -2.412E-09   -2.386E-09   -2.358E-09
    -2.329E-09   -2.299E-09   -2.267E-09   -2.235E-09   -2.201E-09   -2.166E-09   -2.131E-09   -2.094E-09   -2.056E-09   -2.017E-09
    -1.977E-09   -1.936E-09   -1.895E-09   -1.853E-09   -1.809E-09   -1.765E-09   -1.721E-09   -1.676E-09   -1.630E-09   -1.583E-09
    -1.536E-09   -1.488E-09   -1.440E-09   -1.392E-09   -1.342E-09   -1.293E-09   -1.243E-09   -1.193E-09   -1.143E-09   -1.092E-09
    -1.041E-09   -9.897E-10   -9.384E-10   -8.870E-10   -8.354E-10   -7.838E-10   -7.322E-10   -6.806E-10   -6.291E-10   -5.776E-10
    -5.262E-10   -4.749E-10   -4.238E-10   -3.729E-10   -3.222E-10   -2.717E-10   -2.213E-10   -1.712E-10   -1.212E-10   -7.140E-11
    -2.178E-11    2.767E-11    7.695E-11    1.260E-10    1.750E-10    2.238E-10    2.724E-10    3.208E-10    3.691E-10    4.172E-10
     4.652E-10    5.130E-10    5.606E-10    6.081E-10    6.555E-10    7.027E-10    7.497E-10    7.966E-10    8.434E-10    8.900E-10
     9.365E-10    9.828E-10    1.029E-09    1.075E-09    1.121E-09    1.167E-09    1.213E-09    1.258E-09    1.303E-09    1.349E-09
     1.394E-09    1.439E-09    1.484E-09    1.529E-09    1.573E-09    1.618E-09    1.662E-09    1.707E-09    1.751E-09    1.795E-09
     1.839E-09    1.883E-09    1.927E-09    1.970E-09    2.014E-09    2.057E-09    2.101E-09    2.144E-09    2.187E-09    2.230E-09
     2.273E-09    2.316E-09    2.359E-09
 Ala      Conc. = 7.70E-10
  -1.97682E-08 -1.96793E-08 -1.95084E-08 -1.93520E-08 -1.92323E-08 -1.90741E-08 -1.89725E-08 -1.89513E-08 -1.87506E-08 -1.85748E-08
  -1.85681E-08 -1.84149E-08 -1.82173E-08 -1.80900E-08 -1.79333E-08 -1.77584E-08 -1.75764E-08 -1.73907E-08 -1.72029E-08 -1.70136E-08
  -1.68232E-08 -1.66318E-08 -1.64396E-08 -1.62466E-08 -1.60529E-08 -1.58585E-08 -1.56634E-08 -1.54677E-08 -1.52714E-08 -1.50743E-08
  -1.48766E-08 -1.46783E-08 -1.44793E-08 -1.42798E-08 -1.40795E-08 -1.38786E-08 -1.36772E-08 -1.34751E-08 -1.32724E-08 -1.30691E-08
  -1.28651E-08 -1.26606E-08 -1.24555E-08 -1.22498E-08 -1.20435E-08 -1.18366E-08 -1.16292E-08 -1.14211E-08 -1.12126E-08 -1.10034E-08
  -1.07937E-08 -1.05834E-08 -1.03726E-08 -1.01613E-08 -9.94938E-09 -9.73690E-09 -9.52392E-09 -9.31045E-09 -9.09639E-09 -8.88194E-09
  -8.66688E-09 -8.45131E-09 -8.23528E-09 -8.01888E-09 -7.80215E-09 -7.58520E-09 -7.36810E-09 -7.15094E-09 -6.93377E-09 -6.71667E-09
  -6.49974E-09 -6.28302E-09 -6.06661E-09 -5.85053E-09 -5.63489E-09 -5.41975E-09 -5.20511E-09 -4.99112E-09 -4.77770E-09 -4.56501E-09
  -4.35298E-09 -4.14167E-09 -3.93104E-09 -3.72113E-09 -3.51186E-09 -3.30309E-09 -3.09479E-09 -2.88666E-09 -2.67846E-09 -2.46979E-09
  -2.25998E-09 -2.04825E-09 -1.83318E-09 -1.61268E-09 -1.38338E-09 -1.13931E-09 -8.69106E-10 -5.47723E-10 -1.07014E-10  6.94339E-10
   1.39115E-09  1.41521E-09  1.90144E-09  2.62592E-09  2.82758E-09  2.80909E-09  2.83084E-09  2.88804E-09  2.91068E-09  2.75942E-09
   2.25275E-09  1.93710E-09  2.11285E-09  1.75152E-09  1.29123E-09  1.23740E-09  1.27703E-09  1.34513E-09  1.42267E-09  1.50220E-09
   1.58066E-09  1.65607E-09  1.72761E-09  1.79482E-09  1.85750E-09  1.91554E-09  1.96892E-09  2.01765E-09  2.06175E-09  2.10130E-09
   2.13636E-09  2.16700E-09  2.19332E-09  2.21539E-09  2.23331E-09  2.24715E-09  2.25703E-09  2.26303E-09  2.26523E-09  2.26375E-09
   2.25866E-09  2.25008E-09  2.23810E-09  2.22278E-09  2.20428E-09  2.18269E-09  2.15807E-09  2.13054E-09  2.10024E-09  2.06722E-09
   2.03162E-09  1.99358E-09  1.95319E-09  1.91057E-09  1.86592E-09  1.81937E-09  1.77109E-09  1.72134E-09  1.67045E-09  1.61878E-09
   1.56705E-09  1.51625E-09  1.46836E-09  1.42757E-09  1.40479E-09  1.43858E-09  1.74133E-09  2.24920E-09  2.29151E-09  2.15802E-09
   2.05061E-09  1.96121E-09  1.85581E-09  1.75576E-09  1.68493E-09  1.64555E-09  1.54398E-09  1.13054E-09  5.45316E-10  3.49912E-10
   2.32411E-10  1.38104E-10  5.35347E-11 -2.59495E-11 -1.02374E-10 -1.76717E-10 -2.49510E-10 -3.21061E-10 -3.91545E-10 -4.61070E-10
  -5.29710E-10 -5.97490E-10 -6.64441E-10 -7.30557E-10 -7.95847E-10 -8.60309E-10 -9.23916E-10 -9.86660E-10 -1.04853E-09 -1.10949E-09
  -1.16954E-09 -1.22865E-09 -1.28679E-09 -1.34394E-09 -1.40009E-09 -1.45520E-09 -1.50926E-09 -1.56223E-09 -1.61409E-09 -1.66483E-09
  -1.71441E-09 -1.76280E-09 -1.80999E-09 -1.85594E-09 -1.90064E-09 -1.94407E-09 -1.98617E-09 -2.02696E-09 -2.06639E-09 -2.10444E-09
  -2.14107E-09 -2.17628E-09 -2.21003E-09 -2.24231E-09 -2.27310E-09 -2.30234E-09 -2.33004E-09 -2.35617E-09 -2.38069E-09 -2.40360E-09
  -2.42486E-09 -2.44444E-09 -2.46234E-09 -2.47852E-09 -2.49297E-09 -2.50564E-09 -2.51654E-09 -2.52564E-09 -2.53290E-09 -2.53831E-09
  -2.54185E-09 -2.54350E-09 -2.54322E-09 -2.54105E-09 -2.53702E-09 -2.53115E-09 -2.52350E-09 -2.51409E-09 -2.50296E-09 -2.49014E-09
  -2.47568E-09 -2.45961E-09 -2.44197E-09 -2.42279E-09 -2.40210E-09 -2.37995E-09 -2.35637E-09 -2.33139E-09 -2.30506E-09 -2.27741E-09
  -2.24847E-09 -2.21828E-09 -2.18689E-09 -2.15431E-09 -2.12059E-09 -2.08577E-09 -2.04988E-09 -2.01296E-09 -1.97504E-09 -1.93616E-09
  -1.89635E-09 -1.85565E-09 -1.81410E-09 -1.77173E-09 -1.72858E-09 -1.68468E-09 -1.64006E-09 -1.59477E-09 -1.54884E-09 -1.50230E-09
  -1.45519E-09 -1.40754E-09 -1.35939E-09 -1.31077E-09 -1.26172E-09 -1.21227E-09 -1.16245E-09 -1.11231E-09 -1.06187E-09 -1.01118E-09
  -9.60248E-10 -9.09127E-10 -8.57847E-10 -8.06444E-10 -7.54946E-10 -7.03392E-10 -6.51810E-10 -6.00237E-10 -5.48704E-10 -4.97243E-10
  -4.45889E-10 -3.94673E-10 -3.43630E-10 -2.92775E-10 -2.42113E-10 -1.91637E-10 -1.41345E-10 -9.12400E-11 -4.13125E-11  8.43085E-12
   5.79959E-11  1.07387E-10  1.56604E-10  2.05644E-10  2.54518E-10  3.03222E-10  3.51763E-10  4.00135E-10  4.48348E-10  4.96395E-10
   5.44287E-10  5.92022E-10  6.39598E-10  6.87020E-10  7.34290E-10  7.81413E-10  8.28390E-10  8.75217E-10  9.21895E-10  9.68439E-10
   1.01483E-09  1.06108E-09  1.10721E-09  1.15319E-09  1.19903E-09  1.24474E-09  1.29033E-09  1.33578E-09  1.38110E-09  1.42630E-09
   1.47136E-09  1.51631E-09  1.56113E-09  1.60583E-09  1.65041E-09  1.69487E-09  1.73921E-09  1.78344E-09  1.82756E-09  1.87156E-09
   1.91545E-09  1.95923E-09  2.00290E-09  2.04646E-09  2.08993E-09  2.13328E-09  2.17652E-09  2.21967E-09  2.26271E-09  2.30565E-09
   2.34849E-09  2.39123E-09  2.43388E-09
 Asp      Conc. = 3.77E-09
  -1.78893E-08 -1.83765E-08 -1.85871E-08 -1.86981E-08 -1.89782E-08 -1.90119E-08 -1.93451E-08 -1.92554E-08 -1.90658E-08 -1.88501E-08
  -1.86266E-08 -1.83997E-08 -1.81682E-08 -1.79360E-08 -1.77086E-08 -1.74823E-08 -1.72561E-08 -1.70296E-08 -1.68024E-08 -1.65741E-08
  -1.63443E-08 -1.61125E-08 -1.58782E-08 -1.56410E-08 -1.54002E-08 -1.51549E-08 -1.49042E-08 -1.46469E-08 -1.43814E-08 -1.41053E-08
  -1.38155E-08 -1.35070E-08 -1.31718E-08 -1.27959E-08 -1.23497E-08 -1.17685E-08 -1.12778E-08 -1.08218E-08 -1.06483E-08 -1.05302E-08
  -1.02237E-08 -9.59159E-09 -8.35574E-09 -7.51183E-09 -5.97101E-09 -6.00530E-09 -6.67511E-09 -6.55882E-09 -6.11054E-09 -5.98889E-09
  -5.82068E-09 -5.54756E-09 -5.88132E-09 -6.79844E-09 -7.12150E-09 -8.21025E-09 -7.98974E-09 -7.64755E-09 -7.88116E-09 -8.22238E-09
  -8.12881E-09 -8.10928E-09 -8.09927E-09 -7.73526E-09 -7.40171E-09 -7.49836E-09 -7.45431E-09 -7.31570E-09 -7.13932E-09 -6.94470E-09
  -6.74019E-09 -6.52998E-09 -6.31646E-09 -6.10102E-09 -5.88465E-09 -5.66800E-09 -5.45147E-09 -5.23551E-09 -5.02026E-09 -4.80607E-09
  -4.59302E-09 -4.38129E-09 -4.17101E-09 -3.96236E-09 -3.75543E-09 -3.55025E-09 -3.34705E-09 -3.14582E-09 -2.94671E-09 -2.74981E-09
  -2.55518E-09 -2.36299E-09 -2.17326E-09 -1.98608E-09 -1.80157E-09 -1.61980E-09 -1.44087E-09 -1.26487E-09 -1.09188E-09 -9.22034E-10
  -7.55348E-10 -5.91954E-10 -4.31948E-10 -2.75386E-10 -1.22391E-10  2.69470E-11  1.72583E-10  3.14354E-10  4.52192E-10  5.86061E-10
   7.15788E-10  8.41388E-10  9.62648E-10  1.07959E-09  1.19202E-09  1.29992E-09  1.40315E-09  1.50164E-09  1.59531E-09  1.68396E-09
   1.76776E-09  1.84641E-09  1.91993E-09  1.98840E-09  2.05192E-09  2.11056E-09  2.16443E-09  2.21360E-09  2.25817E-09  2.29822E-09
   2.33386E-09  2.36516E-09  2.39223E-09  2.41515E-09  2.43404E-09  2.44896E-09  2.46005E-09  2.46739E-09  2.47106E-09  2.47120E-09
   2.46789E-09  2.46125E-09  2.45141E-09  2.43843E-09  2.42251E-09  2.40374E-09  2.38226E-09  2.35820E-09  2.33176E-09  2.30307E-09
   2.27235E-09  2.23985E-09  2.20580E-09  2.17052E-09  2.13447E-09  2.09812E-09  2.06213E-09  2.02750E-09  1.99560E-09  1.96853E-09
   1.94982E-09  1.94553E-09  1.96769E-09  2.04330E-09  2.24737E-09  2.87119E-09  5.50134E-09  7.34108E-09  7.35823E-09  6.98777E-09
   6.77769E-09  6.56680E-09  6.30978E-09  6.12458E-09  6.10490E-09  6.18415E-09  5.58570E-09  3.07873E-09  1.33262E-09  8.35526E-10
   5.95972E-10  4.39603E-10  3.19040E-10  2.16868E-10  1.25315E-10  4.04747E-11 -3.98165E-11 -1.16837E-10 -1.91373E-10 -2.63928E-10
  -3.34848E-10 -4.04342E-10 -4.72578E-10 -5.39647E-10 -6.05629E-10 -6.70579E-10 -7.34514E-10 -7.97456E-10 -8.59416E-10 -9.20388E-10
  -9.80370E-10 -1.03936E-09 -1.09735E-09 -1.15430E-09 -1.21022E-09 -1.26508E-09 -1.31887E-09 -1.37154E-09 -1.42311E-09 -1.47353E-09
  -1.52280E-09 -1.57086E-09 -1.61773E-09 -1.66335E-09 -1.70772E-09 -1.75082E-09 -1.79260E-09 -1.83305E-09 -1.87216E-09 -1.90988E-09
  -1.94620E-09 -1.98109E-09 -2.01454E-09 -2.04651E-09 -2.07700E-09 -2.10594E-09 -2.13336E-09 -2.15920E-09 -2.18345E-09 -2.20607E-09
