 LCModel (Version 6.3-1R) Copyright: S.W. Provencher.          Ref.: Magn. Reson. Med. 30:672-679 (1993).                
 onepulse 21x21_ftSpec_smooth_lcm
 26 lines in following concentration table = NCONC+1
    Conc.  %SD   /Cr    Metabolite                                         
 3.17E-11 588%   0.000 Ala                                                 
 3.79E-10 101%   0.000 Asp                                                 
    0.000 999%   0.000 Cr                                                  
 2.47E-09  15%   0.000 GABA                                                
 1.90E-09  16%   0.000 Glc                                                 
    0.000 999%   0.000 Gln                                                 
 4.27E-10  96%   0.000 Glu                                                 
    0.000 999%   0.000 Glyc                                                
    0.000 999%   0.000 GPC                                                 
 2.04E-10 101%   0.000 GSH                                                 
 2.81E-10  76%   0.000 Ins                                                 
    0.000 999%   0.000 Lac                                                 
    0.000 999%   0.000 NAAG                                                
 1.11E-09  16%   0.000 NAA                                                 
 9.96E-11  53%   0.000 PCh                                                 
    0.000 999%   0.000 PCr                                                 
    0.000 999%   0.000 PE                                                  
    0.000 999%   0.000 Scyllo                                              
    0.000 999%   0.000 Ser                                                 
    0.000 999%   0.000 Tau                                                 
 9.96E-11  53%   0.000 GPC+PCh                                             
 1.11E-09  16%   0.000 NAA+NAAG                                            
 2.81E-10  76%   0.000 Ins+Glyc                                            
    0.000 999%   0.000 Cr+PCr                                              
 4.27E-10  96%   0.000 Glu+Gln                                             
   6 lines in following misc. output table
  FWHM = 0.078 ppm    S/N =   4                                            
  Data shift = 0.324 ppm                                                   
  Ph:  32 deg      25.9 deg/ppm                                            
  alphaB,S = 1.6E-01,   1.1E+02                                            
   16 spline knots.   Ns = 5(1)                                            
  ( 7) 2 infls.   ( 3) 1 extrs.                                            
  363 points on ppm-axis = NY
      4.250000     4.238821     4.227641     4.216462     4.205282     4.194103     4.182923     4.171744     4.160564     4.149385
      4.138206     4.127026     4.115847     4.104667     4.093488     4.082308     4.071129     4.059949     4.048770     4.037591
      4.026411     4.015232     4.004052     3.992873     3.981693     3.970514     3.959334     3.948155     3.936975     3.925796
      3.914617     3.903437     3.892258     3.881078     3.869899     3.858719     3.847540     3.836360     3.825181     3.814002
      3.802822     3.791643     3.780463     3.769284     3.758104     3.746925     3.735745     3.724566     3.713387     3.702207
      3.691028     3.679848     3.668669     3.657489     3.646310     3.635130     3.623951     3.612772     3.601592     3.590413
      3.579233     3.568054     3.556874     3.545695     3.534515     3.523336     3.512156     3.500977     3.489798     3.478618
      3.467439     3.456259     3.445080     3.433900     3.422721     3.411541     3.400362     3.389183     3.378003     3.366824
      3.355644     3.344465     3.333285     3.322106     3.310926     3.299747     3.288568     3.277388     3.266209     3.255029
      3.243850     3.232670     3.221491     3.210311     3.199132     3.187953     3.176773     3.165594     3.154414     3.143235
      3.132055     3.120876     3.109696     3.098517     3.087337     3.076158     3.064979     3.053799     3.042620     3.031440
      3.020261     3.009081     2.997902     2.986722     2.975543     2.964364     2.953184     2.942005     2.930825     2.919646
      2.908466     2.897287     2.886107     2.874928     2.863749     2.852569     2.841390     2.830210     2.819031     2.807851
      2.796672     2.785492     2.774313     2.763134     2.751954     2.740775     2.729595     2.718416     2.707236     2.696057
      2.684877     2.673698     2.662519     2.651339     2.640160     2.628980     2.617801     2.606621     2.595442     2.584262
      2.573083     2.561903     2.550724     2.539545     2.528365     2.517186     2.506006     2.494827     2.483647     2.472468
      2.461288     2.450109     2.438930     2.427750     2.416571     2.405391     2.394212     2.383032     2.371853     2.360673
      2.349494     2.338315     2.327135     2.315956     2.304776     2.293597     2.282417     2.271238     2.260058     2.248879
      2.237700     2.226520     2.215341     2.204161     2.192982     2.181802     2.170623     2.159443     2.148264     2.137084
      2.125905     2.114726     2.103546     2.092367     2.081187     2.070008     2.058828     2.047649     2.036469     2.025290
      2.014111     2.002931     1.991752     1.980572     1.969393     1.958213     1.947034     1.935854     1.924675     1.913496
      1.902316     1.891137     1.879957     1.868778     1.857598     1.846419     1.835239     1.824060     1.812881     1.801701
      1.790522     1.779342     1.768163     1.756983     1.745804     1.734624     1.723445     1.712265     1.701086     1.689907
      1.678727     1.667548     1.656368     1.645189     1.634009     1.622830     1.611650     1.600471     1.589292     1.578112
      1.566933     1.555753     1.544574     1.533394     1.522215     1.511035     1.499856     1.488677     1.477497     1.466318
      1.455138     1.443959     1.432779     1.421600     1.410420     1.399241     1.388062     1.376882     1.365703     1.354523
      1.343344     1.332164     1.320985     1.309805     1.298626     1.287446     1.276267     1.265088     1.253908     1.242729
      1.231549     1.220370     1.209190     1.198011     1.186831     1.175652     1.164473     1.153293     1.142114     1.130934
      1.119755     1.108575     1.097396     1.086216     1.075037     1.063858     1.052678     1.041499     1.030319     1.019140
      1.007960     0.996781     0.985601     0.974422     0.963243     0.952063     0.940884     0.929704     0.918525     0.907345
      0.896166     0.884986     0.873807     0.862628     0.851448     0.840269     0.829089     0.817910     0.806730     0.795551
      0.784371     0.773192     0.762012     0.750833     0.739654     0.728474     0.717295     0.706115     0.694936     0.683756
      0.672577     0.661397     0.650218     0.639039     0.627859     0.616680     0.605500     0.594321     0.583141     0.571962
      0.560782     0.549603     0.538424     0.527244     0.516065     0.504885     0.493706     0.482526     0.471347     0.460167
      0.448988     0.437809     0.426629     0.415450     0.404270     0.393091     0.381911     0.370732     0.359552     0.348373
      0.337193     0.326014     0.314835     0.303655     0.292476     0.281296     0.270117     0.258937     0.247758     0.236578
      0.225399     0.214220     0.203040
 NY phased data points follow
   3.48393E-09  6.12974E-09  8.58029E-09  1.06115E-08  1.23432E-08  1.16475E-08  1.00937E-08  9.07283E-09  7.87108E-09  6.84078E-09
   6.58927E-09  6.42496E-09  6.41824E-09  6.83801E-09  7.53891E-09  7.47803E-09  7.65464E-09  8.65058E-09  9.25937E-09  8.94595E-09
   8.24223E-09  8.57463E-09  8.04698E-09  8.13661E-09  7.02672E-09  7.19149E-09  6.77018E-09  8.20981E-09  8.03845E-09  8.48410E-09
   7.38200E-09  6.65019E-09  6.79818E-09  7.50349E-09  8.33239E-09  1.06202E-08  1.04321E-08  1.01993E-08  8.68272E-09  7.54644E-09
   6.11484E-09  5.40259E-09  5.32913E-09  4.64406E-09  5.43399E-09  4.75576E-09  4.39422E-09  4.66857E-09  4.65771E-09  3.63689E-09
   3.08391E-09  3.23493E-09  3.79996E-09  3.74859E-09  4.35736E-09  4.24316E-09  4.05953E-09  3.21273E-09  3.29633E-09  3.06003E-09
   3.34274E-09  4.48217E-09  4.94119E-09  5.29891E-09  6.51042E-09  8.33061E-09  9.80466E-09  1.17899E-08  1.02625E-08  8.71899E-09
   6.82594E-09  5.44779E-09  4.68618E-09  4.35648E-09  2.77286E-09  3.55659E-09  3.19043E-09  2.66866E-09  3.35645E-09  3.86647E-09
   4.90974E-09  8.03827E-09  1.15076E-08  1.45379E-08  1.34419E-08  1.12705E-08  9.63915E-09  7.90222E-09  7.34463E-09  6.70155E-09
   6.08461E-09  6.01973E-09  4.81999E-09  5.47760E-09  5.16547E-09  4.22533E-09  3.81394E-09  3.41306E-09  3.73280E-09  2.89142E-09
   2.31637E-09  2.75765E-09  3.22881E-09  2.82846E-09  3.21051E-09  3.53679E-09  2.82200E-09  2.96252E-09  3.50051E-09  2.77936E-09
   2.65892E-09  2.69189E-09  1.80253E-09  1.78312E-09  2.25664E-09  2.72661E-09  3.42405E-09  2.84265E-09  3.56444E-09  3.51900E-09
   3.50124E-09  3.42488E-09  3.12695E-09  3.43857E-09  2.69283E-09  2.22954E-09  1.66982E-09  1.72821E-09  1.93646E-09  1.46725E-09
   1.56794E-09  2.95815E-09  2.34593E-09  2.54708E-09  2.94449E-09  3.46836E-09  2.92967E-09  2.76980E-09  2.41700E-09  2.52273E-09
   2.37857E-09  3.71507E-09  4.32373E-09  4.69314E-09  4.79182E-09  4.46875E-09  3.94540E-09  4.56079E-09  4.46355E-09  4.59818E-09
   5.05987E-09  4.51870E-09  3.88723E-09  4.26155E-09  4.46940E-09  4.24662E-09  4.21421E-09  4.32805E-09  4.62310E-09  4.76382E-09
   5.47457E-09  5.57026E-09  5.90795E-09  6.04746E-09  6.30365E-09  6.95889E-09  7.33276E-09  7.48766E-09  8.26942E-09  8.78816E-09
   1.06525E-08  1.25862E-08  1.49156E-08  1.68457E-08  1.80167E-08  1.48568E-08  1.14086E-08  8.00001E-09  6.17891E-09  4.41158E-09
   4.66830E-09  3.58740E-09  3.20236E-09  2.16312E-09  2.31258E-09  1.96888E-09  1.51864E-09  8.44271E-10  6.05987E-10  1.11885E-10
  -5.91691E-10 -8.02029E-10 -1.84591E-09 -2.11592E-09 -3.21397E-09 -3.18278E-09 -4.35260E-09 -5.08554E-09 -6.20995E-09 -7.36239E-09
  -8.03527E-09 -8.59702E-09 -1.01686E-08 -1.07456E-08 -1.11326E-08 -1.15451E-08 -1.21332E-08 -1.18892E-08 -1.17592E-08 -1.12430E-08
  -1.09880E-08 -1.05025E-08 -8.82625E-09 -7.58477E-09 -7.03963E-09 -4.98790E-09 -4.29138E-09 -3.15994E-09 -2.52042E-09 -1.77673E-09
  -1.57488E-09 -1.64828E-09 -1.99981E-09 -2.62624E-09 -1.88918E-09 -2.11601E-09 -3.07958E-09 -2.35056E-09 -2.36719E-09 -2.31155E-09
  -1.93386E-09 -1.84443E-09 -1.76495E-09 -2.41989E-09 -1.54012E-09 -2.79991E-09 -2.84356E-09 -2.29428E-09 -2.05043E-09 -2.34358E-09
  -2.32429E-09 -1.78294E-09 -1.22940E-09 -1.50100E-09 -1.77802E-09 -2.30164E-09 -1.98897E-09 -2.44436E-09 -2.33010E-09 -2.05803E-09
  -1.88571E-09 -1.85515E-09 -1.56631E-09 -1.48747E-09 -1.57923E-09 -1.21802E-09 -1.14921E-09 -1.50171E-09 -1.14618E-09 -2.13760E-09
  -1.58095E-09 -1.80709E-09 -2.43474E-09 -2.64211E-09 -2.37644E-09 -2.26331E-09 -1.97471E-09 -1.54893E-09 -1.47339E-09 -1.14153E-09
  -6.06527E-10 -1.02360E-09 -1.07858E-09 -5.68519E-10 -9.50228E-10 -1.22653E-09 -7.59481E-10 -1.01465E-09 -1.02074E-09 -2.01469E-09
  -1.81002E-09 -1.54357E-09 -1.86792E-09 -1.86942E-09 -1.63053E-09 -1.88526E-09 -1.53777E-09 -2.01184E-09 -1.57775E-09 -1.41838E-09
  -1.31835E-09 -1.34400E-09 -2.01801E-09 -1.18223E-09 -1.03771E-09 -1.14474E-09 -1.66844E-09 -1.16402E-09 -1.37704E-09 -1.36392E-09
  -1.60827E-09 -1.38969E-09 -1.09785E-09 -1.60415E-09 -1.23720E-09 -1.11534E-09 -5.53127E-10 -1.32275E-09 -1.08541E-09 -9.50809E-10
  -1.46664E-09 -1.26055E-09 -1.05855E-09 -7.62133E-10 -7.67459E-10 -1.02166E-09 -1.49365E-09 -1.00426E-09 -8.07226E-10 -1.29593E-09
  -7.64096E-10 -1.61102E-09 -1.14276E-09 -1.24514E-09 -8.97890E-10 -1.01350E-09 -9.88976E-10 -1.25637E-09 -6.26749E-10 -1.07492E-09
  -7.56450E-10 -1.04429E-09 -1.04233E-09 -1.32601E-09 -7.80140E-10 -6.58829E-10 -8.23580E-10 -1.26468E-09 -1.28379E-09 -9.56516E-10
  -1.04329E-09 -9.45568E-10 -1.27121E-09 -4.53137E-10 -5.70591E-10 -1.06334E-09 -5.28559E-10 -1.27735E-09 -7.39452E-10 -5.67948E-10
  -6.53442E-10 -4.29456E-10 -1.18892E-09 -6.81803E-10 -9.70709E-10 -7.85589E-10 -5.08469E-10 -1.27497E-09 -9.73487E-10 -8.72159E-10
  -9.44385E-10 -7.76591E-10 -1.07553E-09
 NY points of the fit to the data follow
   6.54669E-09  7.39463E-09  8.30341E-09  9.16823E-09  9.78101E-09  9.96802E-09  9.67597E-09  8.98121E-09  8.15080E-09  7.29564E-09
   6.74644E-09  6.53991E-09  6.53731E-09  6.68107E-09  6.96720E-09  7.35791E-09  7.82856E-09  8.35396E-09  8.86157E-09  9.28719E-09
   9.61260E-09  9.63583E-09  9.20936E-09  8.46505E-09  7.60055E-09  6.81099E-09  6.40145E-09  6.56594E-09  7.07555E-09  7.58532E-09
   7.90418E-09  8.16872E-09  8.33536E-09  8.34047E-09  8.37490E-09  8.59338E-09  8.81626E-09  8.81152E-09  8.53570E-09  8.09370E-09
   7.54767E-09  6.67004E-09  5.68906E-09  5.05190E-09  4.42771E-09  3.80312E-09  3.48832E-09  3.35157E-09  3.35622E-09  3.43406E-09
   3.51027E-09  3.54207E-09  3.53652E-09  3.52256E-09  3.55178E-09  3.65399E-09  3.80138E-09  3.94283E-09  3.99066E-09  3.99542E-09
   4.11028E-09  4.44386E-09  4.95056E-09  5.67585E-09  6.62041E-09  7.48661E-09  8.13603E-09  8.57511E-09  8.77095E-09  8.60626E-09
   8.09160E-09  7.26152E-09  6.29200E-09  5.33898E-09  4.42067E-09  3.87036E-09  3.81938E-09  4.20289E-09  5.02002E-09  6.21911E-09
   7.59834E-09  9.11667E-09  1.06614E-08  1.17618E-08  1.20898E-08  1.15884E-08  1.02828E-08  8.51726E-09  6.90650E-09  6.19052E-09
   5.97113E-09  5.79058E-09  5.41932E-09  5.01930E-09  4.73344E-09  4.30193E-09  3.84819E-09  3.57185E-09  3.32675E-09  3.10660E-09
   2.96947E-09  2.88482E-09  2.83510E-09  2.81522E-09  2.81446E-09  2.82393E-09  2.83704E-09  2.84884E-09  2.85620E-09  2.85786E-09
   2.85562E-09  2.85549E-09  2.86201E-09  2.86511E-09  2.87331E-09  2.89667E-09  2.92587E-09  2.95801E-09  2.99195E-09  3.02707E-09
   3.06296E-09  3.09927E-09  3.13574E-09  3.17212E-09  3.20821E-09  3.24383E-09  3.27879E-09  3.31296E-09  3.34617E-09  3.37827E-09
   3.40913E-09  3.43860E-09  3.46656E-09  3.49288E-09  3.51742E-09  3.54006E-09  3.56068E-09  3.57917E-09  3.59542E-09  3.60931E-09
   3.62073E-09  3.62949E-09  3.63540E-09  3.63827E-09  3.63791E-09  3.63416E-09  3.62683E-09  3.61575E-09  3.60076E-09  3.58172E-09
   3.55851E-09  3.53102E-09  3.49918E-09  3.46296E-09  3.42240E-09  3.37758E-09  3.32876E-09  3.27632E-09  3.22095E-09  3.16376E-09
   3.10665E-09  3.05287E-09  3.00851E-09  2.98609E-09  3.01693E-09  3.21175E-09  3.91567E-09  5.30669E-09  7.30633E-09  9.68326E-09
   1.23169E-08  1.49410E-08  1.70189E-08  1.78800E-08  1.70203E-08  1.43678E-08  1.04150E-08  6.21406E-09  3.08782E-09  1.40627E-09
   6.91884E-10  2.45623E-10 -9.95345E-11 -3.94660E-10 -6.60666E-10 -9.07641E-10 -1.14089E-09 -1.36336E-09 -1.57668E-09 -1.78176E-09
  -1.97903E-09 -2.16864E-09 -2.35052E-09 -2.52445E-09 -2.69016E-09 -2.84728E-09 -2.99554E-09 -3.13510E-09 -3.26618E-09 -3.38899E-09
  -3.50370E-09 -3.61049E-09 -3.70951E-09 -3.80092E-09 -3.88485E-09 -3.96146E-09 -4.03087E-09 -4.09321E-09 -4.14860E-09 -4.19718E-09
  -4.23907E-09 -4.27438E-09 -4.30323E-09 -4.32575E-09 -4.34205E-09 -4.35224E-09 -4.35644E-09 -4.35476E-09 -4.34732E-09 -4.33422E-09
  -4.31559E-09 -4.29152E-09 -4.26214E-09 -4.22754E-09 -4.18792E-09 -4.14353E-09 -4.09469E-09 -4.04168E-09 -3.98481E-09 -3.92437E-09
  -3.86067E-09 -3.79398E-09 -3.72462E-09 -3.65288E-09 -3.57905E-09 -3.50343E-09 -3.42632E-09 -3.34801E-09 -3.26879E-09 -3.18897E-09
  -3.10885E-09 -3.02870E-09 -2.94884E-09 -2.86955E-09 -2.79113E-09 -2.71388E-09 -2.63808E-09 -2.56405E-09 -2.49207E-09 -2.42244E-09
  -2.35544E-09 -2.29139E-09 -2.23040E-09 -2.17240E-09 -2.11728E-09 -2.06498E-09 -2.01536E-09 -1.96836E-09 -1.92387E-09 -1.88179E-09
  -1.84204E-09 -1.80450E-09 -1.76910E-09 -1.73573E-09 -1.70431E-09 -1.67473E-09 -1.64688E-09 -1.62070E-09 -1.59609E-09 -1.57292E-09
  -1.55112E-09 -1.53060E-09 -1.51125E-09 -1.49298E-09 -1.47570E-09 -1.45929E-09 -1.44370E-09 -1.42879E-09 -1.41450E-09 -1.40071E-09
  -1.38737E-09 -1.37448E-09 -1.36201E-09 -1.34994E-09 -1.33827E-09 -1.32697E-09 -1.31603E-09 -1.30544E-09 -1.29517E-09 -1.28522E-09
  -1.27557E-09 -1.26619E-09 -1.25708E-09 -1.24822E-09 -1.23960E-09 -1.23118E-09 -1.22298E-09 -1.21495E-09 -1.20710E-09 -1.19940E-09
  -1.19184E-09 -1.18440E-09 -1.17707E-09 -1.16983E-09 -1.16267E-09 -1.15556E-09 -1.14850E-09 -1.14146E-09 -1.13445E-09 -1.12746E-09
  -1.12049E-09 -1.11356E-09 -1.10665E-09 -1.09976E-09 -1.09291E-09 -1.08609E-09 -1.07930E-09 -1.07254E-09 -1.06582E-09 -1.05913E-09
  -1.05248E-09 -1.04586E-09 -1.03928E-09 -1.03274E-09 -1.02624E-09 -1.01978E-09 -1.01336E-09 -1.00698E-09 -1.00065E-09 -9.94371E-10
  -9.88130E-10 -9.81937E-10 -9.75791E-10 -9.69697E-10 -9.63654E-10 -9.57658E-10 -9.51714E-10 -9.45823E-10 -9.39981E-10 -9.34190E-10
  -9.28448E-10 -9.22755E-10 -9.17111E-10 -9.11514E-10 -9.05969E-10 -9.00467E-10 -8.95017E-10 -8.89612E-10 -8.84255E-10 -8.78943E-10
  -8.73676E-10 -8.68457E-10 -8.63282E-10 -8.58152E-10 -8.53066E-10 -8.48026E-10 -8.43029E-10 -8.38073E-10 -8.33161E-10 -8.28293E-10
  -8.23468E-10 -8.18686E-10 -8.13942E-10
 NY background values follow
     7.237E-10    7.165E-10    7.092E-10    7.019E-10    6.946E-10    6.871E-10    6.796E-10    6.721E-10    6.645E-10    6.568E-10
     6.491E-10    6.414E-10    6.336E-10    6.257E-10    6.178E-10    6.098E-10    6.018E-10    5.937E-10    5.856E-10    5.774E-10
     5.692E-10    5.609E-10    5.526E-10    5.442E-10    5.358E-10    5.274E-10    5.189E-10    5.103E-10    5.018E-10    4.932E-10
     4.845E-10    4.759E-10    4.673E-10    4.587E-10    4.503E-10    4.418E-10    4.335E-10    4.254E-10    4.173E-10    4.095E-10
     4.018E-10    3.943E-10    3.870E-10    3.800E-10    3.733E-10    3.668E-10    3.607E-10    3.549E-10    3.494E-10    3.443E-10
     3.396E-10    3.353E-10    3.314E-10    3.280E-10    3.250E-10    3.225E-10    3.206E-10    3.192E-10    3.183E-10    3.181E-10
     3.185E-10    3.195E-10    3.213E-10    3.239E-10    3.272E-10    3.313E-10    3.363E-10    3.422E-10    3.490E-10    3.568E-10
     3.655E-10    3.753E-10    3.862E-10    3.981E-10    4.112E-10    4.255E-10    4.410E-10    4.577E-10    4.757E-10    4.950E-10
     5.157E-10    5.378E-10    5.613E-10    5.862E-10    6.126E-10    6.405E-10    6.699E-10    7.007E-10    7.328E-10    7.662E-10
     8.009E-10    8.368E-10    8.739E-10    9.121E-10    9.514E-10    9.917E-10    1.033E-09    1.075E-09    1.118E-09    1.162E-09
     1.207E-09    1.253E-09    1.299E-09    1.346E-09    1.394E-09    1.442E-09    1.490E-09    1.540E-09    1.589E-09    1.639E-09
     1.690E-09    1.740E-09    1.791E-09    1.842E-09    1.893E-09    1.945E-09    1.996E-09    2.046E-09    2.097E-09    2.146E-09
     2.196E-09    2.244E-09    2.292E-09    2.339E-09    2.385E-09    2.430E-09    2.473E-09    2.515E-09    2.556E-09    2.595E-09
     2.633E-09    2.668E-09    2.702E-09    2.734E-09    2.764E-09    2.791E-09    2.816E-09    2.839E-09    2.859E-09    2.877E-09
     2.892E-09    2.904E-09    2.913E-09    2.918E-09    2.920E-09    2.918E-09    2.912E-09    2.902E-09    2.888E-09    2.869E-09
     2.845E-09    2.817E-09    2.783E-09    2.744E-09    2.699E-09    2.649E-09    2.592E-09    2.530E-09    2.461E-09    2.385E-09
     2.303E-09    2.213E-09    2.117E-09    2.013E-09    1.901E-09    1.782E-09    1.654E-09    1.519E-09    1.375E-09    1.223E-09
     1.064E-09    8.980E-10    7.261E-10    5.487E-10    3.663E-10    1.797E-10   -1.075E-11   -2.043E-10   -4.004E-10   -5.985E-10
    -7.980E-10   -9.982E-10   -1.199E-09   -1.399E-09   -1.598E-09   -1.795E-09   -1.990E-09   -2.183E-09   -2.372E-09   -2.557E-09
    -2.737E-09   -2.913E-09   -3.082E-09   -3.246E-09   -3.402E-09   -3.551E-09   -3.692E-09   -3.825E-09   -3.950E-09   -4.068E-09
    -4.177E-09   -4.280E-09   -4.374E-09   -4.462E-09   -4.542E-09   -4.616E-09   -4.682E-09   -4.741E-09   -4.794E-09   -4.840E-09
    -4.879E-09   -4.912E-09   -4.939E-09   -4.959E-09   -4.974E-09   -4.982E-09   -4.984E-09   -4.981E-09   -4.972E-09   -4.957E-09
    -4.937E-09   -4.911E-09   -4.880E-09   -4.844E-09   -4.803E-09   -4.758E-09   -4.707E-09   -4.653E-09   -4.595E-09   -4.533E-09
    -4.469E-09   -4.401E-09   -4.330E-09   -4.258E-09   -4.183E-09   -4.106E-09   -4.028E-09   -3.949E-09   -3.869E-09   -3.788E-09
    -3.707E-09   -3.626E-09   -3.545E-09   -3.465E-09   -3.386E-09   -3.308E-09   -3.231E-09   -3.156E-09   -3.083E-09   -3.013E-09
    -2.945E-09   -2.880E-09   -2.819E-09   -2.760E-09   -2.704E-09   -2.651E-09   -2.601E-09   -2.553E-09   -2.508E-09   -2.465E-09
    -2.425E-09   -2.387E-09   -2.351E-09   -2.317E-09   -2.285E-09   -2.255E-09   -2.226E-09   -2.199E-09   -2.174E-09   -2.150E-09
    -2.128E-09   -2.107E-09   -2.087E-09   -2.068E-09   -2.050E-09   -2.034E-09   -2.017E-09   -2.002E-09   -1.987E-09   -1.973E-09
    -1.959E-09   -1.946E-09   -1.933E-09   -1.920E-09   -1.908E-09   -1.896E-09   -1.885E-09   -1.874E-09   -1.863E-09   -1.852E-09
    -1.842E-09   -1.833E-09   -1.823E-09   -1.814E-09   -1.805E-09   -1.796E-09   -1.787E-09   -1.779E-09   -1.770E-09   -1.762E-09
    -1.754E-09   -1.746E-09   -1.739E-09   -1.731E-09   -1.723E-09   -1.716E-09   -1.708E-09   -1.701E-09   -1.693E-09   -1.686E-09
    -1.679E-09   -1.671E-09   -1.664E-09   -1.657E-09   -1.649E-09   -1.642E-09   -1.635E-09   -1.628E-09   -1.621E-09   -1.614E-09
    -1.607E-09   -1.600E-09   -1.593E-09   -1.586E-09   -1.579E-09   -1.572E-09   -1.565E-09   -1.559E-09   -1.552E-09   -1.545E-09
    -1.539E-09   -1.532E-09   -1.525E-09   -1.519E-09   -1.513E-09   -1.506E-09   -1.500E-09   -1.494E-09   -1.487E-09   -1.481E-09
    -1.475E-09   -1.469E-09   -1.463E-09   -1.457E-09   -1.451E-09   -1.445E-09   -1.440E-09   -1.434E-09   -1.428E-09   -1.422E-09
    -1.417E-09   -1.411E-09   -1.406E-09   -1.400E-09   -1.395E-09   -1.389E-09   -1.384E-09   -1.379E-09   -1.373E-09   -1.368E-09
    -1.363E-09   -1.358E-09   -1.353E-09
 Ala      Conc. = 3.17E-11
   7.43831E-10  7.39604E-10  7.34665E-10  7.29082E-10  7.22717E-10  7.15517E-10  7.07137E-10  6.97269E-10  6.87491E-10  6.77747E-10
   6.66248E-10  6.55196E-10  6.45463E-10  6.35357E-10  6.25464E-10  6.16249E-10  6.07372E-10  5.98678E-10  5.90082E-10  5.81539E-10
   5.73020E-10  5.64508E-10  5.55992E-10  5.47461E-10  5.38909E-10  5.30336E-10  5.21736E-10  5.13105E-10  5.04445E-10  4.95759E-10
   4.87065E-10  4.78379E-10  4.69722E-10  4.61115E-10  4.52575E-10  4.44123E-10  4.35780E-10  4.27564E-10  4.19496E-10  4.11595E-10
   4.03882E-10  3.96376E-10  3.89099E-10  3.82069E-10  3.75309E-10  3.68835E-10  3.62670E-10  3.56836E-10  3.51348E-10  3.46230E-10
   3.41503E-10  3.37183E-10  3.33294E-10  3.29855E-10  3.26893E-10  3.24414E-10  3.22445E-10  3.21016E-10  3.20158E-10  3.19907E-10
   3.20298E-10  3.21367E-10  3.23149E-10  3.25680E-10  3.28995E-10  3.33130E-10  3.38121E-10  3.44001E-10  3.50809E-10  3.58578E-10
   3.67345E-10  3.77145E-10  3.88014E-10  3.99988E-10  4.13101E-10  4.27391E-10  4.42893E-10  4.59642E-10  4.77675E-10  4.97029E-10
   5.17736E-10  5.39839E-10  5.63368E-10  5.88366E-10  6.14864E-10  6.42865E-10  6.72326E-10  7.03207E-10  7.35467E-10  7.69067E-10
   8.03971E-10  8.40145E-10  8.77563E-10  9.16207E-10  9.56075E-10  9.97190E-10  1.03963E-09  1.08360E-09  1.12962E-09  1.17949E-09
   1.23683E-09  1.29663E-09  1.35916E-09  1.42942E-09  1.50296E-09  1.57463E-09  1.64049E-09  1.69759E-09  1.74436E-09  1.78082E-09
   1.80967E-09  1.83738E-09  1.86888E-09  1.89443E-09  1.92289E-09  1.96472E-09  2.01087E-09  2.05863E-09  2.10698E-09  2.15543E-09
   2.20365E-09  2.25142E-09  2.29856E-09  2.34492E-09  2.39035E-09  2.43473E-09  2.47793E-09  2.51983E-09  2.56032E-09  2.59927E-09
   2.63658E-09  2.67214E-09  2.70583E-09  2.73754E-09  2.76716E-09  2.79459E-09  2.81970E-09  2.84239E-09  2.86256E-09  2.88009E-09
   2.89487E-09  2.90672E-09  2.91543E-09  2.92081E-09  2.92266E-09  2.92076E-09  2.91492E-09  2.90493E-09  2.89059E-09  2.87170E-09
   2.84805E-09  2.81944E-09  2.78567E-09  2.74653E-09  2.70183E-09  2.65136E-09  2.59492E-09  2.53231E-09  2.46333E-09  2.38778E-09
   2.30546E-09  2.21619E-09  2.11980E-09  2.01611E-09  1.90503E-09  1.78663E-09  1.66193E-09  1.53399E-09  1.40020E-09  1.26005E-09
   1.11421E-09  9.62268E-10  8.02121E-10  6.30749E-10  4.45821E-10  2.47369E-10  3.81731E-11 -1.76244E-10 -3.87978E-10 -5.90667E-10
  -7.91988E-10 -9.93217E-10 -1.19425E-09 -1.39468E-09 -1.59397E-09 -1.79161E-09 -1.98701E-09 -2.17960E-09 -2.36878E-09 -2.55398E-09
  -2.73462E-09 -2.91010E-09 -3.07983E-09 -3.24321E-09 -3.39967E-09 -3.54861E-09 -3.68957E-09 -3.82259E-09 -3.94776E-09 -4.06520E-09
  -4.17500E-09 -4.27729E-09 -4.37216E-09 -4.45972E-09 -4.54009E-09 -4.61336E-09 -4.67966E-09 -4.73908E-09 -4.79172E-09 -4.83770E-09
  -4.87714E-09 -4.91012E-09 -4.93676E-09 -4.95718E-09 -4.97147E-09 -4.97974E-09 -4.98210E-09 -4.97866E-09 -4.96953E-09 -4.95480E-09
  -4.93460E-09 -4.90902E-09 -4.87818E-09 -4.84218E-09 -4.80119E-09 -4.75548E-09 -4.70536E-09 -4.65111E-09 -4.59303E-09 -4.53143E-09
  -4.46658E-09 -4.39878E-09 -4.32834E-09 -4.25555E-09 -4.18069E-09 -4.10407E-09 -4.02597E-09 -3.94671E-09 -3.86655E-09 -3.78582E-09
  -3.70479E-09 -3.62376E-09 -3.54304E-09 -3.46291E-09 -3.38366E-09 -3.30559E-09 -3.22900E-09 -3.15418E-09 -3.08143E-09 -3.01105E-09
  -2.94331E-09 -2.87853E-09 -2.81682E-09 -2.75811E-09 -2.70230E-09 -2.64930E-09 -2.59902E-09 -2.55135E-09 -2.50620E-09 -2.46347E-09
  -2.42308E-09 -2.38492E-09 -2.34890E-09 -2.31492E-09 -2.28289E-09 -2.25271E-09 -2.22427E-09 -2.19751E-09 -2.17232E-09 -2.14859E-09
  -2.12623E-09 -2.10515E-09 -2.08525E-09 -2.06643E-09 -2.04862E-09 -2.03168E-09 -2.01556E-09 -2.00013E-09 -1.98532E-09 -1.97102E-09
  -1.95718E-09 -1.94379E-09 -1.93082E-09 -1.91826E-09 -1.90610E-09 -1.89432E-09 -1.88291E-09 -1.87184E-09 -1.86110E-09 -1.85068E-09
  -1.84057E-09 -1.83073E-09 -1.82117E-09 -1.81185E-09 -1.80278E-09 -1.79392E-09 -1.78527E-09 -1.77681E-09 -1.76853E-09 -1.76039E-09
  -1.75240E-09 -1.74454E-09 -1.73678E-09 -1.72912E-09 -1.72153E-09 -1.71401E-09 -1.70653E-09 -1.69908E-09 -1.69166E-09 -1.68427E-09
  -1.67690E-09 -1.66956E-09 -1.66225E-09 -1.65497E-09 -1.64772E-09 -1.64050E-09 -1.63332E-09 -1.62617E-09 -1.61906E-09 -1.61198E-09
  -1.60494E-09 -1.59793E-09 -1.59097E-09 -1.58405E-09 -1.57717E-09 -1.57033E-09 -1.56354E-09 -1.55678E-09 -1.55008E-09 -1.54342E-09
  -1.53681E-09 -1.53024E-09 -1.52372E-09 -1.51726E-09 -1.51085E-09 -1.50448E-09 -1.49817E-09 -1.49192E-09 -1.48571E-09 -1.47955E-09
  -1.47345E-09 -1.46739E-09 -1.46138E-09 -1.45542E-09 -1.44952E-09 -1.44365E-09 -1.43784E-09 -1.43208E-09 -1.42636E-09 -1.42069E-09
  -1.41506E-09 -1.40949E-09 -1.40395E-09 -1.39846E-09 -1.39302E-09 -1.38762E-09 -1.38226E-09 -1.37695E-09 -1.37168E-09 -1.36645E-09
  -1.36127E-09 -1.35613E-09 -1.35102E-09
 Asp      Conc. = 3.79E-10
   1.19378E-09  1.14231E-09  1.08632E-09  1.02131E-09  9.52455E-10  8.77410E-10  8.14413E-10  7.64221E-10  7.34854E-10  7.14157E-10
   6.97964E-10  6.84503E-10  6.72816E-10  6.62229E-10  6.52148E-10  6.42395E-10  6.32956E-10  6.23779E-10  6.14817E-10  6.06033E-10
   5.97406E-10  5.88919E-10  5.80567E-10  5.72349E-10  5.64270E-10  5.56351E-10  5.48610E-10  5.41082E-10  5.33818E-10  5.26894E-10
   5.20429E-10  5.14588E-10  5.09622E-10  5.05926E-10  5.04199E-10  5.05915E-10  5.14730E-10  5.28369E-10  5.49374E-10  5.72138E-10
   5.93545E-10  6.11616E-10  6.26309E-10  6.42369E-10  6.59470E-10  6.93528E-10  7.36053E-10  7.92156E-10  8.79962E-10  9.77566E-10
   1.05705E-09  1.08397E-09  1.04915E-09  9.61906E-10  8.51738E-10  7.58638E-10  6.90644E-10  6.56333E-10  6.05415E-10  5.47955E-10
   5.19267E-10  5.08000E-10  5.01759E-10  5.00663E-10  4.94994E-10  4.76261E-10  4.51654E-10  4.39086E-10  4.33431E-10  4.32071E-10
   4.33803E-10  4.37992E-10  4.44270E-10  4.52413E-10  4.62278E-10  4.73780E-10  4.86860E-10  5.01485E-10  5.17639E-10  5.35318E-10
   5.54521E-10  5.75261E-10  5.97550E-10  6.21409E-10  6.46853E-10  6.73872E-10  7.02411E-10  7.32415E-10  7.63832E-10  7.96610E-10
   8.30697E-10  8.66043E-10  9.02599E-10  9.40315E-10  9.79143E-10  1.01903E-09  1.05994E-09  1.10181E-09  1.14461E-09  1.18827E-09
   1.23276E-09  1.27803E-09  1.32403E-09  1.37071E-09  1.41803E-09  1.46594E-09  1.51440E-09  1.56336E-09  1.61276E-09  1.66258E-09
   1.71275E-09  1.76323E-09  1.81398E-09  1.86491E-09  1.91592E-09  1.96689E-09  2.01772E-09  2.06829E-09  2.11850E-09  2.16825E-09
   2.21741E-09  2.26589E-09  2.31357E-09  2.36035E-09  2.40611E-09  2.45076E-09  2.49417E-09  2.53625E-09  2.57688E-09  2.61596E-09
   2.65337E-09  2.68902E-09  2.72278E-09  2.75455E-09  2.78423E-09  2.81171E-09  2.83687E-09  2.85961E-09  2.87982E-09  2.89739E-09
   2.91222E-09  2.92411E-09  2.93289E-09  2.93833E-09  2.94024E-09  2.93842E-09  2.93267E-09  2.92278E-09  2.90856E-09  2.88980E-09
   2.86632E-09  2.83790E-09  2.80436E-09  2.76549E-09  2.72112E-09  2.67105E-09  2.61510E-09  2.55310E-09  2.48489E-09  2.41033E-09
   2.32931E-09  2.24179E-09  2.14785E-09  2.04777E-09  1.94246E-09  1.83463E-09  1.73553E-09  1.68754E-09  1.66277E-09  1.64848E-09
   1.64587E-09  1.64559E-09  1.61772E-09  1.52000E-09  1.31635E-09  9.97684E-10  5.87640E-10  1.42498E-10 -2.51903E-10 -5.13262E-10
  -7.36576E-10 -9.49067E-10 -1.15686E-09 -1.36175E-09 -1.56417E-09 -1.76411E-09 -1.96126E-09 -2.15522E-09 -2.34550E-09 -2.53160E-09
  -2.71297E-09 -2.88908E-09 -3.05934E-09 -3.22317E-09 -3.38002E-09 -3.52931E-09 -3.67058E-09 -3.80386E-09 -3.92927E-09 -4.04692E-09
  -4.15692E-09 -4.25938E-09 -4.35442E-09 -4.44213E-09 -4.52263E-09 -4.59603E-09 -4.66244E-09 -4.72197E-09 -4.77471E-09 -4.82079E-09
  -4.86031E-09 -4.89337E-09 -4.92009E-09 -4.94058E-09 -4.95494E-09 -4.96328E-09 -4.96570E-09 -4.96232E-09 -4.95324E-09 -4.93857E-09
  -4.91842E-09 -4.89288E-09 -4.86209E-09 -4.82613E-09 -4.78518E-09 -4.73952E-09 -4.68944E-09 -4.63523E-09 -4.57719E-09 -4.51562E-09
