 LCModel (Version 6.3-1R) Copyright: S.W. Provencher.          Ref.: Magn. Reson. Med. 30:672-679 (1993).                
 onepulse 21x29_ftSpec_smooth_lcm
 26 lines in following concentration table = NCONC+1
    Conc.  %SD /Cr+PCr  Metabolite                                         
 4.76E-10  79%   1.617 Ala                                                 
 8.42E-10 107%   2.859 Asp                                                 
    0.000 999%   0.000 Cr                                                  
 1.02E-09  77%   3.471 GABA                                                
    0.000 999%   0.000 Glc                                                 
 1.07E-09  82%   3.643 Gln                                                 
    0.000 999%   0.000 Glu                                                 
 1.53E-09 138%   5.201 Glyc                                                
    0.000 999%   0.000 GPC                                                 
    0.000 999%   0.000 GSH                                                 
 1.23E-10 999%   0.416 Ins                                                 
 9.28E-11 396%   0.315 Lac                                                 
 1.40E-10 316%   0.477 NAAG                                                
 7.40E-10  84%   2.511 NAA                                                 
    0.000 999%   0.000 PCh                                                 
 2.95E-10 130%   1.000 PCr                                                 
 1.99E-09  59%   6.752 PE                                                  
 1.17E-10 295%   0.397 Scyllo                                              
 7.80E-10 124%   2.647 Ser                                                 
 1.34E-10 873%   0.453 Tau                                                 
    0.000 999%   0.000 GPC+PCh                                             
 8.80E-10  41%   2.988 NAA+NAAG                                            
 1.65E-09  39%   5.617 Ins+Glyc                                            
 2.95E-10 130%   1.000 Cr+PCr                                              
 1.07E-09  82%   3.643 Glu+Gln                                             
   6 lines in following misc. output table
  FWHM = 0.123 ppm    S/N =   2                                            
  Data shift = 0.414 ppm                                                   
  Ph:  61 deg      -1.7 deg/ppm                                            
  alphaB,S = 1.1E+00,   2.6E+01                                            
    8 spline knots.   Ns = 5(1)                                            
  (10) 4 infls.   ( 9) 3 extrs.                                            
  363 points on ppm-axis = NY
      4.250000     4.238821     4.227641     4.216462     4.205282     4.194103     4.182923     4.171744     4.160564     4.149385
      4.138206     4.127026     4.115847     4.104667     4.093488     4.082308     4.071129     4.059949     4.048770     4.037591
      4.026411     4.015232     4.004052     3.992873     3.981693     3.970514     3.959334     3.948155     3.936975     3.925796
      3.914617     3.903437     3.892258     3.881078     3.869899     3.858719     3.847540     3.836360     3.825181     3.814002
      3.802822     3.791643     3.780463     3.769284     3.758104     3.746925     3.735745     3.724566     3.713387     3.702207
      3.691028     3.679848     3.668669     3.657489     3.646310     3.635130     3.623951     3.612772     3.601592     3.590413
      3.579233     3.568054     3.556874     3.545695     3.534515     3.523336     3.512156     3.500977     3.489798     3.478618
      3.467439     3.456259     3.445080     3.433900     3.422721     3.411541     3.400362     3.389183     3.378003     3.366824
      3.355644     3.344465     3.333285     3.322106     3.310926     3.299747     3.288568     3.277388     3.266209     3.255029
      3.243850     3.232670     3.221491     3.210311     3.199132     3.187953     3.176773     3.165594     3.154414     3.143235
      3.132055     3.120876     3.109696     3.098517     3.087337     3.076158     3.064979     3.053799     3.042620     3.031440
      3.020261     3.009081     2.997902     2.986722     2.975543     2.964364     2.953184     2.942005     2.930825     2.919646
      2.908466     2.897287     2.886107     2.874928     2.863749     2.852569     2.841390     2.830210     2.819031     2.807851
      2.796672     2.785492     2.774313     2.763134     2.751954     2.740775     2.729595     2.718416     2.707236     2.696057
      2.684877     2.673698     2.662519     2.651339     2.640160     2.628980     2.617801     2.606621     2.595442     2.584262
      2.573083     2.561903     2.550724     2.539545     2.528365     2.517186     2.506006     2.494827     2.483647     2.472468
      2.461288     2.450109     2.438930     2.427750     2.416571     2.405391     2.394212     2.383032     2.371853     2.360673
      2.349494     2.338315     2.327135     2.315956     2.304776     2.293597     2.282417     2.271238     2.260058     2.248879
      2.237700     2.226520     2.215341     2.204161     2.192982     2.181802     2.170623     2.159443     2.148264     2.137084
      2.125905     2.114726     2.103546     2.092367     2.081187     2.070008     2.058828     2.047649     2.036469     2.025290
      2.014111     2.002931     1.991752     1.980572     1.969393     1.958213     1.947034     1.935854     1.924675     1.913496
      1.902316     1.891137     1.879957     1.868778     1.857598     1.846419     1.835239     1.824060     1.812881     1.801701
      1.790522     1.779342     1.768163     1.756983     1.745804     1.734624     1.723445     1.712265     1.701086     1.689907
      1.678727     1.667548     1.656368     1.645189     1.634009     1.622830     1.611650     1.600471     1.589292     1.578112
      1.566933     1.555753     1.544574     1.533394     1.522215     1.511035     1.499856     1.488677     1.477497     1.466318
      1.455138     1.443959     1.432779     1.421600     1.410420     1.399241     1.388062     1.376882     1.365703     1.354523
      1.343344     1.332164     1.320985     1.309805     1.298626     1.287446     1.276267     1.265088     1.253908     1.242729
      1.231549     1.220370     1.209190     1.198011     1.186831     1.175652     1.164473     1.153293     1.142114     1.130934
      1.119755     1.108575     1.097396     1.086216     1.075037     1.063858     1.052678     1.041499     1.030319     1.019140
      1.007960     0.996781     0.985601     0.974422     0.963243     0.952063     0.940884     0.929704     0.918525     0.907345
      0.896166     0.884986     0.873807     0.862628     0.851448     0.840269     0.829089     0.817910     0.806730     0.795551
      0.784371     0.773192     0.762012     0.750833     0.739654     0.728474     0.717295     0.706115     0.694936     0.683756
      0.672577     0.661397     0.650218     0.639039     0.627859     0.616680     0.605500     0.594321     0.583141     0.571962
      0.560782     0.549603     0.538424     0.527244     0.516065     0.504885     0.493706     0.482526     0.471347     0.460167
      0.448988     0.437809     0.426629     0.415450     0.404270     0.393091     0.381911     0.370732     0.359552     0.348373
      0.337193     0.326014     0.314835     0.303655     0.292476     0.281296     0.270117     0.258937     0.247758     0.236578
      0.225399     0.214220     0.203040
 NY phased data points follow
   8.08494E-09  8.17724E-09  7.62674E-09  7.95560E-09  6.85904E-09  7.96893E-09  7.56575E-09  8.60620E-09  8.66095E-09  9.48891E-09
   9.36289E-09  9.40585E-09  8.97393E-09  9.55410E-09  9.17976E-09  9.69025E-09  7.96833E-09  9.03040E-09  8.08516E-09  9.36289E-09
   8.81457E-09  9.90519E-09  8.45871E-09  8.87943E-09  7.43043E-09  8.55591E-09  9.41733E-09  1.11620E-08  1.15111E-08  1.16522E-08
   1.06770E-08  1.04828E-08  9.19327E-09  1.00877E-08  8.82830E-09  9.39714E-09  8.43364E-09  9.01382E-09  8.49232E-09  8.95515E-09
   8.01369E-09  8.23437E-09  7.49873E-09  7.23532E-09  6.97336E-09  7.21607E-09  6.90957E-09  7.60623E-09  6.76618E-09  6.90735E-09
   5.75458E-09  6.00730E-09  5.58990E-09  5.85094E-09  5.50671E-09  5.18339E-09  5.93109E-09  6.85746E-09  8.12806E-09  9.78851E-09
   9.08123E-09  9.50730E-09  8.67361E-09  8.17980E-09  7.52692E-09  7.84480E-09  6.05865E-09  6.43523E-09  5.76830E-09  5.37080E-09
   4.38907E-09  3.36627E-09  2.92569E-09  5.46151E-09  7.66183E-09  1.12685E-08  1.27334E-08  1.24926E-08  1.17431E-08  1.22055E-08
   1.09474E-08  1.17850E-08  1.04835E-08  1.04157E-08  1.04311E-08  1.07066E-08  9.98048E-09  1.01468E-08  9.89980E-09  9.74762E-09
   9.30535E-09  9.02053E-09  8.59130E-09  8.49626E-09  8.28678E-09  7.72869E-09  8.05569E-09  8.76572E-09  7.59741E-09  7.60803E-09
   7.71535E-09  7.96404E-09  8.17971E-09  7.30065E-09  6.85538E-09  6.48347E-09  5.22113E-09  6.11243E-09  5.40717E-09  5.94266E-09
   5.50880E-09  5.72671E-09  5.62258E-09  6.06355E-09  5.79735E-09  6.42460E-09  6.12262E-09  6.18987E-09  5.47042E-09  4.99981E-09
   3.76971E-09  4.21926E-09  3.51392E-09  3.92269E-09  3.64485E-09  3.67491E-09  3.50428E-09  3.52119E-09  3.26959E-09  3.66492E-09
   3.35198E-09  2.66555E-09  1.97454E-09  2.84504E-09  2.97748E-09  4.77250E-09  4.73816E-09  5.01028E-09  4.20260E-09  5.07011E-09
   5.62926E-09  6.00922E-09  6.76003E-09  6.81725E-09  6.19874E-09  6.96368E-09  6.98954E-09  6.70303E-09  5.99853E-09  6.52076E-09
   6.30748E-09  6.40566E-09  6.13261E-09  6.77909E-09  6.27778E-09  6.26232E-09  6.34092E-09  7.23541E-09  6.36888E-09  6.19257E-09
   6.30436E-09  6.75589E-09  5.68677E-09  5.94131E-09  6.99962E-09  1.05709E-08  1.50826E-08  1.77440E-08  1.75444E-08  1.74220E-08
   1.67408E-08  1.64947E-08  1.68941E-08  1.60453E-08  1.57793E-08  1.59250E-08  1.52628E-08  1.51260E-08  1.43201E-08  1.42040E-08
   1.37566E-08  1.29210E-08  1.13752E-08  1.03309E-08  9.10808E-09  8.23653E-09  5.73144E-09  4.24466E-09  2.13035E-09  9.35614E-11
  -2.96207E-09 -4.34871E-09 -7.19220E-09 -8.95624E-09 -1.15567E-08 -1.21823E-08 -1.39035E-08 -1.44887E-08 -1.51716E-08 -1.48248E-08
  -1.39992E-08 -1.29404E-08 -1.20030E-08 -9.31225E-09 -8.37792E-09 -5.96259E-09 -5.19689E-09 -3.60968E-09 -2.83413E-09 -1.82735E-09
  -1.77289E-09 -1.25550E-09 -1.36824E-09 -1.44275E-09 -2.25787E-09 -1.51453E-09 -1.81817E-09 -1.40323E-09 -1.71610E-09 -8.01037E-10
  -1.68959E-09 -1.12178E-09 -1.15294E-09 -1.24331E-09 -1.04392E-09 -1.35813E-09 -1.56662E-09 -1.31742E-09 -1.82612E-09 -1.56641E-09
  -1.32143E-09 -5.88606E-10 -1.30697E-09 -6.95133E-10 -9.63770E-10 -1.22582E-09 -1.16236E-09 -1.56755E-09 -1.71265E-09 -1.22174E-09
  -1.11180E-09 -1.19521E-09 -9.85069E-10 -9.71896E-10 -1.18592E-09 -1.18764E-09 -6.97062E-10 -1.33768E-09 -1.02556E-09 -6.90637E-10
  -4.86907E-10 -2.91713E-10 -3.14503E-10 -3.90795E-10 -8.92454E-10 -9.98836E-10 -7.29790E-10 -1.06965E-09 -1.42134E-09 -1.78248E-09
  -2.03144E-09 -1.64536E-09 -1.96365E-09 -1.68895E-09 -1.49794E-09 -8.83497E-10 -1.00154E-09 -6.85236E-10 -5.89372E-10  3.38363E-11
   1.67614E-10  1.64199E-10  1.22179E-11  3.90625E-11 -2.25925E-10  1.77894E-10 -8.23148E-11 -5.40131E-11 -9.08544E-10 -8.04485E-10
  -1.13085E-09 -8.70674E-10 -1.17592E-09 -8.68820E-10 -1.20487E-09 -1.09806E-09 -1.18022E-09 -1.58695E-09 -1.22521E-09 -6.53732E-10
  -1.53159E-09 -7.96966E-10 -1.46270E-09 -1.51969E-09 -1.54013E-09 -1.55699E-09 -1.26788E-09 -1.35409E-09 -1.18369E-09 -1.44876E-09
  -1.73442E-09 -1.17013E-09 -1.94222E-09 -1.61973E-09 -1.58443E-09 -1.33446E-09 -1.49476E-09 -1.66189E-09 -1.66366E-09 -1.57466E-09
  -1.55676E-09 -1.32906E-09 -1.17454E-09 -1.15226E-09 -1.70550E-09 -1.30590E-09 -1.41238E-09 -1.49354E-09 -1.57487E-09 -1.03242E-09
  -1.56645E-09 -1.51385E-09 -1.61809E-09 -1.02611E-09 -1.38748E-09 -1.43111E-09 -1.39158E-09 -1.15759E-09 -1.61015E-09 -1.01664E-09
  -1.81659E-09 -1.28390E-09 -1.11412E-09 -1.97642E-09 -1.23271E-09 -1.60380E-09 -1.60185E-09 -1.57856E-09 -1.61796E-09 -1.46206E-09
  -1.21621E-09 -1.51028E-09 -1.50623E-09 -1.69487E-09 -1.56688E-09 -1.80546E-09 -1.20761E-09 -1.45289E-09 -1.77509E-09 -9.71189E-10
  -1.98514E-09 -1.25180E-09 -1.55703E-09 -1.02553E-09 -1.51475E-09 -1.41022E-09 -1.68727E-09 -1.52076E-09 -1.38271E-09 -1.05810E-09
  -1.81334E-09 -9.85969E-10 -1.67966E-09
 NY points of the fit to the data follow
   1.10827E-08  9.65270E-09  8.38899E-09  7.63568E-09  7.24593E-09  6.87934E-09  6.54516E-09  6.56547E-09  8.27363E-09  9.96566E-09
   1.02669E-08  9.95334E-09  9.54533E-09  9.29534E-09  9.26627E-09  9.37430E-09  9.63727E-09  9.84508E-09  9.35332E-09  7.76768E-09
   7.18281E-09  7.82821E-09  8.53631E-09  9.32244E-09  9.84251E-09  1.04810E-08  1.08631E-08  1.08318E-08  1.05686E-08  1.05101E-08
   1.04496E-08  1.03342E-08  1.05100E-08  1.04527E-08  9.70765E-09  9.16392E-09  8.66563E-09  8.47515E-09  8.34012E-09  8.12317E-09
   7.86637E-09  7.62325E-09  7.03489E-09  6.45935E-09  6.58863E-09  6.77693E-09  6.52049E-09  6.25889E-09  6.35987E-09  6.55182E-09
   6.81474E-09  7.05037E-09  7.21785E-09  7.17252E-09  7.17662E-09  7.24407E-09  7.40704E-09  7.94946E-09  8.38394E-09  8.32118E-09
   8.26198E-09  8.35457E-09  8.58967E-09  8.58827E-09  8.66528E-09  8.82398E-09  8.70981E-09  8.36663E-09  7.97866E-09  7.81929E-09
   7.85406E-09  7.89529E-09  7.79444E-09  7.68912E-09  7.93838E-09  8.13732E-09  8.69648E-09  1.06352E-08  1.18141E-08  1.19788E-08
   1.17835E-08  1.13665E-08  1.10532E-08  1.12101E-08  1.12481E-08  1.09701E-08  1.05535E-08  9.40642E-09  7.71666E-09  7.12320E-09
   6.85580E-09  6.72020E-09  6.67766E-09  6.47898E-09  6.23750E-09  6.21190E-09  6.09592E-09  5.90407E-09  5.89773E-09  6.04871E-09
   6.42619E-09  6.51206E-09  6.49092E-09  6.78388E-09  7.01773E-09  7.08120E-09  7.07435E-09  7.10946E-09  7.07552E-09  6.93033E-09
   6.65703E-09  6.37292E-09  6.33926E-09  6.07258E-09  5.64683E-09  5.47315E-09  5.35387E-09  5.23264E-09  5.12652E-09  5.06675E-09
   4.96528E-09  4.86488E-09  4.80832E-09  4.76463E-09  4.72606E-09  4.68990E-09  4.65486E-09  4.62027E-09  4.58570E-09  4.55086E-09
   4.51555E-09  4.47962E-09  4.44298E-09  4.40554E-09  4.36723E-09  4.32799E-09  4.28778E-09  4.24655E-09  4.20428E-09  4.16096E-09
   4.11658E-09  4.07113E-09  4.02460E-09  3.97700E-09  3.92834E-09  3.87866E-09  3.82801E-09  3.77650E-09  3.72427E-09  3.67148E-09
   3.61832E-09  3.56502E-09  3.51188E-09  3.45931E-09  3.40778E-09  3.35799E-09  3.31086E-09  3.26775E-09  3.23063E-09  3.20256E-09
   3.18853E-09  3.19722E-09  3.24496E-09  3.36646E-09  3.64872E-09  4.37668E-09  6.98442E-09  1.41112E-08  1.83450E-08  1.88776E-08
   1.78349E-08  1.69201E-08  1.64930E-08  1.64142E-08  1.66987E-08  1.68828E-08  1.54846E-08  1.09025E-08  4.77598E-09  3.07441E-09
   2.41454E-09  2.04878E-09  1.80218E-09  1.61495E-09  1.46139E-09  1.32873E-09  1.20994E-09  1.10086E-09  9.98850E-10  9.02219E-10
   8.09816E-10  7.20811E-10  6.34649E-10  5.50907E-10  4.69301E-10  3.89591E-10  3.11609E-10  2.35262E-10  1.60449E-10  8.70942E-11
   1.51689E-11 -5.53563E-11 -1.24493E-10 -1.92252E-10 -2.58636E-10 -3.23618E-10 -3.87199E-10 -4.49360E-10 -5.10084E-10 -5.69318E-10
  -6.27076E-10 -6.83297E-10 -7.37958E-10 -7.91030E-10 -8.42488E-10 -8.92272E-10 -9.40359E-10 -9.86724E-10 -1.03131E-09 -1.07414E-09
  -1.11526E-09 -1.15469E-09 -1.19246E-09 -1.22861E-09 -1.26316E-09 -1.29616E-09 -1.32762E-09 -1.35759E-09 -1.38608E-09 -1.41313E-09
  -1.43878E-09 -1.46305E-09 -1.48597E-09 -1.50756E-09 -1.52787E-09 -1.54692E-09 -1.56473E-09 -1.58134E-09 -1.59678E-09 -1.61107E-09
  -1.62425E-09 -1.63634E-09 -1.64737E-09 -1.65738E-09 -1.66637E-09 -1.67440E-09 -1.68149E-09 -1.68766E-09 -1.69294E-09 -1.69737E-09
  -1.70097E-09 -1.70376E-09 -1.70580E-09 -1.70707E-09 -1.70762E-09 -1.70751E-09 -1.70672E-09 -1.70531E-09 -1.70329E-09 -1.70070E-09
  -1.69756E-09 -1.69391E-09 -1.68977E-09 -1.68517E-09 -1.68013E-09 -1.67468E-09 -1.66888E-09 -1.66270E-09 -1.65622E-09 -1.64944E-09
  -1.64240E-09 -1.63512E-09 -1.62764E-09 -1.61996E-09 -1.61215E-09 -1.60421E-09 -1.59618E-09 -1.58808E-09 -1.57994E-09 -1.57178E-09
  -1.56366E-09 -1.55557E-09 -1.54756E-09 -1.53965E-09 -1.53187E-09 -1.52424E-09 -1.51682E-09 -1.50958E-09 -1.50260E-09 -1.49590E-09
  -1.48948E-09 -1.48338E-09 -1.47758E-09 -1.47209E-09 -1.46688E-09 -1.46197E-09 -1.45734E-09 -1.45298E-09 -1.44889E-09 -1.44506E-09
  -1.44148E-09 -1.43815E-09 -1.43507E-09 -1.43222E-09 -1.42960E-09 -1.42721E-09 -1.42503E-09 -1.42306E-09 -1.42130E-09 -1.41973E-09
  -1.41835E-09 -1.41716E-09 -1.41615E-09 -1.41530E-09 -1.41462E-09 -1.41411E-09 -1.41374E-09 -1.41352E-09 -1.41344E-09 -1.41349E-09
  -1.41368E-09 -1.41397E-09 -1.41439E-09 -1.41491E-09 -1.41553E-09 -1.41624E-09 -1.41705E-09 -1.41793E-09 -1.41890E-09 -1.41993E-09
  -1.42102E-09 -1.42217E-09 -1.42337E-09 -1.42461E-09 -1.42589E-09 -1.42720E-09 -1.42853E-09 -1.42988E-09 -1.43125E-09 -1.43261E-09
  -1.43398E-09 -1.43533E-09 -1.43667E-09 -1.43799E-09 -1.43928E-09 -1.44054E-09 -1.44175E-09 -1.44293E-09 -1.44404E-09 -1.44510E-09
  -1.44609E-09 -1.44701E-09 -1.44785E-09 -1.44860E-09 -1.44926E-09 -1.44982E-09 -1.45028E-09 -1.45063E-09 -1.45085E-09 -1.45096E-09
  -1.45093E-09 -1.45076E-09 -1.45046E-09
 NY background values follow
     1.914E-09    1.944E-09    1.974E-09    2.005E-09    2.035E-09    2.066E-09    2.096E-09    2.127E-09    2.158E-09    2.188E-09
     2.219E-09    2.250E-09    2.281E-09    2.311E-09    2.342E-09    2.373E-09    2.404E-09    2.434E-09    2.465E-09    2.495E-09
     2.526E-09    2.556E-09    2.587E-09    2.617E-09    2.647E-09    2.678E-09    2.708E-09    2.738E-09    2.768E-09    2.797E-09
     2.827E-09    2.857E-09    2.886E-09    2.915E-09    2.944E-09    2.973E-09    3.002E-09    3.031E-09    3.059E-09    3.088E-09
     3.116E-09    3.144E-09    3.172E-09    3.199E-09    3.226E-09    3.253E-09    3.280E-09    3.307E-09    3.333E-09    3.359E-09
     3.385E-09    3.411E-09    3.436E-09    3.461E-09    3.486E-09    3.511E-09    3.535E-09    3.559E-09    3.583E-09    3.606E-09
     3.629E-09    3.652E-09    3.674E-09    3.696E-09    3.718E-09    3.739E-09    3.760E-09    3.780E-09    3.800E-09    3.820E-09
     3.840E-09    3.859E-09    3.877E-09    3.895E-09    3.913E-09    3.931E-09    3.947E-09    3.964E-09    3.980E-09    3.995E-09
     4.010E-09    4.024E-09    4.038E-09    4.052E-09    4.064E-09    4.076E-09    4.088E-09    4.099E-09    4.109E-09    4.119E-09
     4.128E-09    4.136E-09    4.144E-09    4.151E-09    4.157E-09    4.162E-09    4.167E-09    4.171E-09    4.174E-09    4.176E-09
     4.178E-09    4.178E-09    4.178E-09    4.177E-09    4.175E-09    4.173E-09    4.169E-09    4.164E-09    4.159E-09    4.152E-09
     4.145E-09    4.136E-09    4.127E-09    4.116E-09    4.105E-09    4.093E-09    4.079E-09    4.064E-09    4.049E-09    4.032E-09
     4.014E-09    3.995E-09    3.975E-09    3.953E-09    3.931E-09    3.907E-09    3.882E-09    3.856E-09    3.829E-09    3.800E-09
     3.770E-09    3.739E-09    3.706E-09    3.673E-09    3.637E-09    3.601E-09    3.563E-09    3.524E-09    3.483E-09    3.441E-09
     3.398E-09    3.353E-09    3.307E-09    3.259E-09    3.210E-09    3.159E-09    3.107E-09    3.054E-09    2.999E-09    2.942E-09
     2.884E-09    2.825E-09    2.765E-09    2.704E-09    2.641E-09    2.578E-09    2.513E-09    2.447E-09    2.381E-09    2.313E-09
     2.245E-09    2.175E-09    2.105E-09    2.034E-09    1.963E-09    1.891E-09    1.818E-09    1.745E-09    1.671E-09    1.596E-09
     1.522E-09    1.447E-09    1.371E-09    1.295E-09    1.219E-09    1.143E-09    1.067E-09    9.902E-10    9.136E-10    8.369E-10
     7.603E-10    6.838E-10    6.074E-10    5.311E-10    4.550E-10    3.791E-10    3.035E-10    2.282E-10    1.533E-10    7.886E-11
     4.851E-12   -6.867E-11   -1.416E-10   -2.140E-10   -2.858E-10   -3.568E-10   -4.272E-10   -4.968E-10   -5.655E-10   -6.334E-10
    -7.004E-10   -7.665E-10   -8.316E-10   -8.956E-10   -9.586E-10   -1.020E-09   -1.081E-09   -1.141E-09   -1.199E-09   -1.256E-09
    -1.311E-09   -1.365E-09   -1.418E-09   -1.469E-09   -1.519E-09   -1.567E-09   -1.614E-09   -1.659E-09   -1.702E-09   -1.743E-09
    -1.783E-09   -1.821E-09   -1.858E-09   -1.893E-09   -1.926E-09   -1.958E-09   -1.989E-09   -2.018E-09   -2.046E-09   -2.072E-09
    -2.097E-09   -2.120E-09   -2.142E-09   -2.163E-09   -2.182E-09   -2.201E-09   -2.218E-09   -2.234E-09   -2.249E-09   -2.262E-09
    -2.275E-09   -2.286E-09   -2.297E-09   -2.306E-09   -2.315E-09   -2.322E-09   -2.329E-09   -2.334E-09   -2.339E-09   -2.343E-09
    -2.346E-09   -2.348E-09   -2.350E-09   -2.351E-09   -2.351E-09   -2.350E-09   -2.349E-09   -2.347E-09   -2.345E-09   -2.342E-09
    -2.338E-09   -2.334E-09   -2.329E-09   -2.324E-09   -2.319E-09   -2.313E-09   -2.307E-09   -2.300E-09   -2.293E-09   -2.286E-09
    -2.279E-09   -2.271E-09   -2.263E-09   -2.255E-09   -2.247E-09   -2.239E-09   -2.230E-09   -2.222E-09   -2.214E-09   -2.205E-09
    -2.197E-09   -2.188E-09   -2.180E-09   -2.172E-09   -2.163E-09   -2.156E-09   -2.148E-09   -2.140E-09   -2.133E-09   -2.126E-09
    -2.119E-09   -2.113E-09   -2.107E-09   -2.101E-09   -2.095E-09   -2.090E-09   -2.085E-09   -2.080E-09   -2.076E-09   -2.072E-09
    -2.068E-09   -2.064E-09   -2.061E-09   -2.058E-09   -2.055E-09   -2.052E-09   -2.050E-09   -2.047E-09   -2.045E-09   -2.044E-09
    -2.042E-09   -2.040E-09   -2.039E-09   -2.038E-09   -2.037E-09   -2.036E-09   -2.035E-09   -2.035E-09   -2.035E-09   -2.034E-09
    -2.034E-09   -2.034E-09   -2.034E-09   -2.034E-09   -2.035E-09   -2.035E-09   -2.036E-09   -2.036E-09   -2.037E-09   -2.038E-09
    -2.038E-09   -2.039E-09   -2.040E-09   -2.041E-09   -2.042E-09   -2.043E-09   -2.044E-09   -2.045E-09   -2.046E-09   -2.047E-09
    -2.048E-09   -2.049E-09   -2.050E-09   -2.051E-09   -2.052E-09   -2.053E-09   -2.054E-09   -2.055E-09   -2.056E-09   -2.057E-09
    -2.057E-09   -2.058E-09   -2.058E-09   -2.059E-09   -2.059E-09   -2.059E-09   -2.060E-09   -2.060E-09   -2.060E-09   -2.059E-09
    -2.059E-09   -2.058E-09   -2.058E-09
 Ala      Conc. = 4.76E-10
   2.27354E-09  2.32942E-09  2.36262E-09  2.39577E-09  2.42554E-09  2.45348E-09  2.46582E-09  2.43927E-09  2.43840E-09  2.46863E-09
   2.44094E-09  2.41899E-09  2.43931E-09  2.44403E-09  2.44629E-09  2.46014E-09  2.47978E-09  2.50262E-09  2.52744E-09  2.55355E-09
   2.58055E-09  2.60817E-09  2.63623E-09  2.66462E-09  2.69324E-09  2.72202E-09  2.75091E-09  2.77986E-09  2.80885E-09  2.83783E-09
   2.86680E-09  2.89572E-09  2.92458E-09  2.95336E-09  2.98206E-09  3.01064E-09  3.03911E-09  3.06746E-09  3.09566E-09  3.12372E-09
   3.15161E-09  3.17934E-09  3.20689E-09  3.23426E-09  3.26143E-09  3.28840E-09  3.31516E-09  3.34171E-09  3.36803E-09  3.39412E-09
   3.41997E-09  3.44557E-09  3.47093E-09  3.49602E-09  3.52084E-09  3.54539E-09  3.56966E-09  3.59364E-09  3.61733E-09  3.64072E-09
   3.66380E-09  3.68658E-09  3.70903E-09  3.73117E-09  3.75297E-09  3.77444E-09  3.79557E-09  3.81636E-09  3.83681E-09  3.85690E-09
   3.87663E-09  3.89601E-09  3.91503E-09  3.93368E-09  3.95197E-09  3.96988E-09  3.98741E-09  4.00456E-09  4.02131E-09  4.03768E-09
   4.05366E-09  4.06926E-09  4.08449E-09  4.09938E-09  4.11395E-09  4.12823E-09  4.14229E-09  4.15621E-09  4.17010E-09  4.18411E-09
   4.19847E-09  4.21352E-09  4.22976E-09  4.24798E-09  4.26950E-09  4.29662E-09  4.33382E-09  4.39096E-09  4.49481E-09  4.74535E-09
   5.23826E-09  5.40298E-09  5.44003E-09  5.77645E-09  6.03955E-09  6.11574E-09  6.08539E-09  6.05150E-09  6.00286E-09  5.83969E-09
   5.51394E-09  5.20210E-09  5.17309E-09  4.92417E-09  4.51292E-09  4.35556E-09  4.27313E-09  4.21857E-09  4.17694E-09  4.14209E-09
   4.11095E-09  4.08188E-09  4.05385E-09  4.02625E-09  3.99863E-09  3.97071E-09  3.94227E-09  3.91315E-09  3.88323E-09  3.85241E-09
   3.82062E-09  3.78778E-09  3.75385E-09  3.71878E-09  3.68253E-09  3.64506E-09  3.60635E-09  3.56637E-09  3.52508E-09  3.48247E-09
   3.43852E-09  3.39319E-09  3.34647E-09  3.29836E-09  3.24881E-09  3.19783E-09  3.14541E-09  3.09158E-09  3.03641E-09  2.97993E-09
   2.92220E-09  2.86326E-09  2.80318E-09  2.74201E-09  2.67982E-09  2.61669E-09  2.55269E-09  2.48795E-09  2.42260E-09  2.35684E-09
   2.29095E-09  2.22544E-09  2.16115E-09  2.09991E-09  2.04625E-09  2.01496E-09  2.08148E-09  2.37617E-09  2.51870E-09  2.47300E-09
   2.34855E-09  2.23126E-09  2.13854E-09  2.06321E-09  2.00614E-09  1.94313E-09  1.79792E-09  1.48956E-09  1.10606E-09  9.49511E-10
   8.43632E-10  7.52387E-10  6.67204E-10  5.85170E-10  5.05027E-10  4.26174E-10  3.48300E-10  2.71249E-10  1.94899E-10  1.19221E-10
   4.42081E-11 -3.01629E-11 -1.03864E-10 -1.76883E-10 -2.49176E-10 -3.20729E-10 -3.91516E-10 -4.61473E-10 -5.30577E-10 -5.98801E-10
  -6.66092E-10 -7.32412E-10 -7.97717E-10 -8.61969E-10 -9.25132E-10 -9.87146E-10 -1.04798E-09 -1.10760E-09 -1.16595E-09 -1.22298E-09
  -1.27867E-09 -1.33295E-09 -1.38579E-09 -1.43715E-09 -1.48699E-09 -1.53524E-09 -1.58188E-09 -1.62687E-09 -1.67015E-09 -1.71174E-09
  -1.75167E-09 -1.78997E-09 -1.82665E-09 -1.86177E-09 -1.89532E-09 -1.92737E-09 -1.95791E-09 -1.98699E-09 -2.01464E-09 -2.04087E-09
  -2.06573E-09 -2.08923E-09 -2.11140E-09 -2.13228E-09 -2.15189E-09 -2.17026E-09 -2.18742E-09 -2.20340E-09 -2.21822E-09 -2.23190E-09
  -2.24449E-09 -2.25601E-09 -2.26648E-09 -2.27594E-09 -2.28441E-09 -2.29191E-09 -2.29849E-09 -2.30416E-09 -2.30896E-09 -2.31290E-09
  -2.31604E-09 -2.31837E-09 -2.31995E-09 -2.32078E-09 -2.32090E-09 -2.32036E-09 -2.31915E-09 -2.31732E-09 -2.31490E-09 -2.31190E-09
  -2.30837E-09 -2.30432E-09 -2.29980E-09 -2.29482E-09 -2.28940E-09 -2.28359E-09 -2.27742E-09 -2.27088E-09 -2.26404E-09 -2.25691E-09
  -2.24952E-09 -2.24189E-09 -2.23407E-09 -2.22606E-09 -2.21791E-09 -2.20964E-09 -2.20127E-09 -2.19285E-09 -2.18438E-09 -2.17591E-09
  -2.16746E-09 -2.15906E-09 -2.15074E-09 -2.14251E-09 -2.13442E-09 -2.12649E-09 -2.11875E-09 -2.11121E-09 -2.10393E-09 -2.09692E-09
  -2.09020E-09 -2.08381E-09 -2.07771E-09 -2.07192E-09 -2.06643E-09 -2.06122E-09 -2.05629E-09 -2.05164E-09 -2.04726E-09 -2.04314E-09
  -2.03928E-09 -2.03566E-09 -2.03230E-09 -2.02916E-09 -2.02626E-09 -2.02357E-09 -2.02111E-09 -2.01886E-09 -2.01681E-09 -2.01496E-09
  -2.01330E-09 -2.01182E-09 -2.01053E-09 -2.00940E-09 -2.00845E-09 -2.00765E-09 -2.00700E-09 -2.00650E-09 -2.00613E-09 -2.00591E-09
  -2.00581E-09 -2.00582E-09 -2.00595E-09 -2.00619E-09 -2.00653E-09 -2.00696E-09 -2.00749E-09 -2.00809E-09 -2.00877E-09 -2.00951E-09
  -2.01033E-09 -2.01119E-09 -2.01210E-09 -2.01306E-09 -2.01405E-09 -2.01507E-09 -2.01612E-09 -2.01718E-09 -2.01826E-09 -2.01932E-09
  -2.02040E-09 -2.02146E-09 -2.02251E-09 -2.02354E-09 -2.02453E-09 -2.02550E-09 -2.02641E-09 -2.02729E-09 -2.02811E-09 -2.02886E-09
  -2.02956E-09 -2.03017E-09 -2.03071E-09 -2.03115E-09 -2.03151E-09 -2.03176E-09 -2.03192E-09 -2.03196E-09 -2.03187E-09 -2.03167E-09
  -2.03132E-09 -2.03084E-09 -2.03023E-09
 Asp      Conc. = 8.42E-10
   2.77790E-09  2.67225E-09  2.61771E-09  2.54034E-09  2.50270E-09  2.43076E-09  2.34902E-09  2.29400E-09  2.28530E-09  2.29384E-09
   2.31050E-09  2.33188E-09  2.35679E-09  2.38452E-09  2.41288E-09  2.44178E-09  2.47128E-09  2.50129E-09  2.53174E-09  2.56258E-09
   2.59378E-09  2.62533E-09  2.65723E-09  2.68950E-09  2.72218E-09  2.75534E-09  2.78907E-09  2.82351E-09  2.85884E-09  2.89534E-09
   2.93344E-09  2.97377E-09  3.01744E-09  3.06638E-09  3.12468E-09  3.20269E-09  3.32369E-09  3.41306E-09  3.50485E-09  3.53834E-09
   3.54548E-09  3.57502E-09  3.69695E-09  3.90846E-09  4.20003E-09  4.49150E-09  4.53305E-09  4.42426E-09  4.50053E-09  4.60127E-09
   4.70361E-09  4.80060E-09  4.82621E-09  4.70918E-09  4.49994E-09  4.30565E-09  4.21223E-09  4.26573E-09  4.23852E-09  4.09426E-09
   4.04140E-09  4.00635E-09  3.96288E-09  3.97922E-09  4.01608E-09  4.01361E-09  3.97240E-09  3.95697E-09  3.95366E-09  3.95661E-09
   3.96323E-09  3.97216E-09  3.98260E-09  3.99404E-09  4.00613E-09  4.01863E-09  4.03135E-09  4.04415E-09  4.05691E-09  4.06954E-09
   4.08198E-09  4.09416E-09  4.10602E-09  4.11751E-09  4.12861E-09  4.13927E-09  4.14945E-09  4.15913E-09  4.16828E-09  4.17687E-09
   4.18488E-09  4.19228E-09  4.19906E-09  4.20519E-09  4.21064E-09  4.21541E-09  4.21946E-09  4.22279E-09  4.22537E-09  4.22719E-09
   4.22822E-09  4.22845E-09  4.22787E-09  4.22645E-09  4.22418E-09  4.22104E-09  4.21701E-09  4.21209E-09  4.20625E-09  4.19947E-09
   4.19175E-09  4.18307E-09  4.17339E-09  4.16273E-09  4.15105E-09  4.13834E-09  4.12458E-09  4.10977E-09  4.09389E-09  4.07691E-09
   4.05883E-09  4.03962E-09  4.01928E-09  3.99779E-09  3.97513E-09  3.95129E-09  3.92625E-09  3.90000E-09  3.87252E-09  3.84380E-09
   3.81383E-09  3.78258E-09  3.75004E-09  3.71621E-09  3.68105E-09  3.64457E-09  3.60675E-09  3.56756E-09  3.52701E-09  3.48506E-09
   3.44172E-09  3.39697E-09  3.35079E-09  3.30317E-09  3.25411E-09  3.20359E-09  3.15161E-09  3.09823E-09  3.04349E-09  2.98746E-09
   2.93019E-09  2.87174E-09  2.81218E-09  2.75158E-09  2.69003E-09  2.62763E-09  2.56450E-09  2.50080E-09  2.43675E-09  2.37266E-09
   2.30901E-09  2.24663E-09  2.18701E-09  2.13331E-09  2.09338E-09  2.09294E-09  2.26191E-09  2.84128E-09  3.15460E-09  3.13337E-09
   2.97096E-09  2.82072E-09  2.71433E-09  2.63894E-09  2.59625E-09  2.54437E-09  2.34900E-09  1.86503E-09  1.24148E-09  1.02134E-09
   8.92554E-10  7.89946E-10  6.98083E-10  6.11704E-10  5.28536E-10  4.47473E-10  3.67925E-10  2.89571E-10  2.12182E-10  1.35660E-10
   5.99523E-11 -1.49995E-11 -8.91917E-11 -1.62629E-10 -2.35282E-10 -3.07149E-10 -3.78209E-10 -4.48407E-10 -5.17723E-10 -5.86136E-10
  -6.53596E-10 -7.20068E-10 -7.85509E-10 -8.49886E-10 -9.13162E-10 -9.75279E-10 -1.03621E-09 -1.09591E-09 -1.15434E-09 -1.21144E-09
  -1.26720E-09 -1.32154E-09 -1.37444E-09 -1.42585E-09 -1.47574E-09 -1.52404E-09 -1.57072E-09 -1.61575E-09 -1.65907E-09 -1.70070E-09
  -1.74066E-09 -1.77899E-09 -1.81570E-09 -1.85085E-09 -1.88443E-09 -1.91650E-09 -1.94707E-09 -1.97617E-09 -2.00384E-09 -2.03009E-09
