 LCModel (Version 6.3-1R) Copyright: S.W. Provencher.          Ref.: Magn. Reson. Med. 30:672-679 (1993).                
 onepulse 21x22_ftSpec_smooth_lcm
 26 lines in following concentration table = NCONC+1
    Conc.  %SD   /Cr    Metabolite                                         
 3.81E-11 483%   0.000 Ala                                                 
 2.80E-10 134%   0.000 Asp                                                 
    0.000 999%   0.000 Cr                                                  
 2.50E-09  12%   0.000 GABA                                                
 1.98E-09  15%   0.000 Glc                                                 
    0.000 999%   0.000 Gln                                                 
 3.36E-10 103%   0.000 Glu                                                 
    0.000 999%   0.000 Glyc                                                
    0.000 999%   0.000 GPC                                                 
 2.15E-10  94%   0.000 GSH                                                 
 3.07E-10  67%   0.000 Ins                                                 
    0.000 999%   0.000 Lac                                                 
    0.000 999%   0.000 NAAG                                                
 1.22E-09  13%   0.000 NAA                                                 
 1.13E-10  43%   0.000 PCh                                                 
    0.000 999%   0.000 PCr                                                 
    0.000 999%   0.000 PE                                                  
    0.000 999%   0.000 Scyllo                                              
    0.000 999%   0.000 Ser                                                 
    0.000 999%   0.000 Tau                                                 
 1.13E-10  43%   0.000 GPC+PCh                                             
 1.22E-09  13%   0.000 NAA+NAAG                                            
 3.07E-10  67%   0.000 Ins+Glyc                                            
    0.000 999%   0.000 Cr+PCr                                              
 3.36E-10 103%   0.000 Glu+Gln                                             
   6 lines in following misc. output table
  FWHM = 0.078 ppm    S/N =   4                                            
  Data shift = 0.324 ppm                                                   
  Ph:  33 deg      25.9 deg/ppm                                            
  alphaB,S = 1.5E-01,   1.5E+02                                            
   16 spline knots.   Ns = 5(1)                                            
  ( 9) 2 infls.   ( 5) 1 extrs.                                            
  363 points on ppm-axis = NY
      4.250000     4.238821     4.227641     4.216462     4.205282     4.194103     4.182923     4.171744     4.160564     4.149385
      4.138206     4.127026     4.115847     4.104667     4.093488     4.082308     4.071129     4.059949     4.048770     4.037591
      4.026411     4.015232     4.004052     3.992873     3.981693     3.970514     3.959334     3.948155     3.936975     3.925796
      3.914617     3.903437     3.892258     3.881078     3.869899     3.858719     3.847540     3.836360     3.825181     3.814002
      3.802822     3.791643     3.780463     3.769284     3.758104     3.746925     3.735745     3.724566     3.713387     3.702207
      3.691028     3.679848     3.668669     3.657489     3.646310     3.635130     3.623951     3.612772     3.601592     3.590413
      3.579233     3.568054     3.556874     3.545695     3.534515     3.523336     3.512156     3.500977     3.489798     3.478618
      3.467439     3.456259     3.445080     3.433900     3.422721     3.411541     3.400362     3.389183     3.378003     3.366824
      3.355644     3.344465     3.333285     3.322106     3.310926     3.299747     3.288568     3.277388     3.266209     3.255029
      3.243850     3.232670     3.221491     3.210311     3.199132     3.187953     3.176773     3.165594     3.154414     3.143235
      3.132055     3.120876     3.109696     3.098517     3.087337     3.076158     3.064979     3.053799     3.042620     3.031440
      3.020261     3.009081     2.997902     2.986722     2.975543     2.964364     2.953184     2.942005     2.930825     2.919646
      2.908466     2.897287     2.886107     2.874928     2.863749     2.852569     2.841390     2.830210     2.819031     2.807851
      2.796672     2.785492     2.774313     2.763134     2.751954     2.740775     2.729595     2.718416     2.707236     2.696057
      2.684877     2.673698     2.662519     2.651339     2.640160     2.628980     2.617801     2.606621     2.595442     2.584262
      2.573083     2.561903     2.550724     2.539545     2.528365     2.517186     2.506006     2.494827     2.483647     2.472468
      2.461288     2.450109     2.438930     2.427750     2.416571     2.405391     2.394212     2.383032     2.371853     2.360673
      2.349494     2.338315     2.327135     2.315956     2.304776     2.293597     2.282417     2.271238     2.260058     2.248879
      2.237700     2.226520     2.215341     2.204161     2.192982     2.181802     2.170623     2.159443     2.148264     2.137084
      2.125905     2.114726     2.103546     2.092367     2.081187     2.070008     2.058828     2.047649     2.036469     2.025290
      2.014111     2.002931     1.991752     1.980572     1.969393     1.958213     1.947034     1.935854     1.924675     1.913496
      1.902316     1.891137     1.879957     1.868778     1.857598     1.846419     1.835239     1.824060     1.812881     1.801701
      1.790522     1.779342     1.768163     1.756983     1.745804     1.734624     1.723445     1.712265     1.701086     1.689907
      1.678727     1.667548     1.656368     1.645189     1.634009     1.622830     1.611650     1.600471     1.589292     1.578112
      1.566933     1.555753     1.544574     1.533394     1.522215     1.511035     1.499856     1.488677     1.477497     1.466318
      1.455138     1.443959     1.432779     1.421600     1.410420     1.399241     1.388062     1.376882     1.365703     1.354523
      1.343344     1.332164     1.320985     1.309805     1.298626     1.287446     1.276267     1.265088     1.253908     1.242729
      1.231549     1.220370     1.209190     1.198011     1.186831     1.175652     1.164473     1.153293     1.142114     1.130934
      1.119755     1.108575     1.097396     1.086216     1.075037     1.063858     1.052678     1.041499     1.030319     1.019140
      1.007960     0.996781     0.985601     0.974422     0.963243     0.952063     0.940884     0.929704     0.918525     0.907345
      0.896166     0.884986     0.873807     0.862628     0.851448     0.840269     0.829089     0.817910     0.806730     0.795551
      0.784371     0.773192     0.762012     0.750833     0.739654     0.728474     0.717295     0.706115     0.694936     0.683756
      0.672577     0.661397     0.650218     0.639039     0.627859     0.616680     0.605500     0.594321     0.583141     0.571962
      0.560782     0.549603     0.538424     0.527244     0.516065     0.504885     0.493706     0.482526     0.471347     0.460167
      0.448988     0.437809     0.426629     0.415450     0.404270     0.393091     0.381911     0.370732     0.359552     0.348373
      0.337193     0.326014     0.314835     0.303655     0.292476     0.281296     0.270117     0.258937     0.247758     0.236578
      0.225399     0.214220     0.203040
 NY phased data points follow
   3.42910E-09  6.55944E-09  8.61139E-09  1.10359E-08  1.24550E-08  1.18637E-08  1.04020E-08  9.10645E-09  7.89703E-09  7.21551E-09
   6.47364E-09  6.92794E-09  6.49247E-09  7.36537E-09  7.68066E-09  7.76542E-09  7.81354E-09  8.82746E-09  9.49068E-09  9.32431E-09
   8.28583E-09  8.90938E-09  8.22369E-09  8.16979E-09  7.22723E-09  7.46072E-09  6.87429E-09  8.22260E-09  7.98779E-09  8.68348E-09
   7.22410E-09  6.69287E-09  6.70641E-09  7.39874E-09  8.13482E-09  1.06700E-08  1.04432E-08  9.94601E-09  8.66812E-09  7.67812E-09
   5.97455E-09  5.30282E-09  5.18480E-09  4.92402E-09  5.22210E-09  4.73338E-09  4.53393E-09  4.51788E-09  4.26492E-09  3.70985E-09
   2.91962E-09  3.23514E-09  3.61152E-09  3.71034E-09  4.02063E-09  4.06005E-09  3.82582E-09  3.11054E-09  2.97936E-09  2.91206E-09
   3.14297E-09  4.16147E-09  4.80299E-09  5.12792E-09  6.16698E-09  7.98117E-09  9.07000E-09  1.14726E-08  9.73149E-09  8.41134E-09
   6.47654E-09  5.32032E-09  4.38859E-09  4.18551E-09  2.53980E-09  3.41960E-09  3.04993E-09  2.48934E-09  2.96311E-09  3.71997E-09
   4.73899E-09  8.05183E-09  1.12329E-08  1.43795E-08  1.36215E-08  1.16047E-08  9.57190E-09  7.86496E-09  7.16385E-09  6.74398E-09
   6.09850E-09  6.02770E-09  4.70510E-09  5.29365E-09  5.02212E-09  3.87120E-09  3.60566E-09  3.28168E-09  3.31990E-09  2.81492E-09
   2.18429E-09  2.30333E-09  3.23049E-09  2.30854E-09  2.95097E-09  3.38122E-09  2.61762E-09  2.71455E-09  3.12635E-09  2.52702E-09
   2.13441E-09  2.42026E-09  1.45780E-09  1.54924E-09  1.56451E-09  2.36572E-09  3.02465E-09  2.65110E-09  2.97782E-09  3.15033E-09
   3.20554E-09  3.13889E-09  2.60652E-09  3.12933E-09  2.46156E-09  2.09885E-09  1.28933E-09  1.16911E-09  1.60158E-09  1.21908E-09
   1.04084E-09  2.44932E-09  1.94544E-09  2.36206E-09  2.43747E-09  3.01899E-09  2.83491E-09  2.48479E-09  1.98989E-09  2.25303E-09
   1.82702E-09  3.42979E-09  4.18538E-09  4.43319E-09  4.49017E-09  4.29501E-09  3.52521E-09  4.20731E-09  4.29866E-09  4.25289E-09
   4.72744E-09  4.27278E-09  3.61702E-09  3.86190E-09  4.12670E-09  3.99273E-09  3.82297E-09  3.83889E-09  4.44255E-09  4.33012E-09
   4.84980E-09  5.12506E-09  5.40170E-09  5.80450E-09  5.78678E-09  6.62404E-09  7.06794E-09  6.83672E-09  7.99277E-09  8.44345E-09
   1.00845E-08  1.22797E-08  1.44362E-08  1.66794E-08  1.80113E-08  1.50701E-08  1.13159E-08  8.15223E-09  6.24395E-09  4.61590E-09
   4.48440E-09  3.71351E-09  2.98528E-09  2.15296E-09  2.09584E-09  1.49173E-09  1.41377E-09  4.07506E-10  2.69850E-10 -1.72618E-10
  -1.24206E-09 -1.21374E-09 -2.54157E-09 -2.54374E-09 -3.97103E-09 -4.13409E-09 -4.94889E-09 -5.61149E-09 -6.60209E-09 -7.77212E-09
  -8.37227E-09 -8.90801E-09 -1.02058E-08 -1.08225E-08 -1.11271E-08 -1.13471E-08 -1.17253E-08 -1.13929E-08 -1.13633E-08 -1.06467E-08
  -1.02931E-08 -9.59363E-09 -8.31244E-09 -7.05564E-09 -6.44048E-09 -4.36910E-09 -3.72854E-09 -2.79881E-09 -2.06529E-09 -1.43545E-09
  -1.23095E-09 -1.35070E-09 -1.68945E-09 -2.37231E-09 -1.85055E-09 -1.69318E-09 -2.75953E-09 -2.39297E-09 -2.10007E-09 -2.16704E-09
  -1.61688E-09 -1.68718E-09 -1.67100E-09 -2.20690E-09 -1.41400E-09 -2.67660E-09 -2.79792E-09 -2.03534E-09 -1.73442E-09 -2.28585E-09
  -2.03388E-09 -1.79802E-09 -1.23853E-09 -1.42426E-09 -1.54361E-09 -2.15659E-09 -1.80663E-09 -2.34213E-09 -2.28114E-09 -1.85158E-09
  -1.81229E-09 -1.69551E-09 -1.52648E-09 -1.22584E-09 -1.59721E-09 -1.14926E-09 -1.12275E-09 -1.40958E-09 -1.03286E-09 -1.80525E-09
  -1.53735E-09 -1.77822E-09 -2.58477E-09 -2.24494E-09 -2.37674E-09 -2.02006E-09 -2.06592E-09 -1.30790E-09 -1.58288E-09 -9.88018E-10
  -4.54960E-10 -9.58088E-10 -1.15459E-09 -5.98685E-10 -7.95733E-10 -9.53032E-10 -8.88742E-10 -8.96827E-10 -7.11920E-10 -1.65908E-09
  -1.80806E-09 -1.29306E-09 -1.91548E-09 -1.71653E-09 -1.72484E-09 -1.63602E-09 -1.44485E-09 -1.87783E-09 -1.94701E-09 -1.13423E-09
  -1.61091E-09 -1.15652E-09 -1.88748E-09 -1.28522E-09 -1.22173E-09 -1.03846E-09 -1.47090E-09 -1.07789E-09 -1.20546E-09 -1.08928E-09
  -1.29054E-09 -1.57088E-09 -9.11606E-10 -1.57113E-09 -1.04692E-09 -1.29972E-09 -4.38708E-10 -1.21185E-09 -9.99978E-10 -7.56930E-10
  -1.42639E-09 -9.89459E-10 -9.12006E-10 -6.01671E-10 -7.79670E-10 -8.17008E-10 -1.45412E-09 -1.14368E-09 -4.30520E-10 -9.42772E-10
  -7.70580E-10 -1.58868E-09 -1.08340E-09 -1.24789E-09 -6.66327E-10 -1.16951E-09 -7.87832E-10 -1.06428E-09 -6.21687E-10 -7.55653E-10
  -8.76185E-10 -1.12282E-09 -9.32167E-10 -1.12045E-09 -8.32493E-10 -3.70054E-10 -5.88233E-10 -1.18584E-09 -1.29915E-09 -8.60200E-10
  -9.80476E-10 -6.24479E-10 -1.25040E-09 -7.24748E-10 -4.91274E-10 -8.77663E-10 -7.18730E-10 -1.06941E-09 -1.00646E-09 -5.35012E-10
  -8.60110E-10 -2.29808E-10 -1.01274E-09 -6.14410E-10 -1.02267E-09 -9.03860E-10 -3.50941E-10 -1.15140E-09 -9.01903E-10 -8.39155E-10
  -1.04397E-09 -5.85154E-10 -1.00992E-09
 NY points of the fit to the data follow
   6.75099E-09  7.67549E-09  8.61695E-09  9.44950E-09  9.99202E-09  1.00955E-08  9.74200E-09  9.02240E-09  8.20562E-09  7.40721E-09
   6.90477E-09  6.74501E-09  6.77082E-09  6.92312E-09  7.20177E-09  7.60396E-09  8.11244E-09  8.68149E-09  9.21470E-09  9.61388E-09
   9.84790E-09  9.76453E-09  9.25883E-09  8.49921E-09  7.69440E-09  7.01176E-09  6.69020E-09  6.86242E-09  7.28206E-09  7.74016E-09
   7.97674E-09  8.03825E-09  8.10306E-09  8.11755E-09  8.15547E-09  8.41604E-09  8.70137E-09  8.77670E-09  8.56841E-09  8.13201E-09
   7.54013E-09  6.77354E-09  5.78806E-09  4.97715E-09  4.40254E-09  3.83759E-09  3.43117E-09  3.25475E-09  3.21035E-09  3.23788E-09
   3.26563E-09  3.28124E-09  3.28802E-09  3.31363E-09  3.38389E-09  3.50356E-09  3.64326E-09  3.77295E-09  3.81575E-09  3.81447E-09
   3.87806E-09  4.16599E-09  4.63402E-09  5.25169E-09  6.10599E-09  6.98425E-09  7.65832E-09  8.12633E-09  8.37243E-09  8.28647E-09
   7.85908E-09  7.09942E-09  6.14826E-09  5.23262E-09  4.34066E-09  3.64907E-09  3.50797E-09  3.79015E-09  4.58395E-09  5.89005E-09
   7.45819E-09  9.08593E-09  1.06497E-08  1.17993E-08  1.21759E-08  1.17081E-08  1.04645E-08  8.73165E-09  7.04517E-09  6.05226E-09
   5.75974E-09  5.58049E-09  5.27424E-09  4.85624E-09  4.53512E-09  4.16299E-09  3.69391E-09  3.36006E-09  3.11287E-09  2.87842E-09
   2.71854E-09  2.62114E-09  2.56401E-09  2.53976E-09  2.53605E-09  2.54266E-09  2.55197E-09  2.55829E-09  2.55849E-09  2.55204E-09
   2.54163E-09  2.53379E-09  2.53337E-09  2.53062E-09  2.53447E-09  2.55485E-09  2.58173E-09  2.61198E-09  2.64434E-09  2.67813E-09
   2.71290E-09  2.74830E-09  2.78402E-09  2.81981E-09  2.85547E-09  2.89077E-09  2.92555E-09  2.95963E-09  2.99286E-09  3.02508E-09
   3.05613E-09  3.08588E-09  3.11419E-09  3.14091E-09  3.16592E-09  3.18908E-09  3.21025E-09  3.22933E-09  3.24619E-09  3.26071E-09
   3.27277E-09  3.28218E-09  3.28874E-09  3.29227E-09  3.29256E-09  3.28944E-09  3.28273E-09  3.27225E-09  3.25782E-09  3.23930E-09
   3.21656E-09  3.18946E-09  3.15793E-09  3.12191E-09  3.08140E-09  3.03645E-09  2.98725E-09  2.93412E-09  2.87763E-09  2.81874E-09
   2.75906E-09  2.70137E-09  2.65078E-09  2.61738E-09  2.62453E-09  2.74236E-09  3.28315E-09  4.60457E-09  6.70885E-09  9.28873E-09
   1.20830E-08  1.47428E-08  1.67583E-08  1.75585E-08  1.67265E-08  1.42186E-08  1.04693E-08  6.37145E-09  3.13557E-09  1.36262E-09
   5.96787E-10  1.28889E-10 -2.27577E-10 -5.28852E-10 -7.97881E-10 -1.04574E-09 -1.27830E-09 -1.49884E-09 -1.70921E-09 -1.91047E-09
  -2.10315E-09 -2.28747E-09 -2.46341E-09 -2.63079E-09 -2.78937E-09 -2.93879E-09 -3.07882E-09 -3.20966E-09 -3.33159E-09 -3.44486E-09
  -3.54970E-09 -3.64633E-09 -3.73496E-09 -3.81578E-09 -3.88898E-09 -3.95474E-09 -4.01325E-09 -4.06466E-09 -4.10915E-09 -4.14689E-09
  -4.17804E-09 -4.20276E-09 -4.22120E-09 -4.23353E-09 -4.23990E-09 -4.24048E-09 -4.23540E-09 -4.22483E-09 -4.20891E-09 -4.18780E-09
  -4.16165E-09 -4.13061E-09 -4.09482E-09 -4.05445E-09 -4.00968E-09 -3.96076E-09 -3.90798E-09 -3.85160E-09 -3.79191E-09 -3.72917E-09
  -3.66365E-09 -3.59563E-09 -3.52539E-09 -3.45318E-09 -3.37929E-09 -3.30399E-09 -3.22754E-09 -3.15023E-09 -3.07230E-09 -2.99406E-09
  -2.91577E-09 -2.83768E-09 -2.76009E-09 -2.68326E-09 -2.60744E-09 -2.53293E-09 -2.46000E-09 -2.38890E-09 -2.31992E-09 -2.25333E-09
  -2.18938E-09 -2.12837E-09 -2.07039E-09 -2.01537E-09 -1.96321E-09 -1.91382E-09 -1.86708E-09 -1.82292E-09 -1.78122E-09 -1.74189E-09
  -1.70484E-09 -1.66996E-09 -1.63716E-09 -1.60633E-09 -1.57740E-09 -1.55024E-09 -1.52476E-09 -1.50088E-09 -1.47849E-09 -1.45749E-09
  -1.43777E-09 -1.41926E-09 -1.40184E-09 -1.38542E-09 -1.36991E-09 -1.35518E-09 -1.34118E-09 -1.32778E-09 -1.31489E-09 -1.30241E-09
  -1.29028E-09 -1.27851E-09 -1.26708E-09 -1.25596E-09 -1.24516E-09 -1.23466E-09 -1.22445E-09 -1.21452E-09 -1.20485E-09 -1.19543E-09
  -1.18626E-09 -1.17731E-09 -1.16859E-09 -1.16007E-09 -1.15175E-09 -1.14360E-09 -1.13563E-09 -1.12782E-09 -1.12016E-09 -1.11263E-09
  -1.10523E-09 -1.09794E-09 -1.09074E-09 -1.08365E-09 -1.07662E-09 -1.06966E-09 -1.06276E-09 -1.05589E-09 -1.04907E-09 -1.04229E-09
  -1.03555E-09 -1.02886E-09 -1.02221E-09 -1.01562E-09 -1.00908E-09 -1.00259E-09 -9.96156E-10 -9.89782E-10 -9.83471E-10 -9.77220E-10
  -9.71038E-10 -9.64919E-10 -9.58868E-10 -9.52894E-10 -9.46987E-10 -9.41162E-10 -9.35412E-10 -9.29739E-10 -9.24150E-10 -9.18649E-10
  -9.13228E-10 -9.07898E-10 -9.02656E-10 -8.97509E-10 -8.92458E-10 -8.87499E-10 -8.82635E-10 -8.77864E-10 -8.73181E-10 -8.68582E-10
  -8.64066E-10 -8.59627E-10 -8.55264E-10 -8.50972E-10 -8.46753E-10 -8.42595E-10 -8.38505E-10 -8.34472E-10 -8.30498E-10 -8.26576E-10
  -8.22703E-10 -8.18880E-10 -8.15100E-10 -8.11362E-10 -8.07661E-10 -8.03996E-10 -8.00362E-10 -7.96754E-10 -7.93173E-10 -7.89616E-10
  -7.86078E-10 -7.82558E-10 -7.79045E-10
 NY background values follow
     6.521E-10    6.428E-10    6.333E-10    6.238E-10    6.142E-10    6.045E-10    5.947E-10    5.849E-10    5.750E-10    5.650E-10
     5.550E-10    5.448E-10    5.347E-10    5.244E-10    5.141E-10    5.038E-10    4.933E-10    4.828E-10    4.723E-10    4.617E-10
     4.510E-10    4.403E-10    4.296E-10    4.187E-10    4.079E-10    3.970E-10    3.860E-10    3.750E-10    3.639E-10    3.528E-10
     3.417E-10    3.306E-10    3.195E-10    3.084E-10    2.974E-10    2.864E-10    2.755E-10    2.647E-10    2.540E-10    2.435E-10
     2.331E-10    2.228E-10    2.128E-10    2.029E-10    1.933E-10    1.839E-10    1.748E-10    1.659E-10    1.573E-10    1.491E-10
     1.411E-10    1.335E-10    1.263E-10    1.194E-10    1.129E-10    1.069E-10    1.012E-10    9.604E-11    9.135E-11    8.719E-11
     8.360E-11    8.063E-11    7.832E-11    7.669E-11    7.581E-11    7.570E-11    7.640E-11    7.797E-11    8.043E-11    8.382E-11
     8.820E-11    9.359E-11    1.000E-10    1.076E-10    1.163E-10    1.262E-10    1.373E-10    1.496E-10    1.633E-10    1.783E-10
     1.947E-10    2.125E-10    2.317E-10    2.525E-10    2.748E-10    2.987E-10    3.240E-10    3.509E-10    3.791E-10    4.088E-10
     4.397E-10    4.720E-10    5.055E-10    5.402E-10    5.761E-10    6.131E-10    6.512E-10    6.904E-10    7.305E-10    7.716E-10
     8.137E-10    8.565E-10    9.003E-10    9.448E-10    9.901E-10    1.036E-09    1.083E-09    1.130E-09    1.178E-09    1.226E-09
     1.275E-09    1.324E-09    1.374E-09    1.424E-09    1.474E-09    1.525E-09    1.575E-09    1.625E-09    1.675E-09    1.725E-09
     1.774E-09    1.823E-09    1.871E-09    1.918E-09    1.964E-09    2.009E-09    2.053E-09    2.096E-09    2.137E-09    2.177E-09
     2.216E-09    2.252E-09    2.287E-09    2.320E-09    2.351E-09    2.380E-09    2.406E-09    2.430E-09    2.452E-09    2.471E-09
     2.487E-09    2.501E-09    2.511E-09    2.518E-09    2.521E-09    2.521E-09    2.517E-09    2.509E-09    2.496E-09    2.479E-09
     2.457E-09    2.430E-09    2.399E-09    2.362E-09    2.319E-09    2.271E-09    2.216E-09    2.156E-09    2.089E-09    2.016E-09
     1.936E-09    1.849E-09    1.755E-09    1.653E-09    1.545E-09    1.428E-09    1.303E-09    1.171E-09    1.030E-09    8.808E-10
     7.248E-10    5.622E-10    3.937E-10    2.197E-10    4.102E-11   -1.419E-10   -3.283E-10   -5.178E-10   -7.096E-10   -9.031E-10
    -1.098E-09   -1.293E-09   -1.488E-09   -1.683E-09   -1.876E-09   -2.068E-09   -2.257E-09   -2.442E-09   -2.625E-09   -2.803E-09
    -2.976E-09   -3.143E-09   -3.305E-09   -3.459E-09   -3.607E-09   -3.746E-09   -3.878E-09   -4.001E-09   -4.115E-09   -4.222E-09
    -4.321E-09   -4.412E-09   -4.495E-09   -4.572E-09   -4.640E-09   -4.702E-09   -4.757E-09   -4.804E-09   -4.846E-09   -4.880E-09
    -4.908E-09   -4.930E-09   -4.946E-09   -4.955E-09   -4.959E-09   -4.958E-09   -4.950E-09   -4.937E-09   -4.919E-09   -4.896E-09
    -4.868E-09   -4.835E-09   -4.798E-09   -4.756E-09   -4.709E-09   -4.659E-09   -4.604E-09   -4.546E-09   -4.485E-09   -4.421E-09
    -4.354E-09   -4.285E-09   -4.213E-09   -4.139E-09   -4.064E-09   -3.988E-09   -3.910E-09   -3.832E-09   -3.753E-09   -3.673E-09
    -3.594E-09   -3.515E-09   -3.436E-09   -3.358E-09   -3.281E-09   -3.206E-09   -3.132E-09   -3.060E-09   -2.990E-09   -2.922E-09
    -2.857E-09   -2.796E-09   -2.737E-09   -2.681E-09   -2.628E-09   -2.578E-09   -2.530E-09   -2.485E-09   -2.442E-09   -2.402E-09
    -2.365E-09   -2.329E-09   -2.295E-09   -2.264E-09   -2.234E-09   -2.206E-09   -2.180E-09   -2.155E-09   -2.132E-09   -2.111E-09
    -2.090E-09   -2.071E-09   -2.053E-09   -2.036E-09   -2.020E-09   -2.004E-09   -1.990E-09   -1.976E-09   -1.962E-09   -1.949E-09
    -1.936E-09   -1.924E-09   -1.912E-09   -1.900E-09   -1.889E-09   -1.877E-09   -1.867E-09   -1.856E-09   -1.846E-09   -1.836E-09
    -1.826E-09   -1.817E-09   -1.807E-09   -1.798E-09   -1.789E-09   -1.781E-09   -1.772E-09   -1.764E-09   -1.756E-09   -1.748E-09
    -1.740E-09   -1.732E-09   -1.724E-09   -1.716E-09   -1.709E-09   -1.701E-09   -1.694E-09   -1.687E-09   -1.679E-09   -1.672E-09
    -1.665E-09   -1.658E-09   -1.650E-09   -1.643E-09   -1.636E-09   -1.629E-09   -1.622E-09   -1.616E-09   -1.609E-09   -1.602E-09
    -1.595E-09   -1.589E-09   -1.582E-09   -1.576E-09   -1.569E-09   -1.563E-09   -1.557E-09   -1.551E-09   -1.545E-09   -1.539E-09
    -1.533E-09   -1.527E-09   -1.521E-09   -1.516E-09   -1.510E-09   -1.505E-09   -1.499E-09   -1.494E-09   -1.489E-09   -1.484E-09
    -1.479E-09   -1.474E-09   -1.469E-09   -1.464E-09   -1.460E-09   -1.455E-09   -1.451E-09   -1.446E-09   -1.442E-09   -1.437E-09
    -1.433E-09   -1.429E-09   -1.424E-09   -1.420E-09   -1.416E-09   -1.412E-09   -1.408E-09   -1.404E-09   -1.400E-09   -1.396E-09
    -1.392E-09   -1.388E-09   -1.384E-09
 Ala      Conc. = 3.81E-11
   6.77342E-10  6.71378E-10  6.64550E-10  6.56878E-10  6.48191E-10  6.38436E-10  6.27312E-10  6.14597E-10  6.01906E-10  5.89164E-10
   5.74700E-10  5.60820E-10  5.48329E-10  5.35520E-10  5.23017E-10  5.11259E-10  4.99875E-10  4.88689E-10  4.77611E-10  4.66590E-10
   4.55595E-10  4.44605E-10  4.33610E-10  4.22598E-10  4.11563E-10  4.00504E-10  3.89416E-10  3.78295E-10  3.67142E-10  3.55962E-10
   3.44767E-10  3.33572E-10  3.22396E-10  3.11254E-10  3.00162E-10  2.89138E-10  2.78199E-10  2.67361E-10  2.56642E-10  2.46056E-10
   2.35625E-10  2.25362E-10  2.15286E-10  2.05414E-10  1.95764E-10  1.86350E-10  1.77193E-10  1.68310E-10  1.59714E-10  1.51427E-10
   1.43466E-10  1.35845E-10  1.28584E-10  1.21700E-10  1.15214E-10  1.09134E-10  1.03482E-10  9.82858E-11  9.35833E-11  8.94148E-11
   8.58209E-11  8.28420E-11  8.05186E-11  7.88907E-11  7.79993E-11  7.78853E-11  7.85883E-11  8.01492E-11  8.26089E-11  8.60076E-11
   9.03857E-11  9.57848E-11  1.02244E-10  1.09806E-10  1.18510E-10  1.28397E-10  1.39509E-10  1.51886E-10  1.65568E-10  1.80599E-10
   1.97017E-10  2.14868E-10  2.34188E-10  2.55025E-10  2.77415E-10  3.01367E-10  3.26842E-10  3.53803E-10  3.82214E-10  4.12042E-10
   4.43255E-10  4.75826E-10  5.09738E-10  5.44982E-10  5.81568E-10  6.19542E-10  6.59018E-10  7.00260E-10  7.43948E-10  7.92328E-10
   8.50142E-10  9.12025E-10  9.77178E-10  1.05030E-09  1.12628E-09  1.19944E-09  1.26507E-09  1.31966E-09  1.36177E-09  1.39221E-09
   1.41470E-09  1.43634E-09  1.46241E-09  1.48350E-09  1.50887E-09  1.54880E-09  1.59365E-09  1.64045E-09  1.68812E-09  1.73608E-09
   1.78400E-09  1.83162E-09  1.87875E-09  1.92523E-09  1.97091E-09  2.01565E-09  2.05931E-09  2.10178E-09  2.14292E-09  2.18263E-09
   2.22077E-09  2.25724E-09  2.29191E-09  2.32468E-09  2.35541E-09  2.38401E-09  2.41036E-09  2.43433E-09  2.45583E-09  2.47473E-09
   2.49091E-09  2.50420E-09  2.51440E-09  2.52131E-09  2.52471E-09  2.52442E-09  2.52022E-09  2.51193E-09  2.49932E-09  2.48221E-09
   2.46040E-09  2.43367E-09  2.40183E-09  2.36468E-09  2.32202E-09  2.27364E-09  2.21935E-09  2.15894E-09  2.09223E-09  2.01901E-09
   1.93908E-09  1.85227E-09  1.75841E-09  1.65733E-09  1.54896E-09  1.43343E-09  1.31203E-09  1.18880E-09  1.06128E-09  9.28339E-10
   7.89437E-10  6.43097E-10  4.86782E-10  3.17579E-10  1.33678E-10 -6.42179E-11 -2.72561E-10 -4.85200E-10 -6.94033E-10 -8.92871E-10
  -1.08983E-09 -1.28634E-09 -1.48235E-09 -1.67746E-09 -1.87115E-09 -2.06289E-09 -2.25209E-09 -2.43819E-09 -2.62055E-09 -2.79862E-09
  -2.97178E-09 -3.13944E-09 -3.30099E-09 -3.45582E-09 -3.60335E-09 -3.74296E-09 -3.87422E-09 -3.99715E-09 -4.11193E-09 -4.21868E-09
  -4.31755E-09 -4.40870E-09 -4.49226E-09 -4.56838E-09 -4.63721E-09 -4.69889E-09 -4.75357E-09 -4.80140E-09 -4.84251E-09 -4.87705E-09
  -4.90518E-09 -4.92703E-09 -4.94275E-09 -4.95249E-09 -4.95639E-09 -4.95460E-09 -4.94726E-09 -4.93451E-09 -4.91651E-09 -4.89340E-09
  -4.86532E-09 -4.83241E-09 -4.79483E-09 -4.75273E-09 -4.70627E-09 -4.65574E-09 -4.60138E-09 -4.54348E-09 -4.48230E-09 -4.41812E-09
  -4.35121E-09 -4.28182E-09 -4.21025E-09 -4.13676E-09 -4.06160E-09 -3.98507E-09 -3.90742E-09 -3.82893E-09 -3.74986E-09 -3.67050E-09
  -3.59111E-09 -3.51194E-09 -3.43329E-09 -3.35543E-09 -3.27861E-09 -3.20310E-09 -3.12919E-09 -3.05713E-09 -2.98721E-09 -2.91970E-09
  -2.85484E-09 -2.79294E-09 -2.73409E-09 -2.67820E-09 -2.62519E-09 -2.57496E-09 -2.52740E-09 -2.48242E-09 -2.43992E-09 -2.39980E-09
  -2.36197E-09 -2.32632E-09 -2.29276E-09 -2.26119E-09 -2.23152E-09 -2.20363E-09 -2.17743E-09 -2.15284E-09 -2.12975E-09 -2.10805E-09
  -2.08764E-09 -2.06846E-09 -2.05036E-09 -2.03327E-09 -2.01711E-09 -2.00173E-09 -1.98708E-09 -1.97304E-09 -1.95952E-09 -1.94641E-09
  -1.93367E-09 -1.92128E-09 -1.90924E-09 -1.89752E-09 -1.88612E-09 -1.87503E-09 -1.86423E-09 -1.85371E-09 -1.84346E-09 -1.83347E-09
  -1.82373E-09 -1.81422E-09 -1.80493E-09 -1.79586E-09 -1.78698E-09 -1.77829E-09 -1.76977E-09 -1.76142E-09 -1.75322E-09 -1.74515E-09
  -1.73722E-09 -1.72940E-09 -1.72168E-09 -1.71406E-09 -1.70652E-09 -1.69904E-09 -1.69163E-09 -1.68425E-09 -1.67692E-09 -1.66963E-09
  -1.66238E-09 -1.65519E-09 -1.64805E-09 -1.64096E-09 -1.63392E-09 -1.62694E-09 -1.62002E-09 -1.61315E-09 -1.60636E-09 -1.59962E-09
  -1.59296E-09 -1.58636E-09 -1.57983E-09 -1.57337E-09 -1.56699E-09 -1.56069E-09 -1.55447E-09 -1.54832E-09 -1.54226E-09 -1.53629E-09
  -1.53040E-09 -1.52460E-09 -1.51890E-09 -1.51328E-09 -1.50777E-09 -1.50235E-09 -1.49702E-09 -1.49179E-09 -1.48664E-09 -1.48158E-09
  -1.47661E-09 -1.47171E-09 -1.46689E-09 -1.46214E-09 -1.45746E-09 -1.45285E-09 -1.44830E-09 -1.44381E-09 -1.43938E-09 -1.43501E-09
  -1.43068E-09 -1.42640E-09 -1.42216E-09 -1.41797E-09 -1.41382E-09 -1.40970E-09 -1.40561E-09 -1.40155E-09 -1.39751E-09 -1.39350E-09
  -1.38950E-09 -1.38553E-09 -1.38156E-09
 Asp      Conc. = 2.80E-10
   9.93010E-10  9.47925E-10  8.99807E-10  8.45199E-10  7.89868E-10  7.32461E-10  6.84486E-10  6.47142E-10  6.23070E-10  6.04575E-10
   5.89008E-10  5.75209E-10  5.62537E-10  5.50537E-10  5.38826E-10  5.27316E-10  5.15992E-10  5.04823E-10  4.93776E-10  4.82828E-10
   4.71967E-10  4.61183E-10  4.50478E-10  4.39849E-10  4.29305E-10  4.18864E-10  4.08542E-10  3.98367E-10  3.88382E-10  3.78647E-10
   3.69258E-10  3.60349E-10  3.52122E-10  3.44895E-10  3.39236E-10  3.36346E-10  3.39168E-10  3.46025E-10  3.58511E-10  3.71900E-10
   3.82854E-10  3.89285E-10  3.92003E-10  3.96088E-10  4.05270E-10  4.31154E-10  4.66953E-10  5.11566E-10  5.72835E-10  6.33124E-10
   6.75219E-10  6.79517E-10  6.42734E-10  5.73035E-10  4.90649E-10  4.20380E-10  3.68440E-10  3.36595E-10  2.95341E-10  2.52682E-10
   2.30527E-10  2.18704E-10  2.09859E-10  2.04145E-10  1.94739E-10  1.77584E-10  1.58247E-10  1.47260E-10  1.41134E-10  1.38190E-10
   1.37652E-10  1.39111E-10  1.42335E-10  1.47189E-10  1.53591E-10  1.61497E-10  1.70883E-10  1.81742E-10  1.94079E-10  2.07905E-10
   2.23237E-10  2.40099E-10  2.58514E-10  2.78513E-10  3.00122E-10  3.23338E-10  3.48111E-10  3.74393E-10  4.02138E-10  4.31299E-10
   4.61830E-10  4.93685E-10  5.26820E-10  5.61190E-10  5.96750E-10  6.33457E-10  6.71266E-10  7.10135E-10  7.50019E-10  7.90876E-10
   8.32662E-10  8.75333E-10  9.18848E-10  9.63163E-10  1.00823E-09  1.05402E-09  1.10048E-09  1.14757E-09  1.19524E-09  1.24346E-09
   1.29219E-09  1.34137E-09  1.39096E-09  1.44089E-09  1.49103E-09  1.54128E-09  1.59152E-09  1.64164E-09  1.69152E-09  1.74106E-09
   1.79014E-09  1.83865E-09  1.88648E-09  1.93350E-09  1.97962E-09  2.02471E-09  2.06867E-09  2.11137E-09  2.15272E-09  2.19259E-09
   2.23087E-09  2.26746E-09  2.30223E-09  2.33508E-09  2.36589E-09  2.39455E-09  2.42094E-09  2.44496E-09  2.46650E-09  2.48543E-09
   2.50164E-09  2.51496E-09  2.52518E-09  2.53211E-09  2.53554E-09  2.53527E-09  2.53110E-09  2.52283E-09  2.51027E-09  2.49320E-09
   2.47143E-09  2.44477E-09  2.41301E-09  2.37596E-09  2.33343E-09  2.28522E-09  2.23114E-09  2.17101E-09  2.10467E-09  2.03194E-09
   1.95270E-09  1.86686E-09  1.77441E-09  1.67551E-09  1.57081E-09  1.46238E-09  1.35934E-09  1.29448E-09  1.25140E-09  1.21841E-09
   1.18791E-09  1.14568E-09  1.06958E-09  9.34178E-10  7.21461E-10  4.31526E-10  8.54426E-11 -2.76439E-10 -5.98850E-10 -8.34536E-10
  -1.04633E-09 -1.25083E-09 -1.45182E-09 -1.65032E-09 -1.84646E-09 -2.04004E-09 -2.23067E-09 -2.41790E-09 -2.60120E-09 -2.78004E-09
  -2.95384E-09 -3.12206E-09 -3.28409E-09 -3.43933E-09 -3.58722E-09 -3.72716E-09 -3.85870E-09 -3.98189E-09 -4.09689E-09 -4.20385E-09
  -4.30292E-09 -4.39423E-09 -4.47795E-09 -4.55422E-09 -4.62319E-09 -4.68499E-09 -4.73979E-09 -4.78773E-09 -4.82894E-09 -4.86358E-09
  -4.89180E-09 -4.91373E-09 -4.92953E-09 -4.93935E-09 -4.94331E-09 -4.94159E-09 -4.93431E-09 -4.92163E-09 -4.90368E-09 -4.88062E-09
  -4.85260E-09 -4.81975E-09 -4.78222E-09 -4.74015E-09 -4.69375E-09 -4.64325E-09 -4.58894E-09 -4.53108E-09 -4.46994E-09 -4.40579E-09
