 LCModel (Version 6.3-1R) Copyright: S.W. Provencher.          Ref.: Magn. Reson. Med. 30:672-679 (1993).                
 onepulse 21x27_ftSpec_smooth_lcm
 26 lines in following concentration table = NCONC+1
    Conc.  %SD /Cr+PCr  Metabolite                                         
    0.000 999%   0.000 Ala                                                 
 1.32E-10 674%   0.319 Asp                                                 
 4.12E-10  98%   1.000 Cr                                                  
    0.000 999%   0.000 GABA                                                
    0.000 999%   0.000 Glc                                                 
 2.15E-09  41%   5.221 Gln                                                 
 7.86E-11 999%   0.191 Glu                                                 
    0.000 999%   0.000 Glyc                                                
 1.86E-10  70%   0.451 GPC                                                 
    0.000 999%   0.000 GSH                                                 
 1.41E-09  28%   3.422 Ins                                                 
    0.000 999%   0.000 Lac                                                 
 2.19E-10 189%   0.532 NAAG                                                
 5.62E-10 101%   1.364 NAA                                                 
    0.000 999%   0.000 PCh                                                 
    0.000 999%   0.000 PCr                                                 
    0.000 999%   0.000 PE                                                  
 2.61E-10 110%   0.633 Scyllo                                              
 2.99E-09  24%   7.243 Ser                                                 
 2.20E-10 397%   0.533 Tau                                                 
 1.86E-10  70%   0.451 GPC+PCh                                             
 7.82E-10  40%   1.896 NAA+NAAG                                            
 1.41E-09  28%   3.422 Ins+Glyc                                            
 4.12E-10  98%   1.000 Cr+PCr                                              
 2.23E-09  36%   5.411 Glu+Gln                                             
   6 lines in following misc. output table
  FWHM = 0.078 ppm    S/N =   3                                            
  Data shift = 0.335 ppm                                                   
  Ph: -60 deg     -30.3 deg/ppm                                            
  alphaB,S = 1.9E-01,   2.4E+01                                            
   16 spline knots.   Ns = 5(1)                                            
  (10) 5 infls.   ( 7) 1 extrs.                                            
  363 points on ppm-axis = NY
      4.250000     4.238821     4.227641     4.216462     4.205282     4.194103     4.182923     4.171744     4.160564     4.149385
      4.138206     4.127026     4.115847     4.104667     4.093488     4.082308     4.071129     4.059949     4.048770     4.037591
      4.026411     4.015232     4.004052     3.992873     3.981693     3.970514     3.959334     3.948155     3.936975     3.925796
      3.914617     3.903437     3.892258     3.881078     3.869899     3.858719     3.847540     3.836360     3.825181     3.814002
      3.802822     3.791643     3.780463     3.769284     3.758104     3.746925     3.735745     3.724566     3.713387     3.702207
      3.691028     3.679848     3.668669     3.657489     3.646310     3.635130     3.623951     3.612772     3.601592     3.590413
      3.579233     3.568054     3.556874     3.545695     3.534515     3.523336     3.512156     3.500977     3.489798     3.478618
      3.467439     3.456259     3.445080     3.433900     3.422721     3.411541     3.400362     3.389183     3.378003     3.366824
      3.355644     3.344465     3.333285     3.322106     3.310926     3.299747     3.288568     3.277388     3.266209     3.255029
      3.243850     3.232670     3.221491     3.210311     3.199132     3.187953     3.176773     3.165594     3.154414     3.143235
      3.132055     3.120876     3.109696     3.098517     3.087337     3.076158     3.064979     3.053799     3.042620     3.031440
      3.020261     3.009081     2.997902     2.986722     2.975543     2.964364     2.953184     2.942005     2.930825     2.919646
      2.908466     2.897287     2.886107     2.874928     2.863749     2.852569     2.841390     2.830210     2.819031     2.807851
      2.796672     2.785492     2.774313     2.763134     2.751954     2.740775     2.729595     2.718416     2.707236     2.696057
      2.684877     2.673698     2.662519     2.651339     2.640160     2.628980     2.617801     2.606621     2.595442     2.584262
      2.573083     2.561903     2.550724     2.539545     2.528365     2.517186     2.506006     2.494827     2.483647     2.472468
      2.461288     2.450109     2.438930     2.427750     2.416571     2.405391     2.394212     2.383032     2.371853     2.360673
      2.349494     2.338315     2.327135     2.315956     2.304776     2.293597     2.282417     2.271238     2.260058     2.248879
      2.237700     2.226520     2.215341     2.204161     2.192982     2.181802     2.170623     2.159443     2.148264     2.137084
      2.125905     2.114726     2.103546     2.092367     2.081187     2.070008     2.058828     2.047649     2.036469     2.025290
      2.014111     2.002931     1.991752     1.980572     1.969393     1.958213     1.947034     1.935854     1.924675     1.913496
      1.902316     1.891137     1.879957     1.868778     1.857598     1.846419     1.835239     1.824060     1.812881     1.801701
      1.790522     1.779342     1.768163     1.756983     1.745804     1.734624     1.723445     1.712265     1.701086     1.689907
      1.678727     1.667548     1.656368     1.645189     1.634009     1.622830     1.611650     1.600471     1.589292     1.578112
      1.566933     1.555753     1.544574     1.533394     1.522215     1.511035     1.499856     1.488677     1.477497     1.466318
      1.455138     1.443959     1.432779     1.421600     1.410420     1.399241     1.388062     1.376882     1.365703     1.354523
      1.343344     1.332164     1.320985     1.309805     1.298626     1.287446     1.276267     1.265088     1.253908     1.242729
      1.231549     1.220370     1.209190     1.198011     1.186831     1.175652     1.164473     1.153293     1.142114     1.130934
      1.119755     1.108575     1.097396     1.086216     1.075037     1.063858     1.052678     1.041499     1.030319     1.019140
      1.007960     0.996781     0.985601     0.974422     0.963243     0.952063     0.940884     0.929704     0.918525     0.907345
      0.896166     0.884986     0.873807     0.862628     0.851448     0.840269     0.829089     0.817910     0.806730     0.795551
      0.784371     0.773192     0.762012     0.750833     0.739654     0.728474     0.717295     0.706115     0.694936     0.683756
      0.672577     0.661397     0.650218     0.639039     0.627859     0.616680     0.605500     0.594321     0.583141     0.571962
      0.560782     0.549603     0.538424     0.527244     0.516065     0.504885     0.493706     0.482526     0.471347     0.460167
      0.448988     0.437809     0.426629     0.415450     0.404270     0.393091     0.381911     0.370732     0.359552     0.348373
      0.337193     0.326014     0.314835     0.303655     0.292476     0.281296     0.270117     0.258937     0.247758     0.236578
      0.225399     0.214220     0.203040
 NY phased data points follow
   1.63255E-08  1.65250E-08  1.36096E-08  1.10359E-08  8.27330E-09  7.54711E-09  6.68197E-09  7.20579E-09  7.17889E-09  7.37324E-09
   7.30966E-09  8.12485E-09  8.40138E-09  8.68788E-09  8.43403E-09  8.34749E-09  8.01725E-09  7.33387E-09  6.46226E-09  6.63747E-09
   5.92475E-09  6.20806E-09  4.57694E-09  5.55065E-09  5.21443E-09  6.12842E-09  6.44898E-09  6.04512E-09  5.18881E-09  4.65193E-09
   4.54210E-09  5.68844E-09  7.47877E-09  7.49905E-09  7.30772E-09  5.52491E-09  3.39061E-09  2.40566E-09  1.68775E-09  2.40168E-09
   1.66899E-09  1.72828E-09  1.93343E-09  1.87808E-09  2.18199E-09  1.80022E-09  1.75674E-09  9.10614E-10  1.32550E-09  1.49525E-09
   1.72137E-09  2.19388E-09  2.43630E-09  3.06976E-09  2.84712E-09  2.22853E-09  1.83606E-09  2.37525E-09  3.21247E-09  3.69791E-09
   4.39651E-09  4.95099E-09  5.59338E-09  6.97237E-09  8.30587E-09  8.90070E-09  7.03245E-09  5.26649E-09  4.13358E-09  2.81057E-09
   2.38370E-09  2.81440E-09  1.92275E-09  2.02860E-09  2.48603E-09  2.64935E-09  2.95717E-09  3.28858E-09  4.54645E-09  7.97030E-09
   1.15060E-08  1.40282E-08  1.38486E-08  1.03722E-08  7.36084E-09  6.45317E-09  4.93267E-09  4.33869E-09  3.85241E-09  3.20203E-09
   3.39447E-09  3.08137E-09  2.74448E-09  2.10515E-09  1.98165E-09  1.53223E-09  1.29497E-09  5.54836E-10  4.81635E-10  6.00764E-10
   8.73598E-10  5.43896E-10  8.41305E-10  1.66477E-09  1.31502E-09  8.62987E-10  1.32649E-09  1.35158E-09  1.19449E-09  7.49258E-10
  -3.68968E-10 -1.35408E-10 -5.75549E-10 -2.37939E-10  9.54031E-10  8.89585E-10  1.50080E-09  1.02388E-09  1.18816E-09  2.06421E-09
   1.72283E-09  1.72381E-09  1.69786E-09  1.42333E-09  4.95268E-10  8.61303E-11 -3.52543E-10 -7.48384E-10  1.77752E-10  2.29539E-10
   8.41000E-10  8.07975E-10  8.54614E-10  9.72204E-10  1.20354E-09  1.37184E-09  1.61335E-09  9.52237E-10  8.64377E-10  1.40024E-09
   2.74413E-09  3.85940E-09  4.53666E-09  3.82119E-09  3.65618E-09  3.30472E-09  4.41731E-09  4.67825E-09  4.46372E-09  4.58401E-09
   3.91066E-09  3.98132E-09  3.93386E-09  3.58493E-09  2.98922E-09  2.86621E-09  3.14523E-09  3.07147E-09  3.21482E-09  3.09555E-09
   3.92504E-09  3.30214E-09  3.81460E-09  4.16396E-09  4.49697E-09  4.21066E-09  4.79940E-09  5.08122E-09  5.80135E-09  5.93108E-09
   7.93389E-09  1.10385E-08  1.68966E-08  1.98730E-08  1.79181E-08  1.48097E-08  1.26857E-08  1.06651E-08  9.87913E-09  8.85227E-09
   7.34398E-09  6.83134E-09  6.01924E-09  5.40308E-09  4.17766E-09  3.05147E-09  2.51343E-09  1.60163E-09  9.44766E-11 -1.30498E-09
  -2.30867E-09 -3.64042E-09 -4.57671E-09 -6.62244E-09 -7.73068E-09 -9.48602E-09 -1.11819E-08 -1.24619E-08 -1.33261E-08 -1.51684E-08
  -1.55315E-08 -1.61646E-08 -1.60219E-08 -1.63581E-08 -1.51702E-08 -1.47378E-08 -1.34821E-08 -1.20013E-08 -1.05854E-08 -8.78384E-09
  -6.62662E-09 -6.00149E-09 -4.31491E-09 -3.73913E-09 -2.35906E-09 -2.10533E-09 -1.25572E-09 -1.25955E-09 -7.64675E-10 -1.13625E-09
  -1.14681E-09 -1.86020E-09 -1.30627E-09 -1.77479E-09 -1.46683E-09 -1.73500E-09 -8.77967E-10 -1.53628E-09 -8.28359E-10 -1.19999E-09
  -7.58002E-10 -1.06103E-09 -1.31325E-09 -1.17763E-09 -1.20621E-09 -1.73963E-09 -1.13717E-09 -1.10995E-09 -8.34641E-10 -1.52409E-09
  -3.21593E-10 -8.11415E-10 -6.75321E-10 -8.14519E-10 -1.22737E-09 -1.08867E-09 -7.25909E-10 -1.13048E-09 -1.31755E-09 -8.88117E-10
  -9.79781E-10 -8.77492E-10 -5.45598E-10 -5.25619E-10 -5.48656E-10 -2.11604E-10 -2.37305E-10 -5.24627E-11  4.16837E-11 -1.60550E-11
  -9.38738E-11 -1.16856E-09 -8.68200E-10 -7.48815E-10 -1.21321E-09 -1.69899E-09 -1.72625E-09 -1.60392E-09 -1.57111E-09 -1.63691E-09
  -7.93972E-10 -9.61390E-10 -1.14766E-10 -4.11725E-10 -5.56251E-11  1.48141E-10  7.58953E-10  6.13117E-10  5.89055E-10  4.63139E-10
   3.81648E-10 -9.54621E-12  4.84718E-10 -1.06949E-10 -3.93073E-11 -8.69846E-10 -4.37298E-10 -6.47190E-10 -5.11861E-10 -8.35352E-10
  -7.22859E-10 -8.18043E-10 -9.00956E-10 -9.15356E-10 -1.17671E-09 -6.01261E-10 -6.47617E-10 -1.23536E-09 -7.89073E-10 -9.74762E-10
  -1.15916E-09 -7.53489E-10 -1.07975E-09 -9.95384E-10 -9.57117E-10 -9.79972E-10 -1.11892E-09 -1.17526E-09 -8.03407E-10 -1.44447E-09
  -7.85718E-10 -1.31322E-09 -9.32279E-10 -1.22053E-09 -1.23823E-09 -1.44102E-09 -9.48071E-10 -1.20466E-09 -7.78897E-10 -9.76155E-10
  -1.23216E-09 -1.13007E-09 -8.70075E-10 -1.23168E-09 -1.07317E-09 -1.03158E-09 -5.57731E-10 -1.32394E-09 -7.85250E-10 -1.23673E-09
  -5.66648E-10 -1.06673E-09 -9.71119E-10 -9.08670E-10 -9.11671E-10 -1.15409E-09 -6.40725E-10 -9.94586E-10 -1.05256E-09 -1.11286E-09
  -1.48442E-09 -5.93197E-10 -9.95556E-10 -1.23305E-09 -9.44410E-10 -1.12201E-09 -8.04448E-10 -9.54025E-10 -1.15707E-09 -1.06581E-09
  -8.88934E-10 -1.27177E-09 -1.44331E-09 -7.99042E-10 -1.07964E-09 -1.00241E-09 -4.79672E-10 -1.63291E-09 -5.67890E-10 -1.12221E-09
  -7.06678E-10 -9.24556E-10 -7.40214E-10
 NY points of the fit to the data follow
   1.62325E-08  1.47924E-08  1.26121E-08  1.05239E-08  1.00341E-08  9.75262E-09  8.83738E-09  7.84791E-09  7.42730E-09  7.66666E-09
   7.89996E-09  7.65829E-09  7.94395E-09  8.43251E-09  8.88299E-09  8.43756E-09  7.33277E-09  7.08697E-09  6.91737E-09  5.85297E-09
   4.89735E-09  4.89439E-09  5.43063E-09  5.67083E-09  5.66575E-09  5.68653E-09  6.06759E-09  6.43308E-09  6.27190E-09  6.22387E-09
   6.16792E-09  5.96359E-09  5.59605E-09  4.97530E-09  4.26603E-09  3.54296E-09  3.56942E-09  3.58054E-09  3.34950E-09  3.03617E-09
   2.79867E-09  2.41413E-09  1.60385E-09  1.07978E-09  1.01444E-09  1.05807E-09  1.14049E-09  1.24120E-09  1.37356E-09  1.46977E-09
   1.55975E-09  1.65209E-09  1.80131E-09  1.96078E-09  2.20889E-09  2.57680E-09  2.92939E-09  3.35613E-09  4.07732E-09  4.73658E-09
   5.28256E-09  5.77513E-09  6.22482E-09  6.50288E-09  6.48092E-09  5.92761E-09  5.13813E-09  4.72991E-09  4.13657E-09  3.07565E-09
   2.67254E-09  2.71244E-09  2.63954E-09  2.70972E-09  3.05649E-09  3.76100E-09  4.60022E-09  5.70583E-09  6.70720E-09  7.72960E-09
   9.01976E-09  1.02698E-08  1.06796E-08  1.02740E-08  9.60341E-09  8.54060E-09  7.01312E-09  5.47663E-09  3.56255E-09  2.65623E-09
   2.23897E-09  2.00243E-09  1.84686E-09  1.74288E-09  1.65903E-09  1.59141E-09  1.54298E-09  1.51111E-09  1.48577E-09  1.45685E-09
   1.44146E-09  1.43652E-09  1.43157E-09  1.42780E-09  1.42843E-09  1.43275E-09  1.43959E-09  1.44857E-09  1.45911E-09  1.47112E-09
   1.48444E-09  1.49895E-09  1.51450E-09  1.53093E-09  1.54805E-09  1.56567E-09  1.58362E-09  1.60173E-09  1.61985E-09  1.63782E-09
   1.65551E-09  1.67278E-09  1.68949E-09  1.70550E-09  1.72069E-09  1.73492E-09  1.74809E-09  1.76005E-09  1.77070E-09  1.77990E-09
   1.78756E-09  1.79354E-09  1.79774E-09  1.80004E-09  1.80033E-09  1.79850E-09  1.79445E-09  1.78806E-09  1.77923E-09  1.76787E-09
   1.75387E-09  1.73718E-09  1.71777E-09  1.69562E-09  1.67070E-09  1.64299E-09  1.61249E-09  1.57919E-09  1.54310E-09  1.50426E-09
   1.46270E-09  1.41850E-09  1.37175E-09  1.32260E-09  1.27126E-09  1.21801E-09  1.16326E-09  1.10759E-09  1.05183E-09  9.97249E-10
   9.45758E-10  9.00459E-10  8.66663E-10  8.54275E-10  8.84449E-10  1.01334E-09  1.46068E-09  2.95701E-09  4.93228E-09  6.65577E-09
   9.25959E-09  1.31563E-08  1.70940E-08  1.90487E-08  1.83234E-08  1.63566E-08  1.44728E-08  1.15258E-08  5.83931E-09  1.18570E-09
  -1.63866E-10 -7.92147E-10 -1.18584E-09 -1.47573E-09 -1.71035E-09 -1.91155E-09 -2.09046E-09 -2.25321E-09 -2.40336E-09 -2.54308E-09
  -2.67365E-09 -2.79587E-09 -2.91016E-09 -3.01674E-09 -3.11569E-09 -3.20694E-09 -3.29048E-09 -3.36659E-09 -3.43557E-09 -3.49769E-09
  -3.55321E-09 -3.60233E-09 -3.64527E-09 -3.68225E-09 -3.71343E-09 -3.73901E-09 -3.75915E-09 -3.77404E-09 -3.78383E-09 -3.78870E-09
  -3.78879E-09 -3.78426E-09 -3.77527E-09 -3.76198E-09 -3.74453E-09 -3.72309E-09 -3.69778E-09 -3.66876E-09 -3.63619E-09 -3.60020E-09
  -3.56095E-09 -3.51857E-09 -3.47321E-09 -3.42503E-09 -3.37416E-09 -3.32079E-09 -3.26508E-09 -3.20719E-09 -3.14732E-09 -3.08561E-09
  -3.02225E-09 -2.95740E-09 -2.89124E-09 -2.82394E-09 -2.75565E-09 -2.68656E-09 -2.61683E-09 -2.54664E-09 -2.47613E-09 -2.40552E-09
  -2.33494E-09 -2.26456E-09 -2.19457E-09 -2.12514E-09 -2.05640E-09 -1.98856E-09 -1.92177E-09 -1.85620E-09 -1.79203E-09 -1.72942E-09
  -1.66853E-09 -1.60956E-09 -1.55256E-09 -1.49753E-09 -1.44444E-09 -1.39328E-09 -1.34402E-09 -1.29663E-09 -1.25110E-09 -1.20739E-09
  -1.16548E-09 -1.12535E-09 -1.08698E-09 -1.05033E-09 -1.01540E-09 -9.82155E-10 -9.50554E-10 -9.20604E-10 -8.92268E-10 -8.65513E-10
  -8.40318E-10 -8.16672E-10 -7.94535E-10 -7.73888E-10 -7.54720E-10 -7.36980E-10 -7.20674E-10 -7.05759E-10 -6.92220E-10 -6.80023E-10
  -6.69140E-10 -6.59527E-10 -6.51138E-10 -6.43925E-10 -6.37852E-10 -6.32866E-10 -6.28930E-10 -6.25993E-10 -6.24011E-10 -6.22946E-10
  -6.22746E-10 -6.23371E-10 -6.24773E-10 -6.26910E-10 -6.29739E-10 -6.33210E-10 -6.37284E-10 -6.41912E-10 -6.47057E-10 -6.52661E-10
  -6.58695E-10 -6.65103E-10 -6.71843E-10 -6.78878E-10 -6.86155E-10 -6.93630E-10 -7.01264E-10 -7.09007E-10 -7.16842E-10 -7.24758E-10
  -7.32747E-10 -7.40800E-10 -7.48907E-10 -7.57057E-10 -7.65244E-10 -7.73457E-10 -7.81687E-10 -7.89925E-10 -7.98163E-10 -8.06388E-10
  -8.14597E-10 -8.22775E-10 -8.30913E-10 -8.39008E-10 -8.47043E-10 -8.55016E-10 -8.62913E-10 -8.70724E-10 -8.78443E-10 -8.86063E-10
  -8.93567E-10 -9.00952E-10 -9.08206E-10 -9.15322E-10 -9.22291E-10 -9.29102E-10 -9.35759E-10 -9.42271E-10 -9.48641E-10 -9.54877E-10
  -9.60986E-10 -9.66972E-10 -9.72843E-10 -9.78606E-10 -9.84268E-10 -9.89832E-10 -9.95310E-10 -1.00070E-09 -1.00602E-09 -1.01127E-09
  -1.01645E-09 -1.02158E-09 -1.02665E-09 -1.03169E-09 -1.03668E-09 -1.04164E-09 -1.04658E-09 -1.05150E-09 -1.05640E-09 -1.06130E-09
  -1.06621E-09 -1.07112E-09 -1.07604E-09
 NY background values follow
    -2.321E-09   -2.286E-09   -2.251E-09   -2.215E-09   -2.180E-09   -2.144E-09   -2.109E-09   -2.074E-09   -2.038E-09   -2.003E-09
    -1.967E-09   -1.932E-09   -1.896E-09   -1.861E-09   -1.826E-09   -1.791E-09   -1.756E-09   -1.722E-09   -1.687E-09   -1.653E-09
    -1.618E-09   -1.584E-09   -1.550E-09   -1.517E-09   -1.484E-09   -1.451E-09   -1.418E-09   -1.385E-09   -1.353E-09   -1.321E-09
    -1.290E-09   -1.258E-09   -1.227E-09   -1.197E-09   -1.167E-09   -1.137E-09   -1.107E-09   -1.077E-09   -1.048E-09   -1.020E-09
    -9.911E-10   -9.629E-10   -9.350E-10   -9.073E-10   -8.800E-10   -8.529E-10   -8.262E-10   -7.997E-10   -7.735E-10   -7.475E-10
    -7.219E-10   -6.965E-10   -6.714E-10   -6.465E-10   -6.220E-10   -5.977E-10   -5.736E-10   -5.498E-10   -5.262E-10   -5.029E-10
    -4.798E-10   -4.570E-10   -4.343E-10   -4.118E-10   -3.896E-10   -3.674E-10   -3.455E-10   -3.237E-10   -3.021E-10   -2.806E-10
    -2.592E-10   -2.379E-10   -2.168E-10   -1.957E-10   -1.747E-10   -1.538E-10   -1.329E-10   -1.121E-10   -9.139E-11   -7.068E-11
    -4.998E-11   -2.930E-11   -8.614E-12    1.207E-11    3.278E-11    5.351E-11    7.428E-11    9.509E-11    1.159E-10    1.368E-10
     1.578E-10    1.788E-10    1.999E-10    2.211E-10    2.424E-10    2.638E-10    2.852E-10    3.068E-10    3.285E-10    3.503E-10
     3.722E-10    3.943E-10    4.165E-10    4.388E-10    4.613E-10    4.840E-10    5.068E-10    5.298E-10    5.530E-10    5.763E-10
     5.999E-10    6.236E-10    6.476E-10    6.717E-10    6.958E-10    7.198E-10    7.437E-10    7.673E-10    7.904E-10    8.130E-10
     8.350E-10    8.563E-10    8.766E-10    8.961E-10    9.144E-10    9.316E-10    9.475E-10    9.620E-10    9.749E-10    9.863E-10
     9.959E-10    1.004E-09    1.009E-09    1.013E-09    1.015E-09    1.014E-09    1.011E-09    1.005E-09    9.969E-10    9.859E-10
     9.721E-10    9.554E-10    9.357E-10    9.130E-10    8.873E-10    8.585E-10    8.265E-10    7.914E-10    7.529E-10    7.112E-10
     6.662E-10    6.177E-10    5.658E-10    5.104E-10    4.515E-10    3.890E-10    3.229E-10    2.530E-10    1.794E-10    1.021E-10
     2.088E-11   -6.421E-11   -1.532E-10   -2.462E-10   -3.433E-10   -4.444E-10   -5.496E-10   -6.590E-10   -7.726E-10   -8.901E-10
    -1.011E-09   -1.135E-09   -1.262E-09   -1.391E-09   -1.522E-09   -1.654E-09   -1.788E-09   -1.923E-09   -2.057E-09   -2.192E-09
    -2.327E-09   -2.460E-09   -2.593E-09   -2.724E-09   -2.853E-09   -2.979E-09   -3.103E-09   -3.224E-09   -3.341E-09   -3.454E-09
    -3.563E-09   -3.668E-09   -3.767E-09   -3.861E-09   -3.949E-09   -4.030E-09   -4.106E-09   -4.175E-09   -4.237E-09   -4.293E-09
    -4.344E-09   -4.388E-09   -4.427E-09   -4.460E-09   -4.488E-09   -4.510E-09   -4.527E-09   -4.539E-09   -4.547E-09   -4.549E-09
    -4.547E-09   -4.540E-09   -4.529E-09   -4.514E-09   -4.495E-09   -4.472E-09   -4.445E-09   -4.415E-09   -4.381E-09   -4.344E-09
    -4.303E-09   -4.260E-09   -4.213E-09   -4.164E-09   -4.112E-09   -4.058E-09   -4.001E-09   -3.942E-09   -3.881E-09   -3.819E-09
    -3.755E-09   -3.689E-09   -3.622E-09   -3.554E-09   -3.485E-09   -3.415E-09   -3.345E-09   -3.274E-09   -3.203E-09   -3.132E-09
    -3.060E-09   -2.989E-09   -2.919E-09   -2.849E-09   -2.780E-09   -2.711E-09   -2.644E-09   -2.578E-09   -2.513E-09   -2.450E-09
    -2.389E-09   -2.329E-09   -2.272E-09   -2.216E-09   -2.163E-09   -2.111E-09   -2.061E-09   -2.014E-09   -1.968E-09   -1.923E-09
    -1.881E-09   -1.841E-09   -1.802E-09   -1.765E-09   -1.729E-09   -1.696E-09   -1.664E-09   -1.633E-09   -1.605E-09   -1.578E-09
    -1.552E-09   -1.528E-09   -1.506E-09   -1.485E-09   -1.465E-09   -1.447E-09   -1.430E-09   -1.415E-09   -1.401E-09   -1.389E-09
    -1.377E-09   -1.367E-09   -1.359E-09   -1.351E-09   -1.345E-09   -1.339E-09   -1.335E-09   -1.332E-09   -1.330E-09   -1.328E-09
    -1.328E-09   -1.328E-09   -1.329E-09   -1.331E-09   -1.333E-09   -1.336E-09   -1.340E-09   -1.345E-09   -1.349E-09   -1.355E-09
    -1.360E-09   -1.366E-09   -1.373E-09   -1.380E-09   -1.387E-09   -1.394E-09   -1.401E-09   -1.408E-09   -1.416E-09   -1.424E-09
    -1.431E-09   -1.439E-09   -1.447E-09   -1.455E-09   -1.463E-09   -1.470E-09   -1.478E-09   -1.486E-09   -1.494E-09   -1.502E-09
    -1.510E-09   -1.518E-09   -1.526E-09   -1.533E-09   -1.541E-09   -1.549E-09   -1.556E-09   -1.564E-09   -1.571E-09   -1.579E-09
    -1.586E-09   -1.593E-09   -1.600E-09   -1.607E-09   -1.613E-09   -1.620E-09   -1.626E-09   -1.632E-09   -1.638E-09   -1.644E-09
    -1.650E-09   -1.656E-09   -1.661E-09   -1.667E-09   -1.672E-09   -1.677E-09   -1.682E-09   -1.687E-09   -1.692E-09   -1.697E-09
    -1.702E-09   -1.707E-09   -1.712E-09   -1.716E-09   -1.721E-09   -1.726E-09   -1.730E-09   -1.735E-09   -1.739E-09   -1.744E-09
    -1.748E-09   -1.753E-09   -1.757E-09
 Asp      Conc. = 1.32E-10
  -2.15437E-09 -2.13954E-09 -2.12170E-09 -2.11213E-09 -2.09229E-09 -2.07712E-09 -2.06172E-09 -2.04344E-09 -2.01578E-09 -1.98459E-09
  -1.95179E-09 -1.91818E-09 -1.88404E-09 -1.84943E-09 -1.81478E-09 -1.78015E-09 -1.74553E-09 -1.71097E-09 -1.67649E-09 -1.64211E-09
  -1.60785E-09 -1.57373E-09 -1.53977E-09 -1.50598E-09 -1.47237E-09 -1.43895E-09 -1.40573E-09 -1.37270E-09 -1.33987E-09 -1.30721E-09
  -1.27469E-09 -1.24224E-09 -1.20978E-09 -1.17715E-09 -1.14407E-09 -1.10990E-09 -1.07317E-09 -1.03736E-09 -9.98650E-10 -9.60301E-10
  -9.21340E-10 -8.82801E-10 -8.45809E-10 -8.10744E-10 -7.74881E-10 -7.33047E-10 -6.93333E-10 -6.47221E-10 -5.80556E-10 -5.27230E-10
  -4.85225E-10 -4.57444E-10 -4.36072E-10 -4.22067E-10 -4.21994E-10 -4.38821E-10 -4.55233E-10 -4.35349E-10 -4.20684E-10 -4.25869E-10
  -4.09585E-10 -3.90000E-10 -3.79193E-10 -3.61202E-10 -3.37025E-10 -3.17897E-10 -3.07944E-10 -2.93018E-10 -2.75786E-10 -2.57400E-10
  -2.38361E-10 -2.18926E-10 -1.99234E-10 -1.79374E-10 -1.59397E-10 -1.39342E-10 -1.19228E-10 -9.90655E-11 -7.88662E-11 -5.86366E-11
  -3.83677E-11 -1.80702E-11  2.27243E-12  2.26502E-11  4.30830E-11  6.35634E-11  8.41003E-11  1.04697E-10  1.25357E-10  1.46087E-10
   1.66889E-10  1.87772E-10  2.08737E-10  2.29793E-10  2.50944E-10  2.72197E-10  2.93556E-10  3.15029E-10  3.36621E-10  3.58336E-10
   3.80185E-10  4.02171E-10  4.24301E-10  4.46580E-10  4.69016E-10  4.91616E-10  5.14384E-10  5.37329E-10  5.60456E-10  5.83771E-10
   6.07281E-10  6.30993E-10  6.54911E-10  6.78968E-10  7.03057E-10  7.27068E-10  7.50890E-10  7.74414E-10  7.97527E-10  8.20120E-10
   8.42083E-10  8.63306E-10  8.83676E-10  9.03086E-10  9.21423E-10  9.38577E-10  9.54439E-10  9.68898E-10  9.81843E-10  9.93164E-10
   1.00275E-09  1.01049E-09  1.01628E-09  1.02000E-09  1.02155E-09  1.02081E-09  1.01768E-09  1.01204E-09  1.00378E-09  9.92793E-10
   9.78977E-10  9.62261E-10  9.42596E-10  9.19935E-10  8.94227E-10  8.65424E-10  8.33479E-10  7.98343E-10  7.59967E-10  7.18303E-10
   6.73306E-10  6.24925E-10  5.73116E-10  5.17832E-10  4.59029E-10  3.96662E-10  3.30692E-10  2.61079E-10  1.87791E-10  1.10799E-10
   3.00925E-11 -5.43199E-11 -1.42378E-10 -2.33933E-10 -3.28557E-10 -4.24895E-10 -5.16463E-10 -5.88453E-10 -6.74987E-10 -7.60520E-10
  -8.25849E-10 -8.78558E-10 -9.50807E-10 -1.07187E-09 -1.23061E-09 -1.39216E-09 -1.55262E-09 -1.75302E-09 -1.99581E-09 -2.15922E-09
  -2.30373E-09 -2.44230E-09 -2.57764E-09 -2.71038E-09 -2.84060E-09 -2.96811E-09 -3.09267E-09 -3.21394E-09 -3.33159E-09 -3.44526E-09
  -3.55457E-09 -3.65917E-09 -3.75866E-09 -3.85266E-09 -3.94080E-09 -4.02268E-09 -4.09804E-09 -4.16695E-09 -4.22954E-09 -4.28597E-09
  -4.33637E-09 -4.38089E-09 -4.41967E-09 -4.45284E-09 -4.48056E-09 -4.50296E-09 -4.52018E-09 -4.53236E-09 -4.53965E-09 -4.54218E-09
  -4.54010E-09 -4.53355E-09 -4.52266E-09 -4.50759E-09 -4.48846E-09 -4.46543E-09 -4.43862E-09 -4.40819E-09 -4.37427E-09 -4.33701E-09
  -4.29653E-09 -4.25300E-09 -4.20653E-09 -4.15729E-09 -4.10541E-09 -4.05106E-09 -3.99441E-09 -3.93562E-09 -3.87488E-09 -3.81234E-09
  -3.74817E-09 -3.68254E-09 -3.61563E-09 -3.54759E-09 -3.47859E-09 -3.40881E-09 -3.33842E-09 -3.26758E-09 -3.19644E-09 -3.12521E-09
  -3.05403E-09 -2.98307E-09 -2.91251E-09 -2.84251E-09 -2.77324E-09 -2.70486E-09 -2.63755E-09 -2.57147E-09 -2.50680E-09 -2.44370E-09
  -2.38233E-09 -2.32288E-09 -2.26541E-09 -2.20993E-09 -2.15639E-09 -2.10479E-09 -2.05509E-09 -2.00728E-09 -1.96132E-09 -1.91719E-09
  -1.87487E-09 -1.83433E-09 -1.79556E-09 -1.75852E-09 -1.72320E-09 -1.68957E-09 -1.65758E-09 -1.62726E-09 -1.59854E-09 -1.57142E-09
  -1.54586E-09 -1.52185E-09 -1.49935E-09 -1.47835E-09 -1.45882E-09 -1.44073E-09 -1.42408E-09 -1.40882E-09 -1.39494E-09 -1.38240E-09
  -1.37118E-09 -1.36123E-09 -1.35250E-09 -1.34496E-09 -1.33855E-09 -1.33324E-09 -1.32897E-09 -1.32571E-09 -1.32340E-09 -1.32202E-09
  -1.32149E-09 -1.32180E-09 -1.32288E-09 -1.32470E-09 -1.32721E-09 -1.33037E-09 -1.33412E-09 -1.33844E-09 -1.34327E-09 -1.34856E-09
  -1.35428E-09 -1.36038E-09 -1.36680E-09 -1.37353E-09 -1.38049E-09 -1.38766E-09 -1.39498E-09 -1.40242E-09 -1.40994E-09 -1.41755E-09
  -1.42523E-09 -1.43297E-09 -1.44077E-09 -1.44861E-09 -1.45649E-09 -1.46439E-09 -1.47231E-09 -1.48024E-09 -1.48817E-09 -1.49608E-09
  -1.50398E-09 -1.51185E-09 -1.51967E-09 -1.52746E-09 -1.53518E-09 -1.54284E-09 -1.55043E-09 -1.55792E-09 -1.56533E-09 -1.57263E-09
  -1.57982E-09 -1.58689E-09 -1.59383E-09 -1.60063E-09 -1.60728E-09 -1.61377E-09 -1.62010E-09 -1.62629E-09 -1.63234E-09 -1.63825E-09
  -1.64404E-09 -1.64970E-09 -1.65524E-09 -1.66068E-09 -1.66601E-09 -1.67125E-09 -1.67639E-09 -1.68145E-09 -1.68644E-09 -1.69135E-09
  -1.69620E-09 -1.70099E-09 -1.70572E-09 -1.71041E-09 -1.71506E-09 -1.71968E-09 -1.72428E-09 -1.72885E-09 -1.73340E-09 -1.73795E-09
  -1.74250E-09 -1.74706E-09 -1.75163E-09
 Cr       Conc. = 4.12E-10
  -6.89434E-10 -8.28390E-10 -1.21891E-09 -1.83394E-09 -1.96680E-09 -1.99229E-09 -1.98696E-09 -1.96904E-09 -1.94481E-09 -1.91698E-09
  -1.88695E-09 -1.85546E-09 -1.82297E-09 -1.78976E-09 -1.75603E-09 -1.72189E-09 -1.68742E-09 -1.65268E-09 -1.61769E-09 -1.58244E-09
  -1.54690E-09 -1.51102E-09 -1.47469E-09 -1.43773E-09 -1.39988E-09 -1.36069E-09 -1.31939E-09 -1.27456E-09 -1.22326E-09 -1.15806E-09
  -1.05304E-09 -7.69109E-10 -4.47568E-10 -1.62870E-10  2.62107E-10  8.78772E-10  1.49126E-09  1.79444E-09  1.70521E-09  1.46015E-09
   1.25132E-09  8.75080E-10  3.97928E-11 -5.28798E-10 -6.58265E-10 -6.95778E-10 -7.02980E-10 -6.96985E-10 -6.84238E-10 -6.67701E-10
  -6.48896E-10 -6.28668E-10 -6.07552E-10 -5.85869E-10 -5.63857E-10 -5.41625E-10 -5.19296E-10 -4.96955E-10 -4.74639E-10 -4.52382E-10
  -4.30208E-10 -4.08131E-10 -3.86163E-10 -3.64305E-10 -3.42565E-10 -3.20942E-10 -2.99433E-10 -2.78035E-10 -2.56744E-10 -2.35555E-10
  -2.14460E-10 -1.93457E-10 -1.72534E-10 -1.51687E-10 -1.30903E-10 -1.10181E-10 -8.95077E-11 -6.88733E-11 -4.82711E-11 -2.76952E-11
  -7.12670E-12  1.34316E-11  3.40025E-11  5.45810E-11  7.51910E-11  9.58286E-11  1.16505E-10  1.37227E-10  1.57999E-10  1.78829E-10
   1.99721E-10  2.20685E-10  2.41724E-10  2.62846E-10  2.84057E-10  3.05366E-10  3.26775E-10  3.48293E-10  3.69927E-10  3.91681E-10
   4.13565E-10  4.35583E-10  4.57742E-10  4.80049E-10  5.02510E-10  5.25134E-10  5.47923E-10  5.70888E-10  5.94033E-10  6.17365E-10
   6.40891E-10  6.64617E-10  6.88548E-10  7.12619E-10  7.36720E-10  7.60742E-10  7.84576E-10  8.08109E-10  8.31233E-10  8.53836E-10
   8.75808E-10  8.97040E-10  9.17420E-10  9.36838E-10  9.55185E-10  9.72349E-10  9.88220E-10  1.00269E-09  1.01564E-09  1.02698E-09
   1.03658E-09  1.04433E-09  1.05013E-09  1.05387E-09  1.05543E-09  1.05471E-09  1.05160E-09  1.04598E-09  1.03775E-09  1.02679E-09
   1.01301E-09  9.96325E-10  9.76700E-10  9.54084E-10  9.28429E-10  8.99686E-10  8.67810E-10  8.32753E-10  7.94469E-10  7.52913E-10
   7.08042E-10  6.59810E-10  6.08178E-10  5.53107E-10  4.94561E-10  4.32508E-10  3.66925E-10  2.97797E-10  2.25128E-10  1.48942E-10
   6.93098E-11 -1.36182E-11 -9.95313E-11 -1.87773E-10 -2.76697E-10 -3.61067E-10 -4.14624E-10 -4.11655E-10 -4.41828E-10 -4.52922E-10
  -3.95333E-10 -3.03193E-10 -2.77886E-10 -3.96662E-10 -6.14540E-10 -8.33185E-10 -1.06000E-09 -1.41792E-09 -1.85830E-09 -2.07071E-09
  -2.23432E-09 -2.38275E-09 -2.52402E-09 -2.66068E-09 -2.79365E-09 -2.92320E-09 -3.04930E-09 -3.17179E-09 -3.29041E-09 -3.40487E-09
  -3.51485E-09 -3.61999E-09 -3.71996E-09 -3.81436E-09 -3.90285E-09 -3.98505E-09 -4.06068E-09 -4.12982E-09 -4.19263E-09 -4.24925E-09
  -4.29983E-09 -4.34450E-09 -4.38342E-09 -4.41673E-09 -4.44456E-09 -4.46707E-09 -4.48439E-09 -4.49667E-09 -4.50405E-09 -4.50666E-09
  -4.50466E-09 -4.49818E-09 -4.48736E-09 -4.47235E-09 -4.45328E-09 -4.43030E-09 -4.40355E-09 -4.37317E-09 -4.33930E-09 -4.30208E-09
  -4.26165E-09 -4.21815E-09 -4.17173E-09 -4.12252E-09 -4.07068E-09 -4.01636E-09 -3.95975E-09 -3.90100E-09 -3.84028E-09 -3.77777E-09
