 LCModel (Version 6.3-1R) Copyright: S.W. Provencher.          Ref.: Magn. Reson. Med. 30:672-679 (1993).                
 onepulse 21x26_ftSpec_smooth_lcm
 26 lines in following concentration table = NCONC+1
    Conc.  %SD /Cr+PCr  Metabolite                                         
    0.000 999%   0.000 Ala                                                 
    0.000 999%   0.000 Asp                                                 
 4.92E-10  41%   1.000 Cr                                                  
    0.000 999%   0.000 GABA                                                
    0.000 999%   0.000 Glc                                                 
 1.67E-09  44%   3.388 Gln                                                 
 4.76E-10 120%   0.967 Glu                                                 
    0.000 999%   0.000 Glyc                                                
 1.82E-10  61%   0.370 GPC                                                 
    0.000 999%   0.000 GSH                                                 
 1.45E-09  24%   2.958 Ins                                                 
    0.000 999%   0.000 Lac                                                 
    0.000 999%   0.000 NAAG                                                
 8.95E-10  24%   1.820 NAA                                                 
    0.000 999%   0.000 PCh                                                 
    0.000 999%   0.000 PCr                                                 
    0.000 999%   0.000 PE                                                  
 2.57E-10  97%   0.523 Scyllo                                              
 3.06E-09  17%   6.234 Ser                                                 
 2.37E-10 319%   0.483 Tau                                                 
 1.82E-10  61%   0.370 GPC+PCh                                             
 8.95E-10  24%   1.820 NAA+NAAG                                            
 1.45E-09  24%   2.958 Ins+Glyc                                            
 4.92E-10  41%   1.000 Cr+PCr                                              
 2.14E-09  23%   4.356 Glu+Gln                                             
   6 lines in following misc. output table
  FWHM = 0.089 ppm    S/N =   4                                            
  Data shift = 0.347 ppm                                                   
  Ph: -39 deg     -19.9 deg/ppm                                            
  alphaB,S = 1.7E-01,   4.6E+01                                            
   16 spline knots.   Ns = 5(1)                                            
  ( 9) 4 infls.   ( 7) 1 extrs.                                            
  363 points on ppm-axis = NY
      4.250000     4.238821     4.227641     4.216462     4.205282     4.194103     4.182923     4.171744     4.160564     4.149385
      4.138206     4.127026     4.115847     4.104667     4.093488     4.082308     4.071129     4.059949     4.048770     4.037591
      4.026411     4.015232     4.004052     3.992873     3.981693     3.970514     3.959334     3.948155     3.936975     3.925796
      3.914617     3.903437     3.892258     3.881078     3.869899     3.858719     3.847540     3.836360     3.825181     3.814002
      3.802822     3.791643     3.780463     3.769284     3.758104     3.746925     3.735745     3.724566     3.713387     3.702207
      3.691028     3.679848     3.668669     3.657489     3.646310     3.635130     3.623951     3.612772     3.601592     3.590413
      3.579233     3.568054     3.556874     3.545695     3.534515     3.523336     3.512156     3.500977     3.489798     3.478618
      3.467439     3.456259     3.445080     3.433900     3.422721     3.411541     3.400362     3.389183     3.378003     3.366824
      3.355644     3.344465     3.333285     3.322106     3.310926     3.299747     3.288568     3.277388     3.266209     3.255029
      3.243850     3.232670     3.221491     3.210311     3.199132     3.187953     3.176773     3.165594     3.154414     3.143235
      3.132055     3.120876     3.109696     3.098517     3.087337     3.076158     3.064979     3.053799     3.042620     3.031440
      3.020261     3.009081     2.997902     2.986722     2.975543     2.964364     2.953184     2.942005     2.930825     2.919646
      2.908466     2.897287     2.886107     2.874928     2.863749     2.852569     2.841390     2.830210     2.819031     2.807851
      2.796672     2.785492     2.774313     2.763134     2.751954     2.740775     2.729595     2.718416     2.707236     2.696057
      2.684877     2.673698     2.662519     2.651339     2.640160     2.628980     2.617801     2.606621     2.595442     2.584262
      2.573083     2.561903     2.550724     2.539545     2.528365     2.517186     2.506006     2.494827     2.483647     2.472468
      2.461288     2.450109     2.438930     2.427750     2.416571     2.405391     2.394212     2.383032     2.371853     2.360673
      2.349494     2.338315     2.327135     2.315956     2.304776     2.293597     2.282417     2.271238     2.260058     2.248879
      2.237700     2.226520     2.215341     2.204161     2.192982     2.181802     2.170623     2.159443     2.148264     2.137084
      2.125905     2.114726     2.103546     2.092367     2.081187     2.070008     2.058828     2.047649     2.036469     2.025290
      2.014111     2.002931     1.991752     1.980572     1.969393     1.958213     1.947034     1.935854     1.924675     1.913496
      1.902316     1.891137     1.879957     1.868778     1.857598     1.846419     1.835239     1.824060     1.812881     1.801701
      1.790522     1.779342     1.768163     1.756983     1.745804     1.734624     1.723445     1.712265     1.701086     1.689907
      1.678727     1.667548     1.656368     1.645189     1.634009     1.622830     1.611650     1.600471     1.589292     1.578112
      1.566933     1.555753     1.544574     1.533394     1.522215     1.511035     1.499856     1.488677     1.477497     1.466318
      1.455138     1.443959     1.432779     1.421600     1.410420     1.399241     1.388062     1.376882     1.365703     1.354523
      1.343344     1.332164     1.320985     1.309805     1.298626     1.287446     1.276267     1.265088     1.253908     1.242729
      1.231549     1.220370     1.209190     1.198011     1.186831     1.175652     1.164473     1.153293     1.142114     1.130934
      1.119755     1.108575     1.097396     1.086216     1.075037     1.063858     1.052678     1.041499     1.030319     1.019140
      1.007960     0.996781     0.985601     0.974422     0.963243     0.952063     0.940884     0.929704     0.918525     0.907345
      0.896166     0.884986     0.873807     0.862628     0.851448     0.840269     0.829089     0.817910     0.806730     0.795551
      0.784371     0.773192     0.762012     0.750833     0.739654     0.728474     0.717295     0.706115     0.694936     0.683756
      0.672577     0.661397     0.650218     0.639039     0.627859     0.616680     0.605500     0.594321     0.583141     0.571962
      0.560782     0.549603     0.538424     0.527244     0.516065     0.504885     0.493706     0.482526     0.471347     0.460167
      0.448988     0.437809     0.426629     0.415450     0.404270     0.393091     0.381911     0.370732     0.359552     0.348373
      0.337193     0.326014     0.314835     0.303655     0.292476     0.281296     0.270117     0.258937     0.247758     0.236578
      0.225399     0.214220     0.203040
 NY phased data points follow
   1.97126E-08  1.80936E-08  1.57346E-08  1.25221E-08  1.13806E-08  9.61102E-09  1.00729E-08  9.87106E-09  9.77896E-09  9.91621E-09
   1.04844E-08  1.08869E-08  1.10700E-08  1.09688E-08  1.13221E-08  1.09934E-08  1.06231E-08  9.40516E-09  9.44642E-09  8.75066E-09
   9.08066E-09  7.24041E-09  7.85295E-09  7.41439E-09  8.24851E-09  8.90377E-09  8.66047E-09  7.72300E-09  6.85032E-09  6.49599E-09
   7.43409E-09  9.15276E-09  9.60329E-09  1.01552E-08  8.86715E-09  6.32510E-09  5.22223E-09  4.10666E-09  4.36183E-09  3.57070E-09
   3.75213E-09  3.65733E-09  3.47229E-09  3.71577E-09  3.57766E-09  3.26977E-09  2.39281E-09  2.53273E-09  2.69291E-09  2.75262E-09
   3.29835E-09  3.41563E-09  4.20571E-09  4.13601E-09  3.31497E-09  2.68486E-09  3.15866E-09  3.72428E-09  4.36797E-09  5.04330E-09
   6.03783E-09  6.16840E-09  7.61227E-09  9.37233E-09  1.01413E-08  9.14522E-09  7.00209E-09  5.61881E-09  4.23150E-09  3.43599E-09
   3.64560E-09  2.99028E-09  2.74884E-09  2.97498E-09  3.22696E-09  3.21631E-09  3.56184E-09  4.54530E-09  7.49064E-09  1.13789E-08
   1.46407E-08  1.51340E-08  1.23657E-08  9.17247E-09  7.89802E-09  6.22746E-09  5.55535E-09  5.04491E-09  4.64598E-09  4.57803E-09
   4.21107E-09  3.75280E-09  3.23006E-09  2.63714E-09  2.45489E-09  2.14817E-09  1.33390E-09  1.20675E-09  1.41026E-09  1.39094E-09
   1.33798E-09  1.52844E-09  2.09849E-09  2.19753E-09  1.61448E-09  1.92466E-09  2.00630E-09  1.78603E-09  1.36959E-09  2.75699E-10
   3.79151E-10  4.04937E-11  8.18812E-11  1.29153E-09  1.56710E-09  1.99569E-09  1.41143E-09  1.59140E-09  2.57416E-09  2.14417E-09
   2.06095E-09  2.07121E-09  1.89202E-09  1.00946E-09  5.34444E-10  5.80155E-11 -4.58624E-10  3.06541E-10  5.19965E-10  9.40750E-10
   1.10156E-09  1.02601E-09  1.10548E-09  1.43908E-09  1.54339E-09  1.82628E-09  1.00756E-09  1.16098E-09  1.24145E-09  2.50496E-09
   3.60489E-09  4.06782E-09  3.68873E-09  3.47067E-09  2.94274E-09  3.98970E-09  4.48248E-09  4.05051E-09  4.26175E-09  3.75261E-09
   3.75989E-09  3.41327E-09  3.32560E-09  2.85490E-09  2.52166E-09  2.63428E-09  2.86566E-09  2.94694E-09  2.75600E-09  3.83219E-09
   3.12040E-09  3.76407E-09  3.79198E-09  4.38061E-09  4.54194E-09  4.80445E-09  4.96881E-09  5.92594E-09  6.28151E-09  8.29923E-09
   1.15759E-08  1.71304E-08  2.01102E-08  1.81465E-08  1.48111E-08  1.25752E-08  1.04940E-08  9.45867E-09  8.40082E-09  7.05102E-09
   6.46051E-09  5.65386E-09  5.40144E-09  3.92894E-09  2.98985E-09  2.64123E-09  1.73023E-09  6.58586E-10 -6.64880E-10 -1.37000E-09
  -2.69765E-09 -3.19792E-09 -4.86409E-09 -6.08362E-09 -7.45173E-09 -8.92024E-09 -9.70998E-09 -1.06390E-08 -1.21714E-08 -1.23797E-08
  -1.30783E-08 -1.31567E-08 -1.33661E-08 -1.24312E-08 -1.24030E-08 -1.14755E-08 -1.03933E-08 -9.42661E-09 -7.85784E-09 -6.31675E-09
  -5.99686E-09 -4.57642E-09 -4.04190E-09 -2.80634E-09 -2.43342E-09 -1.66460E-09 -1.29116E-09 -9.02197E-10 -8.74260E-10 -8.68450E-10
  -1.56702E-09 -1.22465E-09 -1.43626E-09 -1.44491E-09 -1.43338E-09 -8.59949E-10 -1.31284E-09 -8.41153E-10 -1.12360E-09 -5.68154E-10
  -1.01766E-09 -1.01192E-09 -8.13263E-10 -9.91216E-10 -1.47871E-09 -1.32881E-09 -1.03055E-09 -8.71938E-10 -1.32924E-09 -2.52195E-10
  -6.96880E-10 -4.88433E-10 -6.88054E-10 -8.87412E-10 -8.42034E-10 -6.63615E-10 -1.27479E-09 -1.15479E-09 -8.28992E-10 -1.01023E-09
  -7.32712E-10 -3.49751E-10 -5.52134E-10 -2.97659E-10 -1.97462E-10 -6.82032E-11  7.88825E-11  7.80525E-11 -1.01822E-10 -8.03403E-11
  -1.26112E-09 -7.80672E-10 -9.84934E-10 -1.28037E-09 -1.72667E-09 -1.49256E-09 -1.25619E-09 -1.58315E-09 -1.05559E-09 -2.82768E-10
  -7.44095E-10  1.33183E-10 -2.66881E-10  1.75570E-10  4.45202E-10  8.08993E-10  4.97050E-10  5.52658E-10  4.21322E-10  2.32334E-10
   1.12061E-11  3.14275E-10 -4.07814E-10 -2.65527E-10 -8.62462E-10 -3.17626E-10 -6.87274E-10 -4.55012E-10 -7.00757E-10 -8.08909E-10
  -6.39897E-10 -8.15096E-10 -8.23399E-10 -9.96534E-10 -4.63974E-10 -8.39143E-10 -1.09126E-09 -7.66591E-10 -6.02129E-10 -8.76802E-10
  -4.65320E-10 -1.06985E-09 -7.89851E-10 -7.77106E-10 -8.89261E-10 -8.06995E-10 -7.58439E-10 -7.33472E-10 -9.74128E-10 -4.43055E-10
  -1.17431E-09 -7.60806E-10 -7.67643E-10 -9.25093E-10 -9.79825E-10 -5.80641E-10 -1.04581E-09 -3.73044E-10 -7.73222E-10 -9.36392E-10
  -6.24568E-10 -5.18290E-10 -8.78185E-10 -6.12032E-10 -4.69654E-10 -3.35204E-10 -9.54308E-10 -3.98493E-10 -6.19947E-10 -2.18528E-10
  -8.45108E-10 -4.18325E-10 -5.69955E-10 -5.96290E-10 -6.60872E-10 -9.60991E-11 -4.75366E-10 -8.88663E-10 -8.36515E-10 -8.18268E-10
   5.89840E-11 -5.76858E-10 -6.81704E-10 -4.87756E-10 -6.27169E-10 -4.03467E-10 -5.65723E-10 -5.97783E-10 -4.00721E-10 -4.11678E-10
  -9.04401E-10 -7.89437E-10 -1.76670E-10 -6.75781E-10 -2.12070E-10 -4.24092E-10 -8.05903E-10 -2.99787E-11 -5.35935E-10 -2.36347E-10
  -4.16445E-10 -2.70731E-10 -7.35613E-10
 NY points of the fit to the data follow
   1.87084E-08  1.69275E-08  1.47668E-08  1.30504E-08  1.24245E-08  1.18800E-08  1.10736E-08  1.03473E-08  1.00425E-08  1.02649E-08
   1.05618E-08  1.07991E-08  1.12017E-08  1.13885E-08  1.12525E-08  1.05005E-08  9.55497E-09  9.24462E-09  9.04774E-09  8.42994E-09
   7.88766E-09  7.78978E-09  7.81797E-09  7.69441E-09  7.77247E-09  8.19974E-09  8.78560E-09  8.98702E-09  8.58964E-09  8.16451E-09
   7.74828E-09  7.50026E-09  7.34259E-09  7.11373E-09  6.80983E-09  6.38111E-09  6.10351E-09  5.66613E-09  5.18923E-09  4.79872E-09
   4.41814E-09  3.80712E-09  2.98496E-09  2.65633E-09  2.63713E-09  2.69192E-09  2.75561E-09  2.79927E-09  2.83079E-09  2.85733E-09
   2.93307E-09  3.06770E-09  3.25760E-09  3.44873E-09  3.67001E-09  3.98980E-09  4.39078E-09  4.85764E-09  5.46558E-09  6.06251E-09
   6.53835E-09  6.90407E-09  7.16926E-09  7.19013E-09  7.03395E-09  6.66455E-09  6.16650E-09  5.69892E-09  5.00093E-09  4.19807E-09
   3.84166E-09  3.70609E-09  3.51987E-09  3.55391E-09  3.88360E-09  4.42449E-09  5.17343E-09  6.46664E-09  7.97703E-09  9.56504E-09
   1.10151E-08  1.18866E-08  1.17391E-08  1.08296E-08  9.76930E-09  8.65572E-09  7.40043E-09  5.80500E-09  3.84530E-09  3.06037E-09
   2.69598E-09  2.48435E-09  2.34222E-09  2.23793E-09  2.16284E-09  2.10466E-09  2.05743E-09  2.02072E-09  1.99165E-09  1.96867E-09
   1.95045E-09  1.93594E-09  1.92461E-09  1.91603E-09  1.90982E-09  1.90577E-09  1.90352E-09  1.90289E-09  1.90375E-09  1.90597E-09
   1.90946E-09  1.91414E-09  1.91995E-09  1.92675E-09  1.93438E-09  1.94268E-09  1.95150E-09  1.96069E-09  1.97011E-09  1.97962E-09
   1.98908E-09  1.99837E-09  2.00735E-09  2.01590E-09  2.02390E-09  2.03122E-09  2.03774E-09  2.04335E-09  2.04792E-09  2.05134E-09
   2.05350E-09  2.05429E-09  2.05358E-09  2.05127E-09  2.04726E-09  2.04142E-09  2.03366E-09  2.02388E-09  2.01197E-09  1.99783E-09
   1.98137E-09  1.96253E-09  1.94127E-09  1.91757E-09  1.89138E-09  1.86269E-09  1.83148E-09  1.79776E-09  1.76153E-09  1.72281E-09
   1.68166E-09  1.63815E-09  1.59241E-09  1.54459E-09  1.49494E-09  1.44379E-09  1.39163E-09  1.33915E-09  1.28738E-09  1.23782E-09
   1.19287E-09  1.15635E-09  1.13491E-09  1.14093E-09  1.20082E-09  1.38377E-09  1.95444E-09  3.67196E-09  6.67694E-09  1.03803E-08
   1.43488E-08  1.76053E-08  1.89765E-08  1.81908E-08  1.62137E-08  1.41462E-08  1.19790E-08  8.66334E-09  4.08433E-09  8.71697E-10
  -1.36217E-10 -6.44853E-10 -9.82265E-10 -1.24054E-09 -1.45509E-09 -1.64229E-09 -1.81064E-09 -1.96493E-09 -2.10791E-09 -2.24130E-09
  -2.36609E-09 -2.48287E-09 -2.59196E-09 -2.69348E-09 -2.78743E-09 -2.87372E-09 -2.95229E-09 -3.02343E-09 -3.08744E-09 -3.14458E-09
  -3.19512E-09 -3.23929E-09 -3.27733E-09 -3.30943E-09 -3.33581E-09 -3.35666E-09 -3.37218E-09 -3.38255E-09 -3.38797E-09 -3.38860E-09
  -3.38462E-09 -3.37622E-09 -3.36356E-09 -3.34682E-09 -3.32617E-09 -3.30177E-09 -3.27381E-09 -3.24243E-09 -3.20781E-09 -3.17012E-09
  -3.12952E-09 -3.08618E-09 -3.04025E-09 -2.99191E-09 -2.94132E-09 -2.88863E-09 -2.83400E-09 -2.77758E-09 -2.71954E-09 -2.66003E-09
  -2.59920E-09 -2.53721E-09 -2.47422E-09 -2.41038E-09 -2.34584E-09 -2.28077E-09 -2.21531E-09 -2.14963E-09 -2.08386E-09 -2.01819E-09
  -1.95276E-09 -1.88770E-09 -1.82320E-09 -1.75941E-09 -1.69646E-09 -1.63452E-09 -1.57375E-09 -1.51429E-09 -1.45630E-09 -1.39996E-09
  -1.34537E-09 -1.29274E-09 -1.24211E-09 -1.19346E-09 -1.14676E-09 -1.10198E-09 -1.05907E-09 -1.01801E-09 -9.78756E-10 -9.41276E-10
  -9.05538E-10 -8.71500E-10 -8.39135E-10 -8.08402E-10 -7.79273E-10 -7.51709E-10 -7.25663E-10 -7.01128E-10 -6.78053E-10 -6.56399E-10
  -6.36132E-10 -6.17229E-10 -5.99639E-10 -5.83335E-10 -5.68290E-10 -5.54448E-10 -5.41798E-10 -5.30291E-10 -5.19898E-10 -5.10575E-10
  -5.02291E-10 -4.95001E-10 -4.88662E-10 -4.83226E-10 -4.78659E-10 -4.74910E-10 -4.71940E-10 -4.69703E-10 -4.68155E-10 -4.67258E-10
  -4.66964E-10 -4.67232E-10 -4.68016E-10 -4.69275E-10 -4.70967E-10 -4.73045E-10 -4.75469E-10 -4.78193E-10 -4.81180E-10 -4.84374E-10
  -4.87747E-10 -4.91245E-10 -4.94827E-10 -4.98455E-10 -5.02081E-10 -5.05661E-10 -5.09155E-10 -5.12517E-10 -5.15736E-10 -5.18812E-10
  -5.21745E-10 -5.24535E-10 -5.27183E-10 -5.29687E-10 -5.32051E-10 -5.34274E-10 -5.36356E-10 -5.38297E-10 -5.40099E-10 -5.41760E-10
  -5.43285E-10 -5.44668E-10 -5.45913E-10 -5.47023E-10 -5.47993E-10 -5.48829E-10 -5.49526E-10 -5.50087E-10 -5.50512E-10 -5.50805E-10
  -5.50960E-10 -5.50982E-10 -5.50868E-10 -5.50623E-10 -5.50244E-10 -5.49732E-10 -5.49092E-10 -5.48332E-10 -5.47454E-10 -5.46465E-10
  -5.45372E-10 -5.44178E-10 -5.42892E-10 -5.41517E-10 -5.40062E-10 -5.38528E-10 -5.36926E-10 -5.35258E-10 -5.33532E-10 -5.31752E-10
  -5.29922E-10 -5.28052E-10 -5.26145E-10 -5.24207E-10 -5.22244E-10 -5.20263E-10 -5.18268E-10 -5.16263E-10 -5.14256E-10 -5.12255E-10
  -5.10263E-10 -5.08287E-10 -5.06329E-10
 NY background values follow
     6.798E-10    6.848E-10    6.898E-10    6.949E-10    7.001E-10    7.053E-10    7.105E-10    7.157E-10    7.210E-10    7.262E-10
     7.315E-10    7.367E-10    7.419E-10    7.470E-10    7.521E-10    7.572E-10    7.621E-10    7.670E-10    7.718E-10    7.764E-10
     7.810E-10    7.854E-10    7.897E-10    7.938E-10    7.978E-10    8.016E-10    8.052E-10    8.087E-10    8.119E-10    8.149E-10
     8.177E-10    8.204E-10    8.228E-10    8.251E-10    8.272E-10    8.291E-10    8.309E-10    8.326E-10    8.341E-10    8.355E-10
     8.368E-10    8.380E-10    8.391E-10    8.400E-10    8.409E-10    8.418E-10    8.425E-10    8.433E-10    8.439E-10    8.445E-10
     8.451E-10    8.457E-10    8.462E-10    8.468E-10    8.474E-10    8.479E-10    8.485E-10    8.491E-10    8.497E-10    8.504E-10
     8.511E-10    8.519E-10    8.527E-10    8.536E-10    8.545E-10    8.555E-10    8.566E-10    8.577E-10    8.589E-10    8.602E-10
     8.615E-10    8.630E-10    8.646E-10    8.662E-10    8.680E-10    8.698E-10    8.718E-10    8.739E-10    8.761E-10    8.784E-10
     8.809E-10    8.835E-10    8.862E-10    8.891E-10    8.921E-10    8.953E-10    8.987E-10    9.022E-10    9.059E-10    9.099E-10
     9.140E-10    9.184E-10    9.231E-10    9.280E-10    9.332E-10    9.386E-10    9.444E-10    9.505E-10    9.569E-10    9.637E-10
     9.708E-10    9.783E-10    9.862E-10    9.945E-10    1.003E-09    1.012E-09    1.022E-09    1.032E-09    1.042E-09    1.053E-09
     1.065E-09    1.076E-09    1.089E-09    1.102E-09    1.115E-09    1.128E-09    1.142E-09    1.156E-09    1.169E-09    1.182E-09
     1.195E-09    1.208E-09    1.220E-09    1.231E-09    1.242E-09    1.252E-09    1.260E-09    1.268E-09    1.275E-09    1.280E-09
     1.283E-09    1.286E-09    1.286E-09    1.285E-09    1.282E-09    1.277E-09    1.270E-09    1.260E-09    1.249E-09    1.235E-09
     1.218E-09    1.199E-09    1.177E-09    1.153E-09    1.126E-09    1.096E-09    1.063E-09    1.027E-09    9.877E-10    9.457E-10
     9.006E-10    8.522E-10    8.007E-10    7.459E-10    6.877E-10    6.260E-10    5.610E-10    4.923E-10    4.201E-10    3.442E-10
     2.646E-10    1.813E-10    9.410E-11    3.027E-12   -9.199E-11   -1.910E-10   -2.941E-10   -4.013E-10   -5.126E-10   -6.278E-10
    -7.464E-10   -8.680E-10   -9.923E-10   -1.119E-09   -1.247E-09   -1.377E-09   -1.508E-09   -1.640E-09   -1.772E-09   -1.904E-09
    -2.035E-09   -2.166E-09   -2.295E-09   -2.423E-09   -2.548E-09   -2.671E-09   -2.792E-09   -2.909E-09   -3.022E-09   -3.132E-09
    -3.237E-09   -3.338E-09   -3.433E-09   -3.522E-09   -3.606E-09   -3.683E-09   -3.754E-09   -3.818E-09   -3.876E-09   -3.928E-09
    -3.973E-09   -4.013E-09   -4.047E-09   -4.075E-09   -4.098E-09   -4.116E-09   -4.129E-09   -4.136E-09   -4.139E-09   -4.138E-09
    -4.131E-09   -4.121E-09   -4.106E-09   -4.088E-09   -4.066E-09   -4.040E-09   -4.010E-09   -3.977E-09   -3.941E-09   -3.902E-09
    -3.861E-09   -3.816E-09   -3.769E-09   -3.720E-09   -3.668E-09   -3.614E-09   -3.559E-09   -3.501E-09   -3.443E-09   -3.382E-09
    -3.320E-09   -3.258E-09   -3.194E-09   -3.129E-09   -3.064E-09   -2.998E-09   -2.932E-09   -2.866E-09   -2.799E-09   -2.733E-09
    -2.667E-09   -2.601E-09   -2.536E-09   -2.472E-09   -2.409E-09   -2.346E-09   -2.285E-09   -2.225E-09   -2.166E-09   -2.109E-09
    -2.054E-09   -2.001E-09   -1.950E-09   -1.901E-09   -1.854E-09   -1.809E-09   -1.765E-09   -1.724E-09   -1.684E-09   -1.646E-09
    -1.610E-09   -1.576E-09   -1.543E-09   -1.512E-09   -1.482E-09   -1.454E-09   -1.428E-09   -1.403E-09   -1.379E-09   -1.357E-09
    -1.337E-09   -1.318E-09   -1.300E-09   -1.283E-09   -1.267E-09   -1.253E-09   -1.240E-09   -1.228E-09   -1.218E-09   -1.208E-09
    -1.199E-09   -1.192E-09   -1.185E-09   -1.179E-09   -1.174E-09   -1.170E-09   -1.167E-09   -1.164E-09   -1.163E-09   -1.161E-09
    -1.161E-09   -1.161E-09   -1.161E-09   -1.162E-09   -1.163E-09   -1.165E-09   -1.167E-09   -1.170E-09   -1.172E-09   -1.175E-09
    -1.178E-09   -1.182E-09   -1.185E-09   -1.188E-09   -1.191E-09   -1.195E-09   -1.198E-09   -1.201E-09   -1.204E-09   -1.207E-09
    -1.209E-09   -1.212E-09   -1.214E-09   -1.216E-09   -1.218E-09   -1.220E-09   -1.222E-09   -1.224E-09   -1.225E-09   -1.226E-09
    -1.228E-09   -1.229E-09   -1.230E-09   -1.230E-09   -1.231E-09   -1.232E-09   -1.232E-09   -1.232E-09   -1.232E-09   -1.232E-09
    -1.232E-09   -1.232E-09   -1.231E-09   -1.231E-09   -1.230E-09   -1.229E-09   -1.228E-09   -1.227E-09   -1.226E-09   -1.225E-09
    -1.223E-09   -1.222E-09   -1.220E-09   -1.219E-09   -1.217E-09   -1.215E-09   -1.213E-09   -1.211E-09   -1.209E-09   -1.207E-09
    -1.205E-09   -1.202E-09   -1.200E-09   -1.198E-09   -1.196E-09   -1.193E-09   -1.191E-09   -1.189E-09   -1.186E-09   -1.184E-09
    -1.181E-09   -1.179E-09   -1.177E-09
 Cr       Conc. = 4.92E-10
   2.27274E-09  1.98520E-09  1.49708E-09  1.03064E-09  9.11181E-10  8.66136E-10  8.44885E-10  8.34108E-10  8.28859E-10  8.26887E-10
   8.27022E-10  8.28598E-10  8.31213E-10  8.34611E-10  8.38628E-10  8.43160E-10  8.48145E-10  8.53556E-10  8.59394E-10  8.65694E-10
   8.72524E-10  8.80000E-10  8.88307E-10  8.97726E-10  9.08697E-10  9.21941E-10  9.38676E-10  9.61156E-10  9.94052E-10  1.04901E-09
   1.16623E-09  1.54119E-09  2.10119E-09  2.77522E-09  3.48521E-09  4.03343E-09  4.20997E-09  4.01423E-09  3.66252E-09  3.33896E-09
   2.99414E-09  2.39300E-09  1.54348E-09  1.15326E-09  1.03918E-09  9.88851E-10  9.61468E-10  9.44718E-10  9.33685E-10  9.26047E-10
   9.20569E-10  9.16537E-10  9.13521E-10  9.11240E-10  9.09518E-10  9.08216E-10  9.07254E-10  9.06574E-10  9.06125E-10  9.05874E-10
   9.05795E-10  9.05870E-10  9.06083E-10  9.06425E-10  9.06889E-10  9.07470E-10  9.08163E-10  9.08968E-10  9.09883E-10  9.10907E-10
   9.12042E-10  9.13290E-10  9.14651E-10  9.16129E-10  9.17723E-10  9.19440E-10  9.21281E-10  9.23247E-10  9.25345E-10  9.27578E-10
   9.29946E-10  9.32458E-10  9.35110E-10  9.37917E-10  9.40871E-10  9.43989E-10  9.47281E-10  9.50760E-10  9.54438E-10  9.58328E-10
   9.62446E-10  9.66801E-10  9.71410E-10  9.76283E-10  9.81435E-10  9.86877E-10  9.92625E-10  9.98691E-10  1.00509E-09  1.01183E-09
   1.01893E-09  1.02640E-09  1.03425E-09  1.04251E-09  1.05117E-09  1.06026E-09  1.06978E-09  1.07976E-09  1.09019E-09  1.10111E-09
   1.11252E-09  1.12443E-09  1.13685E-09  1.14973E-09  1.16295E-09  1.17641E-09  1.18999E-09  1.20359E-09  1.21709E-09  1.23038E-09
   1.24335E-09  1.25590E-09  1.26791E-09  1.27928E-09  1.28988E-09  1.29962E-09  1.30839E-09  1.31606E-09  1.32254E-09  1.32771E-09
   1.33146E-09  1.33369E-09  1.33427E-09  1.33311E-09  1.33010E-09  1.32511E-09  1.31805E-09  1.30881E-09  1.29726E-09  1.28332E-09
   1.26686E-09  1.24782E-09  1.22614E-09  1.20176E-09  1.17462E-09  1.14468E-09  1.11187E-09  1.07614E-09  1.03743E-09  9.95691E-10
   9.50875E-10  9.02927E-10  8.51803E-10  7.97459E-10  7.39858E-10  6.78967E-10  6.14769E-10  5.47256E-10  4.76454E-10  4.02421E-10
   3.25290E-10  2.45321E-10  1.63035E-10  7.95164E-11 -2.57023E-12 -7.48660E-11 -9.66118E-11 -3.91499E-11  5.72436E-11  1.75064E-10
   2.67184E-10  2.60649E-10  1.21087E-10 -1.05790E-10 -3.45685E-10 -5.79799E-10 -8.65817E-10 -1.24927E-09 -1.59576E-09 -1.78489E-09
  -1.94005E-09 -2.08336E-09 -2.22054E-09 -2.35349E-09 -2.48288E-09 -2.60886E-09 -2.73138E-09 -2.85022E-09 -2.96513E-09 -3.07578E-09
  -3.18187E-09 -3.28303E-09 -3.37890E-09 -3.46912E-09 -3.55331E-09 -3.63109E-09 -3.70221E-09 -3.76674E-09 -3.82487E-09 -3.87676E-09
  -3.92257E-09 -3.96247E-09 -3.99661E-09 -4.02517E-09 -4.04830E-09 -4.06617E-09 -4.07893E-09 -4.08675E-09 -4.08980E-09 -4.08823E-09
  -4.08219E-09 -4.07187E-09 -4.05740E-09 -4.03897E-09 -4.01671E-09 -3.99081E-09 -3.96141E-09 -3.92868E-09 -3.89277E-09 -3.85386E-09
  -3.81209E-09 -3.76763E-09 -3.72064E-09 -3.67128E-09 -3.61971E-09 -3.56608E-09 -3.51055E-09 -3.45326E-09 -3.39438E-09 -3.33406E-09
  -3.27246E-09 -3.20971E-09 -3.14599E-09 -3.08145E-09 -3.01622E-09 -2.95049E-09 -2.88438E-09 -2.81808E-09 -2.75170E-09 -2.68543E-09
  -2.61942E-09 -2.55380E-09 -2.48875E-09 -2.42441E-09 -2.36094E-09 -2.29848E-09 -2.23720E-09 -2.17725E-09 -2.11878E-09 -2.06196E-09
  -2.00691E-09 -1.95382E-09 -1.90275E-09 -1.85366E-09 -1.80652E-09 -1.76131E-09 -1.71798E-09 -1.67651E-09 -1.63684E-09 -1.59896E-09
  -1.56283E-09 -1.52840E-09 -1.49564E-09 -1.46453E-09 -1.43502E-09 -1.40709E-09 -1.38067E-09 -1.35577E-09 -1.33234E-09 -1.31033E-09
  -1.28971E-09 -1.27045E-09 -1.25251E-09 -1.23587E-09 -1.22048E-09 -1.20630E-09 -1.19332E-09 -1.18148E-09 -1.17075E-09 -1.16110E-09
  -1.15249E-09 -1.14488E-09 -1.13822E-09 -1.13246E-09 -1.12758E-09 -1.12351E-09 -1.12023E-09 -1.11768E-09 -1.11582E-09 -1.11461E-09
  -1.11401E-09 -1.11397E-09 -1.11445E-09 -1.11540E-09 -1.11679E-09 -1.11857E-09 -1.12069E-09 -1.12311E-09 -1.12580E-09 -1.12869E-09
  -1.13176E-09 -1.13496E-09 -1.13825E-09 -1.14158E-09 -1.14491E-09 -1.14819E-09 -1.15139E-09 -1.15446E-09 -1.15738E-09 -1.16016E-09
  -1.16280E-09 -1.16529E-09 -1.16765E-09 -1.16986E-09 -1.17192E-09 -1.17385E-09 -1.17564E-09 -1.17729E-09 -1.17879E-09 -1.18016E-09
  -1.18139E-09 -1.18248E-09 -1.18342E-09 -1.18424E-09 -1.18491E-09 -1.18545E-09 -1.18585E-09 -1.18611E-09 -1.18624E-09 -1.18623E-09
  -1.18609E-09 -1.18581E-09 -1.18540E-09 -1.18485E-09 -1.18417E-09 -1.18335E-09 -1.18241E-09 -1.18134E-09 -1.18016E-09 -1.17887E-09
  -1.17746E-09 -1.17596E-09 -1.17437E-09 -1.17268E-09 -1.17092E-09 -1.16907E-09 -1.16715E-09 -1.16517E-09 -1.16313E-09 -1.16103E-09
  -1.15888E-09 -1.15669E-09 -1.15447E-09 -1.15221E-09 -1.14992E-09 -1.14761E-09 -1.14529E-09 -1.14296E-09 -1.14062E-09 -1.13829E-09
  -1.13597E-09 -1.13366E-09 -1.13137E-09
 Gln      Conc. = 1.67E-09
   1.87043E-09  2.20700E-09  2.56407E-09  2.90915E-09  3.18091E-09  3.31769E-09  3.29357E-09  3.11902E-09  2.85394E-09  2.60933E-09
   2.25261E-09  1.83528E-09  1.64333E-09  1.39261E-09  1.24263E-09  1.17030E-09  1.12907E-09  1.10319E-09  1.08617E-09  1.07483E-09
   1.06739E-09  1.06270E-09  1.06004E-09  1.05896E-09  1.05930E-09  1.06086E-09  1.06301E-09  1.06576E-09  1.06919E-09  1.07295E-09
   1.07703E-09  1.08145E-09  1.08624E-09  1.09141E-09  1.09701E-09  1.10307E-09  1.10966E-09  1.11685E-09  1.12471E-09  1.13336E-09
   1.14297E-09  1.15372E-09  1.16592E-09  1.17990E-09  1.19602E-09  1.21477E-09  1.23675E-09  1.26250E-09  1.29349E-09  1.33188E-09
   1.37964E-09  1.44144E-09  1.52533E-09  1.64618E-09  1.84074E-09  2.16707E-09  2.55750E-09  3.01592E-09  3.59114E-09  4.12855E-09
   4.52306E-09  4.83152E-09  5.00304E-09  4.94267E-09  4.61660E-09  4.09115E-09  3.55116E-09  3.17280E-09  2.65301E-09  2.08060E-09
   1.86930E-09  1.85725E-09  1.87969E-09  2.05741E-09  2.36287E-09  2.80311E-09  3.24144E-09  3.63013E-09  3.96173E-09  4.19292E-09
   4.29962E-09  4.25957E-09  3.99094E-09  3.66388E-09  3.38932E-09  2.96201E-09  2.49975E-09  2.25707E-09  1.99548E-09  1.76212E-09
   1.62281E-09  1.53023E-09  1.46518E-09  1.41790E-09  1.38140E-09  1.35301E-09  1.33120E-09  1.31420E-09  1.30102E-09  1.29123E-09
   1.28413E-09  1.27911E-09  1.27592E-09  1.27437E-09  1.27438E-09  1.27584E-09  1.27851E-09  1.28228E-09  1.28710E-09  1.29291E-09
   1.29966E-09  1.30732E-09  1.31583E-09  1.32512E-09  1.33504E-09  1.34544E-09  1.35619E-09  1.36717E-09  1.37823E-09  1.38925E-09
   1.40012E-09  1.41069E-09  1.42086E-09  1.43050E-09  1.43950E-09  1.44772E-09  1.45506E-09  1.46141E-09  1.46663E-09  1.47063E-09
   1.47328E-09  1.47447E-09  1.47408E-09  1.47201E-09  1.46814E-09  1.46236E-09  1.45455E-09  1.44461E-09  1.43243E-09  1.41789E-09
   1.40088E-09  1.38135E-09  1.35923E-09  1.33446E-09  1.30700E-09  1.27678E-09  1.24377E-09  1.20789E-09  1.16912E-09  1.12740E-09
   1.08270E-09  1.03497E-09  9.84201E-10  9.30361E-10  8.73447E-10  8.13468E-10  7.50463E-10  6.84500E-10  6.15709E-10  5.44297E-10
   4.70615E-10  3.95249E-10  3.19224E-10  2.44411E-10  1.74641E-10  1.18977E-10  1.05466E-10  2.68393E-10  7.11859E-10  1.29823E-09
   1.96816E-09  2.56362E-09  2.83676E-09  2.66578E-09  2.20026E-09  1.69180E-09  1.20787E-09  5.56116E-10 -4.23663E-10 -1.29346E-09
  -1.62329E-09 -1.83604E-09 -2.00953E-09 -2.16452E-09 -2.30855E-09 -2.44491E-09 -2.57511E-09 -2.69984E-09 -2.81939E-09 -2.93379E-09
  -3.04295E-09 -3.14667E-09 -3.24472E-09 -3.33680E-09 -3.42259E-09 -3.50179E-09 -3.57414E-09 -3.63978E-09 -3.69889E-09 -3.75166E-09
  -3.79827E-09 -3.83890E-09 -3.87371E-09 -3.90287E-09 -3.92657E-09 -3.94495E-09 -3.95820E-09 -3.96648E-09 -3.96994E-09 -3.96876E-09
  -3.96310E-09 -3.95313E-09 -3.93899E-09 -3.92087E-09 -3.89891E-09 -3.87329E-09 -3.84416E-09 -3.81168E-09 -3.77602E-09 -3.73734E-09
  -3.69580E-09 -3.65155E-09 -3.60477E-09 -3.55561E-09 -3.50423E-09 -3.45079E-09 -3.39543E-09 -3.33832E-09 -3.27961E-09 -3.21945E-09
