 LCModel (Version 6.3-1R) Copyright: S.W. Provencher.          Ref.: Magn. Reson. Med. 30:672-679 (1993).                
 onepulse 21x25_ftSpec_smooth_lcm
 26 lines in following concentration table = NCONC+1
    Conc.  %SD /Cr+PCr  Metabolite                                         
 5.43E-11 386%   1.679 Ala                                                 
 3.62E-10 144%  11.181 Asp                                                 
    0.000 999%   0.000 Cr                                                  
 2.63E-09  17%  81.168 GABA                                                
 1.96E-09  18%  60.431 Glc                                                 
    0.000 999%   0.000 Gln                                                 
    0.000 999%   0.000 Glu                                                 
    0.000 999%   0.000 Glyc                                                
    0.000 999%   0.000 GPC                                                 
    0.000 999%   0.000 GSH                                                 
 3.92E-10  65%  12.108 Ins                                                 
    0.000 999%   0.000 Lac                                                 
    0.000 999%   0.000 NAAG                                                
 1.38E-09  12%  42.478 NAA                                                 
 1.19E-10  46%   3.661 PCh                                                 
 3.24E-11 643%   1.000 PCr                                                 
    0.000 999%   0.000 PE                                                  
    0.000 999%   0.000 Scyllo                                              
 7.41E-10  85%  22.895 Ser                                                 
    0.000 999%   0.000 Tau                                                 
 1.19E-10  46%   3.661 GPC+PCh                                             
 1.38E-09  12%  42.478 NAA+NAAG                                            
 3.92E-10  65%  12.108 Ins+Glyc                                            
 3.24E-11 643%   1.000 Cr+PCr                                              
    0.000 999%   0.000 Glu+Gln                                             
   6 lines in following misc. output table
  FWHM = 0.078 ppm    S/N =   4                                            
  Data shift = 0.335 ppm                                                   
  Ph:  40 deg      20.1 deg/ppm                                            
  alphaB,S = 1.6E-01,   7.6E+01                                            
   16 spline knots.   Ns = 5(1)                                            
  ( 7) 2 infls.   ( 5) 1 extrs.                                            
  363 points on ppm-axis = NY
      4.250000     4.238821     4.227641     4.216462     4.205282     4.194103     4.182923     4.171744     4.160564     4.149385
      4.138206     4.127026     4.115847     4.104667     4.093488     4.082308     4.071129     4.059949     4.048770     4.037591
      4.026411     4.015232     4.004052     3.992873     3.981693     3.970514     3.959334     3.948155     3.936975     3.925796
      3.914617     3.903437     3.892258     3.881078     3.869899     3.858719     3.847540     3.836360     3.825181     3.814002
      3.802822     3.791643     3.780463     3.769284     3.758104     3.746925     3.735745     3.724566     3.713387     3.702207
      3.691028     3.679848     3.668669     3.657489     3.646310     3.635130     3.623951     3.612772     3.601592     3.590413
      3.579233     3.568054     3.556874     3.545695     3.534515     3.523336     3.512156     3.500977     3.489798     3.478618
      3.467439     3.456259     3.445080     3.433900     3.422721     3.411541     3.400362     3.389183     3.378003     3.366824
      3.355644     3.344465     3.333285     3.322106     3.310926     3.299747     3.288568     3.277388     3.266209     3.255029
      3.243850     3.232670     3.221491     3.210311     3.199132     3.187953     3.176773     3.165594     3.154414     3.143235
      3.132055     3.120876     3.109696     3.098517     3.087337     3.076158     3.064979     3.053799     3.042620     3.031440
      3.020261     3.009081     2.997902     2.986722     2.975543     2.964364     2.953184     2.942005     2.930825     2.919646
      2.908466     2.897287     2.886107     2.874928     2.863749     2.852569     2.841390     2.830210     2.819031     2.807851
      2.796672     2.785492     2.774313     2.763134     2.751954     2.740775     2.729595     2.718416     2.707236     2.696057
      2.684877     2.673698     2.662519     2.651339     2.640160     2.628980     2.617801     2.606621     2.595442     2.584262
      2.573083     2.561903     2.550724     2.539545     2.528365     2.517186     2.506006     2.494827     2.483647     2.472468
      2.461288     2.450109     2.438930     2.427750     2.416571     2.405391     2.394212     2.383032     2.371853     2.360673
      2.349494     2.338315     2.327135     2.315956     2.304776     2.293597     2.282417     2.271238     2.260058     2.248879
      2.237700     2.226520     2.215341     2.204161     2.192982     2.181802     2.170623     2.159443     2.148264     2.137084
      2.125905     2.114726     2.103546     2.092367     2.081187     2.070008     2.058828     2.047649     2.036469     2.025290
      2.014111     2.002931     1.991752     1.980572     1.969393     1.958213     1.947034     1.935854     1.924675     1.913496
      1.902316     1.891137     1.879957     1.868778     1.857598     1.846419     1.835239     1.824060     1.812881     1.801701
      1.790522     1.779342     1.768163     1.756983     1.745804     1.734624     1.723445     1.712265     1.701086     1.689907
      1.678727     1.667548     1.656368     1.645189     1.634009     1.622830     1.611650     1.600471     1.589292     1.578112
      1.566933     1.555753     1.544574     1.533394     1.522215     1.511035     1.499856     1.488677     1.477497     1.466318
      1.455138     1.443959     1.432779     1.421600     1.410420     1.399241     1.388062     1.376882     1.365703     1.354523
      1.343344     1.332164     1.320985     1.309805     1.298626     1.287446     1.276267     1.265088     1.253908     1.242729
      1.231549     1.220370     1.209190     1.198011     1.186831     1.175652     1.164473     1.153293     1.142114     1.130934
      1.119755     1.108575     1.097396     1.086216     1.075037     1.063858     1.052678     1.041499     1.030319     1.019140
      1.007960     0.996781     0.985601     0.974422     0.963243     0.952063     0.940884     0.929704     0.918525     0.907345
      0.896166     0.884986     0.873807     0.862628     0.851448     0.840269     0.829089     0.817910     0.806730     0.795551
      0.784371     0.773192     0.762012     0.750833     0.739654     0.728474     0.717295     0.706115     0.694936     0.683756
      0.672577     0.661397     0.650218     0.639039     0.627859     0.616680     0.605500     0.594321     0.583141     0.571962
      0.560782     0.549603     0.538424     0.527244     0.516065     0.504885     0.493706     0.482526     0.471347     0.460167
      0.448988     0.437809     0.426629     0.415450     0.404270     0.393091     0.381911     0.370732     0.359552     0.348373
      0.337193     0.326014     0.314835     0.303655     0.292476     0.281296     0.270117     0.258937     0.247758     0.236578
      0.225399     0.214220     0.203040
 NY phased data points follow
   8.34724E-09  1.09481E-08  1.34492E-08  1.45745E-08  1.32521E-08  1.21480E-08  1.03485E-08  9.15361E-09  9.38554E-09  8.24432E-09
   8.49184E-09  8.37109E-09  9.12604E-09  9.40721E-09  9.42347E-09  1.03070E-08  1.07557E-08  1.14033E-08  1.07873E-08  1.05048E-08
   1.02836E-08  1.06961E-08  9.59521E-09  8.92007E-09  8.86042E-09  8.54799E-09  9.79553E-09  1.00797E-08  1.02590E-08  8.86831E-09
   8.20228E-09  7.75892E-09  9.15499E-09  9.96899E-09  1.19158E-08  1.29975E-08  1.13989E-08  1.02201E-08  8.99701E-09  8.09879E-09
   7.28586E-09  6.98349E-09  7.00260E-09  6.20535E-09  6.33703E-09  6.35081E-09  6.18537E-09  5.05449E-09  4.83191E-09  4.33986E-09
   4.20483E-09  4.43020E-09  4.36010E-09  4.80493E-09  5.38732E-09  4.65975E-09  3.71610E-09  3.42368E-09  3.47558E-09  3.66758E-09
   4.20900E-09  5.29058E-09  5.48802E-09  6.09319E-09  8.51738E-09  9.89909E-09  1.13917E-08  9.91315E-09  8.51226E-09  7.13621E-09
   5.83741E-09  5.26135E-09  4.88560E-09  3.93813E-09  3.69771E-09  3.77161E-09  3.14914E-09  2.85463E-09  3.16976E-09  4.57608E-09
   8.37863E-09  1.26001E-08  1.53824E-08  1.51338E-08  1.27189E-08  1.11527E-08  9.47232E-09  8.49545E-09  8.05098E-09  7.55967E-09
   7.51885E-09  6.93150E-09  6.43319E-09  6.14078E-09  5.01547E-09  4.80048E-09  4.61392E-09  3.67336E-09  3.36351E-09  3.33857E-09
   2.87458E-09  3.13093E-09  3.03355E-09  3.19216E-09  3.86147E-09  3.08910E-09  3.23125E-09  3.30479E-09  3.17526E-09  2.63966E-09
   1.75662E-09  1.54665E-09  1.18658E-09  7.97484E-10  1.81212E-09  2.42531E-09  2.65970E-09  2.11075E-09  2.32979E-09  3.17707E-09
   2.88194E-09  2.64859E-09  2.71938E-09  2.59389E-09  1.95959E-09  1.25669E-09  6.89424E-10  2.80978E-10  6.82982E-10  7.83857E-10
   1.18400E-09  1.45074E-09  1.41505E-09  1.33820E-09  1.72955E-09  1.85284E-09  2.07116E-09  1.16498E-09  1.52159E-09  1.15262E-09
   2.34284E-09  3.36719E-09  3.74361E-09  3.73339E-09  3.46870E-09  2.68525E-09  3.70505E-09  4.33509E-09  3.74607E-09  4.10145E-09
   3.67493E-09  3.54451E-09  3.03856E-09  3.19925E-09  2.84366E-09  2.42277E-09  2.29588E-09  3.06709E-09  2.85734E-09  2.82081E-09
   3.86413E-09  3.15743E-09  3.90913E-09  3.79083E-09  4.58966E-09  5.15683E-09  4.90584E-09  5.36711E-09  6.44213E-09  7.11491E-09
   9.50505E-09  1.26762E-08  1.70371E-08  1.90178E-08  1.62635E-08  1.24343E-08  9.86258E-09  7.60344E-09  6.30281E-09  5.27692E-09
   4.02051E-09  3.41045E-09  2.47885E-09  2.35142E-09  3.94888E-10  1.43453E-10 -5.35808E-10 -1.38791E-09 -2.16139E-09 -3.46469E-09
  -3.96226E-09 -5.17931E-09 -5.42924E-09 -7.05777E-09 -8.20219E-09 -8.91563E-09 -1.00052E-08 -1.01725E-08 -1.12326E-08 -1.18870E-08
  -1.19106E-08 -1.22732E-08 -1.21520E-08 -1.18964E-08 -1.11970E-08 -1.09470E-08 -9.84187E-09 -8.95977E-09 -8.07097E-09 -6.53470E-09
  -5.66021E-09 -5.22144E-09 -3.93449E-09 -3.42199E-09 -2.24704E-09 -1.77508E-09 -1.15074E-09 -6.71524E-10 -6.48477E-10 -3.56274E-10
  -9.05518E-10 -1.38589E-09 -1.22005E-09 -1.26658E-09 -1.47499E-09 -1.07739E-09 -1.27496E-09 -1.27114E-09 -1.16075E-09 -1.04268E-09
  -8.47193E-10 -1.25454E-09 -1.03759E-09 -9.79916E-10 -1.44859E-09 -1.90054E-09 -1.61952E-09 -8.02929E-10 -1.27532E-09 -1.14532E-09
  -5.83733E-10 -9.04112E-10 -8.45916E-10 -9.31476E-10 -1.23967E-09 -1.05695E-09 -1.25539E-09 -1.58535E-09 -1.09157E-09 -1.16447E-09
  -1.06842E-09 -5.57714E-10 -4.98279E-10 -6.85415E-10 -4.47079E-10 -3.78189E-10 -4.20558E-10 -4.21691E-10 -8.21609E-10 -8.24059E-10
  -1.21642E-09 -1.96392E-09 -1.22449E-09 -1.81293E-09 -1.55978E-09 -1.67185E-09 -8.81544E-10 -1.09574E-09 -9.51242E-10  3.43477E-10
  -1.15456E-10 -3.12611E-10  2.49498E-10 -2.00737E-10  4.38025E-10  2.40177E-10  2.17390E-11 -1.72927E-10 -2.09840E-10 -6.86588E-10
  -6.91182E-10 -7.47541E-10 -9.80680E-10 -1.35583E-09 -1.09044E-09 -1.16260E-09 -7.74263E-10 -1.36093E-09 -6.44668E-10 -1.38409E-09
  -8.87203E-10 -8.44723E-10 -1.04063E-09 -1.11649E-09 -8.16723E-10 -6.65078E-10 -1.08245E-09 -6.81809E-10 -3.56626E-10 -4.09316E-10
  -8.46679E-10 -5.51614E-10 -1.04774E-09 -1.46949E-10 -8.61685E-10 -3.25936E-10 -4.56792E-10 -4.26042E-10 -5.50434E-10 -3.16611E-10
  -5.70176E-10 -6.06056E-10  1.35893E-11 -2.97474E-10 -5.00824E-10 -1.13393E-10 -5.61328E-10 -7.81256E-12  2.35659E-10 -3.10022E-10
  -1.14167E-10  1.10605E-10 -1.73272E-10 -1.48984E-11  6.82547E-11  4.40190E-11 -2.03209E-10 -7.76881E-11  3.25472E-10  3.12534E-11
  -2.08739E-10 -1.13262E-10  2.39131E-10 -3.06585E-10  1.75843E-10  2.53630E-10  2.72565E-10 -7.51363E-10 -3.95600E-11  2.31827E-11
   6.49769E-10  2.64753E-10 -3.47563E-10  1.46127E-10  5.20253E-11  6.91481E-11  2.20084E-10  7.30972E-11  1.95295E-10  2.52203E-11
  -6.77134E-11 -8.02511E-13  5.62159E-10  2.11294E-10  3.46856E-11  4.22006E-10 -7.40440E-11  4.92099E-10  2.42283E-10  1.46786E-10
   1.07824E-10  2.32546E-10 -3.02046E-11
 NY points of the fit to the data follow
   1.14114E-08  1.15920E-08  1.17560E-08  1.19118E-08  1.18024E-08  1.13316E-08  1.05822E-08  9.80005E-09  9.22407E-09  8.77465E-09
   8.63640E-09  8.72072E-09  8.92332E-09  9.21369E-09  9.56126E-09  9.92851E-09  1.03536E-08  1.08683E-08  1.13358E-08  1.16188E-08
   1.16978E-08  1.13766E-08  1.06227E-08  9.72567E-09  8.91589E-09  8.31354E-09  8.12628E-09  8.44773E-09  8.96193E-09  9.43274E-09
   9.60826E-09  9.65471E-09  9.79842E-09  9.85646E-09  9.83247E-09  1.00346E-08  1.02929E-08  1.02830E-08  9.89576E-09  9.23470E-09
   8.48828E-09  7.69364E-09  6.63398E-09  5.77570E-09  5.35091E-09  4.94337E-09  4.62282E-09  4.55970E-09  4.59996E-09  4.62996E-09
   4.62774E-09  4.59065E-09  4.57285E-09  4.57144E-09  4.59756E-09  4.65235E-09  4.70239E-09  4.69990E-09  4.61379E-09  4.51369E-09
   4.56580E-09  4.86975E-09  5.32988E-09  5.88495E-09  6.73166E-09  7.54230E-09  8.13697E-09  8.60617E-09  8.90461E-09  8.87543E-09
   8.48003E-09  7.69798E-09  6.74227E-09  5.92233E-09  5.05344E-09  4.24884E-09  4.12833E-09  4.73826E-09  5.67691E-09  7.16005E-09
   9.09925E-09  1.11549E-08  1.29073E-08  1.37468E-08  1.33889E-08  1.21970E-08  1.05353E-08  8.61761E-09  6.91267E-09  6.37651E-09
   6.20108E-09  6.10648E-09  5.84206E-09  5.36919E-09  5.02239E-09  4.67056E-09  4.15843E-09  3.77780E-09  3.51773E-09  3.26255E-09
   3.08165E-09  2.96619E-09  2.89508E-09  2.86241E-09  2.84831E-09  2.83861E-09  2.82567E-09  2.80588E-09  2.77667E-09  2.73395E-09
   2.67817E-09  2.62247E-09  2.58241E-09  2.53764E-09  2.49712E-09  2.47969E-09  2.47023E-09  2.46431E-09  2.46031E-09  2.45741E-09
   2.45510E-09  2.45302E-09  2.45089E-09  2.44845E-09  2.44553E-09  2.44194E-09  2.43751E-09  2.43213E-09  2.42565E-09  2.41795E-09
   2.40891E-09  2.39841E-09  2.38634E-09  2.37260E-09  2.35707E-09  2.33967E-09  2.32029E-09  2.29884E-09  2.27523E-09  2.24938E-09
   2.22120E-09  2.19062E-09  2.15758E-09  2.12204E-09  2.08395E-09  2.04329E-09  2.00002E-09  1.95412E-09  1.90557E-09  1.85440E-09
   1.80063E-09  1.74432E-09  1.68557E-09  1.62454E-09  1.56142E-09  1.49653E-09  1.43032E-09  1.36342E-09  1.29681E-09  1.23190E-09
   1.17096E-09  1.11768E-09  1.07849E-09  1.06577E-09  1.10708E-09  1.28200E-09  1.93338E-09  3.48799E-09  5.74555E-09  8.57360E-09
   1.18906E-08  1.51629E-08  1.74557E-08  1.79303E-08  1.63772E-08  1.32420E-08  9.17859E-09  4.85782E-09  1.41857E-09 -2.09834E-10
  -8.67867E-10 -1.26208E-09 -1.55234E-09 -1.78974E-09 -1.99569E-09 -2.18063E-09 -2.35017E-09 -2.50747E-09 -2.65436E-09 -2.79190E-09
  -2.92068E-09 -3.04097E-09 -3.15285E-09 -3.25625E-09 -3.35100E-09 -3.43689E-09 -3.51377E-09 -3.58193E-09 -3.64172E-09 -3.69347E-09
  -3.73750E-09 -3.77411E-09 -3.80358E-09 -3.82619E-09 -3.84223E-09 -3.85196E-09 -3.85565E-09 -3.85355E-09 -3.84592E-09 -3.83303E-09
  -3.81511E-09 -3.79244E-09 -3.76524E-09 -3.73378E-09 -3.69830E-09 -3.65905E-09 -3.61627E-09 -3.57021E-09 -3.52112E-09 -3.46923E-09
  -3.41479E-09 -3.35804E-09 -3.29923E-09 -3.23860E-09 -3.17636E-09 -3.11267E-09 -3.04765E-09 -2.98145E-09 -2.91422E-09 -2.84610E-09
  -2.77723E-09 -2.70774E-09 -2.63779E-09 -2.56752E-09 -2.49704E-09 -2.42653E-09 -2.35611E-09 -2.28592E-09 -2.21610E-09 -2.14681E-09
  -2.07817E-09 -2.01033E-09 -1.94342E-09 -1.87760E-09 -1.81299E-09 -1.74973E-09 -1.68798E-09 -1.62785E-09 -1.56952E-09 -1.51310E-09
  -1.45873E-09 -1.40658E-09 -1.35667E-09 -1.30895E-09 -1.26336E-09 -1.21984E-09 -1.17831E-09 -1.13872E-09 -1.10099E-09 -1.06507E-09
  -1.03088E-09 -9.98365E-10 -9.67457E-10 -9.38085E-10 -9.10192E-10 -8.83708E-10 -8.58555E-10 -8.34695E-10 -8.12049E-10 -7.90544E-10
  -7.70117E-10 -7.50714E-10 -7.32254E-10 -7.14678E-10 -6.97931E-10 -6.81923E-10 -6.66615E-10 -6.51926E-10 -6.37798E-10 -6.24157E-10
  -6.10965E-10 -5.98200E-10 -5.85834E-10 -5.73840E-10 -5.62204E-10 -5.50891E-10 -5.39885E-10 -5.29156E-10 -5.18682E-10 -5.08443E-10
  -4.98408E-10 -4.88557E-10 -4.78865E-10 -4.69307E-10 -4.59862E-10 -4.50501E-10 -4.41204E-10 -4.31945E-10 -4.22704E-10 -4.13446E-10
  -4.04161E-10 -3.94815E-10 -3.85385E-10 -3.75854E-10 -3.66191E-10 -3.56372E-10 -3.46378E-10 -3.36178E-10 -3.25780E-10 -3.15192E-10
  -3.04427E-10 -2.93497E-10 -2.82416E-10 -2.71192E-10 -2.59842E-10 -2.48376E-10 -2.36806E-10 -2.25144E-10 -2.13405E-10 -2.01596E-10
  -1.89737E-10 -1.77832E-10 -1.65896E-10 -1.53946E-10 -1.41987E-10 -1.30038E-10 -1.18106E-10 -1.06204E-10 -9.43473E-11 -8.25482E-11
  -7.08134E-11 -5.91601E-11 -4.75980E-11 -3.61422E-11 -2.48041E-11 -1.35905E-11 -2.50422E-12  8.46012E-12  1.93099E-11  3.00496E-11
   4.06850E-11  5.12224E-11  6.16667E-11  7.20238E-11  8.22972E-11  9.24967E-11  1.02622E-10  1.12683E-10  1.22684E-10  1.32631E-10
   1.42529E-10  1.52383E-10  1.62200E-10  1.71984E-10  1.81741E-10  1.91477E-10  2.01197E-10  2.10908E-10  2.20614E-10  2.30320E-10
   2.40032E-10  2.49755E-10  2.59498E-10
 NY background values follow
     2.492E-09    2.469E-09    2.446E-09    2.423E-09    2.400E-09    2.377E-09    2.354E-09    2.331E-09    2.308E-09    2.285E-09
     2.262E-09    2.239E-09    2.216E-09    2.193E-09    2.171E-09    2.148E-09    2.125E-09    2.103E-09    2.080E-09    2.057E-09
     2.035E-09    2.012E-09    1.990E-09    1.967E-09    1.944E-09    1.922E-09    1.899E-09    1.877E-09    1.854E-09    1.832E-09
     1.810E-09    1.787E-09    1.765E-09    1.743E-09    1.721E-09    1.699E-09    1.677E-09    1.656E-09    1.634E-09    1.613E-09
     1.593E-09    1.572E-09    1.552E-09    1.532E-09    1.513E-09    1.494E-09    1.475E-09    1.457E-09    1.440E-09    1.422E-09
     1.406E-09    1.390E-09    1.374E-09    1.359E-09    1.345E-09    1.331E-09    1.318E-09    1.305E-09    1.293E-09    1.282E-09
     1.272E-09    1.262E-09    1.253E-09    1.245E-09    1.237E-09    1.230E-09    1.223E-09    1.217E-09    1.212E-09    1.208E-09
     1.204E-09    1.201E-09    1.198E-09    1.197E-09    1.195E-09    1.195E-09    1.195E-09    1.196E-09    1.197E-09    1.200E-09
     1.202E-09    1.206E-09    1.210E-09    1.215E-09    1.220E-09    1.227E-09    1.233E-09    1.241E-09    1.249E-09    1.257E-09
     1.266E-09    1.276E-09    1.285E-09    1.296E-09    1.306E-09    1.317E-09    1.329E-09    1.340E-09    1.352E-09    1.364E-09
     1.377E-09    1.389E-09    1.402E-09    1.415E-09    1.428E-09    1.441E-09    1.454E-09    1.467E-09    1.480E-09    1.493E-09
     1.506E-09    1.518E-09    1.531E-09    1.544E-09    1.556E-09    1.567E-09    1.579E-09    1.589E-09    1.599E-09    1.609E-09
     1.617E-09    1.625E-09    1.631E-09    1.637E-09    1.641E-09    1.644E-09    1.645E-09    1.645E-09    1.644E-09    1.641E-09
     1.636E-09    1.629E-09    1.621E-09    1.610E-09    1.598E-09    1.583E-09    1.566E-09    1.547E-09    1.525E-09    1.500E-09
     1.473E-09    1.444E-09    1.411E-09    1.376E-09    1.338E-09    1.296E-09    1.252E-09    1.205E-09    1.154E-09    1.101E-09
     1.043E-09    9.829E-10    9.189E-10    8.515E-10    7.804E-10    7.056E-10    6.271E-10    5.448E-10    4.587E-10    3.686E-10
     2.744E-10    1.762E-10    7.384E-11   -3.276E-11   -1.436E-10   -2.589E-10   -3.786E-10   -5.027E-10   -6.314E-10   -7.643E-10
    -9.008E-10   -1.041E-09   -1.183E-09   -1.328E-09   -1.474E-09   -1.623E-09   -1.771E-09   -1.921E-09   -2.070E-09   -2.219E-09
    -2.367E-09   -2.514E-09   -2.659E-09   -2.801E-09   -2.941E-09   -3.077E-09   -3.210E-09   -3.339E-09   -3.463E-09   -3.582E-09
    -3.695E-09   -3.803E-09   -3.904E-09   -3.998E-09   -4.085E-09   -4.163E-09   -4.234E-09   -4.297E-09   -4.352E-09   -4.399E-09
    -4.439E-09   -4.472E-09   -4.498E-09   -4.518E-09   -4.531E-09   -4.538E-09   -4.540E-09   -4.536E-09   -4.526E-09   -4.511E-09
    -4.491E-09   -4.467E-09   -4.438E-09   -4.406E-09   -4.369E-09   -4.328E-09   -4.284E-09   -4.237E-09   -4.187E-09   -4.134E-09
    -4.078E-09   -4.021E-09   -3.961E-09   -3.899E-09   -3.836E-09   -3.772E-09   -3.706E-09   -3.639E-09   -3.571E-09   -3.502E-09
    -3.432E-09   -3.362E-09   -3.292E-09   -3.221E-09   -3.150E-09   -3.079E-09   -3.008E-09   -2.937E-09   -2.866E-09   -2.797E-09
    -2.727E-09   -2.659E-09   -2.592E-09   -2.525E-09   -2.460E-09   -2.397E-09   -2.334E-09   -2.274E-09   -2.215E-09   -2.158E-09
    -2.103E-09   -2.051E-09   -2.000E-09   -1.952E-09   -1.906E-09   -1.862E-09   -1.820E-09   -1.780E-09   -1.742E-09   -1.706E-09
    -1.671E-09   -1.639E-09   -1.607E-09   -1.578E-09   -1.549E-09   -1.522E-09   -1.497E-09   -1.473E-09   -1.450E-09   -1.428E-09
    -1.407E-09   -1.387E-09   -1.369E-09   -1.351E-09   -1.334E-09   -1.317E-09   -1.302E-09   -1.287E-09   -1.272E-09   -1.258E-09
    -1.245E-09   -1.232E-09   -1.219E-09   -1.207E-09   -1.195E-09   -1.183E-09   -1.172E-09   -1.161E-09   -1.150E-09   -1.140E-09
    -1.129E-09   -1.119E-09   -1.109E-09   -1.099E-09   -1.090E-09   -1.080E-09   -1.070E-09   -1.061E-09   -1.051E-09   -1.042E-09
    -1.032E-09   -1.022E-09   -1.013E-09   -1.003E-09   -9.930E-10   -9.829E-10   -9.726E-10   -9.621E-10   -9.514E-10   -9.405E-10
    -9.295E-10   -9.183E-10   -9.069E-10   -8.954E-10   -8.838E-10   -8.720E-10   -8.602E-10   -8.482E-10   -8.362E-10   -8.241E-10
    -8.119E-10   -7.998E-10   -7.875E-10   -7.753E-10   -7.630E-10   -7.508E-10   -7.386E-10   -7.264E-10   -7.143E-10   -7.022E-10
    -6.901E-10   -6.782E-10   -6.663E-10   -6.546E-10   -6.430E-10   -6.315E-10   -6.201E-10   -6.088E-10   -5.977E-10   -5.866E-10
    -5.757E-10   -5.649E-10   -5.541E-10   -5.435E-10   -5.329E-10   -5.224E-10   -5.120E-10   -5.016E-10   -4.913E-10   -4.810E-10
    -4.708E-10   -4.607E-10   -4.505E-10   -4.404E-10   -4.304E-10   -4.203E-10   -4.103E-10   -4.003E-10   -3.902E-10   -3.802E-10
    -3.702E-10   -3.601E-10   -3.501E-10
 Ala      Conc. = 5.43E-11
   2.52974E-09  2.51127E-09  2.49156E-09  2.47070E-09  2.44859E-09  2.42544E-09  2.40043E-09  2.37259E-09  2.34526E-09  2.31883E-09
   2.28950E-09  2.26093E-09  2.23499E-09  2.20867E-09  2.18284E-09  2.15822E-09  2.13424E-09  2.11064E-09  2.08730E-09  2.06413E-09
   2.04109E-09  2.01815E-09  1.99530E-09  1.97251E-09  1.94977E-09  1.92708E-09  1.90443E-09  1.88181E-09  1.85923E-09  1.83667E-09
   1.81417E-09  1.79174E-09  1.76940E-09  1.74719E-09  1.72511E-09  1.70319E-09  1.68147E-09  1.65995E-09  1.63866E-09  1.61763E-09
   1.59688E-09  1.57642E-09  1.55630E-09  1.53652E-09  1.51711E-09  1.49809E-09  1.47950E-09  1.46135E-09  1.44365E-09  1.42645E-09
   1.40977E-09  1.39361E-09  1.37802E-09  1.36300E-09  1.34862E-09  1.33483E-09  1.32170E-09  1.30924E-09  1.29745E-09  1.28633E-09
   1.27588E-09  1.26610E-09  1.25699E-09  1.24854E-09  1.24076E-09  1.23366E-09  1.22722E-09  1.22145E-09  1.21634E-09  1.21191E-09
   1.20814E-09  1.20505E-09  1.20262E-09  1.20087E-09  1.19978E-09  1.19936E-09  1.19962E-09  1.20054E-09  1.20214E-09  1.20442E-09
   1.20737E-09  1.21100E-09  1.21530E-09  1.22030E-09  1.22597E-09  1.23232E-09  1.23933E-09  1.24697E-09  1.25522E-09  1.26407E-09
   1.27351E-09  1.28353E-09  1.29414E-09  1.30537E-09  1.31726E-09  1.32992E-09  1.34355E-09  1.35858E-09  1.37602E-09  1.39911E-09
   1.43379E-09  1.47161E-09  1.51535E-09  1.57215E-09  1.62979E-09  1.67887E-09  1.71477E-09  1.73617E-09  1.74220E-09  1.72999E-09
   1.70105E-09  1.66906E-09  1.64996E-09  1.62379E-09  1.59981E-09  1.59715E-09  1.60106E-09  1.60730E-09  1.61437E-09  1.62155E-09
   1.62846E-09  1.63480E-09  1.64038E-09  1.64506E-09  1.64867E-09  1.65111E-09  1.65227E-09  1.65202E-09  1.65029E-09  1.64695E-09
   1.64192E-09  1.63510E-09  1.62640E-09  1.61572E-09  1.60297E-09  1.58806E-09  1.57090E-09  1.55140E-09  1.52947E-09  1.50500E-09
   1.47792E-09  1.44815E-09  1.41563E-09  1.38027E-09  1.34201E-09  1.30079E-09  1.25653E-09  1.20916E-09  1.15861E-09  1.10481E-09
   1.04770E-09  9.87207E-10  9.23261E-10  8.55794E-10  7.84740E-10  7.10028E-10  6.31598E-10  5.49379E-10  4.63315E-10  3.73340E-10
   2.79402E-10  1.81455E-10  7.94834E-11 -2.65157E-11 -1.36418E-10 -2.49791E-10 -3.64550E-10 -4.75251E-10 -5.86291E-10 -6.97295E-10
  -8.07763E-10 -9.21647E-10 -1.04607E-09 -1.18727E-09 -1.34586E-09 -1.51711E-09 -1.69547E-09 -1.87621E-09 -2.05079E-09 -2.20703E-09
  -2.35799E-09 -2.50619E-09 -2.65195E-09 -2.79509E-09 -2.93527E-09 -3.07211E-09 -3.20518E-09 -3.33405E-09 -3.45825E-09 -3.57736E-09
  -3.69090E-09 -3.79844E-09 -3.89950E-09 -3.99363E-09 -4.08037E-09 -4.15926E-09 -4.22998E-09 -4.29270E-09 -4.34763E-09 -4.39504E-09
  -4.43515E-09 -4.46820E-09 -4.49445E-09 -4.51411E-09 -4.52744E-09 -4.53468E-09 -4.53606E-09 -4.53182E-09 -4.52221E-09 -4.50746E-09
  -4.48781E-09 -4.46351E-09 -4.43478E-09 -4.40188E-09 -4.36504E-09 -4.32450E-09 -4.28050E-09 -4.23327E-09 -4.18307E-09 -4.13013E-09
  -4.07468E-09 -4.01697E-09 -3.95723E-09 -3.89571E-09 -3.83262E-09 -3.76811E-09 -3.70230E-09 -3.63534E-09 -3.56737E-09 -3.49854E-09
  -3.42898E-09 -3.35883E-09 -3.28823E-09 -3.21732E-09 -3.14624E-09 -3.07513E-09 -3.00413E-09 -2.93338E-09 -2.86301E-09 -2.79318E-09
  -2.72402E-09 -2.65566E-09 -2.58826E-09 -2.52195E-09 -2.45685E-09 -2.39313E-09 -2.33091E-09 -2.27034E-09 -2.21155E-09 -2.15471E-09
  -2.09991E-09 -2.04733E-09 -1.99700E-09 -1.94888E-09 -1.90288E-09 -1.85897E-09 -1.81705E-09 -1.77707E-09 -1.73897E-09 -1.70267E-09
  -1.66811E-09 -1.63523E-09 -1.60396E-09 -1.57423E-09 -1.54598E-09 -1.51915E-09 -1.49365E-09 -1.46945E-09 -1.44646E-09 -1.42462E-09
  -1.40386E-09 -1.38413E-09 -1.36534E-09 -1.34744E-09 -1.33037E-09 -1.31405E-09 -1.29842E-09 -1.28342E-09 -1.26897E-09 -1.25502E-09
  -1.24152E-09 -1.22845E-09 -1.21578E-09 -1.20348E-09 -1.19154E-09 -1.17993E-09 -1.16862E-09 -1.15759E-09 -1.14682E-09 -1.13629E-09
  -1.12596E-09 -1.11582E-09 -1.10583E-09 -1.09598E-09 -1.08625E-09 -1.07660E-09 -1.06701E-09 -1.05746E-09 -1.04794E-09 -1.03839E-09
  -1.02882E-09 -1.01919E-09 -1.00947E-09 -9.99659E-10 -9.89712E-10 -9.79610E-10 -9.69332E-10 -9.58849E-10 -9.48167E-10 -9.37296E-10
  -9.26248E-10 -9.15036E-10 -9.03672E-10 -8.92166E-10 -8.80533E-10 -8.68784E-10 -8.56931E-10 -8.44986E-10 -8.32964E-10 -8.20872E-10
  -8.08728E-10 -7.96540E-10 -7.84320E-10 -7.72085E-10 -7.59842E-10 -7.47607E-10 -7.35390E-10 -7.23202E-10 -7.11058E-10 -6.98971E-10
  -6.86948E-10 -6.75006E-10 -6.63155E-10 -6.51410E-10 -6.39781E-10 -6.28276E-10 -6.16898E-10 -6.05640E-10 -5.94497E-10 -5.83462E-10
  -5.72531E-10 -5.61697E-10 -5.50956E-10 -5.40301E-10 -5.29728E-10 -5.19229E-10 -5.08802E-10 -4.98438E-10 -4.88134E-10 -4.77883E-10
  -4.67678E-10 -4.57517E-10 -4.47392E-10 -4.37298E-10 -4.27229E-10 -4.17181E-10 -4.07148E-10 -3.97121E-10 -3.87099E-10 -3.77075E-10
  -3.67044E-10 -3.57000E-10 -3.46934E-10
 Asp      Conc. = 3.62E-10
   2.93583E-09  2.86384E-09  2.78681E-09  2.70129E-09  2.61917E-09  2.53522E-09  2.46462E-09  2.40570E-09  2.36522E-09  2.33225E-09
   2.30313E-09  2.27626E-09  2.25086E-09  2.22640E-09  2.20239E-09  2.17868E-09  2.15528E-09  2.13216E-09  2.10928E-09  2.08660E-09
   2.06412E-09  2.04183E-09  2.01972E-09  1.99779E-09  1.97606E-09  1.95456E-09  1.93329E-09  1.91231E-09  1.89166E-09  1.87143E-09
   1.85174E-09  1.83278E-09  1.81482E-09  1.79826E-09  1.78382E-09  1.77301E-09  1.76939E-09  1.77032E-09  1.77917E-09  1.78988E-09
   1.79886E-09  1.80246E-09  1.79926E-09  1.79474E-09  1.79407E-09  1.81707E-09  1.85590E-09  1.91278E-09  1.99547E-09  2.06646E-09
   2.10370E-09  2.08904E-09  2.02896E-09  1.93638E-09  1.82899E-09  1.73077E-09  1.64693E-09  1.59900E-09  1.54289E-09  1.48250E-09
   1.45169E-09  1.43360E-09  1.41381E-09  1.39715E-09  1.37911E-09  1.35210E-09  1.31935E-09  1.29754E-09  1.28173E-09  1.26951E-09
   1.25980E-09  1.25199E-09  1.24573E-09  1.24079E-09  1.23702E-09  1.23431E-09  1.23257E-09  1.23176E-09  1.23181E-09  1.23271E-09
   1.23441E-09  1.23691E-09  1.24016E-09  1.24418E-09  1.24894E-09  1.25441E-09  1.26057E-09  1.26737E-09  1.27477E-09  1.28275E-09
   1.29128E-09  1.30031E-09  1.30981E-09  1.31976E-09  1.33012E-09  1.34085E-09  1.35193E-09  1.36333E-09  1.37502E-09  1.38696E-09
   1.39913E-09  1.41149E-09  1.42401E-09  1.43667E-09  1.44943E-09  1.46226E-09  1.47514E-09  1.48803E-09  1.50091E-09  1.51374E-09
   1.52650E-09  1.53915E-09  1.55166E-09  1.56398E-09  1.57600E-09  1.58764E-09  1.59881E-09  1.60943E-09  1.61939E-09  1.62861E-09
   1.63701E-09  1.64448E-09  1.65095E-09  1.65632E-09  1.66050E-09  1.66340E-09  1.66494E-09  1.66502E-09  1.66356E-09  1.66046E-09
   1.65564E-09  1.64901E-09  1.64047E-09  1.62994E-09  1.61733E-09  1.60254E-09  1.58550E-09  1.56611E-09  1.54428E-09  1.51993E-09
   1.49296E-09  1.46330E-09  1.43089E-09  1.39565E-09  1.35752E-09  1.31642E-09  1.27230E-09  1.22509E-09  1.17472E-09  1.12111E-09
   1.06422E-09  1.00398E-09  9.40316E-10  8.73179E-10  8.02512E-10  7.28258E-10  6.50378E-10  5.68829E-10  4.83592E-10  3.94660E-10
   3.02069E-10  2.05911E-10  1.06407E-10  3.99671E-12 -1.00260E-10 -2.03472E-10 -2.94114E-10 -3.31555E-10 -3.44505E-10 -3.34237E-10
  -2.98341E-10 -2.63270E-10 -2.78546E-10 -3.90714E-10 -6.10230E-10 -9.09516E-10 -1.25356E-09 -1.61403E-09 -1.94120E-09 -2.14520E-09
  -2.31383E-09 -2.47100E-09 -2.62211E-09 -2.76875E-09 -2.91136E-09 -3.04998E-09 -3.18439E-09 -3.31430E-09 -3.43933E-09 -3.55910E-09
  -3.67319E-09 -3.78118E-09 -3.88262E-09 -3.97707E-09 -4.06409E-09 -4.14322E-09 -4.21416E-09 -4.27706E-09 -4.33216E-09 -4.37971E-09
  -4.41995E-09 -4.45312E-09 -4.47946E-09 -4.49922E-09 -4.51264E-09 -4.51995E-09 -4.52141E-09 -4.51724E-09 -4.50768E-09 -4.49299E-09
  -4.47340E-09 -4.44914E-09 -4.42046E-09 -4.38760E-09 -4.35080E-09 -4.31029E-09 -4.26633E-09 -4.21914E-09 -4.16896E-09 -4.11605E-09
  -4.06063E-09 -4.00294E-09 -3.94323E-09 -3.88174E-09 -3.81867E-09 -3.75417E-09 -3.68839E-09 -3.62145E-09 -3.55350E-09 -3.48469E-09
