 LCModel (Version 6.3-1R) Copyright: S.W. Provencher.          Ref.: Magn. Reson. Med. 30:672-679 (1993).                
 onepulse 21x24_ftSpec_smooth_lcm
 26 lines in following concentration table = NCONC+1
    Conc.  %SD   /Cr    Metabolite                                         
 1.20E-10 151%   0.000 Ala                                                 
 6.42E-10  58%   0.000 Asp                                                 
    0.000 999%   0.000 Cr                                                  
 2.88E-09  10%   0.000 GABA                                                
 1.90E-09  15%   0.000 Glc                                                 
    0.000 999%   0.000 Gln                                                 
    0.000 999%   0.000 Glu                                                 
    0.000 999%   0.000 Glyc                                                
    0.000 999%   0.000 GPC                                                 
 2.40E-11 824%   0.000 GSH                                                 
 2.45E-10  86%   0.000 Ins                                                 
    0.000 999%   0.000 Lac                                                 
    0.000 999%   0.000 NAAG                                                
 1.40E-09  11%   0.000 NAA                                                 
 1.12E-10  45%   0.000 PCh                                                 
    0.000 999%   0.000 PCr                                                 
    0.000 999%   0.000 PE                                                  
    0.000 999%   0.000 Scyllo                                              
    0.000 999%   0.000 Ser                                                 
    0.000 999%   0.000 Tau                                                 
 1.12E-10  45%   0.000 GPC+PCh                                             
 1.40E-09  11%   0.000 NAA+NAAG                                            
 2.45E-10  86%   0.000 Ins+Glyc                                            
    0.000 999%   0.000 Cr+PCr                                              
    0.000 999%   0.000 Glu+Gln                                             
   6 lines in following misc. output table
  FWHM = 0.067 ppm    S/N =   5                                            
  Data shift = 0.335 ppm                                                   
  Ph:  51 deg      27.5 deg/ppm                                            
  alphaB,S = 1.5E-01,   7.0E+01                                            
   16 spline knots.   Ns = 5(1)                                            
  ( 7) 2 infls.   ( 5) 1 extrs.                                            
  363 points on ppm-axis = NY
      4.250000     4.238821     4.227641     4.216462     4.205282     4.194103     4.182923     4.171744     4.160564     4.149385
      4.138206     4.127026     4.115847     4.104667     4.093488     4.082308     4.071129     4.059949     4.048770     4.037591
      4.026411     4.015232     4.004052     3.992873     3.981693     3.970514     3.959334     3.948155     3.936975     3.925796
      3.914617     3.903437     3.892258     3.881078     3.869899     3.858719     3.847540     3.836360     3.825181     3.814002
      3.802822     3.791643     3.780463     3.769284     3.758104     3.746925     3.735745     3.724566     3.713387     3.702207
      3.691028     3.679848     3.668669     3.657489     3.646310     3.635130     3.623951     3.612772     3.601592     3.590413
      3.579233     3.568054     3.556874     3.545695     3.534515     3.523336     3.512156     3.500977     3.489798     3.478618
      3.467439     3.456259     3.445080     3.433900     3.422721     3.411541     3.400362     3.389183     3.378003     3.366824
      3.355644     3.344465     3.333285     3.322106     3.310926     3.299747     3.288568     3.277388     3.266209     3.255029
      3.243850     3.232670     3.221491     3.210311     3.199132     3.187953     3.176773     3.165594     3.154414     3.143235
      3.132055     3.120876     3.109696     3.098517     3.087337     3.076158     3.064979     3.053799     3.042620     3.031440
      3.020261     3.009081     2.997902     2.986722     2.975543     2.964364     2.953184     2.942005     2.930825     2.919646
      2.908466     2.897287     2.886107     2.874928     2.863749     2.852569     2.841390     2.830210     2.819031     2.807851
      2.796672     2.785492     2.774313     2.763134     2.751954     2.740775     2.729595     2.718416     2.707236     2.696057
      2.684877     2.673698     2.662519     2.651339     2.640160     2.628980     2.617801     2.606621     2.595442     2.584262
      2.573083     2.561903     2.550724     2.539545     2.528365     2.517186     2.506006     2.494827     2.483647     2.472468
      2.461288     2.450109     2.438930     2.427750     2.416571     2.405391     2.394212     2.383032     2.371853     2.360673
      2.349494     2.338315     2.327135     2.315956     2.304776     2.293597     2.282417     2.271238     2.260058     2.248879
      2.237700     2.226520     2.215341     2.204161     2.192982     2.181802     2.170623     2.159443     2.148264     2.137084
      2.125905     2.114726     2.103546     2.092367     2.081187     2.070008     2.058828     2.047649     2.036469     2.025290
      2.014111     2.002931     1.991752     1.980572     1.969393     1.958213     1.947034     1.935854     1.924675     1.913496
      1.902316     1.891137     1.879957     1.868778     1.857598     1.846419     1.835239     1.824060     1.812881     1.801701
      1.790522     1.779342     1.768163     1.756983     1.745804     1.734624     1.723445     1.712265     1.701086     1.689907
      1.678727     1.667548     1.656368     1.645189     1.634009     1.622830     1.611650     1.600471     1.589292     1.578112
      1.566933     1.555753     1.544574     1.533394     1.522215     1.511035     1.499856     1.488677     1.477497     1.466318
      1.455138     1.443959     1.432779     1.421600     1.410420     1.399241     1.388062     1.376882     1.365703     1.354523
      1.343344     1.332164     1.320985     1.309805     1.298626     1.287446     1.276267     1.265088     1.253908     1.242729
      1.231549     1.220370     1.209190     1.198011     1.186831     1.175652     1.164473     1.153293     1.142114     1.130934
      1.119755     1.108575     1.097396     1.086216     1.075037     1.063858     1.052678     1.041499     1.030319     1.019140
      1.007960     0.996781     0.985601     0.974422     0.963243     0.952063     0.940884     0.929704     0.918525     0.907345
      0.896166     0.884986     0.873807     0.862628     0.851448     0.840269     0.829089     0.817910     0.806730     0.795551
      0.784371     0.773192     0.762012     0.750833     0.739654     0.728474     0.717295     0.706115     0.694936     0.683756
      0.672577     0.661397     0.650218     0.639039     0.627859     0.616680     0.605500     0.594321     0.583141     0.571962
      0.560782     0.549603     0.538424     0.527244     0.516065     0.504885     0.493706     0.482526     0.471347     0.460167
      0.448988     0.437809     0.426629     0.415450     0.404270     0.393091     0.381911     0.370732     0.359552     0.348373
      0.337193     0.326014     0.314835     0.303655     0.292476     0.281296     0.270117     0.258937     0.247758     0.236578
      0.225399     0.214220     0.203040
 NY phased data points follow
   4.86615E-09  7.22723E-09  9.93320E-09  1.17996E-08  1.09744E-08  1.01986E-08  8.43669E-09  7.28955E-09  7.35448E-09  6.06207E-09
   6.56782E-09  6.24212E-09  7.12055E-09  7.39665E-09  7.31252E-09  8.15233E-09  8.69193E-09  9.57567E-09  9.20907E-09  8.71802E-09
   8.83576E-09  9.00025E-09  8.12040E-09  7.47216E-09  7.49582E-09  7.21431E-09  8.24082E-09  8.50318E-09  8.98887E-09  7.54965E-09
   6.95632E-09  6.56829E-09  7.52769E-09  8.21906E-09  1.04984E-08  1.16370E-08  1.03386E-08  9.40536E-09  8.39028E-09  7.01798E-09
   6.13906E-09  6.02583E-09  5.98242E-09  5.37130E-09  5.32066E-09  5.50636E-09  5.23471E-09  4.28149E-09  4.23815E-09  3.41654E-09
   3.48252E-09  3.73896E-09  3.64664E-09  3.97144E-09  4.42534E-09  3.88343E-09  3.06067E-09  2.74162E-09  2.68778E-09  2.79025E-09
   3.46765E-09  4.50650E-09  4.75341E-09  5.28126E-09  7.59391E-09  8.65216E-09  1.09725E-08  9.52509E-09  8.12206E-09  6.69889E-09
   5.45565E-09  4.60848E-09  4.39843E-09  3.19335E-09  3.13419E-09  3.26782E-09  2.44072E-09  2.23046E-09  2.79719E-09  3.82562E-09
   7.49990E-09  1.12694E-08  1.42416E-08  1.44503E-08  1.23543E-08  1.05944E-08  8.82348E-09  7.96908E-09  7.57425E-09  7.12116E-09
   7.10763E-09  6.17983E-09  5.85188E-09  5.82386E-09  4.40191E-09  4.32131E-09  4.09028E-09  3.40198E-09  3.16751E-09  2.96717E-09
   2.29287E-09  3.16597E-09  2.62276E-09  2.81880E-09  3.66079E-09  2.81191E-09  2.95016E-09  2.98984E-09  2.86968E-09  2.14763E-09
   1.78415E-09  1.39565E-09  1.11471E-09  7.41080E-10  1.69800E-09  2.46051E-09  2.43833E-09  2.08895E-09  2.50326E-09  3.03751E-09
   2.82648E-09  2.44512E-09  2.62720E-09  2.45271E-09  2.00096E-09  1.17388E-09  6.16887E-10  6.91466E-10  7.97415E-10  6.38142E-10
   1.36497E-09  1.53020E-09  1.65308E-09  1.50677E-09  1.94677E-09  2.17731E-09  2.09842E-09  1.26739E-09  1.75725E-09  1.11850E-09
   2.46781E-09  3.39095E-09  3.74621E-09  3.87680E-09  3.62653E-09  2.66665E-09  3.64579E-09  4.20340E-09  3.65638E-09  4.12873E-09
   3.78035E-09  3.43205E-09  3.06501E-09  3.35153E-09  3.15914E-09  2.75625E-09  2.53023E-09  3.62460E-09  3.19639E-09  3.33423E-09
   4.16555E-09  3.64882E-09  4.45639E-09  4.28750E-09  5.19830E-09  5.92606E-09  5.31665E-09  6.20595E-09  7.11452E-09  8.06026E-09
   1.06546E-08  1.32821E-08  1.67567E-08  1.85172E-08  1.57946E-08  1.19174E-08  9.14292E-09  6.86484E-09  5.55877E-09  4.77582E-09
   3.79791E-09  3.13552E-09  2.25557E-09  2.16862E-09  3.48715E-10  6.55554E-10 -3.68151E-10 -9.00610E-10 -1.29015E-09 -2.68711E-09
  -2.82362E-09 -4.10630E-09 -4.10807E-09 -5.81352E-09 -6.65805E-09 -7.10178E-09 -7.95965E-09 -8.25544E-09 -9.44096E-09 -9.91779E-09
  -1.01845E-08 -1.07600E-08 -1.09104E-08 -1.09782E-08 -1.07336E-08 -1.05794E-08 -9.81801E-09 -9.42848E-09 -8.68228E-09 -7.62385E-09
  -6.81184E-09 -6.28112E-09 -4.97240E-09 -4.43278E-09 -2.94542E-09 -2.27644E-09 -1.62670E-09 -1.02632E-09 -8.89347E-10 -4.79604E-10
  -1.04260E-09 -1.39970E-09 -1.48191E-09 -1.42020E-09 -1.48416E-09 -1.41309E-09 -1.83658E-09 -1.48276E-09 -1.55010E-09 -1.11693E-09
  -1.18574E-09 -1.34202E-09 -1.32762E-09 -1.13520E-09 -1.86768E-09 -2.35021E-09 -1.72441E-09 -9.27570E-10 -1.67862E-09 -1.41374E-09
  -1.05698E-09 -1.05129E-09 -1.12740E-09 -1.03656E-09 -1.63462E-09 -1.23832E-09 -1.64702E-09 -1.78981E-09 -1.40230E-09 -1.56075E-09
  -1.19853E-09 -8.97791E-10 -6.84401E-10 -1.01886E-09 -7.29333E-10 -6.31909E-10 -8.80991E-10 -7.78019E-10 -1.18792E-09 -1.10990E-09
  -1.48735E-09 -2.25645E-09 -1.53518E-09 -2.17111E-09 -1.60602E-09 -1.74618E-09 -8.75885E-10 -1.38550E-09 -7.99637E-10  2.65789E-10
  -5.09479E-10 -7.02805E-10 -1.74709E-10 -4.93692E-10  6.07081E-11 -3.56813E-10 -5.15894E-10 -3.41823E-10 -7.38250E-10 -1.28216E-09
  -8.73008E-10 -1.25860E-09 -1.36867E-09 -1.62447E-09 -1.31284E-09 -1.20603E-09 -1.17492E-09 -1.73232E-09 -7.87152E-10 -1.64961E-09
  -9.21852E-10 -1.08156E-09 -1.28844E-09 -1.30745E-09 -8.96573E-10 -9.05277E-10 -1.10444E-09 -6.69657E-10 -4.80459E-10 -5.84994E-10
  -1.25640E-09 -6.38576E-10 -1.16624E-09 -2.65592E-10 -1.21094E-09 -2.89520E-10 -7.41663E-10 -6.55169E-10 -5.62127E-10 -7.22314E-10
  -7.33413E-10 -5.45057E-10 -8.49458E-11 -5.58273E-10 -5.64217E-10 -5.35975E-10 -9.69169E-10  1.37368E-10 -4.26941E-11 -3.90173E-10
  -6.29542E-10 -3.14709E-10 -5.75283E-10 -1.68548E-10 -5.45080E-10 -3.22107E-10 -4.70776E-10 -2.59239E-10  2.21600E-12 -4.01406E-10
  -7.21474E-10 -3.00948E-10 -3.15585E-10 -6.57782E-10 -1.48379E-11  4.22950E-11 -4.34821E-10 -1.11846E-09 -2.33224E-10 -3.08166E-10
   3.12990E-10 -4.05012E-10 -6.71297E-10 -1.55286E-10 -3.16631E-10 -3.56940E-10 -1.88720E-10 -4.32464E-10 -2.38424E-10 -5.56767E-10
  -1.89626E-10 -2.73512E-10  9.54532E-11 -4.08360E-10 -4.70895E-10  6.63661E-11 -4.27407E-10 -8.97253E-11 -1.70193E-10 -4.33528E-10
  -2.59282E-10 -2.21487E-10 -4.61550E-10
 NY points of the fit to the data follow
   7.65091E-09  8.24695E-09  8.77240E-09  9.15392E-09  9.26447E-09  9.04200E-09  8.53609E-09  7.88769E-09  7.37195E-09  6.91617E-09
   6.70550E-09  6.71591E-09  6.84085E-09  7.05850E-09  7.39676E-09  7.82568E-09  8.32723E-09  8.92872E-09  9.51795E-09  9.90690E-09
   1.00250E-08  9.70184E-09  8.95631E-09  8.13043E-09  7.41665E-09  6.89879E-09  6.75609E-09  7.09808E-09  7.60657E-09  8.05186E-09
   8.19322E-09  8.27476E-09  8.53478E-09  8.70040E-09  8.76553E-09  9.06053E-09  9.34298E-09  9.33945E-09  8.94167E-09  8.24844E-09
   7.48559E-09  6.72210E-09  5.65516E-09  4.74729E-09  4.29754E-09  3.91755E-09  3.63263E-09  3.63222E-09  3.75713E-09  3.87482E-09
   3.91662E-09  3.88594E-09  3.85123E-09  3.82037E-09  3.80447E-09  3.83183E-09  3.83396E-09  3.83479E-09  3.76579E-09  3.68392E-09
   3.77031E-09  4.16575E-09  4.68318E-09  5.28312E-09  6.20935E-09  7.07941E-09  7.68955E-09  8.16050E-09  8.44475E-09  8.36363E-09
   7.89300E-09  7.01956E-09  5.97772E-09  5.11742E-09  4.25018E-09  3.41308E-09  3.27987E-09  3.88567E-09  4.83406E-09  6.29795E-09
   8.21889E-09  1.02853E-08  1.20991E-08  1.29785E-08  1.26047E-08  1.14338E-08  9.90605E-09  8.19574E-09  6.56950E-09  5.87034E-09
   5.65899E-09  5.55902E-09  5.29687E-09  4.78877E-09  4.41101E-09  4.06322E-09  3.54264E-09  3.15264E-09  2.90707E-09  2.67839E-09
   2.54013E-09  2.47168E-09  2.45885E-09  2.50326E-09  2.56281E-09  2.61272E-09  2.64172E-09  2.64706E-09  2.62759E-09  2.57519E-09
   2.48950E-09  2.40041E-09  2.34780E-09  2.28659E-09  2.23246E-09  2.22544E-09  2.23389E-09  2.24902E-09  2.26771E-09  2.28848E-09
   2.31051E-09  2.33324E-09  2.35626E-09  2.37927E-09  2.40201E-09  2.42428E-09  2.44590E-09  2.46670E-09  2.48656E-09  2.50531E-09
   2.52284E-09  2.53903E-09  2.55376E-09  2.56691E-09  2.57838E-09  2.58806E-09  2.59585E-09  2.60167E-09  2.60542E-09  2.60701E-09
   2.60635E-09  2.60330E-09  2.59772E-09  2.58944E-09  2.57835E-09  2.56431E-09  2.54720E-09  2.52691E-09  2.50334E-09  2.47640E-09
   2.44606E-09  2.41227E-09  2.37507E-09  2.33453E-09  2.29079E-09  2.24409E-09  2.19485E-09  2.14365E-09  2.09146E-09  2.03974E-09
   1.99081E-09  1.94851E-09  1.91963E-09  1.91718E-09  1.97021E-09  2.16242E-09  2.84661E-09  4.38471E-09  6.55801E-09  9.23983E-09
   1.23861E-08  1.54497E-08  1.74729E-08  1.76376E-08  1.58321E-08  1.26512E-08  8.82415E-09  4.88266E-09  1.70283E-09  8.62598E-11
  -5.76694E-10 -9.81783E-10 -1.28918E-09 -1.54798E-09 -1.77811E-09 -1.98909E-09 -2.18582E-09 -2.37095E-09 -2.54592E-09 -2.71144E-09
  -2.86782E-09 -3.01508E-09 -3.15305E-09 -3.28143E-09 -3.39988E-09 -3.50794E-09 -3.60534E-09 -3.69237E-09 -3.76942E-09 -3.83688E-09
  -3.89508E-09 -3.94440E-09 -3.98515E-09 -4.01768E-09 -4.04231E-09 -4.05937E-09 -4.06917E-09 -4.07203E-09 -4.06825E-09 -4.05816E-09
  -4.04207E-09 -4.02027E-09 -3.99307E-09 -3.96079E-09 -3.92373E-09 -3.88219E-09 -3.83647E-09 -3.78687E-09 -3.73371E-09 -3.67728E-09
  -3.61788E-09 -3.55582E-09 -3.49139E-09 -3.42489E-09 -3.35660E-09 -3.28669E-09 -3.21534E-09 -3.14272E-09 -3.06900E-09 -2.99436E-09
  -2.91897E-09 -2.84301E-09 -2.76665E-09 -2.69006E-09 -2.61342E-09 -2.53690E-09 -2.46067E-09 -2.38491E-09 -2.30978E-09 -2.23547E-09
  -2.16216E-09 -2.08999E-09 -2.01916E-09 -1.94984E-09 -1.88219E-09 -1.81640E-09 -1.75263E-09 -1.69105E-09 -1.63185E-09 -1.57520E-09
  -1.52125E-09 -1.47020E-09 -1.42209E-09 -1.37683E-09 -1.33431E-09 -1.29444E-09 -1.25710E-09 -1.22219E-09 -1.18960E-09 -1.15922E-09
  -1.13097E-09 -1.10471E-09 -1.08036E-09 -1.05780E-09 -1.03694E-09 -1.01766E-09 -9.99853E-10 -9.83433E-10 -9.68282E-10 -9.54290E-10
  -9.41352E-10 -9.29375E-10 -9.18237E-10 -9.07840E-10 -8.98090E-10 -8.88855E-10 -8.80058E-10 -8.71578E-10 -8.63315E-10 -8.55158E-10
  -8.47061E-10 -8.39014E-10 -8.31009E-10 -8.23036E-10 -8.15096E-10 -8.07174E-10 -7.99269E-10 -7.91368E-10 -7.83466E-10 -7.75559E-10
  -7.67636E-10 -7.59692E-10 -7.51719E-10 -7.43710E-10 -7.35659E-10 -7.27557E-10 -7.19399E-10 -7.11175E-10 -7.02884E-10 -6.94509E-10
  -6.86053E-10 -6.77502E-10 -6.68851E-10 -6.60097E-10 -6.51228E-10 -6.42237E-10 -6.33121E-10 -6.23866E-10 -6.14486E-10 -6.04991E-10
  -5.95396E-10 -5.85714E-10 -5.75961E-10 -5.66145E-10 -5.56285E-10 -5.46393E-10 -5.36481E-10 -5.26565E-10 -5.16658E-10 -5.06771E-10
  -4.96924E-10 -4.87123E-10 -4.77384E-10 -4.67727E-10 -4.58156E-10 -4.48692E-10 -4.39345E-10 -4.30128E-10 -4.21057E-10 -4.12148E-10
  -4.03407E-10 -3.94854E-10 -3.86499E-10 -3.78359E-10 -3.70446E-10 -3.62769E-10 -3.55327E-10 -3.48110E-10 -3.41104E-10 -3.34302E-10
  -3.27692E-10 -3.21263E-10 -3.15006E-10 -3.08909E-10 -3.02964E-10 -2.97157E-10 -2.91482E-10 -2.85926E-10 -2.80480E-10 -2.75131E-10
  -2.69869E-10 -2.64687E-10 -2.59572E-10 -2.54513E-10 -2.49501E-10 -2.44526E-10 -2.39576E-10 -2.34640E-10 -2.29709E-10 -2.24775E-10
  -2.19825E-10 -2.14849E-10 -2.09833E-10
 NY background values follow
     1.109E-09    1.089E-09    1.068E-09    1.047E-09    1.026E-09    1.006E-09    9.851E-10    9.646E-10    9.440E-10    9.235E-10
     9.029E-10    8.825E-10    8.620E-10    8.416E-10    8.212E-10    8.008E-10    7.804E-10    7.601E-10    7.398E-10    7.195E-10
     6.992E-10    6.789E-10    6.587E-10    6.384E-10    6.182E-10    5.980E-10    5.778E-10    5.576E-10    5.374E-10    5.173E-10
     4.972E-10    4.772E-10    4.573E-10    4.376E-10    4.181E-10    3.989E-10    3.799E-10    3.613E-10    3.430E-10    3.251E-10
     3.077E-10    2.907E-10    2.742E-10    2.583E-10    2.430E-10    2.283E-10    2.142E-10    2.009E-10    1.883E-10    1.765E-10
     1.655E-10    1.553E-10    1.461E-10    1.377E-10    1.304E-10    1.240E-10    1.187E-10    1.145E-10    1.113E-10    1.092E-10
     1.081E-10    1.081E-10    1.091E-10    1.112E-10    1.142E-10    1.183E-10    1.235E-10    1.296E-10    1.367E-10    1.449E-10
     1.540E-10    1.642E-10    1.753E-10    1.873E-10    2.004E-10    2.144E-10    2.294E-10    2.453E-10    2.622E-10    2.801E-10
     2.988E-10    3.185E-10    3.391E-10    3.607E-10    3.831E-10    4.065E-10    4.307E-10    4.558E-10    4.816E-10    5.082E-10
     5.356E-10    5.636E-10    5.924E-10    6.217E-10    6.517E-10    6.822E-10    7.133E-10    7.449E-10    7.770E-10    8.095E-10
     8.424E-10    8.758E-10    9.094E-10    9.434E-10    9.777E-10    1.012E-09    1.047E-09    1.082E-09    1.117E-09    1.152E-09
     1.187E-09    1.223E-09    1.258E-09    1.293E-09    1.329E-09    1.364E-09    1.398E-09    1.433E-09    1.466E-09    1.499E-09
     1.532E-09    1.563E-09    1.594E-09    1.624E-09    1.653E-09    1.680E-09    1.706E-09    1.731E-09    1.755E-09    1.777E-09
     1.797E-09    1.816E-09    1.833E-09    1.847E-09    1.860E-09    1.871E-09    1.880E-09    1.886E-09    1.890E-09    1.891E-09
     1.890E-09    1.886E-09    1.880E-09    1.870E-09    1.857E-09    1.841E-09    1.821E-09    1.797E-09    1.769E-09    1.738E-09
     1.702E-09    1.662E-09    1.617E-09    1.567E-09    1.512E-09    1.453E-09    1.388E-09    1.317E-09    1.241E-09    1.160E-09
     1.072E-09    9.781E-10    8.780E-10    7.715E-10    6.583E-10    5.383E-10    4.114E-10    2.773E-10    1.360E-10   -1.202E-11
    -1.662E-10   -3.258E-10   -4.902E-10   -6.590E-10   -8.313E-10   -1.007E-09   -1.184E-09   -1.364E-09   -1.544E-09   -1.725E-09
    -1.906E-09   -2.086E-09   -2.264E-09   -2.441E-09   -2.615E-09   -2.786E-09   -2.952E-09   -3.114E-09   -3.271E-09   -3.423E-09
    -3.567E-09   -3.705E-09   -3.835E-09   -3.957E-09   -4.070E-09   -4.173E-09   -4.266E-09   -4.350E-09   -4.424E-09   -4.488E-09
    -4.544E-09   -4.591E-09   -4.630E-09   -4.661E-09   -4.684E-09   -4.700E-09   -4.708E-09   -4.710E-09   -4.705E-09   -4.694E-09
    -4.677E-09   -4.655E-09   -4.627E-09   -4.594E-09   -4.556E-09   -4.514E-09   -4.468E-09   -4.418E-09   -4.364E-09   -4.308E-09
    -4.248E-09   -4.185E-09   -4.121E-09   -4.054E-09   -3.985E-09   -3.915E-09   -3.844E-09   -3.771E-09   -3.697E-09   -3.622E-09
    -3.546E-09   -3.470E-09   -3.394E-09   -3.317E-09   -3.240E-09   -3.163E-09   -3.087E-09   -3.011E-09   -2.936E-09   -2.861E-09
    -2.788E-09   -2.715E-09   -2.645E-09   -2.575E-09   -2.507E-09   -2.441E-09   -2.377E-09   -2.316E-09   -2.256E-09   -2.200E-09
    -2.146E-09   -2.094E-09   -2.046E-09   -2.001E-09   -1.958E-09   -1.918E-09   -1.881E-09   -1.846E-09   -1.813E-09   -1.783E-09
    -1.754E-09   -1.728E-09   -1.703E-09   -1.681E-09   -1.660E-09   -1.640E-09   -1.623E-09   -1.606E-09   -1.591E-09   -1.577E-09
    -1.564E-09   -1.552E-09   -1.540E-09   -1.530E-09   -1.520E-09   -1.511E-09   -1.502E-09   -1.493E-09   -1.485E-09   -1.476E-09
    -1.468E-09   -1.460E-09   -1.452E-09   -1.444E-09   -1.436E-09   -1.428E-09   -1.420E-09   -1.412E-09   -1.404E-09   -1.396E-09
    -1.388E-09   -1.380E-09   -1.371E-09   -1.363E-09   -1.355E-09   -1.347E-09   -1.339E-09   -1.330E-09   -1.322E-09   -1.313E-09
    -1.305E-09   -1.296E-09   -1.287E-09   -1.278E-09   -1.269E-09   -1.260E-09   -1.251E-09   -1.242E-09   -1.232E-09   -1.222E-09
    -1.213E-09   -1.203E-09   -1.193E-09   -1.183E-09   -1.173E-09   -1.163E-09   -1.153E-09   -1.143E-09   -1.133E-09   -1.123E-09
    -1.113E-09   -1.103E-09   -1.093E-09   -1.083E-09   -1.073E-09   -1.063E-09   -1.054E-09   -1.045E-09   -1.035E-09   -1.026E-09
    -1.017E-09   -1.008E-09   -9.999E-10   -9.916E-10   -9.835E-10   -9.756E-10   -9.680E-10   -9.606E-10   -9.534E-10   -9.463E-10
    -9.395E-10   -9.329E-10   -9.264E-10   -9.201E-10   -9.139E-10   -9.079E-10   -9.020E-10   -8.962E-10   -8.906E-10   -8.850E-10
    -8.795E-10   -8.741E-10   -8.687E-10   -8.634E-10   -8.582E-10   -8.530E-10   -8.478E-10   -8.426E-10   -8.374E-10   -8.322E-10
    -8.270E-10   -8.218E-10   -8.165E-10
 Ala      Conc. = 1.20E-10
   1.19740E-09  1.18605E-09  1.17197E-09  1.15519E-09  1.13545E-09  1.11355E-09  1.08754E-09  1.05518E-09  1.02436E-09  9.95760E-10
   9.60878E-10  9.28115E-10  9.00963E-10  8.72993E-10  8.46298E-10  8.22097E-10  7.99190E-10  7.77040E-10  7.55376E-10  7.34042E-10
   7.12948E-10  6.92032E-10  6.71257E-10  6.50588E-10  6.30004E-10  6.09497E-10  5.89049E-10  5.68648E-10  5.48292E-10  5.27983E-10
   5.07753E-10  4.87632E-10  4.67659E-10  4.47869E-10  4.28297E-10  4.08982E-10  3.89960E-10  3.71268E-10  3.52942E-10  3.35018E-10
   3.17539E-10  3.00536E-10  2.84053E-10  2.68121E-10  2.52785E-10  2.38076E-10  2.24035E-10  2.10704E-10  1.98111E-10  1.86303E-10
   1.75316E-10  1.65183E-10  1.55948E-10  1.47647E-10  1.40326E-10  1.34005E-10  1.28732E-10  1.24532E-10  1.21400E-10  1.19330E-10
   1.18317E-10  1.18355E-10  1.19439E-10  1.21563E-10  1.24721E-10  1.28910E-10  1.34123E-10  1.40355E-10  1.47602E-10  1.55858E-10
   1.65118E-10  1.75379E-10  1.86633E-10  1.98880E-10  2.12112E-10  2.26328E-10  2.41523E-10  2.57693E-10  2.74837E-10  2.92953E-10
   3.12036E-10  3.32090E-10  3.53112E-10  3.75107E-10  3.98075E-10  4.22012E-10  4.46902E-10  4.72731E-10  4.99492E-10  5.27186E-10
   5.55827E-10  5.85443E-10  6.16093E-10  6.47874E-10  6.80953E-10  7.15624E-10  7.52421E-10  7.92420E-10  8.38168E-10  8.97708E-10
   9.83284E-10  1.07234E-09  1.17625E-09  1.31061E-09  1.44149E-09  1.54918E-09  1.62568E-09  1.67064E-09  1.68473E-09  1.66105E-09
   1.60036E-09  1.53309E-09  1.49951E-09  1.45497E-09  1.41546E-09  1.42130E-09  1.44125E-09  1.46668E-09  1.49460E-09  1.52365E-09
   1.55310E-09  1.58248E-09  1.61148E-09  1.63987E-09  1.66746E-09  1.69410E-09  1.71963E-09  1.74394E-09  1.76691E-09  1.78842E-09
   1.80836E-09  1.82664E-09  1.84314E-09  1.85778E-09  1.87044E-09  1.88104E-09  1.88947E-09  1.89564E-09  1.89945E-09  1.90081E-09
   1.89962E-09  1.89573E-09  1.88896E-09  1.87915E-09  1.86613E-09  1.84973E-09  1.82977E-09  1.80609E-09  1.77852E-09  1.74688E-09
   1.71102E-09  1.67075E-09  1.62592E-09  1.57636E-09  1.52190E-09  1.46238E-09  1.39763E-09  1.32750E-09  1.25183E-09  1.17048E-09
   1.08332E-09  9.90229E-10  8.91161E-10  7.86135E-10  6.75442E-10  5.60177E-10  4.45632E-10  3.43836E-10  2.41927E-10  1.42326E-10
   4.63993E-11 -5.67388E-11 -1.84690E-10 -3.51900E-10 -5.57517E-10 -7.87429E-10 -1.02787E-09 -1.27161E-09 -1.50468E-09 -1.70047E-09
  -1.88717E-09 -2.07029E-09 -2.25080E-09 -2.42863E-09 -2.60343E-09 -2.77470E-09 -2.94191E-09 -3.10446E-09 -3.26176E-09 -3.41321E-09
  -3.55819E-09 -3.69609E-09 -3.82630E-09 -3.94816E-09 -4.06109E-09 -4.16444E-09 -4.25779E-09 -4.34131E-09 -4.41532E-09 -4.48010E-09
  -4.53596E-09 -4.58319E-09 -4.62210E-09 -4.65299E-09 -4.67615E-09 -4.69188E-09 -4.70049E-09 -4.70227E-09 -4.69752E-09 -4.68655E-09
  -4.66964E-09 -4.64710E-09 -4.61923E-09 -4.58633E-09 -4.54869E-09 -4.50662E-09 -4.46041E-09 -4.41036E-09 -4.35678E-09 -4.29996E-09
  -4.24019E-09 -4.17778E-09 -4.11303E-09 -4.04624E-09 -3.97767E-09 -3.90749E-09 -3.83589E-09 -3.76303E-09 -3.68909E-09 -3.61423E-09
  -3.53865E-09 -3.46249E-09 -3.38595E-09 -3.30919E-09 -3.23237E-09 -3.15569E-09 -3.07930E-09 -3.00340E-09 -2.92812E-09 -2.85368E-09
  -2.78022E-09 -2.70792E-09 -2.63697E-09 -2.56753E-09 -2.49975E-09 -2.43384E-09 -2.36995E-09 -2.30826E-09 -2.24895E-09 -2.19219E-09
  -2.13812E-09 -2.08697E-09 -2.03876E-09 -1.99339E-09 -1.95077E-09 -1.91080E-09 -1.87335E-09 -1.83834E-09 -1.80564E-09 -1.77517E-09
  -1.74681E-09 -1.72046E-09 -1.69601E-09 -1.67335E-09 -1.65239E-09 -1.63301E-09 -1.61510E-09 -1.59858E-09 -1.58332E-09 -1.56923E-09
  -1.55619E-09 -1.54411E-09 -1.53287E-09 -1.52237E-09 -1.51251E-09 -1.50317E-09 -1.49427E-09 -1.48568E-09 -1.47731E-09 -1.46905E-09
  -1.46084E-09 -1.45268E-09 -1.44456E-09 -1.43648E-09 -1.42842E-09 -1.42039E-09 -1.41236E-09 -1.40435E-09 -1.39633E-09 -1.38830E-09
  -1.38026E-09 -1.37219E-09 -1.36409E-09 -1.35596E-09 -1.34778E-09 -1.33955E-09 -1.33127E-09 -1.32291E-09 -1.31449E-09 -1.30598E-09
  -1.29739E-09 -1.28871E-09 -1.27992E-09 -1.27103E-09 -1.26202E-09 -1.25288E-09 -1.24362E-09 -1.23423E-09 -1.22470E-09 -1.21506E-09
  -1.20531E-09 -1.19548E-09 -1.18557E-09 -1.17560E-09 -1.16559E-09 -1.15553E-09 -1.14546E-09 -1.13539E-09 -1.12532E-09 -1.11526E-09
  -1.10525E-09 -1.09528E-09 -1.08537E-09 -1.07554E-09 -1.06580E-09 -1.05616E-09 -1.04663E-09 -1.03724E-09 -1.02798E-09 -1.01889E-09
  -1.00996E-09 -1.00122E-09 -9.92679E-10 -9.84348E-10 -9.76243E-10 -9.68370E-10 -9.60731E-10 -9.53314E-10 -9.46107E-10 -9.39101E-10
  -9.32286E-10 -9.25649E-10 -9.19182E-10 -9.12873E-10 -9.06715E-10 -9.00691E-10 -8.94799E-10 -8.89022E-10 -8.83353E-10 -8.77779E-10
  -8.72290E-10 -8.66878E-10 -8.61530E-10 -8.56237E-10 -8.50989E-10 -8.45774E-10 -8.40583E-10 -8.35404E-10 -8.30227E-10 -8.25044E-10
  -8.19842E-10 -8.14613E-10 -8.09341E-10
 Asp      Conc. = 6.42E-10
   1.90419E-09  1.79690E-09  1.67357E-09  1.54390E-09  1.41471E-09  1.28608E-09  1.18517E-09  1.09554E-09  1.04297E-09  1.00507E-09
   9.74274E-10  9.47486E-10  9.23172E-10  9.00482E-10  8.78634E-10  8.57210E-10  8.36264E-10  8.15746E-10  7.95601E-10  7.75790E-10
   7.56291E-10  7.37092E-10  7.18202E-10  6.99626E-10  6.81388E-10  6.63534E-10  6.46110E-10  6.29189E-10  6.12875E-10  5.97314E-10
   5.82737E-10  5.69458E-10  5.57940E-10  5.48892E-10  5.43526E-10  5.44256E-10  5.56811E-10  5.78284E-10  6.13166E-10  6.51184E-10
   6.86725E-10  7.13840E-10  7.27674E-10  7.41494E-10  7.53622E-10  8.15531E-10  9.04708E-10  1.02380E-09  1.18453E-09  1.32699E-09
   1.40140E-09  1.37967E-09  1.28144E-09  1.13330E-09  9.62728E-10  8.16013E-10  6.73075E-10  6.07082E-10  5.39313E-10  4.61660E-10
   4.20726E-10  4.09475E-10  3.91877E-10  3.71644E-10  3.55316E-10  3.27238E-10  2.85249E-10  2.62073E-10  2.50239E-10  2.44922E-10
   2.43960E-10  2.46222E-10  2.51038E-10  2.57987E-10  2.66781E-10  2.77220E-10  2.89156E-10  3.02478E-10  3.17101E-10  3.32960E-10
   3.49996E-10  3.68172E-10  3.87443E-10  4.07786E-10  4.29168E-10  4.51559E-10  4.74910E-10  4.99177E-10  5.24319E-10  5.50295E-10
   5.77064E-10  6.04588E-10  6.32830E-10  6.61752E-10  6.91319E-10  7.21494E-10  7.52242E-10  7.83529E-10  8.15318E-10  8.47576E-10
   8.80269E-10  9.13363E-10  9.46823E-10  9.80616E-10  1.01471E-09  1.04907E-09  1.08366E-09  1.11846E-09  1.15342E-09  1.18852E-09
   1.22372E-09  1.25899E-09  1.29429E-09  1.32956E-09  1.36470E-09  1.39962E-09  1.43423E-09  1.46843E-09  1.50212E-09  1.53522E-09
   1.56764E-09  1.59927E-09  1.63002E-09  1.65981E-09  1.68854E-09  1.71611E-09  1.74243E-09  1.76742E-09  1.79097E-09  1.81299E-09
   1.83339E-09  1.85208E-09  1.86897E-09  1.88396E-09  1.89696E-09  1.90787E-09  1.91661E-09  1.92308E-09  1.92719E-09  1.92886E-09
   1.92797E-09  1.92439E-09  1.91795E-09  1.90849E-09  1.89583E-09  1.87981E-09  1.86027E-09  1.83704E-09  1.80996E-09  1.77887E-09
   1.74360E-09  1.70401E-09  1.65994E-09  1.61123E-09  1.55776E-09  1.49938E-09  1.43598E-09  1.36744E-09  1.29370E-09  1.21471E-09
   1.13052E-09  1.04125E-09  9.47290E-10  8.49399E-10  7.49388E-10  6.51998E-10  5.74435E-10  5.92598E-10  6.51293E-10  7.46331E-10
   8.90160E-10  1.03717E-09  1.09663E-09  9.78942E-10  6.65319E-10  2.17011E-10 -2.89778E-10 -8.14523E-10 -1.30750E-09 -1.60483E-09
  -1.82401E-09 -2.02214E-09 -2.21098E-09 -2.39396E-09 -2.57215E-09 -2.74578E-09 -2.91467E-09 -3.07847E-09 -3.23670E-09 -3.38887E-09
  -3.53441E-09 -3.67274E-09 -3.80329E-09 -3.92543E-09 -4.03858E-09 -4.14211E-09 -4.23560E-09 -4.31925E-09 -4.39334E-09 -4.45820E-09
  -4.51412E-09 -4.56140E-09 -4.60035E-09 -4.63127E-09 -4.65446E-09 -4.67021E-09 -4.67883E-09 -4.68062E-09 -4.67588E-09 -4.66491E-09
  -4.64800E-09 -4.62546E-09 -4.59758E-09 -4.56468E-09 -4.52703E-09 -4.48496E-09 -4.43874E-09 -4.38868E-09 -4.33509E-09 -4.27826E-09
  -4.21848E-09 -4.15607E-09 -4.09131E-09 -4.02450E-09 -3.95592E-09 -3.88573E-09 -3.81412E-09 -3.74125E-09 -3.66729E-09 -3.59243E-09
