 LCModel (Version 6.3-1R) Copyright: S.W. Provencher.          Ref.: Magn. Reson. Med. 30:672-679 (1993).                
 onepulse 21x23_ftSpec_smooth_lcm
 26 lines in following concentration table = NCONC+1
    Conc.  %SD   /Cr    Metabolite                                         
 1.09E-10 166%   0.000 Ala                                                 
 6.06E-10  61%   0.000 Asp                                                 
    0.000 999%   0.000 Cr                                                  
 2.84E-09  13%   0.000 GABA                                                
 1.87E-09  16%   0.000 Glc                                                 
    0.000 999%   0.000 Gln                                                 
 1.14E-13 999%   0.000 Glu                                                 
    0.000 999%   0.000 Glyc                                                
    0.000 999%   0.000 GPC                                                 
 4.42E-11 456%   0.000 GSH                                                 
 2.42E-10  87%   0.000 Ins                                                 
    0.000 999%   0.000 Lac                                                 
    0.000 999%   0.000 NAAG                                                
 1.34E-09  13%   0.000 NAA                                                 
 1.08E-10  47%   0.000 PCh                                                 
    0.000 999%   0.000 PCr                                                 
    0.000 999%   0.000 PE                                                  
    0.000 999%   0.000 Scyllo                                              
    0.000 999%   0.000 Ser                                                 
    0.000 999%   0.000 Tau                                                 
 1.08E-10  47%   0.000 GPC+PCh                                             
 1.34E-09  13%   0.000 NAA+NAAG                                            
 2.42E-10  87%   0.000 Ins+Glyc                                            
    0.000 999%   0.000 Cr+PCr                                              
 1.14E-13 999%   0.000 Glu+Gln                                             
   6 lines in following misc. output table
  FWHM = 0.067 ppm    S/N =   5                                            
  Data shift = 0.335 ppm                                                   
  Ph:  51 deg      29.2 deg/ppm                                            
  alphaB,S = 1.5E-01,   7.2E+01                                            
   16 spline knots.   Ns = 5(1)                                            
  ( 9) 2 infls.   ( 5) 1 extrs.                                            
  363 points on ppm-axis = NY
      4.250000     4.238821     4.227641     4.216462     4.205282     4.194103     4.182923     4.171744     4.160564     4.149385
      4.138206     4.127026     4.115847     4.104667     4.093488     4.082308     4.071129     4.059949     4.048770     4.037591
      4.026411     4.015232     4.004052     3.992873     3.981693     3.970514     3.959334     3.948155     3.936975     3.925796
      3.914617     3.903437     3.892258     3.881078     3.869899     3.858719     3.847540     3.836360     3.825181     3.814002
      3.802822     3.791643     3.780463     3.769284     3.758104     3.746925     3.735745     3.724566     3.713387     3.702207
      3.691028     3.679848     3.668669     3.657489     3.646310     3.635130     3.623951     3.612772     3.601592     3.590413
      3.579233     3.568054     3.556874     3.545695     3.534515     3.523336     3.512156     3.500977     3.489798     3.478618
      3.467439     3.456259     3.445080     3.433900     3.422721     3.411541     3.400362     3.389183     3.378003     3.366824
      3.355644     3.344465     3.333285     3.322106     3.310926     3.299747     3.288568     3.277388     3.266209     3.255029
      3.243850     3.232670     3.221491     3.210311     3.199132     3.187953     3.176773     3.165594     3.154414     3.143235
      3.132055     3.120876     3.109696     3.098517     3.087337     3.076158     3.064979     3.053799     3.042620     3.031440
      3.020261     3.009081     2.997902     2.986722     2.975543     2.964364     2.953184     2.942005     2.930825     2.919646
      2.908466     2.897287     2.886107     2.874928     2.863749     2.852569     2.841390     2.830210     2.819031     2.807851
      2.796672     2.785492     2.774313     2.763134     2.751954     2.740775     2.729595     2.718416     2.707236     2.696057
      2.684877     2.673698     2.662519     2.651339     2.640160     2.628980     2.617801     2.606621     2.595442     2.584262
      2.573083     2.561903     2.550724     2.539545     2.528365     2.517186     2.506006     2.494827     2.483647     2.472468
      2.461288     2.450109     2.438930     2.427750     2.416571     2.405391     2.394212     2.383032     2.371853     2.360673
      2.349494     2.338315     2.327135     2.315956     2.304776     2.293597     2.282417     2.271238     2.260058     2.248879
      2.237700     2.226520     2.215341     2.204161     2.192982     2.181802     2.170623     2.159443     2.148264     2.137084
      2.125905     2.114726     2.103546     2.092367     2.081187     2.070008     2.058828     2.047649     2.036469     2.025290
      2.014111     2.002931     1.991752     1.980572     1.969393     1.958213     1.947034     1.935854     1.924675     1.913496
      1.902316     1.891137     1.879957     1.868778     1.857598     1.846419     1.835239     1.824060     1.812881     1.801701
      1.790522     1.779342     1.768163     1.756983     1.745804     1.734624     1.723445     1.712265     1.701086     1.689907
      1.678727     1.667548     1.656368     1.645189     1.634009     1.622830     1.611650     1.600471     1.589292     1.578112
      1.566933     1.555753     1.544574     1.533394     1.522215     1.511035     1.499856     1.488677     1.477497     1.466318
      1.455138     1.443959     1.432779     1.421600     1.410420     1.399241     1.388062     1.376882     1.365703     1.354523
      1.343344     1.332164     1.320985     1.309805     1.298626     1.287446     1.276267     1.265088     1.253908     1.242729
      1.231549     1.220370     1.209190     1.198011     1.186831     1.175652     1.164473     1.153293     1.142114     1.130934
      1.119755     1.108575     1.097396     1.086216     1.075037     1.063858     1.052678     1.041499     1.030319     1.019140
      1.007960     0.996781     0.985601     0.974422     0.963243     0.952063     0.940884     0.929704     0.918525     0.907345
      0.896166     0.884986     0.873807     0.862628     0.851448     0.840269     0.829089     0.817910     0.806730     0.795551
      0.784371     0.773192     0.762012     0.750833     0.739654     0.728474     0.717295     0.706115     0.694936     0.683756
      0.672577     0.661397     0.650218     0.639039     0.627859     0.616680     0.605500     0.594321     0.583141     0.571962
      0.560782     0.549603     0.538424     0.527244     0.516065     0.504885     0.493706     0.482526     0.471347     0.460167
      0.448988     0.437809     0.426629     0.415450     0.404270     0.393091     0.381911     0.370732     0.359552     0.348373
      0.337193     0.326014     0.314835     0.303655     0.292476     0.281296     0.270117     0.258937     0.247758     0.236578
      0.225399     0.214220     0.203040
 NY phased data points follow
   4.20793E-09  6.32332E-09  9.05063E-09  1.08656E-08  1.04210E-08  9.48309E-09  7.93936E-09  6.79376E-09  6.53916E-09  5.33311E-09
   6.03796E-09  5.47144E-09  6.47419E-09  6.70537E-09  6.74602E-09  7.11804E-09  7.91554E-09  8.75702E-09  8.67817E-09  7.81013E-09
   8.30032E-09  7.99197E-09  7.53849E-09  6.79939E-09  6.98194E-09  6.52237E-09  7.59132E-09  7.62007E-09  8.34404E-09  6.88898E-09
   6.33614E-09  6.10087E-09  6.81827E-09  7.46437E-09  1.00316E-08  1.06008E-08  9.73341E-09  8.81990E-09  7.90861E-09  6.23119E-09
   5.41289E-09  5.30098E-09  5.18571E-09  4.99274E-09  4.73922E-09  4.79953E-09  4.56907E-09  3.94365E-09  3.81573E-09  2.85002E-09
   3.07470E-09  3.34988E-09  3.37214E-09  3.60481E-09  3.84523E-09  3.50240E-09  2.78968E-09  2.47545E-09  2.42618E-09  2.48976E-09
   3.33251E-09  4.17309E-09  4.47323E-09  5.14475E-09  7.23073E-09  8.14947E-09  1.09003E-08  9.39999E-09  8.14934E-09  6.47497E-09
   5.31774E-09  4.34241E-09  4.17336E-09  2.63405E-09  3.02066E-09  2.95147E-09  2.14285E-09  2.16157E-09  2.89293E-09  3.75685E-09
   7.23641E-09  1.05610E-08  1.38294E-08  1.39384E-08  1.20840E-08  1.01515E-08  8.38781E-09  7.59897E-09  7.22966E-09  6.69786E-09
   6.66759E-09  5.41839E-09  5.53903E-09  5.53162E-09  4.13233E-09  4.00198E-09  3.68773E-09  3.35920E-09  3.08115E-09  2.60971E-09
   2.14546E-09  3.31119E-09  2.36798E-09  2.79789E-09  3.55141E-09  2.71522E-09  2.82328E-09  2.99413E-09  2.72232E-09  2.01515E-09
   2.15373E-09  1.41462E-09  1.32998E-09  1.02208E-09  1.92269E-09  2.67867E-09  2.49543E-09  2.44478E-09  2.84005E-09  3.09231E-09
   3.00942E-09  2.45259E-09  2.87052E-09  2.51504E-09  2.15250E-09  1.25005E-09  8.19177E-10  1.20800E-09  1.04064E-09  6.79243E-10
   1.83721E-09  1.68176E-09  2.00508E-09  1.89486E-09  2.40901E-09  2.58701E-09  2.25234E-09  1.56666E-09  1.96925E-09  1.29419E-09
   2.79887E-09  3.71658E-09  4.02376E-09  4.15420E-09  3.97886E-09  3.02849E-09  3.80520E-09  4.22194E-09  3.87335E-09  4.40480E-09
   4.06894E-09  3.51489E-09  3.41726E-09  3.74591E-09  3.63026E-09  3.34334E-09  3.13807E-09  4.13278E-09  3.75011E-09  4.05153E-09
   4.58749E-09  4.48899E-09  5.16476E-09  5.02796E-09  5.90805E-09  6.60414E-09  5.98774E-09  7.17410E-09  7.76867E-09  9.06153E-09
   1.15509E-08  1.38488E-08  1.67439E-08  1.85642E-08  1.60499E-08  1.22987E-08  9.30164E-09  7.17950E-09  5.73784E-09  5.23336E-09
   4.47540E-09  3.70550E-09  2.86645E-09  2.76373E-09  1.49549E-09  1.84195E-09  6.65791E-10  4.06891E-10  1.34151E-10 -1.22995E-09
  -1.15681E-09 -2.53999E-09 -2.46573E-09 -4.09482E-09 -4.63974E-09 -5.14708E-09 -5.87294E-09 -6.53964E-09 -7.79447E-09 -8.33042E-09
  -8.82641E-09 -9.77534E-09 -1.03152E-08 -1.06366E-08 -1.07320E-08 -1.08632E-08 -1.04677E-08 -1.04208E-08 -9.76999E-09 -9.16490E-09
  -8.39050E-09 -7.59772E-09 -6.32904E-09 -5.72248E-09 -3.91614E-09 -3.13634E-09 -2.43658E-09 -1.67676E-09 -1.27902E-09 -8.89816E-10
  -1.20187E-09 -1.47936E-09 -1.94908E-09 -1.68303E-09 -1.51690E-09 -2.07468E-09 -2.27252E-09 -1.79116E-09 -1.93778E-09 -1.32680E-09
  -1.48545E-09 -1.47668E-09 -1.80099E-09 -1.25542E-09 -2.31555E-09 -2.65913E-09 -1.86757E-09 -1.29694E-09 -2.05826E-09 -1.75272E-09
  -1.53788E-09 -1.19497E-09 -1.32192E-09 -1.24601E-09 -1.94618E-09 -1.49586E-09 -2.02845E-09 -2.09292E-09 -1.69945E-09 -1.77111E-09
  -1.45437E-09 -1.31530E-09 -9.31473E-10 -1.37998E-09 -1.01416E-09 -9.14892E-10 -1.25775E-09 -9.43739E-10 -1.45306E-09 -1.34428E-09
  -1.63781E-09 -2.50204E-09 -1.90043E-09 -2.36298E-09 -1.81450E-09 -1.96746E-09 -1.12401E-09 -1.60314E-09 -9.23612E-10 -1.42498E-10
  -8.12844E-10 -1.05726E-09 -5.20502E-10 -6.84324E-10 -4.67148E-10 -7.57661E-10 -7.93460E-10 -4.52812E-10 -1.20557E-09 -1.64653E-09
  -1.04196E-09 -1.67962E-09 -1.58175E-09 -1.75428E-09 -1.50160E-09 -1.32205E-09 -1.58351E-09 -2.03333E-09 -9.80873E-10 -1.73437E-09
  -1.06325E-09 -1.50625E-09 -1.42217E-09 -1.37508E-09 -1.02719E-09 -1.20132E-09 -1.14205E-09 -9.13057E-10 -8.21971E-10 -9.03793E-10
  -1.57932E-09 -7.52178E-10 -1.44470E-09 -6.80183E-10 -1.43844E-09 -4.03173E-10 -1.06645E-09 -8.86351E-10 -6.56237E-10 -1.18855E-09
  -8.67080E-10 -7.25296E-10 -3.97613E-10 -7.53715E-10 -6.84444E-10 -1.09068E-09 -1.23118E-09 -8.04544E-11 -5.03139E-10 -6.10355E-10
  -1.28573E-09 -8.27663E-10 -1.04149E-09 -4.52133E-10 -1.08351E-09 -6.19136E-10 -7.94753E-10 -5.38660E-10 -4.16918E-10 -7.60883E-10
  -1.07542E-09 -7.02700E-10 -8.28624E-10 -8.93280E-10 -2.33622E-10 -2.85265E-10 -9.56261E-10 -1.31457E-09 -6.27603E-10 -7.56023E-10
  -1.98478E-10 -9.58342E-10 -8.72767E-10 -4.19639E-10 -6.57720E-10 -7.12521E-10 -7.06320E-10 -9.33555E-10 -5.26081E-10 -9.22288E-10
  -2.38957E-10 -6.97446E-10 -3.92989E-10 -8.65059E-10 -8.88678E-10 -1.94286E-10 -8.86663E-10 -6.33264E-10 -5.92548E-10 -9.32341E-10
  -4.93802E-10 -7.21620E-10 -8.74753E-10
 NY points of the fit to the data follow
   6.97068E-09  7.56044E-09  8.08066E-09  8.44600E-09  8.53283E-09  8.28772E-09  7.76289E-09  7.11544E-09  6.58942E-09  6.14276E-09
   5.96227E-09  5.99588E-09  6.14039E-09  6.38027E-09  6.73662E-09  7.18215E-09  7.69410E-09  8.27389E-09  8.80842E-09  9.14662E-09
   9.23229E-09  8.90108E-09  8.16970E-09  7.36315E-09  6.66297E-09  6.17345E-09  6.06790E-09  6.41946E-09  6.94686E-09  7.40541E-09
   7.57705E-09  7.70872E-09  7.96364E-09  8.11844E-09  8.21640E-09  8.50846E-09  8.75649E-09  8.71187E-09  8.29318E-09  7.60450E-09
   6.84769E-09  6.02832E-09  4.97444E-09  4.16612E-09  3.73126E-09  3.34624E-09  3.10858E-09  3.12139E-09  3.25337E-09  3.37885E-09
   3.44253E-09  3.43541E-09  3.41683E-09  3.39687E-09  3.39530E-09  3.43686E-09  3.47307E-09  3.49710E-09  3.44956E-09  3.39090E-09
   3.50432E-09  3.91862E-09  4.45066E-09  5.07863E-09  6.01500E-09  6.85700E-09  7.43740E-09  7.87052E-09  8.10087E-09  7.98019E-09
   7.48642E-09  6.61851E-09  5.60748E-09  4.77069E-09  3.91564E-09  3.16775E-09  3.11880E-09  3.76468E-09  4.75102E-09  6.22134E-09
   8.03703E-09  9.93577E-09  1.16174E-08  1.24384E-08  1.20962E-08  1.09691E-08  9.43513E-09  7.74169E-09  6.22154E-09  5.63038E-09
   5.45057E-09  5.35049E-09  5.06513E-09  4.57620E-09  4.23301E-09  3.87339E-09  3.36998E-09  3.02408E-09  2.79471E-09  2.58181E-09
   2.46396E-09  2.41087E-09  2.40704E-09  2.45440E-09  2.51734E-09  2.57366E-09  2.61081E-09  2.62475E-09  2.61498E-09  2.57716E-09
   2.51279E-09  2.44557E-09  2.40721E-09  2.36190E-09  2.32571E-09  2.33167E-09  2.35146E-09  2.37722E-09  2.40616E-09  2.43695E-09
   2.46887E-09  2.50140E-09  2.53418E-09  2.56692E-09  2.59940E-09  2.63143E-09  2.66284E-09  2.69350E-09  2.72326E-09  2.75200E-09
   2.77960E-09  2.80595E-09  2.83095E-09  2.85448E-09  2.87645E-09  2.89676E-09  2.91533E-09  2.93206E-09  2.94688E-09  2.95970E-09
   2.97043E-09  2.97892E-09  2.98501E-09  2.98852E-09  2.98930E-09  2.98721E-09  2.98208E-09  2.97380E-09  2.96223E-09  2.94727E-09
   2.92886E-09  2.90694E-09  2.88151E-09  2.85262E-09  2.82039E-09  2.78503E-09  2.74694E-09  2.70669E-09  2.66521E-09  2.62396E-09
   2.58528E-09  2.55307E-09  2.53429E-09  2.54251E-09  2.60864E-09  2.82488E-09  3.58511E-09  5.18829E-09  7.40299E-09  1.00512E-08
   1.30305E-08  1.58530E-08  1.76912E-08  1.78091E-08  1.60535E-08  1.29073E-08  9.07323E-09  5.19377E-09  2.23140E-09  7.49374E-10
   1.24057E-10 -2.68870E-10 -5.72270E-10 -8.30991E-10 -1.06354E-09 -1.27882E-09 -1.48148E-09 -1.67405E-09 -1.85789E-09 -2.03373E-09
  -2.20186E-09 -2.36233E-09 -2.51499E-09 -2.65959E-09 -2.79580E-09 -2.92322E-09 -3.04157E-09 -3.15106E-09 -3.25196E-09 -3.34453E-09
  -3.42901E-09 -3.50564E-09 -3.57465E-09 -3.63625E-09 -3.69065E-09 -3.73807E-09 -3.77870E-09 -3.81277E-09 -3.84045E-09 -3.86194E-09
  -3.87746E-09 -3.88719E-09 -3.89132E-09 -3.89005E-09 -3.88357E-09 -3.87207E-09 -3.85574E-09 -3.83477E-09 -3.80936E-09 -3.77968E-09
  -3.74593E-09 -3.70829E-09 -3.66696E-09 -3.62213E-09 -3.57398E-09 -3.52275E-09 -3.46866E-09 -3.41192E-09 -3.35277E-09 -3.29142E-09
  -3.22810E-09 -3.16303E-09 -3.09644E-09 -3.02855E-09 -2.95957E-09 -2.88974E-09 -2.81927E-09 -2.74840E-09 -2.67732E-09 -2.60629E-09
  -2.53552E-09 -2.46521E-09 -2.39561E-09 -2.32694E-09 -2.25941E-09 -2.19324E-09 -2.12866E-09 -2.06589E-09 -2.00516E-09 -1.94669E-09
  -1.89069E-09 -1.83740E-09 -1.78689E-09 -1.73908E-09 -1.69388E-09 -1.65121E-09 -1.61096E-09 -1.57304E-09 -1.53735E-09 -1.50380E-09
  -1.47231E-09 -1.44276E-09 -1.41507E-09 -1.38914E-09 -1.36489E-09 -1.34221E-09 -1.32100E-09 -1.30119E-09 -1.28268E-09 -1.26536E-09
  -1.24913E-09 -1.23393E-09 -1.21963E-09 -1.20615E-09 -1.19341E-09 -1.18129E-09 -1.16972E-09 -1.15858E-09 -1.14781E-09 -1.13728E-09
  -1.12696E-09 -1.11684E-09 -1.10692E-09 -1.09718E-09 -1.08763E-09 -1.07824E-09 -1.06902E-09 -1.05996E-09 -1.05105E-09 -1.04228E-09
  -1.03365E-09 -1.02514E-09 -1.01676E-09 -1.00850E-09 -1.00034E-09 -9.92278E-10 -9.84313E-10 -9.76433E-10 -9.68638E-10 -9.60906E-10
  -9.53246E-10 -9.45640E-10 -9.38083E-10 -9.30575E-10 -9.23101E-10 -9.15655E-10 -9.08234E-10 -9.00823E-10 -8.93431E-10 -8.86062E-10
  -8.78720E-10 -8.71413E-10 -8.64147E-10 -8.56923E-10 -8.49752E-10 -8.42638E-10 -8.35586E-10 -8.28602E-10 -8.21693E-10 -8.14861E-10
  -8.08119E-10 -8.01465E-10 -7.94906E-10 -7.88455E-10 -7.82108E-10 -7.75879E-10 -7.69769E-10 -7.63782E-10 -7.57928E-10 -7.52215E-10
  -7.46640E-10 -7.41215E-10 -7.35944E-10 -7.30834E-10 -7.25891E-10 -7.21115E-10 -7.16507E-10 -7.12061E-10 -7.07767E-10 -7.03619E-10
  -6.99611E-10 -6.95735E-10 -6.91985E-10 -6.88354E-10 -6.84838E-10 -6.81423E-10 -6.78112E-10 -6.74891E-10 -6.71756E-10 -6.68699E-10
  -6.65712E-10 -6.62793E-10 -6.59931E-10 -6.57121E-10 -6.54355E-10 -6.51628E-10 -6.48932E-10 -6.46258E-10 -6.43602E-10 -6.40960E-10
  -6.38321E-10 -6.35681E-10 -6.33027E-10
 NY background values follow
     3.040E-10    2.930E-10    2.821E-10    2.712E-10    2.603E-10    2.494E-10    2.384E-10    2.275E-10    2.166E-10    2.057E-10
     1.949E-10    1.840E-10    1.732E-10    1.623E-10    1.515E-10    1.408E-10    1.300E-10    1.193E-10    1.086E-10    9.795E-11
     8.733E-11    7.674E-11    6.620E-11    5.570E-11    4.524E-11    3.483E-11    2.447E-11    1.416E-11    3.905E-12   -6.289E-12
    -1.639E-11   -2.637E-11   -3.621E-11   -4.586E-11   -5.529E-11   -6.449E-11   -7.341E-11   -8.203E-11   -9.032E-11   -9.824E-11
    -1.058E-10   -1.129E-10   -1.195E-10   -1.257E-10   -1.313E-10   -1.364E-10   -1.409E-10   -1.448E-10   -1.481E-10   -1.507E-10
    -1.526E-10   -1.538E-10   -1.542E-10   -1.539E-10   -1.527E-10   -1.506E-10   -1.477E-10   -1.439E-10   -1.391E-10   -1.335E-10
    -1.269E-10   -1.195E-10   -1.111E-10   -1.018E-10   -9.156E-11   -8.042E-11   -6.835E-11   -5.535E-11   -4.142E-11   -2.656E-11
    -1.077E-11    5.965E-12    2.364E-11    4.225E-11    6.181E-11    8.231E-11    1.038E-10    1.262E-10    1.495E-10    1.738E-10
     1.991E-10    2.254E-10    2.526E-10    2.807E-10    3.099E-10    3.399E-10    3.709E-10    4.028E-10    4.356E-10    4.692E-10
     5.035E-10    5.386E-10    5.744E-10    6.109E-10    6.481E-10    6.859E-10    7.242E-10    7.632E-10    8.026E-10    8.425E-10
     8.829E-10    9.237E-10    9.648E-10    1.006E-09    1.048E-09    1.090E-09    1.133E-09    1.175E-09    1.218E-09    1.261E-09
     1.304E-09    1.347E-09    1.390E-09    1.433E-09    1.476E-09    1.519E-09    1.562E-09    1.604E-09    1.645E-09    1.687E-09
     1.727E-09    1.767E-09    1.806E-09    1.844E-09    1.881E-09    1.918E-09    1.952E-09    1.986E-09    2.019E-09    2.050E-09
     2.079E-09    2.107E-09    2.133E-09    2.158E-09    2.180E-09    2.201E-09    2.220E-09    2.236E-09    2.251E-09    2.263E-09
     2.272E-09    2.280E-09    2.284E-09    2.286E-09    2.284E-09    2.279E-09    2.271E-09    2.259E-09    2.243E-09    2.223E-09
     2.199E-09    2.170E-09    2.137E-09    2.099E-09    2.055E-09    2.007E-09    1.953E-09    1.894E-09    1.829E-09    1.757E-09
     1.680E-09    1.596E-09    1.506E-09    1.409E-09    1.305E-09    1.194E-09    1.075E-09    9.493E-10    8.157E-10    6.750E-10
     5.276E-10    3.742E-10    2.154E-10    5.173E-11   -1.162E-10   -2.878E-10   -4.626E-10   -6.398E-10   -8.190E-10   -9.995E-10
    -1.181E-09   -1.362E-09   -1.543E-09   -1.724E-09   -1.902E-09   -2.078E-09   -2.252E-09   -2.422E-09   -2.589E-09   -2.751E-09
    -2.908E-09   -3.059E-09   -3.204E-09   -3.342E-09   -3.473E-09   -3.596E-09   -3.710E-09   -3.816E-09   -3.914E-09   -4.004E-09
    -4.087E-09   -4.161E-09   -4.228E-09   -4.288E-09   -4.342E-09   -4.388E-09   -4.427E-09   -4.460E-09   -4.487E-09   -4.508E-09
    -4.523E-09   -4.532E-09   -4.535E-09   -4.534E-09   -4.527E-09   -4.515E-09   -4.498E-09   -4.477E-09   -4.451E-09   -4.421E-09
    -4.387E-09   -4.349E-09   -4.307E-09   -4.262E-09   -4.214E-09   -4.163E-09   -4.108E-09   -4.051E-09   -3.992E-09   -3.931E-09
    -3.867E-09   -3.802E-09   -3.735E-09   -3.667E-09   -3.598E-09   -3.528E-09   -3.458E-09   -3.387E-09   -3.316E-09   -3.245E-09
    -3.174E-09   -3.104E-09   -3.034E-09   -2.965E-09   -2.898E-09   -2.831E-09   -2.767E-09   -2.704E-09   -2.643E-09   -2.585E-09
    -2.529E-09   -2.475E-09   -2.425E-09   -2.377E-09   -2.332E-09   -2.289E-09   -2.249E-09   -2.211E-09   -2.175E-09   -2.141E-09
    -2.110E-09   -2.080E-09   -2.052E-09   -2.026E-09   -2.002E-09   -1.979E-09   -1.958E-09   -1.938E-09   -1.920E-09   -1.902E-09
    -1.886E-09   -1.871E-09   -1.856E-09   -1.843E-09   -1.830E-09   -1.818E-09   -1.806E-09   -1.795E-09   -1.784E-09   -1.774E-09
    -1.763E-09   -1.753E-09   -1.743E-09   -1.733E-09   -1.723E-09   -1.714E-09   -1.705E-09   -1.696E-09   -1.687E-09   -1.678E-09
    -1.669E-09   -1.660E-09   -1.652E-09   -1.644E-09   -1.635E-09   -1.627E-09   -1.619E-09   -1.611E-09   -1.603E-09   -1.595E-09
    -1.587E-09   -1.580E-09   -1.572E-09   -1.564E-09   -1.557E-09   -1.549E-09   -1.542E-09   -1.534E-09   -1.527E-09   -1.519E-09
    -1.512E-09   -1.504E-09   -1.497E-09   -1.489E-09   -1.482E-09   -1.475E-09   -1.468E-09   -1.461E-09   -1.453E-09   -1.446E-09
    -1.440E-09   -1.433E-09   -1.426E-09   -1.419E-09   -1.413E-09   -1.406E-09   -1.400E-09   -1.394E-09   -1.388E-09   -1.382E-09
    -1.376E-09   -1.371E-09   -1.365E-09   -1.360E-09   -1.355E-09   -1.350E-09   -1.345E-09   -1.340E-09   -1.336E-09   -1.331E-09
    -1.327E-09   -1.323E-09   -1.319E-09   -1.315E-09   -1.312E-09   -1.308E-09   -1.304E-09   -1.301E-09   -1.298E-09   -1.294E-09
    -1.291E-09   -1.288E-09   -1.285E-09   -1.282E-09   -1.279E-09   -1.276E-09   -1.273E-09   -1.270E-09   -1.267E-09   -1.264E-09
    -1.261E-09   -1.258E-09   -1.255E-09
 Ala      Conc. = 1.09E-10
   3.85838E-10  3.83178E-10  3.78022E-10  3.70311E-10  3.59804E-10  3.47131E-10  3.30833E-10  3.09306E-10  2.88987E-10  2.70183E-10
   2.46292E-10  2.24623E-10  2.07650E-10  1.90005E-10  1.73660E-10  1.59562E-10  1.46621E-10  1.34357E-10  1.22531E-10  1.11011E-10
   9.97178E-11  8.86007E-11  7.76289E-11  6.67777E-11  5.60316E-11  4.53833E-11  3.48224E-11  2.43437E-11  1.39451E-11  3.63155E-12
  -6.57297E-12 -1.66417E-11 -2.65455E-11 -3.62563E-11 -4.57453E-11 -5.49829E-11 -6.39398E-11 -7.25863E-11 -8.08932E-11 -8.88309E-11
  -9.63681E-11 -1.03477E-10 -1.10124E-10 -1.16283E-10 -1.21921E-10 -1.27009E-10 -1.31516E-10 -1.35411E-10 -1.38666E-10 -1.41249E-10
  -1.43129E-10 -1.44278E-10 -1.44662E-10 -1.44254E-10 -1.43019E-10 -1.40931E-10 -1.37959E-10 -1.34080E-10 -1.29291E-10 -1.23590E-10
  -1.16973E-10 -1.09439E-10 -1.00984E-10 -9.16052E-11 -8.13007E-11 -7.00673E-11 -5.79019E-11 -4.48017E-11 -3.07635E-11 -1.57841E-11
   1.39483E-13  1.70110E-11  3.48337E-11  5.36115E-11  7.33483E-11  9.40480E-11  1.15715E-10  1.38355E-10  1.61972E-10  1.86573E-10
   2.12164E-10  2.38752E-10  2.66346E-10  2.94954E-10  3.24590E-10  3.55247E-10  3.86910E-10  4.19561E-10  4.53192E-10  4.87801E-10
   5.23394E-10  5.60000E-10  5.97665E-10  6.36481E-10  6.76600E-10  7.18293E-10  7.62057E-10  8.08893E-10  8.61176E-10  9.26375E-10
   1.01597E-09  1.10853E-09  1.21245E-09  1.34263E-09  1.47102E-09  1.58012E-09  1.66045E-09  1.71019E-09  1.73057E-09  1.71844E-09
   1.67632E-09  1.62839E-09  1.60676E-09  1.57596E-09  1.55240E-09  1.56938E-09  1.59894E-09  1.63338E-09  1.67002E-09  1.70766E-09
   1.74564E-09  1.78353E-09  1.82107E-09  1.85804E-09  1.89427E-09  1.92961E-09  1.96394E-09  1.99714E-09  2.02910E-09  2.05972E-09
   2.08890E-09  2.11654E-09  2.14255E-09  2.16683E-09  2.18929E-09  2.20985E-09  2.22840E-09  2.24487E-09  2.25916E-09  2.27119E-09
   2.28085E-09  2.28799E-09  2.29242E-09  2.29394E-09  2.29236E-09  2.28749E-09  2.27914E-09  2.26711E-09  2.25122E-09  2.23127E-09
   2.20707E-09  2.17844E-09  2.14518E-09  2.10711E-09  2.06403E-09  2.01576E-09  1.96213E-09  1.90293E-09  1.83801E-09  1.76718E-09
   1.69030E-09  1.60722E-09  1.51786E-09  1.42220E-09  1.32047E-09  1.21365E-09  1.10660E-09  1.01077E-09  9.14071E-10  8.17080E-10
   7.20455E-10  6.16131E-10  4.90399E-10  3.30352E-10  1.34643E-10 -8.64340E-11 -3.19964E-10 -5.56628E-10 -7.82796E-10 -9.76745E-10
  -1.16343E-09 -1.34777E-09 -1.53061E-09 -1.71189E-09 -1.89125E-09 -2.06825E-09 -2.24238E-09 -2.41309E-09 -2.57982E-09 -2.74202E-09
  -2.89911E-09 -3.05053E-09 -3.19568E-09 -3.33399E-09 -3.46489E-09 -3.58779E-09 -3.70227E-09 -3.80842E-09 -3.90643E-09 -3.99648E-09
  -4.07876E-09 -4.15345E-09 -4.22075E-09 -4.28084E-09 -4.33390E-09 -4.38012E-09 -4.41970E-09 -4.45280E-09 -4.47963E-09 -4.50036E-09
  -4.51519E-09 -4.52429E-09 -4.52786E-09 -4.52609E-09 -4.51914E-09 -4.50723E-09 -4.49052E-09 -4.46920E-09 -4.44347E-09 -4.41351E-09
  -4.37949E-09 -4.34162E-09 -4.30007E-09 -4.25503E-09 -4.20671E-09 -4.15531E-09 -4.10106E-09 -4.04418E-09 -3.98489E-09 -3.92342E-09
  -3.85999E-09 -3.79482E-09 -3.72814E-09 -3.66015E-09 -3.59109E-09 -3.52118E-09 -3.45065E-09 -3.37970E-09 -3.30856E-09 -3.23747E-09
  -3.16664E-09 -3.09628E-09 -3.02663E-09 -2.95791E-09 -2.89032E-09 -2.82411E-09 -2.75949E-09 -2.69667E-09 -2.63590E-09 -2.57739E-09
  -2.52134E-09 -2.46801E-09 -2.41745E-09 -2.36960E-09 -2.32437E-09 -2.28165E-09 -2.24136E-09 -2.20340E-09 -2.16766E-09 -2.13407E-09
  -2.10253E-09 -2.07293E-09 -2.04520E-09 -2.01923E-09 -1.99492E-09 -1.97220E-09 -1.95093E-09 -1.93107E-09 -1.91250E-09 -1.89513E-09
  -1.87885E-09 -1.86358E-09 -1.84923E-09 -1.83569E-09 -1.82289E-09 -1.81070E-09 -1.79906E-09 -1.78786E-09 -1.77701E-09 -1.76641E-09
  -1.75602E-09 -1.74583E-09 -1.73583E-09 -1.72601E-09 -1.71637E-09 -1.70690E-09 -1.69760E-09 -1.68845E-09 -1.67944E-09 -1.67059E-09
  -1.66186E-09 -1.65326E-09 -1.64478E-09 -1.63642E-09 -1.62816E-09 -1.62000E-09 -1.61193E-09 -1.60394E-09 -1.59603E-09 -1.58819E-09
  -1.58041E-09 -1.57269E-09 -1.56501E-09 -1.55738E-09 -1.54979E-09 -1.54221E-09 -1.53466E-09 -1.52712E-09 -1.51960E-09 -1.51209E-09
  -1.50461E-09 -1.49717E-09 -1.48976E-09 -1.48239E-09 -1.47507E-09 -1.46781E-09 -1.46060E-09 -1.45346E-09 -1.44640E-09 -1.43941E-09
  -1.43250E-09 -1.42568E-09 -1.41896E-09 -1.41234E-09 -1.40582E-09 -1.39942E-09 -1.39313E-09 -1.38696E-09 -1.38093E-09 -1.37503E-09
  -1.36927E-09 -1.36365E-09 -1.35819E-09 -1.35288E-09 -1.34774E-09 -1.34277E-09 -1.33796E-09 -1.33330E-09 -1.32880E-09 -1.32444E-09
  -1.32022E-09 -1.31613E-09 -1.31216E-09 -1.30831E-09 -1.30457E-09 -1.30092E-09 -1.29738E-09 -1.29393E-09 -1.29056E-09 -1.28726E-09
  -1.28403E-09 -1.28087E-09 -1.27776E-09 -1.27470E-09 -1.27168E-09 -1.26870E-09 -1.26574E-09 -1.26281E-09 -1.25989E-09 -1.25698E-09
  -1.25407E-09 -1.25115E-09 -1.24822E-09
 Asp      Conc. = 6.06E-10
   1.03638E-09  9.38734E-10  8.31667E-10  7.15424E-10  6.03882E-10  4.92743E-10  4.07388E-10  3.38325E-10  3.01011E-10  2.76012E-10
   2.57037E-10  2.41472E-10  2.28000E-10  2.15857E-10  2.04315E-10  1.93135E-10  1.82364E-10  1.71962E-10  1.61891E-10  1.52125E-10
   1.42654E-10  1.33475E-10  1.24601E-10  1.16050E-10  1.07852E-10  1.00055E-10  9.27135E-11  8.59074E-11  7.97433E-11  7.43716E-11
   7.00171E-11  6.69937E-11  6.57603E-11  6.70328E-11  7.20502E-11  8.33179E-11  1.06717E-10  1.37478E-10  1.80860E-10  2.25169E-10
   2.65321E-10  2.96806E-10  3.17879E-10  3.41290E-10  3.68696E-10  4.40488E-10  5.33436E-10  6.50649E-10  8.07139E-10  9.42961E-10
   1.01772E-09  1.00260E-09  9.12075E-10  7.72019E-10  6.13818E-10  4.80922E-10  3.63473E-10  3.08802E-10  2.46612E-10  1.77795E-10
   1.50797E-10  1.47698E-10  1.40376E-10  1.32967E-10  1.24516E-10  1.03651E-10  7.28445E-11  6.00576E-11  5.72742E-11  6.02978E-11
   6.72387E-11  7.71021E-11  8.93028E-11  1.03471E-10  1.19358E-10  1.36791E-10  1.55648E-10  1.75837E-10  1.97290E-10  2.19954E-10
   2.43789E-10  2.68764E-10  2.94853E-10  3.22036E-10  3.50299E-10  3.79609E-10  4.09923E-10  4.41196E-10  4.73385E-10  5.06451E-10
   5.40352E-10  5.75050E-10  6.10505E-10  6.46681E-10  6.83540E-10  7.21046E-10  7.59162E-10  7.97852E-10  8.37080E-10  8.76810E-10
   9.17009E-10  9.57640E-10  9.98667E-10  1.04006E-09  1.08178E-09  1.12379E-09  1.16606E-09  1.20856E-09  1.25124E-09  1.29409E-09
   1.33705E-09  1.38011E-09  1.42321E-09  1.46631E-09  1.50930E-09  1.55210E-09  1.59464E-09  1.63681E-09  1.67853E-09  1.71972E-09
   1.76028E-09  1.80014E-09  1.83920E-09  1.87737E-09  1.91458E-09  1.95073E-09  1.98574E-09  2.01952E-09  2.05199E-09  2.08305E-09
   2.11262E-09  2.14061E-09  2.16694E-09  2.19153E-09  2.21428E-09  2.23510E-09  2.25392E-09  2.27065E-09  2.28520E-09  2.29748E-09
   2.30741E-09  2.31482E-09  2.31953E-09  2.32134E-09  2.32008E-09  2.31554E-09  2.30755E-09  2.29591E-09  2.28044E-09  2.26096E-09
   2.23729E-09  2.20924E-09  2.17665E-09  2.13933E-09  2.09712E-09  2.04987E-09  1.99743E-09  1.93966E-09  1.87647E-09  1.80778E-09
   1.73361E-09  1.65405E-09  1.56944E-09  1.48052E-09  1.38910E-09  1.30007E-09  1.23217E-09  1.26122E-09  1.32668E-09  1.42118E-09
   1.55019E-09  1.67422E-09  1.71814E-09  1.60197E-09  1.30339E-09  8.69414E-10  3.70769E-10 -1.41646E-10 -6.07802E-10 -8.85354E-10
  -1.10062E-09 -1.29872E-09 -1.48943E-09 -1.67567E-09 -1.85838E-09 -2.03775E-09 -2.21360E-09 -2.38561E-09 -2.55334E-09 -2.71631E-09
  -2.87401E-09 -3.02592E-09 -3.17148E-09 -3.31011E-09 -3.44128E-09 -3.56441E-09 -3.67907E-09 -3.78538E-09 -3.88352E-09 -3.97368E-09
  -4.05605E-09 -4.13083E-09 -4.19819E-09 -4.25834E-09 -4.31145E-09 -4.35771E-09 -4.39732E-09 -4.43046E-09 -4.45731E-09 -4.47807E-09
  -4.49292E-09 -4.50203E-09 -4.50561E-09 -4.50385E-09 -4.49691E-09 -4.48500E-09 -4.46830E-09 -4.44699E-09 -4.42126E-09 -4.39129E-09
  -4.35728E-09 -4.31941E-09 -4.27786E-09 -4.23282E-09 -4.18449E-09 -4.13309E-09 -4.07884E-09 -4.02195E-09 -3.96267E-09 -3.90119E-09
