 LCModel (Version 6.3-1R) Copyright: S.W. Provencher.          Ref.: Magn. Reson. Med. 30:672-679 (1993).                
 onepulse 21x28_ftSpec_smooth_lcm
 26 lines in following concentration table = NCONC+1
    Conc.  %SD /Cr+PCr  Metabolite                                         
    0.000 999%   0.000 Ala                                                 
    0.000 999%   0.000 Asp                                                 
    0.000 999%   0.000 Cr                                                  
    0.000 999%   0.000 GABA                                                
 4.85E-10 188%   2.599 Glc                                                 
 1.91E-09  33%  10.239 Gln                                                 
    0.000 999%   0.000 Glu                                                 
    0.000 999%   0.000 Glyc                                                
 1.88E-10 191%   1.008 GPC                                                 
    0.000 999%   0.000 GSH                                                 
 1.55E-09  35%   8.298 Ins                                                 
    0.000 999%   0.000 Lac                                                 
 5.29E-10  43%   2.839 NAAG                                                
    0.000 999%   0.000 NAA                                                 
    0.000 999%   0.000 PCh                                                 
 1.86E-10 159%   1.000 PCr                                                 
 1.80E-10 999%   0.963 PE                                                  
 1.74E-10 167%   0.931 Scyllo                                              
 4.21E-09  48%  22.582 Ser                                                 
    0.000 999%   0.000 Tau                                                 
 1.88E-10 191%   1.008 GPC+PCh                                             
 5.29E-10  43%   2.839 NAA+NAAG                                            
 1.55E-09  35%   8.298 Ins+Glyc                                            
 1.86E-10 159%   1.000 Cr+PCr                                              
 1.91E-09  33%  10.239 Glu+Gln                                             
   6 lines in following misc. output table
  FWHM = 0.101 ppm    S/N =   3                                            
  Data shift = 0.380 ppm                                                   
  Ph: -51 deg     -41.1 deg/ppm                                            
  alphaB,S = 1.2E+00,   4.8E+01                                            
    8 spline knots.   Ns = 5(1)                                            
  ( 7) 4 infls.   ( 5) 1 extrs.                                            
  363 points on ppm-axis = NY
      4.250000     4.238821     4.227641     4.216462     4.205282     4.194103     4.182923     4.171744     4.160564     4.149385
      4.138206     4.127026     4.115847     4.104667     4.093488     4.082308     4.071129     4.059949     4.048770     4.037591
      4.026411     4.015232     4.004052     3.992873     3.981693     3.970514     3.959334     3.948155     3.936975     3.925796
      3.914617     3.903437     3.892258     3.881078     3.869899     3.858719     3.847540     3.836360     3.825181     3.814002
      3.802822     3.791643     3.780463     3.769284     3.758104     3.746925     3.735745     3.724566     3.713387     3.702207
      3.691028     3.679848     3.668669     3.657489     3.646310     3.635130     3.623951     3.612772     3.601592     3.590413
      3.579233     3.568054     3.556874     3.545695     3.534515     3.523336     3.512156     3.500977     3.489798     3.478618
      3.467439     3.456259     3.445080     3.433900     3.422721     3.411541     3.400362     3.389183     3.378003     3.366824
      3.355644     3.344465     3.333285     3.322106     3.310926     3.299747     3.288568     3.277388     3.266209     3.255029
      3.243850     3.232670     3.221491     3.210311     3.199132     3.187953     3.176773     3.165594     3.154414     3.143235
      3.132055     3.120876     3.109696     3.098517     3.087337     3.076158     3.064979     3.053799     3.042620     3.031440
      3.020261     3.009081     2.997902     2.986722     2.975543     2.964364     2.953184     2.942005     2.930825     2.919646
      2.908466     2.897287     2.886107     2.874928     2.863749     2.852569     2.841390     2.830210     2.819031     2.807851
      2.796672     2.785492     2.774313     2.763134     2.751954     2.740775     2.729595     2.718416     2.707236     2.696057
      2.684877     2.673698     2.662519     2.651339     2.640160     2.628980     2.617801     2.606621     2.595442     2.584262
      2.573083     2.561903     2.550724     2.539545     2.528365     2.517186     2.506006     2.494827     2.483647     2.472468
      2.461288     2.450109     2.438930     2.427750     2.416571     2.405391     2.394212     2.383032     2.371853     2.360673
      2.349494     2.338315     2.327135     2.315956     2.304776     2.293597     2.282417     2.271238     2.260058     2.248879
      2.237700     2.226520     2.215341     2.204161     2.192982     2.181802     2.170623     2.159443     2.148264     2.137084
      2.125905     2.114726     2.103546     2.092367     2.081187     2.070008     2.058828     2.047649     2.036469     2.025290
      2.014111     2.002931     1.991752     1.980572     1.969393     1.958213     1.947034     1.935854     1.924675     1.913496
      1.902316     1.891137     1.879957     1.868778     1.857598     1.846419     1.835239     1.824060     1.812881     1.801701
      1.790522     1.779342     1.768163     1.756983     1.745804     1.734624     1.723445     1.712265     1.701086     1.689907
      1.678727     1.667548     1.656368     1.645189     1.634009     1.622830     1.611650     1.600471     1.589292     1.578112
      1.566933     1.555753     1.544574     1.533394     1.522215     1.511035     1.499856     1.488677     1.477497     1.466318
      1.455138     1.443959     1.432779     1.421600     1.410420     1.399241     1.388062     1.376882     1.365703     1.354523
      1.343344     1.332164     1.320985     1.309805     1.298626     1.287446     1.276267     1.265088     1.253908     1.242729
      1.231549     1.220370     1.209190     1.198011     1.186831     1.175652     1.164473     1.153293     1.142114     1.130934
      1.119755     1.108575     1.097396     1.086216     1.075037     1.063858     1.052678     1.041499     1.030319     1.019140
      1.007960     0.996781     0.985601     0.974422     0.963243     0.952063     0.940884     0.929704     0.918525     0.907345
      0.896166     0.884986     0.873807     0.862628     0.851448     0.840269     0.829089     0.817910     0.806730     0.795551
      0.784371     0.773192     0.762012     0.750833     0.739654     0.728474     0.717295     0.706115     0.694936     0.683756
      0.672577     0.661397     0.650218     0.639039     0.627859     0.616680     0.605500     0.594321     0.583141     0.571962
      0.560782     0.549603     0.538424     0.527244     0.516065     0.504885     0.493706     0.482526     0.471347     0.460167
      0.448988     0.437809     0.426629     0.415450     0.404270     0.393091     0.381911     0.370732     0.359552     0.348373
      0.337193     0.326014     0.314835     0.303655     0.292476     0.281296     0.270117     0.258937     0.247758     0.236578
      0.225399     0.214220     0.203040
 NY phased data points follow
   1.55283E-08  1.31986E-08  1.30818E-08  1.17431E-08  1.19846E-08  1.13240E-08  1.14800E-08  1.06584E-08  1.18144E-08  1.15955E-08
   1.27942E-08  1.25600E-08  1.33598E-08  1.31594E-08  1.28698E-08  1.25755E-08  1.27569E-08  1.25288E-08  1.23353E-08  1.08723E-08
   1.17912E-08  1.08406E-08  1.23535E-08  1.18464E-08  1.25593E-08  1.10309E-08  1.11757E-08  9.77781E-09  1.17139E-08  1.27566E-08
   1.44512E-08  1.45765E-08  1.40849E-08  1.26731E-08  1.17874E-08  1.08567E-08  1.14702E-08  9.90509E-09  1.04678E-08  9.44423E-09
   1.01922E-08  9.43038E-09  9.80708E-09  8.66484E-09  8.51742E-09  7.87026E-09  7.74861E-09  7.53982E-09  7.70037E-09  7.65688E-09
   8.23304E-09  7.42234E-09  7.17131E-09  6.04500E-09  6.53563E-09  6.21322E-09  6.69351E-09  6.44759E-09  6.65569E-09  7.59261E-09
   8.93041E-09  1.10013E-08  1.21294E-08  1.10064E-08  1.09592E-08  9.66028E-09  8.71803E-09  8.37329E-09  8.06734E-09  6.43094E-09
   6.82915E-09  6.01446E-09  5.82393E-09  4.81735E-09  4.09645E-09  4.80808E-09  8.32797E-09  1.16478E-08  1.56900E-08  1.61928E-08
   1.47883E-08  1.38173E-08  1.35620E-08  1.21531E-08  1.25638E-08  1.09641E-08  1.11587E-08  1.08562E-08  1.10120E-08  1.00893E-08
   1.02291E-08  9.64046E-09  9.50191E-09  8.72510E-09  8.29612E-09  7.71734E-09  7.81075E-09  7.40606E-09  6.87247E-09  7.52354E-09
   7.85861E-09  6.74606E-09  7.04233E-09  7.11546E-09  7.30678E-09  7.20992E-09  6.11116E-09  5.62079E-09  5.12032E-09  4.11334E-09
   5.23768E-09  4.74841E-09  5.34610E-09  5.08522E-09  5.03129E-09  5.38649E-09  5.73863E-09  5.54335E-09  6.01629E-09  5.73306E-09
   5.46747E-09  4.49538E-09  4.10197E-09  2.85446E-09  3.48429E-09  2.96280E-09  3.53234E-09  3.32221E-09  3.40229E-09  3.26305E-09
   3.37087E-09  3.23308E-09  3.68007E-09  3.13729E-09  2.45819E-09  2.14431E-09  3.26139E-09  3.97335E-09  5.73086E-09  5.40902E-09
   5.45573E-09  4.77669E-09  5.77004E-09  6.35270E-09  6.56167E-09  7.04518E-09  6.67952E-09  6.28743E-09  6.89856E-09  6.60103E-09
   6.08036E-09  5.49590E-09  5.96782E-09  5.61553E-09  5.78070E-09  5.40111E-09  6.10306E-09  5.49025E-09  5.55196E-09  5.87795E-09
   6.45765E-09  5.54156E-09  5.79460E-09  5.94647E-09  6.43340E-09  5.64655E-09  6.66028E-09  8.55685E-09  1.38311E-08  1.90579E-08
   2.03063E-08  1.89298E-08  1.78839E-08  1.64000E-08  1.58651E-08  1.55929E-08  1.42127E-08  1.37967E-08  1.34002E-08  1.26035E-08
   1.19410E-08  1.07933E-08  1.03162E-08  9.52255E-09  8.16623E-09  6.41241E-09  5.25463E-09  3.77747E-09  2.67518E-09  3.73540E-11
  -1.40981E-09 -3.57809E-09 -5.75927E-09 -8.27124E-09 -9.49775E-09 -1.21886E-08 -1.35514E-08 -1.52347E-08 -1.54530E-08 -1.67306E-08
  -1.64250E-08 -1.63947E-08 -1.54234E-08 -1.41430E-08 -1.27042E-08 -1.11594E-08 -8.42073E-09 -7.48040E-09 -5.30010E-09 -4.62935E-09
  -3.00524E-09 -2.53353E-09 -1.52311E-09 -1.57903E-09 -9.94779E-10 -1.35993E-09 -1.44255E-09 -2.21970E-09 -1.47043E-09 -1.98051E-09
  -1.53063E-09 -1.89796E-09 -9.57256E-10 -1.80028E-09 -1.01421E-09 -1.24882E-09 -1.07749E-09 -1.11544E-09 -1.49565E-09 -1.55331E-09
  -1.37592E-09 -1.99788E-09 -1.32315E-09 -1.17153E-09 -7.30490E-10 -1.57730E-09 -5.82897E-10 -9.75519E-10 -1.05190E-09 -1.02731E-09
  -1.55958E-09 -1.49465E-09 -9.68177E-10 -1.08274E-09 -1.31002E-09 -1.01403E-09 -1.03158E-09 -1.08238E-09 -8.75619E-10 -5.82021E-10
  -1.00874E-09 -4.57294E-10 -4.53349E-10 -2.53999E-10 -1.69999E-10 -1.69527E-10 -3.57960E-10 -1.18638E-09 -1.05891E-09 -7.76946E-10
  -1.31527E-09 -1.69094E-09 -1.92048E-09 -1.90188E-09 -1.63111E-09 -1.84653E-09 -1.21544E-09 -1.05269E-09 -3.52507E-10 -5.52306E-10
  -2.16952E-10 -4.35889E-11  5.58088E-10  5.29686E-10  4.40184E-10  2.76564E-10  1.74184E-10 -1.39876E-10  2.83771E-10 -1.40574E-10
  -2.20678E-10 -1.11048E-09 -7.88691E-10 -1.00722E-09 -8.07292E-10 -1.17452E-09 -8.90078E-10 -1.17217E-09 -1.09271E-09 -1.19411E-09
  -1.50619E-09 -8.47774E-10 -7.47662E-10 -1.46763E-09 -8.14928E-10 -1.41749E-09 -1.40097E-09 -1.20830E-09 -1.30877E-09 -1.11462E-09
  -1.18155E-09 -1.05852E-09 -1.41076E-09 -1.43046E-09 -9.97906E-10 -1.72263E-09 -1.18834E-09 -1.39232E-09 -1.01487E-09 -1.41091E-09
  -1.43740E-09 -1.45643E-09 -1.17413E-09 -1.18526E-09 -9.12225E-10 -9.61690E-10 -1.17555E-09 -1.29132E-09 -9.76818E-10 -1.20210E-09
  -1.14623E-09 -1.07088E-09 -6.53703E-10 -1.33864E-09 -9.17213E-10 -1.25967E-09 -5.60130E-10 -1.12901E-09 -9.84443E-10 -9.42672E-10
  -8.80308E-10 -1.18338E-09 -6.26931E-10 -1.39849E-09 -7.92545E-10 -1.06328E-09 -1.45273E-09 -6.38945E-10 -1.21564E-09 -1.14043E-09
  -9.82722E-10 -1.04730E-09 -7.93564E-10 -8.41273E-10 -1.14902E-09 -1.03221E-09 -1.07788E-09 -1.12503E-09 -1.27060E-09 -5.27320E-10
  -1.08375E-09 -8.48058E-10 -4.87745E-10 -1.50657E-09 -5.05048E-10 -1.02498E-09 -5.06680E-10 -9.39504E-10 -8.17511E-10 -1.22789E-09
  -7.62308E-10 -6.97303E-10 -7.05381E-10
 NY points of the fit to the data follow
   1.32042E-08  1.38330E-08  1.34756E-08  1.28804E-08  1.27456E-08  1.27402E-08  1.23214E-08  1.14873E-08  1.07747E-08  1.07046E-08
   1.11266E-08  1.17274E-08  1.23132E-08  1.27772E-08  1.31354E-08  1.32376E-08  1.31502E-08  1.31117E-08  1.29200E-08  1.22512E-08
   1.15744E-08  1.11199E-08  1.07169E-08  1.04011E-08  1.05618E-08  1.12154E-08  1.20991E-08  1.28197E-08  1.30913E-08  1.29775E-08
   1.29792E-08  1.29868E-08  1.29832E-08  1.28155E-08  1.22814E-08  1.15346E-08  1.09582E-08  1.04859E-08  1.01139E-08  9.83017E-09
   9.58964E-09  9.31758E-09  8.93888E-09  8.50808E-09  8.19973E-09  7.92735E-09  7.67386E-09  7.44793E-09  7.25271E-09  7.08971E-09
   6.93497E-09  6.78288E-09  6.61975E-09  6.45272E-09  6.42754E-09  6.67943E-09  6.99449E-09  7.41109E-09  8.01060E-09  8.64175E-09
   9.17049E-09  9.62705E-09  9.97568E-09  1.01669E-08  1.01063E-08  9.80086E-09  9.43483E-09  9.03420E-09  8.42762E-09  7.93461E-09
   7.64063E-09  7.53932E-09  7.64760E-09  7.85933E-09  8.14375E-09  8.60185E-09  9.57094E-09  1.08887E-08  1.22090E-08  1.32209E-08
   1.38184E-08  1.40178E-08  1.39264E-08  1.38560E-08  1.36746E-08  1.30310E-08  1.20253E-08  1.09131E-08  1.01730E-08  9.64364E-09
   9.23355E-09  8.90008E-09  8.61576E-09  8.36646E-09  8.14020E-09  7.93610E-09  7.75493E-09  7.58830E-09  7.42684E-09  7.26881E-09
   7.12731E-09  7.00112E-09  6.87906E-09  6.75867E-09  6.64537E-09  6.53846E-09  6.43666E-09  6.33913E-09  6.24494E-09  6.15369E-09
   6.06511E-09  5.97879E-09  5.89446E-09  5.81184E-09  5.73073E-09  5.65092E-09  5.57226E-09  5.49457E-09  5.41771E-09  5.34160E-09
   5.26606E-09  5.19107E-09  5.11648E-09  5.04224E-09  4.96827E-09  4.89450E-09  4.82084E-09  4.74730E-09  4.67378E-09  4.60025E-09
   4.52667E-09  4.45297E-09  4.37917E-09  4.30520E-09  4.23104E-09  4.15665E-09  4.08207E-09  4.00722E-09  3.93212E-09  3.85673E-09
   3.78108E-09  3.70516E-09  3.62898E-09  3.55252E-09  3.47586E-09  3.39899E-09  3.32197E-09  3.24491E-09  3.16791E-09  3.09111E-09
   3.01468E-09  2.93884E-09  2.86382E-09  2.78997E-09  2.71771E-09  2.64759E-09  2.58038E-09  2.51713E-09  2.45938E-09  2.40940E-09
   2.37075E-09  2.34935E-09  2.35568E-09  2.41035E-09  2.56009E-09  2.93806E-09  4.10689E-09  8.14363E-09  1.33905E-08  1.77550E-08
   2.01091E-08  2.05498E-08  1.99133E-08  1.89890E-08  1.79583E-08  1.62597E-08  1.30724E-08  8.28429E-09  3.51622E-09  1.85871E-09
   1.24751E-09  9.10984E-10  6.82620E-10  5.07782E-10  3.63366E-10  2.37973E-10  1.25363E-10  2.18637E-11 -7.48839E-11 -1.66365E-10
  -2.53580E-10 -3.37278E-10 -4.17937E-10 -4.95933E-10 -5.71502E-10 -6.44864E-10 -7.16175E-10 -7.85498E-10 -8.52931E-10 -9.18550E-10
  -9.82378E-10 -1.04444E-09 -1.10475E-09 -1.16333E-09 -1.22019E-09 -1.27530E-09 -1.32867E-09 -1.38030E-09 -1.43018E-09 -1.47827E-09
  -1.52459E-09 -1.56910E-09 -1.61180E-09 -1.65266E-09 -1.69169E-09 -1.72883E-09 -1.76409E-09 -1.79747E-09 -1.82891E-09 -1.85847E-09
  -1.88618E-09 -1.91208E-09 -1.93620E-09 -1.95859E-09 -1.97927E-09 -1.99830E-09 -2.01571E-09 -2.03153E-09 -2.04581E-09 -2.05857E-09
  -2.06987E-09 -2.07973E-09 -2.08820E-09 -2.09531E-09 -2.10110E-09 -2.10561E-09 -2.10887E-09 -2.11093E-09 -2.11181E-09 -2.11156E-09
  -2.11020E-09 -2.10780E-09 -2.10437E-09 -2.09995E-09 -2.09457E-09 -2.08828E-09 -2.08112E-09 -2.07311E-09 -2.06429E-09 -2.05469E-09
  -2.04437E-09 -2.03333E-09 -2.02164E-09 -2.00930E-09 -1.99636E-09 -1.98286E-09 -1.96882E-09 -1.95428E-09 -1.93928E-09 -1.92383E-09
  -1.90798E-09 -1.89177E-09 -1.87521E-09 -1.85834E-09 -1.84119E-09 -1.82379E-09 -1.80617E-09 -1.78835E-09 -1.77038E-09 -1.75226E-09
  -1.73404E-09 -1.71574E-09 -1.69738E-09 -1.67899E-09 -1.66060E-09 -1.64223E-09 -1.62390E-09 -1.60565E-09 -1.58748E-09 -1.56943E-09
  -1.55153E-09 -1.53377E-09 -1.51620E-09 -1.49883E-09 -1.48167E-09 -1.46475E-09 -1.44809E-09 -1.43169E-09 -1.41559E-09 -1.39980E-09
  -1.38432E-09 -1.36917E-09 -1.35433E-09 -1.33981E-09 -1.32560E-09 -1.31168E-09 -1.29806E-09 -1.28472E-09 -1.27166E-09 -1.25887E-09
  -1.24634E-09 -1.23407E-09 -1.22206E-09 -1.21029E-09 -1.19876E-09 -1.18746E-09 -1.17639E-09 -1.16555E-09 -1.15492E-09 -1.14449E-09
  -1.13428E-09 -1.12426E-09 -1.11444E-09 -1.10480E-09 -1.09535E-09 -1.08607E-09 -1.07698E-09 -1.06804E-09 -1.05928E-09 -1.05067E-09
  -1.04222E-09 -1.03392E-09 -1.02577E-09 -1.01776E-09 -1.00989E-09 -1.00216E-09 -9.94560E-10 -9.87089E-10 -9.79747E-10 -9.72526E-10
  -9.65426E-10 -9.58444E-10 -9.51576E-10 -9.44820E-10 -9.38177E-10 -9.31641E-10 -9.25212E-10 -9.18887E-10 -9.12668E-10 -9.06546E-10
  -9.00529E-10 -8.94609E-10 -8.88790E-10 -8.83069E-10 -8.77441E-10 -8.71915E-10 -8.66484E-10 -8.61151E-10 -8.55913E-10 -8.50774E-10
  -8.45733E-10 -8.40789E-10 -8.35946E-10 -8.31202E-10 -8.26560E-10 -8.22021E-10 -8.17589E-10 -8.13261E-10 -8.09042E-10 -8.04935E-10
  -8.00939E-10 -7.97060E-10 -7.93300E-10
 NY background values follow
     2.758E-09    2.814E-09    2.869E-09    2.923E-09    2.977E-09    3.029E-09    3.080E-09    3.131E-09    3.181E-09    3.230E-09
     3.278E-09    3.325E-09    3.371E-09    3.416E-09    3.461E-09    3.504E-09    3.547E-09    3.589E-09    3.630E-09    3.670E-09
     3.709E-09    3.747E-09    3.785E-09    3.821E-09    3.857E-09    3.892E-09    3.926E-09    3.959E-09    3.991E-09    4.023E-09
     4.053E-09    4.083E-09    4.111E-09    4.139E-09    4.167E-09    4.193E-09    4.218E-09    4.243E-09    4.267E-09    4.290E-09
     4.312E-09    4.333E-09    4.353E-09    4.373E-09    4.392E-09    4.410E-09    4.427E-09    4.444E-09    4.459E-09    4.474E-09
     4.488E-09    4.502E-09    4.514E-09    4.526E-09    4.537E-09    4.547E-09    4.557E-09    4.565E-09    4.573E-09    4.581E-09
     4.587E-09    4.593E-09    4.599E-09    4.603E-09    4.607E-09    4.610E-09    4.612E-09    4.614E-09    4.615E-09    4.616E-09
     4.615E-09    4.615E-09    4.613E-09    4.611E-09    4.608E-09    4.605E-09    4.601E-09    4.596E-09    4.591E-09    4.585E-09
     4.578E-09    4.571E-09    4.563E-09    4.555E-09    4.546E-09    4.536E-09    4.525E-09    4.514E-09    4.502E-09    4.490E-09
     4.477E-09    4.463E-09    4.448E-09    4.433E-09    4.417E-09    4.400E-09    4.383E-09    4.365E-09    4.346E-09    4.327E-09
     4.306E-09    4.285E-09    4.263E-09    4.241E-09    4.218E-09    4.194E-09    4.169E-09    4.143E-09    4.117E-09    4.090E-09
     4.062E-09    4.033E-09    4.003E-09    3.973E-09    3.942E-09    3.910E-09    3.877E-09    3.843E-09    3.808E-09    3.773E-09
     3.737E-09    3.700E-09    3.662E-09    3.623E-09    3.583E-09    3.542E-09    3.501E-09    3.459E-09    3.415E-09    3.371E-09
     3.326E-09    3.280E-09    3.233E-09    3.185E-09    3.136E-09    3.086E-09    3.036E-09    2.984E-09    2.931E-09    2.878E-09
     2.823E-09    2.767E-09    2.711E-09    2.654E-09    2.595E-09    2.536E-09    2.475E-09    2.414E-09    2.352E-09    2.289E-09
     2.225E-09    2.160E-09    2.094E-09    2.028E-09    1.962E-09    1.894E-09    1.826E-09    1.758E-09    1.689E-09    1.619E-09
     1.549E-09    1.479E-09    1.409E-09    1.338E-09    1.267E-09    1.196E-09    1.124E-09    1.053E-09    9.813E-10    9.098E-10
     8.384E-10    7.670E-10    6.957E-10    6.246E-10    5.537E-10    4.830E-10    4.126E-10    3.426E-10    2.730E-10    2.037E-10
     1.350E-10    6.678E-11   -9.220E-13   -6.801E-11   -1.345E-10   -2.002E-10   -2.653E-10   -3.296E-10   -3.931E-10   -4.557E-10
    -5.175E-10   -5.783E-10   -6.382E-10   -6.971E-10   -7.550E-10   -8.117E-10   -8.674E-10   -9.219E-10   -9.752E-10   -1.027E-09
    -1.078E-09   -1.128E-09   -1.176E-09   -1.223E-09   -1.268E-09   -1.312E-09   -1.355E-09   -1.396E-09   -1.435E-09   -1.473E-09
    -1.510E-09   -1.545E-09   -1.578E-09   -1.609E-09   -1.639E-09   -1.667E-09   -1.694E-09   -1.718E-09   -1.741E-09   -1.762E-09
    -1.781E-09   -1.799E-09   -1.815E-09   -1.829E-09   -1.842E-09   -1.853E-09   -1.863E-09   -1.871E-09   -1.878E-09   -1.883E-09
    -1.887E-09   -1.889E-09   -1.891E-09   -1.891E-09   -1.889E-09   -1.887E-09   -1.883E-09   -1.879E-09   -1.873E-09   -1.866E-09
    -1.858E-09   -1.849E-09   -1.839E-09   -1.828E-09   -1.816E-09   -1.804E-09   -1.790E-09   -1.776E-09   -1.761E-09   -1.746E-09
    -1.729E-09   -1.712E-09   -1.695E-09   -1.677E-09   -1.658E-09   -1.639E-09   -1.619E-09   -1.599E-09   -1.579E-09   -1.558E-09
    -1.536E-09   -1.515E-09   -1.493E-09   -1.471E-09   -1.449E-09   -1.426E-09   -1.403E-09   -1.380E-09   -1.357E-09   -1.334E-09
    -1.311E-09   -1.288E-09   -1.265E-09   -1.242E-09   -1.218E-09   -1.195E-09   -1.172E-09   -1.150E-09   -1.127E-09   -1.104E-09
    -1.082E-09   -1.060E-09   -1.038E-09   -1.016E-09   -9.945E-10   -9.733E-10   -9.525E-10   -9.319E-10   -9.116E-10   -8.917E-10
    -8.722E-10   -8.530E-10   -8.342E-10   -8.157E-10   -7.976E-10   -7.798E-10   -7.623E-10   -7.452E-10   -7.283E-10   -7.118E-10
    -6.956E-10   -6.797E-10   -6.640E-10   -6.487E-10   -6.336E-10   -6.188E-10   -6.042E-10   -5.899E-10   -5.759E-10   -5.621E-10
    -5.485E-10   -5.352E-10   -5.221E-10   -5.092E-10   -4.966E-10   -4.841E-10   -4.719E-10   -4.598E-10   -4.480E-10   -4.363E-10
    -4.249E-10   -4.136E-10   -4.025E-10   -3.916E-10   -3.808E-10   -3.702E-10   -3.598E-10   -3.495E-10   -3.394E-10   -3.295E-10
    -3.197E-10   -3.100E-10   -3.005E-10   -2.911E-10   -2.819E-10   -2.728E-10   -2.639E-10   -2.551E-10   -2.464E-10   -2.378E-10
    -2.294E-10   -2.211E-10   -2.129E-10   -2.049E-10   -1.970E-10   -1.892E-10   -1.815E-10   -1.740E-10   -1.666E-10   -1.593E-10
    -1.521E-10   -1.451E-10   -1.382E-10   -1.314E-10   -1.248E-10   -1.183E-10   -1.119E-10   -1.056E-10   -9.949E-11   -9.351E-11
    -8.767E-11   -8.197E-11   -7.642E-11
 Glc      Conc. = 4.85E-10
   2.39822E-09  2.64634E-09  2.87222E-09  3.08477E-09  3.26300E-09  3.41533E-09  3.51958E-09  3.58881E-09  3.59857E-09  3.54412E-09
   3.49306E-09  3.45551E-09  3.43089E-09  3.45153E-09  3.57424E-09  3.80479E-09  4.10874E-09  4.43681E-09  4.71597E-09  4.92628E-09
   5.10684E-09  5.26545E-09  5.38434E-09  5.45442E-09  5.43360E-09  5.32335E-09  5.22058E-09  5.16253E-09  5.14272E-09  5.14295E-09
   5.13486E-09  5.11817E-09  5.10733E-09  5.08748E-09  5.05112E-09  5.02268E-09  5.00158E-09  4.97384E-09  4.94538E-09  4.92477E-09
   4.91013E-09  4.89939E-09  4.89161E-09  4.88598E-09  4.88201E-09  4.87929E-09  4.87755E-09  4.87651E-09  4.87600E-09  4.87587E-09
   4.87596E-09  4.87621E-09  4.87648E-09  4.87672E-09  4.87689E-09  4.87688E-09  4.87668E-09  4.87627E-09  4.87553E-09  4.87452E-09
   4.87319E-09  4.87148E-09  4.86941E-09  4.86695E-09  4.86411E-09  4.86083E-09  4.85713E-09  4.85299E-09  4.84841E-09  4.84339E-09
   4.83791E-09  4.83196E-09  4.82558E-09  4.81871E-09  4.81139E-09  4.80359E-09  4.79529E-09  4.78650E-09  4.77720E-09  4.76739E-09
   4.75704E-09  4.74616E-09  4.73474E-09  4.72275E-09  4.71022E-09  4.69711E-09  4.68342E-09  4.66915E-09  4.65429E-09  4.63883E-09
   4.62275E-09  4.60606E-09  4.58874E-09  4.57080E-09  4.55221E-09  4.53297E-09  4.51308E-09  4.49253E-09  4.47131E-09  4.44941E-09
   4.42683E-09  4.40355E-09  4.37958E-09  4.35490E-09  4.32950E-09  4.30338E-09  4.27653E-09  4.24896E-09  4.22064E-09  4.19155E-09
   4.16173E-09  4.13113E-09  4.09975E-09  4.06759E-09  4.03464E-09  4.00090E-09  3.96637E-09  3.93103E-09  3.89486E-09  3.85790E-09
   3.82007E-09  3.78143E-09  3.74194E-09  3.70161E-09  3.66043E-09  3.61838E-09  3.57544E-09  3.53166E-09  3.48699E-09  3.44143E-09
   3.39499E-09  3.34763E-09  3.29939E-09  3.25024E-09  3.20017E-09  3.14916E-09  3.09727E-09  3.04443E-09  2.99067E-09  2.93596E-09
   2.88032E-09  2.82373E-09  2.76621E-09  2.70771E-09  2.64828E-09  2.58790E-09  2.52658E-09  2.46435E-09  2.40126E-09  2.33735E-09
   2.27268E-09  2.20729E-09  2.14122E-09  2.07454E-09  2.00730E-09  1.93958E-09  1.87144E-09  1.80299E-09  1.73433E-09  1.66563E-09
   1.59710E-09  1.52911E-09  1.46223E-09  1.39763E-09  1.33799E-09  1.29114E-09  1.29255E-09  1.45200E-09  1.66089E-09  1.81269E-09
   1.85558E-09  1.80161E-09  1.69737E-09  1.58228E-09  1.46142E-09  1.30145E-09  1.05970E-09  7.36965E-10  4.30271E-10  2.95090E-10
   2.01284E-10  1.19871E-10  4.39569E-11 -2.88115E-11 -9.94775E-11 -1.68547E-10 -2.36276E-10 -3.02787E-10 -3.68206E-10 -4.32546E-10
  -4.95803E-10 -5.58015E-10 -6.19149E-10 -6.79198E-10 -7.38113E-10 -7.95895E-10 -8.52527E-10 -9.07938E-10 -9.62118E-10 -1.01505E-09
  -1.06670E-09 -1.11702E-09 -1.16598E-09 -1.21356E-09 -1.25974E-09 -1.30445E-09 -1.34769E-09 -1.38943E-09 -1.42964E-09 -1.46826E-09
  -1.50532E-09 -1.54074E-09 -1.57451E-09 -1.60661E-09 -1.63702E-09 -1.66569E-09 -1.69262E-09 -1.71778E-09 -1.74114E-09 -1.76274E-09
  -1.78259E-09 -1.80075E-09 -1.81723E-09 -1.83208E-09 -1.84533E-09 -1.85701E-09 -1.86717E-09 -1.87582E-09 -1.88302E-09 -1.88880E-09
  -1.89319E-09 -1.89622E-09 -1.89794E-09 -1.89837E-09 -1.89756E-09 -1.89555E-09 -1.89235E-09 -1.88802E-09 -1.88259E-09 -1.87609E-09
  -1.86855E-09 -1.86003E-09 -1.85054E-09 -1.84013E-09 -1.82883E-09 -1.81667E-09 -1.80369E-09 -1.78993E-09 -1.77542E-09 -1.76019E-09
  -1.74429E-09 -1.72773E-09 -1.71056E-09 -1.69281E-09 -1.67450E-09 -1.65570E-09 -1.63640E-09 -1.61665E-09 -1.59649E-09 -1.57594E-09
  -1.55503E-09 -1.53381E-09 -1.51229E-09 -1.49050E-09 -1.46848E-09 -1.44626E-09 -1.42387E-09 -1.40132E-09 -1.37866E-09 -1.35591E-09
  -1.33309E-09 -1.31023E-09 -1.28737E-09 -1.26451E-09 -1.24170E-09 -1.21894E-09 -1.19628E-09 -1.17372E-09 -1.15130E-09 -1.12903E-09
  -1.10694E-09 -1.08505E-09 -1.06338E-09 -1.04194E-09 -1.02076E-09 -9.99862E-10 -9.79256E-10 -9.58950E-10 -9.38977E-10 -9.19346E-10
  -9.00067E-10 -8.81156E-10 -8.62598E-10 -8.44390E-10 -8.26520E-10 -8.08989E-10 -7.91779E-10 -7.74892E-10 -7.58316E-10 -7.42046E-10
  -7.26076E-10 -7.10397E-10 -6.95005E-10 -6.79892E-10 -6.65050E-10 -6.50474E-10 -6.36161E-10 -6.22102E-10 -6.08290E-10 -5.94720E-10
  -5.81387E-10 -5.68284E-10 -5.55409E-10 -5.42751E-10 -5.30309E-10 -5.18076E-10 -5.06049E-10 -4.94219E-10 -4.82585E-10 -4.71142E-10
  -4.59886E-10 -4.48807E-10 -4.37908E-10 -4.27183E-10 -4.16625E-10 -4.06231E-10 -3.96003E-10 -3.85931E-10 -3.76017E-10 -3.66251E-10
  -3.56636E-10 -3.47167E-10 -3.37840E-10 -3.28654E-10 -3.19609E-10 -3.10698E-10 -3.01923E-10 -2.93279E-10 -2.84768E-10 -2.76382E-10
  -2.68128E-10 -2.59997E-10 -2.51995E-10 -2.44118E-10 -2.36360E-10 -2.28732E-10 -2.21224E-10 -2.13841E-10 -2.06580E-10 -1.99444E-10
  -1.92432E-10 -1.85543E-10 -1.78781E-10 -1.72144E-10 -1.65636E-10 -1.59255E-10 -1.53007E-10 -1.46890E-10 -1.40906E-10 -1.35059E-10
  -1.29349E-10 -1.23780E-10 -1.18356E-10
 Gln      Conc. = 1.91E-09
   1.41174E-09  1.75235E-09  2.20389E-09  2.73409E-09  3.28287E-09  3.78798E-09  4.19820E-09  4.48328E-09  4.65195E-09  4.79261E-09
   4.75181E-09  4.62091E-09  4.52010E-09  4.31859E-09  4.17040E-09  4.06923E-09  3.99776E-09  3.94591E-09  3.90771E-09  3.87933E-09
   3.85819E-09  3.84246E-09  3.83079E-09  3.82226E-09  3.81626E-09  3.81224E-09  3.80943E-09  3.80759E-09  3.80639E-09  3.80536E-09
   3.80424E-09  3.80279E-09  3.80081E-09  3.79812E-09  3.79451E-09  3.78984E-09  3.78389E-09  3.77648E-09  3.76738E-09  3.75637E-09
   3.74329E-09  3.72789E-09  3.71008E-09  3.68959E-09  3.66601E-09  3.63900E-09  3.60812E-09  3.57221E-09  3.53136E-09  3.48608E-09
   3.43498E-09  3.37898E-09  3.32326E-09  3.28850E-09  3.39237E-09  3.73870E-09  4.13198E-09  4.61486E-09  5.29163E-09  6.04432E-09
   6.72399E-09  7.31497E-09  7.76307E-09  8.00951E-09  8.01264E-09  7.79084E-09  7.48938E-09  7.13937E-09  6.55216E-09  6.01908E-09
   5.65915E-09  5.44461E-09  5.39649E-09  5.48705E-09  5.75800E-09  6.21892E-09  6.72187E-09  7.23413E-09  7.71826E-09  8.12971E-09
   8.43164E-09  8.56084E-09  8.47799E-09  8.34259E-09  8.12839E-09  7.72353E-09  7.36522E-09  7.07490E-09  6.74047E-09  6.46633E-09
   6.25419E-09  6.08288E-09  5.94025E-09  5.81760E-09  5.70889E-09  5.61153E-09  5.52331E-09  5.44219E-09  5.36706E-09  5.29691E-09
   5.23065E-09  5.16748E-09  5.10694E-09  5.04869E-09  4.99241E-09  4.93774E-09  4.88437E-09  4.83208E-09  4.78067E-09  4.72994E-09
   4.67982E-09  4.63011E-09  4.58072E-09  4.53154E-09  4.48250E-09  4.43350E-09  4.38449E-09  4.33538E-09  4.28610E-09  4.23664E-09
   4.18689E-09  4.13687E-09  4.08648E-09  4.03571E-09  3.98453E-09  3.93288E-09  3.88074E-09  3.82811E-09  3.77493E-09  3.72118E-09
   3.66686E-09  3.61191E-09  3.55635E-09  3.50014E-09  3.44326E-09  3.38569E-09  3.32746E-09  3.26850E-09  3.20883E-09  3.14841E-09
   3.08727E-09  3.02538E-09  2.96274E-09  2.89933E-09  2.83517E-09  2.77025E-09  2.70457E-09  2.63820E-09  2.57117E-09  2.50354E-09
   2.43538E-09  2.36675E-09  2.29773E-09  2.22843E-09  2.15895E-09  2.08943E-09  2.02006E-09  1.95109E-09  1.88284E-09  1.81582E-09
   1.75077E-09  1.68894E-09  1.63253E-09  1.58587E-09  1.55890E-09  1.58044E-09  1.77568E-09  2.59435E-09  3.62850E-09  4.45141E-09
   4.84727E-09  4.85449E-09  4.65460E-09  4.40736E-09  4.13994E-09  3.72570E-09  2.99316E-09  1.93186E-09  9.03503E-10  5.55922E-10
   3.85106E-10  2.64225E-10  1.64084E-10  7.47312E-11 -8.15635E-12 -8.67303E-11 -1.62161E-10 -2.35118E-10 -3.06074E-10 -3.75273E-10
  -4.42869E-10 -5.09011E-10 -5.73748E-10 -6.37134E-10 -6.99167E-10 -7.59883E-10 -8.19291E-10 -8.77344E-10 -9.34048E-10 -9.89406E-10
  -1.04338E-09 -1.09595E-09 -1.14709E-09 -1.19678E-09 -1.24501E-09 -1.29172E-09 -1.33691E-09 -1.38055E-09 -1.42262E-09 -1.46305E-09
  -1.50189E-09 -1.53905E-09 -1.57453E-09 -1.60830E-09 -1.64037E-09 -1.67065E-09 -1.69917E-09 -1.72590E-09 -1.75080E-09 -1.77391E-09
  -1.79525E-09 -1.81487E-09 -1.83280E-09 -1.84908E-09 -1.86373E-09 -1.87680E-09 -1.88832E-09 -1.89832E-09 -1.90685E-09 -1.91394E-09
