 LCModel (Version 6.3-1R) Copyright: S.W. Provencher.          Ref.: Magn. Reson. Med. 30:672-679 (1993).                
 onepulse 21x20_ftSpec_smooth_lcm
 26 lines in following concentration table = NCONC+1
    Conc.  %SD   /Cr    Metabolite                                         
 3.76E-11 498%   0.000 Ala                                                 
 4.99E-10  78%   0.000 Asp                                                 
    0.000 999%   0.000 Cr                                                  
 2.60E-09  14%   0.000 GABA                                                
 1.85E-09  17%   0.000 Glc                                                 
    0.000 999%   0.000 Gln                                                 
 3.75E-10 107%   0.000 Glu                                                 
    0.000 999%   0.000 Glyc                                                
    0.000 999%   0.000 GPC                                                 
 1.90E-10 110%   0.000 GSH                                                 
 2.94E-10  74%   0.000 Ins                                                 
    0.000 999%   0.000 Lac                                                 
    0.000 999%   0.000 NAAG                                                
 1.03E-09  16%   0.000 NAA                                                 
 9.75E-11  53%   0.000 PCh                                                 
    0.000 999%   0.000 PCr                                                 
    0.000 999%   0.000 PE                                                  
    0.000 999%   0.000 Scyllo                                              
    0.000 999%   0.000 Ser                                                 
    0.000 999%   0.000 Tau                                                 
 9.75E-11  53%   0.000 GPC+PCh                                             
 1.03E-09  16%   0.000 NAA+NAAG                                            
 2.94E-10  74%   0.000 Ins+Glyc                                            
    0.000 999%   0.000 Cr+PCr                                              
 3.75E-10 107%   0.000 Glu+Gln                                             
   6 lines in following misc. output table
  FWHM = 0.067 ppm    S/N =   4                                            
  Data shift = 0.324 ppm                                                   
  Ph:  37 deg      27.7 deg/ppm                                            
  alphaB,S = 1.7E-01,   7.9E+01                                            
   16 spline knots.   Ns = 5(1)                                            
  ( 7) 2 infls.   ( 3) 1 extrs.                                            
  363 points on ppm-axis = NY
      4.250000     4.238821     4.227641     4.216462     4.205282     4.194103     4.182923     4.171744     4.160564     4.149385
      4.138206     4.127026     4.115847     4.104667     4.093488     4.082308     4.071129     4.059949     4.048770     4.037591
      4.026411     4.015232     4.004052     3.992873     3.981693     3.970514     3.959334     3.948155     3.936975     3.925796
      3.914617     3.903437     3.892258     3.881078     3.869899     3.858719     3.847540     3.836360     3.825181     3.814002
      3.802822     3.791643     3.780463     3.769284     3.758104     3.746925     3.735745     3.724566     3.713387     3.702207
      3.691028     3.679848     3.668669     3.657489     3.646310     3.635130     3.623951     3.612772     3.601592     3.590413
      3.579233     3.568054     3.556874     3.545695     3.534515     3.523336     3.512156     3.500977     3.489798     3.478618
      3.467439     3.456259     3.445080     3.433900     3.422721     3.411541     3.400362     3.389183     3.378003     3.366824
      3.355644     3.344465     3.333285     3.322106     3.310926     3.299747     3.288568     3.277388     3.266209     3.255029
      3.243850     3.232670     3.221491     3.210311     3.199132     3.187953     3.176773     3.165594     3.154414     3.143235
      3.132055     3.120876     3.109696     3.098517     3.087337     3.076158     3.064979     3.053799     3.042620     3.031440
      3.020261     3.009081     2.997902     2.986722     2.975543     2.964364     2.953184     2.942005     2.930825     2.919646
      2.908466     2.897287     2.886107     2.874928     2.863749     2.852569     2.841390     2.830210     2.819031     2.807851
      2.796672     2.785492     2.774313     2.763134     2.751954     2.740775     2.729595     2.718416     2.707236     2.696057
      2.684877     2.673698     2.662519     2.651339     2.640160     2.628980     2.617801     2.606621     2.595442     2.584262
      2.573083     2.561903     2.550724     2.539545     2.528365     2.517186     2.506006     2.494827     2.483647     2.472468
      2.461288     2.450109     2.438930     2.427750     2.416571     2.405391     2.394212     2.383032     2.371853     2.360673
      2.349494     2.338315     2.327135     2.315956     2.304776     2.293597     2.282417     2.271238     2.260058     2.248879
      2.237700     2.226520     2.215341     2.204161     2.192982     2.181802     2.170623     2.159443     2.148264     2.137084
      2.125905     2.114726     2.103546     2.092367     2.081187     2.070008     2.058828     2.047649     2.036469     2.025290
      2.014111     2.002931     1.991752     1.980572     1.969393     1.958213     1.947034     1.935854     1.924675     1.913496
      1.902316     1.891137     1.879957     1.868778     1.857598     1.846419     1.835239     1.824060     1.812881     1.801701
      1.790522     1.779342     1.768163     1.756983     1.745804     1.734624     1.723445     1.712265     1.701086     1.689907
      1.678727     1.667548     1.656368     1.645189     1.634009     1.622830     1.611650     1.600471     1.589292     1.578112
      1.566933     1.555753     1.544574     1.533394     1.522215     1.511035     1.499856     1.488677     1.477497     1.466318
      1.455138     1.443959     1.432779     1.421600     1.410420     1.399241     1.388062     1.376882     1.365703     1.354523
      1.343344     1.332164     1.320985     1.309805     1.298626     1.287446     1.276267     1.265088     1.253908     1.242729
      1.231549     1.220370     1.209190     1.198011     1.186831     1.175652     1.164473     1.153293     1.142114     1.130934
      1.119755     1.108575     1.097396     1.086216     1.075037     1.063858     1.052678     1.041499     1.030319     1.019140
      1.007960     0.996781     0.985601     0.974422     0.963243     0.952063     0.940884     0.929704     0.918525     0.907345
      0.896166     0.884986     0.873807     0.862628     0.851448     0.840269     0.829089     0.817910     0.806730     0.795551
      0.784371     0.773192     0.762012     0.750833     0.739654     0.728474     0.717295     0.706115     0.694936     0.683756
      0.672577     0.661397     0.650218     0.639039     0.627859     0.616680     0.605500     0.594321     0.583141     0.571962
      0.560782     0.549603     0.538424     0.527244     0.516065     0.504885     0.493706     0.482526     0.471347     0.460167
      0.448988     0.437809     0.426629     0.415450     0.404270     0.393091     0.381911     0.370732     0.359552     0.348373
      0.337193     0.326014     0.314835     0.303655     0.292476     0.281296     0.270117     0.258937     0.247758     0.236578
      0.225399     0.214220     0.203040
 NY phased data points follow
   2.62555E-09  4.69042E-09  7.83928E-09  9.34875E-09  1.14729E-08  1.05724E-08  9.25283E-09  8.22853E-09  7.21053E-09  5.93317E-09
   6.17474E-09  5.45685E-09  5.78622E-09  5.80473E-09  6.89425E-09  6.60254E-09  7.18496E-09  7.99987E-09  8.56610E-09  8.07049E-09
   7.97183E-09  7.66054E-09  7.67240E-09  7.56946E-09  6.46192E-09  6.56846E-09  6.55243E-09  7.73513E-09  7.94398E-09  7.92677E-09
   7.33898E-09  6.37871E-09  6.52822E-09  7.29669E-09  8.41253E-09  1.02390E-08  1.04965E-08  1.01577E-08  8.70697E-09  7.21920E-09
   6.17841E-09  5.43846E-09  5.49505E-09  4.18014E-09  5.41629E-09  4.66653E-09  4.35937E-09  4.69367E-09  4.88533E-09  3.62558E-09
   3.15021E-09  3.11050E-09  3.92056E-09  3.56525E-09  4.58249E-09  4.28717E-09  4.08585E-09  3.10487E-09  3.53110E-09  2.99899E-09
   3.21566E-09  4.43473E-09  4.90088E-09  5.20855E-09  6.53485E-09  8.51996E-09  1.05706E-08  1.20243E-08  1.06490E-08  8.75442E-09
   7.02836E-09  5.40741E-09  5.04811E-09  4.41498E-09  3.08728E-09  3.37438E-09  3.36582E-09  2.68330E-09  3.46690E-09  3.81586E-09
   4.94382E-09  8.00109E-09  1.17220E-08  1.44935E-08  1.32919E-08  1.07833E-08  9.72608E-09  7.92960E-09  7.63170E-09  6.60202E-09
   6.25914E-09  6.10108E-09  5.02449E-09  5.59753E-09  5.39980E-09  4.51760E-09  4.11158E-09  3.46690E-09  4.04066E-09  2.96641E-09
   2.57073E-09  2.99273E-09  3.18390E-09  3.38526E-09  3.32836E-09  3.79161E-09  3.07140E-09  3.31477E-09  3.74524E-09  3.16711E-09
   3.13840E-09  2.67080E-09  2.10831E-09  1.91134E-09  2.76553E-09  2.89621E-09  3.70983E-09  2.97094E-09  4.01563E-09  3.87779E-09
   3.84747E-09  3.72078E-09  3.69093E-09  3.58916E-09  3.09441E-09  2.42426E-09  2.03958E-09  2.17597E-09  2.16040E-09  1.73603E-09
   2.08227E-09  3.35176E-09  2.77490E-09  2.65624E-09  3.28811E-09  3.73225E-09  2.97069E-09  2.96943E-09  2.73797E-09  2.71684E-09
   2.84382E-09  3.82199E-09  4.28608E-09  4.93571E-09  5.00558E-09  4.49365E-09  4.13836E-09  4.78122E-09  4.72636E-09  4.85619E-09
   5.27466E-09  4.76954E-09  4.11420E-09  4.48839E-09  4.73376E-09  4.42079E-09  4.48267E-09  4.59020E-09  4.80597E-09  5.06250E-09
   5.86901E-09  5.90867E-09  6.03982E-09  6.08784E-09  6.59853E-09  7.09591E-09  7.52040E-09  7.95280E-09  8.25214E-09  8.91503E-09
   1.10168E-08  1.27459E-08  1.52189E-08  1.71160E-08  1.79340E-08  1.45626E-08  1.13870E-08  7.67319E-09  5.84404E-09  4.31687E-09
   4.81720E-09  3.34600E-09  3.42355E-09  2.14176E-09  2.48836E-09  1.92175E-09  1.54451E-09  1.00679E-09  7.21745E-10  3.47050E-10
  -4.68614E-11 -5.37635E-10 -1.24535E-09 -1.84937E-09 -2.67242E-09 -2.64254E-09 -4.05251E-09 -4.80257E-09 -6.00553E-09 -7.07887E-09
  -7.83680E-09 -8.44858E-09 -1.00846E-08 -1.05322E-08 -1.11246E-08 -1.16193E-08 -1.23112E-08 -1.21230E-08 -1.19171E-08 -1.16891E-08
  -1.12943E-08 -1.08886E-08 -9.09185E-09 -7.76503E-09 -7.29578E-09 -5.46512E-09 -4.47166E-09 -3.37359E-09 -2.91928E-09 -2.13641E-09
  -1.94626E-09 -1.94503E-09 -2.36763E-09 -2.69683E-09 -1.96443E-09 -2.75060E-09 -3.07400E-09 -2.24437E-09 -2.61067E-09 -2.36558E-09
  -2.26770E-09 -2.01373E-09 -1.84830E-09 -2.49719E-09 -1.73087E-09 -2.91587E-09 -2.87710E-09 -2.53080E-09 -2.24207E-09 -2.27467E-09
  -2.61815E-09 -1.58400E-09 -1.36960E-09 -1.59879E-09 -2.01414E-09 -2.42679E-09 -2.07559E-09 -2.43149E-09 -2.36370E-09 -2.31235E-09
  -2.04836E-09 -1.84376E-09 -1.57854E-09 -1.57402E-09 -1.49675E-09 -1.30957E-09 -1.17004E-09 -1.64201E-09 -1.41368E-09 -2.32192E-09
  -1.64795E-09 -1.84308E-09 -2.26819E-09 -3.09170E-09 -2.40845E-09 -2.39890E-09 -1.68646E-09 -1.78206E-09 -1.36621E-09 -1.25322E-09
  -6.94233E-10 -1.04308E-09 -9.94330E-10 -5.80323E-10 -1.16472E-09 -1.18530E-09 -7.07541E-10 -1.28521E-09 -1.40247E-09 -2.27601E-09
  -1.80792E-09 -1.68031E-09 -1.81379E-09 -2.04972E-09 -1.63632E-09 -2.19332E-09 -1.61182E-09 -1.97313E-09 -1.23370E-09 -1.67136E-09
  -9.92603E-10 -1.57728E-09 -1.91020E-09 -1.24695E-09 -1.02193E-09 -1.31277E-09 -1.78097E-09 -1.32879E-09 -1.32236E-09 -1.60875E-09
  -1.75563E-09 -1.10529E-09 -1.30019E-09 -1.57276E-09 -1.23978E-09 -1.10503E-09 -7.85235E-10 -1.41393E-09 -1.11883E-09 -1.14358E-09
  -1.36514E-09 -1.54923E-09 -1.15858E-09 -8.83833E-10 -7.98407E-10 -1.16296E-09 -1.33836E-09 -9.28604E-10 -1.07086E-09 -1.50535E-09
  -7.01486E-10 -1.56715E-09 -1.11200E-09 -1.09891E-09 -1.16892E-09 -8.35315E-10 -1.13844E-09 -1.26456E-09 -6.92182E-10 -1.31029E-09
  -5.50022E-10 -1.03139E-09 -1.15130E-09 -1.47827E-09 -8.53001E-10 -1.06496E-09 -9.20395E-10 -1.38104E-09 -1.27553E-09 -9.25249E-10
  -9.79064E-10 -1.08333E-09 -1.11933E-09 -2.42172E-10 -7.99283E-10 -1.11133E-09 -4.07025E-10 -1.32033E-09 -4.14513E-10 -7.83462E-10
  -5.92242E-10 -7.60698E-10 -1.16748E-09 -6.41127E-10 -8.27087E-10 -6.46479E-10 -6.67929E-10 -1.24268E-09 -8.77332E-10 -8.01071E-10
  -8.45446E-10 -1.02693E-09 -8.89442E-10
 NY points of the fit to the data follow
   5.67546E-09  6.43674E-09  7.30214E-09  8.18130E-09  8.83946E-09  9.07334E-09  8.79952E-09  8.11433E-09  7.29846E-09  6.44763E-09
   5.93901E-09  5.77809E-09  5.82459E-09  6.02893E-09  6.36590E-09  6.74928E-09  7.15961E-09  7.61432E-09  8.07353E-09  8.51644E-09
   8.93899E-09  9.06109E-09  8.68648E-09  7.95577E-09  7.04781E-09  6.18876E-09  5.75561E-09  5.98540E-09  6.61502E-09  7.20479E-09
   7.62679E-09  8.03700E-09  8.26971E-09  8.28768E-09  8.34424E-09  8.59973E-09  8.83926E-09  8.80401E-09  8.46308E-09  7.99432E-09
   7.46738E-09  6.51524E-09  5.53172E-09  4.97447E-09  4.31080E-09  3.63492E-09  3.33849E-09  3.22697E-09  3.29779E-09  3.44722E-09
   3.58821E-09  3.64512E-09  3.62917E-09  3.58129E-09  3.58278E-09  3.68343E-09  3.85662E-09  4.02296E-09  4.07216E-09  4.06553E-09
   4.21364E-09  4.54176E-09  5.05514E-09  5.87621E-09  6.87409E-09  7.71943E-09  8.38025E-09  8.85778E-09  9.07618E-09  8.89781E-09
   8.32222E-09  7.41913E-09  6.42978E-09  5.38959E-09  4.40709E-09  3.96586E-09  3.92453E-09  4.32338E-09  5.07674E-09  6.08087E-09
   7.29623E-09  8.85317E-09  1.05451E-08  1.17566E-08  1.21554E-08  1.16572E-08  1.02942E-08  8.46358E-09  6.84228E-09  6.33489E-09
   6.20752E-09  6.03560E-09  5.63108E-09  5.27355E-09  4.98307E-09  4.49040E-09  4.05083E-09  3.78612E-09  3.52526E-09  3.31222E-09
   3.18685E-09  3.11121E-09  3.07011E-09  3.06139E-09  3.07239E-09  3.09281E-09  3.11537E-09  3.13485E-09  3.14801E-09  3.15253E-09
   3.14945E-09  3.14710E-09  3.15275E-09  3.15146E-09  3.15466E-09  3.17707E-09  3.20619E-09  3.23833E-09  3.27214E-09  3.30690E-09
   3.34218E-09  3.37763E-09  3.41297E-09  3.44797E-09  3.48245E-09  3.51621E-09  3.54910E-09  3.58098E-09  3.61171E-09  3.64115E-09
   3.66917E-09  3.69566E-09  3.72049E-09  3.74355E-09  3.76471E-09  3.78387E-09  3.80093E-09  3.81579E-09  3.82835E-09  3.83853E-09
   3.84620E-09  3.85122E-09  3.85343E-09  3.85268E-09  3.84882E-09  3.84172E-09  3.83123E-09  3.81723E-09  3.79959E-09  3.77824E-09
   3.75311E-09  3.72415E-09  3.69137E-09  3.65482E-09  3.61463E-09  3.57101E-09  3.52435E-09  3.47523E-09  3.42457E-09  3.37384E-09
   3.32542E-09  3.28338E-09  3.25529E-09  3.25702E-09  3.33069E-09  3.64277E-09  4.43166E-09  5.79739E-09  7.58693E-09  9.69632E-09
   1.21996E-08  1.49009E-08  1.71670E-08  1.81639E-08  1.72824E-08  1.44642E-08  1.03021E-08  6.00928E-09  2.84016E-09  1.23899E-09
   5.85692E-10  1.77564E-10 -1.39348E-10 -4.12018E-10 -6.59476E-10 -8.90767E-10 -1.11056E-09 -1.32139E-09 -1.52462E-09 -1.72097E-09
  -1.91074E-09 -2.09399E-09 -2.27059E-09 -2.44030E-09 -2.60282E-09 -2.75777E-09 -2.90489E-09 -3.04425E-09 -3.17601E-09 -3.30032E-09
  -3.41729E-09 -3.52704E-09 -3.62968E-09 -3.72529E-09 -3.81399E-09 -3.89586E-09 -3.97098E-09 -4.03945E-09 -4.10134E-09 -4.15673E-09
  -4.20571E-09 -4.24834E-09 -4.28472E-09 -4.31491E-09 -4.33899E-09 -4.35704E-09 -4.36912E-09 -4.37532E-09 -4.37570E-09 -4.37034E-09
  -4.35931E-09 -4.34268E-09 -4.32052E-09 -4.29292E-09 -4.26000E-09 -4.22205E-09 -4.17937E-09 -4.13225E-09 -4.08100E-09 -4.02590E-09
  -3.96727E-09 -3.90538E-09 -3.84056E-09 -3.77308E-09 -3.70325E-09 -3.63137E-09 -3.55773E-09 -3.48263E-09 -3.40635E-09 -3.32922E-09
  -3.25152E-09 -3.17354E-09 -3.09558E-09 -3.01795E-09 -2.94093E-09 -2.86483E-09 -2.78993E-09 -2.71654E-09 -2.64495E-09 -2.57547E-09
  -2.50837E-09 -2.44398E-09 -2.38240E-09 -2.32358E-09 -2.26744E-09 -2.21390E-09 -2.16286E-09 -2.11425E-09 -2.06798E-09 -2.02398E-09
  -1.98216E-09 -1.94242E-09 -1.90471E-09 -1.86892E-09 -1.83498E-09 -1.80280E-09 -1.77229E-09 -1.74340E-09 -1.71602E-09 -1.69007E-09
  -1.66546E-09 -1.64213E-09 -1.61997E-09 -1.59891E-09 -1.57888E-09 -1.55977E-09 -1.54153E-09 -1.52404E-09 -1.50725E-09 -1.49106E-09
  -1.47542E-09 -1.46033E-09 -1.44574E-09 -1.43165E-09 -1.41805E-09 -1.40490E-09 -1.39220E-09 -1.37992E-09 -1.36804E-09 -1.35655E-09
  -1.34542E-09 -1.33464E-09 -1.32418E-09 -1.31404E-09 -1.30418E-09 -1.29460E-09 -1.28527E-09 -1.27617E-09 -1.26729E-09 -1.25860E-09
  -1.25010E-09 -1.24175E-09 -1.23353E-09 -1.22545E-09 -1.21746E-09 -1.20955E-09 -1.20171E-09 -1.19391E-09 -1.18616E-09 -1.17843E-09
  -1.17075E-09 -1.16310E-09 -1.15548E-09 -1.14789E-09 -1.14033E-09 -1.13279E-09 -1.12529E-09 -1.11780E-09 -1.11034E-09 -1.10290E-09
  -1.09549E-09 -1.08808E-09 -1.08070E-09 -1.07333E-09 -1.06597E-09 -1.05863E-09 -1.05129E-09 -1.04397E-09 -1.03665E-09 -1.02934E-09
  -1.02203E-09 -1.01472E-09 -1.00742E-09 -1.00011E-09 -9.92807E-10 -9.85494E-10 -9.78180E-10 -9.70868E-10 -9.63556E-10 -9.56248E-10
  -9.48945E-10 -9.41649E-10 -9.34362E-10 -9.27085E-10 -9.19824E-10 -9.12573E-10 -9.05344E-10 -8.98131E-10 -8.90941E-10 -8.83771E-10
  -8.76625E-10 -8.69507E-10 -8.62416E-10 -8.55356E-10 -8.48327E-10 -8.41334E-10 -8.34375E-10 -8.27452E-10 -8.20570E-10 -8.13731E-10
  -8.06935E-10 -8.00186E-10 -7.93480E-10
 NY background values follow
    -1.826E-10   -1.717E-10   -1.610E-10   -1.503E-10   -1.396E-10   -1.291E-10   -1.186E-10   -1.082E-10   -9.783E-11   -8.758E-11
    -7.742E-11   -6.735E-11   -5.739E-11   -4.752E-11   -3.777E-11   -2.812E-11   -1.859E-11   -9.178E-12    1.087E-13    9.268E-12
     1.829E-11    2.719E-11    3.593E-11    4.454E-11    5.300E-11    6.130E-11    6.944E-11    7.743E-11    8.524E-11    9.290E-11
     1.004E-10    1.078E-10    1.151E-10    1.223E-10    1.294E-10    1.365E-10    1.436E-10    1.507E-10    1.578E-10    1.649E-10
     1.721E-10    1.794E-10    1.868E-10    1.944E-10    2.021E-10    2.099E-10    2.180E-10    2.262E-10    2.347E-10    2.435E-10
     2.525E-10    2.618E-10    2.715E-10    2.814E-10    2.918E-10    3.025E-10    3.136E-10    3.252E-10    3.372E-10    3.497E-10
     3.627E-10    3.762E-10    3.903E-10    4.050E-10    4.204E-10    4.364E-10    4.531E-10    4.705E-10    4.887E-10    5.076E-10
     5.274E-10    5.480E-10    5.694E-10    5.918E-10    6.150E-10    6.393E-10    6.645E-10    6.907E-10    7.180E-10    7.463E-10
     7.757E-10    8.063E-10    8.380E-10    8.709E-10    9.050E-10    9.404E-10    9.768E-10    1.014E-09    1.053E-09    1.093E-09
     1.134E-09    1.175E-09    1.218E-09    1.261E-09    1.305E-09    1.350E-09    1.395E-09    1.442E-09    1.488E-09    1.536E-09
     1.584E-09    1.632E-09    1.681E-09    1.730E-09    1.779E-09    1.829E-09    1.879E-09    1.929E-09    1.979E-09    2.030E-09
     2.080E-09    2.130E-09    2.181E-09    2.231E-09    2.281E-09    2.330E-09    2.379E-09    2.428E-09    2.476E-09    2.523E-09
     2.570E-09    2.615E-09    2.660E-09    2.703E-09    2.745E-09    2.786E-09    2.825E-09    2.863E-09    2.899E-09    2.933E-09
     2.966E-09    2.996E-09    3.025E-09    3.051E-09    3.076E-09    3.098E-09    3.117E-09    3.134E-09    3.148E-09    3.160E-09
     3.168E-09    3.174E-09    3.177E-09    3.176E-09    3.172E-09    3.163E-09    3.152E-09    3.135E-09    3.115E-09    3.090E-09
     3.061E-09    3.027E-09    2.988E-09    2.944E-09    2.894E-09    2.839E-09    2.778E-09    2.711E-09    2.639E-09    2.560E-09
     2.474E-09    2.382E-09    2.283E-09    2.178E-09    2.065E-09    1.945E-09    1.817E-09    1.681E-09    1.538E-09    1.388E-09
     1.231E-09    1.067E-09    8.976E-10    7.231E-10    5.440E-10    3.608E-10    1.741E-10   -1.570E-11   -2.079E-10   -4.020E-10
    -5.975E-10   -7.937E-10   -9.903E-10   -1.187E-09   -1.382E-09   -1.576E-09   -1.768E-09   -1.958E-09   -2.145E-09   -2.328E-09
    -2.507E-09   -2.681E-09   -2.850E-09   -3.014E-09   -3.171E-09   -3.321E-09   -3.464E-09   -3.600E-09   -3.729E-09   -3.850E-09
    -3.965E-09   -4.073E-09   -4.173E-09   -4.267E-09   -4.354E-09   -4.434E-09   -4.508E-09   -4.575E-09   -4.636E-09   -4.690E-09
    -4.738E-09   -4.780E-09   -4.815E-09   -4.844E-09   -4.868E-09   -4.885E-09   -4.896E-09   -4.902E-09   -4.901E-09   -4.895E-09
    -4.884E-09   -4.867E-09   -4.844E-09   -4.816E-09   -4.782E-09   -4.744E-09   -4.701E-09   -4.653E-09   -4.601E-09   -4.546E-09
    -4.487E-09   -4.424E-09   -4.359E-09   -4.291E-09   -4.221E-09   -4.149E-09   -4.074E-09   -3.999E-09   -3.922E-09   -3.845E-09
    -3.767E-09   -3.688E-09   -3.610E-09   -3.532E-09   -3.455E-09   -3.378E-09   -3.303E-09   -3.229E-09   -3.158E-09   -3.088E-09
    -3.020E-09   -2.956E-09   -2.894E-09   -2.835E-09   -2.778E-09   -2.724E-09   -2.673E-09   -2.624E-09   -2.578E-09   -2.533E-09
    -2.491E-09   -2.451E-09   -2.413E-09   -2.377E-09   -2.343E-09   -2.311E-09   -2.280E-09   -2.251E-09   -2.223E-09   -2.197E-09
    -2.172E-09   -2.149E-09   -2.126E-09   -2.105E-09   -2.085E-09   -2.065E-09   -2.047E-09   -2.029E-09   -2.012E-09   -1.996E-09
    -1.980E-09   -1.964E-09   -1.950E-09   -1.935E-09   -1.921E-09   -1.908E-09   -1.895E-09   -1.883E-09   -1.871E-09   -1.859E-09
    -1.848E-09   -1.837E-09   -1.826E-09   -1.816E-09   -1.805E-09   -1.796E-09   -1.786E-09   -1.777E-09   -1.768E-09   -1.759E-09
    -1.750E-09   -1.742E-09   -1.733E-09   -1.725E-09   -1.717E-09   -1.709E-09   -1.701E-09   -1.693E-09   -1.685E-09   -1.677E-09
    -1.669E-09   -1.661E-09   -1.653E-09   -1.645E-09   -1.638E-09   -1.630E-09   -1.622E-09   -1.614E-09   -1.607E-09   -1.599E-09
    -1.592E-09   -1.584E-09   -1.576E-09   -1.569E-09   -1.561E-09   -1.554E-09   -1.546E-09   -1.539E-09   -1.531E-09   -1.524E-09
    -1.516E-09   -1.509E-09   -1.501E-09   -1.494E-09   -1.486E-09   -1.479E-09   -1.471E-09   -1.464E-09   -1.456E-09   -1.449E-09
    -1.441E-09   -1.434E-09   -1.426E-09   -1.419E-09   -1.411E-09   -1.404E-09   -1.396E-09   -1.389E-09   -1.381E-09   -1.374E-09
    -1.367E-09   -1.359E-09   -1.352E-09   -1.345E-09   -1.338E-09   -1.330E-09   -1.323E-09   -1.316E-09   -1.309E-09   -1.302E-09
    -1.295E-09   -1.288E-09   -1.281E-09
 Ala      Conc. = 3.76E-11
  -1.58809E-10 -1.44458E-10 -1.30934E-10 -1.18125E-10 -1.06206E-10 -9.51396E-11 -8.55004E-11 -7.79449E-11 -7.01402E-11 -6.21184E-11
  -5.66527E-11 -5.06901E-11 -4.29532E-11 -3.58429E-11 -2.85539E-11 -2.04307E-11 -1.19271E-11 -3.25610E-12  5.47424E-12  1.42007E-11
   2.28828E-11  3.14935E-11  4.00109E-11  4.84218E-11  5.67143E-11  6.48753E-11  7.28987E-11  8.07769E-11  8.85021E-11  9.60743E-11
   1.03511E-10  1.10831E-10  1.18055E-10  1.25203E-10  1.32295E-10  1.39351E-10  1.46393E-10  1.53440E-10  1.60514E-10  1.67635E-10
   1.74824E-10  1.82102E-10  1.89489E-10  1.97007E-10  2.04675E-10  2.12517E-10  2.20552E-10  2.28800E-10  2.37285E-10  2.46025E-10
   2.55043E-10  2.64359E-10  2.73994E-10  2.83970E-10  2.94305E-10  3.05025E-10  3.16148E-10  3.27699E-10  3.39706E-10  3.52199E-10
   3.65207E-10  3.78759E-10  3.92885E-10  4.07614E-10  4.22976E-10  4.39000E-10  4.55715E-10  4.73151E-10  4.91337E-10  5.10303E-10
   5.30078E-10  5.50692E-10  5.72175E-10  5.94555E-10  6.17863E-10  6.42129E-10  6.67382E-10  6.93652E-10  7.20970E-10  7.49365E-10
   7.78868E-10  8.09510E-10  8.41320E-10  8.74332E-10  9.08575E-10  9.44046E-10  9.80703E-10  1.01850E-09  1.05741E-09  1.09738E-09
   1.13839E-09  1.18039E-09  1.22337E-09  1.26732E-09  1.31223E-09  1.35815E-09  1.40518E-09  1.45356E-09  1.50391E-09  1.55833E-09
   1.62054E-09  1.68325E-09  1.74887E-09  1.82528E-09  1.90591E-09  1.98408E-09  2.05514E-09  2.11590E-09  2.16472E-09  2.20058E-09
   2.22531E-09  2.24764E-09  2.27520E-09  2.29339E-09  2.31396E-09  2.35210E-09  2.39553E-09  2.44074E-09  2.48648E-09  2.53215E-09
   2.57741E-09  2.62201E-09  2.66577E-09  2.70853E-09  2.75016E-09  2.79053E-09  2.82953E-09  2.86704E-09  2.90296E-09  2.93717E-09
   2.96957E-09  3.00006E-09  3.02853E-09  3.05488E-09  3.07901E-09  3.10082E-09  3.12020E-09  3.13706E-09  3.15129E-09  3.16280E-09
   3.17146E-09  3.17714E-09  3.17965E-09  3.17881E-09  3.17444E-09  3.16636E-09  3.15438E-09  3.13834E-09  3.11804E-09  3.09331E-09
   3.06397E-09  3.02984E-09  2.99074E-09  2.94649E-09  2.89692E-09  2.84183E-09  2.78107E-09  2.71444E-09  2.64179E-09  2.56292E-09
   2.47767E-09  2.38589E-09  2.28742E-09  2.18214E-09  2.06999E-09  1.95114E-09  1.82687E-09  1.70049E-09  1.56767E-09  1.42861E-09
   1.28566E-09  1.13918E-09  9.86131E-10  8.21412E-10  6.40819E-10  4.43962E-10  2.34075E-10  1.76764E-11 -1.94914E-10 -3.94572E-10
  -5.92131E-10 -7.89464E-10 -9.86632E-10 -1.18330E-09 -1.37901E-09 -1.57328E-09 -1.76558E-09 -1.95538E-09 -2.14215E-09 -2.32534E-09
  -2.50443E-09 -2.67886E-09 -2.84810E-09 -3.01159E-09 -3.16879E-09 -3.31917E-09 -3.46230E-09 -3.59816E-09 -3.72685E-09 -3.84842E-09
  -3.96294E-09 -4.07048E-09 -4.17112E-09 -4.26493E-09 -4.35197E-09 -4.43232E-09 -4.50604E-09 -4.57321E-09 -4.63389E-09 -4.68816E-09
  -4.73609E-09 -4.77773E-09 -4.81318E-09 -4.84250E-09 -4.86574E-09 -4.88301E-09 -4.89434E-09 -4.89982E-09 -4.89952E-09 -4.89350E-09
  -4.88185E-09 -4.86461E-09 -4.84188E-09 -4.81371E-09 -4.78026E-09 -4.74178E-09 -4.69860E-09 -4.65099E-09 -4.59926E-09 -4.54370E-09
  -4.48462E-09 -4.42230E-09 -4.35705E-09 -4.28915E-09 -4.21891E-09 -4.14664E-09 -4.07260E-09 -3.99712E-09 -3.92047E-09 -3.84298E-09
  -3.76492E-09 -3.68659E-09 -3.60829E-09 -3.53032E-09 -3.45297E-09 -3.37654E-09 -3.30132E-09 -3.22761E-09 -3.15571E-09 -3.08592E-09
  -3.01852E-09 -2.95382E-09 -2.89195E-09 -2.83284E-09 -2.77641E-09 -2.72259E-09 -2.67127E-09 -2.62238E-09 -2.57584E-09 -2.53157E-09
  -2.48948E-09 -2.44948E-09 -2.41150E-09 -2.37545E-09 -2.34126E-09 -2.30883E-09 -2.27807E-09 -2.24892E-09 -2.22130E-09 -2.19510E-09
  -2.17025E-09 -2.14668E-09 -2.12428E-09 -2.10299E-09 -2.08273E-09 -2.06338E-09 -2.04490E-09 -2.02719E-09 -2.01017E-09 -1.99375E-09
  -1.97789E-09 -1.96257E-09 -1.94776E-09 -1.93345E-09 -1.91963E-09 -1.90627E-09 -1.89335E-09 -1.88085E-09 -1.86875E-09 -1.85705E-09
  -1.84571E-09 -1.83471E-09 -1.82405E-09 -1.81369E-09 -1.80363E-09 -1.79384E-09 -1.78431E-09 -1.77500E-09 -1.76592E-09 -1.75702E-09
  -1.74831E-09 -1.73976E-09 -1.73134E-09 -1.72306E-09 -1.71487E-09 -1.70676E-09 -1.69872E-09 -1.69072E-09 -1.68277E-09 -1.67485E-09
  -1.66696E-09 -1.65911E-09 -1.65130E-09 -1.64351E-09 -1.63575E-09 -1.62802E-09 -1.62032E-09 -1.61264E-09 -1.60499E-09 -1.59735E-09
  -1.58974E-09 -1.58214E-09 -1.57456E-09 -1.56700E-09 -1.55944E-09 -1.55191E-09 -1.54438E-09 -1.53686E-09 -1.52934E-09 -1.52184E-09
  -1.51433E-09 -1.50683E-09 -1.49933E-09 -1.49183E-09 -1.48433E-09 -1.47682E-09 -1.46931E-09 -1.46180E-09 -1.45430E-09 -1.44679E-09
  -1.43929E-09 -1.43180E-09 -1.42431E-09 -1.41684E-09 -1.40938E-09 -1.40193E-09 -1.39450E-09 -1.38709E-09 -1.37970E-09 -1.37233E-09
  -1.36498E-09 -1.35766E-09 -1.35037E-09 -1.34310E-09 -1.33587E-09 -1.32867E-09 -1.32151E-09 -1.31438E-09 -1.30729E-09 -1.30024E-09
  -1.29324E-09 -1.28628E-09 -1.27937E-09
 Asp      Conc. = 4.99E-10
   4.45868E-10  4.00802E-10  3.50259E-10  2.86271E-10  2.15454E-10  1.32709E-10  6.58737E-11  1.50205E-11 -4.97689E-12 -1.24851E-11
  -1.36578E-11 -1.10436E-11 -5.98816E-12  5.77347E-13  7.77476E-12  1.53370E-11  2.32585E-11  3.14663E-11  3.98962E-11  4.84982E-11
   5.72363E-11  6.60874E-11  7.50361E-11  8.40807E-11  9.32266E-11  1.02486E-10  1.11890E-10  1.21477E-10  1.31309E-10  1.41478E-10
   1.52133E-10  1.63486E-10  1.75850E-10  1.89720E-10  2.05972E-10  2.26435E-10  2.55607E-10  2.89299E-10  3.31921E-10  3.76616E-10
   4.22188E-10  4.67825E-10  5.12127E-10  5.56840E-10  5.94443E-10  6.45133E-10  6.97019E-10  7.70052E-10  9.01876E-10  1.05937E-09
   1.19788E-09  1.26207E-09  1.23568E-09  1.13233E-09  9.95670E-10  8.83142E-10  8.03030E-10  7.74529E-10  7.17506E-10  6.45479E-10
   6.16313E-10  6.14490E-10  6.19366E-10  6.32015E-10  6.38856E-10  6.25189E-10  6.00048E-10  5.91999E-10  5.93350E-10  6.00185E-10
   6.10733E-10  6.24066E-10  6.39645E-10  6.57141E-10  6.76339E-10  6.97099E-10  7.19325E-10  7.42956E-10  7.67949E-10  7.94281E-10
   8.21938E-10  8.50914E-10  8.81211E-10  9.12837E-10  9.45799E-10  9.80078E-10  1.01561E-09  1.05235E-09  1.09023E-09  1.12919E-09
   1.16919E-09  1.21018E-09  1.25209E-09  1.29488E-09  1.33849E-09  1.38289E-09  1.42801E-09  1.47381E-09  1.52023E-09  1.56724E-09
   1.61477E-09  1.66279E-09  1.71124E-09  1.76007E-09  1.80924E-09  1.85869E-09  1.90839E-09  1.95828E-09  2.00832E-09  2.05846E-09
   2.10864E-09  2.15883E-09  2.20897E-09  2.25898E-09  2.30877E-09  2.35823E-09  2.40727E-09  2.45578E-09  2.50366E-09  2.55082E-09
   2.59715E-09  2.64255E-09  2.68693E-09  2.73018E-09  2.77220E-09  2.81289E-09  2.85216E-09  2.88990E-09  2.92602E-09  2.96041E-09
   2.99297E-09  3.02361E-09  3.05223E-09  3.07872E-09  3.10298E-09  3.12493E-09  3.14445E-09  3.16145E-09  3.17583E-09  3.18750E-09
   3.19633E-09  3.20219E-09  3.20490E-09  3.20428E-09  3.20014E-09  3.19232E-09  3.18063E-09  3.16490E-09  3.14496E-09  3.12063E-09
   3.09174E-09  3.05812E-09  3.01961E-09  2.97603E-09  2.92724E-09  2.87306E-09  2.81338E-09  2.74804E-09  2.67695E-09  2.60001E-09
   2.51720E-09  2.42856E-09  2.33433E-09  2.23501E-09  2.13193E-09  2.02882E-09  1.94038E-09  1.91976E-09  1.91259E-09  1.91097E-09
   1.93906E-09  1.99977E-09  2.05035E-09  2.01759E-09  1.83517E-09  1.48551E-09  1.00016E-09  4.53453E-10 -2.95463E-11 -3.11419E-10
  -5.37128E-10 -7.47844E-10 -9.52537E-10 -1.15388E-09 -1.35268E-09 -1.54910E-09 -1.74295E-09 -1.93390E-09 -2.12153E-09 -2.30540E-09
  -2.48500E-09 -2.65986E-09 -2.82943E-09 -2.99318E-09 -3.15060E-09 -3.30116E-09 -3.44444E-09 -3.58043E-09 -3.70922E-09 -3.83088E-09
  -3.94547E-09 -4.05308E-09 -4.15377E-09 -4.24762E-09 -4.33470E-09 -4.41508E-09 -4.48883E-09 -4.55602E-09 -4.61673E-09 -4.67101E-09
  -4.71896E-09 -4.76062E-09 -4.79607E-09 -4.82540E-09 -4.84866E-09 -4.86593E-09 -4.87727E-09 -4.88275E-09 -4.88246E-09 -4.87644E-09
  -4.86479E-09 -4.84756E-09 -4.82483E-09 -4.79667E-09 -4.76321E-09 -4.72474E-09 -4.68156E-09 -4.63395E-09 -4.58222E-09 -4.52667E-09
