 LCModel (Version 6.3-1R) Copyright: S.W. Provencher.          Ref.: Magn. Reson. Med. 30:672-679 (1993).                
 onepulse 21x30_ftSpec_smooth_lcm
 26 lines in following concentration table = NCONC+1
    Conc.  %SD /Cr+PCr  Metabolite                                         
 4.40E-10  67%   5.474 Ala                                                 
 8.92E-10  75%  11.091 Asp                                                 
    0.000 999%   0.000 Cr                                                  
 1.27E-09  47%  15.821 GABA                                                
    0.000 999%   0.000 Glc                                                 
 2.27E-10 288%   2.823 Gln                                                 
    0.000 999%   0.000 Glu                                                 
 8.06E-10 214%  10.023 Glyc                                                
    0.000 999%   0.000 GPC                                                 
    0.000 999%   0.000 GSH                                                 
    0.000 999%   0.000 Ins                                                 
 1.17E-11 999%   0.146 Lac                                                 
    0.000 999%   0.000 NAAG                                                
 7.15E-10  37%   8.889 NAA                                                 
    0.000 999%   0.000 PCh                                                 
 8.04E-11 375%   1.000 PCr                                                 
 6.84E-10 147%   8.503 PE                                                  
    0.000 999%   0.000 Scyllo                                              
 7.99E-10 103%   9.934 Ser                                                 
 5.26E-10 197%   6.539 Tau                                                 
    0.000 999%   0.000 GPC+PCh                                             
 7.15E-10  37%   8.889 NAA+NAAG                                            
 8.06E-10  74%  10.023 Ins+Glyc                                            
 8.04E-11 375%   1.000 Cr+PCr                                              
 2.27E-10 288%   2.823 Glu+Gln                                             
   6 lines in following misc. output table
  FWHM = 0.101 ppm    S/N =   2                                            
  Data shift = 0.391 ppm                                                   
  Ph:  78 deg       8.9 deg/ppm                                            
  alphaB,S = 8.4E-01,   5.1E+01                                            
    8 spline knots.   Ns = 5(1)                                            
  (10) 4 infls.   ( 3) 1 extrs.                                            
  363 points on ppm-axis = NY
      4.250000     4.238821     4.227641     4.216462     4.205282     4.194103     4.182923     4.171744     4.160564     4.149385
      4.138206     4.127026     4.115847     4.104667     4.093488     4.082308     4.071129     4.059949     4.048770     4.037591
      4.026411     4.015232     4.004052     3.992873     3.981693     3.970514     3.959334     3.948155     3.936975     3.925796
      3.914617     3.903437     3.892258     3.881078     3.869899     3.858719     3.847540     3.836360     3.825181     3.814002
      3.802822     3.791643     3.780463     3.769284     3.758104     3.746925     3.735745     3.724566     3.713387     3.702207
      3.691028     3.679848     3.668669     3.657489     3.646310     3.635130     3.623951     3.612772     3.601592     3.590413
      3.579233     3.568054     3.556874     3.545695     3.534515     3.523336     3.512156     3.500977     3.489798     3.478618
      3.467439     3.456259     3.445080     3.433900     3.422721     3.411541     3.400362     3.389183     3.378003     3.366824
      3.355644     3.344465     3.333285     3.322106     3.310926     3.299747     3.288568     3.277388     3.266209     3.255029
      3.243850     3.232670     3.221491     3.210311     3.199132     3.187953     3.176773     3.165594     3.154414     3.143235
      3.132055     3.120876     3.109696     3.098517     3.087337     3.076158     3.064979     3.053799     3.042620     3.031440
      3.020261     3.009081     2.997902     2.986722     2.975543     2.964364     2.953184     2.942005     2.930825     2.919646
      2.908466     2.897287     2.886107     2.874928     2.863749     2.852569     2.841390     2.830210     2.819031     2.807851
      2.796672     2.785492     2.774313     2.763134     2.751954     2.740775     2.729595     2.718416     2.707236     2.696057
      2.684877     2.673698     2.662519     2.651339     2.640160     2.628980     2.617801     2.606621     2.595442     2.584262
      2.573083     2.561903     2.550724     2.539545     2.528365     2.517186     2.506006     2.494827     2.483647     2.472468
      2.461288     2.450109     2.438930     2.427750     2.416571     2.405391     2.394212     2.383032     2.371853     2.360673
      2.349494     2.338315     2.327135     2.315956     2.304776     2.293597     2.282417     2.271238     2.260058     2.248879
      2.237700     2.226520     2.215341     2.204161     2.192982     2.181802     2.170623     2.159443     2.148264     2.137084
      2.125905     2.114726     2.103546     2.092367     2.081187     2.070008     2.058828     2.047649     2.036469     2.025290
      2.014111     2.002931     1.991752     1.980572     1.969393     1.958213     1.947034     1.935854     1.924675     1.913496
      1.902316     1.891137     1.879957     1.868778     1.857598     1.846419     1.835239     1.824060     1.812881     1.801701
      1.790522     1.779342     1.768163     1.756983     1.745804     1.734624     1.723445     1.712265     1.701086     1.689907
      1.678727     1.667548     1.656368     1.645189     1.634009     1.622830     1.611650     1.600471     1.589292     1.578112
      1.566933     1.555753     1.544574     1.533394     1.522215     1.511035     1.499856     1.488677     1.477497     1.466318
      1.455138     1.443959     1.432779     1.421600     1.410420     1.399241     1.388062     1.376882     1.365703     1.354523
      1.343344     1.332164     1.320985     1.309805     1.298626     1.287446     1.276267     1.265088     1.253908     1.242729
      1.231549     1.220370     1.209190     1.198011     1.186831     1.175652     1.164473     1.153293     1.142114     1.130934
      1.119755     1.108575     1.097396     1.086216     1.075037     1.063858     1.052678     1.041499     1.030319     1.019140
      1.007960     0.996781     0.985601     0.974422     0.963243     0.952063     0.940884     0.929704     0.918525     0.907345
      0.896166     0.884986     0.873807     0.862628     0.851448     0.840269     0.829089     0.817910     0.806730     0.795551
      0.784371     0.773192     0.762012     0.750833     0.739654     0.728474     0.717295     0.706115     0.694936     0.683756
      0.672577     0.661397     0.650218     0.639039     0.627859     0.616680     0.605500     0.594321     0.583141     0.571962
      0.560782     0.549603     0.538424     0.527244     0.516065     0.504885     0.493706     0.482526     0.471347     0.460167
      0.448988     0.437809     0.426629     0.415450     0.404270     0.393091     0.381911     0.370732     0.359552     0.348373
      0.337193     0.326014     0.314835     0.303655     0.292476     0.281296     0.270117     0.258937     0.247758     0.236578
      0.225399     0.214220     0.203040
 NY phased data points follow
   4.43510E-09  4.63521E-09  4.18699E-09  4.35765E-09  3.85126E-09  4.31715E-09  3.28587E-09  4.22934E-09  3.83312E-09  4.48594E-09
   4.61917E-09  5.40331E-09  5.16136E-09  5.41436E-09  4.96285E-09  5.62505E-09  5.19787E-09  5.97487E-09  4.55472E-09  5.48395E-09
   4.75272E-09  5.68735E-09  5.16755E-09  6.24690E-09  5.11609E-09  5.60774E-09  4.53866E-09  5.20069E-09  5.62816E-09  7.06534E-09
   7.28831E-09  7.55264E-09  6.84527E-09  7.15083E-09  6.00074E-09  6.77063E-09  5.95331E-09  6.52800E-09  5.80046E-09  6.17593E-09
   5.79236E-09  6.30084E-09  5.47708E-09  6.03911E-09  5.43443E-09  5.23270E-09  4.93292E-09  5.28699E-09  4.89557E-09  5.57974E-09
   4.83337E-09  5.17344E-09  4.27545E-09  4.48102E-09  4.16044E-09  4.34603E-09  4.09151E-09  3.73878E-09  4.20723E-09  5.03134E-09
   5.49423E-09  6.76508E-09  6.28009E-09  6.78842E-09  6.17148E-09  6.07485E-09  5.33708E-09  5.95590E-09  4.49666E-09  4.89636E-09
   4.48502E-09  4.12337E-09  3.44193E-09  2.79019E-09  2.28022E-09  4.13071E-09  5.35965E-09  7.84437E-09  8.87309E-09  8.96872E-09
   8.39065E-09  8.97508E-09  8.00036E-09  8.78557E-09  7.83256E-09  7.74680E-09  7.82638E-09  8.13428E-09  7.50420E-09  7.70778E-09
   7.58890E-09  7.47939E-09  7.13419E-09  7.04895E-09  6.78251E-09  6.73128E-09  6.51886E-09  6.26567E-09  6.41654E-09  7.06747E-09
   6.09018E-09  6.00302E-09  6.07442E-09  6.27304E-09  6.50613E-09  5.83436E-09  5.57620E-09  5.27298E-09  4.33627E-09  4.97955E-09
   4.24640E-09  4.82903E-09  4.23320E-09  4.65517E-09  4.34100E-09  4.72063E-09  4.41686E-09  4.96623E-09  4.59756E-09  4.70983E-09
   4.24718E-09  3.78526E-09  2.89727E-09  3.28247E-09  2.60922E-09  2.99403E-09  2.69725E-09  2.79176E-09  2.55775E-09  2.59810E-09
   2.40609E-09  2.76493E-09  2.52237E-09  2.06317E-09  1.62505E-09  2.38098E-09  2.32815E-09  3.76034E-09  3.63894E-09  4.04020E-09
   3.27817E-09  4.20925E-09  4.46091E-09  4.92960E-09  5.57301E-09  5.73659E-09  5.16503E-09  5.88119E-09  5.87445E-09  5.78618E-09
   5.16505E-09  5.74870E-09  5.58811E-09  5.66329E-09  5.54591E-09  6.14103E-09  5.66233E-09  5.85013E-09  5.77481E-09  6.63941E-09
   5.95446E-09  5.79491E-09  5.97110E-09  6.35268E-09  5.53364E-09  5.89893E-09  6.87911E-09  9.36168E-09  1.19085E-08  1.37339E-08
   1.31880E-08  1.31070E-08  1.24905E-08  1.23314E-08  1.25433E-08  1.17881E-08  1.14699E-08  1.14511E-08  1.07289E-08  1.05611E-08
   9.76086E-09  9.61756E-09  9.02926E-09  8.14712E-09  6.74004E-09  5.65521E-09  4.57170E-09  3.47247E-09  1.31225E-09 -2.88732E-11
  -1.85060E-09 -3.64692E-09 -6.13552E-09 -7.16689E-09 -9.28039E-09 -1.03780E-08 -1.24159E-08 -1.24596E-08 -1.34990E-08 -1.34446E-08
  -1.36689E-08 -1.28425E-08 -1.16827E-08 -1.05168E-08 -9.36276E-09 -6.90926E-09 -6.07654E-09 -3.83875E-09 -3.39455E-09 -2.06455E-09
  -1.56410E-09 -9.62521E-10 -1.19600E-09 -9.51193E-10 -1.12568E-09 -1.30404E-09 -1.85611E-09 -1.16796E-09 -1.36610E-09 -1.02452E-09
  -1.22850E-09 -5.68914E-10 -1.55278E-09 -9.16904E-10 -1.28802E-09 -1.24540E-09 -1.14851E-09 -1.33762E-09 -1.47844E-09 -1.26457E-09
  -1.60227E-09 -1.47030E-09 -1.27624E-09 -6.07863E-10 -1.24871E-09 -7.10524E-10 -1.36528E-09 -1.34241E-09 -1.56551E-09 -1.58522E-09
  -1.72811E-09 -1.14250E-09 -1.26927E-09 -1.04090E-09 -9.90767E-10 -9.17779E-10 -1.38360E-09 -1.17479E-09 -9.91356E-10 -1.45598E-09
  -1.31989E-09 -7.53783E-10 -6.81515E-10 -5.00867E-10 -7.26620E-10 -7.68542E-10 -1.04651E-09 -1.06534E-09 -1.03547E-09 -1.25776E-09
  -1.51337E-09 -1.80956E-09 -1.83590E-09 -1.42450E-09 -1.60394E-09 -1.40014E-09 -1.17957E-09 -7.26221E-10 -8.46913E-10 -5.17136E-10
  -4.93790E-10  4.50939E-11 -6.31611E-11 -1.36692E-10 -3.40602E-10 -3.00750E-10 -4.36405E-10 -2.30096E-10 -5.41265E-10 -5.65575E-10
  -1.20983E-09 -1.02269E-09 -1.36648E-09 -1.02974E-09 -1.27415E-09 -9.05756E-10 -1.35473E-09 -1.07803E-09 -1.30061E-09 -1.42625E-09
  -1.13040E-09 -7.59716E-10 -1.49892E-09 -7.75550E-10 -1.61837E-09 -1.34562E-09 -1.62505E-09 -1.32837E-09 -1.18103E-09 -1.21955E-09
  -1.15641E-09 -1.39399E-09 -1.49282E-09 -1.15439E-09 -1.80331E-09 -1.24712E-09 -1.30796E-09 -1.11903E-09 -1.25535E-09 -1.28530E-09
  -1.31329E-09 -1.17680E-09 -1.23378E-09 -9.55916E-10 -8.68315E-10 -8.17999E-10 -1.45151E-09 -9.48002E-10 -1.13459E-09 -1.20913E-09
  -1.25986E-09 -8.29826E-10 -1.32720E-09 -1.32416E-09 -1.15600E-09 -7.21392E-10 -1.16860E-09 -1.14078E-09 -1.12006E-09 -8.56562E-10
  -1.34196E-09 -7.78679E-10 -1.62105E-09 -7.87130E-10 -1.07562E-09 -1.52776E-09 -1.05362E-09 -1.23590E-09 -1.28802E-09 -1.30723E-09
  -1.31735E-09 -1.07895E-09 -9.72229E-10 -1.12292E-09 -1.21546E-09 -1.32355E-09 -1.18450E-09 -1.29442E-09 -8.20622E-10 -1.23923E-09
  -1.30028E-09 -8.28097E-10 -1.42711E-09 -8.25316E-10 -1.07587E-09 -6.56246E-10 -1.32852E-09 -1.00456E-09 -1.22963E-09 -1.09240E-09
  -1.00797E-09 -7.88892E-10 -1.36416E-09
 NY points of the fit to the data follow
   6.35838E-09  5.47247E-09  4.77449E-09  4.32692E-09  3.92832E-09  3.49969E-09  3.13650E-09  2.97358E-09  3.42587E-09  4.18385E-09
   4.81827E-09  5.24483E-09  5.48313E-09  5.63634E-09  5.85283E-09  6.04740E-09  6.13073E-09  5.91261E-09  5.33686E-09  4.65821E-09
   4.49027E-09  4.69181E-09  5.04269E-09  5.42830E-09  5.72811E-09  5.98729E-09  6.23242E-09  6.39320E-09  6.55241E-09  6.72359E-09
   6.69559E-09  6.50716E-09  6.53865E-09  6.62135E-09  6.57244E-09  6.53497E-09  6.52983E-09  6.53504E-09  6.46626E-09  6.25282E-09
   5.93708E-09  5.61673E-09  5.18106E-09  4.84638E-09  4.91004E-09  5.03888E-09  4.96954E-09  4.88977E-09  4.93196E-09  5.05494E-09
   5.24275E-09  5.39502E-09  5.45002E-09  5.32884E-09  5.11189E-09  4.95996E-09  4.96751E-09  5.12676E-09  5.24005E-09  5.23508E-09
   5.24894E-09  5.35208E-09  5.62370E-09  5.87721E-09  6.18017E-09  6.52883E-09  6.69112E-09  6.68668E-09  6.63508E-09  6.55466E-09
   6.42511E-09  6.18810E-09  5.86845E-09  5.57982E-09  5.37406E-09  5.12754E-09  5.19451E-09  6.19099E-09  7.29673E-09  8.11394E-09
   8.61272E-09  8.74579E-09  8.73347E-09  8.83899E-09  8.85694E-09  8.60785E-09  8.08234E-09  7.18613E-09  6.22837E-09  5.94731E-09
   5.83990E-09  5.77676E-09  5.71145E-09  5.51956E-09  5.31985E-09  5.22993E-09  5.06062E-09  4.87651E-09  4.82957E-09  4.87901E-09
   5.09993E-09  5.30082E-09  5.43522E-09  5.66250E-09  5.89737E-09  6.06324E-09  6.12996E-09  6.09331E-09  5.94760E-09  5.70164E-09
   5.39471E-09  5.12491E-09  4.96189E-09  4.68259E-09  4.38518E-09  4.25811E-09  4.18282E-09  4.12725E-09  4.08293E-09  4.04641E-09
   4.01082E-09  3.97895E-09  3.95199E-09  3.92670E-09  3.90201E-09  3.87739E-09  3.85252E-09  3.82719E-09  3.80124E-09  3.77455E-09
   3.74701E-09  3.71856E-09  3.68912E-09  3.65864E-09  3.62709E-09  3.59442E-09  3.56059E-09  3.52556E-09  3.48932E-09  3.45185E-09
   3.41313E-09  3.37316E-09  3.33191E-09  3.28940E-09  3.24561E-09  3.20055E-09  3.15428E-09  3.10686E-09  3.05842E-09  3.00906E-09
   2.95892E-09  2.90818E-09  2.85703E-09  2.80574E-09  2.75462E-09  2.70411E-09  2.65477E-09  2.60741E-09  2.56317E-09  2.52380E-09
   2.49200E-09  2.47236E-09  2.47311E-09  2.51086E-09  2.62441E-09  2.92974E-09  3.95038E-09  7.14560E-09  1.06144E-08  1.30249E-08
   1.41033E-08  1.42549E-08  1.40110E-08  1.36650E-08  1.30919E-08  1.18415E-08  9.46939E-09  6.05974E-09  2.89663E-09  1.93744E-09
   1.52695E-09  1.27949E-09  1.10102E-09  9.58110E-10  8.35924E-10  7.26896E-10  6.26782E-10  5.33038E-10  4.44023E-10  3.58686E-10
   2.76312E-10  1.96382E-10  1.18555E-10  4.25753E-11 -3.17252E-11 -1.04488E-10 -1.75807E-10 -2.45722E-10 -3.14285E-10 -3.81528E-10
  -4.47451E-10 -5.12059E-10 -5.75341E-10 -6.37286E-10 -6.97878E-10 -7.57082E-10 -8.14880E-10 -8.71243E-10 -9.26142E-10 -9.79522E-10
  -1.03138E-09 -1.08165E-09 -1.13031E-09 -1.17731E-09 -1.22262E-09 -1.26619E-09 -1.30798E-09 -1.34796E-09 -1.38607E-09 -1.42234E-09
  -1.45680E-09 -1.48949E-09 -1.52043E-09 -1.54967E-09 -1.57723E-09 -1.60315E-09 -1.62747E-09 -1.65021E-09 -1.67142E-09 -1.69111E-09
  -1.70933E-09 -1.72611E-09 -1.74148E-09 -1.75547E-09 -1.76812E-09 -1.77946E-09 -1.78951E-09 -1.79832E-09 -1.80591E-09 -1.81232E-09
  -1.81757E-09 -1.82171E-09 -1.82476E-09 -1.82675E-09 -1.82772E-09 -1.82769E-09 -1.82671E-09 -1.82480E-09 -1.82199E-09 -1.81831E-09
  -1.81381E-09 -1.80850E-09 -1.80243E-09 -1.79561E-09 -1.78808E-09 -1.77989E-09 -1.77105E-09 -1.76159E-09 -1.75156E-09 -1.74097E-09
  -1.72987E-09 -1.71829E-09 -1.70626E-09 -1.69380E-09 -1.68095E-09 -1.66774E-09 -1.65421E-09 -1.64038E-09 -1.62628E-09 -1.61196E-09
  -1.59742E-09 -1.58272E-09 -1.56789E-09 -1.55294E-09 -1.53792E-09 -1.52285E-09 -1.50778E-09 -1.49273E-09 -1.47771E-09 -1.46279E-09
  -1.44798E-09 -1.43332E-09 -1.41883E-09 -1.40455E-09 -1.39051E-09 -1.37674E-09 -1.36328E-09 -1.35014E-09 -1.33737E-09 -1.32500E-09
  -1.31305E-09 -1.30155E-09 -1.29049E-09 -1.27985E-09 -1.26962E-09 -1.25981E-09 -1.25039E-09 -1.24136E-09 -1.23272E-09 -1.22444E-09
  -1.21653E-09 -1.20897E-09 -1.20176E-09 -1.19489E-09 -1.18834E-09 -1.18211E-09 -1.17619E-09 -1.17057E-09 -1.16524E-09 -1.16019E-09
  -1.15542E-09 -1.15091E-09 -1.14666E-09 -1.14265E-09 -1.13888E-09 -1.13534E-09 -1.13202E-09 -1.12891E-09 -1.12600E-09 -1.12329E-09
  -1.12076E-09 -1.11840E-09 -1.11621E-09 -1.11418E-09 -1.11229E-09 -1.11053E-09 -1.10892E-09 -1.10742E-09 -1.10604E-09 -1.10476E-09
  -1.10358E-09 -1.10248E-09 -1.10145E-09 -1.10049E-09 -1.09959E-09 -1.09874E-09 -1.09793E-09 -1.09715E-09 -1.09639E-09 -1.09564E-09
  -1.09491E-09 -1.09416E-09 -1.09340E-09 -1.09263E-09 -1.09180E-09 -1.09096E-09 -1.09005E-09 -1.08909E-09 -1.08806E-09 -1.08696E-09
  -1.08577E-09 -1.08448E-09 -1.08310E-09 -1.08159E-09 -1.07997E-09 -1.07822E-09 -1.07633E-09 -1.07429E-09 -1.07209E-09 -1.06973E-09
  -1.06719E-09 -1.06446E-09 -1.06155E-09
 NY background values follow
     5.720E-10    6.076E-10    6.433E-10    6.791E-10    7.149E-10    7.507E-10    7.866E-10    8.225E-10    8.585E-10    8.944E-10
     9.304E-10    9.664E-10    1.002E-09    1.038E-09    1.074E-09    1.110E-09    1.146E-09    1.182E-09    1.218E-09    1.254E-09
     1.290E-09    1.326E-09    1.361E-09    1.397E-09    1.433E-09    1.468E-09    1.504E-09    1.539E-09    1.574E-09    1.609E-09
     1.644E-09    1.679E-09    1.714E-09    1.749E-09    1.783E-09    1.818E-09    1.852E-09    1.886E-09    1.920E-09    1.954E-09
     1.988E-09    2.021E-09    2.055E-09    2.088E-09    2.121E-09    2.154E-09    2.186E-09    2.219E-09    2.251E-09    2.283E-09
     2.314E-09    2.346E-09    2.377E-09    2.408E-09    2.439E-09    2.469E-09    2.500E-09    2.530E-09    2.559E-09    2.589E-09
     2.618E-09    2.647E-09    2.675E-09    2.704E-09    2.732E-09    2.759E-09    2.787E-09    2.814E-09    2.840E-09    2.867E-09
     2.893E-09    2.918E-09    2.943E-09    2.968E-09    2.993E-09    3.017E-09    3.041E-09    3.064E-09    3.087E-09    3.109E-09
     3.131E-09    3.153E-09    3.174E-09    3.194E-09    3.214E-09    3.233E-09    3.252E-09    3.270E-09    3.288E-09    3.305E-09
     3.321E-09    3.336E-09    3.351E-09    3.365E-09    3.379E-09    3.392E-09    3.404E-09    3.415E-09    3.425E-09    3.435E-09
     3.444E-09    3.452E-09    3.459E-09    3.465E-09    3.471E-09    3.475E-09    3.479E-09    3.481E-09    3.483E-09    3.484E-09
     3.483E-09    3.482E-09    3.480E-09    3.477E-09    3.472E-09    3.467E-09    3.460E-09    3.453E-09    3.444E-09    3.434E-09
     3.423E-09    3.411E-09    3.397E-09    3.382E-09    3.367E-09    3.349E-09    3.331E-09    3.311E-09    3.290E-09    3.268E-09
     3.245E-09    3.220E-09    3.193E-09    3.166E-09    3.137E-09    3.106E-09    3.074E-09    3.041E-09    3.006E-09    2.970E-09
     2.932E-09    2.893E-09    2.852E-09    2.810E-09    2.766E-09    2.720E-09    2.673E-09    2.624E-09    2.574E-09    2.523E-09
     2.470E-09    2.415E-09    2.360E-09    2.303E-09    2.245E-09    2.186E-09    2.125E-09    2.064E-09    2.001E-09    1.938E-09
     1.874E-09    1.808E-09    1.742E-09    1.675E-09    1.608E-09    1.540E-09    1.471E-09    1.401E-09    1.331E-09    1.261E-09
     1.190E-09    1.118E-09    1.046E-09    9.742E-10    9.019E-10    8.293E-10    7.566E-10    6.838E-10    6.109E-10    5.379E-10
     4.650E-10    3.921E-10    3.194E-10    2.468E-10    1.744E-10    1.023E-10    3.045E-11   -4.100E-11   -1.121E-10   -1.827E-10
    -2.528E-10   -3.224E-10   -3.914E-10   -4.598E-10   -5.275E-10   -5.944E-10   -6.606E-10   -7.260E-10   -7.905E-10   -8.541E-10
    -9.167E-10   -9.783E-10   -1.039E-09   -1.098E-09   -1.157E-09   -1.214E-09   -1.269E-09   -1.324E-09   -1.377E-09   -1.429E-09
    -1.479E-09   -1.528E-09   -1.575E-09   -1.621E-09   -1.665E-09   -1.708E-09   -1.749E-09   -1.788E-09   -1.825E-09   -1.860E-09
    -1.894E-09   -1.926E-09   -1.956E-09   -1.984E-09   -2.011E-09   -2.036E-09   -2.060E-09   -2.082E-09   -2.103E-09   -2.122E-09
    -2.139E-09   -2.156E-09   -2.170E-09   -2.184E-09   -2.196E-09   -2.207E-09   -2.216E-09   -2.225E-09   -2.232E-09   -2.238E-09
    -2.243E-09   -2.246E-09   -2.249E-09   -2.251E-09   -2.251E-09   -2.251E-09   -2.249E-09   -2.247E-09   -2.244E-09   -2.240E-09
    -2.235E-09   -2.229E-09   -2.223E-09   -2.216E-09   -2.208E-09   -2.200E-09   -2.190E-09   -2.181E-09   -2.170E-09   -2.159E-09
    -2.148E-09   -2.136E-09   -2.124E-09   -2.111E-09   -2.098E-09   -2.085E-09   -2.071E-09   -2.057E-09   -2.042E-09   -2.028E-09
    -2.013E-09   -1.998E-09   -1.983E-09   -1.968E-09   -1.952E-09   -1.937E-09   -1.922E-09   -1.907E-09   -1.891E-09   -1.876E-09
    -1.861E-09   -1.846E-09   -1.831E-09   -1.817E-09   -1.803E-09   -1.789E-09   -1.775E-09   -1.762E-09   -1.749E-09   -1.736E-09
    -1.724E-09   -1.712E-09   -1.701E-09   -1.690E-09   -1.680E-09   -1.670E-09   -1.660E-09   -1.651E-09   -1.642E-09   -1.633E-09
    -1.625E-09   -1.617E-09   -1.610E-09   -1.603E-09   -1.596E-09   -1.590E-09   -1.584E-09   -1.578E-09   -1.572E-09   -1.567E-09
    -1.562E-09   -1.557E-09   -1.553E-09   -1.549E-09   -1.545E-09   -1.541E-09   -1.537E-09   -1.534E-09   -1.531E-09   -1.528E-09
    -1.525E-09   -1.523E-09   -1.520E-09   -1.518E-09   -1.516E-09   -1.514E-09   -1.512E-09   -1.511E-09   -1.509E-09   -1.508E-09
    -1.506E-09   -1.505E-09   -1.504E-09   -1.502E-09   -1.501E-09   -1.500E-09   -1.499E-09   -1.498E-09   -1.497E-09   -1.496E-09
    -1.495E-09   -1.495E-09   -1.494E-09   -1.493E-09   -1.492E-09   -1.490E-09   -1.489E-09   -1.488E-09   -1.487E-09   -1.486E-09
    -1.484E-09   -1.483E-09   -1.481E-09   -1.479E-09   -1.478E-09   -1.476E-09   -1.474E-09   -1.471E-09   -1.469E-09   -1.466E-09
    -1.464E-09   -1.461E-09   -1.457E-09
 Ala      Conc. = 4.40E-10
   8.97506E-10  9.64814E-10  1.01694E-09  1.06041E-09  1.09528E-09  1.12216E-09  1.13525E-09  1.12931E-09  1.13378E-09  1.14573E-09
   1.13141E-09  1.12680E-09  1.14408E-09  1.15478E-09  1.16771E-09  1.18956E-09  1.21600E-09  1.24509E-09  1.27584E-09  1.30770E-09
   1.34033E-09  1.37351E-09  1.40709E-09  1.44095E-09  1.47503E-09  1.50925E-09  1.54357E-09  1.57795E-09  1.61236E-09  1.64678E-09
   1.68118E-09  1.71554E-09  1.74986E-09  1.78410E-09  1.81827E-09  1.85235E-09  1.88633E-09  1.92019E-09  1.95393E-09  1.98755E-09
   2.02102E-09  2.05435E-09  2.08752E-09  2.12053E-09  2.15337E-09  2.18603E-09  2.21850E-09  2.25079E-09  2.28288E-09  2.31476E-09
   2.34644E-09  2.37789E-09  2.40913E-09  2.44013E-09  2.47090E-09  2.50143E-09  2.53171E-09  2.56173E-09  2.59151E-09  2.62102E-09
   2.65025E-09  2.67922E-09  2.70790E-09  2.73630E-09  2.76440E-09  2.79222E-09  2.81974E-09  2.84696E-09  2.87387E-09  2.90046E-09
   2.92675E-09  2.95273E-09  2.97838E-09  3.00372E-09  3.02873E-09  3.05340E-09  3.07773E-09  3.10170E-09  3.12532E-09  3.14857E-09
   3.17145E-09  3.19397E-09  3.21614E-09  3.23796E-09  3.25945E-09  3.28065E-09  3.30160E-09  3.32235E-09  3.34300E-09  3.36367E-09
   3.38454E-09  3.40586E-09  3.42803E-09  3.45164E-09  3.47765E-09  3.50773E-09  3.54494E-09  3.59573E-09  3.67640E-09  3.84297E-09
   4.18154E-09  4.46516E-09  4.65989E-09  4.93315E-09  5.20410E-09  5.39855E-09  5.48630E-09  5.46255E-09  5.32781E-09  5.09067E-09
   4.78919E-09  4.52442E-09  4.36772E-09  4.09648E-09  3.80882E-09  3.69327E-09  3.63137E-09  3.59044E-09  3.55954E-09  3.53395E-09
   3.51127E-09  3.49012E-09  3.46969E-09  3.44943E-09  3.42897E-09  3.40806E-09  3.38650E-09  3.36415E-09  3.34090E-09  3.31665E-09
   3.29134E-09  3.26490E-09  3.23729E-09  3.20845E-09  3.17835E-09  3.14696E-09  3.11424E-09  3.08016E-09  3.04469E-09  3.00782E-09
   2.96951E-09  2.92975E-09  2.88850E-09  2.84577E-09  2.80151E-09  2.75572E-09  2.70839E-09  2.65957E-09  2.60931E-09  2.55765E-09
   2.50466E-09  2.45037E-09  2.39485E-09  2.33817E-09  2.28037E-09  2.22154E-09  2.16176E-09  2.10113E-09  2.03976E-09  1.97783E-09
   1.91555E-09  1.85330E-09  1.79169E-09  1.73194E-09  1.67688E-09  1.63506E-09  1.64621E-09  1.80103E-09  1.96891E-09  2.06285E-09
   2.06688E-09  2.00936E-09  1.92591E-09  1.83522E-09  1.72765E-09  1.57233E-09  1.34016E-09  1.04006E-09  7.63370E-10  6.33334E-10
   5.37967E-10  4.53287E-10  3.73282E-10  2.95824E-10  2.19963E-10  1.45237E-10  7.14074E-11 -1.64466E-12 -7.40103E-11 -1.45704E-10
  -2.16724E-10 -2.87080E-10 -3.56739E-10 -4.25682E-10 -4.93863E-10 -5.61263E-10 -6.27846E-10 -6.93552E-10 -7.58352E-10 -8.22213E-10
  -8.85080E-10 -9.46913E-10 -1.00766E-09 -1.06729E-09 -1.12576E-09 -1.18300E-09 -1.23898E-09 -1.29366E-09 -1.34699E-09 -1.39891E-09
  -1.44940E-09 -1.49839E-09 -1.54584E-09 -1.59171E-09 -1.63595E-09 -1.67850E-09 -1.71933E-09 -1.75840E-09 -1.79564E-09 -1.83109E-09
  -1.86476E-09 -1.89669E-09 -1.92692E-09 -1.95547E-09 -1.98236E-09 -2.00765E-09 -2.03136E-09 -2.05352E-09 -2.07415E-09 -2.09330E-09
  -2.11100E-09 -2.12726E-09 -2.14214E-09 -2.15565E-09 -2.16784E-09 -2.17872E-09 -2.18834E-09 -2.19672E-09 -2.20390E-09 -2.20991E-09
  -2.21477E-09 -2.21853E-09 -2.22120E-09 -2.22283E-09 -2.22344E-09 -2.22307E-09 -2.22175E-09 -2.21950E-09 -2.21637E-09 -2.21237E-09
  -2.20756E-09 -2.20194E-09 -2.19557E-09 -2.18845E-09 -2.18063E-09 -2.17215E-09 -2.16303E-09 -2.15330E-09 -2.14299E-09 -2.13214E-09
  -2.12077E-09 -2.10893E-09 -2.09664E-09 -2.08393E-09 -2.07083E-09 -2.05737E-09 -2.04360E-09 -2.02952E-09 -2.01519E-09 -2.00063E-09
  -1.98587E-09 -1.97093E-09 -1.95587E-09 -1.94069E-09 -1.92546E-09 -1.91017E-09 -1.89487E-09 -1.87960E-09 -1.86438E-09 -1.84924E-09
  -1.83422E-09 -1.81934E-09 -1.80465E-09 -1.79016E-09 -1.77591E-09 -1.76194E-09 -1.74828E-09 -1.73493E-09 -1.72197E-09 -1.70940E-09
  -1.69725E-09 -1.68555E-09 -1.67429E-09 -1.66345E-09 -1.65303E-09 -1.64302E-09 -1.63341E-09 -1.62419E-09 -1.61535E-09 -1.60689E-09
  -1.59879E-09 -1.59104E-09 -1.58364E-09 -1.57658E-09 -1.56984E-09 -1.56342E-09 -1.55731E-09 -1.55150E-09 -1.54599E-09 -1.54075E-09
  -1.53579E-09 -1.53110E-09 -1.52666E-09 -1.52247E-09 -1.51851E-09 -1.51479E-09 -1.51128E-09 -1.50799E-09 -1.50489E-09 -1.50199E-09
  -1.49928E-09 -1.49673E-09 -1.49436E-09 -1.49214E-09 -1.49007E-09 -1.48813E-09 -1.48633E-09 -1.48465E-09 -1.48308E-09 -1.48161E-09
  -1.48024E-09 -1.47895E-09 -1.47774E-09 -1.47659E-09 -1.47550E-09 -1.47446E-09 -1.47347E-09 -1.47250E-09 -1.47156E-09 -1.47061E-09
  -1.46969E-09 -1.46875E-09 -1.46781E-09 -1.46684E-09 -1.46582E-09 -1.46478E-09 -1.46368E-09 -1.46253E-09 -1.46131E-09 -1.46001E-09
  -1.45862E-09 -1.45714E-09 -1.45556E-09 -1.45385E-09 -1.45204E-09 -1.45008E-09 -1.44800E-09 -1.44575E-09 -1.44335E-09 -1.44079E-09
  -1.43804E-09 -1.43511E-09 -1.43200E-09
 Asp      Conc. = 8.92E-10
   1.53976E-09  1.43362E-09  1.35062E-09  1.26290E-09  1.19214E-09  1.10488E-09  1.03446E-09  9.91988E-10  9.90266E-10  1.00450E-09
   1.02670E-09  1.05372E-09  1.08408E-09  1.11665E-09  1.15004E-09  1.18405E-09  1.21870E-09  1.25388E-09  1.28953E-09  1.32559E-09
   1.36203E-09  1.39884E-09  1.43601E-09  1.47356E-09  1.51154E-09  1.54999E-09  1.58902E-09  1.62873E-09  1.66931E-09  1.71101E-09
   1.75419E-09  1.79940E-09  1.84754E-09  1.90015E-09  1.96022E-09  2.03477E-09  2.14110E-09  2.25036E-09  2.36663E-09  2.45159E-09
   2.50081E-09  2.53628E-09  2.60652E-09  2.75226E-09  2.97195E-09  3.25428E-09  3.44616E-09  3.51655E-09  3.60999E-09  3.72323E-09
   3.84356E-09  3.91705E-09  3.89348E-09  3.74046E-09  3.50989E-09  3.32023E-09  3.22703E-09  3.23696E-09  3.19340E-09  3.09582E-09
   3.05266E-09  3.02944E-09  3.01513E-09  3.03234E-09  3.05059E-09  3.03879E-09  3.00725E-09  2.99879E-09  3.00173E-09  3.01078E-09
   3.02353E-09  3.03865E-09  3.05537E-09  3.07319E-09  3.09175E-09  3.11080E-09  3.13014E-09  3.14962E-09  3.16914E-09  3.18859E-09
   3.20789E-09  3.22698E-09  3.24580E-09  3.26430E-09  3.28243E-09  3.30017E-09  3.31746E-09  3.33427E-09  3.35059E-09  3.36637E-09
   3.38159E-09  3.39622E-09  3.41024E-09  3.42363E-09  3.43635E-09  3.44840E-09  3.45975E-09  3.47037E-09  3.48025E-09  3.48936E-09
   3.49769E-09  3.50522E-09  3.51192E-09  3.51779E-09  3.52279E-09  3.52691E-09  3.53013E-09  3.53244E-09  3.53382E-09  3.53424E-09
   3.53369E-09  3.53215E-09  3.52961E-09  3.52604E-09  3.52143E-09  3.51576E-09  3.50901E-09  3.50117E-09  3.49222E-09  3.48213E-09
   3.47090E-09  3.45851E-09  3.44493E-09  3.43016E-09  3.41417E-09  3.39694E-09  3.37847E-09  3.35873E-09  3.33771E-09  3.31539E-09
   3.29174E-09  3.26677E-09  3.24045E-09  3.21275E-09  3.18368E-09  3.15320E-09  3.12131E-09  3.08799E-09  3.05322E-09  3.01699E-09
   2.97928E-09  2.94007E-09  2.89936E-09  2.85713E-09  2.81336E-09  2.76805E-09  2.72120E-09  2.67285E-09  2.62307E-09  2.57192E-09
   2.51944E-09  2.46572E-09  2.41081E-09  2.35480E-09  2.29776E-09  2.23980E-09  2.18105E-09  2.12164E-09  2.06180E-09  2.00178E-09
   1.94201E-09  1.88315E-09  1.82640E-09  1.77405E-09  1.73147E-09  1.71448E-09  1.79384E-09  2.17483E-09  2.59530E-09  2.86963E-09
   2.95893E-09  2.91890E-09  2.82335E-09  2.71338E-09  2.57225E-09  2.33790E-09  1.94847E-09  1.41434E-09  9.11465E-10  7.14579E-10
   5.94746E-10  4.97723E-10  4.10380E-10  3.28116E-10  2.48897E-10  1.71717E-10  9.60294E-11  2.15329E-11 -5.19807E-11 -1.24603E-10
  -1.96387E-10 -2.67378E-10 -3.37572E-10 -4.06969E-10 -4.75540E-10 -5.43276E-10 -6.10152E-10 -6.76115E-10 -7.41142E-10 -8.05202E-10
  -8.68247E-10 -9.30240E-10 -9.91135E-10 -1.05089E-09 -1.10947E-09 -1.16682E-09 -1.22290E-09 -1.27767E-09 -1.33108E-09 -1.38308E-09
  -1.43363E-09 -1.48269E-09 -1.53019E-09 -1.57611E-09 -1.62041E-09 -1.66301E-09 -1.70388E-09 -1.74299E-09 -1.78027E-09 -1.81575E-09
  -1.84945E-09 -1.88142E-09 -1.91167E-09 -1.94025E-09 -1.96718E-09 -1.99249E-09 -2.01622E-09 -2.03840E-09 -2.05906E-09 -2.07823E-09
