 LCModel (Version 6.3-1R) Copyright: S.W. Provencher.          Ref.: Magn. Reson. Med. 30:672-679 (1993).                
 onepulse 21x4_ftSpec_smooth_lcm
 26 lines in following concentration table = NCONC+1
    Conc.  %SD   /Cr    Metabolite                                         
 5.18E-10  43%   0.000 Ala                                                 
 4.41E-09  11%   0.000 Asp                                                 
    0.000 999%   0.000 Cr                                                  
 3.08E-09  11%   0.000 GABA                                                
 3.77E-10 201%   0.000 Glc                                                 
 2.14E-09  20%   0.000 Gln                                                 
    0.000 999%   0.000 Glu                                                 
    0.000 999%   0.000 Glyc                                                
 1.08E-10  73%   0.000 GPC                                                 
    0.000 999%   0.000 GSH                                                 
 1.10E-09  32%   0.000 Ins                                                 
    0.000 999%   0.000 Lac                                                 
 3.67E-10  56%   0.000 NAAG                                                
 2.39E-10 113%   0.000 NAA                                                 
    0.000 999%   0.000 PCh                                                 
    0.000 999%   0.000 PCr                                                 
    0.000 999%   0.000 PE                                                  
 2.80E-11 569%   0.000 Scyllo                                              
 1.25E-10 522%   0.000 Ser                                                 
 1.74E-09  31%   0.000 Tau                                                 
 1.08E-10  73%   0.000 GPC+PCh                                             
 6.06E-10  34%   0.000 NAA+NAAG                                            
 1.10E-09  32%   0.000 Ins+Glyc                                            
    0.000 999%   0.000 Cr+PCr                                              
 2.14E-09  20%   0.000 Glu+Gln                                             
   6 lines in following misc. output table
  FWHM = 0.123 ppm    S/N =   6                                            
  Data shift = 0.470 ppm                                                   
  Ph: -53 deg     -95.2 deg/ppm                                            
  alphaB,S = 8.1E-01,   6.4E+00                                            
   10 spline knots.   Ns = 5(1)                                            
  (11) 6 infls.   (11) 5 extrs.                                            
  363 points on ppm-axis = NY
      4.250000     4.238821     4.227641     4.216462     4.205282     4.194103     4.182923     4.171744     4.160564     4.149385
      4.138206     4.127026     4.115847     4.104667     4.093488     4.082308     4.071129     4.059949     4.048770     4.037591
      4.026411     4.015232     4.004052     3.992873     3.981693     3.970514     3.959334     3.948155     3.936975     3.925796
      3.914617     3.903437     3.892258     3.881078     3.869899     3.858719     3.847540     3.836360     3.825181     3.814002
      3.802822     3.791643     3.780463     3.769284     3.758104     3.746925     3.735745     3.724566     3.713387     3.702207
      3.691028     3.679848     3.668669     3.657489     3.646310     3.635130     3.623951     3.612772     3.601592     3.590413
      3.579233     3.568054     3.556874     3.545695     3.534515     3.523336     3.512156     3.500977     3.489798     3.478618
      3.467439     3.456259     3.445080     3.433900     3.422721     3.411541     3.400362     3.389183     3.378003     3.366824
      3.355644     3.344465     3.333285     3.322106     3.310926     3.299747     3.288568     3.277388     3.266209     3.255029
      3.243850     3.232670     3.221491     3.210311     3.199132     3.187953     3.176773     3.165594     3.154414     3.143235
      3.132055     3.120876     3.109696     3.098517     3.087337     3.076158     3.064979     3.053799     3.042620     3.031440
      3.020261     3.009081     2.997902     2.986722     2.975543     2.964364     2.953184     2.942005     2.930825     2.919646
      2.908466     2.897287     2.886107     2.874928     2.863749     2.852569     2.841390     2.830210     2.819031     2.807851
      2.796672     2.785492     2.774313     2.763134     2.751954     2.740775     2.729595     2.718416     2.707236     2.696057
      2.684877     2.673698     2.662519     2.651339     2.640160     2.628980     2.617801     2.606621     2.595442     2.584262
      2.573083     2.561903     2.550724     2.539545     2.528365     2.517186     2.506006     2.494827     2.483647     2.472468
      2.461288     2.450109     2.438930     2.427750     2.416571     2.405391     2.394212     2.383032     2.371853     2.360673
      2.349494     2.338315     2.327135     2.315956     2.304776     2.293597     2.282417     2.271238     2.260058     2.248879
      2.237700     2.226520     2.215341     2.204161     2.192982     2.181802     2.170623     2.159443     2.148264     2.137084
      2.125905     2.114726     2.103546     2.092367     2.081187     2.070008     2.058828     2.047649     2.036469     2.025290
      2.014111     2.002931     1.991752     1.980572     1.969393     1.958213     1.947034     1.935854     1.924675     1.913496
      1.902316     1.891137     1.879957     1.868778     1.857598     1.846419     1.835239     1.824060     1.812881     1.801701
      1.790522     1.779342     1.768163     1.756983     1.745804     1.734624     1.723445     1.712265     1.701086     1.689907
      1.678727     1.667548     1.656368     1.645189     1.634009     1.622830     1.611650     1.600471     1.589292     1.578112
      1.566933     1.555753     1.544574     1.533394     1.522215     1.511035     1.499856     1.488677     1.477497     1.466318
      1.455138     1.443959     1.432779     1.421600     1.410420     1.399241     1.388062     1.376882     1.365703     1.354523
      1.343344     1.332164     1.320985     1.309805     1.298626     1.287446     1.276267     1.265088     1.253908     1.242729
      1.231549     1.220370     1.209190     1.198011     1.186831     1.175652     1.164473     1.153293     1.142114     1.130934
      1.119755     1.108575     1.097396     1.086216     1.075037     1.063858     1.052678     1.041499     1.030319     1.019140
      1.007960     0.996781     0.985601     0.974422     0.963243     0.952063     0.940884     0.929704     0.918525     0.907345
      0.896166     0.884986     0.873807     0.862628     0.851448     0.840269     0.829089     0.817910     0.806730     0.795551
      0.784371     0.773192     0.762012     0.750833     0.739654     0.728474     0.717295     0.706115     0.694936     0.683756
      0.672577     0.661397     0.650218     0.639039     0.627859     0.616680     0.605500     0.594321     0.583141     0.571962
      0.560782     0.549603     0.538424     0.527244     0.516065     0.504885     0.493706     0.482526     0.471347     0.460167
      0.448988     0.437809     0.426629     0.415450     0.404270     0.393091     0.381911     0.370732     0.359552     0.348373
      0.337193     0.326014     0.314835     0.303655     0.292476     0.281296     0.270117     0.258937     0.247758     0.236578
      0.225399     0.214220     0.203040
 NY phased data points follow
   4.36353E-09  5.71484E-09  4.77586E-09  6.43977E-09  5.32881E-09  6.32670E-09  5.05746E-09  6.49922E-09  5.50234E-09  6.18672E-09
   5.36501E-09  6.62957E-09  5.80664E-09  7.38797E-09  6.62715E-09  6.93429E-09  6.55806E-09  7.82923E-09  7.27075E-09  8.23237E-09
   8.14867E-09  9.17309E-09  8.37749E-09  9.02166E-09  7.82158E-09  8.20449E-09  7.41029E-09  7.89788E-09  7.52269E-09  8.11964E-09
   7.58359E-09  8.15476E-09  7.76123E-09  8.45013E-09  7.26734E-09  8.07187E-09  7.26432E-09  8.17340E-09  7.37019E-09  8.19010E-09
   7.45381E-09  8.14391E-09  7.82415E-09  8.27294E-09  7.80007E-09  8.17649E-09  7.46303E-09  8.57364E-09  8.21064E-09  9.06916E-09
   8.91968E-09  1.00739E-08  1.09213E-08  1.17792E-08  1.19150E-08  1.21678E-08  1.11569E-08  1.13148E-08  1.04338E-08  1.09643E-08
   9.63261E-09  9.68295E-09  9.23601E-09  8.82671E-09  8.17440E-09  8.75260E-09  8.72192E-09  1.02588E-08  1.06761E-08  1.21596E-08
   1.29961E-08  1.37466E-08  1.33340E-08  1.32352E-08  1.35797E-08  1.27121E-08  1.32453E-08  1.24615E-08  1.31677E-08  1.23141E-08
   1.25996E-08  1.25817E-08  1.21579E-08  1.19357E-08  1.15826E-08  1.13866E-08  1.09798E-08  1.10470E-08  1.06247E-08  1.01685E-08
   1.03516E-08  9.87878E-09  1.01137E-08  1.00672E-08  9.99629E-09  9.89624E-09  1.05532E-08  9.96495E-09  9.92009E-09  9.26099E-09
   9.08465E-09  9.11949E-09  9.15217E-09  8.44655E-09  9.00627E-09  8.74758E-09  9.24709E-09  8.83271E-09  8.91072E-09  8.25357E-09
   8.46866E-09  8.21643E-09  8.49850E-09  7.73936E-09  7.48112E-09  6.58700E-09  7.36853E-09  6.81670E-09  6.88199E-09  6.07490E-09
   6.89069E-09  6.50051E-09  6.81924E-09  6.37765E-09  7.19650E-09  6.58806E-09  7.05801E-09  6.31140E-09  6.70587E-09  5.96072E-09
   7.45832E-09  7.04838E-09  7.66444E-09  7.14675E-09  7.48828E-09  7.38618E-09  8.43344E-09  7.93938E-09  8.33163E-09  8.15713E-09
   9.11761E-09  8.51193E-09  9.27348E-09  8.73779E-09  9.25745E-09  9.02285E-09  9.18758E-09  9.17974E-09  9.67058E-09  9.59840E-09
   1.02730E-08  9.81608E-09  1.06959E-08  1.00023E-08  1.04527E-08  9.95380E-09  1.07824E-08  9.73198E-09  9.83630E-09  8.91780E-09
   9.60523E-09  1.07351E-08  1.35663E-08  1.53283E-08  1.71121E-08  1.81211E-08  2.07846E-08  2.17047E-08  2.35070E-08  2.43333E-08
   2.58822E-08  2.64179E-08  2.77735E-08  2.79389E-08  2.84492E-08  2.78055E-08  2.77251E-08  2.59559E-08  2.47896E-08  2.29919E-08
   2.06514E-08  1.79072E-08  1.54619E-08  1.23479E-08  1.02599E-08  7.49176E-09  5.05100E-09  2.96343E-09  2.32587E-09  7.27075E-10
   1.34305E-09  9.10812E-10  1.77141E-09  2.39659E-09  3.65567E-09  3.89870E-09  4.68897E-09  4.30851E-09  4.75572E-09  4.33306E-09
   3.80360E-09  4.24034E-09  3.83919E-09  3.91433E-09  4.27465E-09  4.62944E-09  4.86661E-09  5.08258E-09  5.30934E-09  4.81232E-09
   4.52208E-09  3.79099E-09  3.50700E-09  3.35139E-09  3.48883E-09  3.93040E-09  4.45342E-09  4.78185E-09  5.03798E-09  4.86243E-09
   4.39860E-09  4.19457E-09  3.54514E-09  3.62068E-09  3.67368E-09  3.77054E-09  3.03325E-09  3.84738E-09  3.39027E-09  4.09081E-09
   3.83728E-09  4.29007E-09  3.90491E-09  4.16046E-09  4.08689E-09  4.23871E-09  3.82219E-09  4.05275E-09  3.83238E-09  4.46574E-09
   3.44137E-09  4.40910E-09  3.72912E-09  4.40303E-09  3.90620E-09  4.16723E-09  3.83917E-09  4.51347E-09  3.48442E-09  4.06549E-09
   3.09927E-09  3.92449E-09  3.92115E-09  4.34518E-09  3.88119E-09  4.38081E-09  4.40325E-09  4.47390E-09  3.68329E-09  4.65073E-09
   2.94275E-09  4.10339E-09  3.80683E-09  3.95583E-09  3.31017E-09  3.60465E-09  2.80477E-09  3.54061E-09  3.01605E-09  3.56323E-09
   3.05090E-09  3.77689E-09  3.10134E-09  3.63875E-09  3.49816E-09  3.70379E-09  2.95186E-09  3.50686E-09  3.08132E-09  3.65731E-09
   3.45855E-09  3.57202E-09  3.36401E-09  3.63333E-09  3.61530E-09  3.73393E-09  3.20974E-09  3.03885E-09  3.19290E-09  3.61273E-09
   3.27986E-09  3.18423E-09  3.41833E-09  3.40091E-09  3.14779E-09  3.71596E-09  3.13311E-09  2.72843E-09  3.36913E-09  3.56391E-09
   3.05834E-09  3.22204E-09  3.31426E-09  3.39023E-09  3.05055E-09  3.31540E-09  3.14730E-09  2.91471E-09  3.08984E-09  2.90552E-09
   3.12205E-09  2.95425E-09  2.83684E-09  2.58975E-09  2.92371E-09  3.02852E-09  2.61864E-09  2.53617E-09  3.04280E-09  2.74207E-09
   2.89422E-09  2.55963E-09  2.46961E-09  2.76429E-09  2.34244E-09  2.58528E-09  2.45452E-09  2.20912E-09  2.06174E-09  2.35545E-09
   2.33801E-09  2.10816E-09  1.85885E-09  1.96911E-09  2.02724E-09  1.98745E-09  2.22780E-09  2.08031E-09  1.81421E-09  1.47751E-09
   1.93964E-09  1.50307E-09  2.04891E-09  1.51752E-09  1.64360E-09  1.46617E-09  1.45350E-09  1.34677E-09  1.65114E-09  1.51856E-09
   1.27310E-09  1.23575E-09  1.44567E-09  1.19145E-09  1.32193E-09  1.44210E-09  8.35861E-10  8.74811E-10  1.17229E-09  1.10629E-09
   5.37005E-10  6.55775E-10  9.06283E-10
 NY points of the fit to the data follow
   5.10107E-09  6.01167E-09  4.73447E-09  5.17770E-09  5.43141E-09  5.39697E-09  5.24800E-09  5.36110E-09  6.18754E-09  5.77743E-09
   5.06741E-09  5.45822E-09  5.98828E-09  7.56450E-09  7.84540E-09  7.07088E-09  7.16384E-09  8.19422E-09  7.93866E-09  7.67905E-09
   7.52314E-09  8.39908E-09  8.30995E-09  9.39256E-09  8.84611E-09  8.34549E-09  7.38682E-09  7.07512E-09  7.40060E-09  8.12994E-09
   7.97208E-09  9.18720E-09  7.28925E-09  7.49053E-09  8.91082E-09  7.47346E-09  6.50747E-09  7.75367E-09  8.19032E-09  9.20712E-09
   8.74537E-09  8.49964E-09  7.54943E-09  9.42138E-09  1.09771E-08  9.12157E-09  9.37159E-09  9.68667E-09  8.09811E-09  9.62475E-09
   9.34195E-09  9.05975E-09  9.39462E-09  1.05096E-08  1.14145E-08  1.12400E-08  1.11757E-08  9.80168E-09  9.91633E-09  1.06410E-08
   9.88029E-09  1.00665E-08  1.08270E-08  1.08677E-08  1.05547E-08  9.76494E-09  1.25885E-08  1.25663E-08  1.06068E-08  1.04168E-08
   1.17490E-08  1.23759E-08  1.22274E-08  1.25132E-08  1.22349E-08  1.24117E-08  1.47414E-08  1.37894E-08  1.16707E-08  1.21364E-08
   1.26571E-08  1.24707E-08  1.17470E-08  1.11885E-08  1.12736E-08  1.21602E-08  1.16135E-08  1.06537E-08  1.00269E-08  9.56937E-09
   9.60257E-09  9.82743E-09  9.62974E-09  9.38297E-09  1.02145E-08  1.00480E-08  8.61190E-09  9.28385E-09  9.64247E-09  8.91466E-09
   8.98823E-09  8.59749E-09  8.70318E-09  9.05428E-09  8.99824E-09  8.78367E-09  8.61235E-09  8.78456E-09  9.05885E-09  9.12407E-09
   8.62490E-09  8.00524E-09  8.46313E-09  8.32737E-09  7.71541E-09  7.54566E-09  7.49300E-09  7.48460E-09  7.49694E-09  7.52031E-09
   7.55021E-09  7.58413E-09  7.62035E-09  7.65820E-09  7.69691E-09  7.73597E-09  7.77499E-09  7.81373E-09  7.85198E-09  7.88942E-09
   7.92602E-09  7.96162E-09  7.99606E-09  8.02929E-09  8.06126E-09  8.09186E-09  8.12101E-09  8.14868E-09  8.17481E-09  8.19936E-09
   8.22233E-09  8.24367E-09  8.26335E-09  8.28142E-09  8.29791E-09  8.31279E-09  8.32614E-09  8.33800E-09  8.34848E-09  8.35776E-09
   8.36602E-09  8.37351E-09  8.38058E-09  8.38770E-09  8.39551E-09  8.40497E-09  8.41739E-09  8.43477E-09  8.46015E-09  8.49825E-09
   8.55690E-09  8.65003E-09  8.80512E-09  9.08454E-09  9.66422E-09  1.12513E-08  1.75824E-08  2.15832E-08  2.48248E-08  2.53752E-08
   2.49613E-08  2.66960E-08  2.83828E-08  2.84198E-08  2.76711E-08  2.75290E-08  3.03754E-08  2.73569E-08  2.33410E-08  1.66328E-08
   1.07071E-08  8.98361E-09  8.26218E-09  7.85496E-09  7.58279E-09  7.38027E-09  7.21799E-09  7.08090E-09  6.96054E-09  6.85182E-09
   6.75147E-09  6.65739E-09  6.56811E-09  6.48264E-09  6.40024E-09  6.32040E-09  6.24275E-09  6.16703E-09  6.09302E-09  6.02060E-09
   5.94968E-09  5.88017E-09  5.81206E-09  5.74532E-09  5.67994E-09  5.61593E-09  5.55334E-09  5.49214E-09  5.43241E-09  5.37406E-09
   5.31707E-09  5.26139E-09  5.20699E-09  5.15382E-09  5.10185E-09  5.05105E-09  5.00140E-09  4.95287E-09  4.90542E-09  4.85903E-09
   4.81369E-09  4.76936E-09  4.72602E-09  4.68366E-09  4.64223E-09  4.60174E-09  4.56217E-09  4.52347E-09  4.48562E-09  4.44865E-09
   4.41250E-09  4.37715E-09  4.34260E-09  4.30882E-09  4.27580E-09  4.24349E-09  4.21191E-09  4.18103E-09  4.15084E-09  4.12131E-09
   4.09242E-09  4.06417E-09  4.03653E-09  4.00948E-09  3.98301E-09  3.95710E-09  3.93173E-09  3.90687E-09  3.88255E-09  3.85872E-09
   3.83536E-09  3.81245E-09  3.79000E-09  3.76798E-09  3.74634E-09  3.72511E-09  3.70426E-09  3.68377E-09  3.66361E-09  3.64378E-09
   3.62426E-09  3.60504E-09  3.58610E-09  3.56743E-09  3.54900E-09  3.53081E-09  3.51284E-09  3.49507E-09  3.47749E-09  3.46009E-09
   3.44285E-09  3.42575E-09  3.40878E-09  3.39192E-09  3.37516E-09  3.35848E-09  3.34188E-09  3.32533E-09  3.30881E-09  3.29232E-09
   3.27584E-09  3.25936E-09  3.24284E-09  3.22629E-09  3.20970E-09  3.19304E-09  3.17629E-09  3.15944E-09  3.14249E-09  3.12542E-09
   3.10820E-09  3.09082E-09  3.07327E-09  3.05555E-09  3.03761E-09  3.01947E-09  3.00109E-09  2.98246E-09  2.96357E-09  2.94441E-09
   2.92497E-09  2.90520E-09  2.88513E-09  2.86472E-09  2.84395E-09  2.82283E-09  2.80133E-09  2.77942E-09  2.75712E-09  2.73437E-09
   2.71120E-09  2.68759E-09  2.66351E-09  2.63899E-09  2.61404E-09  2.58867E-09  2.56289E-09  2.53670E-09  2.51013E-09  2.48318E-09
   2.45586E-09  2.42818E-09  2.40016E-09  2.37179E-09  2.34310E-09  2.31408E-09  2.28476E-09  2.25515E-09  2.22524E-09  2.19506E-09
   2.16461E-09  2.13391E-09  2.10295E-09  2.07177E-09  2.04035E-09  2.00872E-09  1.97689E-09  1.94486E-09  1.91265E-09  1.88026E-09
   1.84771E-09  1.81501E-09  1.78216E-09  1.74918E-09  1.71607E-09  1.68285E-09  1.64954E-09  1.61612E-09  1.58263E-09  1.54906E-09
   1.51543E-09  1.48176E-09  1.44804E-09  1.41429E-09  1.38051E-09  1.34673E-09  1.31296E-09  1.27918E-09  1.24544E-09  1.21172E-09
   1.17804E-09  1.14442E-09  1.11085E-09
 NY background values follow
    -5.786E-09   -5.679E-09   -5.571E-09   -5.464E-09   -5.356E-09   -5.248E-09   -5.141E-09   -5.033E-09   -4.925E-09   -4.817E-09
    -4.709E-09   -4.601E-09   -4.493E-09   -4.384E-09   -4.276E-09   -4.168E-09   -4.060E-09   -3.951E-09   -3.843E-09   -3.734E-09
    -3.626E-09   -3.517E-09   -3.409E-09   -3.300E-09   -3.192E-09   -3.083E-09   -2.975E-09   -2.866E-09   -2.757E-09   -2.649E-09
    -2.540E-09   -2.432E-09   -2.323E-09   -2.215E-09   -2.106E-09   -1.998E-09   -1.889E-09   -1.781E-09   -1.672E-09   -1.564E-09
    -1.455E-09   -1.347E-09   -1.239E-09   -1.131E-09   -1.022E-09   -9.143E-10   -8.062E-10   -6.981E-10   -5.902E-10   -4.823E-10
    -3.745E-10   -2.667E-10   -1.590E-10   -5.138E-11    5.612E-11    1.635E-10    2.708E-10    3.779E-10    4.849E-10    5.916E-10
     6.982E-10    8.046E-10    9.107E-10    1.017E-09    1.122E-09    1.228E-09    1.333E-09    1.437E-09    1.542E-09    1.646E-09
     1.750E-09    1.853E-09    1.956E-09    2.059E-09    2.161E-09    2.263E-09    2.364E-09    2.465E-09    2.565E-09    2.665E-09
     2.764E-09    2.863E-09    2.961E-09    3.058E-09    3.155E-09    3.252E-09    3.348E-09    3.443E-09    3.537E-09    3.631E-09
     3.724E-09    3.817E-09    3.909E-09    4.000E-09    4.090E-09    4.179E-09    4.268E-09    4.356E-09    4.443E-09    4.530E-09
     4.615E-09    4.700E-09    4.783E-09    4.866E-09    4.948E-09    5.029E-09    5.109E-09    5.188E-09    5.266E-09    5.343E-09
     5.418E-09    5.493E-09    5.566E-09    5.639E-09    5.709E-09    5.779E-09    5.847E-09    5.914E-09    5.980E-09    6.044E-09
     6.106E-09    6.167E-09    6.227E-09    6.285E-09    6.341E-09    6.395E-09    6.448E-09    6.499E-09    6.549E-09    6.596E-09
     6.642E-09    6.686E-09    6.728E-09    6.768E-09    6.806E-09    6.842E-09    6.876E-09    6.908E-09    6.937E-09    6.965E-09
     6.990E-09    7.013E-09    7.034E-09    7.053E-09    7.069E-09    7.083E-09    7.094E-09    7.103E-09    7.109E-09    7.113E-09
     7.115E-09    7.113E-09    7.109E-09    7.103E-09    7.093E-09    7.081E-09    7.067E-09    7.049E-09    7.029E-09    7.006E-09
     6.981E-09    6.953E-09    6.923E-09    6.891E-09    6.856E-09    6.820E-09    6.781E-09    6.740E-09    6.698E-09    6.654E-09
     6.608E-09    6.560E-09    6.511E-09    6.460E-09    6.408E-09    6.354E-09    6.299E-09    6.243E-09    6.186E-09    6.128E-09
     6.069E-09    6.009E-09    5.948E-09    5.886E-09    5.824E-09    5.761E-09    5.697E-09    5.633E-09    5.569E-09    5.504E-09
     5.440E-09    5.375E-09    5.310E-09    5.245E-09    5.180E-09    5.115E-09    5.050E-09    4.986E-09    4.922E-09    4.859E-09
     4.796E-09    4.734E-09    4.673E-09    4.612E-09    4.552E-09    4.493E-09    4.435E-09    4.378E-09    4.323E-09    4.268E-09
     4.214E-09    4.162E-09    4.111E-09    4.060E-09    4.011E-09    3.963E-09    3.915E-09    3.869E-09    3.824E-09    3.780E-09
     3.736E-09    3.694E-09    3.652E-09    3.611E-09    3.572E-09    3.533E-09    3.495E-09    3.457E-09    3.421E-09    3.385E-09
     3.351E-09    3.316E-09    3.283E-09    3.251E-09    3.219E-09    3.188E-09    3.157E-09    3.127E-09    3.098E-09    3.070E-09
     3.042E-09    3.014E-09    2.988E-09    2.961E-09    2.936E-09    2.911E-09    2.886E-09    2.862E-09    2.839E-09    2.816E-09
     2.793E-09    2.771E-09    2.749E-09    2.728E-09    2.707E-09    2.687E-09    2.667E-09    2.647E-09    2.627E-09    2.608E-09
     2.589E-09    2.571E-09    2.552E-09    2.534E-09    2.517E-09    2.499E-09    2.482E-09    2.465E-09    2.448E-09    2.431E-09
     2.414E-09    2.398E-09    2.381E-09    2.365E-09    2.349E-09    2.333E-09    2.317E-09    2.301E-09    2.285E-09    2.269E-09
     2.253E-09    2.237E-09    2.221E-09    2.205E-09    2.189E-09    2.173E-09    2.156E-09    2.140E-09    2.124E-09    2.107E-09
     2.090E-09    2.074E-09    2.057E-09    2.039E-09    2.022E-09    2.004E-09    1.986E-09    1.968E-09    1.950E-09    1.931E-09
     1.912E-09    1.893E-09    1.873E-09    1.853E-09    1.833E-09    1.813E-09    1.792E-09    1.770E-09    1.748E-09    1.726E-09
     1.703E-09    1.680E-09    1.657E-09    1.633E-09    1.608E-09    1.583E-09    1.558E-09    1.532E-09    1.506E-09    1.480E-09
     1.453E-09    1.426E-09    1.398E-09    1.370E-09    1.342E-09    1.314E-09    1.285E-09    1.256E-09    1.226E-09    1.196E-09
     1.166E-09    1.136E-09    1.106E-09    1.075E-09    1.044E-09    1.013E-09    9.817E-10    9.502E-10    9.184E-10    8.866E-10
     8.545E-10    8.223E-10    7.899E-10    7.575E-10    7.249E-10    6.921E-10    6.593E-10    6.264E-10    5.934E-10    5.604E-10
     5.273E-10    4.941E-10    4.609E-10    4.277E-10    3.944E-10    3.612E-10    3.279E-10    2.947E-10    2.614E-10    2.283E-10
     1.951E-10    1.620E-10    1.290E-10
 Ala      Conc. = 5.18E-10
  -5.38448E-09 -5.30250E-09 -5.17652E-09 -5.06353E-09 -4.95312E-09 -4.82605E-09 -4.68433E-09 -4.73721E-09 -4.65588E-09 -4.40608E-09
  -4.45182E-09 -4.44087E-09 -4.28364E-09 -4.21914E-09 -4.15120E-09 -4.06557E-09 -3.97157E-09 -3.87301E-09 -3.77176E-09 -3.66871E-09
  -3.56444E-09 -3.45931E-09 -3.35350E-09 -3.24719E-09 -3.14053E-09 -3.03354E-09 -2.92632E-09 -2.81890E-09 -2.71133E-09 -2.60362E-09
  -2.49578E-09 -2.38790E-09 -2.27992E-09 -2.17189E-09 -2.06381E-09 -1.95572E-09 -1.84760E-09 -1.73943E-09 -1.63128E-09 -1.52317E-09
  -1.41500E-09 -1.30684E-09 -1.19873E-09 -1.09065E-09 -9.82571E-10 -8.74542E-10 -7.66525E-10 -6.58561E-10 -5.50648E-10 -4.42806E-10
  -3.34968E-10 -2.27194E-10 -1.19472E-10 -1.18301E-11  9.57225E-11  2.03185E-10  3.10533E-10  4.17754E-10  5.24828E-10  6.31746E-10
   7.38484E-10  8.45031E-10  9.51377E-10  1.05750E-09  1.16338E-09  1.26902E-09  1.37439E-09  1.47949E-09  1.58429E-09  1.68879E-09
   1.79297E-09  1.89682E-09  2.00034E-09  2.10350E-09  2.20631E-09  2.30875E-09  2.41082E-09  2.51250E-09  2.61383E-09  2.71476E-09
   2.81533E-09  2.91552E-09  3.01538E-09  3.11491E-09  3.21414E-09  3.31314E-09  3.41196E-09  3.51072E-09  3.60953E-09  3.70860E-09
   3.80820E-09  3.90876E-09  4.01094E-09  4.11578E-09  4.22509E-09  4.34227E-09  4.47428E-09  4.63826E-09  4.88842E-09  5.46087E-09
   5.80671E-09  5.53349E-09  6.04275E-09  6.67900E-09  6.82266E-09  6.75624E-09  6.69967E-09  6.96343E-09  7.31375E-09  7.44299E-09
   6.99874E-09  6.42592E-09  6.92389E-09  6.82362E-09  6.24317E-09  6.10164E-09  6.07496E-09  6.08932E-09  6.12200E-09  6.16388E-09
   6.21062E-09  6.25991E-09  6.31039E-09  6.36120E-09  6.41180E-09  6.46178E-09  6.51087E-09  6.55884E-09  6.60554E-09  6.65084E-09
   6.69461E-09  6.73677E-09  6.77724E-09  6.81595E-09  6.85284E-09  6.88783E-09  6.92088E-09  6.95195E-09  6.98097E-09  7.00791E-09
   7.03272E-09  7.05536E-09  7.07578E-09  7.09396E-09  7.10985E-09  7.12340E-09  7.13460E-09  7.14338E-09  7.14974E-09  7.15364E-09
   7.15505E-09  7.15394E-09  7.15029E-09  7.14408E-09  7.13531E-09  7.12397E-09  7.11011E-09  7.09385E-09  7.07540E-09  7.05504E-09
   7.03320E-09  7.01060E-09  6.98864E-09  6.97042E-09  6.96471E-09  7.00582E-09  7.30328E-09  7.56407E-09  7.34837E-09  7.22425E-09
   7.25301E-09  7.38332E-09  7.38195E-09  7.20504E-09  7.07491E-09  7.12310E-09  7.27955E-09  7.06737E-09  6.45211E-09  6.26991E-09
   6.16735E-09  6.08661E-09  6.01398E-09  5.94491E-09  5.87750E-09  5.81094E-09  5.74477E-09  5.67874E-09  5.61280E-09  5.54688E-09
   5.48097E-09  5.41512E-09  5.34932E-09  5.28367E-09  5.21817E-09  5.15292E-09  5.08795E-09  5.02337E-09  4.95921E-09  4.89555E-09
   4.83247E-09  4.77003E-09  4.70831E-09  4.64737E-09  4.58730E-09  4.52815E-09  4.47004E-09  4.41299E-09  4.35709E-09  4.30231E-09
   4.24865E-09  4.19608E-09  4.14459E-09  4.09416E-09  4.04478E-09  3.99642E-09  3.94908E-09  3.90274E-09  3.85736E-09  3.81295E-09
   3.76950E-09  3.72697E-09  3.68535E-09  3.64463E-09  3.60479E-09  3.56581E-09  3.52771E-09  3.49041E-09  3.45392E-09  3.41825E-09
   3.38336E-09  3.34924E-09  3.31587E-09  3.28323E-09  3.25132E-09  3.22010E-09  3.18957E-09  3.15971E-09  3.13051E-09  3.10195E-09
   3.07401E-09  3.04668E-09  3.01994E-09  2.99376E-09  2.96816E-09  2.94309E-09  2.91855E-09  2.89449E-09  2.87096E-09  2.84791E-09
   2.82531E-09  2.80315E-09  2.78142E-09  2.76013E-09  2.73920E-09  2.71867E-09  2.69850E-09  2.67869E-09  2.65920E-09  2.64002E-09
   2.62115E-09  2.60257E-09  2.58426E-09  2.56621E-09  2.54840E-09  2.53082E-09  2.51345E-09  2.49627E-09  2.47928E-09  2.46246E-09
   2.44579E-09  2.42926E-09  2.41286E-09  2.39656E-09  2.38035E-09  2.36422E-09  2.34816E-09  2.33215E-09  2.31617E-09  2.30021E-09
   2.28426E-09  2.26830E-09  2.25230E-09  2.23627E-09  2.22019E-09  2.20404E-09  2.18780E-09  2.17146E-09  2.15501E-09  2.13844E-09
   2.12172E-09  2.10483E-09  2.08777E-09  2.07054E-09  2.05309E-09  2.03543E-09  2.01754E-09  1.99939E-09  1.98099E-09  1.96231E-09
   1.94334E-09  1.92405E-09  1.90446E-09  1.88452E-09  1.86423E-09  1.84358E-09  1.82255E-09  1.80111E-09  1.77928E-09  1.75700E-09
   1.73430E-09  1.71115E-09  1.68755E-09  1.66349E-09  1.63901E-09  1.61411E-09  1.58879E-09  1.56308E-09  1.53697E-09  1.51049E-09
   1.48364E-09  1.45643E-09  1.42886E-09  1.40097E-09  1.37274E-09  1.34420E-09  1.31534E-09  1.28620E-09  1.25676E-09  1.22705E-09
   1.19707E-09  1.16684E-09  1.13636E-09  1.10565E-09  1.07471E-09  1.04355E-09  1.01220E-09  9.80647E-10  9.48912E-10  9.17003E-10
   8.84933E-10  8.52711E-10  8.20347E-10  7.87850E-10  7.55229E-10  7.22498E-10  6.89670E-10  6.56748E-10  6.23747E-10  5.90672E-10
   5.57542E-10  5.24360E-10  4.91142E-10  4.57891E-10  4.24620E-10  3.91347E-10  3.58078E-10  3.24811E-10  2.91576E-10  2.58371E-10
   2.25210E-10  1.92103E-10  1.59059E-10
 Asp      Conc. = 4.41E-09
  -9.74076E-10 -4.81203E-10 -1.55768E-09 -1.61604E-09 -2.47615E-09 -2.48326E-09 -2.59993E-09 -3.14990E-09 -3.79637E-09 -4.00833E-09
  -4.06460E-09 -4.05690E-09 -4.01732E-09 -3.96153E-09 -3.87261E-09 -3.77909E-09 -3.68305E-09 -3.58335E-09 -3.48036E-09 -3.37446E-09
  -3.26598E-09 -3.15513E-09 -3.04196E-09 -2.92649E-09 -2.80862E-09 -2.68809E-09 -2.56457E-09 -2.43754E-09 -2.30627E-09 -2.16969E-09
  -2.02622E-09 -1.87359E-09 -1.70801E-09 -1.52313E-09 -1.30688E-09 -1.03280E-09 -6.29532E-10  1.09200E-11  7.28716E-11  5.13876E-10
   3.80793E-10  6.30550E-10  1.09042E-09  2.10236E-09  2.99018E-09  4.35386E-09  5.18487E-09  4.50585E-09  4.10677E-09  6.21968E-09
   6.04432E-09  5.81358E-09  5.89959E-09  6.49925E-09  6.88975E-09  7.01248E-09  5.88016E-09  3.72881E-09  3.79083E-09  4.72159E-09
   3.47823E-09  3.21819E-09  3.33094E-09  2.57297E-09  2.33342E-09  2.73645E-09  3.11184E-09  2.74814E-09  2.59140E-09  2.53500E-09
   2.52855E-09  2.55081E-09  2.59127E-09  2.64405E-09  2.70559E-09  2.77354E-09  2.84631E-09  2.92274E-09  3.00202E-09  3.08350E-09
   3.16668E-09  3.25120E-09  3.33674E-09  3.42304E-09  3.50989E-09  3.59714E-09  3.68463E-09  3.77224E-09  3.85986E-09  3.94739E-09
   4.03476E-09  4.12187E-09  4.20871E-09  4.29516E-09  4.38120E-09  4.46678E-09  4.55186E-09  4.63639E-09  4.72031E-09  4.80362E-09
   4.88625E-09  4.96822E-09  5.04946E-09  5.12994E-09  5.20967E-09  5.28858E-09  5.36662E-09  5.44377E-09  5.51995E-09  5.59515E-09
   5.66934E-09  5.74244E-09  5.81444E-09  5.88528E-09  5.95492E-09  6.02333E-09  6.09047E-09  6.15629E-09  6.22077E-09  6.28385E-09
   6.34551E-09  6.40570E-09  6.46439E-09  6.52154E-09  6.57711E-09  6.63107E-09  6.68337E-09  6.73399E-09  6.78289E-09  6.83003E-09
   6.87537E-09  6.91889E-09  6.96054E-09  7.00030E-09  7.03812E-09  7.07398E-09  7.10785E-09  7.13969E-09  7.16947E-09  7.19716E-09
   7.22274E-09  7.24618E-09  7.26745E-09  7.28654E-09  7.30342E-09  7.31808E-09  7.33050E-09  7.34068E-09  7.34863E-09  7.35435E-09
   7.35788E-09  7.35924E-09  7.35851E-09  7.35577E-09  7.35117E-09  7.34490E-09  7.33727E-09  7.32878E-09  7.32020E-09  7.31263E-09
   7.30780E-09  7.30852E-09  7.31985E-09  7.35161E-09  7.42579E-09  7.60140E-09  8.08879E-09  1.00126E-08  1.38932E-08  1.24668E-08
   1.15308E-08  1.17310E-08  1.32500E-08  1.40392E-08  1.31166E-08  1.20108E-08  1.26047E-08  1.40811E-08  1.45793E-08  8.90588E-09
   7.40711E-09  6.87822E-09  6.60361E-09  6.42398E-09  6.28832E-09  6.17607E-09  6.07751E-09  5.98750E-09  5.90321E-09  5.82286E-09
   5.74535E-09  5.67000E-09  5.59631E-09  5.52402E-09  5.45286E-09  5.38274E-09  5.31354E-09  5.24526E-09  5.17782E-09  5.11126E-09
   5.04559E-09  4.98082E-09  4.91700E-09  4.85416E-09  4.79236E-09  4.73163E-09  4.67207E-09  4.61367E-09  4.55654E-09  4.50062E-09
   4.44589E-09  4.39233E-09  4.33992E-09  4.28862E-09  4.23843E-09  4.18931E-09  4.14125E-09  4.09423E-09  4.04822E-09  4.00319E-09
   3.95916E-09  3.91609E-09  3.87395E-09  3.83273E-09  3.79242E-09  3.75299E-09  3.71444E-09  3.67673E-09  3.63984E-09  3.60379E-09
   3.56853E-09  3.53405E-09  3.50035E-09  3.46738E-09  3.43515E-09  3.40362E-09  3.37279E-09  3.34265E-09  3.31317E-09  3.28433E-09
