 LCModel (Version 6.3-1R) Copyright: S.W. Provencher.          Ref.: Magn. Reson. Med. 30:672-679 (1993).                
 onepulse 21x5_ftSpec_smooth_lcm
 26 lines in following concentration table = NCONC+1
    Conc.  %SD /Cr+PCr  Metabolite                                         
 9.40E-10  29%   1.853 Ala                                                 
 4.40E-09  15%   8.674 Asp                                                 
 3.27E-10 409%   0.645 Cr                                                  
 1.85E-09  28%   3.655 GABA                                                
    0.000 999%   0.000 Glc                                                 
    0.000 999%   0.000 Gln                                                 
    0.000 999%   0.000 Glu                                                 
    0.000 999%   0.000 Glyc                                                
    0.000 999%   0.000 GPC                                                 
 1.10E-09  31%   2.163 GSH                                                 
 2.95E-09   9%   5.812 Ins                                                 
    0.000 999%   0.000 Lac                                                 
    0.000 999%   0.000 NAAG                                                
 6.09E-10  35%   1.200 NAA                                                 
    0.000 999%   0.000 PCh                                                 
 1.80E-10 719%   0.355 PCr                                                 
 3.43E-09  16%   6.763 PE                                                  
 1.58E-10  88%   0.312 Scyllo                                              
 2.32E-09  41%   4.580 Ser                                                 
    0.000 999%   0.000 Tau                                                 
    0.000 999%   0.000 GPC+PCh                                             
 6.09E-10  35%   1.200 NAA+NAAG                                            
 2.95E-09   9%   5.812 Ins+Glyc                                            
 5.07E-10  49%   1.000 Cr+PCr                                              
    0.000 999%   0.000 Glu+Gln                                             
   6 lines in following misc. output table
  FWHM = 0.123 ppm    S/N =   6                                            
  Data shift = 0.470 ppm                                                   
  Ph: 179 deg       2.8 deg/ppm                                            
  alphaB,S = 1.2E+00,   1.5E+01                                            
   11 spline knots.   Ns = 5(1)                                            
  (12) 6 infls.   (11) 5 extrs.                                            
  363 points on ppm-axis = NY
      4.250000     4.238821     4.227641     4.216462     4.205282     4.194103     4.182923     4.171744     4.160564     4.149385
      4.138206     4.127026     4.115847     4.104667     4.093488     4.082308     4.071129     4.059949     4.048770     4.037591
      4.026411     4.015232     4.004052     3.992873     3.981693     3.970514     3.959334     3.948155     3.936975     3.925796
      3.914617     3.903437     3.892258     3.881078     3.869899     3.858719     3.847540     3.836360     3.825181     3.814002
      3.802822     3.791643     3.780463     3.769284     3.758104     3.746925     3.735745     3.724566     3.713387     3.702207
      3.691028     3.679848     3.668669     3.657489     3.646310     3.635130     3.623951     3.612772     3.601592     3.590413
      3.579233     3.568054     3.556874     3.545695     3.534515     3.523336     3.512156     3.500977     3.489798     3.478618
      3.467439     3.456259     3.445080     3.433900     3.422721     3.411541     3.400362     3.389183     3.378003     3.366824
      3.355644     3.344465     3.333285     3.322106     3.310926     3.299747     3.288568     3.277388     3.266209     3.255029
      3.243850     3.232670     3.221491     3.210311     3.199132     3.187953     3.176773     3.165594     3.154414     3.143235
      3.132055     3.120876     3.109696     3.098517     3.087337     3.076158     3.064979     3.053799     3.042620     3.031440
      3.020261     3.009081     2.997902     2.986722     2.975543     2.964364     2.953184     2.942005     2.930825     2.919646
      2.908466     2.897287     2.886107     2.874928     2.863749     2.852569     2.841390     2.830210     2.819031     2.807851
      2.796672     2.785492     2.774313     2.763134     2.751954     2.740775     2.729595     2.718416     2.707236     2.696057
      2.684877     2.673698     2.662519     2.651339     2.640160     2.628980     2.617801     2.606621     2.595442     2.584262
      2.573083     2.561903     2.550724     2.539545     2.528365     2.517186     2.506006     2.494827     2.483647     2.472468
      2.461288     2.450109     2.438930     2.427750     2.416571     2.405391     2.394212     2.383032     2.371853     2.360673
      2.349494     2.338315     2.327135     2.315956     2.304776     2.293597     2.282417     2.271238     2.260058     2.248879
      2.237700     2.226520     2.215341     2.204161     2.192982     2.181802     2.170623     2.159443     2.148264     2.137084
      2.125905     2.114726     2.103546     2.092367     2.081187     2.070008     2.058828     2.047649     2.036469     2.025290
      2.014111     2.002931     1.991752     1.980572     1.969393     1.958213     1.947034     1.935854     1.924675     1.913496
      1.902316     1.891137     1.879957     1.868778     1.857598     1.846419     1.835239     1.824060     1.812881     1.801701
      1.790522     1.779342     1.768163     1.756983     1.745804     1.734624     1.723445     1.712265     1.701086     1.689907
      1.678727     1.667548     1.656368     1.645189     1.634009     1.622830     1.611650     1.600471     1.589292     1.578112
      1.566933     1.555753     1.544574     1.533394     1.522215     1.511035     1.499856     1.488677     1.477497     1.466318
      1.455138     1.443959     1.432779     1.421600     1.410420     1.399241     1.388062     1.376882     1.365703     1.354523
      1.343344     1.332164     1.320985     1.309805     1.298626     1.287446     1.276267     1.265088     1.253908     1.242729
      1.231549     1.220370     1.209190     1.198011     1.186831     1.175652     1.164473     1.153293     1.142114     1.130934
      1.119755     1.108575     1.097396     1.086216     1.075037     1.063858     1.052678     1.041499     1.030319     1.019140
      1.007960     0.996781     0.985601     0.974422     0.963243     0.952063     0.940884     0.929704     0.918525     0.907345
      0.896166     0.884986     0.873807     0.862628     0.851448     0.840269     0.829089     0.817910     0.806730     0.795551
      0.784371     0.773192     0.762012     0.750833     0.739654     0.728474     0.717295     0.706115     0.694936     0.683756
      0.672577     0.661397     0.650218     0.639039     0.627859     0.616680     0.605500     0.594321     0.583141     0.571962
      0.560782     0.549603     0.538424     0.527244     0.516065     0.504885     0.493706     0.482526     0.471347     0.460167
      0.448988     0.437809     0.426629     0.415450     0.404270     0.393091     0.381911     0.370732     0.359552     0.348373
      0.337193     0.326014     0.314835     0.303655     0.292476     0.281296     0.270117     0.258937     0.247758     0.236578
      0.225399     0.214220     0.203040
 NY phased data points follow
   7.75915E-09  8.15984E-09  7.63477E-09  7.90416E-09  8.39457E-09  8.88275E-09  8.89956E-09  8.60203E-09  8.76745E-09  9.00556E-09
   8.50653E-09  8.19232E-09  8.01815E-09  7.55331E-09  8.40385E-09  8.38930E-09  7.67466E-09  7.59334E-09  7.70159E-09  7.29984E-09
   7.50503E-09  8.09844E-09  8.73638E-09  9.33269E-09  9.93249E-09  9.82732E-09  9.78160E-09  9.50716E-09  9.13119E-09  9.13379E-09
   9.05825E-09  9.00429E-09  8.69057E-09  9.05228E-09  9.03057E-09  8.57169E-09  8.23228E-09  7.79849E-09  7.89125E-09  7.33131E-09
   7.55003E-09  6.75496E-09  6.84081E-09  6.50117E-09  6.47902E-09  6.25921E-09  5.54966E-09  4.56835E-09  4.45540E-09  3.79353E-09
   3.73316E-09  2.71587E-09  3.76685E-09  4.65212E-09  5.81507E-09  6.82556E-09  7.62729E-09  7.55249E-09  7.71027E-09  7.65578E-09
   8.17519E-09  6.92313E-09  6.95408E-09  5.80160E-09  4.80648E-09  3.50540E-09  2.67942E-09  1.72119E-09  2.39871E-09  2.19640E-09
   4.43050E-09  5.35269E-09  7.30396E-09  6.53301E-09  8.39021E-09  7.77035E-09  8.82594E-09  8.32144E-09  8.98242E-09  9.11973E-09
   9.10027E-09  9.42713E-09  1.00164E-08  9.68812E-09  9.73675E-09  9.53366E-09  9.68017E-09  9.06394E-09  9.56522E-09  8.39226E-09
   8.80235E-09  7.87561E-09  8.32319E-09  7.85980E-09  8.36305E-09  7.53280E-09  8.65017E-09  8.23969E-09  8.62982E-09  7.86350E-09
   7.74392E-09  7.10380E-09  7.71328E-09  6.39367E-09  6.90177E-09  6.33469E-09  7.11304E-09  6.64918E-09  7.41399E-09  6.42805E-09
   6.98938E-09  6.30665E-09  7.25554E-09  6.41949E-09  6.57973E-09  4.95863E-09  5.55437E-09  4.85067E-09  5.23276E-09  3.75492E-09
   4.41344E-09  4.02637E-09  4.37898E-09  3.48251E-09  4.45714E-09  3.89742E-09  4.60267E-09  3.32105E-09  4.00795E-09  2.47864E-09
   3.92585E-09  3.89861E-09  4.55438E-09  4.23907E-09  4.62377E-09  4.30735E-09  5.68332E-09  5.38496E-09  5.84560E-09  5.71480E-09
   6.88957E-09  6.45895E-09  7.34937E-09  7.02430E-09  7.46787E-09  7.29102E-09  7.73824E-09  7.53864E-09  8.28196E-09  8.11463E-09
   9.04428E-09  8.48836E-09  9.87371E-09  8.95572E-09  9.79046E-09  8.60734E-09  9.87131E-09  8.64514E-09  8.50823E-09  6.83731E-09
   7.41559E-09  8.60405E-09  1.23536E-08  1.45969E-08  1.74072E-08  1.86570E-08  2.21506E-08  2.36005E-08  2.59648E-08  2.68305E-08
   2.89928E-08  2.96347E-08  3.13225E-08  3.13065E-08  3.21202E-08  3.11706E-08  3.09450E-08  2.86841E-08  2.73905E-08  2.47943E-08
   2.19873E-08  1.86169E-08  1.58787E-08  1.20596E-08  9.68043E-09  6.36017E-09  3.94277E-09  1.45300E-09  9.27817E-10 -9.16885E-10
   2.75985E-12 -5.82768E-10  5.91390E-10  6.36399E-10  2.48708E-09  2.09163E-09  3.19977E-09  2.35558E-09  3.38122E-09  2.37098E-09
   2.78970E-09  3.07160E-09  2.98785E-09  2.78612E-09  3.51919E-09  3.42330E-09  3.88615E-09  3.73652E-09  3.87287E-09  2.89285E-09
   3.26817E-09  2.16407E-09  2.63747E-09  2.33572E-09  3.21003E-09  3.13727E-09  3.99256E-09  3.38443E-09  3.93648E-09  2.91439E-09
   3.14299E-09  2.28742E-09  2.55012E-09  2.35634E-09  3.06783E-09  2.22636E-09  2.44515E-09  2.60299E-09  2.86807E-09  2.93024E-09
   3.05357E-09  2.97307E-09  3.00444E-09  2.59124E-09  3.02372E-09  2.27937E-09  2.63874E-09  2.23753E-09  2.95768E-09  2.12686E-09
   2.15542E-09  2.55669E-09  2.45252E-09  2.43686E-09  2.44951E-09  2.35575E-09  2.81733E-09  2.49462E-09  2.26175E-09  2.52318E-09
   2.32933E-09  3.01175E-09  3.30015E-09  3.00526E-09  3.01896E-09  2.91789E-09  3.22805E-09  2.04863E-09  2.46735E-09  2.08246E-09
   1.51531E-09  2.76903E-09  1.96503E-09  1.89566E-09  1.81019E-09  1.73488E-09  1.78164E-09  2.52181E-09  2.31492E-09  2.59397E-09
   2.75375E-09  2.89937E-09  2.46416E-09  3.21113E-09  3.04882E-09  2.76244E-09  2.60384E-09  3.17300E-09  3.14641E-09  3.71670E-09
   3.21339E-09  3.37902E-09  3.29385E-09  3.72406E-09  3.45089E-09  3.23875E-09  2.98703E-09  3.41774E-09  3.79477E-09  3.77413E-09
   3.43841E-09  3.75162E-09  3.91860E-09  3.37779E-09  3.82107E-09  3.85264E-09  3.23371E-09  3.96960E-09  4.44169E-09  3.74768E-09
   3.78028E-09  4.22764E-09  3.92765E-09  3.77753E-09  3.86613E-09  3.91331E-09  3.67218E-09  4.07129E-09  3.99712E-09  4.15342E-09
   3.97087E-09  3.88832E-09  4.10697E-09  4.17394E-09  4.50576E-09  4.00941E-09  3.90698E-09  4.62118E-09  4.27913E-09  3.99198E-09
   4.15913E-09  3.99164E-09  4.57935E-09  4.08707E-09  4.25772E-09  4.29598E-09  4.03758E-09  4.28317E-09  4.55356E-09  4.54153E-09
   4.32548E-09  4.25707E-09  4.44396E-09  4.72018E-09  4.51564E-09  4.77546E-09  4.50282E-09  4.41736E-09  4.12918E-09  4.82483E-09
   4.47712E-09  4.74883E-09  4.51251E-09  4.39973E-09  4.64980E-09  4.54035E-09  4.61266E-09  4.70095E-09  4.54771E-09  4.17336E-09
   4.47274E-09  4.56513E-09  4.39927E-09  4.21513E-09  4.34793E-09  3.93878E-09  4.18421E-09  4.53362E-09  4.12391E-09  3.82604E-09
   4.35275E-09  4.42608E-09  3.90674E-09
 NY points of the fit to the data follow
   1.02177E-08  8.10201E-09  7.20699E-09  6.66196E-09  7.76885E-09  8.36005E-09  7.64306E-09  8.43122E-09  1.02162E-08  9.58785E-09
   7.55496E-09  7.07554E-09  7.41306E-09  9.09668E-09  9.85129E-09  8.44881E-09  6.76910E-09  9.23883E-09  9.98116E-09  6.99911E-09
   5.61305E-09  6.64382E-09  8.82067E-09  8.92177E-09  9.08444E-09  1.00206E-08  1.05048E-08  1.02378E-08  9.51621E-09  1.02106E-08
   1.03354E-08  9.99313E-09  9.65586E-09  7.78514E-09  7.55344E-09  7.11773E-09  7.20805E-09  7.56699E-09  7.56802E-09  7.30471E-09
   7.22066E-09  7.13832E-09  5.94498E-09  5.05072E-09  5.55120E-09  5.99610E-09  7.28299E-09  6.31785E-09  5.32603E-09  5.73709E-09
   7.60742E-09  7.60130E-09  7.41908E-09  8.11662E-09  8.45779E-09  7.63335E-09  7.22888E-09  5.17215E-09  5.00747E-09  6.16729E-09
   6.37971E-09  5.10579E-09  5.81903E-09  5.66025E-09  4.97727E-09  6.22303E-09  6.78600E-09  6.11040E-09  5.95850E-09  6.43815E-09
   6.91997E-09  6.74638E-09  6.43998E-09  6.27213E-09  7.12123E-09  7.19595E-09  6.54770E-09  8.19567E-09  8.04126E-09  7.36735E-09
   7.45281E-09  7.51251E-09  7.91723E-09  7.93974E-09  7.47899E-09  7.69492E-09  8.45130E-09  7.74474E-09  5.42231E-09  5.64641E-09
   5.78874E-09  5.74016E-09  6.34778E-09  6.54249E-09  5.79647E-09  6.12703E-09  6.68517E-09  6.32820E-09  6.58031E-09  7.57181E-09
   7.48120E-09  7.07090E-09  7.94411E-09  8.49921E-09  8.25633E-09  7.90669E-09  7.87741E-09  8.13775E-09  8.36583E-09  7.86939E-09
   6.47091E-09  6.44672E-09  7.00368E-09  5.92609E-09  5.24332E-09  5.20645E-09  5.27420E-09  5.36199E-09  5.45102E-09  5.53625E-09
   5.61629E-09  5.69109E-09  5.76097E-09  5.82624E-09  5.88731E-09  5.94453E-09  5.99825E-09  6.04871E-09  6.09622E-09  6.14099E-09
   6.18324E-09  6.22316E-09  6.26096E-09  6.29679E-09  6.33080E-09  6.36317E-09  6.39402E-09  6.42352E-09  6.45180E-09  6.47906E-09
   6.50542E-09  6.53108E-09  6.55626E-09  6.58112E-09  6.60591E-09  6.63088E-09  6.65633E-09  6.68259E-09  6.71011E-09  6.73935E-09
   6.77089E-09  6.80545E-09  6.84392E-09  6.88744E-09  6.93749E-09  6.99602E-09  7.06568E-09  7.15013E-09  7.25468E-09  7.38728E-09
   7.56054E-09  7.79565E-09  8.13181E-09  8.65113E-09  9.56188E-09  1.15872E-08  1.80716E-08  2.45934E-08  2.78217E-08  2.96492E-08
   2.94126E-08  3.00709E-08  3.11445E-08  3.11562E-08  3.07622E-08  3.24289E-08  3.48323E-08  3.07474E-08  2.34279E-08  1.56871E-08
   8.34796E-09  6.42191E-09  5.74410E-09  5.41647E-09  5.22705E-09  5.10338E-09  5.01475E-09  4.94617E-09  4.88967E-09  4.84070E-09
   4.79652E-09  4.75541E-09  4.71631E-09  4.67849E-09  4.64149E-09  4.60498E-09  4.56879E-09  4.53276E-09  4.49681E-09  4.46089E-09
   4.42500E-09  4.38911E-09  4.35323E-09  4.31740E-09  4.28163E-09  4.24594E-09  4.21037E-09  4.17496E-09  4.13974E-09  4.10476E-09
   4.07005E-09  4.03566E-09  4.00161E-09  3.96793E-09  3.93471E-09  3.90194E-09  3.86969E-09  3.83797E-09  3.80683E-09  3.77633E-09
   3.74646E-09  3.71729E-09  3.68886E-09  3.66117E-09  3.63428E-09  3.60823E-09  3.58303E-09  3.55870E-09  3.53529E-09  3.51276E-09
   3.49112E-09  3.47037E-09  3.45049E-09  3.43148E-09  3.41335E-09  3.39607E-09  3.37965E-09  3.36408E-09  3.34934E-09  3.33544E-09
   3.32236E-09  3.31010E-09  3.29864E-09  3.28798E-09  3.27811E-09  3.26902E-09  3.26069E-09  3.25313E-09  3.24631E-09  3.24023E-09
   3.23488E-09  3.23024E-09  3.22631E-09  3.22307E-09  3.22050E-09  3.21861E-09  3.21737E-09  3.21677E-09  3.21681E-09  3.21746E-09
   3.21871E-09  3.22055E-09  3.22298E-09  3.22595E-09  3.22949E-09  3.23355E-09  3.23814E-09  3.24323E-09  3.24882E-09  3.25488E-09
   3.26141E-09  3.26837E-09  3.27578E-09  3.28359E-09  3.29180E-09  3.30037E-09  3.30929E-09  3.31854E-09  3.32809E-09  3.33792E-09
   3.34800E-09  3.35833E-09  3.36887E-09  3.37960E-09  3.39051E-09  3.40156E-09  3.41274E-09  3.42403E-09  3.43541E-09  3.44685E-09
   3.45833E-09  3.46984E-09  3.48135E-09  3.49285E-09  3.50430E-09  3.51570E-09  3.52701E-09  3.53823E-09  3.54933E-09  3.56030E-09
   3.57110E-09  3.58174E-09  3.59217E-09  3.60239E-09  3.61239E-09  3.62213E-09  3.63160E-09  3.64079E-09  3.64968E-09  3.65824E-09
   3.66647E-09  3.67435E-09  3.68185E-09  3.68898E-09  3.69570E-09  3.70200E-09  3.70787E-09  3.71329E-09  3.71825E-09  3.72274E-09
   3.72676E-09  3.73029E-09  3.73333E-09  3.73586E-09  3.73789E-09  3.73939E-09  3.74038E-09  3.74083E-09  3.74074E-09  3.74010E-09
   3.73891E-09  3.73716E-09  3.73484E-09  3.73194E-09  3.72847E-09  3.72440E-09  3.71975E-09  3.71449E-09  3.70863E-09  3.70215E-09
   3.69506E-09  3.68735E-09  3.67901E-09  3.67004E-09  3.66043E-09  3.65018E-09  3.63929E-09  3.62774E-09  3.61554E-09  3.60268E-09
   3.58916E-09  3.57498E-09  3.56012E-09  3.54459E-09  3.52839E-09  3.51151E-09  3.49395E-09  3.47570E-09  3.45677E-09  3.43716E-09
   3.41685E-09  3.39586E-09  3.37417E-09
 NY background values follow
     3.196E-09    3.257E-09    3.317E-09    3.377E-09    3.436E-09    3.495E-09    3.553E-09    3.610E-09    3.667E-09    3.723E-09
     3.779E-09    3.834E-09    3.888E-09    3.942E-09    3.995E-09    4.048E-09    4.100E-09    4.151E-09    4.202E-09    4.252E-09
     4.302E-09    4.351E-09    4.400E-09    4.447E-09    4.495E-09    4.541E-09    4.587E-09    4.633E-09    4.677E-09    4.722E-09
     4.765E-09    4.808E-09    4.851E-09    4.892E-09    4.934E-09    4.974E-09    5.014E-09    5.053E-09    5.092E-09    5.130E-09
     5.168E-09    5.204E-09    5.241E-09    5.276E-09    5.311E-09    5.346E-09    5.379E-09    5.413E-09    5.445E-09    5.477E-09
     5.508E-09    5.539E-09    5.569E-09    5.599E-09    5.627E-09    5.656E-09    5.683E-09    5.710E-09    5.736E-09    5.762E-09
     5.787E-09    5.811E-09    5.834E-09    5.857E-09    5.880E-09    5.901E-09    5.922E-09    5.942E-09    5.962E-09    5.981E-09
     5.999E-09    6.016E-09    6.033E-09    6.049E-09    6.064E-09    6.079E-09    6.093E-09    6.106E-09    6.118E-09    6.130E-09
     6.141E-09    6.151E-09    6.161E-09    6.169E-09    6.177E-09    6.185E-09    6.191E-09    6.197E-09    6.202E-09    6.206E-09
     6.209E-09    6.212E-09    6.214E-09    6.215E-09    6.215E-09    6.215E-09    6.213E-09    6.211E-09    6.208E-09    6.205E-09
     6.200E-09    6.195E-09    6.189E-09    6.182E-09    6.175E-09    6.166E-09    6.157E-09    6.147E-09    6.136E-09    6.125E-09
     6.113E-09    6.100E-09    6.086E-09    6.071E-09    6.056E-09    6.040E-09    6.023E-09    6.005E-09    5.987E-09    5.968E-09
     5.948E-09    5.927E-09    5.906E-09    5.884E-09    5.861E-09    5.837E-09    5.813E-09    5.788E-09    5.762E-09    5.735E-09
     5.708E-09    5.680E-09    5.651E-09    5.621E-09    5.591E-09    5.560E-09    5.528E-09    5.496E-09    5.463E-09    5.429E-09
     5.395E-09    5.360E-09    5.324E-09    5.288E-09    5.250E-09    5.213E-09    5.174E-09    5.135E-09    5.096E-09    5.055E-09
     5.014E-09    4.973E-09    4.931E-09    4.888E-09    4.845E-09    4.801E-09    4.757E-09    4.712E-09    4.666E-09    4.620E-09
     4.574E-09    4.527E-09    4.479E-09    4.431E-09    4.382E-09    4.333E-09    4.284E-09    4.234E-09    4.183E-09    4.132E-09
     4.081E-09    4.029E-09    3.977E-09    3.924E-09    3.871E-09    3.818E-09    3.764E-09    3.710E-09    3.655E-09    3.601E-09
     3.545E-09    3.490E-09    3.434E-09    3.378E-09    3.321E-09    3.265E-09    3.208E-09    3.151E-09    3.094E-09    3.037E-09
     2.980E-09    2.923E-09    2.866E-09    2.809E-09    2.752E-09    2.696E-09    2.639E-09    2.583E-09    2.527E-09    2.471E-09
     2.416E-09    2.361E-09    2.306E-09    2.252E-09    2.199E-09    2.146E-09    2.093E-09    2.041E-09    1.990E-09    1.939E-09
     1.889E-09    1.840E-09    1.791E-09    1.744E-09    1.697E-09    1.651E-09    1.606E-09    1.561E-09    1.518E-09    1.476E-09
     1.434E-09    1.394E-09    1.355E-09    1.316E-09    1.279E-09    1.243E-09    1.209E-09    1.175E-09    1.143E-09    1.112E-09
     1.082E-09    1.053E-09    1.025E-09    9.987E-10    9.733E-10    9.491E-10    9.260E-10    9.040E-10    8.831E-10    8.633E-10
     8.445E-10    8.269E-10    8.103E-10    7.947E-10    7.801E-10    7.666E-10    7.541E-10    7.426E-10    7.320E-10    7.224E-10
     7.138E-10    7.061E-10    6.993E-10    6.934E-10    6.884E-10    6.844E-10    6.811E-10    6.787E-10    6.772E-10    6.765E-10
     6.766E-10    6.774E-10    6.791E-10    6.815E-10    6.846E-10    6.885E-10    6.931E-10    6.984E-10    7.044E-10    7.110E-10
     7.182E-10    7.261E-10    7.347E-10    7.437E-10    7.534E-10    7.636E-10    7.744E-10    7.856E-10    7.973E-10    8.094E-10
     8.220E-10    8.350E-10    8.484E-10    8.621E-10    8.761E-10    8.905E-10    9.051E-10    9.201E-10    9.352E-10    9.506E-10
     9.662E-10    9.819E-10    9.978E-10    1.014E-09    1.030E-09    1.046E-09    1.063E-09    1.079E-09    1.095E-09    1.112E-09
     1.128E-09    1.144E-09    1.161E-09    1.177E-09    1.193E-09    1.209E-09    1.225E-09    1.240E-09    1.256E-09    1.271E-09
     1.286E-09    1.301E-09    1.316E-09    1.330E-09    1.344E-09    1.358E-09    1.372E-09    1.385E-09    1.398E-09    1.410E-09
     1.422E-09    1.434E-09    1.446E-09    1.457E-09    1.467E-09    1.477E-09    1.487E-09    1.496E-09    1.505E-09    1.514E-09
     1.522E-09    1.530E-09    1.537E-09    1.543E-09    1.549E-09    1.555E-09    1.560E-09    1.565E-09    1.569E-09    1.573E-09
     1.576E-09    1.579E-09    1.581E-09    1.582E-09    1.583E-09    1.584E-09    1.583E-09    1.583E-09    1.581E-09    1.580E-09
     1.577E-09    1.574E-09    1.571E-09    1.566E-09    1.562E-09    1.556E-09    1.550E-09    1.544E-09    1.537E-09    1.529E-09
     1.520E-09    1.511E-09    1.502E-09
 Ala      Conc. = 9.40E-10
   3.88503E-09  3.79811E-09  3.84330E-09  3.83466E-09  3.83555E-09  3.92841E-09  3.75842E-09  3.56751E-09  3.89015E-09  3.88426E-09
   3.58974E-09  3.75701E-09  3.87782E-09  3.84285E-09  3.89912E-09  3.97200E-09  4.04589E-09  4.11782E-09  4.18728E-09  4.25434E-09
   4.31919E-09  4.38206E-09  4.44313E-09  4.50259E-09  4.56057E-09  4.61718E-09  4.67254E-09  4.72673E-09  4.77982E-09  4.83186E-09
   4.88292E-09  4.93304E-09  4.98224E-09  5.03059E-09  5.07810E-09  5.12479E-09  5.17070E-09  5.21583E-09  5.26023E-09  5.30390E-09
   5.34684E-09  5.38910E-09  5.43067E-09  5.47156E-09  5.51180E-09  5.55140E-09  5.59040E-09  5.62873E-09  5.66645E-09  5.70354E-09
   5.74004E-09  5.77594E-09  5.81125E-09  5.84598E-09  5.88013E-09  5.91371E-09  5.94674E-09  5.97921E-09  6.01114E-09  6.04253E-09
   6.07341E-09  6.10377E-09  6.13363E-09  6.16301E-09  6.19191E-09  6.22035E-09  6.24836E-09  6.27595E-09  6.30315E-09  6.32998E-09
   6.35646E-09  6.38265E-09  6.40855E-09  6.43423E-09  6.45973E-09  6.48510E-09  6.51043E-09  6.53577E-09  6.56121E-09  6.58686E-09
   6.61284E-09  6.63930E-09  6.66641E-09  6.69439E-09  6.72347E-09  6.75401E-09  6.78638E-09  6.82112E-09  6.85884E-09  6.90043E-09
   6.94705E-09  7.00026E-09  7.06236E-09  7.13674E-09  7.22867E-09  7.34704E-09  7.50817E-09  7.74638E-09  8.14932E-09  8.96124E-09
   8.94391E-09  8.55028E-09  9.37330E-09  9.85325E-09  9.52483E-09  9.08569E-09  8.96632E-09  9.13727E-09  9.27740E-09  8.69467E-09
   7.21114E-09  7.10440E-09  7.58103E-09  6.42521E-09  5.66640E-09  5.55535E-09  5.55025E-09  5.56699E-09  5.58665E-09  5.60407E-09
   5.61784E-09  5.62774E-09  5.63399E-09  5.63684E-09  5.63666E-09  5.63370E-09  5.62822E-09  5.62046E-09  5.61060E-09  5.59878E-09
   5.58519E-09  5.56993E-09  5.55312E-09  5.53483E-09  5.51515E-09  5.49420E-09  5.47198E-09  5.44857E-09  5.42405E-09  5.39845E-09
   5.37182E-09  5.34421E-09  5.31567E-09  5.28622E-09  5.25592E-09  5.22480E-09  5.19291E-09  5.16028E-09  5.12696E-09  5.09300E-09
   5.05847E-09  5.02339E-09  4.98787E-09  4.95197E-09  4.91579E-09  4.87950E-09  4.84325E-09  4.80730E-09  4.77201E-09  4.73789E-09
   4.70585E-09  4.67733E-09  4.65512E-09  4.64529E-09  4.66358E-09  4.76591E-09  5.24795E-09  5.68584E-09  5.49318E-09  5.28012E-09
   5.32151E-09  5.44790E-09  5.42304E-09  5.24578E-09  5.14418E-09  5.34105E-09  5.55602E-09  4.95276E-09  4.01974E-09  3.78385E-09
   3.67158E-09  3.59247E-09  3.52555E-09  3.46402E-09  3.40511E-09  3.34759E-09  3.29083E-09  3.23449E-09  3.17840E-09  3.12246E-09
   3.06663E-09  3.01088E-09  2.95523E-09  2.89968E-09  2.84426E-09  2.78898E-09  2.73388E-09  2.67899E-09  2.62434E-09  2.56996E-09
   2.51589E-09  2.46217E-09  2.40883E-09  2.35591E-09  2.30343E-09  2.25143E-09  2.19996E-09  2.14904E-09  2.09871E-09  2.04900E-09
   1.99996E-09  1.95161E-09  1.90398E-09  1.85710E-09  1.81102E-09  1.76577E-09  1.72137E-09  1.67785E-09  1.63525E-09  1.59361E-09
   1.55294E-09  1.51329E-09  1.47468E-09  1.43713E-09  1.40066E-09  1.36535E-09  1.33117E-09  1.29816E-09  1.26634E-09  1.23569E-09
   1.20620E-09  1.17787E-09  1.15068E-09  1.12462E-09  1.09969E-09  1.07587E-09  1.05316E-09  1.03154E-09  1.01101E-09  9.91557E-10
   9.73161E-10  9.55812E-10  9.39505E-10  9.24226E-10  9.09959E-10  8.96699E-10  8.84425E-10  8.73130E-10  8.62802E-10  8.53423E-10
   8.44980E-10  8.37466E-10  8.30859E-10  8.25150E-10  8.20321E-10  8.16369E-10  8.13263E-10  8.10995E-10  8.09557E-10  8.08923E-10
   8.09087E-10  8.10030E-10  8.11739E-10  8.14187E-10  8.17376E-10  8.21278E-10  8.25884E-10  8.31166E-10  8.37129E-10  8.43733E-10
   8.50981E-10  8.58843E-10  8.67310E-10  8.76356E-10  8.85962E-10  8.96102E-10  9.06755E-10  9.17895E-10  9.29498E-10  9.41542E-10
   9.54006E-10  9.66862E-10  9.80090E-10  9.93666E-10  1.00757E-09  1.02177E-09  1.03625E-09  1.05099E-09  1.06597E-09  1.08115E-09
   1.09653E-09  1.11207E-09  1.12776E-09  1.14358E-09  1.15949E-09  1.17549E-09  1.19155E-09  1.20764E-09  1.22376E-09  1.23987E-09
   1.25595E-09  1.27200E-09  1.28798E-09  1.30388E-09  1.31967E-09  1.33535E-09  1.35088E-09  1.36625E-09  1.38145E-09  1.39645E-09
   1.41123E-09  1.42578E-09  1.44008E-09  1.45412E-09  1.46787E-09  1.48132E-09  1.49446E-09  1.50726E-09  1.51971E-09  1.53181E-09
   1.54354E-09  1.55490E-09  1.56587E-09  1.57645E-09  1.58663E-09  1.59639E-09  1.60574E-09  1.61466E-09  1.62313E-09  1.63117E-09
   1.63875E-09  1.64586E-09  1.65251E-09  1.65868E-09  1.66437E-09  1.66957E-09  1.67426E-09  1.67845E-09  1.68213E-09  1.68528E-09
   1.68791E-09  1.69001E-09  1.69157E-09  1.69258E-09  1.69304E-09  1.69295E-09  1.69229E-09  1.69107E-09  1.68927E-09  1.68690E-09
   1.68394E-09  1.68040E-09  1.67627E-09  1.67154E-09  1.66621E-09  1.66028E-09  1.65374E-09  1.64660E-09  1.63883E-09  1.63046E-09
   1.62146E-09  1.61184E-09  1.60159E-09
 Asp      Conc. = 4.40E-09
   5.67815E-09  5.42400E-09  4.50156E-09  3.36231E-09  3.38580E-09  2.94591E-09  2.85565E-09  2.91719E-09  2.12685E-09  2.32548E-09
   2.67961E-09  2.99633E-09  3.26797E-09  3.50567E-09  3.72679E-09  3.93756E-09  4.11920E-09  4.28808E-09  4.44818E-09  4.60156E-09
   4.74985E-09  4.89440E-09  5.03639E-09  5.17693E-09  5.31706E-09  5.45781E-09  5.60027E-09  5.74560E-09  5.89514E-09  6.05040E-09
   6.21330E-09  6.38625E-09  6.57239E-09  6.77615E-09  7.00394E-09  7.26584E-09  7.57873E-09  7.96925E-09  8.34807E-09  8.37183E-09
   8.45329E-09  8.47227E-09  8.78750E-09  9.36334E-09  1.02867E-08  1.06177E-08  1.15801E-08  1.10580E-08  9.79462E-09  9.49241E-09
   1.05215E-08  9.91315E-09  9.42784E-09  9.61273E-09  9.44484E-09  8.59054E-09  7.82092E-09  5.32171E-09  4.90447E-09  5.93034E-09
   5.94817E-09  4.61769E-09  4.84864E-09  4.79191E-09  4.25235E-09  4.67685E-09  5.22711E-09  5.05438E-09  4.74203E-09  4.72320E-09
   4.77437E-09  4.84547E-09  4.92162E-09  4.99745E-09  5.07080E-09  5.14082E-09  5.20725E-09  5.27006E-09  5.32933E-09  5.38525E-09
   5.43798E-09  5.48769E-09  5.53456E-09  5.57875E-09  5.62038E-09  5.65961E-09  5.69655E-09  5.73132E-09  5.76400E-09  5.79470E-09
   5.82350E-09  5.85045E-09  5.87564E-09  5.89914E-09  5.92099E-09  5.94126E-09  5.96000E-09  5.97725E-09  5.99305E-09  6.00745E-09
   6.02046E-09  6.03214E-09  6.04253E-09  6.05164E-09  6.05949E-09  6.06612E-09  6.07156E-09  6.07583E-09  6.07893E-09  6.08091E-09
   6.08176E-09  6.08153E-09  6.08024E-09  6.07787E-09  6.07445E-09  6.07000E-09  6.06456E-09  6.05811E-09  6.05066E-09  6.04225E-09
   6.03288E-09  6.02256E-09  6.01132E-09  5.99914E-09  5.98609E-09  5.97212E-09  5.95728E-09  5.94158E-09  5.92503E-09  5.90762E-09
   5.88940E-09  5.87036E-09  5.85054E-09  5.82993E-09  5.80854E-09  5.78644E-09  5.76359E-09  5.74002E-09  5.71577E-09  5.69086E-09
   5.66531E-09  5.63916E-09  5.61244E-09  5.58517E-09  5.55740E-09  5.52919E-09  5.50057E-09  5.47160E-09  5.44236E-09  5.41292E-09
   5.38339E-09  5.35386E-09  5.32448E-09  5.29543E-09  5.26689E-09  5.23918E-09  5.21264E-09  5.18773E-09  5.16512E-09  5.14568E-09
   5.13081E-09  5.12243E-09  5.12377E-09  5.14025E-09  5.18195E-09  5.26981E-09  5.45568E-09  5.90645E-09  7.43218E-09  1.10313E-08
   1.07884E-08  9.58252E-09  9.62111E-09  1.05530E-08  1.09728E-08  1.04350E-08  9.79073E-09  1.04414E-08  1.22997E-08  1.15248E-08
   5.89974E-09  4.54705E-09  4.11493E-09  3.90461E-09  3.77236E-09  3.67441E-09  3.59379E-09  3.52276E-09  3.45744E-09  3.39567E-09
   3.33626E-09  3.27841E-09  3.22169E-09  3.16578E-09  3.11052E-09  3.05576E-09  3.00145E-09  2.94754E-09  2.89400E-09  2.84083E-09
   2.78804E-09  2.73563E-09  2.68363E-09  2.63205E-09  2.58094E-09  2.53029E-09  2.48016E-09  2.43056E-09  2.38153E-09  2.33311E-09
   2.28532E-09  2.23820E-09  2.19177E-09  2.14606E-09  2.10113E-09  2.05699E-09  2.01368E-09  1.97122E-09  1.92965E-09  1.88901E-09
   1.84930E-09  1.81059E-09  1.77289E-09  1.73621E-09  1.70060E-09  1.66611E-09  1.63272E-09  1.60047E-09  1.56939E-09  1.53944E-09
   1.51063E-09  1.48295E-09  1.45639E-09  1.43093E-09  1.40657E-09  1.38330E-09  1.36111E-09  1.33998E-09  1.31992E-09  1.30091E-09
