 LCModel (Version 6.3-1R) Copyright: S.W. Provencher.          Ref.: Magn. Reson. Med. 30:672-679 (1993).                
 onepulse 21x6_ftSpec_smooth_lcm
 26 lines in following concentration table = NCONC+1
    Conc.  %SD   /Cr    Metabolite                                         
 1.14E-10 366%   0.000 Ala                                                 
 4.19E-10 184%   0.000 Asp                                                 
    0.000 999%   0.000 Cr                                                  
 2.84E-09  22%   0.000 GABA                                                
 1.46E-09  62%   0.000 Glc                                                 
    0.000 999%   0.000 Gln                                                 
    0.000 999%   0.000 Glu                                                 
    0.000 999%   0.000 Glyc                                                
    0.000 999%   0.000 GPC                                                 
    0.000 999%   0.000 GSH                                                 
 3.11E-10 160%   0.000 Ins                                                 
    0.000 999%   0.000 Lac                                                 
    0.000 999%   0.000 NAAG                                                
 4.08E-10  75%   0.000 NAA                                                 
 7.97E-11 767%   0.000 PCh                                                 
    0.000 999%   0.000 PCr                                                 
    0.000 999%   0.000 PE                                                  
 4.42E-11 514%   0.000 Scyllo                                              
    0.000 999%   0.000 Ser                                                 
    0.000 999%   0.000 Tau                                                 
 7.97E-11 151%   0.000 GPC+PCh                                             
 4.08E-10  75%   0.000 NAA+NAAG                                            
 3.11E-10 160%   0.000 Ins+Glyc                                            
    0.000 999%   0.000 Cr+PCr                                              
    0.000 999%   0.000 Glu+Gln                                             
   6 lines in following misc. output table
  FWHM = 0.067 ppm    S/N =   2                                            
  Data shift = 0.302 ppm                                                   
  Ph:  59 deg       0.9 deg/ppm                                            
  alphaB,S = 6.2E-01,   2.6E+01                                            
    8 spline knots.   Ns = 5(1)                                            
  ( 9) 3 infls.   ( 7) 1 extrs.                                            
  363 points on ppm-axis = NY
      4.250000     4.238821     4.227641     4.216462     4.205282     4.194103     4.182923     4.171744     4.160564     4.149385
      4.138206     4.127026     4.115847     4.104667     4.093488     4.082308     4.071129     4.059949     4.048770     4.037591
      4.026411     4.015232     4.004052     3.992873     3.981693     3.970514     3.959334     3.948155     3.936975     3.925796
      3.914617     3.903437     3.892258     3.881078     3.869899     3.858719     3.847540     3.836360     3.825181     3.814002
      3.802822     3.791643     3.780463     3.769284     3.758104     3.746925     3.735745     3.724566     3.713387     3.702207
      3.691028     3.679848     3.668669     3.657489     3.646310     3.635130     3.623951     3.612772     3.601592     3.590413
      3.579233     3.568054     3.556874     3.545695     3.534515     3.523336     3.512156     3.500977     3.489798     3.478618
      3.467439     3.456259     3.445080     3.433900     3.422721     3.411541     3.400362     3.389183     3.378003     3.366824
      3.355644     3.344465     3.333285     3.322106     3.310926     3.299747     3.288568     3.277388     3.266209     3.255029
      3.243850     3.232670     3.221491     3.210311     3.199132     3.187953     3.176773     3.165594     3.154414     3.143235
      3.132055     3.120876     3.109696     3.098517     3.087337     3.076158     3.064979     3.053799     3.042620     3.031440
      3.020261     3.009081     2.997902     2.986722     2.975543     2.964364     2.953184     2.942005     2.930825     2.919646
      2.908466     2.897287     2.886107     2.874928     2.863749     2.852569     2.841390     2.830210     2.819031     2.807851
      2.796672     2.785492     2.774313     2.763134     2.751954     2.740775     2.729595     2.718416     2.707236     2.696057
      2.684877     2.673698     2.662519     2.651339     2.640160     2.628980     2.617801     2.606621     2.595442     2.584262
      2.573083     2.561903     2.550724     2.539545     2.528365     2.517186     2.506006     2.494827     2.483647     2.472468
      2.461288     2.450109     2.438930     2.427750     2.416571     2.405391     2.394212     2.383032     2.371853     2.360673
      2.349494     2.338315     2.327135     2.315956     2.304776     2.293597     2.282417     2.271238     2.260058     2.248879
      2.237700     2.226520     2.215341     2.204161     2.192982     2.181802     2.170623     2.159443     2.148264     2.137084
      2.125905     2.114726     2.103546     2.092367     2.081187     2.070008     2.058828     2.047649     2.036469     2.025290
      2.014111     2.002931     1.991752     1.980572     1.969393     1.958213     1.947034     1.935854     1.924675     1.913496
      1.902316     1.891137     1.879957     1.868778     1.857598     1.846419     1.835239     1.824060     1.812881     1.801701
      1.790522     1.779342     1.768163     1.756983     1.745804     1.734624     1.723445     1.712265     1.701086     1.689907
      1.678727     1.667548     1.656368     1.645189     1.634009     1.622830     1.611650     1.600471     1.589292     1.578112
      1.566933     1.555753     1.544574     1.533394     1.522215     1.511035     1.499856     1.488677     1.477497     1.466318
      1.455138     1.443959     1.432779     1.421600     1.410420     1.399241     1.388062     1.376882     1.365703     1.354523
      1.343344     1.332164     1.320985     1.309805     1.298626     1.287446     1.276267     1.265088     1.253908     1.242729
      1.231549     1.220370     1.209190     1.198011     1.186831     1.175652     1.164473     1.153293     1.142114     1.130934
      1.119755     1.108575     1.097396     1.086216     1.075037     1.063858     1.052678     1.041499     1.030319     1.019140
      1.007960     0.996781     0.985601     0.974422     0.963243     0.952063     0.940884     0.929704     0.918525     0.907345
      0.896166     0.884986     0.873807     0.862628     0.851448     0.840269     0.829089     0.817910     0.806730     0.795551
      0.784371     0.773192     0.762012     0.750833     0.739654     0.728474     0.717295     0.706115     0.694936     0.683756
      0.672577     0.661397     0.650218     0.639039     0.627859     0.616680     0.605500     0.594321     0.583141     0.571962
      0.560782     0.549603     0.538424     0.527244     0.516065     0.504885     0.493706     0.482526     0.471347     0.460167
      0.448988     0.437809     0.426629     0.415450     0.404270     0.393091     0.381911     0.370732     0.359552     0.348373
      0.337193     0.326014     0.314835     0.303655     0.292476     0.281296     0.270117     0.258937     0.247758     0.236578
      0.225399     0.214220     0.203040
 NY phased data points follow
   1.09531E-08  1.00123E-08  1.35216E-08  1.32939E-08  1.72230E-08  1.61030E-08  1.80537E-08  1.57034E-08  1.67222E-08  1.47487E-08
   1.59948E-08  1.32479E-08  1.49558E-08  1.33412E-08  1.54678E-08  1.37782E-08  1.55862E-08  1.38421E-08  1.60819E-08  1.52121E-08
   1.68762E-08  1.52346E-08  1.60682E-08  1.48671E-08  1.61739E-08  1.42048E-08  1.54262E-08  1.41054E-08  1.54076E-08  1.48903E-08
   1.56206E-08  1.39849E-08  1.55088E-08  1.43435E-08  1.54622E-08  1.53663E-08  1.69023E-08  1.64691E-08  1.77021E-08  1.65662E-08
   1.69312E-08  1.55001E-08  1.58295E-08  1.43097E-08  1.53114E-08  1.40217E-08  1.48194E-08  1.34349E-08  1.46508E-08  1.29877E-08
   1.34027E-08  1.17852E-08  1.28859E-08  1.16029E-08  1.23737E-08  1.12759E-08  1.17084E-08  1.07961E-08  1.16744E-08  1.06676E-08
   1.11934E-08  9.23318E-09  1.02994E-08  9.55492E-09  1.10294E-08  1.03130E-08  1.22644E-08  1.34559E-08  1.53218E-08  1.48608E-08
   1.62250E-08  1.46988E-08  1.49377E-08  1.33924E-08  1.39958E-08  1.22419E-08  1.19188E-08  1.02762E-08  1.01859E-08  8.99238E-09
   1.00622E-08  9.29230E-09  1.17758E-08  1.23003E-08  1.53526E-08  1.64501E-08  1.80180E-08  1.68918E-08  1.71608E-08  1.67686E-08
   1.65794E-08  1.59090E-08  1.57089E-08  1.52452E-08  1.55198E-08  1.40676E-08  1.51366E-08  1.36955E-08  1.36312E-08  1.22653E-08
   1.30373E-08  1.12213E-08  1.17848E-08  1.04227E-08  1.08053E-08  9.76154E-09  1.05370E-08  9.83898E-09  1.05490E-08  9.52236E-09
   1.02216E-08  9.41438E-09  9.65021E-09  8.53644E-09  8.67463E-09  7.50546E-09  8.40058E-09  7.28286E-09  8.03880E-09  7.55178E-09
   8.50428E-09  7.90859E-09  8.77281E-09  7.66200E-09  8.15076E-09  7.39725E-09  7.89060E-09  7.11284E-09  7.00992E-09  5.84569E-09
   6.31055E-09  6.11497E-09  6.62692E-09  5.93975E-09  6.50255E-09  6.80750E-09  7.31668E-09  6.58346E-09  7.74690E-09  7.44106E-09
   8.06839E-09  7.03176E-09  7.86093E-09  7.64176E-09  8.40211E-09  9.65962E-09  9.67869E-09  9.61094E-09  9.86984E-09  9.66740E-09
   1.05526E-08  1.02776E-08  1.01102E-08  9.99377E-09  1.05230E-08  9.75835E-09  9.90683E-09  9.38042E-09  9.30430E-09  8.75036E-09
   9.34581E-09  8.54767E-09  9.11737E-09  8.32709E-09  9.00821E-09  7.90042E-09  8.81348E-09  7.52874E-09  7.79771E-09  6.76283E-09
   7.34031E-09  7.29806E-09  7.03534E-09  7.29852E-09  9.22407E-09  1.19860E-08  1.47544E-08  1.50997E-08  1.47147E-08  1.32400E-08
   1.24416E-08  1.08505E-08  8.52676E-09  5.92478E-09  3.95921E-09  1.54150E-09 -9.33872E-10 -3.94662E-09 -6.57931E-09 -9.66627E-09
  -1.26248E-08 -1.54935E-08 -1.78853E-08 -2.00750E-08 -2.21332E-08 -2.31814E-08 -2.34711E-08 -2.40086E-08 -2.33137E-08 -2.25207E-08
  -2.09566E-08 -1.96389E-08 -1.70055E-08 -1.52911E-08 -1.26598E-08 -1.10640E-08 -9.19783E-09 -8.30461E-09 -6.49882E-09 -6.45297E-09
  -6.05730E-09 -5.65703E-09 -5.22690E-09 -5.00250E-09 -4.91827E-09 -4.13543E-09 -4.93056E-09 -4.79213E-09 -4.58213E-09 -4.64926E-09
  -4.69931E-09 -4.76386E-09 -4.93557E-09 -5.13815E-09 -4.40966E-09 -4.69211E-09 -4.25275E-09 -3.91945E-09 -3.79772E-09 -3.93346E-09
  -4.09371E-09 -4.60357E-09 -4.31808E-09 -4.53643E-09 -4.35262E-09 -4.32247E-09 -4.00024E-09 -3.60635E-09 -3.75002E-09 -4.04050E-09
  -4.10019E-09 -3.49271E-09 -3.65601E-09 -3.61480E-09 -3.93653E-09 -3.73125E-09 -4.00198E-09 -4.08472E-09 -3.70958E-09 -4.08283E-09
  -3.68230E-09 -3.45438E-09 -3.34983E-09 -3.70994E-09 -3.54268E-09 -2.65513E-09 -3.24782E-09 -3.18775E-09 -3.11600E-09 -2.90862E-09
  -3.05772E-09 -3.31109E-09 -3.50233E-09 -2.93203E-09 -3.50665E-09 -3.26326E-09 -3.30645E-09 -3.92984E-09 -3.90367E-09 -3.93325E-09
  -3.76016E-09 -4.29353E-09 -3.58449E-09 -3.22341E-09 -3.60229E-09 -2.18450E-09 -3.35809E-09 -2.73720E-09 -2.51057E-09 -2.27283E-09
  -2.13815E-09 -1.64058E-09 -2.30716E-09 -2.31015E-09 -2.41041E-09 -2.71873E-09 -2.93409E-09 -2.40997E-09 -2.88782E-09 -3.37192E-09
  -3.07396E-09 -2.63719E-09 -2.87443E-09 -3.10449E-09 -3.70045E-09 -3.66248E-09 -3.45252E-09 -3.47914E-09 -3.85011E-09 -4.01167E-09
  -3.58518E-09 -3.51555E-09 -3.48672E-09 -3.94795E-09 -4.02455E-09 -4.00681E-09 -3.87935E-09 -4.48068E-09 -3.59600E-09 -3.98306E-09
  -4.25834E-09 -3.81462E-09 -3.90616E-09 -4.83803E-09 -4.26348E-09 -4.18397E-09 -4.57123E-09 -4.50564E-09 -4.07312E-09 -4.42684E-09
  -4.02757E-09 -4.13550E-09 -4.28324E-09 -4.45129E-09 -4.46483E-09 -4.42068E-09 -3.97079E-09 -4.69363E-09 -4.29586E-09 -4.86104E-09
  -4.36215E-09 -4.11482E-09 -4.70423E-09 -4.60750E-09 -4.04513E-09 -4.46802E-09 -4.09698E-09 -4.82708E-09 -4.25709E-09 -4.45937E-09
  -4.39799E-09 -4.18838E-09 -4.30690E-09 -4.67272E-09 -4.38424E-09 -4.58407E-09 -4.17840E-09 -4.38739E-09 -4.45795E-09 -4.43650E-09
  -4.52356E-09 -4.67806E-09 -4.35500E-09 -4.04575E-09 -4.37379E-09 -4.36840E-09 -4.38888E-09 -4.49282E-09 -4.06282E-09 -4.46274E-09
  -4.16179E-09 -4.26885E-09 -4.17025E-09
 NY points of the fit to the data follow
   1.36128E-08  1.37884E-08  1.40866E-08  1.45047E-08  1.48934E-08  1.51180E-08  1.50284E-08  1.47966E-08  1.43584E-08  1.39526E-08
   1.38029E-08  1.37941E-08  1.39653E-08  1.44000E-08  1.49192E-08  1.53242E-08  1.56645E-08  1.59257E-08  1.59317E-08  1.59010E-08
   1.61567E-08  1.64809E-08  1.65204E-08  1.62522E-08  1.55456E-08  1.46662E-08  1.41922E-08  1.39981E-08  1.40174E-08  1.43707E-08
   1.49745E-08  1.53504E-08  1.56375E-08  1.58804E-08  1.57579E-08  1.58765E-08  1.64290E-08  1.69498E-08  1.72628E-08  1.72536E-08
   1.69827E-08  1.67204E-08  1.63138E-08  1.50113E-08  1.39895E-08  1.37845E-08  1.30642E-08  1.21541E-08  1.18207E-08  1.17426E-08
   1.18169E-08  1.19034E-08  1.19114E-08  1.17793E-08  1.15784E-08  1.14479E-08  1.14747E-08  1.16292E-08  1.17025E-08  1.16663E-08
   1.16813E-08  1.18009E-08  1.22304E-08  1.27011E-08  1.31364E-08  1.38728E-08  1.45517E-08  1.50346E-08  1.56091E-08  1.62088E-08
   1.66510E-08  1.66699E-08  1.62150E-08  1.55719E-08  1.51002E-08  1.39301E-08  1.25079E-08  1.25920E-08  1.27308E-08  1.23514E-08
   1.22822E-08  1.24175E-08  1.26905E-08  1.33771E-08  1.42358E-08  1.47446E-08  1.47987E-08  1.43115E-08  1.35802E-08  1.35799E-08
   1.36849E-08  1.38088E-08  1.40743E-08  1.39492E-08  1.33760E-08  1.32351E-08  1.30400E-08  1.22922E-08  1.18065E-08  1.15542E-08
   1.12075E-08  1.09097E-08  1.06951E-08  1.05656E-08  1.04824E-08  1.04242E-08  1.03794E-08  1.03339E-08  1.02632E-08  1.01456E-08
   9.98744E-09  9.83988E-09  9.74528E-09  9.56457E-09  9.34718E-09  9.21741E-09  9.11420E-09  9.02021E-09  8.92993E-09  8.84105E-09
   8.75232E-09  8.66312E-09  8.57298E-09  8.48155E-09  8.38854E-09  8.29377E-09  8.19705E-09  8.09826E-09  7.99729E-09  7.89404E-09
   7.78840E-09  7.68028E-09  7.56964E-09  7.45641E-09  7.34051E-09  7.22187E-09  7.10049E-09  6.97623E-09  6.84908E-09  6.71897E-09
   6.58591E-09  6.44985E-09  6.31076E-09  6.16857E-09  6.02324E-09  5.87477E-09  5.72320E-09  5.56868E-09  5.41140E-09  5.25150E-09
   5.08919E-09  4.92468E-09  4.75820E-09  4.59004E-09  4.42050E-09  4.24997E-09  4.07891E-09  3.90792E-09  3.73782E-09  3.56972E-09
   3.40526E-09  3.24708E-09  3.09960E-09  2.97122E-09  2.88028E-09  2.87701E-09  3.16347E-09  4.56210E-09  6.18954E-09  7.21925E-09
   7.71071E-09  8.18953E-09  9.21123E-09  1.09796E-08  1.30664E-08  1.42919E-08  1.31640E-08  9.03506E-09  3.62083E-09  1.06320E-09
   1.87661E-10 -3.00069E-10 -6.50260E-10 -9.37060E-10 -1.18956E-09 -1.42126E-09 -1.63915E-09 -1.84716E-09 -2.04768E-09 -2.24215E-09
  -2.43145E-09 -2.61624E-09 -2.79685E-09 -2.97356E-09 -3.14646E-09 -3.31568E-09 -3.48126E-09 -3.64312E-09 -3.80127E-09 -3.95569E-09
  -4.10628E-09 -4.25297E-09 -4.39565E-09 -4.53425E-09 -4.66868E-09 -4.79878E-09 -4.92450E-09 -5.04571E-09 -5.16230E-09 -5.27411E-09
  -5.38111E-09 -5.48309E-09 -5.57997E-09 -5.67164E-09 -5.75798E-09 -5.83882E-09 -5.91407E-09 -5.98363E-09 -6.04733E-09 -6.10528E-09
  -6.15759E-09 -6.20440E-09 -6.24580E-09 -6.28196E-09 -6.31297E-09 -6.33899E-09 -6.36013E-09 -6.37650E-09 -6.38825E-09 -6.39548E-09
  -6.39835E-09 -6.39696E-09 -6.39144E-09 -6.38192E-09 -6.36852E-09 -6.35137E-09 -6.33059E-09 -6.30630E-09 -6.27864E-09 -6.24772E-09
  -6.21367E-09 -6.17663E-09 -6.13671E-09 -6.09403E-09 -6.04871E-09 -6.00088E-09 -5.95068E-09 -5.89823E-09 -5.84365E-09 -5.78704E-09
  -5.72858E-09 -5.66833E-09 -5.60649E-09 -5.54310E-09 -5.47832E-09 -5.41232E-09 -5.34516E-09 -5.27699E-09 -5.20793E-09 -5.13810E-09
  -5.06764E-09 -4.99668E-09 -4.92532E-09 -4.85370E-09 -4.78193E-09 -4.71015E-09 -4.63850E-09 -4.56705E-09 -4.49597E-09 -4.42538E-09
  -4.35539E-09 -4.28612E-09 -4.21772E-09 -4.15028E-09 -4.08397E-09 -4.01887E-09 -3.95512E-09 -3.89287E-09 -3.83219E-09 -3.77324E-09
  -3.71616E-09 -3.66104E-09 -3.60804E-09 -3.55723E-09 -3.50878E-09 -3.46281E-09 -3.41945E-09 -3.37876E-09 -3.34095E-09 -3.30611E-09
  -3.27433E-09 -3.24571E-09 -3.22015E-09 -3.19760E-09 -3.17797E-09 -3.16122E-09 -3.14724E-09 -3.13599E-09 -3.12740E-09 -3.12138E-09
  -3.11788E-09 -3.11681E-09 -3.11813E-09 -3.12176E-09 -3.12760E-09 -3.13561E-09 -3.14572E-09 -3.15787E-09 -3.17196E-09 -3.18793E-09
  -3.20573E-09 -3.22526E-09 -3.24649E-09 -3.26930E-09 -3.29367E-09 -3.31949E-09 -3.34673E-09 -3.37527E-09 -3.40508E-09 -3.43609E-09
  -3.46822E-09 -3.50137E-09 -3.53553E-09 -3.57060E-09 -3.60650E-09 -3.64315E-09 -3.68053E-09 -3.71853E-09 -3.75711E-09 -3.79616E-09
  -3.83565E-09 -3.87549E-09 -3.91560E-09 -3.95592E-09 -3.99640E-09 -4.03695E-09 -4.07752E-09 -4.11800E-09 -4.15837E-09 -4.19849E-09
  -4.23838E-09 -4.27790E-09 -4.31703E-09 -4.35567E-09 -4.39371E-09 -4.43119E-09 -4.46794E-09 -4.50396E-09 -4.53911E-09 -4.57339E-09
  -4.60670E-09 -4.63894E-09 -4.67009E-09 -4.70005E-09 -4.72877E-09 -4.75615E-09 -4.78217E-09 -4.80671E-09 -4.82972E-09 -4.85115E-09
  -4.87089E-09 -4.88890E-09 -4.90512E-09
 NY background values follow
     8.973E-09    8.983E-09    8.993E-09    9.004E-09    9.014E-09    9.025E-09    9.036E-09    9.047E-09    9.058E-09    9.070E-09
     9.081E-09    9.092E-09    9.104E-09    9.116E-09    9.127E-09    9.139E-09    9.151E-09    9.163E-09    9.174E-09    9.186E-09
     9.198E-09    9.210E-09    9.222E-09    9.233E-09    9.245E-09    9.257E-09    9.268E-09    9.280E-09    9.291E-09    9.303E-09
     9.314E-09    9.325E-09    9.336E-09    9.347E-09    9.358E-09    9.368E-09    9.378E-09    9.389E-09    9.399E-09    9.409E-09
     9.418E-09    9.428E-09    9.437E-09    9.446E-09    9.454E-09    9.463E-09    9.471E-09    9.479E-09    9.486E-09    9.494E-09
     9.501E-09    9.507E-09    9.514E-09    9.520E-09    9.525E-09    9.531E-09    9.535E-09    9.540E-09    9.544E-09    9.548E-09
     9.551E-09    9.554E-09    9.557E-09    9.559E-09    9.560E-09    9.561E-09    9.562E-09    9.562E-09    9.562E-09    9.561E-09
     9.559E-09    9.558E-09    9.555E-09    9.552E-09    9.549E-09    9.545E-09    9.540E-09    9.534E-09    9.528E-09    9.521E-09
     9.513E-09    9.504E-09    9.495E-09    9.484E-09    9.473E-09    9.460E-09    9.447E-09    9.432E-09    9.416E-09    9.399E-09
     9.381E-09    9.361E-09    9.341E-09    9.318E-09    9.295E-09    9.270E-09    9.243E-09    9.216E-09    9.186E-09    9.155E-09
     9.122E-09    9.088E-09    9.052E-09    9.014E-09    8.974E-09    8.933E-09    8.889E-09    8.844E-09    8.797E-09    8.748E-09
     8.696E-09    8.643E-09    8.588E-09    8.530E-09    8.470E-09    8.408E-09    8.344E-09    8.277E-09    8.208E-09    8.137E-09
     8.063E-09    7.987E-09    7.908E-09    7.826E-09    7.742E-09    7.655E-09    7.566E-09    7.474E-09    7.379E-09    7.281E-09
     7.181E-09    7.077E-09    6.971E-09    6.862E-09    6.749E-09    6.634E-09    6.515E-09    6.394E-09    6.269E-09    6.141E-09
     6.010E-09    5.875E-09    5.737E-09    5.596E-09    5.451E-09    5.303E-09    5.151E-09    4.996E-09    4.838E-09    4.677E-09
     4.513E-09    4.346E-09    4.176E-09    4.004E-09    3.829E-09    3.652E-09    3.473E-09    3.291E-09    3.108E-09    2.923E-09
     2.736E-09    2.548E-09    2.359E-09    2.168E-09    1.976E-09    1.783E-09    1.589E-09    1.394E-09    1.199E-09    1.003E-09
     8.067E-10    6.102E-10    4.136E-10    2.170E-10    2.060E-11   -1.756E-10   -3.714E-10   -5.666E-10   -7.612E-10   -9.550E-10
    -1.148E-09   -1.340E-09   -1.531E-09   -1.720E-09   -1.908E-09   -2.094E-09   -2.279E-09   -2.462E-09   -2.643E-09   -2.822E-09
    -2.999E-09   -3.173E-09   -3.345E-09   -3.514E-09   -3.681E-09   -3.845E-09   -4.006E-09   -4.163E-09   -4.318E-09   -4.469E-09
    -4.617E-09   -4.761E-09   -4.901E-09   -5.037E-09   -5.170E-09   -5.298E-09   -5.422E-09   -5.542E-09   -5.657E-09   -5.767E-09
    -5.873E-09   -5.974E-09   -6.070E-09   -6.160E-09   -6.246E-09   -6.326E-09   -6.400E-09   -6.469E-09   -6.532E-09   -6.589E-09
    -6.640E-09   -6.687E-09   -6.727E-09   -6.763E-09   -6.793E-09   -6.819E-09   -6.839E-09   -6.855E-09   -6.866E-09   -6.873E-09
    -6.875E-09   -6.873E-09   -6.867E-09   -6.857E-09   -6.844E-09   -6.826E-09   -6.805E-09   -6.780E-09   -6.752E-09   -6.721E-09
    -6.686E-09   -6.649E-09   -6.609E-09   -6.565E-09   -6.520E-09   -6.472E-09   -6.421E-09   -6.368E-09   -6.313E-09   -6.256E-09
    -6.198E-09   -6.137E-09   -6.075E-09   -6.011E-09   -5.946E-09   -5.880E-09   -5.812E-09   -5.744E-09   -5.675E-09   -5.605E-09
    -5.534E-09   -5.463E-09   -5.391E-09   -5.319E-09   -5.247E-09   -5.175E-09   -5.103E-09   -5.031E-09   -4.960E-09   -4.889E-09
    -4.819E-09   -4.749E-09   -4.681E-09   -4.613E-09   -4.547E-09   -4.481E-09   -4.417E-09   -4.355E-09   -4.294E-09   -4.235E-09
    -4.177E-09   -4.122E-09   -4.069E-09   -4.018E-09   -3.969E-09   -3.923E-09   -3.879E-09   -3.838E-09   -3.800E-09   -3.765E-09
    -3.733E-09   -3.704E-09   -3.679E-09   -3.656E-09   -3.636E-09   -3.619E-09   -3.605E-09   -3.593E-09   -3.585E-09   -3.578E-09
    -3.575E-09   -3.573E-09   -3.574E-09   -3.578E-09   -3.583E-09   -3.591E-09   -3.601E-09   -3.613E-09   -3.627E-09   -3.643E-09
    -3.660E-09   -3.680E-09   -3.701E-09   -3.723E-09   -3.747E-09   -3.773E-09   -3.800E-09   -3.828E-09   -3.858E-09   -3.889E-09
    -3.921E-09   -3.954E-09   -3.988E-09   -4.022E-09   -4.058E-09   -4.095E-09   -4.132E-09   -4.170E-09   -4.208E-09   -4.247E-09
    -4.286E-09   -4.326E-09   -4.366E-09   -4.406E-09   -4.446E-09   -4.486E-09   -4.527E-09   -4.567E-09   -4.607E-09   -4.647E-09
    -4.687E-09   -4.726E-09   -4.765E-09   -4.803E-09   -4.841E-09   -4.878E-09   -4.915E-09   -4.951E-09   -4.986E-09   -5.020E-09
    -5.053E-09   -5.085E-09   -5.116E-09   -5.145E-09   -5.174E-09   -5.201E-09   -5.227E-09   -5.251E-09   -5.274E-09   -5.295E-09
    -5.315E-09   -5.332E-09   -5.348E-09
 Ala      Conc. = 1.14E-10
   9.04326E-09  9.06311E-09  9.08028E-09  9.09642E-09  9.11171E-09  9.12624E-09  9.13595E-09  9.13590E-09  9.14191E-09  9.15346E-09
   9.14783E-09  9.14385E-09  9.15192E-09  9.15502E-09  9.15716E-09  9.16337E-09  9.17159E-09  9.18093E-09  9.19095E-09  9.20141E-09
   9.21217E-09  9.22313E-09  9.23422E-09  9.24540E-09  9.25662E-09  9.26787E-09  9.27911E-09  9.29033E-09  9.30150E-09  9.31261E-09
   9.32365E-09  9.33459E-09  9.34541E-09  9.35613E-09  9.36671E-09  9.37717E-09  9.38745E-09  9.39756E-09  9.40752E-09  9.41726E-09
   9.42682E-09  9.43615E-09  9.44528E-09  9.45416E-09  9.46281E-09  9.47119E-09  9.47933E-09  9.48717E-09  9.49473E-09  9.50201E-09
   9.50897E-09  9.51562E-09  9.52194E-09  9.52792E-09  9.53357E-09  9.53884E-09  9.54375E-09  9.54831E-09  9.55243E-09  9.55618E-09
   9.55953E-09  9.56244E-09  9.56493E-09  9.56698E-09  9.56860E-09  9.56975E-09  9.57043E-09  9.57063E-09  9.57033E-09  9.56956E-09
   9.56826E-09  9.56644E-09  9.56413E-09  9.56125E-09  9.55782E-09  9.55378E-09  9.54911E-09  9.54376E-09  9.53769E-09  9.53087E-09
   9.52325E-09  9.51480E-09  9.50548E-09  9.49526E-09  9.48412E-09  9.47200E-09  9.45889E-09  9.44477E-09  9.42960E-09  9.41339E-09
   9.39610E-09  9.37779E-09  9.35844E-09  9.33817E-09  9.31708E-09  9.29542E-09  9.27371E-09  9.25297E-09  9.23592E-09  9.23186E-09
   9.25655E-09  9.26260E-09  9.25288E-09  9.27025E-09  9.29788E-09  9.32661E-09  9.35241E-09  9.36488E-09  9.34225E-09  9.26466E-09
   9.14028E-09  9.02235E-09  8.95400E-09  8.79663E-09  8.59994E-09  8.48836E-09  8.40104E-09  8.32135E-09  8.24404E-09  8.16698E-09
   8.08902E-09  8.00963E-09  7.92841E-09  7.84512E-09  7.75960E-09  7.67169E-09  7.58128E-09  7.48833E-09  7.39274E-09  7.29443E-09
   7.19337E-09  7.08946E-09  6.98271E-09  6.87302E-09  6.76036E-09  6.64466E-09  6.52594E-09  6.40408E-09  6.27909E-09  6.15088E-09
   6.01944E-09  5.88472E-09  5.74668E-09  5.60527E-09  5.46046E-09  5.31220E-09  5.16049E-09  5.00546E-09  4.84723E-09  4.68594E-09
   4.52170E-09  4.35466E-09  4.18494E-09  4.01267E-09  3.83798E-09  3.66101E-09  3.48190E-09  3.30077E-09  3.11779E-09  2.93309E-09
   2.74681E-09  2.55919E-09  2.37040E-09  2.18080E-09  1.99098E-09  1.80247E-09  1.62200E-09  1.46621E-09  1.30617E-09  1.13115E-09
   9.46965E-10  7.66045E-10  5.99000E-10  4.47072E-10  2.97181E-10  1.21156E-10 -1.10829E-10 -4.02444E-10 -7.00677E-10 -9.22070E-10
  -1.12479E-09 -1.32144E-09 -1.51495E-09 -1.70613E-09 -1.89534E-09 -2.08267E-09 -2.26808E-09 -2.45150E-09 -2.63291E-09 -2.81217E-09
  -2.98915E-09 -3.16378E-09 -3.33592E-09 -3.50546E-09 -3.67223E-09 -3.83616E-09 -3.99712E-09 -4.15494E-09 -4.30952E-09 -4.46075E-09
  -4.60848E-09 -4.75260E-09 -4.89295E-09 -5.02943E-09 -5.16192E-09 -5.29025E-09 -5.41433E-09 -5.53403E-09 -5.64922E-09 -5.75971E-09
  -5.86548E-09 -5.96633E-09 -6.06213E-09 -6.15278E-09 -6.23817E-09 -6.31810E-09 -6.39249E-09 -6.46123E-09 -6.52416E-09 -6.58137E-09
  -6.63296E-09 -6.67909E-09 -6.71985E-09 -6.75538E-09 -6.78579E-09 -6.81123E-09 -6.83181E-09 -6.84764E-09 -6.85887E-09 -6.86560E-09
  -6.86798E-09 -6.86611E-09 -6.86013E-09 -6.85016E-09 -6.83633E-09 -6.81875E-09 -6.79756E-09 -6.77287E-09 -6.74482E-09 -6.71352E-09
  -6.67909E-09 -6.64168E-09 -6.60139E-09 -6.55836E-09 -6.51270E-09 -6.46454E-09 -6.41400E-09 -6.36122E-09 -6.30632E-09 -6.24940E-09
  -6.19063E-09 -6.13007E-09 -6.06793E-09 -6.00424E-09 -5.93917E-09 -5.87288E-09 -5.80544E-09 -5.73698E-09 -5.66765E-09 -5.59755E-09
  -5.52681E-09 -5.45559E-09 -5.38397E-09 -5.31209E-09 -5.24006E-09 -5.16802E-09 -5.09612E-09 -5.02442E-09 -4.95309E-09 -4.88226E-09
  -4.81202E-09 -4.74251E-09 -4.67387E-09 -4.60619E-09 -4.53964E-09 -4.47430E-09 -4.41032E-09 -4.34784E-09 -4.28693E-09 -4.22775E-09
  -4.17044E-09 -4.11510E-09 -4.06187E-09 -4.01084E-09 -3.96217E-09 -3.91598E-09 -3.87239E-09 -3.83149E-09 -3.79346E-09 -3.75840E-09
  -3.72640E-09 -3.69757E-09 -3.67180E-09 -3.64903E-09 -3.62919E-09 -3.61223E-09 -3.59803E-09 -3.58657E-09 -3.57776E-09 -3.57153E-09
  -3.56783E-09 -3.56655E-09 -3.56766E-09 -3.57107E-09 -3.57671E-09 -3.58451E-09 -3.59442E-09 -3.60635E-09 -3.62024E-09 -3.63600E-09
  -3.65359E-09 -3.67291E-09 -3.69393E-09 -3.71654E-09 -3.74070E-09 -3.76631E-09 -3.79334E-09 -3.82168E-09 -3.85128E-09 -3.88208E-09
  -3.91401E-09 -3.94695E-09 -3.98090E-09 -4.01576E-09 -4.05145E-09 -4.08789E-09 -4.12506E-09 -4.16286E-09 -4.20123E-09 -4.24006E-09
  -4.27934E-09 -4.31897E-09 -4.35887E-09 -4.39898E-09 -4.43925E-09 -4.47958E-09 -4.51993E-09 -4.56020E-09 -4.60036E-09 -4.64026E-09
  -4.67994E-09 -4.71924E-09 -4.75815E-09 -4.79658E-09 -4.83440E-09 -4.87166E-09 -4.90819E-09 -4.94398E-09 -4.97892E-09 -5.01297E-09
  -5.04606E-09 -5.07808E-09 -5.10900E-09 -5.13873E-09 -5.16723E-09 -5.19438E-09 -5.22018E-09 -5.24449E-09 -5.26727E-09 -5.28846E-09
  -5.30797E-09 -5.32574E-09 -5.34173E-09
 Asp      Conc. = 4.19E-10
   9.48935E-09  9.44204E-09  9.41584E-09  9.37682E-09  9.34256E-09  9.27394E-09  9.20560E-09  9.15324E-09  9.13569E-09  9.13089E-09
   9.13215E-09  9.13712E-09  9.14477E-09  9.15427E-09  9.16430E-09  9.17468E-09  9.18546E-09  9.19660E-09  9.20803E-09  9.21970E-09
   9.23158E-09  9.24365E-09  9.25589E-09  9.26829E-09  9.28085E-09  9.29359E-09  9.30652E-09  9.31969E-09  9.33314E-09  9.34693E-09
   9.36120E-09  9.37611E-09  9.39195E-09  9.40922E-09  9.42886E-09  9.45314E-09  9.48745E-09  9.52072E-09  9.55715E-09  9.58535E-09
   9.60883E-09  9.63796E-09  9.68688E-09  9.76015E-09  9.84260E-09  9.91936E-09  9.93784E-09  9.91876E-09  9.95357E-09  1.00381E-08
   1.01790E-08  1.03068E-08  1.03604E-08  1.02979E-08  1.01517E-08  1.00110E-08  9.94092E-09  9.96456E-09  9.92485E-09  9.82095E-09
   9.76891E-09  9.73648E-09  9.71507E-09  9.73038E-09  9.74884E-09  9.73288E-09  9.68981E-09  9.66526E-09  9.64929E-09  9.63753E-09
   9.62804E-09  9.61986E-09  9.61243E-09  9.60536E-09  9.59841E-09  9.59138E-09  9.58412E-09  9.57651E-09  9.56843E-09  9.55981E-09
   9.55055E-09  9.54060E-09  9.52988E-09  9.51834E-09  9.50592E-09  9.49257E-09  9.47823E-09  9.46285E-09  9.44640E-09  9.42881E-09
   9.41004E-09  9.39005E-09  9.36878E-09  9.34623E-09  9.32230E-09  9.29696E-09  9.27019E-09  9.24193E-09  9.21214E-09  9.18078E-09
   9.14781E-09  9.11319E-09  9.07686E-09  9.03880E-09  8.99895E-09  8.95729E-09  8.91375E-09  8.86832E-09  8.82095E-09  8.77156E-09
   8.72018E-09  8.66671E-09  8.61113E-09  8.55339E-09  8.49345E-09  8.43129E-09  8.36686E-09  8.30011E-09  8.23099E-09  8.15950E-09
   8.08553E-09  8.00912E-09  7.93016E-09  7.84866E-09  7.76455E-09  7.67780E-09  7.58834E-09  7.49619E-09  7.40126E-09  7.30352E-09
   7.20295E-09  7.09947E-09  6.99309E-09  6.88373E-09  6.77136E-09  6.65593E-09  6.53744E-09  6.41580E-09  6.29100E-09  6.16298E-09
   6.03172E-09  5.89716E-09  5.75929E-09  5.61803E-09  5.47338E-09  5.32528E-09  5.17374E-09  5.01888E-09  4.86083E-09  4.69973E-09
   4.53570E-09  4.36890E-09  4.19943E-09  4.02746E-09  3.85312E-09  3.67656E-09  3.49793E-09  3.31740E-09  3.13515E-09  2.95138E-09
   2.76633E-09  2.58035E-09  2.39392E-09  2.20787E-09  2.02401E-09  1.84744E-09  1.70105E-09  1.64956E-09  1.58597E-09  1.46827E-09
   1.31658E-09  1.17641E-09  1.08723E-09  1.05458E-09  1.03133E-09  9.13920E-10  5.90422E-10  4.22364E-11 -5.41219E-10 -8.40727E-10
  -1.07052E-09 -1.28019E-09 -1.48114E-09 -1.67705E-09 -1.86948E-09 -2.05911E-09 -2.24625E-09 -2.43099E-09 -2.61344E-09 -2.79353E-09
  -2.97119E-09 -3.14639E-09 -3.31900E-09 -3.48894E-09 -3.65606E-09 -3.82028E-09 -3.98151E-09 -4.13955E-09 -4.29433E-09 -4.44574E-09
  -4.59363E-09 -4.73789E-09 -4.87837E-09 -5.01497E-09 -5.14757E-09 -5.27600E-09 -5.40017E-09 -5.51994E-09 -5.63521E-09 -5.74578E-09
  -5.85161E-09 -5.95251E-09 -6.04838E-09 -6.13908E-09 -6.22451E-09 -6.30449E-09 -6.37892E-09 -6.44771E-09 -6.51067E-09 -6.56792E-09
  -6.61955E-09 -6.66571E-09 -6.70650E-09 -6.74206E-09 -6.77250E-09 -6.79796E-09 -6.81856E-09 -6.83443E-09 -6.84567E-09 -6.85243E-09
  -6.85483E-09 -6.85299E-09 -6.84702E-09 -6.83707E-09 -6.82326E-09 -6.80570E-09 -6.78453E-09 -6.75985E-09 -6.73182E-09 -6.70053E-09
