 LCModel (Version 6.3-1R) Copyright: S.W. Provencher.          Ref.: Magn. Reson. Med. 30:672-679 (1993).                
 onepulse 21x7_ftSpec_smooth_lcm
 26 lines in following concentration table = NCONC+1
    Conc.  %SD /Cr+PCr  Metabolite                                         
    0.000 999%   0.000 Ala                                                 
    0.000 999%   0.000 Asp                                                 
    0.000 999%   0.000 Cr                                                  
    0.000 999%   0.000 GABA                                                
    0.000 999%   0.000 Glc                                                 
 2.40E-09  31%   6.901 Gln                                                 
    0.000 999%   0.000 Glu                                                 
    0.000 999%   0.000 Glyc                                                
    0.000 999%   0.000 GPC                                                 
 4.10E-10 108%   1.178 GSH                                                 
 1.99E-09  23%   5.714 Ins                                                 
    0.000 999%   0.000 Lac                                                 
 1.71E-10 204%   0.492 NAAG                                                
 3.62E-10 132%   1.038 NAA                                                 
 1.32E-10 254%   0.379 PCh                                                 
 3.48E-10  92%   1.000 PCr                                                 
 5.78E-10 433%   1.660 PE                                                  
 1.99E-10 155%   0.571 Scyllo                                              
 3.47E-09  43%   9.954 Ser                                                 
 7.08E-10 155%   2.034 Tau                                                 
 1.32E-10 254%   0.379 GPC+PCh                                             
 5.33E-10  56%   1.530 NAA+NAAG                                            
 1.99E-09  23%   5.714 Ins+Glyc                                            
 3.48E-10  92%   1.000 Cr+PCr                                              
 2.40E-09  31%   6.901 Glu+Gln                                             
   6 lines in following misc. output table
  FWHM = 0.112 ppm    S/N =   3                                            
  Data shift = 0.391 ppm                                                   
  Ph: -19 deg     -49.2 deg/ppm                                            
  alphaB,S = 4.2E-01,   1.3E+01                                            
   11 spline knots.   Ns = 5(1)                                            
  (11) 4 infls.   ( 9) 1 extrs.                                            
  363 points on ppm-axis = NY
      4.250000     4.238821     4.227641     4.216462     4.205282     4.194103     4.182923     4.171744     4.160564     4.149385
      4.138206     4.127026     4.115847     4.104667     4.093488     4.082308     4.071129     4.059949     4.048770     4.037591
      4.026411     4.015232     4.004052     3.992873     3.981693     3.970514     3.959334     3.948155     3.936975     3.925796
      3.914617     3.903437     3.892258     3.881078     3.869899     3.858719     3.847540     3.836360     3.825181     3.814002
      3.802822     3.791643     3.780463     3.769284     3.758104     3.746925     3.735745     3.724566     3.713387     3.702207
      3.691028     3.679848     3.668669     3.657489     3.646310     3.635130     3.623951     3.612772     3.601592     3.590413
      3.579233     3.568054     3.556874     3.545695     3.534515     3.523336     3.512156     3.500977     3.489798     3.478618
      3.467439     3.456259     3.445080     3.433900     3.422721     3.411541     3.400362     3.389183     3.378003     3.366824
      3.355644     3.344465     3.333285     3.322106     3.310926     3.299747     3.288568     3.277388     3.266209     3.255029
      3.243850     3.232670     3.221491     3.210311     3.199132     3.187953     3.176773     3.165594     3.154414     3.143235
      3.132055     3.120876     3.109696     3.098517     3.087337     3.076158     3.064979     3.053799     3.042620     3.031440
      3.020261     3.009081     2.997902     2.986722     2.975543     2.964364     2.953184     2.942005     2.930825     2.919646
      2.908466     2.897287     2.886107     2.874928     2.863749     2.852569     2.841390     2.830210     2.819031     2.807851
      2.796672     2.785492     2.774313     2.763134     2.751954     2.740775     2.729595     2.718416     2.707236     2.696057
      2.684877     2.673698     2.662519     2.651339     2.640160     2.628980     2.617801     2.606621     2.595442     2.584262
      2.573083     2.561903     2.550724     2.539545     2.528365     2.517186     2.506006     2.494827     2.483647     2.472468
      2.461288     2.450109     2.438930     2.427750     2.416571     2.405391     2.394212     2.383032     2.371853     2.360673
      2.349494     2.338315     2.327135     2.315956     2.304776     2.293597     2.282417     2.271238     2.260058     2.248879
      2.237700     2.226520     2.215341     2.204161     2.192982     2.181802     2.170623     2.159443     2.148264     2.137084
      2.125905     2.114726     2.103546     2.092367     2.081187     2.070008     2.058828     2.047649     2.036469     2.025290
      2.014111     2.002931     1.991752     1.980572     1.969393     1.958213     1.947034     1.935854     1.924675     1.913496
      1.902316     1.891137     1.879957     1.868778     1.857598     1.846419     1.835239     1.824060     1.812881     1.801701
      1.790522     1.779342     1.768163     1.756983     1.745804     1.734624     1.723445     1.712265     1.701086     1.689907
      1.678727     1.667548     1.656368     1.645189     1.634009     1.622830     1.611650     1.600471     1.589292     1.578112
      1.566933     1.555753     1.544574     1.533394     1.522215     1.511035     1.499856     1.488677     1.477497     1.466318
      1.455138     1.443959     1.432779     1.421600     1.410420     1.399241     1.388062     1.376882     1.365703     1.354523
      1.343344     1.332164     1.320985     1.309805     1.298626     1.287446     1.276267     1.265088     1.253908     1.242729
      1.231549     1.220370     1.209190     1.198011     1.186831     1.175652     1.164473     1.153293     1.142114     1.130934
      1.119755     1.108575     1.097396     1.086216     1.075037     1.063858     1.052678     1.041499     1.030319     1.019140
      1.007960     0.996781     0.985601     0.974422     0.963243     0.952063     0.940884     0.929704     0.918525     0.907345
      0.896166     0.884986     0.873807     0.862628     0.851448     0.840269     0.829089     0.817910     0.806730     0.795551
      0.784371     0.773192     0.762012     0.750833     0.739654     0.728474     0.717295     0.706115     0.694936     0.683756
      0.672577     0.661397     0.650218     0.639039     0.627859     0.616680     0.605500     0.594321     0.583141     0.571962
      0.560782     0.549603     0.538424     0.527244     0.516065     0.504885     0.493706     0.482526     0.471347     0.460167
      0.448988     0.437809     0.426629     0.415450     0.404270     0.393091     0.381911     0.370732     0.359552     0.348373
      0.337193     0.326014     0.314835     0.303655     0.292476     0.281296     0.270117     0.258937     0.247758     0.236578
      0.225399     0.214220     0.203040
 NY phased data points follow
   1.57908E-08  1.38699E-08  1.48187E-08  1.26357E-08  1.36331E-08  1.23325E-08  1.39794E-08  1.28484E-08  1.41752E-08  1.30184E-08
   1.46409E-08  1.42973E-08  1.56205E-08  1.46120E-08  1.47167E-08  1.39518E-08  1.47983E-08  1.34390E-08  1.41743E-08  1.35607E-08
   1.41112E-08  1.37006E-08  1.43578E-08  1.32306E-08  1.40747E-08  1.34274E-08  1.39588E-08  1.45529E-08  1.53889E-08  1.57453E-08
   1.64963E-08  1.60580E-08  1.61267E-08  1.53227E-08  1.50574E-08  1.38969E-08  1.42908E-08  1.35148E-08  1.39447E-08  1.29334E-08
   1.36118E-08  1.25864E-08  1.24106E-08  1.12958E-08  1.17704E-08  1.10813E-08  1.11709E-08  1.06893E-08  1.05942E-08  9.81740E-09
   1.03587E-08  9.88629E-09  9.78042E-09  8.04030E-09  8.50778E-09  8.11857E-09  8.90116E-09  8.71060E-09  1.00505E-08  1.18090E-08
   1.35703E-08  1.35841E-08  1.49395E-08  1.42210E-08  1.40768E-08  1.31679E-08  1.29933E-08  1.21948E-08  1.14657E-08  9.86968E-09
   8.99332E-09  8.12940E-09  8.46681E-09  7.65593E-09  9.03179E-09  9.92725E-09  1.23792E-08  1.47017E-08  1.62938E-08  1.65028E-08
   1.63305E-08  1.66261E-08  1.64318E-08  1.61802E-08  1.58639E-08  1.56219E-08  1.62532E-08  1.47810E-08  1.55981E-08  1.50040E-08
   1.47810E-08  1.36512E-08  1.42418E-08  1.30870E-08  1.27684E-08  1.22294E-08  1.20725E-08  1.12788E-08  1.15948E-08  1.13455E-08
   1.16448E-08  1.11865E-08  1.13332E-08  1.07760E-08  1.07414E-08  1.04200E-08  1.00982E-08  9.15540E-09  9.10252E-09  8.62872E-09
   8.88884E-09  8.70201E-09  8.95318E-09  9.14085E-09  9.68631E-09  9.41198E-09  9.33919E-09  9.33383E-09  9.08218E-09  9.10285E-09
   8.60468E-09  7.98163E-09  7.43126E-09  7.50511E-09  7.31906E-09  7.30619E-09  6.91940E-09  7.36313E-09  7.62750E-09  7.09336E-09
   7.56049E-09  7.78969E-09  7.98537E-09  7.51876E-09  7.40823E-09  8.02453E-09  7.33707E-09  9.24776E-09  9.47629E-09  1.00773E-08
   1.00492E-08  1.03044E-08  1.07610E-08  1.13837E-08  1.08950E-08  1.14417E-08  1.18222E-08  1.15717E-08  1.14828E-08  1.15838E-08
   1.13000E-08  1.08558E-08  1.13860E-08  1.11019E-08  1.11673E-08  1.07993E-08  1.11252E-08  1.07598E-08  1.10323E-08  1.09376E-08
   1.04379E-08  1.02610E-08  9.33978E-09  1.00861E-08  9.20655E-09  9.18385E-09  9.40382E-09  1.22769E-08  1.56298E-08  1.87320E-08
   2.01033E-08  2.14324E-08  2.13598E-08  2.25363E-08  2.17846E-08  2.09821E-08  1.97876E-08  1.94359E-08  1.82139E-08  1.69969E-08
   1.52778E-08  1.39468E-08  1.12206E-08  9.25700E-09  6.47986E-09  4.16646E-09  6.97808E-10 -1.49218E-09 -3.88564E-09 -5.99444E-09
  -8.44910E-09 -9.86313E-09 -1.10128E-08 -1.20115E-08 -1.29583E-08 -1.25896E-08 -1.24263E-08 -1.17695E-08 -1.08945E-08 -1.01420E-08
  -9.08508E-09 -7.44921E-09 -7.67288E-09 -6.14939E-09 -5.74242E-09 -4.48569E-09 -4.44876E-09 -2.92626E-09 -3.38583E-09 -3.02462E-09
  -3.08574E-09 -2.91963E-09 -3.20347E-09 -2.84647E-09 -3.26177E-09 -3.18462E-09 -3.02126E-09 -2.63649E-09 -3.01327E-09 -2.22241E-09
  -2.51601E-09 -1.98908E-09 -2.28619E-09 -2.60384E-09 -2.79388E-09 -2.42535E-09 -2.69482E-09 -2.45664E-09 -2.90971E-09 -1.84170E-09
  -2.26723E-09 -1.92458E-09 -2.75785E-09 -2.20346E-09 -2.40914E-09 -1.93817E-09 -2.63910E-09 -2.10654E-09 -2.49750E-09 -2.54078E-09
  -2.41833E-09 -2.55108E-09 -3.03335E-09 -2.39391E-09 -2.43025E-09 -2.30200E-09 -2.90996E-09 -1.89271E-09 -2.01297E-09 -2.07117E-09
  -2.34191E-09 -1.59720E-09 -1.79239E-09 -1.70187E-09 -2.38159E-09 -1.56701E-09 -1.95507E-09 -2.32745E-09 -2.23474E-09 -2.23169E-09
  -2.84342E-09 -2.64564E-09 -2.95267E-09 -2.98324E-09 -3.73654E-09 -2.56184E-09 -3.92970E-09 -2.57445E-09 -3.11594E-09 -2.94540E-09
  -2.79179E-09 -2.35114E-09 -2.40694E-09 -1.58214E-09 -1.43853E-09 -1.37691E-09 -1.35609E-09 -1.34200E-09 -1.76320E-09 -1.46540E-09
  -1.11467E-09 -1.56602E-09 -2.15961E-09 -1.56564E-09 -1.41792E-09 -1.10555E-09 -1.56964E-09 -1.98226E-09 -2.10154E-09 -1.71202E-09
  -1.97075E-09 -2.27859E-09 -2.36182E-09 -2.14098E-09 -2.19434E-09 -2.12813E-09 -2.30544E-09 -2.60212E-09 -2.36406E-09 -2.86606E-09
  -2.84897E-09 -2.14876E-09 -2.88514E-09 -2.80011E-09 -2.42146E-09 -2.74655E-09 -3.28373E-09 -2.90391E-09 -3.13540E-09 -3.52234E-09
  -3.32857E-09 -3.39503E-09 -3.55806E-09 -2.88580E-09 -3.48091E-09 -3.29760E-09 -3.60551E-09 -3.86431E-09 -3.34921E-09 -3.38104E-09
  -4.01581E-09 -3.64065E-09 -4.39785E-09 -3.54042E-09 -4.05208E-09 -4.17822E-09 -3.99127E-09 -3.93882E-09 -4.10082E-09 -3.84255E-09
  -4.45186E-09 -3.87964E-09 -4.67907E-09 -4.08964E-09 -4.25446E-09 -4.44381E-09 -4.56199E-09 -4.29507E-09 -4.91689E-09 -4.26902E-09
  -4.82635E-09 -4.35502E-09 -4.64635E-09 -4.59894E-09 -5.44451E-09 -4.68602E-09 -4.97361E-09 -4.65010E-09 -5.06308E-09 -5.05015E-09
  -5.36038E-09 -5.02826E-09 -5.71539E-09 -5.17877E-09 -5.89717E-09 -5.38236E-09 -5.46432E-09 -5.20432E-09 -5.75450E-09 -5.59163E-09
  -5.96502E-09 -5.22337E-09 -6.02688E-09
 NY points of the fit to the data follow
   1.48210E-08  1.59295E-08  1.56865E-08  1.36800E-08  1.31467E-08  1.38676E-08  1.40732E-08  1.34453E-08  1.29641E-08  1.34833E-08
   1.35407E-08  1.34124E-08  1.35400E-08  1.36134E-08  1.43920E-08  1.50125E-08  1.43237E-08  1.46508E-08  1.59677E-08  1.55026E-08
   1.40165E-08  1.30830E-08  1.29956E-08  1.31140E-08  1.35007E-08  1.39503E-08  1.47575E-08  1.55264E-08  1.60100E-08  1.54120E-08
   1.54436E-08  1.56489E-08  1.59903E-08  1.58463E-08  1.56623E-08  1.46983E-08  1.38293E-08  1.32299E-08  1.29222E-08  1.27459E-08
   1.27250E-08  1.28395E-08  1.26054E-08  1.17366E-08  1.12657E-08  1.06871E-08  1.03991E-08  1.00275E-08  9.59797E-09  9.33532E-09
   9.17655E-09  9.10546E-09  9.06584E-09  9.05018E-09  9.20867E-09  9.66250E-09  1.00562E-08  1.05619E-08  1.14229E-08  1.22478E-08
   1.28215E-08  1.32975E-08  1.36493E-08  1.40577E-08  1.43000E-08  1.39404E-08  1.32997E-08  1.32772E-08  1.27996E-08  1.15895E-08
   1.09988E-08  1.09864E-08  1.08540E-08  1.08332E-08  1.10430E-08  1.16184E-08  1.23567E-08  1.34771E-08  1.46963E-08  1.56995E-08
   1.64508E-08  1.71443E-08  1.72722E-08  1.70810E-08  1.73075E-08  1.71798E-08  1.65163E-08  1.58659E-08  1.44044E-08  1.32763E-08
   1.26407E-08  1.22119E-08  1.18936E-08  1.16506E-08  1.14479E-08  1.12730E-08  1.11259E-08  1.10030E-08  1.08967E-08  1.07924E-08
   1.07005E-08  1.06248E-08  1.05561E-08  1.04886E-08  1.04265E-08  1.03697E-08  1.03167E-08  1.02667E-08  1.02189E-08  1.01729E-08
   1.01281E-08  1.00843E-08  1.00410E-08  9.99797E-09  9.95484E-09  9.91139E-09  9.86738E-09  9.82256E-09  9.77670E-09  9.72963E-09
   9.68115E-09  9.63109E-09  9.57927E-09  9.52553E-09  9.46973E-09  9.41171E-09  9.35133E-09  9.28846E-09  9.22296E-09  9.15469E-09
   9.08356E-09  9.00943E-09  8.93220E-09  8.85174E-09  8.76795E-09  8.68075E-09  8.59001E-09  8.49571E-09  8.39793E-09  8.29679E-09
   8.19238E-09  8.08484E-09  7.97429E-09  7.86085E-09  7.74468E-09  7.62592E-09  7.50475E-09  7.38135E-09  7.25594E-09  7.12872E-09
   6.99999E-09  6.87002E-09  6.73920E-09  6.60794E-09  6.47680E-09  6.34647E-09  6.21785E-09  6.09214E-09  5.97107E-09  5.85710E-09
   5.75412E-09  5.66834E-09  5.61081E-09  5.60310E-09  5.69398E-09  6.02231E-09  7.17124E-09  1.15454E-08  1.59710E-08  1.89342E-08
   2.06209E-08  2.14555E-08  2.18162E-08  2.20359E-08  2.18259E-08  2.16788E-08  2.19119E-08  1.94219E-08  9.69654E-09  4.89488E-09
   3.51027E-09  2.85356E-09  2.43856E-09  2.12971E-09  1.87618E-09  1.65505E-09  1.45464E-09  1.26837E-09  1.09240E-09  9.24261E-10
   7.62405E-10  6.05727E-10  4.53549E-10  3.05312E-10  1.60680E-10  1.93857E-11 -1.18736E-10 -2.53825E-10 -3.85963E-10 -5.15219E-10
  -6.41617E-10 -7.65177E-10 -8.85910E-10 -1.00380E-09 -1.11884E-09 -1.23103E-09 -1.34032E-09 -1.44669E-09 -1.55012E-09 -1.65056E-09
  -1.74798E-09 -1.84234E-09 -1.93362E-09 -2.02178E-09 -2.10675E-09 -2.18851E-09 -2.26703E-09 -2.34228E-09 -2.41419E-09 -2.48273E-09
  -2.54789E-09 -2.60960E-09 -2.66782E-09 -2.72256E-09 -2.77375E-09 -2.82132E-09 -2.86532E-09 -2.90567E-09 -2.94246E-09 -2.97582E-09
  -3.00587E-09 -3.03276E-09 -3.05659E-09 -3.07751E-09 -3.09564E-09 -3.11111E-09 -3.12404E-09 -3.13456E-09 -3.14279E-09 -3.14885E-09
  -3.15288E-09 -3.15499E-09 -3.15531E-09 -3.15395E-09 -3.15103E-09 -3.14669E-09 -3.14102E-09 -3.13416E-09 -3.12621E-09 -3.11730E-09
  -3.10754E-09 -3.09704E-09 -3.08591E-09 -3.07427E-09 -3.06223E-09 -3.04988E-09 -3.03736E-09 -3.02475E-09 -3.01216E-09 -2.99970E-09
  -2.98747E-09 -2.97557E-09 -2.96410E-09 -2.95316E-09 -2.94284E-09 -2.93324E-09 -2.92445E-09 -2.91657E-09 -2.90967E-09 -2.90386E-09
  -2.89922E-09 -2.89584E-09 -2.89379E-09 -2.89309E-09 -2.89372E-09 -2.89565E-09 -2.89884E-09 -2.90326E-09 -2.90888E-09 -2.91565E-09
  -2.92356E-09 -2.93256E-09 -2.94263E-09 -2.95372E-09 -2.96581E-09 -2.97886E-09 -2.99285E-09 -3.00773E-09 -3.02347E-09 -3.04004E-09
  -3.05741E-09 -3.07553E-09 -3.09440E-09 -3.11396E-09 -3.13418E-09 -3.15503E-09 -3.17649E-09 -3.19851E-09 -3.22107E-09 -3.24413E-09
  -3.26765E-09 -3.29162E-09 -3.31598E-09 -3.34072E-09 -3.36581E-09 -3.39120E-09 -3.41687E-09 -3.44279E-09 -3.46892E-09 -3.49525E-09
  -3.52172E-09 -3.54831E-09 -3.57500E-09 -3.60176E-09 -3.62855E-09 -3.65534E-09 -3.68211E-09 -3.70880E-09 -3.73542E-09 -3.76193E-09
  -3.78828E-09 -3.81445E-09 -3.84040E-09 -3.86610E-09 -3.89153E-09 -3.91664E-09 -3.94142E-09 -3.96582E-09 -3.98982E-09 -4.01340E-09
  -4.03651E-09 -4.05914E-09 -4.08125E-09 -4.10282E-09 -4.12382E-09 -4.14422E-09 -4.16401E-09 -4.18314E-09 -4.20160E-09 -4.21937E-09
  -4.23641E-09 -4.25271E-09 -4.26824E-09 -4.28297E-09 -4.29689E-09 -4.30999E-09 -4.32222E-09 -4.33357E-09 -4.34403E-09 -4.35358E-09
  -4.36218E-09 -4.36984E-09 -4.37652E-09 -4.38222E-09 -4.38691E-09 -4.39057E-09 -4.39320E-09 -4.39478E-09 -4.39529E-09 -4.39473E-09
  -4.39307E-09 -4.39030E-09 -4.38641E-09
 NY background values follow
     3.399E-09    3.445E-09    3.491E-09    3.538E-09    3.584E-09    3.631E-09    3.678E-09    3.725E-09    3.772E-09    3.820E-09
     3.867E-09    3.915E-09    3.963E-09    4.010E-09    4.058E-09    4.106E-09    4.154E-09    4.203E-09    4.251E-09    4.299E-09
     4.348E-09    4.396E-09    4.445E-09    4.493E-09    4.542E-09    4.591E-09    4.639E-09    4.688E-09    4.737E-09    4.786E-09
     4.835E-09    4.883E-09    4.932E-09    4.981E-09    5.030E-09    5.079E-09    5.127E-09    5.176E-09    5.225E-09    5.274E-09
     5.322E-09    5.371E-09    5.419E-09    5.468E-09    5.516E-09    5.564E-09    5.612E-09    5.660E-09    5.708E-09    5.756E-09
     5.804E-09    5.852E-09    5.899E-09    5.946E-09    5.994E-09    6.041E-09    6.087E-09    6.134E-09    6.181E-09    6.227E-09
     6.273E-09    6.319E-09    6.365E-09    6.410E-09    6.455E-09    6.500E-09    6.545E-09    6.590E-09    6.634E-09    6.678E-09
     6.722E-09    6.765E-09    6.808E-09    6.851E-09    6.894E-09    6.936E-09    6.978E-09    7.020E-09    7.061E-09    7.102E-09
     7.142E-09    7.183E-09    7.222E-09    7.262E-09    7.301E-09    7.340E-09    7.378E-09    7.416E-09    7.453E-09    7.490E-09
     7.527E-09    7.563E-09    7.599E-09    7.634E-09    7.668E-09    7.702E-09    7.735E-09    7.767E-09    7.798E-09    7.828E-09
     7.857E-09    7.885E-09    7.912E-09    7.937E-09    7.960E-09    7.983E-09    8.003E-09    8.022E-09    8.039E-09    8.054E-09
     8.067E-09    8.078E-09    8.087E-09    8.094E-09    8.098E-09    8.100E-09    8.099E-09    8.096E-09    8.090E-09    8.082E-09
     8.070E-09    8.056E-09    8.038E-09    8.018E-09    7.994E-09    7.967E-09    7.937E-09    7.903E-09    7.865E-09    7.824E-09
     7.779E-09    7.731E-09    7.678E-09    7.621E-09    7.561E-09    7.496E-09    7.427E-09    7.353E-09    7.275E-09    7.194E-09
     7.108E-09    7.018E-09    6.925E-09    6.828E-09    6.727E-09    6.623E-09    6.516E-09    6.405E-09    6.292E-09    6.175E-09
     6.056E-09    5.933E-09    5.809E-09    5.681E-09    5.551E-09    5.419E-09    5.285E-09    5.149E-09    5.011E-09    4.871E-09
     4.730E-09    4.587E-09    4.442E-09    4.297E-09    4.150E-09    4.002E-09    3.853E-09    3.704E-09    3.553E-09    3.403E-09
     3.252E-09    3.100E-09    2.949E-09    2.797E-09    2.646E-09    2.495E-09    2.344E-09    2.194E-09    2.044E-09    1.895E-09
     1.747E-09    1.600E-09    1.454E-09    1.310E-09    1.166E-09    1.024E-09    8.837E-10    7.445E-10    6.068E-10    4.707E-10
     3.363E-10    2.035E-10    7.263E-11   -5.646E-11   -1.836E-10   -3.089E-10   -4.320E-10   -5.531E-10   -6.721E-10   -7.888E-10
    -9.033E-10   -1.015E-09   -1.125E-09   -1.232E-09   -1.337E-09   -1.439E-09   -1.539E-09   -1.636E-09   -1.730E-09   -1.822E-09
    -1.911E-09   -1.996E-09   -2.079E-09   -2.159E-09   -2.236E-09   -2.310E-09   -2.381E-09   -2.448E-09   -2.513E-09   -2.574E-09
    -2.631E-09   -2.686E-09   -2.737E-09   -2.785E-09   -2.829E-09   -2.870E-09   -2.907E-09   -2.941E-09   -2.971E-09   -2.997E-09
    -3.021E-09   -3.042E-09   -3.059E-09   -3.074E-09   -3.086E-09   -3.095E-09   -3.102E-09   -3.106E-09   -3.109E-09   -3.109E-09
    -3.107E-09   -3.104E-09   -3.098E-09   -3.091E-09   -3.083E-09   -3.073E-09   -3.062E-09   -3.049E-09   -3.036E-09   -3.022E-09
    -3.007E-09   -2.991E-09   -2.975E-09   -2.958E-09   -2.941E-09   -2.923E-09   -2.906E-09   -2.888E-09   -2.871E-09   -2.854E-09
    -2.836E-09   -2.820E-09   -2.804E-09   -2.788E-09   -2.773E-09   -2.759E-09   -2.745E-09   -2.733E-09   -2.721E-09   -2.711E-09
    -2.702E-09   -2.694E-09   -2.688E-09   -2.683E-09   -2.679E-09   -2.677E-09   -2.676E-09   -2.676E-09   -2.677E-09   -2.680E-09
    -2.684E-09   -2.689E-09   -2.695E-09   -2.702E-09   -2.710E-09   -2.719E-09   -2.729E-09   -2.740E-09   -2.752E-09   -2.765E-09
    -2.779E-09   -2.793E-09   -2.808E-09   -2.824E-09   -2.840E-09   -2.858E-09   -2.875E-09   -2.894E-09   -2.913E-09   -2.932E-09
    -2.952E-09   -2.973E-09   -2.994E-09   -3.015E-09   -3.037E-09   -3.059E-09   -3.081E-09   -3.104E-09   -3.126E-09   -3.150E-09
    -3.173E-09   -3.196E-09   -3.220E-09   -3.243E-09   -3.267E-09   -3.290E-09   -3.314E-09   -3.338E-09   -3.361E-09   -3.385E-09
    -3.408E-09   -3.431E-09   -3.454E-09   -3.477E-09   -3.499E-09   -3.522E-09   -3.543E-09   -3.565E-09   -3.586E-09   -3.607E-09
    -3.627E-09   -3.647E-09   -3.666E-09   -3.685E-09   -3.703E-09   -3.721E-09   -3.738E-09   -3.755E-09   -3.770E-09   -3.786E-09
    -3.800E-09   -3.814E-09   -3.827E-09   -3.839E-09   -3.850E-09   -3.861E-09   -3.871E-09   -3.879E-09   -3.887E-09   -3.895E-09
    -3.901E-09   -3.906E-09   -3.910E-09   -3.914E-09   -3.916E-09   -3.917E-09   -3.918E-09   -3.917E-09   -3.915E-09   -3.912E-09
    -3.908E-09   -3.903E-09   -3.897E-09
 Gln      Conc. = 2.40E-09
   2.43359E-09  2.79911E-09  3.28422E-09  3.82842E-09  4.34388E-09  4.83776E-09  5.36164E-09  5.74755E-09  5.81066E-09  6.18734E-09
   6.42334E-09  5.90039E-09  5.92910E-09  5.57159E-09  5.25365E-09  5.05457E-09  4.92308E-09  4.83234E-09  4.76853E-09  4.72362E-09
   4.69248E-09  4.67176E-09  4.65903E-09  4.65221E-09  4.65019E-09  4.65337E-09  4.65967E-09  4.66839E-09  4.68004E-09  4.69349E-09
   4.70833E-09  4.72430E-09  4.74110E-09  4.75854E-09  4.77641E-09  4.79450E-09  4.81263E-09  4.83061E-09  4.84822E-09  4.86529E-09
   4.88173E-09  4.89732E-09  4.91209E-09  4.92588E-09  4.93831E-09  4.94941E-09  4.95903E-09  4.96594E-09  4.97161E-09  4.97793E-09
   4.98274E-09  4.98986E-09  5.00862E-09  5.06331E-09  5.26645E-09  5.75885E-09  6.17134E-09  6.64279E-09  7.45790E-09  8.28669E-09
   8.93093E-09  9.59895E-09  1.01684E-08  1.06809E-08  1.10923E-08  1.09755E-08  1.03948E-08  1.05248E-08  1.02260E-08  9.15832E-09
   8.57366E-09  8.55201E-09  8.37750E-09  8.34492E-09  8.56721E-09  9.09368E-09  9.58778E-09  1.01422E-08  1.07193E-08  1.11571E-08
   1.15756E-08  1.21252E-08  1.20771E-08  1.18376E-08  1.20389E-08  1.17159E-08  1.10074E-08  1.08352E-08  1.04523E-08  1.00318E-08
   9.75051E-09  9.54914E-09  9.40058E-09  9.28994E-09  9.20096E-09  9.12882E-09  9.07125E-09  9.02393E-09  8.98467E-09  8.95271E-09
   8.92637E-09  8.90382E-09  8.88435E-09  8.86723E-09  8.85210E-09  8.83870E-09  8.82629E-09  8.81447E-09  8.80291E-09  8.79133E-09
   8.77943E-09  8.76698E-09  8.75376E-09  8.73955E-09  8.72414E-09  8.70738E-09  8.68908E-09  8.66908E-09  8.64721E-09  8.62333E-09
   8.59731E-09  8.56899E-09  8.53826E-09  8.50496E-09  8.46902E-09  8.43026E-09  8.38860E-09  8.34391E-09  8.29609E-09  8.24499E-09
   8.19055E-09  8.13264E-09  8.07118E-09  8.00603E-09  7.93711E-09  7.86435E-09  7.78760E-09  7.70685E-09  7.62219E-09  7.53372E-09
   7.44152E-09  7.34573E-09  7.24644E-09  7.14376E-09  7.03781E-09  6.92870E-09  6.81658E-09  6.70155E-09  6.58375E-09  6.46333E-09
   6.34045E-09  6.21525E-09  6.08791E-09  5.95862E-09  5.82761E-09  5.69513E-09  5.56149E-09  5.42706E-09  5.29233E-09  5.15796E-09
   5.02497E-09  4.89481E-09  4.77008E-09  4.65560E-09  4.56193E-09  4.51771E-09  4.63457E-09  5.49604E-09  6.37155E-09  6.91627E-09
   7.17261E-09  7.23651E-09  7.19241E-09  7.12031E-09  6.94745E-09  6.78515E-09  6.73181E-09  6.11254E-09  3.76321E-09  2.56761E-09
   2.14651E-09  1.88818E-09  1.68419E-09  1.50439E-09  1.33755E-09  1.17870E-09  1.02536E-09  8.76121E-10  7.30251E-10  5.87249E-10
   4.46864E-10  3.08883E-10  1.73257E-10  3.98856E-11 -9.12367E-11 -2.20121E-10 -3.46740E-10 -4.71083E-10 -5.93112E-10 -7.12803E-10
  -8.30103E-10 -9.44970E-10 -1.05737E-09 -1.16723E-09 -1.27452E-09 -1.37921E-09 -1.48123E-09 -1.58053E-09 -1.67707E-09 -1.77079E-09
  -1.86164E-09 -1.94957E-09 -2.03456E-09 -2.11656E-09 -2.19548E-09 -2.27130E-09 -2.34398E-09 -2.41349E-09 -2.47975E-09 -2.54272E-09
  -2.60240E-09 -2.65871E-09 -2.71160E-09 -2.76108E-09 -2.80709E-09 -2.84954E-09 -2.88849E-09 -2.92385E-09 -2.95571E-09 -2.98419E-09
  -3.00943E-09 -3.03156E-09 -3.05069E-09 -3.06695E-09 -3.08048E-09 -3.09139E-09 -3.09982E-09 -3.10587E-09 -3.10969E-09 -3.11139E-09
  -3.11109E-09 -3.10892E-09 -3.10499E-09 -3.09943E-09 -3.09236E-09 -3.08390E-09 -3.07415E-09 -3.06325E-09 -3.05130E-09 -3.03842E-09
  -3.02473E-09 -3.01033E-09 -2.99535E-09 -2.97988E-09 -2.96404E-09 -2.94794E-09 -2.93169E-09 -2.91539E-09 -2.89914E-09 -2.88305E-09
  -2.86722E-09 -2.85175E-09 -2.83674E-09 -2.82230E-09 -2.80850E-09 -2.79545E-09 -2.78324E-09 -2.77196E-09 -2.76170E-09 -2.75256E-09
  -2.74461E-09 -2.73794E-09 -2.73263E-09 -2.72870E-09 -2.72613E-09 -2.72488E-09 -2.72492E-09 -2.72621E-09 -2.72872E-09 -2.73241E-09
  -2.73727E-09 -2.74324E-09 -2.75030E-09 -2.75841E-09 -2.76754E-09 -2.77765E-09 -2.78872E-09 -2.80070E-09 -2.81357E-09 -2.82730E-09
  -2.84184E-09 -2.85716E-09 -2.87324E-09 -2.89004E-09 -2.90752E-09 -2.92565E-09 -2.94440E-09 -2.96375E-09 -2.98364E-09 -3.00406E-09
  -3.02497E-09 -3.04633E-09 -3.06811E-09 -3.09029E-09 -3.11283E-09 -3.13571E-09 -3.15887E-09 -3.18230E-09 -3.20597E-09 -3.22984E-09
  -3.25388E-09 -3.27806E-09 -3.30235E-09 -3.32674E-09 -3.35117E-09 -3.37561E-09 -3.40005E-09 -3.42444E-09 -3.44877E-09 -3.47300E-09
  -3.49710E-09 -3.52103E-09 -3.54475E-09 -3.56825E-09 -3.59148E-09 -3.61442E-09 -3.63704E-09 -3.65930E-09 -3.68117E-09 -3.70263E-09
  -3.72365E-09 -3.74420E-09 -3.76425E-09 -3.78376E-09 -3.80273E-09 -3.82112E-09 -3.83889E-09 -3.85604E-09 -3.87253E-09 -3.88833E-09
  -3.90343E-09 -3.91780E-09 -3.93141E-09 -3.94424E-09 -3.95628E-09 -3.96749E-09 -3.97787E-09 -3.98738E-09 -3.99601E-09 -4.00373E-09
  -4.01054E-09 -4.01640E-09 -4.02131E-09 -4.02524E-09 -4.02818E-09 -4.03011E-09 -4.03102E-09 -4.03090E-09 -4.02971E-09 -4.02746E-09
  -4.02413E-09 -4.01971E-09 -4.01418E-09
 GSH      Conc. = 4.10E-10
   3.07707E-09  3.47116E-09  3.83225E-09  4.15024E-09  4.44658E-09  4.74977E-09  5.00299E-09  5.25392E-09  5.69630E-09  5.84371E-09
   5.19586E-09  4.96600E-09  4.79130E-09  4.67127E-09  4.60024E-09  4.55802E-09  4.53408E-09  4.52255E-09  4.51975E-09  4.52331E-09
   4.53160E-09  4.54338E-09  4.55770E-09  4.57382E-09  4.59106E-09  4.60878E-09  4.62648E-09  4.64379E-09  4.66090E-09  4.67950E-09
   4.69530E-09  4.71203E-09  4.72493E-09  4.74996E-09  4.90527E-09  5.05725E-09  5.24289E-09  5.48896E-09  5.72538E-09  5.93473E-09
   6.12100E-09  6.27766E-09  6.43229E-09  6.62803E-09  6.73604E-09  6.55334E-09  6.58653E-09  6.49568E-09  6.30540E-09  6.22993E-09
   6.22902E-09  6.29222E-09  6.35583E-09  6.44289E-09  6.59878E-09  6.72905E-09  6.84918E-09  6.97531E-09  7.08274E-09  7.18846E-09
   7.27804E-09  7.26282E-09  7.22623E-09  7.29783E-09  7.22866E-09  7.05861E-09  7.06328E-09  7.06455E-09  7.01997E-09  7.02616E-09
   7.09892E-09  7.14556E-09  7.22986E-09  7.36186E-09  7.47468E-09  7.60123E-09  7.73255E-09  7.83062E-09  7.91512E-09  8.05445E-09
   8.08989E-09  8.04436E-09  8.14927E-09  8.11112E-09  8.01474E-09  8.02995E-09  7.98642E-09  7.94550E-09  7.92813E-09  7.92372E-09
   7.92753E-09  7.93702E-09  7.95012E-09  7.96587E-09  7.98347E-09  8.00242E-09  8.02211E-09  8.04220E-09  8.06238E-09  8.08245E-09
   8.10233E-09  8.12169E-09  8.14034E-09  8.15812E-09  8.17489E-09  8.19057E-09  8.20501E-09  8.21807E-09  8.22963E-09  8.23960E-09
   8.24783E-09  8.25424E-09  8.25873E-09  8.26117E-09  8.26146E-09  8.25951E-09  8.25524E-09  8.24852E-09  8.23925E-09  8.22734E-09
   8.21270E-09  8.19523E-09  8.17484E-09  8.15141E-09  8.12488E-09  8.09513E-09  8.06209E-09  8.02565E-09  7.98573E-09  7.94221E-09
   7.89502E-09  7.84408E-09  7.78929E-09  7.73055E-09  7.66778E-09  7.60091E-09  7.52981E-09  7.45447E-09  7.37499E-09  7.29148E-09
   7.20402E-09  7.11273E-09  7.01773E-09  6.91910E-09  6.81699E-09  6.71148E-09  6.60270E-09  6.49076E-09  6.37579E-09  6.25789E-09
   6.13721E-09  6.01383E-09  5.88792E-09  5.75959E-09  5.62897E-09  5.49622E-09  5.36148E-09  5.22491E-09  5.08670E-09  4.94705E-09
   4.80628E-09  4.66470E-09  4.52293E-09  4.38201E-09  4.24429E-09  4.11664E-09  4.03092E-09  4.08747E-09  4.10344E-09  4.06036E-09
   3.97033E-09  3.85100E-09  3.71653E-09  3.57852E-09  3.42147E-09  3.27454E-09  3.13872E-09  2.85508E-09  2.28228E-09  2.02262E-09
   1.83926E-09  1.67576E-09  1.52040E-09  1.36952E-09  1.22168E-09  1.07623E-09  9.32867E-10  7.91403E-10  6.51805E-10  5.14022E-10
   3.78089E-10  2.43989E-10  1.11808E-10 -1.84570E-11 -1.46741E-10 -2.73002E-10 -3.97174E-10 -5.19217E-10 -6.39068E-10 -7.56685E-10
  -8.72000E-10 -9.84960E-10 -1.09552E-09 -1.20360E-09 -1.30917E-09 -1.41218E-09 -1.51256E-09 -1.61026E-09 -1.70524E-09 -1.79743E-09
  -1.88678E-09 -1.97325E-09 -2.05680E-09 -2.13738E-09 -2.21490E-09 -2.28935E-09 -2.36068E-09 -2.42886E-09 -2.49381E-09 -2.55549E-09
  -2.61390E-09 -2.66894E-09 -2.72060E-09 -2.76886E-09 -2.81366E-09 -2.85492E-09 -2.89268E-09 -2.92688E-09 -2.95759E-09 -2.98493E-09
  -3.00905E-09 -3.03006E-09 -3.04809E-09 -3.06327E-09 -3.07572E-09 -3.08557E-09 -3.09294E-09 -3.09795E-09 -3.10074E-09 -3.10141E-09
