 LCModel (Version 6.3-1R) Copyright: S.W. Provencher.          Ref.: Magn. Reson. Med. 30:672-679 (1993).                
 onepulse 21x8_ftSpec_smooth_lcm
 26 lines in following concentration table = NCONC+1
    Conc.  %SD /Cr+PCr  Metabolite                                         
    0.000 999%   0.000 Ala                                                 
    0.000 999%   0.000 Asp                                                 
 2.99E-10 100%   1.000 Cr                                                  
 1.11E-10 647%   0.370 GABA                                                
 1.08E-10 820%   0.362 Glc                                                 
 2.04E-09  29%   6.803 Gln                                                 
    0.000 999%   0.000 Glu                                                 
    0.000 999%   0.000 Glyc                                                
 1.71E-10  77%   0.570 GPC                                                 
    0.000 999%   0.000 GSH                                                 
 1.17E-09  35%   3.919 Ins                                                 
    0.000 999%   0.000 Lac                                                 
 1.25E-10 273%   0.419 NAAG                                                
 4.74E-10  99%   1.584 NAA                                                 
    0.000 999%   0.000 PCh                                                 
    0.000 999%   0.000 PCr                                                 
    0.000 999%   0.000 PE                                                  
 1.51E-10 151%   0.506 Scyllo                                              
 2.80E-09  35%   9.355 Ser                                                 
 3.46E-10 273%   1.154 Tau                                                 
 1.71E-10  77%   0.570 GPC+PCh                                             
 6.00E-10  46%   2.003 NAA+NAAG                                            
 1.17E-09  35%   3.919 Ins+Glyc                                            
 2.99E-10 100%   1.000 Cr+PCr                                              
 2.04E-09  29%   6.803 Glu+Gln                                             
   6 lines in following misc. output table
  FWHM = 0.078 ppm    S/N =   3                                            
  Data shift = 0.347 ppm                                                   
  Ph: -32 deg     -36.7 deg/ppm                                            
  alphaB,S = 2.8E-01,   2.4E+01                                            
   10 spline knots.   Ns = 5(1)                                            
  (11) 3 infls.   ( 7) 1 extrs.                                            
  363 points on ppm-axis = NY
      4.250000     4.238821     4.227641     4.216462     4.205282     4.194103     4.182923     4.171744     4.160564     4.149385
      4.138206     4.127026     4.115847     4.104667     4.093488     4.082308     4.071129     4.059949     4.048770     4.037591
      4.026411     4.015232     4.004052     3.992873     3.981693     3.970514     3.959334     3.948155     3.936975     3.925796
      3.914617     3.903437     3.892258     3.881078     3.869899     3.858719     3.847540     3.836360     3.825181     3.814002
      3.802822     3.791643     3.780463     3.769284     3.758104     3.746925     3.735745     3.724566     3.713387     3.702207
      3.691028     3.679848     3.668669     3.657489     3.646310     3.635130     3.623951     3.612772     3.601592     3.590413
      3.579233     3.568054     3.556874     3.545695     3.534515     3.523336     3.512156     3.500977     3.489798     3.478618
      3.467439     3.456259     3.445080     3.433900     3.422721     3.411541     3.400362     3.389183     3.378003     3.366824
      3.355644     3.344465     3.333285     3.322106     3.310926     3.299747     3.288568     3.277388     3.266209     3.255029
      3.243850     3.232670     3.221491     3.210311     3.199132     3.187953     3.176773     3.165594     3.154414     3.143235
      3.132055     3.120876     3.109696     3.098517     3.087337     3.076158     3.064979     3.053799     3.042620     3.031440
      3.020261     3.009081     2.997902     2.986722     2.975543     2.964364     2.953184     2.942005     2.930825     2.919646
      2.908466     2.897287     2.886107     2.874928     2.863749     2.852569     2.841390     2.830210     2.819031     2.807851
      2.796672     2.785492     2.774313     2.763134     2.751954     2.740775     2.729595     2.718416     2.707236     2.696057
      2.684877     2.673698     2.662519     2.651339     2.640160     2.628980     2.617801     2.606621     2.595442     2.584262
      2.573083     2.561903     2.550724     2.539545     2.528365     2.517186     2.506006     2.494827     2.483647     2.472468
      2.461288     2.450109     2.438930     2.427750     2.416571     2.405391     2.394212     2.383032     2.371853     2.360673
      2.349494     2.338315     2.327135     2.315956     2.304776     2.293597     2.282417     2.271238     2.260058     2.248879
      2.237700     2.226520     2.215341     2.204161     2.192982     2.181802     2.170623     2.159443     2.148264     2.137084
      2.125905     2.114726     2.103546     2.092367     2.081187     2.070008     2.058828     2.047649     2.036469     2.025290
      2.014111     2.002931     1.991752     1.980572     1.969393     1.958213     1.947034     1.935854     1.924675     1.913496
      1.902316     1.891137     1.879957     1.868778     1.857598     1.846419     1.835239     1.824060     1.812881     1.801701
      1.790522     1.779342     1.768163     1.756983     1.745804     1.734624     1.723445     1.712265     1.701086     1.689907
      1.678727     1.667548     1.656368     1.645189     1.634009     1.622830     1.611650     1.600471     1.589292     1.578112
      1.566933     1.555753     1.544574     1.533394     1.522215     1.511035     1.499856     1.488677     1.477497     1.466318
      1.455138     1.443959     1.432779     1.421600     1.410420     1.399241     1.388062     1.376882     1.365703     1.354523
      1.343344     1.332164     1.320985     1.309805     1.298626     1.287446     1.276267     1.265088     1.253908     1.242729
      1.231549     1.220370     1.209190     1.198011     1.186831     1.175652     1.164473     1.153293     1.142114     1.130934
      1.119755     1.108575     1.097396     1.086216     1.075037     1.063858     1.052678     1.041499     1.030319     1.019140
      1.007960     0.996781     0.985601     0.974422     0.963243     0.952063     0.940884     0.929704     0.918525     0.907345
      0.896166     0.884986     0.873807     0.862628     0.851448     0.840269     0.829089     0.817910     0.806730     0.795551
      0.784371     0.773192     0.762012     0.750833     0.739654     0.728474     0.717295     0.706115     0.694936     0.683756
      0.672577     0.661397     0.650218     0.639039     0.627859     0.616680     0.605500     0.594321     0.583141     0.571962
      0.560782     0.549603     0.538424     0.527244     0.516065     0.504885     0.493706     0.482526     0.471347     0.460167
      0.448988     0.437809     0.426629     0.415450     0.404270     0.393091     0.381911     0.370732     0.359552     0.348373
      0.337193     0.326014     0.314835     0.303655     0.292476     0.281296     0.270117     0.258937     0.247758     0.236578
      0.225399     0.214220     0.203040
 NY phased data points follow
   1.60990E-08  1.61269E-08  1.72136E-08  1.58628E-08  1.57378E-08  1.39267E-08  1.44087E-08  1.29983E-08  1.33239E-08  1.26963E-08
   1.36063E-08  1.32858E-08  1.40672E-08  1.36897E-08  1.46186E-08  1.47246E-08  1.54928E-08  1.48540E-08  1.42638E-08  1.42562E-08
   1.42061E-08  1.35993E-08  1.40550E-08  1.40997E-08  1.38246E-08  1.35917E-08  1.40313E-08  1.35635E-08  1.37494E-08  1.36046E-08
   1.38463E-08  1.50475E-08  1.51722E-08  1.60490E-08  1.58859E-08  1.57672E-08  1.52325E-08  1.48987E-08  1.36931E-08  1.31919E-08
   1.28737E-08  1.26856E-08  1.26264E-08  1.20021E-08  1.20932E-08  1.13337E-08  1.07534E-08  1.03267E-08  1.02485E-08  1.01675E-08
   9.71349E-09  9.88288E-09  9.28040E-09  8.93550E-09  9.14337E-09  9.22317E-09  8.19995E-09  7.38429E-09  8.07773E-09  8.39841E-09
   8.86277E-09  9.60555E-09  1.10579E-08  1.32560E-08  1.41779E-08  1.43213E-08  1.49177E-08  1.39079E-08  1.31444E-08  1.23817E-08
   1.14315E-08  1.10609E-08  1.00521E-08  8.79862E-09  7.84725E-09  8.05764E-09  8.37889E-09  8.34902E-09  1.00092E-08  1.16310E-08
   1.40984E-08  1.64067E-08  1.70177E-08  1.70636E-08  1.61399E-08  1.62453E-08  1.54086E-08  1.51151E-08  1.42877E-08  1.44704E-08
   1.43027E-08  1.29892E-08  1.32726E-08  1.27234E-08  1.22930E-08  1.12868E-08  1.15639E-08  1.04684E-08  9.91176E-09  9.83980E-09
   9.37921E-09  8.90855E-09  9.20485E-09  9.09198E-09  9.14019E-09  8.69716E-09  8.60530E-09  7.87529E-09  7.85011E-09  7.80236E-09
   7.04057E-09  6.51014E-09  6.14579E-09  6.28613E-09  6.72924E-09  6.66330E-09  6.74387E-09  7.36980E-09  7.61618E-09  7.24949E-09
   7.10788E-09  7.17422E-09  6.78956E-09  6.66495E-09  6.05817E-09  5.71335E-09  5.19481E-09  5.39208E-09  5.18475E-09  5.56081E-09
   5.14713E-09  5.76452E-09  5.79702E-09  5.50185E-09  6.03729E-09  6.00462E-09  6.20547E-09  5.65237E-09  6.27547E-09  6.64301E-09
   6.50342E-09  8.34537E-09  8.24312E-09  8.96943E-09  8.38209E-09  8.82647E-09  9.01791E-09  9.22920E-09  8.44024E-09  9.54788E-09
   8.91343E-09  8.44745E-09  8.20774E-09  8.29747E-09  7.54987E-09  7.34060E-09  7.67068E-09  7.34547E-09  7.04506E-09  6.66534E-09
   6.98927E-09  6.46619E-09  6.77657E-09  6.44244E-09  6.19423E-09  5.98956E-09  5.56933E-09  6.02658E-09  6.02026E-09  6.72114E-09
   8.08448E-09  1.14517E-08  1.44163E-08  1.59965E-08  1.61344E-08  1.58791E-08  1.45301E-08  1.43722E-08  1.21305E-08  1.04939E-08
   8.78332E-09  7.96874E-09  6.26520E-09  4.50971E-09  2.86071E-09  9.34949E-10 -1.56767E-09 -3.39576E-09 -5.72076E-09 -7.91857E-09
  -1.04746E-08 -1.16702E-08 -1.35520E-08 -1.49166E-08 -1.65372E-08 -1.68019E-08 -1.71690E-08 -1.75714E-08 -1.77286E-08 -1.64364E-08
  -1.59853E-08 -1.47949E-08 -1.31941E-08 -1.23347E-08 -1.04462E-08 -9.10395E-09 -8.51636E-09 -6.72742E-09 -5.81088E-09 -4.88134E-09
  -4.21196E-09 -3.36438E-09 -3.80287E-09 -3.22992E-09 -3.50907E-09 -3.75469E-09 -3.76540E-09 -3.66106E-09 -3.88397E-09 -3.44497E-09
  -3.41165E-09 -3.21718E-09 -3.16234E-09 -2.62304E-09 -3.02571E-09 -2.36475E-09 -3.02100E-09 -3.23520E-09 -3.11661E-09 -2.94925E-09
  -2.83989E-09 -3.07060E-09 -2.80064E-09 -2.04274E-09 -2.60424E-09 -2.34755E-09 -2.95205E-09 -2.45488E-09 -2.65814E-09 -2.48535E-09
  -3.01046E-09 -2.31586E-09 -2.99129E-09 -2.45971E-09 -2.60078E-09 -2.85511E-09 -2.83307E-09 -2.25189E-09 -2.15248E-09 -2.25221E-09
  -2.16107E-09 -1.76834E-09 -1.87359E-09 -2.22707E-09 -1.98862E-09 -1.54075E-09 -1.89052E-09 -2.19303E-09 -2.28240E-09 -1.70543E-09
  -2.41418E-09 -2.90648E-09 -2.64550E-09 -2.83726E-09 -2.96260E-09 -2.78507E-09 -2.90192E-09 -3.06503E-09 -2.81357E-09 -2.43881E-09
  -3.08997E-09 -1.77192E-09 -2.47622E-09 -1.60155E-09 -1.64307E-09 -1.02451E-09 -1.25016E-09 -3.83218E-10 -8.84158E-10 -7.38764E-10
  -1.17167E-09 -1.15238E-09 -1.61055E-09 -1.29239E-09 -1.24723E-09 -2.01280E-09 -2.06243E-09 -1.45278E-09 -1.64186E-09 -1.60851E-09
  -2.39698E-09 -2.55553E-09 -2.40743E-09 -2.14061E-09 -2.70487E-09 -2.49481E-09 -2.71939E-09 -2.45396E-09 -2.87994E-09 -2.57098E-09
  -3.08359E-09 -2.99155E-09 -2.85400E-09 -3.28332E-09 -2.68830E-09 -2.79334E-09 -3.45295E-09 -3.00428E-09 -2.97559E-09 -3.38874E-09
  -3.49091E-09 -3.26345E-09 -3.41966E-09 -3.77398E-09 -3.17112E-09 -3.63736E-09 -3.07384E-09 -3.12129E-09 -3.82041E-09 -3.30361E-09
  -3.69308E-09 -3.62626E-09 -2.90697E-09 -3.73783E-09 -3.81274E-09 -3.57687E-09 -3.65829E-09 -3.33406E-09 -3.73494E-09 -3.45017E-09
  -3.41645E-09 -3.67150E-09 -3.34933E-09 -3.31099E-09 -3.58177E-09 -3.57332E-09 -3.93655E-09 -3.18752E-09 -3.74499E-09 -3.77544E-09
  -3.21247E-09 -3.69804E-09 -3.68218E-09 -3.34789E-09 -3.53913E-09 -3.28734E-09 -3.42903E-09 -3.87474E-09 -3.76762E-09 -3.26275E-09
  -3.43430E-09 -3.30978E-09 -3.71655E-09 -3.57724E-09 -3.64747E-09 -3.61929E-09 -3.72535E-09 -3.43206E-09 -3.71737E-09 -2.77729E-09
  -3.23357E-09 -3.30196E-09 -3.58709E-09
 NY points of the fit to the data follow
   1.54470E-08  1.61842E-08  1.57809E-08  1.47817E-08  1.48228E-08  1.51818E-08  1.49803E-08  1.43454E-08  1.37166E-08  1.35266E-08
   1.35208E-08  1.32654E-08  1.34692E-08  1.39144E-08  1.45038E-08  1.47742E-08  1.47133E-08  1.50808E-08  1.53702E-08  1.46897E-08
   1.37154E-08  1.31459E-08  1.29375E-08  1.28063E-08  1.28054E-08  1.29750E-08  1.34318E-08  1.39626E-08  1.43216E-08  1.44015E-08
   1.48766E-08  1.53860E-08  1.58271E-08  1.57661E-08  1.50637E-08  1.39682E-08  1.33962E-08  1.31610E-08  1.31062E-08  1.31510E-08
   1.32282E-08  1.31735E-08  1.26621E-08  1.17152E-08  1.11793E-08  1.08333E-08  1.05465E-08  1.03081E-08  1.01122E-08  9.94858E-09
   9.79823E-09  9.65515E-09  9.51973E-09  9.37368E-09  9.25394E-09  9.29468E-09  9.41073E-09  9.61996E-09  1.00540E-08  1.05896E-08
   1.11070E-08  1.17136E-08  1.24028E-08  1.30707E-08  1.35664E-08  1.36877E-08  1.34956E-08  1.33585E-08  1.28181E-08  1.17653E-08
   1.11461E-08  1.08071E-08  1.03497E-08  1.00135E-08  9.88418E-09  9.96846E-09  1.02172E-08  1.07887E-08  1.15737E-08  1.24605E-08
   1.35088E-08  1.46414E-08  1.54705E-08  1.61583E-08  1.68811E-08  1.70780E-08  1.65572E-08  1.55634E-08  1.38996E-08  1.26561E-08
   1.19480E-08  1.14693E-08  1.11238E-08  1.08310E-08  1.05635E-08  1.03540E-08  1.01634E-08  9.97287E-09  9.81046E-09  9.66019E-09
   9.51915E-09  9.39408E-09  9.27833E-09  9.16874E-09  9.06697E-09  8.97215E-09  8.88283E-09  8.79809E-09  8.71708E-09  8.63924E-09
   8.56409E-09  8.49116E-09  8.42005E-09  8.35041E-09  8.28194E-09  8.21431E-09  8.14730E-09  8.08062E-09  8.01404E-09  7.94734E-09
   7.88030E-09  7.81275E-09  7.74447E-09  7.67531E-09  7.60505E-09  7.53357E-09  7.46065E-09  7.38618E-09  7.30997E-09  7.23187E-09
   7.15174E-09  7.06944E-09  6.98482E-09  6.89772E-09  6.80803E-09  6.71559E-09  6.62028E-09  6.52195E-09  6.42050E-09  6.31579E-09
   6.20767E-09  6.09603E-09  5.98078E-09  5.86177E-09  5.73887E-09  5.61201E-09  5.48106E-09  5.34592E-09  5.20650E-09  5.06275E-09
   4.91452E-09  4.76182E-09  4.60461E-09  4.44282E-09  4.27652E-09  4.10576E-09  3.93081E-09  3.75214E-09  3.57061E-09  3.38733E-09
   3.20389E-09  3.02268E-09  2.84774E-09  2.68652E-09  2.55507E-09  2.49685E-09  2.68664E-09  3.90008E-09  5.55843E-09  7.34980E-09
   9.55979E-09  1.21922E-08  1.47248E-08  1.66692E-08  1.79209E-08  1.83040E-08  1.68427E-08  1.21434E-08  5.04152E-09  1.52392E-09
   3.05432E-10 -3.67174E-10 -8.39703E-10 -1.21689E-09 -1.54064E-09 -1.83071E-09 -2.09764E-09 -2.34740E-09 -2.58355E-09 -2.80836E-09
  -3.02326E-09 -3.22913E-09 -3.42660E-09 -3.61596E-09 -3.79745E-09 -3.97113E-09 -4.13701E-09 -4.29500E-09 -4.44506E-09 -4.58699E-09
  -4.72067E-09 -4.84590E-09 -4.96250E-09 -5.07026E-09 -5.16897E-09 -5.25841E-09 -5.33833E-09 -5.40856E-09 -5.46895E-09 -5.51979E-09
  -5.56138E-09 -5.59403E-09 -5.61805E-09 -5.63377E-09 -5.64146E-09 -5.64145E-09 -5.63403E-09 -5.61951E-09 -5.59820E-09 -5.57039E-09
  -5.53637E-09 -5.49647E-09 -5.45096E-09 -5.40016E-09 -5.34435E-09 -5.28383E-09 -5.21888E-09 -5.14983E-09 -5.07696E-09 -5.00054E-09
  -4.92087E-09 -4.83825E-09 -4.75295E-09 -4.66528E-09 -4.57550E-09 -4.48391E-09 -4.39078E-09 -4.29639E-09 -4.20102E-09 -4.10495E-09
  -4.00843E-09 -3.91176E-09 -3.81519E-09 -3.71900E-09 -3.62344E-09 -3.52877E-09 -3.43528E-09 -3.34319E-09 -3.25276E-09 -3.16424E-09
  -3.07789E-09 -2.99395E-09 -2.91267E-09 -2.83425E-09 -2.75899E-09 -2.68705E-09 -2.61871E-09 -2.55417E-09 -2.49366E-09 -2.43740E-09
  -2.38544E-09 -2.33769E-09 -2.29403E-09 -2.25435E-09 -2.21854E-09 -2.18648E-09 -2.15806E-09 -2.13317E-09 -2.11169E-09 -2.09352E-09
  -2.07854E-09 -2.06664E-09 -2.05772E-09 -2.05165E-09 -2.04833E-09 -2.04766E-09 -2.04951E-09 -2.05380E-09 -2.06038E-09 -2.06920E-09
  -2.08010E-09 -2.09302E-09 -2.10782E-09 -2.12440E-09 -2.14268E-09 -2.16255E-09 -2.18389E-09 -2.20662E-09 -2.23063E-09 -2.25584E-09
  -2.28213E-09 -2.30940E-09 -2.33756E-09 -2.36654E-09 -2.39622E-09 -2.42652E-09 -2.45734E-09 -2.48859E-09 -2.52018E-09 -2.55205E-09
  -2.58409E-09 -2.61620E-09 -2.64833E-09 -2.68038E-09 -2.71226E-09 -2.74392E-09 -2.77527E-09 -2.80620E-09 -2.83670E-09 -2.86663E-09
  -2.89597E-09 -2.92465E-09 -2.95261E-09 -2.97987E-09 -3.00643E-09 -3.03230E-09 -3.05747E-09 -3.08194E-09 -3.10572E-09 -3.12881E-09
  -3.15121E-09 -3.17292E-09 -3.19394E-09 -3.21427E-09 -3.23391E-09 -3.25287E-09 -3.27114E-09 -3.28873E-09 -3.30563E-09 -3.32185E-09
  -3.33739E-09 -3.35225E-09 -3.36642E-09 -3.37992E-09 -3.39273E-09 -3.40487E-09 -3.41633E-09 -3.42711E-09 -3.43721E-09 -3.44664E-09
  -3.45539E-09 -3.46346E-09 -3.47086E-09 -3.47758E-09 -3.48363E-09 -3.48900E-09 -3.49370E-09 -3.49772E-09 -3.50106E-09 -3.50374E-09
  -3.50573E-09 -3.50706E-09 -3.50770E-09 -3.50768E-09 -3.50697E-09 -3.50559E-09 -3.50354E-09 -3.50081E-09 -3.49740E-09 -3.49332E-09
  -3.48856E-09 -3.48312E-09 -3.47700E-09
 NY background values follow
     6.991E-09    7.031E-09    7.070E-09    7.108E-09    7.144E-09    7.179E-09    7.213E-09    7.245E-09    7.276E-09    7.306E-09
     7.335E-09    7.363E-09    7.390E-09    7.415E-09    7.439E-09    7.462E-09    7.484E-09    7.505E-09    7.525E-09    7.544E-09
     7.562E-09    7.578E-09    7.594E-09    7.608E-09    7.622E-09    7.634E-09    7.646E-09    7.656E-09    7.666E-09    7.675E-09
     7.683E-09    7.690E-09    7.696E-09    7.701E-09    7.705E-09    7.709E-09    7.712E-09    7.714E-09    7.715E-09    7.716E-09
     7.716E-09    7.715E-09    7.714E-09    7.712E-09    7.709E-09    7.706E-09    7.702E-09    7.698E-09    7.693E-09    7.687E-09
     7.682E-09    7.675E-09    7.669E-09    7.662E-09    7.654E-09    7.646E-09    7.638E-09    7.630E-09    7.621E-09    7.611E-09
     7.602E-09    7.592E-09    7.582E-09    7.571E-09    7.560E-09    7.549E-09    7.538E-09    7.526E-09    7.514E-09    7.502E-09
     7.489E-09    7.476E-09    7.463E-09    7.450E-09    7.436E-09    7.423E-09    7.408E-09    7.394E-09    7.380E-09    7.365E-09
     7.350E-09    7.335E-09    7.320E-09    7.304E-09    7.288E-09    7.273E-09    7.256E-09    7.240E-09    7.224E-09    7.207E-09
     7.190E-09    7.173E-09    7.156E-09    7.139E-09    7.121E-09    7.104E-09    7.086E-09    7.068E-09    7.050E-09    7.032E-09
     7.013E-09    6.995E-09    6.976E-09    6.957E-09    6.938E-09    6.919E-09    6.900E-09    6.880E-09    6.860E-09    6.839E-09
     6.818E-09    6.796E-09    6.772E-09    6.748E-09    6.723E-09    6.697E-09    6.670E-09    6.641E-09    6.611E-09    6.579E-09
     6.545E-09    6.510E-09    6.473E-09    6.434E-09    6.393E-09    6.349E-09    6.304E-09    6.256E-09    6.205E-09    6.152E-09
     6.096E-09    6.037E-09    5.975E-09    5.910E-09    5.842E-09    5.771E-09    5.696E-09    5.618E-09    5.536E-09    5.450E-09
     5.360E-09    5.267E-09    5.169E-09    5.068E-09    4.962E-09    4.851E-09    4.736E-09    4.617E-09    4.493E-09    4.364E-09
     4.229E-09    4.090E-09    3.946E-09    3.797E-09    3.642E-09    3.481E-09    3.315E-09    3.144E-09    2.968E-09    2.786E-09
     2.601E-09    2.411E-09    2.217E-09    2.020E-09    1.819E-09    1.615E-09    1.408E-09    1.199E-09    9.883E-10    7.753E-10
     5.608E-10    3.450E-10    1.283E-10   -8.898E-11   -3.066E-10   -5.243E-10   -7.416E-10   -9.584E-10   -1.174E-09   -1.389E-09
    -1.602E-09   -1.814E-09   -2.023E-09   -2.230E-09   -2.434E-09   -2.635E-09   -2.832E-09   -3.027E-09   -3.217E-09   -3.403E-09
    -3.584E-09   -3.760E-09   -3.932E-09   -4.098E-09   -4.258E-09   -4.412E-09   -4.560E-09   -4.702E-09   -4.836E-09   -4.963E-09
    -5.083E-09   -5.196E-09   -5.300E-09   -5.396E-09   -5.483E-09   -5.561E-09   -5.631E-09   -5.691E-09   -5.741E-09   -5.783E-09
    -5.815E-09   -5.839E-09   -5.854E-09   -5.861E-09   -5.861E-09   -5.853E-09   -5.837E-09   -5.815E-09   -5.786E-09   -5.751E-09
    -5.710E-09   -5.663E-09   -5.610E-09   -5.553E-09   -5.490E-09   -5.423E-09   -5.352E-09   -5.276E-09   -5.197E-09   -5.114E-09
    -5.029E-09   -4.940E-09   -4.849E-09   -4.755E-09   -4.660E-09   -4.562E-09   -4.464E-09   -4.364E-09   -4.263E-09   -4.161E-09
    -4.060E-09   -3.958E-09   -3.856E-09   -3.754E-09   -3.654E-09   -3.554E-09   -3.456E-09   -3.359E-09   -3.263E-09   -3.170E-09
    -3.079E-09   -2.990E-09   -2.904E-09   -2.821E-09   -2.742E-09   -2.665E-09   -2.592E-09   -2.523E-09   -2.459E-09   -2.398E-09
    -2.342E-09   -2.290E-09   -2.242E-09   -2.198E-09   -2.158E-09   -2.122E-09   -2.090E-09   -2.061E-09   -2.035E-09   -2.013E-09
    -1.994E-09   -1.979E-09   -1.966E-09   -1.956E-09   -1.949E-09   -1.944E-09   -1.943E-09   -1.943E-09   -1.946E-09   -1.951E-09
    -1.959E-09   -1.968E-09   -1.979E-09   -1.993E-09   -2.007E-09   -2.024E-09   -2.042E-09   -2.061E-09   -2.082E-09   -2.104E-09
    -2.127E-09   -2.151E-09   -2.176E-09   -2.202E-09   -2.228E-09   -2.255E-09   -2.283E-09   -2.311E-09   -2.340E-09   -2.368E-09
    -2.398E-09   -2.427E-09   -2.456E-09   -2.485E-09   -2.514E-09   -2.543E-09   -2.571E-09   -2.599E-09   -2.627E-09   -2.654E-09
    -2.680E-09   -2.706E-09   -2.732E-09   -2.756E-09   -2.780E-09   -2.803E-09   -2.826E-09   -2.848E-09   -2.869E-09   -2.889E-09
    -2.909E-09   -2.928E-09   -2.947E-09   -2.964E-09   -2.982E-09   -2.998E-09   -3.014E-09   -3.029E-09   -3.043E-09   -3.057E-09
    -3.070E-09   -3.083E-09   -3.095E-09   -3.106E-09   -3.116E-09   -3.126E-09   -3.135E-09   -3.144E-09   -3.152E-09   -3.159E-09
    -3.165E-09   -3.171E-09   -3.177E-09   -3.181E-09   -3.185E-09   -3.188E-09   -3.191E-09   -3.193E-09   -3.194E-09   -3.195E-09
    -3.194E-09   -3.194E-09   -3.192E-09   -3.190E-09   -3.188E-09   -3.184E-09   -3.180E-09   -3.176E-09   -3.170E-09   -3.164E-09
    -3.158E-09   -3.150E-09   -3.142E-09
 Cr       Conc. = 2.99E-10
   7.89184E-09  8.20708E-09  8.28987E-09  7.97836E-09  7.72938E-09  7.60962E-09  7.54412E-09  7.50592E-09  7.48325E-09  7.47008E-09
   7.46298E-09  7.45979E-09  7.45908E-09  7.45987E-09  7.46144E-09  7.46322E-09  7.46481E-09  7.46576E-09  7.46580E-09  7.46457E-09
   7.46176E-09  7.45703E-09  7.44996E-09  7.44008E-09  7.42680E-09  7.40932E-09  7.38655E-09  7.35692E-09  7.31809E-09  7.26645E-09
   7.19769E-09  7.13746E-09  7.20916E-09  7.32757E-09  7.48708E-09  7.73832E-09  8.09593E-09  8.50776E-09  8.92541E-09  9.34644E-09
   9.74762E-09  9.95932E-09  9.69018E-09  8.99435E-09  8.66722E-09  8.48345E-09  8.36216E-09  8.27412E-09  8.20608E-09  8.15107E-09
   8.10496E-09  8.06531E-09  8.03041E-09  7.99914E-09  7.97069E-09  7.94441E-09  7.91988E-09  7.89672E-09  7.87469E-09  7.85355E-09
   7.83315E-09  7.81335E-09  7.79402E-09  7.77509E-09  7.75649E-09  7.73812E-09  7.71995E-09  7.70194E-09  7.68404E-09  7.66624E-09
   7.64848E-09  7.63076E-09  7.61306E-09  7.59534E-09  7.57762E-09  7.55985E-09  7.54206E-09  7.52422E-09  7.50629E-09  7.48832E-09
   7.47027E-09  7.45216E-09  7.43393E-09  7.41565E-09  7.39729E-09  7.37882E-09  7.36028E-09  7.34161E-09  7.32287E-09  7.30404E-09
   7.28509E-09  7.26608E-09  7.24692E-09  7.22770E-09  7.20839E-09  7.18895E-09  7.16940E-09  7.14976E-09  7.13004E-09  7.11021E-09
   7.09032E-09  7.07027E-09  7.05013E-09  7.02993E-09  7.00956E-09  6.98907E-09  6.96835E-09  6.94728E-09  6.92578E-09  6.90375E-09
   6.88109E-09  6.85771E-09  6.83351E-09  6.80838E-09  6.78224E-09  6.75495E-09  6.72645E-09  6.69662E-09  6.66534E-09  6.63254E-09
   6.59807E-09  6.56187E-09  6.52380E-09  6.48377E-09  6.44167E-09  6.39739E-09  6.35081E-09  6.30185E-09  6.25037E-09  6.19628E-09
   6.13945E-09  6.07979E-09  6.01719E-09  5.95151E-09  5.88267E-09  5.81054E-09  5.73502E-09  5.65600E-09  5.57336E-09  5.48701E-09
   5.39680E-09  5.30263E-09  5.20443E-09  5.10205E-09  4.99537E-09  4.88431E-09  4.76874E-09  4.64856E-09  4.52365E-09  4.39394E-09
   4.25926E-09  4.11955E-09  3.97472E-09  3.82460E-09  3.66914E-09  3.50820E-09  3.34181E-09  3.17007E-09  2.99333E-09  2.81190E-09
   2.62612E-09  2.43636E-09  2.24308E-09  2.04687E-09  1.84881E-09  1.65152E-09  1.46640E-09  1.32565E-09  1.18892E-09  1.05728E-09
   9.44282E-10  8.43948E-10  7.31724E-10  5.92361E-10  4.25551E-10  2.19200E-10 -7.56407E-11 -5.07761E-10 -9.94758E-10 -1.28528E-09
  -1.52704E-09 -1.75319E-09 -1.97149E-09 -2.18443E-09 -2.39301E-09 -2.59746E-09 -2.79788E-09 -2.99421E-09 -3.18622E-09 -3.37372E-09
  -3.55650E-09 -3.73426E-09 -3.90678E-09 -4.07374E-09 -4.23492E-09 -4.39001E-09 -4.53874E-09 -4.68081E-09 -4.81599E-09 -4.94394E-09
  -5.06442E-09 -5.17715E-09 -5.28185E-09 -5.37825E-09 -5.46608E-09 -5.54508E-09 -5.61495E-09 -5.67548E-09 -5.72650E-09 -5.76826E-09
  -5.80105E-09 -5.82515E-09 -5.84086E-09 -5.84846E-09 -5.84826E-09 -5.84054E-09 -5.82559E-09 -5.80370E-09 -5.77518E-09 -5.74031E-09
  -5.69937E-09 -5.65268E-09 -5.60052E-09 -5.54317E-09 -5.48093E-09 -5.41410E-09 -5.34295E-09 -5.26778E-09 -5.18890E-09 -5.10656E-09
  -5.02106E-09 -4.93270E-09 -4.84174E-09 -4.74849E-09 -4.65321E-09 -4.55619E-09 -4.45771E-09 -4.35803E-09 -4.25744E-09 -4.15622E-09
  -4.05462E-09 -3.95292E-09 -3.85139E-09 -3.75030E-09 -3.64989E-09 -3.55044E-09 -3.45221E-09 -3.35544E-09 -3.26038E-09 -3.16729E-09
  -3.07641E-09 -2.98800E-09 -2.90229E-09 -2.81949E-09 -2.73989E-09 -2.66366E-09 -2.59107E-09 -2.52233E-09 -2.45766E-09 -2.39728E-09
  -2.34124E-09 -2.28945E-09 -2.24180E-09 -2.19815E-09 -2.15842E-09 -2.12247E-09 -2.09020E-09 -2.06150E-09 -2.03624E-09 -2.01433E-09
  -1.99564E-09 -1.98007E-09 -1.96751E-09 -1.95783E-09 -1.95093E-09 -1.94671E-09 -1.94505E-09 -1.94586E-09 -1.94899E-09 -1.95438E-09
  -1.96190E-09 -1.97145E-09 -1.98291E-09 -1.99619E-09 -2.01120E-09 -2.02782E-09 -2.04593E-09 -2.06546E-09 -2.08631E-09 -2.10837E-09
  -2.13154E-09 -2.15572E-09 -2.18081E-09 -2.20676E-09 -2.23341E-09 -2.26072E-09 -2.28857E-09 -2.31688E-09 -2.34555E-09 -2.37452E-09
  -2.40369E-09 -2.43294E-09 -2.46225E-09 -2.49148E-09 -2.52058E-09 -2.54948E-09 -2.57809E-09 -2.60630E-09 -2.63410E-09 -2.66136E-09
  -2.68804E-09 -2.71409E-09 -2.73943E-09 -2.76409E-09 -2.78808E-09 -2.81139E-09 -2.83402E-09 -2.85598E-09 -2.87726E-09 -2.89787E-09
  -2.91781E-09 -2.93708E-09 -2.95568E-09 -2.97361E-09 -2.99086E-09 -3.00745E-09 -3.02338E-09 -3.03863E-09 -3.05322E-09 -3.06715E-09
  -3.08041E-09 -3.09300E-09 -3.10493E-09 -3.11620E-09 -3.12680E-09 -3.13675E-09 -3.14603E-09 -3.15465E-09 -3.16261E-09 -3.16990E-09
  -3.17654E-09 -3.18252E-09 -3.18784E-09 -3.19249E-09 -3.19649E-09 -3.19983E-09 -3.20251E-09 -3.20453E-09 -3.20589E-09 -3.20659E-09
  -3.20663E-09 -3.20600E-09 -3.20473E-09 -3.20279E-09 -3.20019E-09 -3.19692E-09 -3.19300E-09 -3.18842E-09 -3.18317E-09 -3.17726E-09
  -3.17069E-09 -3.16345E-09 -3.15555E-09
 GABA     Conc. = 1.11E-10
   6.94750E-09  6.98677E-09  7.02475E-09  7.06144E-09  7.09684E-09  7.13097E-09  7.16383E-09  7.19541E-09  7.22573E-09  7.25478E-09
   7.28258E-09  7.30914E-09  7.33443E-09  7.35849E-09  7.38130E-09  7.40288E-09  7.42323E-09  7.44231E-09  7.46019E-09  7.47678E-09
   7.49213E-09  7.50620E-09  7.51896E-09  7.53039E-09  7.54049E-09  7.54919E-09  7.55650E-09  7.56254E-09  7.56796E-09  7.57750E-09
   7.58854E-09  7.59758E-09  7.61775E-09  7.64853E-09  7.67969E-09  7.71701E-09  7.76417E-09  7.81533E-09  7.85981E-09  7.88797E-09
   7.90139E-09  7.92635E-09  7.93485E-09  7.89209E-09  7.86335E-09  7.85259E-09  7.81806E-09  7.78326E-09  7.75771E-09  7.73720E-09
   7.71953E-09  7.70360E-09  7.68873E-09  7.67456E-09  7.66080E-09  7.64720E-09  7.63363E-09  7.62001E-09  7.60631E-09  7.59269E-09
   7.57964E-09  7.56952E-09  7.56681E-09  7.56375E-09  7.56511E-09  7.58227E-09  7.60327E-09  7.62393E-09  7.65061E-09  7.68077E-09
   7.70463E-09  7.71025E-09  7.69266E-09  7.66792E-09  7.65739E-09  7.60785E-09  7.53726E-09  7.50918E-09  7.47946E-09  7.43757E-09
   7.40809E-09  7.38221E-09  7.35929E-09  7.34706E-09  7.33732E-09  7.32689E-09  7.32396E-09  7.32675E-09  7.33200E-09  7.33726E-09
   7.33432E-09  7.33187E-09  7.34007E-09  7.32461E-09  7.28908E-09  7.27812E-09  7.25599E-09  7.21118E-09  7.18013E-09  7.15203E-09
   7.11886E-09  7.08846E-09  7.06055E-09  7.03437E-09  7.00929E-09  6.98499E-09  6.96114E-09  6.93749E-09  6.91385E-09  6.89004E-09
   6.86589E-09  6.84125E-09  6.81596E-09  6.78991E-09  6.76299E-09  6.73505E-09  6.70601E-09  6.67573E-09  6.64408E-09  6.61096E-09
   6.57625E-09  6.53985E-09  6.50163E-09  6.46150E-09  6.41933E-09  6.37502E-09  6.32844E-09  6.27950E-09  6.22806E-09  6.17403E-09
   6.11729E-09  6.05773E-09  5.99525E-09  5.92970E-09  5.86101E-09  5.78904E-09  5.71369E-09  5.63484E-09  5.55239E-09  5.46623E-09
   5.37622E-09  5.28227E-09  5.18427E-09  5.08212E-09  4.97566E-09  4.86482E-09  4.74949E-09  4.62954E-09  4.50487E-09  4.37540E-09
   4.24096E-09  4.10148E-09  3.95688E-09  3.80699E-09  3.65175E-09  3.49101E-09  3.32481E-09  3.15323E-09  2.97662E-09  2.79524E-09
   2.60944E-09  2.41950E-09  2.22580E-09  2.02873E-09  1.82887E-09  1.62739E-09  1.42868E-09  1.24489E-09  1.06121E-09  8.78266E-10
   7.01258E-10  5.28168E-10  3.50085E-10  1.61563E-10 -3.73051E-11 -2.50804E-10 -4.96885E-10 -7.93461E-10 -1.10977E-09 -1.35244E-09
  -1.57619E-09 -1.79304E-09 -2.00565E-09 -2.21475E-09 -2.42054E-09 -2.62286E-09 -2.82160E-09 -3.01656E-09 -3.20741E-09 -3.39393E-09
  -3.57585E-09 -3.75285E-09 -3.92471E-09 -4.09105E-09 -4.25168E-09 -4.40626E-09 -4.55451E-09 -4.69614E-09 -4.83090E-09 -4.95847E-09
  -5.07858E-09 -5.19096E-09 -5.29532E-09 -5.39140E-09 -5.47892E-09 -5.55762E-09 -5.62720E-09 -5.68745E-09 -5.73820E-09 -5.77970E-09
  -5.81223E-09 -5.83608E-09 -5.85155E-09 -5.85892E-09 -5.85848E-09 -5.85053E-09 -5.83536E-09 -5.81326E-09 -5.78452E-09 -5.74944E-09
  -5.70830E-09 -5.66140E-09 -5.60904E-09 -5.55149E-09 -5.48906E-09 -5.42204E-09 -5.35070E-09 -5.27535E-09 -5.19628E-09 -5.11376E-09
  -5.02808E-09 -4.93955E-09 -4.84841E-09 -4.75499E-09 -4.65953E-09 -4.56234E-09 -4.46370E-09 -4.36385E-09 -4.26310E-09 -4.16172E-09
