 LCModel (Version 6.3-1R) Copyright: S.W. Provencher.          Ref.: Magn. Reson. Med. 30:672-679 (1993).                
 onepulse 21x9_ftSpec_smooth_lcm
 26 lines in following concentration table = NCONC+1
    Conc.  %SD   /Cr    Metabolite                                         
 3.99E-10  62%   0.000 Ala                                                 
 4.15E-10 151%   0.000 Asp                                                 
    0.000 999%   0.000 Cr                                                  
 8.88E-10  44%   0.000 GABA                                                
    0.000 999%   0.000 Glc                                                 
 6.57E-10  85%   0.000 Gln                                                 
    0.000 999%   0.000 Glu                                                 
    0.000 999%   0.000 Glyc                                                
    0.000 999%   0.000 GPC                                                 
 1.28E-09  33%   0.000 GSH                                                 
 1.67E-09  20%   0.000 Ins                                                 
    0.000 999%   0.000 Lac                                                 
 6.94E-10  40%   0.000 NAAG                                                
 1.76E-10 211%   0.000 NAA                                                 
 1.53E-10  64%   0.000 PCh                                                 
    0.000 999%   0.000 PCr                                                 
    0.000 999%   0.000 PE                                                  
 7.71E-13 999%   0.000 Scyllo                                              
 2.99E-09  15%   0.000 Ser                                                 
 2.44E-09  26%   0.000 Tau                                                 
 1.53E-10  64%   0.000 GPC+PCh                                             
 8.70E-10  28%   0.000 NAA+NAAG                                            
 1.67E-09  20%   0.000 Ins+Glyc                                            
    0.000 999%   0.000 Cr+PCr                                              
 6.57E-10  85%   0.000 Glu+Gln                                             
   6 lines in following misc. output table
  FWHM = 0.123 ppm    S/N =   4                                            
  Data shift = 0.470 ppm                                                   
  Ph:  53 deg     -29.6 deg/ppm                                            
  alphaB,S = 5.9E-01,   5.6E+00                                            
   10 spline knots.   Ns = 5(1)                                            
  (11) 8 infls.   (11) 7 extrs.                                            
  363 points on ppm-axis = NY
      4.250000     4.238821     4.227641     4.216462     4.205282     4.194103     4.182923     4.171744     4.160564     4.149385
      4.138206     4.127026     4.115847     4.104667     4.093488     4.082308     4.071129     4.059949     4.048770     4.037591
      4.026411     4.015232     4.004052     3.992873     3.981693     3.970514     3.959334     3.948155     3.936975     3.925796
      3.914617     3.903437     3.892258     3.881078     3.869899     3.858719     3.847540     3.836360     3.825181     3.814002
      3.802822     3.791643     3.780463     3.769284     3.758104     3.746925     3.735745     3.724566     3.713387     3.702207
      3.691028     3.679848     3.668669     3.657489     3.646310     3.635130     3.623951     3.612772     3.601592     3.590413
      3.579233     3.568054     3.556874     3.545695     3.534515     3.523336     3.512156     3.500977     3.489798     3.478618
      3.467439     3.456259     3.445080     3.433900     3.422721     3.411541     3.400362     3.389183     3.378003     3.366824
      3.355644     3.344465     3.333285     3.322106     3.310926     3.299747     3.288568     3.277388     3.266209     3.255029
      3.243850     3.232670     3.221491     3.210311     3.199132     3.187953     3.176773     3.165594     3.154414     3.143235
      3.132055     3.120876     3.109696     3.098517     3.087337     3.076158     3.064979     3.053799     3.042620     3.031440
      3.020261     3.009081     2.997902     2.986722     2.975543     2.964364     2.953184     2.942005     2.930825     2.919646
      2.908466     2.897287     2.886107     2.874928     2.863749     2.852569     2.841390     2.830210     2.819031     2.807851
      2.796672     2.785492     2.774313     2.763134     2.751954     2.740775     2.729595     2.718416     2.707236     2.696057
      2.684877     2.673698     2.662519     2.651339     2.640160     2.628980     2.617801     2.606621     2.595442     2.584262
      2.573083     2.561903     2.550724     2.539545     2.528365     2.517186     2.506006     2.494827     2.483647     2.472468
      2.461288     2.450109     2.438930     2.427750     2.416571     2.405391     2.394212     2.383032     2.371853     2.360673
      2.349494     2.338315     2.327135     2.315956     2.304776     2.293597     2.282417     2.271238     2.260058     2.248879
      2.237700     2.226520     2.215341     2.204161     2.192982     2.181802     2.170623     2.159443     2.148264     2.137084
      2.125905     2.114726     2.103546     2.092367     2.081187     2.070008     2.058828     2.047649     2.036469     2.025290
      2.014111     2.002931     1.991752     1.980572     1.969393     1.958213     1.947034     1.935854     1.924675     1.913496
      1.902316     1.891137     1.879957     1.868778     1.857598     1.846419     1.835239     1.824060     1.812881     1.801701
      1.790522     1.779342     1.768163     1.756983     1.745804     1.734624     1.723445     1.712265     1.701086     1.689907
      1.678727     1.667548     1.656368     1.645189     1.634009     1.622830     1.611650     1.600471     1.589292     1.578112
      1.566933     1.555753     1.544574     1.533394     1.522215     1.511035     1.499856     1.488677     1.477497     1.466318
      1.455138     1.443959     1.432779     1.421600     1.410420     1.399241     1.388062     1.376882     1.365703     1.354523
      1.343344     1.332164     1.320985     1.309805     1.298626     1.287446     1.276267     1.265088     1.253908     1.242729
      1.231549     1.220370     1.209190     1.198011     1.186831     1.175652     1.164473     1.153293     1.142114     1.130934
      1.119755     1.108575     1.097396     1.086216     1.075037     1.063858     1.052678     1.041499     1.030319     1.019140
      1.007960     0.996781     0.985601     0.974422     0.963243     0.952063     0.940884     0.929704     0.918525     0.907345
      0.896166     0.884986     0.873807     0.862628     0.851448     0.840269     0.829089     0.817910     0.806730     0.795551
      0.784371     0.773192     0.762012     0.750833     0.739654     0.728474     0.717295     0.706115     0.694936     0.683756
      0.672577     0.661397     0.650218     0.639039     0.627859     0.616680     0.605500     0.594321     0.583141     0.571962
      0.560782     0.549603     0.538424     0.527244     0.516065     0.504885     0.493706     0.482526     0.471347     0.460167
      0.448988     0.437809     0.426629     0.415450     0.404270     0.393091     0.381911     0.370732     0.359552     0.348373
      0.337193     0.326014     0.314835     0.303655     0.292476     0.281296     0.270117     0.258937     0.247758     0.236578
      0.225399     0.214220     0.203040
 NY phased data points follow
   8.36131E-10 -2.54963E-10  1.17755E-09  7.55089E-11  1.77055E-09  1.25350E-09  3.53540E-09  1.69751E-09  3.26451E-09  2.18196E-09
   2.70933E-09  1.70141E-09  3.42413E-09  2.53392E-09  3.05955E-09  2.05065E-09  3.51495E-09  2.14667E-09  3.29050E-09  1.38313E-09
   3.18530E-09  2.76920E-09  4.68468E-09  4.85094E-09  6.37134E-09  5.96770E-09  7.42218E-09  6.55685E-09  6.59738E-09  5.86522E-09
   6.16947E-09  5.89234E-09  6.42463E-09  5.78012E-09  6.53969E-09  5.15272E-09  5.67369E-09  4.21812E-09  5.13241E-09  3.97469E-09
   4.64567E-09  3.95763E-09  3.84391E-09  2.85063E-09  3.81511E-09  2.73308E-09  1.52682E-09  3.33527E-10  5.76007E-10 -6.24397E-10
  -6.67268E-10 -1.31783E-09  5.35909E-10  1.89773E-09  3.59914E-09  4.82943E-09  6.51760E-09  5.92133E-09  6.77624E-09  5.62851E-09
   5.89231E-09  5.28432E-09  4.98531E-09  3.00106E-09  2.00457E-09  1.11774E-09  4.45972E-11 -1.45463E-09 -7.63324E-10 -6.00299E-10
   2.45023E-09  4.08450E-09  6.51196E-09  6.92376E-09  7.93841E-09  8.17140E-09  8.73379E-09  8.34747E-09  8.77127E-09  9.45614E-09
   9.52905E-09  9.11786E-09  9.58766E-09  9.66236E-09  9.75099E-09  9.15065E-09  9.94202E-09  8.60976E-09  9.15884E-09  8.47998E-09
   8.36632E-09  7.72947E-09  8.42603E-09  8.10060E-09  8.67795E-09  7.99536E-09  8.58045E-09  7.31004E-09  8.50739E-09  7.35575E-09
   7.58737E-09  6.25607E-09  5.99279E-09  5.51379E-09  6.26633E-09  5.26276E-09  5.80907E-09  6.06537E-09  6.71879E-09  5.99474E-09
   6.69622E-09  6.44865E-09  7.07003E-09  6.18643E-09  6.58957E-09  5.66600E-09  5.54688E-09  4.62198E-09  5.02961E-09  4.50683E-09
   4.36999E-09  4.61219E-09  4.36239E-09  4.16833E-09  4.30106E-09  3.92407E-09  3.91138E-09  2.85148E-09  3.84753E-09  2.44024E-09
   3.84933E-09  3.61891E-09  4.97260E-09  4.86205E-09  5.15705E-09  5.26420E-09  6.35962E-09  5.58967E-09  6.60985E-09  7.38037E-09
   7.09429E-09  6.96172E-09  7.40869E-09  7.37423E-09  6.90798E-09  6.78014E-09  7.23373E-09  7.06295E-09  6.68164E-09  6.63332E-09
   6.62890E-09  6.01556E-09  6.56914E-09  5.81433E-09  6.04292E-09  5.20737E-09  4.62187E-09  3.52265E-09  3.33661E-09  2.14372E-09
   3.00044E-09  5.54425E-09  9.53659E-09  1.18480E-08  1.48432E-08  1.57142E-08  1.76743E-08  1.87309E-08  1.91872E-08  1.90663E-08
   1.96251E-08  2.03373E-08  2.05481E-08  2.06003E-08  2.09534E-08  2.03627E-08  2.01850E-08  1.93813E-08  1.88291E-08  1.71385E-08
   1.61895E-08  1.46477E-08  1.31677E-08  1.07359E-08  8.84503E-09  6.98663E-09  5.25749E-09  2.73492E-09  1.00405E-09 -5.38911E-10
  -2.53983E-09 -3.23645E-09 -4.29416E-09 -5.35476E-09 -5.07984E-09 -5.75824E-09 -5.56976E-09 -5.02308E-09 -4.61582E-09 -4.25735E-09
  -3.05926E-09 -2.83553E-09 -2.02611E-09 -1.30023E-09 -1.30978E-09 -1.43990E-09 -1.04807E-09 -1.65671E-09 -1.14241E-09 -1.48278E-09
  -1.46737E-09 -1.83024E-09 -1.09310E-09 -1.44998E-09 -7.38633E-10 -4.14147E-10 -7.21146E-10 -9.12964E-10 -1.13005E-09 -1.03671E-09
  -1.02979E-09 -1.84433E-09 -7.96160E-10 -1.07296E-09 -6.79834E-10 -9.33171E-10 -7.46597E-10 -8.37910E-10 -7.66233E-10 -1.18848E-09
  -9.57284E-10 -1.03191E-09 -1.25451E-09 -9.45248E-10 -1.43358E-09 -1.45375E-09 -1.78070E-09 -1.28745E-09 -1.33824E-09 -1.14317E-09
  -1.29365E-09 -1.03425E-09 -1.03365E-09 -1.37828E-09 -8.52469E-10 -6.45119E-10 -6.46105E-10 -1.03406E-09 -5.94926E-10 -1.60413E-10
  -5.61049E-10 -1.25800E-09 -9.92231E-10 -1.58015E-09 -1.41303E-09 -1.79871E-09 -1.81853E-09 -2.41092E-09 -1.76673E-09 -2.82621E-09
  -2.30514E-09 -2.53219E-09 -2.43125E-09 -2.43044E-09 -1.82753E-09 -2.01737E-09 -1.32170E-09 -8.50068E-10 -8.88059E-10 -6.47179E-10
  -5.88927E-10 -5.05453E-10 -9.60849E-10 -3.15215E-10 -4.66426E-10 -1.00570E-09 -7.03490E-10 -5.72350E-10 -2.66553E-10 -3.60327E-10
  -8.76532E-10 -1.10945E-09 -6.50256E-10 -1.09671E-09 -9.38333E-10 -1.06616E-09 -9.84532E-10 -1.11669E-09 -1.18023E-09 -1.17510E-09
  -1.85007E-09 -1.23478E-09 -1.84869E-09 -1.60100E-09 -1.31745E-09 -1.75748E-09 -1.96495E-09 -1.64616E-09 -1.88348E-09 -2.03422E-09
  -2.21239E-09 -1.73041E-09 -2.52751E-09 -2.29405E-09 -2.28665E-09 -2.71623E-09 -1.77561E-09 -2.71631E-09 -2.73762E-09 -2.50329E-09
  -3.07883E-09 -2.52325E-09 -2.22790E-09 -3.02578E-09 -3.02617E-09 -2.96666E-09 -3.02237E-09 -3.09622E-09 -3.07787E-09 -3.13337E-09
  -3.30204E-09 -3.61070E-09 -2.94073E-09 -3.07841E-09 -3.16068E-09 -3.73022E-09 -3.49330E-09 -3.17343E-09 -4.13310E-09 -3.39736E-09
  -3.39978E-09 -4.02701E-09 -3.68417E-09 -3.75758E-09 -3.78142E-09 -3.61681E-09 -3.79444E-09 -4.22401E-09 -3.85465E-09 -4.05120E-09
  -3.73300E-09 -4.14753E-09 -3.94400E-09 -4.19723E-09 -4.15029E-09 -4.45532E-09 -4.23919E-09 -4.93954E-09 -4.35625E-09 -3.94664E-09
  -4.05173E-09 -4.35168E-09 -4.67503E-09 -4.84819E-09 -4.40353E-09 -4.68976E-09 -4.43400E-09 -4.76836E-09 -4.64912E-09 -4.39864E-09
  -4.74911E-09 -4.62609E-09 -4.83678E-09
 NY points of the fit to the data follow
   1.21052E-09  1.70981E-09  3.03229E-09  1.17414E-09  1.28041E-09  1.39374E-09  1.54381E-09  1.97346E-09  4.48331E-09  4.08467E-09
   1.28373E-09  1.25128E-09  6.22623E-10  1.13494E-09  3.29859E-09  2.83717E-09  2.97700E-09  3.54167E-09  4.01069E-09  3.30729E-09
   3.05489E-09  3.89540E-09  4.44492E-09  5.03237E-09  7.01034E-09  6.39164E-09  6.44878E-09  5.47626E-09  5.44185E-09  6.29616E-09
   6.57872E-09  6.52055E-09  6.81930E-09  6.18676E-09  7.19866E-09  5.12787E-09  4.84718E-09  4.41021E-09  4.01932E-09  4.12059E-09
   3.86497E-09  3.56244E-09  4.08940E-09  4.18562E-09  3.96009E-09  2.98228E-09  3.20279E-09  2.28712E-09  1.70835E-09  1.47399E-09
   1.69551E-09  1.71395E-09  1.44739E-09  2.16242E-09  2.61459E-09  2.49265E-09  2.69321E-09  3.34145E-09  3.60389E-09  3.35451E-09
   3.87005E-09  3.94850E-09  3.68784E-09  3.84250E-09  3.99029E-09  4.02667E-09  3.86153E-09  3.80328E-09  3.73387E-09  3.95581E-09
   4.27149E-09  4.65298E-09  5.62373E-09  4.92405E-09  5.32286E-09  7.23998E-09  9.10679E-09  9.14426E-09  9.39666E-09  1.01178E-08
   1.02992E-08  1.00943E-08  1.05561E-08  1.04839E-08  9.95565E-09  1.02523E-08  1.11934E-08  9.21726E-09  7.74189E-09  7.21952E-09
   6.92390E-09  6.32442E-09  6.22655E-09  6.50628E-09  5.89479E-09  5.68146E-09  5.88821E-09  5.53355E-09  5.41644E-09  5.57287E-09
   6.06492E-09  5.58881E-09  5.53877E-09  6.30998E-09  6.25360E-09  6.18458E-09  6.27511E-09  6.40029E-09  6.34362E-09  6.44919E-09
   6.83186E-09  5.99037E-09  5.90868E-09  6.39051E-09  5.82846E-09  5.59516E-09  5.49075E-09  5.43609E-09  5.40584E-09  5.38942E-09
   5.38148E-09  5.37906E-09  5.38032E-09  5.38401E-09  5.38921E-09  5.39530E-09  5.40183E-09  5.40832E-09  5.41450E-09  5.42012E-09
   5.42492E-09  5.42871E-09  5.43134E-09  5.43267E-09  5.43255E-09  5.43086E-09  5.42750E-09  5.42237E-09  5.41537E-09  5.40642E-09
   5.39547E-09  5.38244E-09  5.36728E-09  5.34993E-09  5.33036E-09  5.30853E-09  5.28444E-09  5.25806E-09  5.22945E-09  5.19861E-09
   5.16565E-09  5.13068E-09  5.09386E-09  5.05550E-09  5.01598E-09  4.97591E-09  4.93615E-09  4.89819E-09  4.86433E-09  4.83825E-09
   4.82629E-09  4.84017E-09  4.90395E-09  5.07428E-09  5.51556E-09  6.89353E-09  1.32252E-08  2.02288E-08  2.04773E-08  1.88903E-08
   1.95780E-08  2.04271E-08  2.06833E-08  2.10476E-08  2.09200E-08  1.99602E-08  2.17391E-08  2.06533E-08  1.30049E-08  6.90376E-09
   5.06382E-09  4.29179E-09  3.84179E-09  3.52804E-09  3.28424E-09  3.08106E-09  2.90355E-09  2.74332E-09  2.59536E-09  2.45649E-09
   2.32459E-09  2.19826E-09  2.07646E-09  1.95854E-09  1.84397E-09  1.73240E-09  1.62356E-09  1.51730E-09  1.41348E-09  1.31203E-09
   1.21289E-09  1.11605E-09  1.02151E-09  9.29292E-10  8.39417E-10  7.51931E-10  6.66897E-10  5.84341E-10  5.04324E-10  4.26757E-10
   3.51588E-10  2.78735E-10  2.08144E-10  1.39739E-10  7.34678E-11  9.26534E-12 -5.29183E-11 -1.13143E-10 -1.71467E-10 -2.27946E-10
  -2.82613E-10 -3.35541E-10 -3.86773E-10 -4.36360E-10 -4.84352E-10 -5.30797E-10 -5.75732E-10 -6.19230E-10 -6.61332E-10 -7.02065E-10
  -7.41488E-10 -7.79655E-10 -8.16599E-10 -8.52380E-10 -8.87030E-10 -9.20610E-10 -9.53157E-10 -9.84706E-10 -1.01531E-09 -1.04502E-09
  -1.07387E-09 -1.10191E-09 -1.12917E-09 -1.15572E-09 -1.18157E-09 -1.20678E-09 -1.23141E-09 -1.25548E-09 -1.27903E-09 -1.30209E-09
  -1.32474E-09 -1.34700E-09 -1.36891E-09 -1.39050E-09 -1.41184E-09 -1.43294E-09 -1.45385E-09 -1.47461E-09 -1.49527E-09 -1.51587E-09
  -1.53641E-09 -1.55692E-09 -1.57742E-09 -1.59791E-09 -1.61841E-09 -1.63893E-09 -1.65948E-09 -1.68008E-09 -1.70074E-09 -1.72147E-09
  -1.74227E-09 -1.76318E-09 -1.78418E-09 -1.80530E-09 -1.82655E-09 -1.84794E-09 -1.86947E-09 -1.89116E-09 -1.91302E-09 -1.93506E-09
  -1.95729E-09 -1.97973E-09 -2.00236E-09 -2.02522E-09 -2.04831E-09 -2.07164E-09 -2.09521E-09 -2.11903E-09 -2.14313E-09 -2.16749E-09
  -2.19213E-09 -2.21706E-09 -2.24229E-09 -2.26783E-09 -2.29367E-09 -2.31983E-09 -2.34632E-09 -2.37314E-09 -2.40030E-09 -2.42781E-09
  -2.45567E-09 -2.48388E-09 -2.51246E-09 -2.54141E-09 -2.57073E-09 -2.60043E-09 -2.63051E-09 -2.66099E-09 -2.69185E-09 -2.72311E-09
  -2.75478E-09 -2.78685E-09 -2.81930E-09 -2.85212E-09 -2.88527E-09 -2.91873E-09 -2.95246E-09 -2.98646E-09 -3.02068E-09 -3.05511E-09
  -3.08971E-09 -3.12447E-09 -3.15936E-09 -3.19435E-09 -3.22942E-09 -3.26455E-09 -3.29970E-09 -3.33487E-09 -3.37001E-09 -3.40511E-09
  -3.44015E-09 -3.47511E-09 -3.50994E-09 -3.54465E-09 -3.57920E-09 -3.61357E-09 -3.64775E-09 -3.68169E-09 -3.71540E-09 -3.74884E-09
  -3.78200E-09 -3.81484E-09 -3.84736E-09 -3.87954E-09 -3.91134E-09 -3.94275E-09 -3.97377E-09 -4.00435E-09 -4.03449E-09 -4.06416E-09
  -4.09336E-09 -4.12205E-09 -4.15023E-09 -4.17787E-09 -4.20496E-09 -4.23148E-09 -4.25742E-09 -4.28275E-09 -4.30747E-09 -4.33156E-09
  -4.35499E-09 -4.37777E-09 -4.39987E-09
 NY background values follow
    -8.691E-09   -8.624E-09   -8.556E-09   -8.488E-09   -8.417E-09   -8.346E-09   -8.273E-09   -8.199E-09   -8.124E-09   -8.047E-09
    -7.969E-09   -7.891E-09   -7.810E-09   -7.729E-09   -7.647E-09   -7.563E-09   -7.479E-09   -7.393E-09   -7.306E-09   -7.218E-09
    -7.129E-09   -7.039E-09   -6.948E-09   -6.855E-09   -6.762E-09   -6.668E-09   -6.573E-09   -6.477E-09   -6.380E-09   -6.282E-09
    -6.183E-09   -6.083E-09   -5.982E-09   -5.881E-09   -5.778E-09   -5.675E-09   -5.571E-09   -5.466E-09   -5.360E-09   -5.254E-09
    -5.147E-09   -5.039E-09   -4.930E-09   -4.821E-09   -4.711E-09   -4.600E-09   -4.489E-09   -4.377E-09   -4.264E-09   -4.151E-09
    -4.038E-09   -3.923E-09   -3.808E-09   -3.693E-09   -3.577E-09   -3.461E-09   -3.344E-09   -3.227E-09   -3.110E-09   -2.992E-09
    -2.874E-09   -2.756E-09   -2.638E-09   -2.519E-09   -2.400E-09   -2.281E-09   -2.163E-09   -2.044E-09   -1.925E-09   -1.806E-09
    -1.687E-09   -1.569E-09   -1.450E-09   -1.332E-09   -1.214E-09   -1.096E-09   -9.785E-10   -8.614E-10   -7.446E-10   -6.283E-10
    -5.125E-10   -3.972E-10   -2.824E-10   -1.682E-10   -5.457E-11    5.838E-11    1.706E-10    2.821E-10    3.929E-10    5.028E-10
     6.119E-10    7.200E-10    8.273E-10    9.335E-10    1.039E-09    1.143E-09    1.246E-09    1.348E-09    1.449E-09    1.549E-09
     1.647E-09    1.744E-09    1.840E-09    1.934E-09    2.027E-09    2.119E-09    2.209E-09    2.297E-09    2.384E-09    2.469E-09
     2.553E-09    2.635E-09    2.715E-09    2.794E-09    2.870E-09    2.945E-09    3.018E-09    3.089E-09    3.158E-09    3.225E-09
     3.289E-09    3.352E-09    3.413E-09    3.471E-09    3.527E-09    3.581E-09    3.633E-09    3.682E-09    3.728E-09    3.773E-09
     3.815E-09    3.854E-09    3.891E-09    3.925E-09    3.957E-09    3.986E-09    4.012E-09    4.035E-09    4.056E-09    4.074E-09
     4.089E-09    4.101E-09    4.110E-09    4.117E-09    4.120E-09    4.120E-09    4.117E-09    4.111E-09    4.102E-09    4.090E-09
     4.074E-09    4.056E-09    4.034E-09    4.008E-09    3.980E-09    3.947E-09    3.912E-09    3.873E-09    3.831E-09    3.786E-09
     3.738E-09    3.687E-09    3.633E-09    3.576E-09    3.517E-09    3.455E-09    3.391E-09    3.324E-09    3.256E-09    3.185E-09
     3.112E-09    3.038E-09    2.961E-09    2.883E-09    2.804E-09    2.723E-09    2.640E-09    2.557E-09    2.472E-09    2.386E-09
     2.300E-09    2.212E-09    2.124E-09    2.036E-09    1.946E-09    1.857E-09    1.767E-09    1.678E-09    1.588E-09    1.498E-09
     1.408E-09    1.319E-09    1.230E-09    1.142E-09    1.054E-09    9.672E-10    8.811E-10    7.959E-10    7.118E-10    6.289E-10
     5.473E-10    4.670E-10    3.882E-10    3.111E-10    2.356E-10    1.619E-10    9.020E-11    2.046E-11   -4.717E-11   -1.128E-10
    -1.763E-10   -2.379E-10   -2.975E-10   -3.553E-10   -4.111E-10   -4.652E-10   -5.175E-10   -5.681E-10   -6.169E-10   -6.642E-10
    -7.098E-10   -7.538E-10   -7.964E-10   -8.374E-10   -8.770E-10   -9.152E-10   -9.521E-10   -9.876E-10   -1.022E-09   -1.055E-09
    -1.087E-09   -1.118E-09   -1.147E-09   -1.176E-09   -1.203E-09   -1.230E-09   -1.255E-09   -1.280E-09   -1.304E-09   -1.327E-09
    -1.349E-09   -1.371E-09   -1.392E-09   -1.412E-09   -1.432E-09   -1.451E-09   -1.469E-09   -1.487E-09   -1.505E-09   -1.522E-09
    -1.539E-09   -1.555E-09   -1.572E-09   -1.588E-09   -1.603E-09   -1.619E-09   -1.634E-09   -1.650E-09   -1.665E-09   -1.680E-09
    -1.696E-09   -1.711E-09   -1.727E-09   -1.742E-09   -1.757E-09   -1.773E-09   -1.789E-09   -1.804E-09   -1.820E-09   -1.836E-09
    -1.852E-09   -1.868E-09   -1.885E-09   -1.901E-09   -1.918E-09   -1.935E-09   -1.952E-09   -1.969E-09   -1.987E-09   -2.004E-09
    -2.022E-09   -2.040E-09   -2.059E-09   -2.077E-09   -2.096E-09   -2.115E-09   -2.135E-09   -2.155E-09   -2.175E-09   -2.195E-09
    -2.216E-09   -2.237E-09   -2.258E-09   -2.280E-09   -2.302E-09   -2.324E-09   -2.347E-09   -2.370E-09   -2.393E-09   -2.417E-09
    -2.441E-09   -2.466E-09   -2.491E-09   -2.516E-09   -2.542E-09   -2.568E-09   -2.595E-09   -2.622E-09   -2.649E-09   -2.677E-09
    -2.705E-09   -2.734E-09   -2.763E-09   -2.792E-09   -2.822E-09   -2.852E-09   -2.883E-09   -2.913E-09   -2.944E-09   -2.976E-09
    -3.007E-09   -3.039E-09   -3.070E-09   -3.102E-09   -3.134E-09   -3.166E-09   -3.199E-09   -3.231E-09   -3.263E-09   -3.295E-09
    -3.327E-09   -3.359E-09   -3.391E-09   -3.423E-09   -3.454E-09   -3.486E-09   -3.517E-09   -3.548E-09   -3.579E-09   -3.610E-09
    -3.640E-09   -3.670E-09   -3.700E-09   -3.730E-09   -3.759E-09   -3.787E-09   -3.816E-09   -3.844E-09   -3.871E-09   -3.898E-09
    -3.925E-09   -3.951E-09   -3.976E-09   -4.002E-09   -4.026E-09   -4.050E-09   -4.074E-09   -4.096E-09   -4.119E-09   -4.140E-09
    -4.161E-09   -4.182E-09   -4.201E-09
 Ala      Conc. = 3.99E-10
  -8.58184E-09 -8.52392E-09 -8.48491E-09 -8.33490E-09 -8.20224E-09 -8.19967E-09 -8.08252E-09 -7.87523E-09 -7.96245E-09 -7.89399E-09
  -7.67683E-09 -7.70897E-09 -7.67454E-09 -7.56697E-09 -7.51480E-09 -7.45565E-09 -7.38934E-09 -7.31781E-09 -7.24244E-09 -7.16395E-09
  -7.08292E-09 -6.99971E-09 -6.91453E-09 -6.82762E-09 -6.73914E-09 -6.64917E-09 -6.55783E-09 -6.46517E-09 -6.37130E-09 -6.27622E-09
  -6.17999E-09 -6.08273E-09 -5.98439E-09 -5.88505E-09 -5.78472E-09 -5.68346E-09 -5.58129E-09 -5.47819E-09 -5.37427E-09 -5.26955E-09
  -5.16395E-09 -5.05755E-09 -4.95043E-09 -4.84258E-09 -4.73398E-09 -4.62471E-09 -4.51473E-09 -4.40412E-09 -4.29290E-09 -4.18110E-09
  -4.06864E-09 -3.95564E-09 -3.84207E-09 -3.72802E-09 -3.61349E-09 -3.49851E-09 -3.38312E-09 -3.26735E-09 -3.15126E-09 -3.03486E-09
  -2.91821E-09 -2.80133E-09 -2.68427E-09 -2.56706E-09 -2.44977E-09 -2.33239E-09 -2.21499E-09 -2.09760E-09 -1.98027E-09 -1.86304E-09
  -1.74595E-09 -1.62904E-09 -1.51235E-09 -1.39593E-09 -1.27982E-09 -1.16406E-09 -1.04872E-09 -9.33829E-10 -8.19399E-10 -7.05548E-10
  -5.92287E-10 -4.79684E-10 -3.67752E-10 -2.56603E-10 -1.46278E-10 -3.67978E-11  7.17382E-11  1.79308E-10  2.85828E-10  3.91243E-10
   4.95542E-10  5.98665E-10  7.00728E-10  8.01798E-10  9.02300E-10  1.00323E-09  1.10696E-09  1.22034E-09  1.36755E-09  1.67209E-09
   2.43090E-09  2.14647E-09  2.24384E-09  3.16872E-09  3.24781E-09  3.29737E-09  3.49509E-09  3.71594E-09  3.74773E-09  3.93533E-09
   4.39386E-09  3.62340E-09  3.60836E-09  4.15290E-09  3.65030E-09  3.47330E-09  3.42222E-09  3.41838E-09  3.43663E-09  3.46656E-09
   3.50308E-09  3.54331E-09  3.58554E-09  3.62864E-09  3.67183E-09  3.71457E-09  3.75645E-09  3.79715E-09  3.83643E-09  3.87408E-09
   3.90995E-09  3.94387E-09  3.97574E-09  4.00546E-09  4.03292E-09  4.05804E-09  4.08075E-09  4.10098E-09  4.11865E-09  4.13370E-09
   4.14609E-09  4.15576E-09  4.16264E-09  4.16670E-09  4.16789E-09  4.16616E-09  4.16147E-09  4.15376E-09  4.14302E-09  4.12917E-09
   4.11222E-09  4.09211E-09  4.06880E-09  4.04229E-09  4.01253E-09  3.97953E-09  3.94324E-09  3.90383E-09  3.86144E-09  3.81628E-09
   3.76865E-09  3.71900E-09  3.66818E-09  3.61796E-09  3.57321E-09  3.55159E-09  3.65589E-09  4.05352E-09  3.80474E-09  3.69722E-09
   3.67220E-09  3.63980E-09  3.55785E-09  3.49945E-09  3.43665E-09  3.29497E-09  3.24466E-09  3.32957E-09  2.72463E-09  2.50928E-09
   2.38090E-09  2.27397E-09  2.17467E-09  2.07871E-09  1.98441E-09  1.89107E-09  1.79831E-09  1.70599E-09  1.61407E-09  1.52254E-09
   1.43143E-09  1.34082E-09  1.25075E-09  1.16135E-09  1.07266E-09  9.84791E-10  8.97839E-10  8.11912E-10  7.27090E-10  6.43488E-10
   5.61206E-10  4.80343E-10  4.01005E-10  3.23291E-10  2.47306E-10  1.73149E-10  1.00941E-10  3.07518E-11 -3.73197E-11 -1.03320E-10
  -1.67281E-10 -2.29251E-10 -2.89265E-10 -3.47372E-10 -4.03609E-10 -4.58026E-10 -5.10654E-10 -5.61538E-10 -6.10729E-10 -6.58265E-10
  -7.04177E-10 -7.48521E-10 -7.91336E-10 -8.32661E-10 -8.72543E-10 -9.11021E-10 -9.48126E-10 -9.83926E-10 -1.01846E-09 -1.05174E-09
  -1.08383E-09 -1.11477E-09 -1.14460E-09 -1.17338E-09 -1.20112E-09 -1.22789E-09 -1.25372E-09 -1.27865E-09 -1.30272E-09 -1.32598E-09
  -1.34846E-09 -1.37021E-09 -1.39127E-09 -1.41169E-09 -1.43149E-09 -1.45072E-09 -1.46943E-09 -1.48767E-09 -1.50544E-09 -1.52280E-09
  -1.53980E-09 -1.55648E-09 -1.57287E-09 -1.58899E-09 -1.60493E-09 -1.62069E-09 -1.63632E-09 -1.65184E-09 -1.66732E-09 -1.68279E-09
  -1.69826E-09 -1.71375E-09 -1.72927E-09 -1.74483E-09 -1.76045E-09 -1.77614E-09 -1.79191E-09 -1.80777E-09 -1.82373E-09 -1.83981E-09
  -1.85601E-09 -1.87234E-09 -1.88883E-09 -1.90546E-09 -1.92226E-09 -1.93925E-09 -1.95641E-09 -1.97378E-09 -1.99135E-09 -2.00914E-09
  -2.02715E-09 -2.04540E-09 -2.06390E-09 -2.08264E-09 -2.10165E-09 -2.12094E-09 -2.14050E-09 -2.16035E-09 -2.18049E-09 -2.20094E-09
  -2.22171E-09 -2.24279E-09 -2.26420E-09 -2.28594E-09 -2.30802E-09 -2.33046E-09 -2.35324E-09 -2.37639E-09 -2.39990E-09 -2.42379E-09
  -2.44806E-09 -2.47271E-09 -2.49775E-09 -2.52319E-09 -2.54903E-09 -2.57527E-09 -2.60192E-09 -2.62899E-09 -2.65647E-09 -2.68438E-09
  -2.71271E-09 -2.74147E-09 -2.77064E-09 -2.80019E-09 -2.83010E-09 -2.86034E-09 -2.89088E-09 -2.92170E-09 -2.95278E-09 -2.98407E-09
  -3.01558E-09 -3.04725E-09 -3.07907E-09 -3.11102E-09 -3.14307E-09 -3.17520E-09 -3.20737E-09 -3.23957E-09 -3.27178E-09 -3.30396E-09
  -3.33610E-09 -3.36816E-09 -3.40014E-09 -3.43200E-09 -3.46373E-09 -3.49529E-09 -3.52667E-09 -3.55785E-09 -3.58880E-09 -3.61951E-09
  -3.64994E-09 -3.68009E-09 -3.70993E-09 -3.73943E-09 -3.76859E-09 -3.79737E-09 -3.82577E-09 -3.85375E-09 -3.88131E-09 -3.90841E-09
  -3.93506E-09 -3.96122E-09 -3.98688E-09 -4.01201E-09 -4.03662E-09 -4.06066E-09 -4.08415E-09 -4.10704E-09 -4.12933E-09 -4.15100E-09
  -4.17204E-09 -4.19243E-09 -4.21216E-09
 Asp      Conc. = 4.15E-10
  -8.34920E-09 -8.27558E-09 -8.21453E-09 -8.20511E-09 -8.10317E-09 -8.10437E-09 -8.00475E-09 -8.00648E-09 -7.97904E-09 -7.93478E-09
  -7.88068E-09 -7.81999E-09 -7.75552E-09 -7.68685E-09 -7.61447E-09 -7.53991E-09 -7.46336E-09 -7.38494E-09 -7.30489E-09 -7.22326E-09
  -7.14021E-09 -7.05582E-09 -6.97015E-09 -6.88329E-09 -6.79534E-09 -6.70630E-09 -6.61625E-09 -6.52522E-09 -6.43326E-09 -6.34036E-09
  -6.24648E-09 -6.15165E-09 -6.05554E-09 -5.95764E-09 -5.85622E-09 -5.74496E-09 -5.59411E-09 -5.49226E-09 -5.33591E-09 -5.26121E-09
  -5.17407E-09 -5.07480E-09 -4.93486E-09 -4.70404E-09 -4.54491E-09 -4.19023E-09 -4.13684E-09 -4.10494E-09 -3.80126E-09 -3.67650E-09
  -3.57899E-09 -3.40123E-09 -3.20152E-09 -3.06037E-09 -3.02121E-09 -2.72640E-09 -2.86281E-09 -2.84516E-09 -2.62131E-09 -2.56325E-09
  -2.53450E-09 -2.42180E-09 -2.33151E-09 -2.27317E-09 -2.18042E-09 -2.00424E-09 -1.92295E-09 -1.83363E-09 -1.73627E-09 -1.63413E-09
  -1.52892E-09 -1.42161E-09 -1.31282E-09 -1.20296E-09 -1.09232E-09 -9.81131E-10 -8.69583E-10 -7.57823E-10 -6.45925E-10 -5.34068E-10
  -4.22306E-10 -3.10740E-10 -1.99407E-10 -8.84333E-11  2.21287E-11  1.32255E-10  2.41844E-10  3.50878E-10  4.59274E-10  5.66975E-10
   6.73961E-10  7.80133E-10  8.85521E-10  9.89991E-10  1.09353E-09  1.19613E-09  1.29772E-09  1.39823E-09  1.49763E-09  1.59589E-09
   1.69291E-09  1.78875E-09  1.88331E-09  1.97651E-09  2.06841E-09  2.15886E-09  2.24786E-09  2.33537E-09  2.42133E-09  2.50571E-09
   2.58847E-09  2.66955E-09  2.74892E-09  2.82654E-09  2.90235E-09  2.97633E-09  3.04842E-09  3.11858E-09  3.18678E-09  3.25296E-09
   3.31710E-09  3.37914E-09  3.43904E-09  3.49677E-09  3.55228E-09  3.60552E-09  3.65648E-09  3.70509E-09  3.75132E-09  3.79513E-09
   3.83648E-09  3.87533E-09  3.91164E-09  3.94537E-09  3.97649E-09  4.00495E-09  4.03071E-09  4.05374E-09  4.07400E-09  4.09144E-09
   4.10605E-09  4.11777E-09  4.12657E-09  4.13241E-09  4.13528E-09  4.13510E-09  4.13188E-09  4.12555E-09  4.11610E-09  4.10347E-09
   4.08768E-09  4.06866E-09  4.04638E-09  4.02084E-09  3.99201E-09  3.95989E-09  3.92445E-09  3.88585E-09  3.84424E-09  3.79983E-09
   3.75294E-09  3.70402E-09  3.65396E-09  3.60459E-09  3.56091E-09  3.54114E-09  3.65121E-09  4.07154E-09  3.81520E-09  3.70612E-09
   3.68352E-09  3.65354E-09  3.57167E-09  3.51443E-09  3.45313E-09  3.30907E-09  3.25934E-09  3.35517E-09  2.72726E-09  2.50643E-09
   2.37665E-09  2.26925E-09  2.16981E-09  2.07386E-09  1.97965E-09  1.88643E-09  1.79383E-09  1.70167E-09  1.60991E-09  1.51856E-09
   1.42762E-09  1.33719E-09  1.24730E-09  1.15806E-09  1.06954E-09  9.81839E-10  8.95050E-10  8.09282E-10  7.24617E-10  6.41168E-10
   5.59035E-10  4.78317E-10  3.99122E-10  3.21545E-10  2.45695E-10  1.71671E-10  9.95901E-11  2.95269E-11 -3.84215E-11 -1.04302E-10
  -1.68147E-10 -2.30002E-10 -2.89905E-10 -3.47904E-10 -4.04034E-10 -4.58347E-10 -5.10874E-10 -5.61658E-10 -6.10752E-10 -6.58194E-10
  -7.04014E-10 -7.48268E-10 -7.90995E-10 -8.32234E-10 -8.72032E-10 -9.10428E-10 -9.47452E-10 -9.83174E-10 -1.01763E-09 -1.05084E-09
  -1.08285E-09 -1.11373E-09 -1.14349E-09 -1.17219E-09 -1.19987E-09 -1.22657E-09 -1.25234E-09 -1.27720E-09 -1.30121E-09 -1.32441E-09
