 LCModel (Version 6.3-1R) Copyright: S.W. Provencher.          Ref.: Magn. Reson. Med. 30:672-679 (1993).                
 onepulse 22x10_ftSpec_smooth_lcm
 26 lines in following concentration table = NCONC+1
    Conc.  %SD   /Cr    Metabolite                                         
 4.49E-10  58%   0.000 Ala                                                 
 2.68E-09  22%   0.000 Asp                                                 
    0.000 999%   0.000 Cr                                                  
 1.13E-09  37%   0.000 GABA                                                
 2.10E-09  33%   0.000 Glc                                                 
 3.48E-10 168%   0.000 Gln                                                 
    0.000 999%   0.000 Glu                                                 
    0.000 999%   0.000 Glyc                                                
    0.000 999%   0.000 GPC                                                 
 9.56E-11 399%   0.000 GSH                                                 
 9.09E-10  45%   0.000 Ins                                                 
    0.000 999%   0.000 Lac                                                 
 1.09E-09  18%   0.000 NAAG                                                
    0.000 999%   0.000 NAA                                                 
    0.000 999%   0.000 PCh                                                 
    0.000 999%   0.000 PCr                                                 
 2.44E-09  24%   0.000 PE                                                  
 4.04E-11 446%   0.000 Scyllo                                              
    0.000 999%   0.000 Ser                                                 
    0.000 999%   0.000 Tau                                                 
    0.000 999%   0.000 GPC+PCh                                             
 1.09E-09  18%   0.000 NAA+NAAG                                            
 9.09E-10  45%   0.000 Ins+Glyc                                            
    0.000 999%   0.000 Cr+PCr                                              
 3.48E-10 168%   0.000 Glu+Gln                                             
   6 lines in following misc. output table
  FWHM = 0.123 ppm    S/N =   4                                            
  Data shift = 0.481 ppm                                                   
  Ph:  42 deg     -33.3 deg/ppm                                            
  alphaB,S = 8.4E-01,   6.4E+00                                            
   10 spline knots.   Ns = 5(1)                                            
  (10) 8 infls.   (11) 7 extrs.                                            
  363 points on ppm-axis = NY
      4.250000     4.238821     4.227641     4.216462     4.205282     4.194103     4.182923     4.171744     4.160564     4.149385
      4.138206     4.127026     4.115847     4.104667     4.093488     4.082308     4.071129     4.059949     4.048770     4.037591
      4.026411     4.015232     4.004052     3.992873     3.981693     3.970514     3.959334     3.948155     3.936975     3.925796
      3.914617     3.903437     3.892258     3.881078     3.869899     3.858719     3.847540     3.836360     3.825181     3.814002
      3.802822     3.791643     3.780463     3.769284     3.758104     3.746925     3.735745     3.724566     3.713387     3.702207
      3.691028     3.679848     3.668669     3.657489     3.646310     3.635130     3.623951     3.612772     3.601592     3.590413
      3.579233     3.568054     3.556874     3.545695     3.534515     3.523336     3.512156     3.500977     3.489798     3.478618
      3.467439     3.456259     3.445080     3.433900     3.422721     3.411541     3.400362     3.389183     3.378003     3.366824
      3.355644     3.344465     3.333285     3.322106     3.310926     3.299747     3.288568     3.277388     3.266209     3.255029
      3.243850     3.232670     3.221491     3.210311     3.199132     3.187953     3.176773     3.165594     3.154414     3.143235
      3.132055     3.120876     3.109696     3.098517     3.087337     3.076158     3.064979     3.053799     3.042620     3.031440
      3.020261     3.009081     2.997902     2.986722     2.975543     2.964364     2.953184     2.942005     2.930825     2.919646
      2.908466     2.897287     2.886107     2.874928     2.863749     2.852569     2.841390     2.830210     2.819031     2.807851
      2.796672     2.785492     2.774313     2.763134     2.751954     2.740775     2.729595     2.718416     2.707236     2.696057
      2.684877     2.673698     2.662519     2.651339     2.640160     2.628980     2.617801     2.606621     2.595442     2.584262
      2.573083     2.561903     2.550724     2.539545     2.528365     2.517186     2.506006     2.494827     2.483647     2.472468
      2.461288     2.450109     2.438930     2.427750     2.416571     2.405391     2.394212     2.383032     2.371853     2.360673
      2.349494     2.338315     2.327135     2.315956     2.304776     2.293597     2.282417     2.271238     2.260058     2.248879
      2.237700     2.226520     2.215341     2.204161     2.192982     2.181802     2.170623     2.159443     2.148264     2.137084
      2.125905     2.114726     2.103546     2.092367     2.081187     2.070008     2.058828     2.047649     2.036469     2.025290
      2.014111     2.002931     1.991752     1.980572     1.969393     1.958213     1.947034     1.935854     1.924675     1.913496
      1.902316     1.891137     1.879957     1.868778     1.857598     1.846419     1.835239     1.824060     1.812881     1.801701
      1.790522     1.779342     1.768163     1.756983     1.745804     1.734624     1.723445     1.712265     1.701086     1.689907
      1.678727     1.667548     1.656368     1.645189     1.634009     1.622830     1.611650     1.600471     1.589292     1.578112
      1.566933     1.555753     1.544574     1.533394     1.522215     1.511035     1.499856     1.488677     1.477497     1.466318
      1.455138     1.443959     1.432779     1.421600     1.410420     1.399241     1.388062     1.376882     1.365703     1.354523
      1.343344     1.332164     1.320985     1.309805     1.298626     1.287446     1.276267     1.265088     1.253908     1.242729
      1.231549     1.220370     1.209190     1.198011     1.186831     1.175652     1.164473     1.153293     1.142114     1.130934
      1.119755     1.108575     1.097396     1.086216     1.075037     1.063858     1.052678     1.041499     1.030319     1.019140
      1.007960     0.996781     0.985601     0.974422     0.963243     0.952063     0.940884     0.929704     0.918525     0.907345
      0.896166     0.884986     0.873807     0.862628     0.851448     0.840269     0.829089     0.817910     0.806730     0.795551
      0.784371     0.773192     0.762012     0.750833     0.739654     0.728474     0.717295     0.706115     0.694936     0.683756
      0.672577     0.661397     0.650218     0.639039     0.627859     0.616680     0.605500     0.594321     0.583141     0.571962
      0.560782     0.549603     0.538424     0.527244     0.516065     0.504885     0.493706     0.482526     0.471347     0.460167
      0.448988     0.437809     0.426629     0.415450     0.404270     0.393091     0.381911     0.370732     0.359552     0.348373
      0.337193     0.326014     0.314835     0.303655     0.292476     0.281296     0.270117     0.258937     0.247758     0.236578
      0.225399     0.214220     0.203040
 NY phased data points follow
   1.06780E-08  1.13713E-08  1.13544E-08  1.19495E-08  1.22603E-08  1.23289E-08  1.13741E-08  1.23189E-08  1.06472E-08  1.10330E-08
   1.10536E-08  1.13724E-08  1.12704E-08  1.11687E-08  1.10161E-08  1.15198E-08  1.07530E-08  1.09451E-08  1.03962E-08  1.20724E-08
   1.24861E-08  1.38748E-08  1.37595E-08  1.42684E-08  1.31685E-08  1.33381E-08  1.19695E-08  1.16200E-08  1.09410E-08  1.08256E-08
   1.05929E-08  1.06329E-08  1.01735E-08  9.92528E-09  8.96820E-09  8.65285E-09  7.71214E-09  8.20323E-09  7.54350E-09  8.21656E-09
   7.27256E-09  6.76721E-09  6.86730E-09  6.74365E-09  5.56518E-09  4.26520E-09  4.51852E-09  4.50951E-09  4.41534E-09  4.37646E-09
   5.60466E-09  7.96177E-09  1.00435E-08  1.12273E-08  1.21351E-08  1.22517E-08  1.12851E-08  1.05376E-08  9.24498E-09  9.15866E-09
   8.36153E-09  7.51092E-09  5.96495E-09  5.06876E-09  4.76233E-09  3.54621E-09  3.55275E-09  5.10640E-09  7.62019E-09  1.07171E-08
   1.22597E-08  1.31696E-08  1.33794E-08  1.32928E-08  1.34042E-08  1.28409E-08  1.25696E-08  1.26666E-08  1.30020E-08  1.23702E-08
   1.21407E-08  1.17329E-08  1.24784E-08  1.13236E-08  1.11625E-08  1.11449E-08  1.05732E-08  1.03024E-08  9.50890E-09  9.21123E-09
   9.30739E-09  9.59666E-09  9.44433E-09  9.27519E-09  8.91722E-09  9.24557E-09  8.58460E-09  9.11271E-09  7.64393E-09  7.57685E-09
   6.68218E-09  6.05022E-09  6.50800E-09  6.72164E-09  6.12699E-09  6.53048E-09  7.30440E-09  7.16703E-09  6.99120E-09  7.19870E-09
   7.60106E-09  7.28297E-09  6.82015E-09  6.75712E-09  6.40059E-09  5.31931E-09  5.26758E-09  5.14124E-09  5.03585E-09  4.78726E-09
   5.22466E-09  4.76108E-09  5.16707E-09  4.47032E-09  4.69893E-09  4.08450E-09  3.83224E-09  3.78029E-09  3.53507E-09  4.71888E-09
   4.66113E-09  5.53689E-09  5.41235E-09  5.34880E-09  6.10043E-09  6.41089E-09  6.20881E-09  7.08908E-09  7.58556E-09  6.82735E-09
   7.10859E-09  7.15676E-09  7.18842E-09  6.65219E-09  6.53966E-09  6.69145E-09  6.58997E-09  6.15723E-09  6.22744E-09  5.74090E-09
   5.75426E-09  5.79504E-09  5.17229E-09  4.92826E-09  4.54636E-09  3.76718E-09  2.78678E-09  2.25612E-09  1.29716E-09  2.11230E-09
   6.21963E-09  1.01443E-08  1.26867E-08  1.49670E-08  1.55861E-08  1.66114E-08  1.78562E-08  1.79409E-08  1.81374E-08  1.82705E-08
   1.94067E-08  1.91571E-08  1.93754E-08  1.97547E-08  1.95633E-08  1.93994E-08  1.90673E-08  1.83855E-08  1.76518E-08  1.70752E-08
   1.61511E-08  1.46384E-08  1.27476E-08  1.11540E-08  9.42724E-09  7.77946E-09  6.06292E-09  3.78073E-09  2.34405E-09  1.34983E-10
  -5.25493E-10 -2.11502E-09 -3.44681E-09 -3.95509E-09 -4.65127E-09 -5.00695E-09 -4.20141E-09 -4.44528E-09 -4.04507E-09 -3.42044E-09
  -3.15147E-09 -2.27719E-09 -1.17669E-09 -1.33728E-09 -8.10686E-10 -5.90305E-10 -1.02621E-09 -5.99215E-10 -8.52258E-10 -1.18185E-09
  -1.36178E-09 -9.60639E-10 -1.00772E-09 -5.96142E-10  3.68233E-11 -1.34510E-10  5.18250E-11 -7.39736E-10 -5.57623E-10 -4.49762E-10
  -1.00720E-09 -4.56404E-10 -8.56234E-10 -3.84402E-10 -4.37307E-10 -1.70475E-10  4.83628E-11 -4.10169E-10 -4.55200E-10 -6.46971E-10
  -1.68847E-10 -5.12117E-10 -4.28967E-10 -1.14840E-09 -4.85659E-10 -1.12701E-09 -7.70678E-10 -9.67377E-10 -3.02240E-10 -7.76987E-10
  -8.39157E-10 -7.48395E-10 -7.62853E-10 -5.38254E-10 -2.31831E-10  2.20338E-11 -3.80243E-10 -1.17893E-10  2.79859E-10  6.50536E-10
  -4.44360E-10 -1.43712E-10 -3.75458E-10 -5.03344E-10 -8.96207E-10 -1.00783E-09 -1.20815E-09 -1.18170E-09 -1.87826E-09 -1.74642E-09
  -1.69095E-09 -1.89214E-09 -1.94747E-09 -1.78601E-09 -1.68032E-09 -1.22071E-09 -4.41399E-10 -8.29622E-10 -5.50898E-10 -1.93111E-10
   9.66310E-12 -4.25572E-10  1.81974E-11  2.30315E-10 -1.05095E-10 -7.96980E-11 -8.77588E-12  1.73809E-10  4.57683E-10  3.44486E-10
  -1.92653E-10  4.53017E-10 -6.50019E-12 -1.81326E-11  7.38067E-11  5.42092E-11  5.44044E-11  1.23641E-10  1.87013E-10 -5.85994E-10
   8.72810E-12 -4.55057E-10 -1.89394E-10  4.07663E-11 -2.87437E-10 -4.59823E-10 -3.80598E-10 -4.40606E-10 -5.66026E-10 -7.77269E-10
  -1.46386E-10 -7.18337E-10 -8.47916E-10 -2.75258E-10 -8.04832E-10 -2.46092E-10 -3.89714E-10 -1.25476E-09 -7.15376E-10 -1.17709E-09
  -7.14400E-10 -3.76728E-10 -5.46489E-10 -1.04767E-09 -8.45151E-10 -1.03551E-09 -1.24559E-09 -6.88875E-10 -9.59894E-10 -1.22253E-09
  -1.37181E-09 -1.34839E-09 -9.27385E-10 -1.07544E-09 -1.12554E-09 -1.55677E-09 -6.74601E-10 -1.82210E-09 -1.59541E-09 -9.62857E-10
  -1.53207E-09 -1.39892E-09 -1.52552E-09 -1.44848E-09 -1.36344E-09 -1.58193E-09 -1.71095E-09 -1.54821E-09 -1.42532E-09 -1.47499E-09
  -1.61101E-09 -1.86055E-09 -1.42407E-09 -1.77777E-09 -1.75163E-09 -1.58948E-09 -2.12642E-09 -2.59625E-09 -1.88625E-09 -1.63785E-09
  -1.46136E-09 -1.83165E-09 -2.08584E-09 -2.18339E-09 -1.91443E-09 -2.05625E-09 -1.81869E-09 -2.29759E-09 -2.15296E-09 -2.30129E-09
  -2.08317E-09 -2.09466E-09 -2.20729E-09
 NY points of the fit to the data follow
   1.36926E-08  1.26250E-08  1.15876E-08  1.13111E-08  1.17475E-08  1.11722E-08  1.06393E-08  1.14699E-08  1.09415E-08  1.03482E-08
   9.94143E-09  9.89658E-09  1.01834E-08  1.16978E-08  1.28363E-08  1.19011E-08  1.15194E-08  1.22538E-08  1.23350E-08  1.18284E-08
   1.20922E-08  1.26715E-08  1.31865E-08  1.38306E-08  1.29680E-08  1.23229E-08  1.17614E-08  1.15377E-08  1.16559E-08  1.20324E-08
   1.17302E-08  1.11647E-08  1.12985E-08  1.02210E-08  8.70482E-09  8.85301E-09  7.97736E-09  7.55293E-09  7.38111E-09  7.68379E-09
   6.84155E-09  6.83732E-09  7.62523E-09  7.09574E-09  7.17487E-09  8.29171E-09  8.77508E-09  7.79617E-09  7.55499E-09  8.78225E-09
   8.40117E-09  8.17103E-09  8.74481E-09  8.79214E-09  8.87061E-09  9.01838E-09  8.98435E-09  7.65160E-09  7.70529E-09  8.13924E-09
   7.75850E-09  7.66653E-09  7.94296E-09  7.57353E-09  8.27013E-09  8.92409E-09  8.83188E-09  8.66258E-09  8.97711E-09  9.04738E-09
   9.69416E-09  1.04484E-08  1.00214E-08  9.38337E-09  1.05738E-08  1.28832E-08  1.36317E-08  1.25395E-08  1.26951E-08  1.27177E-08
   1.26695E-08  1.24577E-08  1.19855E-08  1.21378E-08  1.19090E-08  1.28000E-08  1.21461E-08  8.82595E-09  8.07694E-09  8.10999E-09
   7.77608E-09  7.33382E-09  7.53277E-09  7.67237E-09  6.92337E-09  6.92815E-09  7.08289E-09  6.64404E-09  6.64941E-09  6.85877E-09
   7.17443E-09  6.68486E-09  6.81165E-09  7.44885E-09  7.23103E-09  7.15269E-09  7.25270E-09  7.22299E-09  7.16156E-09  7.34561E-09
   7.29897E-09  6.41499E-09  6.57480E-09  6.75865E-09  6.08902E-09  5.86772E-09  5.77077E-09  5.71653E-09  5.68139E-09  5.65620E-09
   5.63658E-09  5.62035E-09  5.60615E-09  5.59313E-09  5.58071E-09  5.56853E-09  5.55632E-09  5.54381E-09  5.53089E-09  5.51743E-09
   5.50330E-09  5.48844E-09  5.47281E-09  5.45632E-09  5.43895E-09  5.42064E-09  5.40139E-09  5.38115E-09  5.35993E-09  5.33772E-09
   5.31449E-09  5.29028E-09  5.26510E-09  5.23897E-09  5.21190E-09  5.18396E-09  5.15521E-09  5.12573E-09  5.09565E-09  5.06510E-09
   5.03426E-09  5.00339E-09  4.97283E-09  4.94302E-09  4.91456E-09  4.88832E-09  4.86554E-09  4.84804E-09  4.83865E-09  4.84179E-09
   4.86490E-09  4.92144E-09  5.03825E-09  5.27700E-09  5.81214E-09  7.33430E-09  1.36549E-08  1.94253E-08  1.94383E-08  1.81899E-08
   1.86101E-08  1.89176E-08  1.92887E-08  1.99696E-08  1.98963E-08  1.98946E-08  2.20910E-08  1.95446E-08  1.17399E-08  6.34654E-09
   4.78708E-09  4.13638E-09  3.76631E-09  3.51570E-09  3.32614E-09  3.17171E-09  3.03918E-09  2.92116E-09  2.81328E-09  2.71273E-09
   2.61768E-09  2.52690E-09  2.43950E-09  2.35492E-09  2.27267E-09  2.19244E-09  2.11400E-09  2.03719E-09  1.96186E-09  1.88795E-09
   1.81537E-09  1.74410E-09  1.67411E-09  1.60538E-09  1.53792E-09  1.47172E-09  1.40684E-09  1.34324E-09  1.28097E-09  1.21999E-09
   1.16027E-09  1.10179E-09  1.04450E-09  9.88403E-10  9.33459E-10  8.79644E-10  8.26952E-10  7.75358E-10  7.24839E-10  6.75377E-10
   6.26970E-10  5.79588E-10  5.33217E-10  4.87847E-10  4.43457E-10  4.00038E-10  3.57583E-10  3.16059E-10  2.75457E-10  2.35782E-10
   1.97011E-10  1.59124E-10  1.22120E-10  8.59735E-11  5.06841E-11  1.62277E-11 -1.74020E-11 -5.02092E-11 -8.22157E-11 -1.13428E-10
  -1.43860E-10 -1.73520E-10 -2.02425E-10 -2.30586E-10 -2.58009E-10 -2.84708E-10 -3.10702E-10 -3.36003E-10 -3.60600E-10 -3.84515E-10
  -4.07771E-10 -4.30377E-10 -4.52333E-10 -4.73647E-10 -4.94358E-10 -5.14443E-10 -5.33933E-10 -5.52828E-10 -5.71153E-10 -5.88914E-10
  -6.06115E-10 -6.22780E-10 -6.38924E-10 -6.54565E-10 -6.69721E-10 -6.84407E-10 -6.98639E-10 -7.12437E-10 -7.25815E-10 -7.38790E-10
  -7.51380E-10 -7.63601E-10 -7.75470E-10 -7.87004E-10 -7.98219E-10 -8.09132E-10 -8.19760E-10 -8.30118E-10 -8.40226E-10 -8.50099E-10
  -8.59752E-10 -8.69204E-10 -8.78471E-10 -8.87570E-10 -8.96518E-10 -9.05329E-10 -9.14023E-10 -9.22616E-10 -9.31124E-10 -9.39562E-10
  -9.47949E-10 -9.56301E-10 -9.64636E-10 -9.72967E-10 -9.81314E-10 -9.89693E-10 -9.98120E-10 -1.00661E-09 -1.01518E-09 -1.02386E-09
  -1.03264E-09 -1.04156E-09 -1.05062E-09 -1.05985E-09 -1.06927E-09 -1.07887E-09 -1.08870E-09 -1.09875E-09 -1.10906E-09 -1.11962E-09
  -1.13047E-09 -1.14161E-09 -1.15306E-09 -1.16479E-09 -1.17680E-09 -1.18909E-09 -1.20165E-09 -1.21446E-09 -1.22753E-09 -1.24084E-09
  -1.25439E-09 -1.26817E-09 -1.28218E-09 -1.29640E-09 -1.31082E-09 -1.32545E-09 -1.34027E-09 -1.35527E-09 -1.37046E-09 -1.38581E-09
  -1.40133E-09 -1.41700E-09 -1.43282E-09 -1.44878E-09 -1.46488E-09 -1.48109E-09 -1.49744E-09 -1.51389E-09 -1.53044E-09 -1.54709E-09
  -1.56383E-09 -1.58065E-09 -1.59754E-09 -1.61450E-09 -1.63152E-09 -1.64859E-09 -1.66571E-09 -1.68286E-09 -1.70004E-09 -1.71724E-09
  -1.73445E-09 -1.75168E-09 -1.76890E-09 -1.78611E-09 -1.80331E-09 -1.82048E-09 -1.83763E-09 -1.85473E-09 -1.87180E-09 -1.88880E-09
  -1.90575E-09 -1.92263E-09 -1.93944E-09
 NY background values follow
    -6.514E-10   -5.958E-10   -5.402E-10   -4.846E-10   -4.288E-10   -3.731E-10   -3.173E-10   -2.615E-10   -2.056E-10   -1.497E-10
    -9.384E-11   -3.793E-11    1.800E-11    7.392E-11    1.298E-10    1.858E-10    2.417E-10    2.976E-10    3.534E-10    4.093E-10
     4.651E-10    5.208E-10    5.765E-10    6.322E-10    6.878E-10    7.434E-10    7.989E-10    8.543E-10    9.097E-10    9.650E-10
     1.020E-09    1.075E-09    1.130E-09    1.185E-09    1.240E-09    1.295E-09    1.349E-09    1.404E-09    1.458E-09    1.512E-09
     1.566E-09    1.620E-09    1.674E-09    1.728E-09    1.781E-09    1.835E-09    1.888E-09    1.941E-09    1.993E-09    2.046E-09
     2.099E-09    2.151E-09    2.203E-09    2.255E-09    2.306E-09    2.358E-09    2.409E-09    2.460E-09    2.510E-09    2.561E-09
     2.610E-09    2.660E-09    2.709E-09    2.758E-09    2.807E-09    2.855E-09    2.903E-09    2.950E-09    2.997E-09    3.044E-09
     3.090E-09    3.135E-09    3.180E-09    3.225E-09    3.269E-09    3.313E-09    3.355E-09    3.398E-09    3.440E-09    3.481E-09
     3.521E-09    3.561E-09    3.601E-09    3.639E-09    3.677E-09    3.714E-09    3.751E-09    3.787E-09    3.822E-09    3.856E-09
     3.890E-09    3.923E-09    3.955E-09    3.986E-09    4.016E-09    4.046E-09    4.074E-09    4.102E-09    4.129E-09    4.155E-09
     4.180E-09    4.204E-09    4.228E-09    4.250E-09    4.271E-09    4.291E-09    4.311E-09    4.329E-09    4.346E-09    4.362E-09
     4.377E-09    4.391E-09    4.404E-09    4.416E-09    4.427E-09    4.437E-09    4.445E-09    4.453E-09    4.459E-09    4.464E-09
     4.468E-09    4.470E-09    4.472E-09    4.472E-09    4.471E-09    4.469E-09    4.466E-09    4.461E-09    4.455E-09    4.447E-09
     4.439E-09    4.429E-09    4.418E-09    4.405E-09    4.391E-09    4.376E-09    4.359E-09    4.341E-09    4.321E-09    4.300E-09
     4.278E-09    4.254E-09    4.229E-09    4.202E-09    4.174E-09    4.144E-09    4.113E-09    4.080E-09    4.046E-09    4.010E-09
     3.973E-09    3.934E-09    3.893E-09    3.851E-09    3.808E-09    3.762E-09    3.715E-09    3.667E-09    3.617E-09    3.565E-09
     3.512E-09    3.458E-09    3.402E-09    3.345E-09    3.287E-09    3.227E-09    3.167E-09    3.105E-09    3.043E-09    2.979E-09
     2.915E-09    2.850E-09    2.784E-09    2.717E-09    2.649E-09    2.581E-09    2.513E-09    2.443E-09    2.374E-09    2.304E-09
     2.233E-09    2.162E-09    2.091E-09    2.020E-09    1.949E-09    1.877E-09    1.806E-09    1.734E-09    1.662E-09    1.591E-09
     1.520E-09    1.449E-09    1.378E-09    1.307E-09    1.237E-09    1.168E-09    1.098E-09    1.030E-09    9.616E-10    8.942E-10
     8.274E-10    7.614E-10    6.962E-10    6.318E-10    5.683E-10    5.058E-10    4.442E-10    3.838E-10    3.244E-10    2.661E-10
     2.089E-10    1.528E-10    9.776E-11    4.375E-11   -9.221E-12   -6.117E-11   -1.121E-10   -1.620E-10   -2.109E-10   -2.589E-10
    -3.058E-10   -3.518E-10   -3.968E-10   -4.409E-10   -4.841E-10   -5.263E-10   -5.677E-10   -6.081E-10   -6.476E-10   -6.863E-10
    -7.241E-10   -7.610E-10   -7.971E-10   -8.323E-10   -8.668E-10   -9.004E-10   -9.332E-10   -9.652E-10   -9.964E-10   -1.027E-09
    -1.057E-09   -1.085E-09   -1.114E-09   -1.141E-09   -1.168E-09   -1.194E-09   -1.219E-09   -1.244E-09   -1.268E-09   -1.291E-09
    -1.314E-09   -1.336E-09   -1.357E-09   -1.378E-09   -1.398E-09   -1.418E-09   -1.436E-09   -1.455E-09   -1.473E-09   -1.490E-09
    -1.507E-09   -1.523E-09   -1.538E-09   -1.553E-09   -1.568E-09   -1.582E-09   -1.596E-09   -1.609E-09   -1.622E-09   -1.635E-09
    -1.647E-09   -1.659E-09   -1.670E-09   -1.681E-09   -1.692E-09   -1.702E-09   -1.712E-09   -1.722E-09   -1.732E-09   -1.741E-09
    -1.751E-09   -1.760E-09   -1.769E-09   -1.777E-09   -1.786E-09   -1.794E-09   -1.802E-09   -1.811E-09   -1.819E-09   -1.827E-09
    -1.835E-09   -1.843E-09   -1.850E-09   -1.858E-09   -1.866E-09   -1.874E-09   -1.882E-09   -1.890E-09   -1.899E-09   -1.907E-09
    -1.915E-09   -1.924E-09   -1.932E-09   -1.941E-09   -1.950E-09   -1.959E-09   -1.969E-09   -1.978E-09   -1.988E-09   -1.998E-09
    -2.009E-09   -2.020E-09   -2.031E-09   -2.042E-09   -2.054E-09   -2.066E-09   -2.078E-09   -2.090E-09   -2.103E-09   -2.116E-09
    -2.129E-09   -2.142E-09   -2.156E-09   -2.170E-09   -2.184E-09   -2.198E-09   -2.212E-09   -2.227E-09   -2.242E-09   -2.257E-09
    -2.272E-09   -2.287E-09   -2.302E-09   -2.318E-09   -2.334E-09   -2.349E-09   -2.365E-09   -2.381E-09   -2.397E-09   -2.414E-09
    -2.430E-09   -2.446E-09   -2.463E-09   -2.479E-09   -2.496E-09   -2.513E-09   -2.529E-09   -2.546E-09   -2.563E-09   -2.580E-09
    -2.596E-09   -2.613E-09   -2.630E-09   -2.647E-09   -2.663E-09   -2.680E-09   -2.697E-09   -2.713E-09   -2.730E-09   -2.747E-09
    -2.763E-09   -2.780E-09   -2.796E-09
 Ala      Conc. = 4.49E-10
  -2.86481E-10 -2.99214E-10 -2.06934E-10 -9.89510E-11 -8.63925E-11 -6.00254E-11  7.53262E-11  6.54297E-11  7.15691E-13  1.51063E-10
   1.76186E-10  1.12825E-10  1.80382E-10  2.23475E-10  2.41464E-10  2.76266E-10  3.19011E-10  3.65937E-10  4.15312E-10  4.66258E-10
   5.18252E-10  5.70979E-10  6.24237E-10  6.77877E-10  7.31788E-10  7.85908E-10  8.40172E-10  8.94540E-10  9.48971E-10  1.00344E-09
   1.05794E-09  1.11241E-09  1.16687E-09  1.22129E-09  1.27566E-09  1.32997E-09  1.38420E-09  1.43835E-09  1.49241E-09  1.54636E-09
   1.60021E-09  1.65395E-09  1.70755E-09  1.76102E-09  1.81436E-09  1.86756E-09  1.92061E-09  1.97350E-09  2.02622E-09  2.07877E-09
   2.13116E-09  2.18338E-09  2.23540E-09  2.28723E-09  2.33886E-09  2.39026E-09  2.44142E-09  2.49233E-09  2.54298E-09  2.59334E-09
   2.64341E-09  2.69316E-09  2.74260E-09  2.79169E-09  2.84043E-09  2.88880E-09  2.93679E-09  2.98439E-09  3.03158E-09  3.07836E-09
   3.12470E-09  3.17060E-09  3.21605E-09  3.26104E-09  3.30555E-09  3.34958E-09  3.39312E-09  3.43617E-09  3.47872E-09  3.52077E-09
   3.56232E-09  3.60338E-09  3.64396E-09  3.68408E-09  3.72376E-09  3.76304E-09  3.80198E-09  3.84064E-09  3.87914E-09  3.91763E-09
   3.95634E-09  3.99560E-09  4.03593E-09  4.07816E-09  4.12369E-09  4.17509E-09  4.23755E-09  4.32327E-09  4.46825E-09  4.82036E-09
   5.37099E-09  4.98333E-09  5.20144E-09  5.93654E-09  5.79352E-09  5.77259E-09  5.91983E-09  5.92749E-09  5.89907E-09  6.11166E-09
   6.08947E-09  5.22718E-09  5.40614E-09  5.60705E-09  4.95291E-09  4.74543E-09  4.66079E-09  4.61777E-09  4.59284E-09  4.57695E-09
   4.56590E-09  4.55749E-09  4.55046E-09  4.54402E-09  4.53766E-09  4.53104E-09  4.52392E-09  4.51611E-09  4.50749E-09  4.49795E-09
   4.48740E-09  4.47579E-09  4.46306E-09  4.44916E-09  4.43405E-09  4.41770E-09  4.40009E-09  4.38118E-09  4.36095E-09  4.33938E-09
   4.31644E-09  4.29212E-09  4.26641E-09  4.23929E-09  4.21073E-09  4.18072E-09  4.14926E-09  4.11633E-09  4.08192E-09  4.04602E-09
   4.00862E-09  3.96973E-09  3.92933E-09  3.88742E-09  3.84403E-09  3.79916E-09  3.75286E-09  3.70521E-09  3.65639E-09  3.60659E-09
   3.55615E-09  3.50559E-09  3.45592E-09  3.40937E-09  3.37183E-09  3.36458E-09  3.50783E-09  3.90007E-09  3.66146E-09  3.55671E-09
   3.54722E-09  3.48766E-09  3.42869E-09  3.41063E-09  3.34768E-09  3.24566E-09  3.28226E-09  3.27205E-09  2.64137E-09  2.43824E-09
   2.32484E-09  2.23435E-09  2.15231E-09  2.07415E-09  1.99803E-09  1.92314E-09  1.84903E-09  1.77547E-09  1.70238E-09  1.62969E-09
   1.55737E-09  1.48544E-09  1.41388E-09  1.34278E-09  1.27211E-09  1.20194E-09  1.13229E-09  1.06324E-09  9.94792E-10  9.27025E-10
   8.59976E-10  7.93692E-10  7.28228E-10  6.63627E-10  5.99943E-10  5.37223E-10  4.75541E-10  4.14904E-10  3.55390E-10  2.96974E-10
   2.39650E-10  1.83404E-10  1.28229E-10  7.41076E-11  2.10329E-11 -3.10122E-11 -8.20295E-11 -1.32034E-10 -1.81042E-10 -2.29063E-10
  -2.76096E-10 -3.22164E-10 -3.67277E-10 -4.11441E-10 -4.54672E-10 -4.96979E-10 -5.38360E-10 -5.78851E-10 -6.18455E-10 -6.57166E-10
  -6.95005E-10 -7.31988E-10 -7.68117E-10 -8.03413E-10 -8.37876E-10 -8.71529E-10 -9.04377E-10 -9.36424E-10 -9.67688E-10 -9.98177E-10
  -1.02790E-09 -1.05687E-09 -1.08510E-09 -1.11260E-09 -1.13938E-09 -1.16544E-09 -1.19082E-09 -1.21551E-09 -1.23951E-09 -1.26283E-09
  -1.28551E-09 -1.30755E-09 -1.32895E-09 -1.34971E-09 -1.36988E-09 -1.38943E-09 -1.40839E-09 -1.42677E-09 -1.44458E-09 -1.46184E-09
  -1.47854E-09 -1.49471E-09 -1.51037E-09 -1.52553E-09 -1.54020E-09 -1.55442E-09 -1.56818E-09 -1.58152E-09 -1.59444E-09 -1.60696E-09
  -1.61910E-09 -1.63087E-09 -1.64230E-09 -1.65340E-09 -1.66417E-09 -1.67465E-09 -1.68485E-09 -1.69479E-09 -1.70447E-09 -1.71392E-09
  -1.72316E-09 -1.73219E-09 -1.74104E-09 -1.74973E-09 -1.75827E-09 -1.76667E-09 -1.77496E-09 -1.78315E-09 -1.79125E-09 -1.79929E-09
  -1.80728E-09 -1.81523E-09 -1.82317E-09 -1.83111E-09 -1.83906E-09 -1.84704E-09 -1.85508E-09 -1.86318E-09 -1.87136E-09 -1.87964E-09
  -1.88804E-09 -1.89656E-09 -1.90524E-09 -1.91408E-09 -1.92311E-09 -1.93233E-09 -1.94177E-09 -1.95144E-09 -1.96135E-09 -1.97153E-09
  -1.98200E-09 -1.99275E-09 -2.00381E-09 -2.01516E-09 -2.02678E-09 -2.03868E-09 -2.05085E-09 -2.06328E-09 -2.07596E-09 -2.08889E-09
  -2.10205E-09 -2.11544E-09 -2.12906E-09 -2.14288E-09 -2.15692E-09 -2.17116E-09 -2.18558E-09 -2.20020E-09 -2.21499E-09 -2.22995E-09
  -2.24507E-09 -2.26035E-09 -2.27577E-09 -2.29133E-09 -2.30703E-09 -2.32285E-09 -2.33879E-09 -2.35484E-09 -2.37099E-09 -2.38723E-09
  -2.40357E-09 -2.41998E-09 -2.43647E-09 -2.45302E-09 -2.46962E-09 -2.48628E-09 -2.50298E-09 -2.51972E-09 -2.53648E-09 -2.55326E-09
  -2.57006E-09 -2.58686E-09 -2.60366E-09 -2.62044E-09 -2.63721E-09 -2.65396E-09 -2.67067E-09 -2.68734E-09 -2.70397E-09 -2.72054E-09
  -2.73705E-09 -2.75349E-09 -2.76985E-09
 Asp      Conc. = 2.68E-09
   2.29777E-09  2.39808E-09  1.79629E-09  1.85088E-09  1.32164E-09  1.27742E-09  1.14233E-09  8.29519E-10  4.48485E-10  3.20795E-10
   2.80575E-10  2.79863E-10  2.97520E-10  3.23871E-10  3.68998E-10  4.16623E-10  4.65632E-10  5.16717E-10  5.69680E-10  6.24296E-10
   6.80373E-10  7.37802E-10  7.96543E-10  8.56603E-10  9.18048E-10  9.81026E-10  1.04575E-09  1.11254E-09  1.18184E-09  1.25432E-09
   1.33093E-09  1.41310E-09  1.50317E-09  1.60507E-09  1.72630E-09  1.88342E-09  2.12190E-09  2.52895E-09  2.52506E-09  2.85059E-09
   2.72867E-09  2.78425E-09  3.02910E-09  3.63788E-09  4.24797E-09  5.12953E-09  5.81039E-09  5.19438E-09  4.89276E-09  6.14723E-09
   5.69911E-09  5.70421E-09  6.35545E-09  6.47638E-09  6.12205E-09  6.23350E-09  5.92065E-09  4.42986E-09  4.48339E-09  5.16723E-09
   4.28192E-09  3.97308E-09  4.08100E-09  3.73435E-09  3.56108E-09  3.74539E-09  3.95702E-09  3.72342E-09  3.61748E-09  3.57028E-09
   3.55191E-09  3.54998E-09  3.55838E-09  3.57369E-09  3.59383E-09  3.61745E-09  3.64359E-09  3.67160E-09  3.70097E-09  3.73133E-09
   3.76239E-09  3.79391E-09  3.82572E-09  3.85765E-09  3.88958E-09  3.92141E-09  3.95303E-09  3.98438E-09  4.01539E-09  4.04598E-09
   4.07612E-09  4.10574E-09  4.13481E-09  4.16329E-09  4.19114E-09  4.21832E-09  4.24481E-09  4.27057E-09  4.29557E-09  4.31979E-09
   4.34321E-09  4.36579E-09  4.38752E-09  4.40837E-09  4.42833E-09  4.44737E-09  4.46547E-09  4.48261E-09  4.49879E-09  4.51397E-09
   4.52816E-09  4.54133E-09  4.55347E-09  4.56455E-09  4.57458E-09  4.58352E-09  4.59136E-09  4.59811E-09  4.60372E-09  4.60821E-09
   4.61154E-09  4.61371E-09  4.61470E-09  4.61450E-09  4.61310E-09  4.61048E-09  4.60664E-09  4.60155E-09  4.59521E-09  4.58760E-09
   4.57871E-09  4.56854E-09  4.55706E-09  4.54426E-09  4.53015E-09  4.51469E-09  4.49789E-09  4.47973E-09  4.46021E-09  4.43932E-09
   4.41705E-09  4.39338E-09  4.36832E-09  4.34186E-09  4.31400E-09  4.28473E-09  4.25406E-09  4.22200E-09  4.18854E-09  4.15372E-09
   4.11754E-09  4.08004E-09  4.04128E-09  4.00129E-09  3.96018E-09  3.91807E-09  3.87515E-09  3.83170E-09  3.78820E-09  3.74529E-09
   3.70399E-09  3.66596E-09  3.63417E-09  3.61440E-09  3.61962E-09  3.68463E-09  3.93444E-09  5.06465E-09  7.71372E-09  6.62367E-09
   6.30668E-09  6.56644E-09  6.53663E-09  6.51027E-09  6.73164E-09  6.69434E-09  6.42122E-09  6.96491E-09  7.27083E-09  3.87361E-09
   2.99370E-09  2.66293E-09  2.47313E-09  2.33597E-09  2.22335E-09  2.12397E-09  2.03247E-09  1.94600E-09  1.86301E-09  1.78252E-09
   1.70392E-09  1.62684E-09  1.55100E-09  1.47628E-09  1.40253E-09  1.32970E-09  1.25775E-09  1.18667E-09  1.11644E-09  1.04709E-09
   9.78622E-10  9.11065E-10  8.44451E-10  7.78808E-10  7.14175E-10  6.50588E-10  5.88108E-10  5.26737E-10  4.66547E-10  4.07503E-10
   3.49597E-10  2.92808E-10  2.37125E-10  1.82529E-10  1.29011E-10  7.65481E-11  2.51361E-11 -2.52389E-11 -7.45977E-11 -1.22950E-10
  -1.70299E-10 -2.16668E-10 -2.62066E-10 -3.06502E-10 -3.49993E-10 -3.92546E-10 -4.34166E-10 -4.74884E-10 -5.14705E-10 -5.53625E-10
