 LCModel (Version 6.3-1R) Copyright: S.W. Provencher.          Ref.: Magn. Reson. Med. 30:672-679 (1993).                
 onepulse 22x13_ftSpec_smooth_lcm
 26 lines in following concentration table = NCONC+1
    Conc.  %SD   /Cr    Metabolite                                         
 1.56E-10 141%   0.000 Ala                                                 
 7.25E-10  58%   0.000 Asp                                                 
    0.000 999%   0.000 Cr                                                  
 3.32E-09  11%   0.000 GABA                                                
 1.57E-09  23%   0.000 Glc                                                 
    0.000 999%   0.000 Gln                                                 
 6.01E-12 999%   0.000 Glu                                                 
 1.34E-10 189%   0.000 Glyc                                                
    0.000 999%   0.000 GPC                                                 
    0.000 999%   0.000 GSH                                                 
    0.000 999%   0.000 Ins                                                 
    0.000 999%   0.000 Lac                                                 
    0.000 999%   0.000 NAAG                                                
 1.23E-09  16%   0.000 NAA                                                 
 1.38E-10  43%   0.000 PCh                                                 
    0.000 999%   0.000 PCr                                                 
    0.000 999%   0.000 PE                                                  
    0.000 999%   0.000 Scyllo                                              
    0.000 999%   0.000 Ser                                                 
    0.000 999%   0.000 Tau                                                 
 1.38E-10  43%   0.000 GPC+PCh                                             
 1.23E-09  16%   0.000 NAA+NAAG                                            
 1.34E-10 189%   0.000 Ins+Glyc                                            
    0.000 999%   0.000 Cr+PCr                                              
 6.01E-12 999%   0.000 Glu+Gln                                             
   6 lines in following misc. output table
  FWHM = 0.078 ppm    S/N =   4                                            
  Data shift = 0.347 ppm                                                   
  Ph:  78 deg      28.1 deg/ppm                                            
  alphaB,S = 1.6E-01,   6.0E+01                                            
   16 spline knots.   Ns = 5(1)                                            
  ( 7) 2 infls.   ( 3) 1 extrs.                                            
  363 points on ppm-axis = NY
      4.250000     4.238821     4.227641     4.216462     4.205282     4.194103     4.182923     4.171744     4.160564     4.149385
      4.138206     4.127026     4.115847     4.104667     4.093488     4.082308     4.071129     4.059949     4.048770     4.037591
      4.026411     4.015232     4.004052     3.992873     3.981693     3.970514     3.959334     3.948155     3.936975     3.925796
      3.914617     3.903437     3.892258     3.881078     3.869899     3.858719     3.847540     3.836360     3.825181     3.814002
      3.802822     3.791643     3.780463     3.769284     3.758104     3.746925     3.735745     3.724566     3.713387     3.702207
      3.691028     3.679848     3.668669     3.657489     3.646310     3.635130     3.623951     3.612772     3.601592     3.590413
      3.579233     3.568054     3.556874     3.545695     3.534515     3.523336     3.512156     3.500977     3.489798     3.478618
      3.467439     3.456259     3.445080     3.433900     3.422721     3.411541     3.400362     3.389183     3.378003     3.366824
      3.355644     3.344465     3.333285     3.322106     3.310926     3.299747     3.288568     3.277388     3.266209     3.255029
      3.243850     3.232670     3.221491     3.210311     3.199132     3.187953     3.176773     3.165594     3.154414     3.143235
      3.132055     3.120876     3.109696     3.098517     3.087337     3.076158     3.064979     3.053799     3.042620     3.031440
      3.020261     3.009081     2.997902     2.986722     2.975543     2.964364     2.953184     2.942005     2.930825     2.919646
      2.908466     2.897287     2.886107     2.874928     2.863749     2.852569     2.841390     2.830210     2.819031     2.807851
      2.796672     2.785492     2.774313     2.763134     2.751954     2.740775     2.729595     2.718416     2.707236     2.696057
      2.684877     2.673698     2.662519     2.651339     2.640160     2.628980     2.617801     2.606621     2.595442     2.584262
      2.573083     2.561903     2.550724     2.539545     2.528365     2.517186     2.506006     2.494827     2.483647     2.472468
      2.461288     2.450109     2.438930     2.427750     2.416571     2.405391     2.394212     2.383032     2.371853     2.360673
      2.349494     2.338315     2.327135     2.315956     2.304776     2.293597     2.282417     2.271238     2.260058     2.248879
      2.237700     2.226520     2.215341     2.204161     2.192982     2.181802     2.170623     2.159443     2.148264     2.137084
      2.125905     2.114726     2.103546     2.092367     2.081187     2.070008     2.058828     2.047649     2.036469     2.025290
      2.014111     2.002931     1.991752     1.980572     1.969393     1.958213     1.947034     1.935854     1.924675     1.913496
      1.902316     1.891137     1.879957     1.868778     1.857598     1.846419     1.835239     1.824060     1.812881     1.801701
      1.790522     1.779342     1.768163     1.756983     1.745804     1.734624     1.723445     1.712265     1.701086     1.689907
      1.678727     1.667548     1.656368     1.645189     1.634009     1.622830     1.611650     1.600471     1.589292     1.578112
      1.566933     1.555753     1.544574     1.533394     1.522215     1.511035     1.499856     1.488677     1.477497     1.466318
      1.455138     1.443959     1.432779     1.421600     1.410420     1.399241     1.388062     1.376882     1.365703     1.354523
      1.343344     1.332164     1.320985     1.309805     1.298626     1.287446     1.276267     1.265088     1.253908     1.242729
      1.231549     1.220370     1.209190     1.198011     1.186831     1.175652     1.164473     1.153293     1.142114     1.130934
      1.119755     1.108575     1.097396     1.086216     1.075037     1.063858     1.052678     1.041499     1.030319     1.019140
      1.007960     0.996781     0.985601     0.974422     0.963243     0.952063     0.940884     0.929704     0.918525     0.907345
      0.896166     0.884986     0.873807     0.862628     0.851448     0.840269     0.829089     0.817910     0.806730     0.795551
      0.784371     0.773192     0.762012     0.750833     0.739654     0.728474     0.717295     0.706115     0.694936     0.683756
      0.672577     0.661397     0.650218     0.639039     0.627859     0.616680     0.605500     0.594321     0.583141     0.571962
      0.560782     0.549603     0.538424     0.527244     0.516065     0.504885     0.493706     0.482526     0.471347     0.460167
      0.448988     0.437809     0.426629     0.415450     0.404270     0.393091     0.381911     0.370732     0.359552     0.348373
      0.337193     0.326014     0.314835     0.303655     0.292476     0.281296     0.270117     0.258937     0.247758     0.236578
      0.225399     0.214220     0.203040
 NY phased data points follow
   5.61989E-09  7.97754E-09  9.59036E-09  9.18780E-09  8.17815E-09  8.01256E-09  7.39689E-09  6.70019E-09  6.50797E-09  5.89555E-09
   5.77825E-09  5.90046E-09  6.45361E-09  6.35585E-09  6.91618E-09  7.70738E-09  8.76757E-09  8.27552E-09  8.21272E-09  8.34151E-09
   8.10515E-09  7.71579E-09  7.60784E-09  7.17226E-09  8.34905E-09  8.30011E-09  8.94289E-09  8.79672E-09  8.53504E-09  7.79279E-09
   8.37428E-09  8.78578E-09  1.12018E-08  1.17882E-08  1.27656E-08  1.25232E-08  1.19158E-08  1.06470E-08  9.76613E-09  9.01714E-09
   9.13266E-09  8.62534E-09  8.11005E-09  8.18020E-09  8.34487E-09  7.17835E-09  7.29032E-09  5.99719E-09  6.11721E-09  5.62763E-09
   5.64269E-09  6.25796E-09  5.45753E-09  5.55685E-09  6.24002E-09  4.71891E-09  4.27475E-09  3.79452E-09  3.79439E-09  3.68349E-09
   4.32923E-09  4.53211E-09  6.67151E-09  9.89722E-09  1.33548E-08  1.38727E-08  1.39785E-08  1.23743E-08  1.09469E-08  9.30721E-09
   8.21608E-09  7.93893E-09  6.87455E-09  5.83031E-09  5.02229E-09  4.90493E-09  4.36051E-09  4.46107E-09  5.32119E-09  7.83660E-09
   1.22113E-08  1.51561E-08  1.53753E-08  1.39951E-08  1.35408E-08  1.26400E-08  1.18770E-08  1.12602E-08  1.10344E-08  1.01021E-08
   1.02998E-08  9.88045E-09  9.01413E-09  9.07358E-09  8.78930E-09  7.63924E-09  7.83655E-09  7.18853E-09  7.13344E-09  6.54881E-09
   6.05929E-09  5.58122E-09  6.58550E-09  6.58088E-09  6.10080E-09  5.71952E-09  6.43188E-09  6.04108E-09  5.05910E-09  5.19154E-09
   4.27035E-09  3.84576E-09  3.34320E-09  4.19760E-09  4.25239E-09  4.69568E-09  4.48592E-09  4.88225E-09  5.59796E-09  4.94038E-09
   5.14867E-09  5.21843E-09  5.01980E-09  4.21562E-09  3.75758E-09  3.39863E-09  3.28523E-09  2.94153E-09  3.04196E-09  3.53335E-09
   3.43215E-09  3.38697E-09  3.74051E-09  3.19935E-09  3.25494E-09  3.26520E-09  3.10112E-09  3.37298E-09  2.81945E-09  3.02844E-09
   4.84004E-09  5.46261E-09  5.21913E-09  4.46855E-09  4.91636E-09  4.85940E-09  5.78850E-09  5.13062E-09  6.41395E-09  5.16946E-09
   4.82047E-09  5.08808E-09  4.50325E-09  4.29046E-09  3.90409E-09  4.13206E-09  3.78401E-09  3.91959E-09  4.11030E-09  3.93609E-09
   4.24531E-09  4.01082E-09  4.19207E-09  4.22809E-09  3.59549E-09  3.76078E-09  4.26767E-09  5.33273E-09  6.28159E-09  7.16677E-09
   9.27803E-09  1.47207E-08  1.72942E-08  1.62623E-08  1.36501E-08  1.12256E-08  9.70744E-09  8.61344E-09  6.99364E-09  5.57389E-09
   4.86149E-09  3.84980E-09  2.92689E-09  1.99782E-09  1.03845E-09  3.27292E-10 -7.43227E-10 -1.45441E-09 -2.86659E-09 -4.40097E-09
  -4.64321E-09 -5.59884E-09 -7.02432E-09 -8.41433E-09 -9.43306E-09 -1.10814E-08 -1.12046E-08 -1.20709E-08 -1.30862E-08 -1.34317E-08
  -1.33961E-08 -1.35314E-08 -1.28788E-08 -1.25593E-08 -1.12026E-08 -1.05059E-08 -9.00591E-09 -7.88665E-09 -6.71416E-09 -5.39375E-09
  -3.92905E-09 -3.26531E-09 -2.00990E-09 -1.15686E-09 -1.23735E-09 -8.47165E-10 -1.07612E-09 -7.21136E-10 -1.28460E-09 -1.50018E-09
  -1.96413E-09 -1.49340E-09 -9.25198E-10 -9.28016E-10 -8.80088E-10 -9.93079E-10 -1.03865E-09 -9.42642E-10 -9.50350E-10 -8.60159E-10
  -8.05969E-10 -1.14711E-09 -1.21659E-09 -1.54803E-09 -1.02505E-09 -8.19349E-10 -8.43627E-10 -4.20412E-10 -9.21816E-10 -2.99203E-10
  -6.15110E-10 -6.18472E-10 -8.24983E-10 -1.58693E-09 -1.14897E-09 -5.26086E-10 -7.82714E-10 -9.94233E-10 -7.59595E-10 -1.28086E-10
  -8.07552E-11 -9.25377E-11  1.69437E-10  3.83095E-10 -3.64005E-12 -2.64326E-10  1.01641E-10 -1.28526E-09 -7.97487E-10 -9.13370E-10
  -8.21514E-10 -1.60053E-09 -1.17216E-09 -1.22729E-09 -8.11115E-10 -6.09312E-10 -2.36441E-10 -7.83338E-10  2.21320E-10 -5.73946E-11
   6.80064E-10  6.21609E-10  8.83501E-10  7.68207E-10  9.36618E-10  6.92342E-10  3.91615E-10  6.47176E-10 -1.53830E-10  9.17117E-11
   1.19362E-11  9.99367E-11 -2.20137E-10 -4.38122E-10 -5.40249E-10 -8.14392E-10 -5.63602E-10 -8.39941E-10 -3.24637E-10 -2.64202E-10
  -9.63853E-10 -8.87184E-10 -2.72964E-10 -6.92522E-10 -4.06351E-10 -6.25023E-10 -1.95250E-10 -5.43518E-10 -6.22571E-10 -6.83517E-10
  -1.68877E-10 -4.86550E-10 -5.55921E-10 -1.89709E-11 -3.28706E-10  2.30461E-10 -5.46007E-10  2.37542E-10 -2.58339E-10 -4.77817E-10
   5.30179E-10  3.16045E-10 -2.13795E-10  3.69771E-10  4.96927E-11 -1.14147E-10  7.14899E-10  3.95961E-10  5.64721E-10  5.76610E-10
   4.28587E-10  7.76514E-10  4.65781E-10  5.73538E-10  3.38286E-10  6.00575E-10  6.04195E-10  8.45468E-10  8.06203E-10  3.94172E-10
   1.28657E-09  9.22911E-10  6.79992E-10  1.00321E-09  8.06495E-10  1.01148E-09  7.74560E-10  8.47151E-10  7.17723E-10  1.33416E-09
   1.36634E-09  6.47839E-10  1.23693E-09  1.21388E-09  1.74885E-09  6.05685E-10  1.55417E-09  1.24981E-09  1.42437E-09  1.10903E-09
   1.46334E-09  1.53813E-09  1.62562E-09  1.56409E-09  1.51981E-09  1.63108E-09  1.60077E-09  1.56121E-09  2.15820E-09  2.03623E-09
   1.34634E-09  1.15454E-09  1.62854E-09
 NY points of the fit to the data follow
   7.23613E-09  7.63711E-09  7.92776E-09  8.09878E-09  8.04436E-09  7.76421E-09  7.33240E-09  6.85627E-09  6.48313E-09  6.15442E-09
   6.04524E-09  6.09028E-09  6.22049E-09  6.44363E-09  6.81048E-09  7.28918E-09  7.85343E-09  8.45463E-09  8.93691E-09  9.14427E-09
   9.11809E-09  8.79790E-09  8.29010E-09  7.83782E-09  7.52973E-09  7.36285E-09  7.50438E-09  8.00436E-09  8.60394E-09  9.18065E-09
   9.53453E-09  9.87655E-09  1.04292E-08  1.07884E-08  1.08820E-08  1.11925E-08  1.15984E-08  1.16191E-08  1.11849E-08  1.04784E-08
   9.71941E-09  8.95305E-09  7.72059E-09  6.66051E-09  6.30581E-09  5.96329E-09  5.60564E-09  5.57097E-09  5.64951E-09  5.72217E-09
   5.78590E-09  5.83301E-09  5.88935E-09  5.89516E-09  5.83542E-09  5.77183E-09  5.72894E-09  5.76898E-09  5.79784E-09  5.84664E-09
   6.06551E-09  6.54010E-09  7.18112E-09  7.92379E-09  9.02668E-09  1.01152E-08  1.08758E-08  1.14172E-08  1.17323E-08  1.16253E-08
   1.10752E-08  1.01417E-08  9.07622E-09  8.21229E-09  7.23402E-09  6.19208E-09  6.02337E-09  6.70190E-09  7.69975E-09  9.24705E-09
   1.11095E-08  1.27702E-08  1.38855E-08  1.42473E-08  1.39106E-08  1.32634E-08  1.23818E-08  1.10574E-08  9.60571E-09  9.18405E-09
   9.06407E-09  9.01225E-09  8.74967E-09  8.16693E-09  7.75122E-09  7.40742E-09  6.80050E-09  6.32355E-09  6.05074E-09  5.78211E-09
   5.60870E-09  5.52722E-09  5.50644E-09  5.54317E-09  5.59240E-09  5.62490E-09  5.63589E-09  5.62337E-09  5.57112E-09  5.46416E-09
   5.31468E-09  5.17299E-09  5.08619E-09  4.97114E-09  4.85108E-09  4.79545E-09  4.76003E-09  4.73232E-09  4.70803E-09  4.68518E-09
   4.66271E-09  4.63994E-09  4.61639E-09  4.59170E-09  4.56560E-09  4.53787E-09  4.50833E-09  4.47681E-09  4.44320E-09  4.40736E-09
   4.36916E-09  4.32850E-09  4.28528E-09  4.23939E-09  4.19075E-09  4.13928E-09  4.08488E-09  4.02748E-09  3.96700E-09  3.90336E-09
   3.83648E-09  3.76636E-09  3.69298E-09  3.61632E-09  3.53638E-09  3.45318E-09  3.36672E-09  3.27703E-09  3.18412E-09  3.08803E-09
   2.98883E-09  2.88659E-09  2.78142E-09  2.67348E-09  2.56298E-09  2.45019E-09  2.33553E-09  2.21959E-09  2.10323E-09  1.98777E-09
   1.87529E-09  1.76926E-09  1.67593E-09  1.60748E-09  1.59194E-09  1.71197E-09  2.33786E-09  4.02367E-09  6.52710E-09  9.56516E-09
   1.27533E-08  1.53317E-08  1.65048E-08  1.60494E-08  1.43706E-08  1.19109E-08  8.74032E-09  4.93288E-09  1.58180E-09  6.09612E-11
  -6.02558E-10 -1.02455E-09 -1.34608E-09 -1.61431E-09 -1.84956E-09 -2.06199E-09 -2.25711E-09 -2.43810E-09 -2.60682E-09 -2.76438E-09
  -2.91140E-09 -3.04818E-09 -3.17481E-09 -3.29122E-09 -3.39729E-09 -3.49278E-09 -3.57757E-09 -3.65202E-09 -3.71655E-09 -3.77159E-09
  -3.81752E-09 -3.85471E-09 -3.88352E-09 -3.90431E-09 -3.91742E-09 -3.92319E-09 -3.92195E-09 -3.91403E-09 -3.89975E-09 -3.87943E-09
  -3.85340E-09 -3.82197E-09 -3.78545E-09 -3.74416E-09 -3.69841E-09 -3.64850E-09 -3.59476E-09 -3.53747E-09 -3.47696E-09 -3.41353E-09
  -3.34749E-09 -3.27913E-09 -3.20877E-09 -3.13670E-09 -3.06320E-09 -2.98840E-09 -2.91246E-09 -2.83552E-09 -2.75771E-09 -2.67920E-09
  -2.60011E-09 -2.52060E-09 -2.44080E-09 -2.36086E-09 -2.28091E-09 -2.20111E-09 -2.12160E-09 -2.04251E-09 -1.96397E-09 -1.88617E-09
  -1.80921E-09 -1.73324E-09 -1.65841E-09 -1.58486E-09 -1.51272E-09 -1.44213E-09 -1.37325E-09 -1.30621E-09 -1.24115E-09 -1.17822E-09
  -1.11754E-09 -1.05928E-09 -1.00347E-09 -9.50056E-10 -8.98970E-10 -8.50150E-10 -8.03517E-10 -7.59013E-10 -7.16562E-10 -6.76101E-10
  -6.37563E-10 -6.00871E-10 -5.65969E-10 -5.32778E-10 -5.01239E-10 -4.71280E-10 -4.42819E-10 -4.15816E-10 -3.90189E-10 -3.65863E-10
  -3.42772E-10 -3.20858E-10 -3.00040E-10 -2.80255E-10 -2.61445E-10 -2.43519E-10 -2.26434E-10 -2.10106E-10 -1.94475E-10 -1.79464E-10
  -1.65022E-10 -1.51100E-10 -1.37647E-10 -1.24614E-10 -1.11958E-10 -9.96246E-11 -8.75698E-11 -7.57409E-11 -6.40910E-11 -5.25743E-11
  -4.11388E-11 -2.97379E-11 -1.83222E-11 -6.84341E-12  4.74504E-12  1.64946E-11  2.84509E-11  4.06646E-11  5.31793E-11  6.60528E-11
   7.93225E-11  9.30446E-11  1.07266E-10  1.22029E-10  1.37389E-10  1.53392E-10  1.70084E-10  1.87516E-10  2.05683E-10  2.24566E-10
   2.44140E-10  2.64382E-10  2.85269E-10  3.06779E-10  3.28887E-10  3.51571E-10  3.74807E-10  3.98572E-10  4.22842E-10  4.47596E-10
   4.72808E-10  4.98457E-10  5.24520E-10  5.50971E-10  5.77791E-10  6.04952E-10  6.32434E-10  6.60214E-10  6.88267E-10  7.16570E-10
   7.45102E-10  7.73839E-10  8.02757E-10  8.31833E-10  8.61044E-10  8.90370E-10  9.19800E-10  9.49327E-10  9.78948E-10  1.00866E-09
   1.03845E-09  1.06831E-09  1.09825E-09  1.12825E-09  1.15831E-09  1.18843E-09  1.21860E-09  1.24881E-09  1.27905E-09  1.30933E-09
   1.33964E-09  1.36997E-09  1.40031E-09  1.43067E-09  1.46103E-09  1.49138E-09  1.52174E-09  1.55208E-09  1.58240E-09  1.61270E-09
   1.64298E-09  1.67322E-09  1.70342E-09
 NY background values follow
     1.248E-09    1.263E-09    1.277E-09    1.292E-09    1.306E-09    1.321E-09    1.336E-09    1.351E-09    1.365E-09    1.380E-09
     1.395E-09    1.411E-09    1.426E-09    1.441E-09    1.456E-09    1.472E-09    1.487E-09    1.502E-09    1.518E-09    1.533E-09
     1.549E-09    1.565E-09    1.580E-09    1.596E-09    1.612E-09    1.628E-09    1.644E-09    1.659E-09    1.675E-09    1.691E-09
     1.707E-09    1.724E-09    1.740E-09    1.756E-09    1.773E-09    1.790E-09    1.807E-09    1.824E-09    1.842E-09    1.859E-09
     1.878E-09    1.896E-09    1.915E-09    1.935E-09    1.955E-09    1.975E-09    1.996E-09    2.017E-09    2.039E-09    2.062E-09
     2.085E-09    2.109E-09    2.134E-09    2.159E-09    2.185E-09    2.212E-09    2.240E-09    2.268E-09    2.297E-09    2.327E-09
     2.358E-09    2.389E-09    2.421E-09    2.453E-09    2.486E-09    2.519E-09    2.553E-09    2.587E-09    2.622E-09    2.657E-09
     2.692E-09    2.727E-09    2.762E-09    2.798E-09    2.834E-09    2.869E-09    2.905E-09    2.941E-09    2.976E-09    3.012E-09
     3.047E-09    3.082E-09    3.117E-09    3.152E-09    3.186E-09    3.220E-09    3.253E-09    3.286E-09    3.319E-09    3.351E-09
     3.382E-09    3.413E-09    3.443E-09    3.472E-09    3.500E-09    3.528E-09    3.555E-09    3.581E-09    3.606E-09    3.630E-09
     3.653E-09    3.674E-09    3.695E-09    3.715E-09    3.733E-09    3.750E-09    3.765E-09    3.780E-09    3.793E-09    3.804E-09
     3.814E-09    3.822E-09    3.829E-09    3.834E-09    3.838E-09    3.839E-09    3.839E-09    3.837E-09    3.833E-09    3.827E-09
     3.819E-09    3.808E-09    3.796E-09    3.781E-09    3.763E-09    3.743E-09    3.721E-09    3.696E-09    3.669E-09    3.638E-09
     3.605E-09    3.569E-09    3.531E-09    3.489E-09    3.444E-09    3.396E-09    3.345E-09    3.290E-09    3.233E-09    3.172E-09
     3.107E-09    3.039E-09    2.967E-09    2.892E-09    2.814E-09    2.732E-09    2.646E-09    2.557E-09    2.465E-09    2.368E-09
     2.268E-09    2.165E-09    2.058E-09    1.947E-09    1.833E-09    1.715E-09    1.593E-09    1.468E-09    1.339E-09    1.206E-09
     1.070E-09    9.294E-10    7.855E-10    6.378E-10    4.864E-10    3.312E-10    1.722E-10    9.343E-12   -1.572E-10   -3.271E-10
    -4.999E-10   -6.751E-10   -8.522E-10   -1.031E-09   -1.210E-09   -1.390E-09   -1.570E-09   -1.749E-09   -1.927E-09   -2.104E-09
    -2.279E-09   -2.451E-09   -2.620E-09   -2.786E-09   -2.948E-09   -3.105E-09   -3.257E-09   -3.404E-09   -3.545E-09   -3.680E-09
    -3.808E-09   -3.928E-09   -4.041E-09   -4.145E-09   -4.240E-09   -4.326E-09   -4.403E-09   -4.470E-09   -4.527E-09   -4.576E-09
    -4.617E-09   -4.649E-09   -4.673E-09   -4.689E-09   -4.698E-09   -4.701E-09   -4.696E-09   -4.685E-09   -4.668E-09   -4.645E-09
    -4.616E-09   -4.582E-09   -4.543E-09   -4.500E-09   -4.452E-09   -4.400E-09   -4.345E-09   -4.286E-09   -4.223E-09   -4.158E-09
    -4.091E-09   -4.021E-09   -3.949E-09   -3.876E-09   -3.801E-09   -3.725E-09   -3.648E-09   -3.570E-09   -3.491E-09   -3.411E-09
    -3.331E-09   -3.251E-09   -3.170E-09   -3.089E-09   -3.008E-09   -2.927E-09   -2.847E-09   -2.767E-09   -2.688E-09   -2.609E-09
    -2.531E-09   -2.455E-09   -2.379E-09   -2.305E-09   -2.232E-09   -2.161E-09   -2.091E-09   -2.023E-09   -1.958E-09   -1.894E-09
    -1.833E-09   -1.774E-09   -1.718E-09   -1.664E-09   -1.612E-09   -1.563E-09   -1.515E-09   -1.470E-09   -1.427E-09   -1.386E-09
    -1.347E-09   -1.310E-09   -1.275E-09   -1.241E-09   -1.209E-09   -1.178E-09   -1.149E-09   -1.122E-09   -1.096E-09   -1.071E-09
    -1.047E-09   -1.025E-09   -1.004E-09   -9.834E-10   -9.641E-10   -9.457E-10   -9.282E-10   -9.114E-10   -8.953E-10   -8.798E-10
    -8.650E-10   -8.506E-10   -8.367E-10   -8.232E-10   -8.101E-10   -7.973E-10   -7.848E-10   -7.726E-10   -7.605E-10   -7.485E-10
    -7.367E-10   -7.248E-10   -7.130E-10   -7.011E-10   -6.891E-10   -6.769E-10   -6.645E-10   -6.519E-10   -6.389E-10   -6.256E-10
    -6.119E-10   -5.978E-10   -5.831E-10   -5.679E-10   -5.522E-10   -5.357E-10   -5.186E-10   -5.007E-10   -4.822E-10   -4.628E-10
    -4.428E-10   -4.222E-10   -4.009E-10   -3.789E-10   -3.564E-10   -3.333E-10   -3.096E-10   -2.854E-10   -2.607E-10   -2.355E-10
    -2.099E-10   -1.838E-10   -1.573E-10   -1.304E-10   -1.032E-10   -7.557E-11   -4.765E-11   -1.943E-11    9.062E-12    3.781E-11
     6.678E-11    9.596E-11    1.253E-10    1.548E-10    1.845E-10    2.143E-10    2.442E-10    2.741E-10    3.042E-10    3.344E-10
     3.646E-10    3.950E-10    4.253E-10    4.558E-10    4.863E-10    5.169E-10    5.476E-10    5.782E-10    6.089E-10    6.397E-10
     6.705E-10    7.013E-10    7.321E-10    7.629E-10    7.938E-10    8.246E-10    8.555E-10    8.863E-10    9.171E-10    9.479E-10
     9.787E-10    1.009E-09    1.040E-09
 Ala      Conc. = 1.56E-10
   1.36552E-09  1.39175E-09  1.41348E-09  1.43224E-09  1.44813E-09  1.46054E-09  1.46696E-09  1.46567E-09  1.46813E-09  1.47372E-09
   1.46934E-09  1.46832E-09  1.47591E-09  1.48170E-09  1.48866E-09  1.49904E-09  1.51117E-09  1.52432E-09  1.53812E-09  1.55237E-09
   1.56696E-09  1.58180E-09  1.59683E-09  1.61203E-09  1.62736E-09  1.64280E-09  1.65834E-09  1.67396E-09  1.68966E-09  1.70543E-09
   1.72130E-09  1.73728E-09  1.75341E-09  1.76970E-09  1.78619E-09  1.80289E-09  1.81984E-09  1.83707E-09  1.85459E-09  1.87244E-09
   1.89065E-09  1.90923E-09  1.92823E-09  1.94766E-09  1.96756E-09  1.98794E-09  2.00885E-09  2.03031E-09  2.05234E-09  2.07498E-09
   2.09825E-09  2.12218E-09  2.14680E-09  2.17213E-09  2.19822E-09  2.22507E-09  2.25271E-09  2.28117E-09  2.31039E-09  2.34033E-09
   2.37096E-09  2.40222E-09  2.43409E-09  2.46651E-09  2.49945E-09  2.53287E-09  2.56672E-09  2.60096E-09  2.63555E-09  2.67045E-09
   2.70561E-09  2.74101E-09  2.77660E-09  2.81233E-09  2.84816E-09  2.88407E-09  2.92001E-09  2.95593E-09  2.99180E-09  3.02759E-09
   3.06325E-09  3.09875E-09  3.13405E-09  3.16914E-09  3.20395E-09  3.23849E-09  3.27272E-09  3.30661E-09  3.34016E-09  3.37335E-09
   3.40621E-09  3.43876E-09  3.47109E-09  3.50330E-09  3.53561E-09  3.56841E-09  3.60240E-09  3.63900E-09  3.68158E-09  3.74074E-09
   3.83582E-09  3.94218E-09  4.06001E-09  4.20330E-09  4.33697E-09  4.43816E-09  4.50592E-09  4.54100E-09  4.52916E-09  4.45683E-09
   4.33755E-09  4.22237E-09  4.15892E-09  4.06453E-09  3.96278E-09  3.92335E-09  3.90253E-09  3.88804E-09  3.87575E-09  3.86382E-09
   3.85130E-09  3.83761E-09  3.82238E-09  3.80535E-09  3.78631E-09  3.76512E-09  3.74163E-09  3.71575E-09  3.68736E-09  3.65636E-09
   3.62268E-09  3.58623E-09  3.54693E-09  3.50470E-09  3.45947E-09  3.41116E-09  3.35970E-09  3.30503E-09  3.24707E-09  3.18575E-09
   3.12098E-09  3.05278E-09  2.98110E-09  2.90594E-09  2.82728E-09  2.74511E-09  2.65941E-09  2.57018E-09  2.47739E-09  2.38103E-09
   2.28111E-09  2.17759E-09  2.07048E-09  1.95976E-09  1.84543E-09  1.72746E-09  1.60588E-09  1.48065E-09  1.35182E-09  1.21936E-09
   1.08331E-09  9.43742E-10  8.00771E-10  6.54594E-10  5.05778E-10  3.55871E-10  2.11725E-10  9.18641E-11 -1.47449E-11 -1.12644E-10
  -2.08861E-10 -3.21043E-10 -4.68398E-10 -6.55248E-10 -8.69720E-10 -1.10023E-09 -1.34606E-09 -1.60805E-09 -1.86260E-09 -2.06194E-09
  -2.24589E-09 -2.42310E-09 -2.59547E-09 -2.76338E-09 -2.92673E-09 -3.08526E-09 -3.23859E-09 -3.38632E-09 -3.52798E-09 -3.66315E-09
  -3.79135E-09 -3.91213E-09 -4.02499E-09 -4.12944E-09 -4.22503E-09 -4.31126E-09 -4.38782E-09 -4.45491E-09 -4.51283E-09 -4.56188E-09
  -4.60237E-09 -4.63460E-09 -4.65887E-09 -4.67548E-09 -4.68474E-09 -4.68694E-09 -4.68238E-09 -4.67138E-09 -4.65422E-09 -4.63121E-09
  -4.60265E-09 -4.56884E-09 -4.53008E-09 -4.48668E-09 -4.43892E-09 -4.38713E-09 -4.33158E-09 -4.27259E-09 -4.21045E-09 -4.14547E-09
  -4.07794E-09 -4.00816E-09 -3.93644E-09 -3.86307E-09 -3.78831E-09 -3.71232E-09 -3.63522E-09 -3.55715E-09 -3.47828E-09 -3.39872E-09
  -3.31863E-09 -3.23814E-09 -3.15741E-09 -3.07655E-09 -2.99572E-09 -2.91506E-09 -2.83470E-09 -2.75480E-09 -2.67548E-09 -2.59690E-09
  -2.51919E-09 -2.44248E-09 -2.36693E-09 -2.29268E-09 -2.21985E-09 -2.14860E-09 -2.07906E-09 -2.01137E-09 -1.94568E-09 -1.88213E-09
  -1.82084E-09 -1.76198E-09 -1.70558E-09 -1.65159E-09 -1.59993E-09 -1.55055E-09 -1.50337E-09 -1.45832E-09 -1.41533E-09 -1.37434E-09
  -1.33528E-09 -1.29807E-09 -1.26266E-09 -1.22896E-09 -1.19692E-09 -1.16647E-09 -1.13752E-09 -1.11003E-09 -1.08393E-09 -1.05912E-09
  -1.03556E-09 -1.01318E-09 -9.91901E-10 -9.71656E-10 -9.52390E-10 -9.34010E-10 -9.16474E-10 -8.99698E-10 -8.83622E-10 -8.68168E-10
  -8.53286E-10 -8.38926E-10 -8.25037E-10 -8.11571E-10 -7.98483E-10 -7.85719E-10 -7.73235E-10 -7.60979E-10 -7.48903E-10 -7.36962E-10
  -7.25103E-10 -7.13280E-10 -7.01443E-10 -6.89544E-10 -6.77536E-10 -6.65368E-10 -6.52994E-10 -6.40362E-10 -6.27431E-10 -6.14141E-10
  -6.00455E-10 -5.86316E-10 -5.71679E-10 -5.56500E-10 -5.40725E-10 -5.24306E-10 -5.07198E-10 -4.89351E-10 -4.70767E-10 -4.51468E-10
  -4.31477E-10 -4.10817E-10 -3.89513E-10 -3.67585E-10 -3.45058E-10 -3.21956E-10 -2.98300E-10 -2.74115E-10 -2.49423E-10 -2.24247E-10
  -1.98613E-10 -1.72540E-10 -1.46053E-10 -1.19177E-10 -9.19310E-11 -6.43429E-11 -3.64324E-11 -8.22265E-12  2.02615E-11  4.89961E-11
   7.79621E-11  1.07133E-10  1.36487E-10  1.66000E-10  1.95649E-10  2.25415E-10  2.55286E-10  2.85257E-10  3.15322E-10  3.45476E-10
   3.75713E-10  4.06029E-10  4.36417E-10  4.66872E-10  4.97388E-10  5.27962E-10  5.58585E-10  5.89253E-10  6.19961E-10  6.50704E-10
   6.81477E-10  7.12271E-10  7.43084E-10  7.73909E-10  8.04742E-10  8.35576E-10  8.66406E-10  8.97227E-10  9.28034E-10  9.58819E-10
   9.89579E-10  1.02031E-09  1.05100E-09
 Asp      Conc. = 7.25E-10
   2.12413E-09  2.02533E-09  1.91907E-09  1.81311E-09  1.71969E-09  1.62158E-09  1.54938E-09  1.48915E-09  1.47059E-09  1.46776E-09
   1.47234E-09  1.48108E-09  1.49251E-09  1.50579E-09  1.51990E-09  1.53446E-09  1.54955E-09  1.56510E-09  1.58108E-09  1.59744E-09
   1.61416E-09  1.63123E-09  1.64866E-09  1.66646E-09  1.68467E-09  1.70334E-09  1.72252E-09  1.74231E-09  1.76283E-09  1.78424E-09
   1.80682E-09  1.83092E-09  1.85710E-09  1.88621E-09  1.91975E-09  1.96075E-09  2.01648E-09  2.08350E-09  2.16574E-09  2.24884E-09
   2.32142E-09  2.37563E-09  2.41445E-09  2.46305E-09  2.53477E-09  2.67385E-09  2.84476E-09  3.02116E-09  3.20479E-09  3.34608E-09
   3.43004E-09  3.44256E-09  3.39946E-09  3.29369E-09  3.13015E-09  2.97195E-09  2.83684E-09  2.81281E-09  2.78187E-09  2.72889E-09
   2.71608E-09  2.72343E-09  2.72290E-09  2.73309E-09  2.75305E-09  2.75476E-09  2.73509E-09  2.73691E-09  2.75048E-09  2.77043E-09
   2.79434E-09  2.82091E-09  2.84940E-09  2.87928E-09  2.91021E-09  2.94195E-09  2.97428E-09  3.00704E-09  3.04012E-09  3.07341E-09
   3.10679E-09  3.14020E-09  3.17355E-09  3.20678E-09  3.23982E-09  3.27261E-09  3.30509E-09  3.33720E-09  3.36888E-09  3.40008E-09
   3.43076E-09  3.46084E-09  3.49029E-09  3.51905E-09  3.54707E-09  3.57430E-09  3.60070E-09  3.62622E-09  3.65081E-09  3.67442E-09
   3.69700E-09  3.71852E-09  3.73891E-09  3.75813E-09  3.77615E-09  3.79290E-09  3.80836E-09  3.82246E-09  3.83517E-09  3.84643E-09
   3.85621E-09  3.86446E-09  3.87111E-09  3.87614E-09  3.87946E-09  3.88101E-09  3.88072E-09  3.87852E-09  3.87435E-09  3.86814E-09
   3.85982E-09  3.84932E-09  3.83658E-09  3.82153E-09  3.80410E-09  3.78424E-09  3.76185E-09  3.73690E-09  3.70930E-09  3.67900E-09
   3.64591E-09  3.60998E-09  3.57114E-09  3.52932E-09  3.48447E-09  3.43650E-09  3.38535E-09  3.33097E-09  3.27328E-09  3.21222E-09
   3.14771E-09  3.07974E-09  3.00831E-09  2.93339E-09  2.85497E-09  2.77305E-09  2.68762E-09  2.59867E-09  2.50618E-09  2.41015E-09
   2.31059E-09  2.20748E-09  2.10084E-09  1.99065E-09  1.87694E-09  1.75972E-09  1.63902E-09  1.51488E-09  1.38740E-09  1.25666E-09
   1.12286E-09  9.86289E-10  8.47512E-10  7.07496E-10  5.68444E-10  4.36051E-10  3.31793E-10  3.49089E-10  4.48229E-10  6.02887E-10
   7.84278E-10  9.15776E-10  9.02250E-10  7.08168E-10  3.79173E-10 -2.73025E-11 -5.01773E-10 -1.05679E-09 -1.61463E-09 -1.92741E-09
  -2.15059E-09 -2.34716E-09 -2.53095E-09 -2.70632E-09 -2.87488E-09 -3.03722E-09 -3.19345E-09 -3.34344E-09 -3.48691E-09 -3.62355E-09
  -3.75297E-09 -3.87475E-09 -3.98847E-09 -4.09366E-09 -4.18988E-09 -4.27667E-09 -4.35372E-09 -4.42123E-09 -4.47953E-09 -4.52892E-09
  -4.56972E-09 -4.60222E-09 -4.62673E-09 -4.64357E-09 -4.65303E-09 -4.65541E-09 -4.65103E-09 -4.64018E-09 -4.62317E-09 -4.60030E-09
  -4.57187E-09 -4.53817E-09 -4.49952E-09 -4.45622E-09 -4.40856E-09 -4.35685E-09 -4.30139E-09 -4.24247E-09 -4.18041E-09 -4.11550E-09
  -4.04803E-09 -3.97832E-09 -3.90666E-09 -3.83335E-09 -3.75864E-09 -3.68270E-09 -3.60565E-09 -3.52763E-09 -3.44880E-09 -3.36929E-09
