 LCModel (Version 6.3-1R) Copyright: S.W. Provencher.          Ref.: Magn. Reson. Med. 30:672-679 (1993).                
 onepulse 22x17_ftSpec_smooth_lcm
 26 lines in following concentration table = NCONC+1
    Conc.  %SD   /Cr    Metabolite                                         
 9.95E-11 177%   0.000 Ala                                                 
 4.48E-10  80%   0.000 Asp                                                 
    0.000 999%   0.000 Cr                                                  
 2.88E-09  12%   0.000 GABA                                                
 1.46E-09  20%   0.000 Glc                                                 
    0.000 999%   0.000 Gln                                                 
 4.04E-10  94%   0.000 Glu                                                 
    0.000 999%   0.000 Glyc                                                
    0.000 999%   0.000 GPC                                                 
    0.000 999%   0.000 GSH                                                 
 1.26E-10 161%   0.000 Ins                                                 
    0.000 999%   0.000 Lac                                                 
    0.000 999%   0.000 NAAG                                                
 1.05E-09  15%   0.000 NAA                                                 
 1.22E-10  41%   0.000 PCh                                                 
    0.000 999%   0.000 PCr                                                 
    0.000 999%   0.000 PE                                                  
    0.000 999%   0.000 Scyllo                                              
    0.000 999%   0.000 Ser                                                 
    0.000 999%   0.000 Tau                                                 
 1.22E-10  41%   0.000 GPC+PCh                                             
 1.05E-09  15%   0.000 NAA+NAAG                                            
 1.26E-10 161%   0.000 Ins+Glyc                                            
    0.000 999%   0.000 Cr+PCr                                              
 4.04E-10  94%   0.000 Glu+Gln                                             
   6 lines in following misc. output table
  FWHM = 0.078 ppm    S/N =   4                                            
  Data shift = 0.324 ppm                                                   
  Ph:  53 deg      32.8 deg/ppm                                            
  alphaB,S = 1.7E-01,   7.8E+01                                            
   16 spline knots.   Ns = 5(1)                                            
  ( 7) 2 infls.   ( 3) 1 extrs.                                            
  363 points on ppm-axis = NY
      4.250000     4.238821     4.227641     4.216462     4.205282     4.194103     4.182923     4.171744     4.160564     4.149385
      4.138206     4.127026     4.115847     4.104667     4.093488     4.082308     4.071129     4.059949     4.048770     4.037591
      4.026411     4.015232     4.004052     3.992873     3.981693     3.970514     3.959334     3.948155     3.936975     3.925796
      3.914617     3.903437     3.892258     3.881078     3.869899     3.858719     3.847540     3.836360     3.825181     3.814002
      3.802822     3.791643     3.780463     3.769284     3.758104     3.746925     3.735745     3.724566     3.713387     3.702207
      3.691028     3.679848     3.668669     3.657489     3.646310     3.635130     3.623951     3.612772     3.601592     3.590413
      3.579233     3.568054     3.556874     3.545695     3.534515     3.523336     3.512156     3.500977     3.489798     3.478618
      3.467439     3.456259     3.445080     3.433900     3.422721     3.411541     3.400362     3.389183     3.378003     3.366824
      3.355644     3.344465     3.333285     3.322106     3.310926     3.299747     3.288568     3.277388     3.266209     3.255029
      3.243850     3.232670     3.221491     3.210311     3.199132     3.187953     3.176773     3.165594     3.154414     3.143235
      3.132055     3.120876     3.109696     3.098517     3.087337     3.076158     3.064979     3.053799     3.042620     3.031440
      3.020261     3.009081     2.997902     2.986722     2.975543     2.964364     2.953184     2.942005     2.930825     2.919646
      2.908466     2.897287     2.886107     2.874928     2.863749     2.852569     2.841390     2.830210     2.819031     2.807851
      2.796672     2.785492     2.774313     2.763134     2.751954     2.740775     2.729595     2.718416     2.707236     2.696057
      2.684877     2.673698     2.662519     2.651339     2.640160     2.628980     2.617801     2.606621     2.595442     2.584262
      2.573083     2.561903     2.550724     2.539545     2.528365     2.517186     2.506006     2.494827     2.483647     2.472468
      2.461288     2.450109     2.438930     2.427750     2.416571     2.405391     2.394212     2.383032     2.371853     2.360673
      2.349494     2.338315     2.327135     2.315956     2.304776     2.293597     2.282417     2.271238     2.260058     2.248879
      2.237700     2.226520     2.215341     2.204161     2.192982     2.181802     2.170623     2.159443     2.148264     2.137084
      2.125905     2.114726     2.103546     2.092367     2.081187     2.070008     2.058828     2.047649     2.036469     2.025290
      2.014111     2.002931     1.991752     1.980572     1.969393     1.958213     1.947034     1.935854     1.924675     1.913496
      1.902316     1.891137     1.879957     1.868778     1.857598     1.846419     1.835239     1.824060     1.812881     1.801701
      1.790522     1.779342     1.768163     1.756983     1.745804     1.734624     1.723445     1.712265     1.701086     1.689907
      1.678727     1.667548     1.656368     1.645189     1.634009     1.622830     1.611650     1.600471     1.589292     1.578112
      1.566933     1.555753     1.544574     1.533394     1.522215     1.511035     1.499856     1.488677     1.477497     1.466318
      1.455138     1.443959     1.432779     1.421600     1.410420     1.399241     1.388062     1.376882     1.365703     1.354523
      1.343344     1.332164     1.320985     1.309805     1.298626     1.287446     1.276267     1.265088     1.253908     1.242729
      1.231549     1.220370     1.209190     1.198011     1.186831     1.175652     1.164473     1.153293     1.142114     1.130934
      1.119755     1.108575     1.097396     1.086216     1.075037     1.063858     1.052678     1.041499     1.030319     1.019140
      1.007960     0.996781     0.985601     0.974422     0.963243     0.952063     0.940884     0.929704     0.918525     0.907345
      0.896166     0.884986     0.873807     0.862628     0.851448     0.840269     0.829089     0.817910     0.806730     0.795551
      0.784371     0.773192     0.762012     0.750833     0.739654     0.728474     0.717295     0.706115     0.694936     0.683756
      0.672577     0.661397     0.650218     0.639039     0.627859     0.616680     0.605500     0.594321     0.583141     0.571962
      0.560782     0.549603     0.538424     0.527244     0.516065     0.504885     0.493706     0.482526     0.471347     0.460167
      0.448988     0.437809     0.426629     0.415450     0.404270     0.393091     0.381911     0.370732     0.359552     0.348373
      0.337193     0.326014     0.314835     0.303655     0.292476     0.281296     0.270117     0.258937     0.247758     0.236578
      0.225399     0.214220     0.203040
 NY phased data points follow
   5.66240E-10  1.59636E-09  5.45710E-09  6.83843E-09  8.66230E-09  7.42196E-09  6.57591E-09  5.65606E-09  4.93195E-09  3.85626E-09
   4.17424E-09  3.34908E-09  3.90920E-09  3.40391E-09  4.72214E-09  5.04457E-09  5.17850E-09  6.16235E-09  6.39225E-09  5.56984E-09
   6.39409E-09  5.55734E-09  6.65403E-09  5.80574E-09  4.76540E-09  5.06119E-09  6.04649E-09  6.56634E-09  7.58199E-09  7.00933E-09
   6.60953E-09  5.75383E-09  6.10273E-09  6.73207E-09  9.50300E-09  9.70460E-09  1.05509E-08  8.88869E-09  8.98165E-09  6.73670E-09
   6.20317E-09  5.45734E-09  6.10596E-09  4.32234E-09  4.82881E-09  5.16280E-09  4.44258E-09  3.19881E-09  5.01843E-09  3.68173E-09
   3.21617E-09  2.74886E-09  3.79985E-09  3.36173E-09  4.71725E-09  4.00559E-09  3.84384E-09  2.50966E-09  3.33917E-09  3.26366E-09
   2.60213E-09  2.67713E-09  4.54494E-09  4.87919E-09  6.53105E-09  9.16264E-09  1.34842E-08  1.25162E-08  1.08188E-08  8.25709E-09
   7.04384E-09  5.78099E-09  5.90072E-09  4.54580E-09  3.88059E-09  2.91351E-09  3.75568E-09  2.84440E-09  3.02928E-09  3.92576E-09
   5.53269E-09  8.00282E-09  1.17602E-08  1.38860E-08  1.35444E-08  1.02549E-08  9.30098E-09  7.71593E-09  8.43634E-09  6.94872E-09
   6.61295E-09  6.24616E-09  5.70230E-09  5.52093E-09  5.25300E-09  4.22015E-09  4.88124E-09  3.58890E-09  4.29678E-09  3.08650E-09
   3.27801E-09  2.74514E-09  3.73526E-09  3.70713E-09  3.25110E-09  4.42970E-09  3.59279E-09  3.31392E-09  3.96653E-09  3.41692E-09
   3.69691E-09  2.30693E-09  2.26020E-09  2.26488E-09  2.65803E-09  2.52550E-09  3.69577E-09  3.57386E-09  3.93356E-09  3.77499E-09
   4.03669E-09  4.09345E-09  4.33638E-09  3.26759E-09  3.74232E-09  3.09581E-09  1.91572E-09  2.30327E-09  1.91178E-09  2.05625E-09
   2.88570E-09  3.55159E-09  2.79822E-09  2.47365E-09  3.09745E-09  3.03281E-09  2.68862E-09  2.55024E-09  2.58853E-09  2.19436E-09
   2.54813E-09  3.20125E-09  4.00620E-09  4.65755E-09  4.76639E-09  3.83166E-09  3.87307E-09  4.02275E-09  5.12691E-09  4.33159E-09
   5.23949E-09  4.41720E-09  4.02598E-09  4.24325E-09  4.62622E-09  3.87252E-09  4.45723E-09  3.84608E-09  4.72477E-09  4.75101E-09
   5.05505E-09  5.32636E-09  5.76114E-09  5.60330E-09  5.72763E-09  5.29561E-09  6.27262E-09  6.92636E-09  7.33556E-09  8.35421E-09
   1.06028E-08  1.20268E-08  1.40709E-08  1.67591E-08  1.69519E-08  1.33234E-08  9.56041E-09  6.33817E-09  5.25760E-09  4.00145E-09
   4.32051E-09  2.51266E-09  2.86270E-09  1.39927E-09  2.01543E-09  8.97606E-10  5.17257E-10  2.76371E-10 -1.36308E-10 -1.80963E-10
  -4.84289E-10 -1.45806E-09 -1.89711E-09 -2.49694E-09 -3.54210E-09 -4.07862E-09 -5.02645E-09 -5.86609E-09 -6.72137E-09 -7.24267E-09
  -8.99140E-09 -9.21005E-09 -9.50619E-09 -1.03170E-08 -1.05847E-08 -1.09884E-08 -1.08572E-08 -1.10241E-08 -1.03839E-08 -1.07522E-08
  -9.51397E-09 -8.69059E-09 -7.96349E-09 -6.21524E-09 -6.14805E-09 -4.55103E-09 -3.31756E-09 -2.63115E-09 -2.91144E-09 -1.62640E-09
  -2.52776E-09 -1.33672E-09 -2.58487E-09 -2.45517E-09 -2.40310E-09 -3.32345E-09 -2.27581E-09 -1.75324E-09 -2.33354E-09 -2.02386E-09
  -2.08379E-09 -2.16011E-09 -1.86637E-09 -2.38141E-09 -2.01559E-09 -2.74968E-09 -2.34476E-09 -2.72082E-09 -1.96612E-09 -1.68093E-09
  -1.91254E-09 -1.78385E-09 -1.71777E-09 -1.60832E-09 -1.94343E-09 -2.18000E-09 -2.04982E-09 -2.27587E-09 -2.09531E-09 -2.08043E-09
  -2.04949E-09 -1.47559E-09 -1.64362E-09 -1.09106E-09 -1.28120E-09 -1.52681E-09 -1.23424E-09 -1.05099E-09 -1.63739E-09 -2.10005E-09
  -2.19897E-09 -2.12738E-09 -2.10392E-09 -2.94181E-09 -2.43261E-09 -2.00889E-09 -1.28146E-09 -1.79769E-09 -9.30577E-10 -1.35228E-09
  -3.46720E-10 -5.69280E-10 -9.67618E-10 -8.26108E-10 -9.43860E-10 -6.84744E-10 -6.94844E-10 -2.11013E-09 -1.18428E-09 -1.77818E-09
  -1.91748E-09 -1.84040E-09 -2.13521E-09 -1.86312E-09 -1.86253E-09 -1.87650E-09 -1.41231E-09 -1.82203E-09 -1.09755E-09 -1.55719E-09
  -9.91180E-10 -1.24394E-09 -1.47492E-09 -1.70766E-09 -1.24009E-09 -1.13811E-09 -1.19793E-09 -1.26117E-09 -1.11677E-09 -1.82176E-09
  -1.50082E-09 -9.47442E-10 -1.31319E-09 -1.45301E-09 -9.86068E-10 -1.18968E-09 -1.07705E-09 -1.29556E-09 -1.29193E-09 -8.69149E-10
  -1.15729E-09 -1.61089E-09 -1.21257E-09 -9.27955E-10 -8.29255E-10 -9.90761E-10 -8.35285E-10 -1.29146E-09 -4.26309E-10 -1.59984E-09
  -3.69580E-10 -1.12504E-09 -8.51035E-10 -5.46371E-10 -1.36812E-09 -5.30680E-10 -6.89066E-10 -1.05664E-09 -8.38499E-10 -1.36522E-09
  -3.43339E-10 -6.70411E-10 -1.49076E-09 -1.07095E-09 -8.25826E-10 -1.39707E-09 -6.80412E-10 -1.11125E-09 -8.45909E-10 -7.50521E-10
  -3.57505E-10 -6.67937E-10 -6.42684E-10 -5.93034E-10 -9.89101E-10 -3.56133E-10 -6.76903E-10 -1.20693E-09 -3.61520E-10 -1.14704E-09
  -6.04715E-10 -5.51436E-10 -5.98352E-10 -2.33797E-10 -4.00712E-10 -2.02116E-10 -3.43749E-10 -4.47391E-10 -5.26786E-10 -2.65808E-10
  -3.78433E-10 -1.08119E-09 -7.84523E-11
 NY points of the fit to the data follow
   3.99102E-09  4.53152E-09  5.09695E-09  5.60118E-09  5.91306E-09  5.94948E-09  5.70976E-09  5.26880E-09  4.79973E-09  4.34113E-09
   4.05109E-09  3.93806E-09  3.95653E-09  4.07064E-09  4.32123E-09  4.68073E-09  5.11886E-09  5.61939E-09  6.12659E-09  6.56420E-09
   6.87980E-09  6.90297E-09  6.55500E-09  6.02934E-09  5.49450E-09  5.10602E-09  5.06732E-09  5.46949E-09  6.10444E-09  6.77861E-09
   7.15530E-09  7.30913E-09  7.50549E-09  7.65112E-09  7.80321E-09  8.20865E-09  8.60033E-09  8.74095E-09  8.54044E-09  8.01426E-09
   7.30050E-09  6.49938E-09  5.46457E-09  4.60294E-09  4.10277E-09  3.59697E-09  3.19853E-09  3.10843E-09  3.17431E-09  3.28596E-09
   3.37314E-09  3.38477E-09  3.34880E-09  3.29746E-09  3.28922E-09  3.35765E-09  3.46864E-09  3.56841E-09  3.59581E-09  3.60959E-09
   3.76125E-09  4.20976E-09  4.89137E-09  5.69279E-09  6.76353E-09  7.82229E-09  8.65519E-09  9.29299E-09  9.66587E-09  9.64615E-09
   9.20648E-09  8.31980E-09  7.14861E-09  6.05504E-09  5.03069E-09  4.18184E-09  3.99617E-09  4.41816E-09  5.11980E-09  6.22077E-09
   7.58201E-09  9.05491E-09  1.05613E-08  1.16665E-08  1.18593E-08  1.11370E-08  9.77899E-09  8.20053E-09  6.93792E-09  6.54846E-09
   6.44393E-09  6.37162E-09  6.13611E-09  5.70044E-09  5.34422E-09  4.96292E-09  4.44041E-09  4.05148E-09  3.78544E-09  3.53664E-09
   3.38023E-09  3.29975E-09  3.27017E-09  3.29168E-09  3.34101E-09  3.39692E-09  3.43968E-09  3.45777E-09  3.45035E-09  3.41982E-09
   3.36923E-09  3.31351E-09  3.27163E-09  3.21905E-09  3.18024E-09  3.18285E-09  3.19920E-09  3.22137E-09  3.24652E-09  3.27329E-09
   3.30091E-09  3.32887E-09  3.35676E-09  3.38427E-09  3.41118E-09  3.43726E-09  3.46235E-09  3.48628E-09  3.50892E-09  3.53012E-09
   3.54976E-09  3.56771E-09  3.58387E-09  3.59811E-09  3.61034E-09  3.62045E-09  3.62833E-09  3.63389E-09  3.63706E-09  3.63775E-09
   3.63585E-09  3.63124E-09  3.62379E-09  3.61336E-09  3.59983E-09  3.58309E-09  3.56304E-09  3.53956E-09  3.51257E-09  3.48199E-09
   3.44779E-09  3.40994E-09  3.36846E-09  3.32342E-09  3.27495E-09  3.22326E-09  3.16871E-09  3.11185E-09  3.05352E-09  2.99502E-09
   2.93839E-09  2.88704E-09  2.84695E-09  2.82956E-09  2.86050E-09  3.01364E-09  3.60696E-09  4.97759E-09  6.86284E-09  9.04637E-09
   1.14881E-08  1.40247E-08  1.61423E-08  1.70337E-08  1.60602E-08  1.32349E-08  9.24818E-09  5.14307E-09  2.13729E-09  7.66674E-10
   1.74667E-10 -2.06065E-10 -5.04965E-10 -7.63093E-10 -9.97449E-10 -1.21621E-09 -1.42363E-09 -1.62200E-09 -1.81255E-09 -1.99592E-09
  -2.17236E-09 -2.34190E-09 -2.50439E-09 -2.65957E-09 -2.80713E-09 -2.94671E-09 -3.07801E-09 -3.20118E-09 -3.31643E-09 -3.42394E-09
  -3.52387E-09 -3.61639E-09 -3.70167E-09 -3.77984E-09 -3.85107E-09 -3.91548E-09 -3.97323E-09 -4.02444E-09 -4.06924E-09 -4.10779E-09
  -4.14020E-09 -4.16660E-09 -4.18713E-09 -4.20191E-09 -4.21108E-09 -4.21476E-09 -4.21307E-09 -4.20615E-09 -4.19412E-09 -4.17710E-09
  -4.15522E-09 -4.12860E-09 -4.09738E-09 -4.06168E-09 -4.02166E-09 -3.97757E-09 -3.92966E-09 -3.87820E-09 -3.82345E-09 -3.76567E-09
  -3.70511E-09 -3.64202E-09 -3.57668E-09 -3.50934E-09 -3.44025E-09 -3.36967E-09 -3.29787E-09 -3.22509E-09 -3.15159E-09 -3.07766E-09
  -3.00352E-09 -2.92944E-09 -2.85567E-09 -2.78250E-09 -2.71014E-09 -2.63888E-09 -2.56896E-09 -2.50066E-09 -2.43422E-09 -2.36990E-09
  -2.30795E-09 -2.24866E-09 -2.19210E-09 -2.13822E-09 -2.08693E-09 -2.03816E-09 -1.99180E-09 -1.94779E-09 -1.90602E-09 -1.86643E-09
  -1.82892E-09 -1.79340E-09 -1.75980E-09 -1.72803E-09 -1.69800E-09 -1.66963E-09 -1.64281E-09 -1.61751E-09 -1.59361E-09 -1.57102E-09
  -1.54965E-09 -1.52945E-09 -1.51030E-09 -1.49212E-09 -1.47485E-09 -1.45837E-09 -1.44263E-09 -1.42752E-09 -1.41297E-09 -1.39888E-09
  -1.38521E-09 -1.37195E-09 -1.35906E-09 -1.34653E-09 -1.33436E-09 -1.32250E-09 -1.31096E-09 -1.29970E-09 -1.28871E-09 -1.27798E-09
  -1.26748E-09 -1.25719E-09 -1.24710E-09 -1.23719E-09 -1.22743E-09 -1.21782E-09 -1.20833E-09 -1.19894E-09 -1.18964E-09 -1.18039E-09
  -1.17121E-09 -1.16205E-09 -1.15290E-09 -1.14374E-09 -1.13456E-09 -1.12533E-09 -1.11604E-09 -1.10667E-09 -1.09721E-09 -1.08766E-09
  -1.07802E-09 -1.06828E-09 -1.05845E-09 -1.04852E-09 -1.03850E-09 -1.02837E-09 -1.01815E-09 -1.00782E-09 -9.97387E-10 -9.86846E-10
  -9.76203E-10 -9.65446E-10 -9.54577E-10 -9.43601E-10 -9.32507E-10 -9.21301E-10 -9.09977E-10 -8.98532E-10 -8.86968E-10 -8.75287E-10
  -8.63477E-10 -8.51544E-10 -8.39483E-10 -8.27296E-10 -8.14981E-10 -8.02532E-10 -7.89957E-10 -7.77261E-10 -7.64448E-10 -7.51523E-10
  -7.38493E-10 -7.25361E-10 -7.12133E-10 -6.98814E-10 -6.85412E-10 -6.71925E-10 -6.58367E-10 -6.44738E-10 -6.31046E-10 -6.17292E-10
  -6.03483E-10 -5.89627E-10 -5.75726E-10 -5.61787E-10 -5.47814E-10 -5.33814E-10 -5.19790E-10 -5.05745E-10 -4.91689E-10 -4.77628E-10
  -4.63563E-10 -4.49503E-10 -4.35446E-10
 NY background values follow
    -8.807E-10   -8.496E-10   -8.186E-10   -7.876E-10   -7.568E-10   -7.261E-10   -6.955E-10   -6.651E-10   -6.350E-10   -6.050E-10
    -5.753E-10   -5.458E-10   -5.166E-10   -4.876E-10   -4.590E-10   -4.307E-10   -4.027E-10   -3.751E-10   -3.479E-10   -3.211E-10
    -2.948E-10   -2.688E-10   -2.433E-10   -2.183E-10   -1.938E-10   -1.698E-10   -1.464E-10   -1.235E-10   -1.011E-10   -7.940E-11
    -5.822E-11   -3.757E-11   -1.744E-11    2.199E-12    2.137E-11    4.010E-11    5.842E-11    7.633E-11    9.388E-11    1.111E-10
     1.280E-10    1.445E-10    1.608E-10    1.769E-10    1.927E-10    2.083E-10    2.238E-10    2.390E-10    2.542E-10    2.692E-10
     2.842E-10    2.991E-10    3.139E-10    3.288E-10    3.436E-10    3.585E-10    3.735E-10    3.885E-10    4.037E-10    4.191E-10
     4.346E-10    4.505E-10    4.666E-10    4.831E-10    5.000E-10    5.173E-10    5.352E-10    5.535E-10    5.724E-10    5.920E-10
     6.121E-10    6.330E-10    6.547E-10    6.771E-10    7.004E-10    7.245E-10    7.496E-10    7.757E-10    8.027E-10    8.308E-10
     8.600E-10    8.904E-10    9.219E-10    9.547E-10    9.887E-10    1.024E-09    1.061E-09    1.098E-09    1.137E-09    1.177E-09
     1.217E-09    1.259E-09    1.301E-09    1.345E-09    1.389E-09    1.433E-09    1.478E-09    1.524E-09    1.570E-09    1.617E-09
     1.664E-09    1.711E-09    1.758E-09    1.806E-09    1.853E-09    1.901E-09    1.949E-09    1.996E-09    2.044E-09    2.091E-09
     2.138E-09    2.184E-09    2.231E-09    2.276E-09    2.321E-09    2.366E-09    2.409E-09    2.452E-09    2.494E-09    2.535E-09
     2.575E-09    2.613E-09    2.651E-09    2.687E-09    2.721E-09    2.754E-09    2.785E-09    2.815E-09    2.842E-09    2.868E-09
     2.892E-09    2.913E-09    2.933E-09    2.950E-09    2.965E-09    2.977E-09    2.987E-09    2.994E-09    2.998E-09    3.000E-09
     2.998E-09    2.994E-09    2.986E-09    2.975E-09    2.961E-09    2.943E-09    2.921E-09    2.895E-09    2.865E-09    2.831E-09
     2.792E-09    2.749E-09    2.701E-09    2.648E-09    2.590E-09    2.527E-09    2.458E-09    2.384E-09    2.305E-09    2.219E-09
     2.128E-09    2.031E-09    1.927E-09    1.817E-09    1.701E-09    1.577E-09    1.447E-09    1.310E-09    1.166E-09    1.015E-09
     8.580E-10    6.954E-10    5.278E-10    3.556E-10    1.794E-10   -1.915E-13   -1.827E-10   -3.676E-10   -5.543E-10   -7.423E-10
    -9.311E-10   -1.120E-09   -1.309E-09   -1.497E-09   -1.683E-09   -1.867E-09   -2.049E-09   -2.228E-09   -2.404E-09   -2.575E-09
    -2.742E-09   -2.904E-09   -3.059E-09   -3.209E-09   -3.352E-09   -3.488E-09   -3.615E-09   -3.736E-09   -3.848E-09   -3.953E-09
    -4.051E-09   -4.142E-09   -4.226E-09   -4.302E-09   -4.372E-09   -4.436E-09   -4.492E-09   -4.542E-09   -4.586E-09   -4.624E-09
    -4.656E-09   -4.681E-09   -4.701E-09   -4.715E-09   -4.724E-09   -4.727E-09   -4.725E-09   -4.718E-09   -4.705E-09   -4.688E-09
    -4.665E-09   -4.638E-09   -4.607E-09   -4.571E-09   -4.530E-09   -4.486E-09   -4.438E-09   -4.386E-09   -4.331E-09   -4.273E-09
    -4.212E-09   -4.149E-09   -4.083E-09   -4.016E-09   -3.946E-09   -3.875E-09   -3.803E-09   -3.730E-09   -3.657E-09   -3.583E-09
    -3.508E-09   -3.434E-09   -3.360E-09   -3.287E-09   -3.214E-09   -3.143E-09   -3.073E-09   -3.004E-09   -2.937E-09   -2.873E-09
    -2.811E-09   -2.751E-09   -2.695E-09   -2.641E-09   -2.589E-09   -2.540E-09   -2.494E-09   -2.450E-09   -2.408E-09   -2.368E-09
    -2.330E-09   -2.295E-09   -2.261E-09   -2.229E-09   -2.199E-09   -2.170E-09   -2.143E-09   -2.118E-09   -2.094E-09   -2.071E-09
    -2.050E-09   -2.029E-09   -2.010E-09   -1.992E-09   -1.974E-09   -1.958E-09   -1.942E-09   -1.926E-09   -1.912E-09   -1.898E-09
    -1.884E-09   -1.870E-09   -1.857E-09   -1.845E-09   -1.832E-09   -1.820E-09   -1.809E-09   -1.797E-09   -1.786E-09   -1.775E-09
    -1.765E-09   -1.754E-09   -1.744E-09   -1.734E-09   -1.724E-09   -1.714E-09   -1.705E-09   -1.695E-09   -1.686E-09   -1.676E-09
    -1.667E-09   -1.658E-09   -1.648E-09   -1.639E-09   -1.630E-09   -1.620E-09   -1.611E-09   -1.601E-09   -1.592E-09   -1.582E-09
    -1.572E-09   -1.563E-09   -1.553E-09   -1.542E-09   -1.532E-09   -1.522E-09   -1.512E-09   -1.501E-09   -1.491E-09   -1.480E-09
    -1.469E-09   -1.458E-09   -1.447E-09   -1.436E-09   -1.425E-09   -1.413E-09   -1.402E-09   -1.390E-09   -1.379E-09   -1.367E-09
    -1.355E-09   -1.343E-09   -1.331E-09   -1.318E-09   -1.306E-09   -1.293E-09   -1.280E-09   -1.268E-09   -1.255E-09   -1.241E-09
    -1.228E-09   -1.215E-09   -1.202E-09   -1.188E-09   -1.174E-09   -1.161E-09   -1.147E-09   -1.133E-09   -1.119E-09   -1.106E-09
    -1.092E-09   -1.077E-09   -1.063E-09   -1.049E-09   -1.035E-09   -1.021E-09   -1.007E-09   -9.925E-10   -9.783E-10   -9.640E-10
    -9.497E-10   -9.355E-10   -9.212E-10
 Ala      Conc. = 9.95E-11
  -8.13013E-10 -7.73188E-10 -7.35243E-10 -6.99628E-10 -6.66904E-10 -6.36552E-10 -6.09359E-10 -5.86838E-10 -5.64434E-10 -5.41803E-10
  -5.23869E-10 -5.04424E-10 -4.81348E-10 -4.59296E-10 -4.36441E-10 -4.11695E-10 -3.86135E-10 -3.60267E-10 -3.34353E-10 -3.08548E-10
  -2.82959E-10 -2.57656E-10 -2.32703E-10 -2.08138E-10 -1.83997E-10 -1.60324E-10 -1.37139E-10 -1.14469E-10 -9.23428E-11 -7.07738E-11
  -4.97460E-11 -2.92364E-11 -9.22612E-12  1.03076E-11  2.93871E-11  4.80343E-11  6.62715E-11  8.41214E-11  1.01609E-10  1.18757E-10
   1.35585E-10  1.52123E-10  1.68387E-10  1.84407E-10  2.00201E-10  2.15798E-10  2.31217E-10  2.46482E-10  2.61623E-10  2.76657E-10
   2.91608E-10  3.06505E-10  3.21366E-10  3.36219E-10  3.51080E-10  3.65987E-10  3.80957E-10  3.96017E-10  4.11214E-10  4.26592E-10
   4.42193E-10  4.58063E-10  4.74246E-10  4.90785E-10  5.07726E-10  5.25111E-10  5.42985E-10  5.61394E-10  5.80380E-10  5.99989E-10
   6.20265E-10  6.41253E-10  6.62997E-10  6.85543E-10  7.08935E-10  7.33219E-10  7.58440E-10  7.84644E-10  8.11878E-10  8.40187E-10
   8.69620E-10  9.00223E-10  9.32045E-10  9.65137E-10  9.99547E-10  1.03528E-09  1.07228E-09  1.11052E-09  1.14993E-09  1.19049E-09
   1.23218E-09  1.27496E-09  1.31886E-09  1.36391E-09  1.41019E-09  1.45790E-09  1.50739E-09  1.55945E-09  1.61594E-09  1.68284E-09
   1.77088E-09  1.86294E-09  1.96172E-09  2.08273E-09  2.21157E-09  2.33239E-09  2.42882E-09  2.49186E-09  2.52265E-09  2.52509E-09
   2.50345E-09  2.47325E-09  2.45384E-09  2.42107E-09  2.39975E-09  2.41789E-09  2.44824E-09  2.48309E-09  2.51971E-09  2.55689E-09
   2.59395E-09  2.63046E-09  2.66614E-09  2.70077E-09  2.73417E-09  2.76619E-09  2.79671E-09  2.82559E-09  2.85274E-09  2.87804E-09
   2.90138E-09  2.92268E-09  2.94182E-09  2.95872E-09  2.97327E-09  2.98539E-09  2.99497E-09  3.00194E-09  3.00619E-09  3.00764E-09
   3.00618E-09  3.00169E-09  2.99400E-09  2.98298E-09  2.96846E-09  2.95029E-09  2.92832E-09  2.90240E-09  2.87238E-09  2.83810E-09
   2.79941E-09  2.75617E-09  2.70822E-09  2.65542E-09  2.59761E-09  2.53465E-09  2.46639E-09  2.39269E-09  2.31342E-09  2.22843E-09
   2.13761E-09  2.04085E-09  1.93810E-09  1.82935E-09  1.71481E-09  1.59528E-09  1.47467E-09  1.36286E-09  1.25062E-09  1.13598E-09
   1.01968E-09  9.00240E-10  7.70006E-10  6.15491E-10  4.26004E-10  2.02658E-10 -4.17140E-11 -2.89821E-10 -5.22063E-10 -7.22901E-10
  -9.16690E-10 -1.10828E-09 -1.29851E-09 -1.48735E-09 -1.67447E-09 -1.85946E-09 -2.04186E-09 -2.22117E-09 -2.39685E-09 -2.56841E-09
  -2.73531E-09 -2.89703E-09 -3.05304E-09 -3.20277E-09 -3.34573E-09 -3.48137E-09 -3.60929E-09 -3.72952E-09 -3.84220E-09 -3.94745E-09
  -4.04538E-09 -4.13613E-09 -4.21982E-09 -4.29658E-09 -4.36652E-09 -4.42977E-09 -4.48646E-09 -4.53670E-09 -4.58062E-09 -4.61835E-09
  -4.65001E-09 -4.67571E-09 -4.69559E-09 -4.70978E-09 -4.71838E-09 -4.72153E-09 -4.71935E-09 -4.71196E-09 -4.69948E-09 -4.68205E-09
  -4.65977E-09 -4.63278E-09 -4.60120E-09 -4.56515E-09 -4.52481E-09 -4.48040E-09 -4.43220E-09 -4.38045E-09 -4.32542E-09 -4.26737E-09
  -4.20655E-09 -4.14321E-09 -4.07763E-09 -4.01005E-09 -3.94073E-09 -3.86993E-09 -3.79791E-09 -3.72493E-09 -3.65122E-09 -3.57708E-09
  -3.50275E-09 -3.42847E-09 -3.35452E-09 -3.28116E-09 -3.20862E-09 -3.13718E-09 -3.06709E-09 -2.99861E-09 -2.93200E-09 -2.86752E-09
  -2.80540E-09 -2.74594E-09 -2.68923E-09 -2.63519E-09 -2.58374E-09 -2.53481E-09 -2.48830E-09 -2.44414E-09 -2.40222E-09 -2.36247E-09
  -2.32482E-09 -2.28915E-09 -2.25541E-09 -2.22349E-09 -2.19331E-09 -2.16480E-09 -2.13785E-09 -2.11240E-09 -2.08836E-09 -2.06562E-09
  -2.04412E-09 -2.02378E-09 -2.00449E-09 -1.98618E-09 -1.96877E-09 -1.95215E-09 -1.93627E-09 -1.92103E-09 -1.90634E-09 -1.89212E-09
  -1.87831E-09 -1.86491E-09 -1.85189E-09 -1.83923E-09 -1.82692E-09 -1.81493E-09 -1.80325E-09 -1.79186E-09 -1.78073E-09 -1.76987E-09
  -1.75923E-09 -1.74881E-09 -1.73858E-09 -1.72853E-09 -1.71864E-09 -1.70889E-09 -1.69926E-09 -1.68974E-09 -1.68030E-09 -1.67092E-09
  -1.66160E-09 -1.65230E-09 -1.64301E-09 -1.63372E-09 -1.62440E-09 -1.61503E-09 -1.60561E-09 -1.59609E-09 -1.58649E-09 -1.57680E-09
  -1.56702E-09 -1.55714E-09 -1.54717E-09 -1.53710E-09 -1.52693E-09 -1.51666E-09 -1.50629E-09 -1.49582E-09 -1.48524E-09 -1.47455E-09
  -1.46376E-09 -1.45286E-09 -1.44184E-09 -1.43071E-09 -1.41947E-09 -1.40811E-09 -1.39664E-09 -1.38504E-09 -1.37332E-09 -1.36149E-09
  -1.34952E-09 -1.33743E-09 -1.32522E-09 -1.31287E-09 -1.30040E-09 -1.28779E-09 -1.27506E-09 -1.26220E-09 -1.24922E-09 -1.23614E-09
  -1.22294E-09 -1.20964E-09 -1.19625E-09 -1.18276E-09 -1.16919E-09 -1.15554E-09 -1.14181E-09 -1.12801E-09 -1.11414E-09 -1.10021E-09
  -1.08623E-09 -1.07220E-09 -1.05812E-09 -1.04400E-09 -1.02985E-09 -1.01567E-09 -1.00146E-09 -9.87230E-10 -9.72988E-10 -9.58739E-10
  -9.44486E-10 -9.30236E-10 -9.15988E-10
 Asp      Conc. = 4.48E-10
  -3.31222E-10 -3.56098E-10 -3.85943E-10 -4.28245E-10 -4.73416E-10 -5.22562E-10 -5.54809E-10 -5.70046E-10 -5.62324E-10 -5.45347E-10
  -5.23690E-10 -4.99326E-10 -4.73366E-10 -4.46551E-10 -4.19535E-10 -3.92475E-10 -3.65394E-10 -3.38367E-10 -3.11452E-10 -2.84700E-10
  -2.58150E-10 -2.31830E-10 -2.05768E-10 -1.79969E-10 -1.54439E-10 -1.29181E-10 -1.04173E-10 -7.93852E-11 -5.47729E-11 -3.02513E-11
  -5.66913E-12  1.91922E-11  4.46472E-11  7.11968E-11  9.97203E-11  1.32041E-10  1.72516E-10  2.17599E-10  2.70656E-10  3.24294E-10
   3.75850E-10  4.23236E-10  4.66353E-10  5.09726E-10  5.53141E-10  6.15566E-10  6.86729E-10  7.76554E-10  9.06205E-10  1.04302E-09
   1.15079E-09  1.18712E-09  1.14575E-09  1.04899E-09  9.38086E-10  8.52237E-10  7.91415E-10  7.63270E-10  7.16837E-10  6.65227E-10
   6.49706E-10  6.54981E-10  6.64267E-10  6.75525E-10  6.79050E-10  6.68775E-10  6.53345E-10  6.51518E-10  6.57021E-10  6.66865E-10
   6.79688E-10  6.94778E-10  7.11730E-10  7.30298E-10  7.50330E-10  7.71733E-10  7.94451E-10  8.18453E-10  8.43726E-10  8.70269E-10
   8.98092E-10  9.27211E-10  9.57647E-10  9.89426E-10  1.02257E-09  1.05707E-09  1.09286E-09  1.12985E-09  1.16798E-09  1.20719E-09
   1.24740E-09  1.28855E-09  1.33057E-09  1.37340E-09  1.41697E-09  1.46121E-09  1.50607E-09  1.55148E-09  1.59738E-09  1.64369E-09
   1.69036E-09  1.73733E-09  1.78453E-09  1.83189E-09  1.87936E-09  1.92687E-09  1.97437E-09  2.02178E-09  2.06904E-09  2.11610E-09
   2.16289E-09  2.20934E-09  2.25540E-09  2.30098E-09  2.34600E-09  2.39036E-09  2.43398E-09  2.47677E-09  2.51862E-09  2.55946E-09
   2.59920E-09  2.63774E-09  2.67499E-09  2.71087E-09  2.74528E-09  2.77813E-09  2.80934E-09  2.83881E-09  2.86646E-09  2.89219E-09
   2.91592E-09  2.93755E-09  2.95700E-09  2.97417E-09  2.98898E-09  3.00133E-09  3.01114E-09  3.01833E-09  3.02279E-09  3.02444E-09
   3.02319E-09  3.01890E-09  3.01143E-09  3.00062E-09  2.98633E-09  2.96840E-09  2.94669E-09  2.92104E-09  2.89132E-09  2.85737E-09
   2.81905E-09  2.77622E-09  2.72873E-09  2.67645E-09  2.61925E-09  2.55698E-09  2.48955E-09  2.41684E-09  2.33876E-09  2.25525E-09
   2.16629E-09  2.07196E-09  1.97248E-09  1.86838E-09  1.76095E-09  1.65385E-09  1.56157E-09  1.53433E-09  1.53245E-09  1.54313E-09
   1.56763E-09  1.59938E-09  1.60498E-09  1.52253E-09  1.29848E-09  9.30597E-10  4.71772E-10 -2.96271E-12 -4.08563E-10 -6.62755E-10
  -8.75607E-10 -1.07654E-09 -1.27215E-09 -1.46439E-09 -1.65381E-09 -1.84042E-09 -2.02400E-09 -2.20419E-09 -2.38056E-09 -2.55264E-09
  -2.71996E-09 -2.88202E-09 -3.03830E-09 -3.18826E-09 -3.33140E-09 -3.46719E-09 -3.59524E-09 -3.71558E-09 -3.82835E-09 -3.93367E-09
  -4.03168E-09 -4.12248E-09 -4.20622E-09 -4.28302E-09 -4.35300E-09 -4.41628E-09 -4.47299E-09 -4.52326E-09 -4.56721E-09 -4.60495E-09
  -4.63663E-09 -4.66235E-09 -4.68224E-09 -4.69643E-09 -4.70504E-09 -4.70820E-09 -4.70603E-09 -4.69864E-09 -4.68618E-09 -4.66874E-09
  -4.64647E-09 -4.61949E-09 -4.58791E-09 -4.55186E-09 -4.51152E-09 -4.46712E-09 -4.41892E-09 -4.36717E-09 -4.31214E-09 -4.25409E-09
