 LCModel (Version 6.3-1R) Copyright: S.W. Provencher.          Ref.: Magn. Reson. Med. 30:672-679 (1993).                
 onepulse 22x15_ftSpec_smooth_lcm
 26 lines in following concentration table = NCONC+1
    Conc.  %SD   /Cr    Metabolite                                         
 1.40E-10 126%   0.000 Ala                                                 
 5.29E-10  63%   0.000 Asp                                                 
    0.000 999%   0.000 Cr                                                  
 3.14E-09   9%   0.000 GABA                                                
 1.37E-09  21%   0.000 Glc                                                 
    0.000 999%   0.000 Gln                                                 
 2.11E-10 145%   0.000 Glu                                                 
    0.000 999%   0.000 Glyc                                                
    0.000 999%   0.000 GPC                                                 
    0.000 999%   0.000 GSH                                                 
 8.59E-11 213%   0.000 Ins                                                 
    0.000 999%   0.000 Lac                                                 
    0.000 999%   0.000 NAAG                                                
 1.12E-09  14%   0.000 NAA                                                 
 1.19E-10  38%   0.000 PCh                                                 
    0.000 999%   0.000 PCr                                                 
    0.000 999%   0.000 PE                                                  
    0.000 999%   0.000 Scyllo                                              
    0.000 999%   0.000 Ser                                                 
    0.000 999%   0.000 Tau                                                 
 1.19E-10  38%   0.000 GPC+PCh                                             
 1.12E-09  14%   0.000 NAA+NAAG                                            
 8.59E-11 213%   0.000 Ins+Glyc                                            
    0.000 999%   0.000 Cr+PCr                                              
 2.11E-10 145%   0.000 Glu+Gln                                             
   6 lines in following misc. output table
  FWHM = 0.067 ppm    S/N =   4                                            
  Data shift = 0.335 ppm                                                   
  Ph:  70 deg      33.0 deg/ppm                                            
  alphaB,S = 1.6E-01,   7.5E+01                                            
   16 spline knots.   Ns = 5(1)                                            
  ( 7) 2 infls.   ( 3) 1 extrs.                                            
  363 points on ppm-axis = NY
      4.250000     4.238821     4.227641     4.216462     4.205282     4.194103     4.182923     4.171744     4.160564     4.149385
      4.138206     4.127026     4.115847     4.104667     4.093488     4.082308     4.071129     4.059949     4.048770     4.037591
      4.026411     4.015232     4.004052     3.992873     3.981693     3.970514     3.959334     3.948155     3.936975     3.925796
      3.914617     3.903437     3.892258     3.881078     3.869899     3.858719     3.847540     3.836360     3.825181     3.814002
      3.802822     3.791643     3.780463     3.769284     3.758104     3.746925     3.735745     3.724566     3.713387     3.702207
      3.691028     3.679848     3.668669     3.657489     3.646310     3.635130     3.623951     3.612772     3.601592     3.590413
      3.579233     3.568054     3.556874     3.545695     3.534515     3.523336     3.512156     3.500977     3.489798     3.478618
      3.467439     3.456259     3.445080     3.433900     3.422721     3.411541     3.400362     3.389183     3.378003     3.366824
      3.355644     3.344465     3.333285     3.322106     3.310926     3.299747     3.288568     3.277388     3.266209     3.255029
      3.243850     3.232670     3.221491     3.210311     3.199132     3.187953     3.176773     3.165594     3.154414     3.143235
      3.132055     3.120876     3.109696     3.098517     3.087337     3.076158     3.064979     3.053799     3.042620     3.031440
      3.020261     3.009081     2.997902     2.986722     2.975543     2.964364     2.953184     2.942005     2.930825     2.919646
      2.908466     2.897287     2.886107     2.874928     2.863749     2.852569     2.841390     2.830210     2.819031     2.807851
      2.796672     2.785492     2.774313     2.763134     2.751954     2.740775     2.729595     2.718416     2.707236     2.696057
      2.684877     2.673698     2.662519     2.651339     2.640160     2.628980     2.617801     2.606621     2.595442     2.584262
      2.573083     2.561903     2.550724     2.539545     2.528365     2.517186     2.506006     2.494827     2.483647     2.472468
      2.461288     2.450109     2.438930     2.427750     2.416571     2.405391     2.394212     2.383032     2.371853     2.360673
      2.349494     2.338315     2.327135     2.315956     2.304776     2.293597     2.282417     2.271238     2.260058     2.248879
      2.237700     2.226520     2.215341     2.204161     2.192982     2.181802     2.170623     2.159443     2.148264     2.137084
      2.125905     2.114726     2.103546     2.092367     2.081187     2.070008     2.058828     2.047649     2.036469     2.025290
      2.014111     2.002931     1.991752     1.980572     1.969393     1.958213     1.947034     1.935854     1.924675     1.913496
      1.902316     1.891137     1.879957     1.868778     1.857598     1.846419     1.835239     1.824060     1.812881     1.801701
      1.790522     1.779342     1.768163     1.756983     1.745804     1.734624     1.723445     1.712265     1.701086     1.689907
      1.678727     1.667548     1.656368     1.645189     1.634009     1.622830     1.611650     1.600471     1.589292     1.578112
      1.566933     1.555753     1.544574     1.533394     1.522215     1.511035     1.499856     1.488677     1.477497     1.466318
      1.455138     1.443959     1.432779     1.421600     1.410420     1.399241     1.388062     1.376882     1.365703     1.354523
      1.343344     1.332164     1.320985     1.309805     1.298626     1.287446     1.276267     1.265088     1.253908     1.242729
      1.231549     1.220370     1.209190     1.198011     1.186831     1.175652     1.164473     1.153293     1.142114     1.130934
      1.119755     1.108575     1.097396     1.086216     1.075037     1.063858     1.052678     1.041499     1.030319     1.019140
      1.007960     0.996781     0.985601     0.974422     0.963243     0.952063     0.940884     0.929704     0.918525     0.907345
      0.896166     0.884986     0.873807     0.862628     0.851448     0.840269     0.829089     0.817910     0.806730     0.795551
      0.784371     0.773192     0.762012     0.750833     0.739654     0.728474     0.717295     0.706115     0.694936     0.683756
      0.672577     0.661397     0.650218     0.639039     0.627859     0.616680     0.605500     0.594321     0.583141     0.571962
      0.560782     0.549603     0.538424     0.527244     0.516065     0.504885     0.493706     0.482526     0.471347     0.460167
      0.448988     0.437809     0.426629     0.415450     0.404270     0.393091     0.381911     0.370732     0.359552     0.348373
      0.337193     0.326014     0.314835     0.303655     0.292476     0.281296     0.270117     0.258937     0.247758     0.236578
      0.225399     0.214220     0.203040
 NY phased data points follow
   1.63317E-09  4.72421E-09  6.71274E-09  8.65923E-09  7.69689E-09  6.79234E-09  6.09343E-09  5.63738E-09  4.80187E-09  4.58149E-09
   3.87640E-09  4.44450E-09  4.05671E-09  4.82521E-09  5.04073E-09  5.24610E-09  6.41466E-09  7.05113E-09  6.22833E-09  6.64138E-09
   5.95040E-09  7.19513E-09  6.26367E-09  5.28793E-09  5.48398E-09  6.78783E-09  6.84241E-09  7.90858E-09  7.69915E-09  7.18203E-09
   6.14455E-09  7.14555E-09  7.01605E-09  1.03428E-08  1.05632E-08  1.15387E-08  1.02221E-08  1.03338E-08  8.41916E-09  7.51368E-09
   6.93974E-09  7.30722E-09  6.10522E-09  5.84166E-09  6.44705E-09  6.04665E-09  4.28388E-09  5.75323E-09  4.23837E-09  4.60191E-09
   3.77226E-09  3.96256E-09  4.51627E-09  4.67607E-09  4.35114E-09  4.87762E-09  3.02925E-09  3.08965E-09  3.55230E-09  2.84961E-09
   2.60762E-09  4.07629E-09  4.38582E-09  6.20988E-09  9.61234E-09  1.40565E-08  1.34358E-08  1.23115E-08  9.82415E-09  8.69675E-09
   7.40773E-09  6.78147E-09  6.01687E-09  5.25946E-09  3.81005E-09  4.36635E-09  3.69251E-09  3.02695E-09  3.71918E-09  5.19110E-09
   7.67195E-09  1.20938E-08  1.43468E-08  1.43852E-08  1.20347E-08  1.10005E-08  9.89382E-09  9.61002E-09  8.89580E-09  8.23056E-09
   7.40556E-09  7.81475E-09  7.28305E-09  6.54337E-09  6.01970E-09  6.23174E-09  5.11083E-09  5.38081E-09  4.57035E-09  4.65891E-09
   4.26309E-09  4.54850E-09  3.97879E-09  4.08382E-09  5.14971E-09  4.53214E-09  4.00905E-09  4.92556E-09  4.29315E-09  4.03233E-09
   3.54541E-09  3.09925E-09  2.54555E-09  2.65486E-09  3.04095E-09  3.36353E-09  3.98667E-09  4.08616E-09  3.97050E-09  4.44676E-09
   4.01329E-09  4.55960E-09  4.07704E-09  3.80714E-09  3.44761E-09  2.37263E-09  2.42898E-09  2.20140E-09  2.20886E-09  2.77981E-09
   3.35916E-09  2.78076E-09  2.42690E-09  3.26704E-09  2.52570E-09  2.56335E-09  2.61033E-09  2.45355E-09  2.34280E-09  2.10649E-09
   2.70405E-09  4.19122E-09  4.80250E-09  4.55170E-09  3.43794E-09  4.09676E-09  3.80654E-09  5.15179E-09  4.06437E-09  5.27138E-09
   4.13085E-09  4.19735E-09  4.42412E-09  3.85494E-09  3.62483E-09  3.66997E-09  3.42140E-09  3.62047E-09  3.71021E-09  4.11386E-09
   3.92635E-09  4.67011E-09  4.53231E-09  4.48089E-09  4.04114E-09  4.22196E-09  4.78653E-09  5.57179E-09  6.83835E-09  8.06932E-09
   9.06506E-09  1.19368E-08  1.63479E-08  1.78794E-08  1.47827E-08  1.09889E-08  8.14169E-09  7.21103E-09  5.87867E-09  4.96289E-09
   3.51406E-09  3.18909E-09  2.21433E-09  1.97951E-09  1.59220E-09  5.60273E-10  2.32766E-10 -3.29185E-10 -7.75765E-10 -1.64127E-09
  -2.72919E-09 -2.90234E-09 -3.54427E-09 -4.62969E-09 -5.59724E-09 -6.08201E-09 -7.61644E-09 -7.62717E-09 -8.73927E-09 -9.93381E-09
  -1.01566E-08 -1.00673E-08 -1.07466E-08 -1.02815E-08 -1.04278E-08 -9.33618E-09 -9.51776E-09 -8.38495E-09 -8.23914E-09 -7.44912E-09
  -6.17471E-09 -5.55058E-09 -4.17847E-09 -3.80598E-09 -2.82486E-09 -2.20883E-09 -1.42764E-09 -2.06072E-09 -6.04028E-10 -1.87074E-09
  -1.28287E-09 -1.82130E-09 -1.99011E-09 -1.48032E-09 -2.12959E-09 -1.51612E-09 -1.42480E-09 -1.30212E-09 -1.33828E-09 -1.01710E-09
  -1.46266E-09 -1.18434E-09 -1.57900E-09 -1.75481E-09 -2.09218E-09 -1.47345E-09 -1.73347E-09 -1.29484E-09 -1.09157E-09 -9.83119E-10
  -6.29392E-10 -1.16746E-09 -1.20488E-09 -1.39190E-09 -1.89923E-09 -1.50864E-09 -1.10602E-09 -1.42621E-09 -1.45757E-09 -1.24442E-09
  -7.23912E-10 -7.09875E-10 -5.04489E-10 -4.02840E-10 -6.60524E-10 -6.26214E-10 -7.36933E-10 -8.27538E-10 -1.83702E-09 -1.26838E-09
  -1.49313E-09 -1.42591E-09 -1.92876E-09 -2.01182E-09 -1.47572E-09 -9.51093E-10 -1.13818E-09 -6.76901E-10 -1.41678E-09  5.42648E-11
   1.79475E-11  4.10113E-11 -6.92468E-11  2.84559E-11  2.57989E-10  3.33581E-10 -8.93424E-10 -4.13184E-10 -4.32253E-10 -1.26090E-09
  -9.06785E-10 -1.34865E-09 -8.71650E-10 -1.49176E-09 -1.34118E-09 -1.16061E-09 -1.49364E-09 -1.00620E-09 -1.28910E-09 -7.36721E-10
  -6.91631E-10 -1.23181E-09 -1.12463E-09 -8.23940E-10 -7.99468E-10 -5.59987E-10 -7.54210E-10 -5.79102E-10 -1.05545E-09 -1.19948E-09
  -7.74942E-10 -4.89208E-10 -1.22266E-09 -7.19468E-10 -3.93425E-10 -7.15783E-10 -4.28715E-10 -1.22437E-09 -1.66582E-10 -8.82012E-10
  -1.19830E-09 -6.46049E-11 -5.49392E-10 -5.18450E-10 -2.67574E-10 -3.82754E-10 -5.12139E-10  3.52378E-10 -5.26432E-10  7.93102E-13
  -4.34922E-10 -3.95358E-10  1.21314E-10 -4.67179E-10  1.51355E-11 -4.21462E-11 -1.97908E-10 -5.97876E-11 -1.80482E-10  1.79980E-10
   7.50222E-11 -1.57783E-11 -2.67685E-10 -6.90372E-11 -1.29012E-10 -1.79731E-10  2.75843E-11 -2.46921E-10 -2.35377E-10  1.58710E-10
   3.35153E-10  3.64073E-10 -1.60046E-10 -3.95080E-11  2.72075E-10  4.09719E-10 -6.83588E-10  3.55225E-10 -1.12802E-11  2.48904E-10
   2.22389E-10  2.55601E-10  4.34672E-10  2.86094E-10  1.70961E-10  4.76095E-10  4.09871E-10  3.38468E-10  6.68816E-10  6.57819E-10
   1.27185E-10  1.24330E-10 -9.21113E-11
 NY points of the fit to the data follow
   5.17341E-09  5.63980E-09  6.05653E-09  6.35321E-09  6.42166E-09  6.23872E-09  5.85857E-09  5.39760E-09  4.98049E-09  4.63139E-09
   4.46371E-09  4.42999E-09  4.48681E-09  4.63716E-09  4.91988E-09  5.31059E-09  5.80039E-09  6.35371E-09  6.86707E-09  7.22384E-09
   7.35076E-09  7.13971E-09  6.64298E-09  6.12807E-09  5.75186E-09  5.59653E-09  5.77726E-09  6.29544E-09  6.95540E-09  7.56923E-09
   7.90080E-09  8.14083E-09  8.53355E-09  8.87606E-09  9.12337E-09  9.54010E-09  9.92787E-09  9.98555E-09  9.59801E-09  8.88151E-09
   8.07362E-09  7.19391E-09  6.04796E-09  5.14444E-09  4.67481E-09  4.23312E-09  3.93121E-09  3.91693E-09  4.02041E-09  4.12692E-09
   4.19124E-09  4.19486E-09  4.18940E-09  4.19182E-09  4.21405E-09  4.26455E-09  4.32717E-09  4.38285E-09  4.38875E-09  4.42346E-09
   4.64896E-09  5.17885E-09  5.90507E-09  6.72697E-09  7.83098E-09  8.92787E-09  9.74999E-09  1.03177E-08  1.06075E-08  1.04898E-08
   9.90374E-09  8.86868E-09  7.67386E-09  6.67590E-09  5.67284E-09  4.80261E-09  4.67030E-09  5.16739E-09  6.01544E-09  7.35660E-09
   8.99913E-09  1.06878E-08  1.21573E-08  1.29146E-08  1.26579E-08  1.17055E-08  1.04373E-08  9.06139E-09  7.89953E-09  7.56047E-09
   7.45519E-09  7.38210E-09  7.08239E-09  6.55574E-09  6.16754E-09  5.75721E-09  5.18891E-09  4.78214E-09  4.50759E-09  4.25299E-09
   4.10449E-09  4.03770E-09  4.02433E-09  4.06711E-09  4.13584E-09  4.19587E-09  4.22633E-09  4.22416E-09  4.19007E-09  4.11680E-09
   4.00657E-09  3.89256E-09  3.81006E-09  3.71598E-09  3.63434E-09  3.60563E-09  3.59406E-09  3.58940E-09  3.58803E-09  3.58827E-09
   3.58918E-09  3.59016E-09  3.59077E-09  3.59069E-09  3.58967E-09  3.58751E-09  3.58404E-09  3.57911E-09  3.57260E-09  3.56437E-09
   3.55433E-09  3.54237E-09  3.52839E-09  3.51229E-09  3.49399E-09  3.47339E-09  3.45043E-09  3.42502E-09  3.39710E-09  3.36659E-09
   3.33341E-09  3.29751E-09  3.25884E-09  3.21735E-09  3.17301E-09  3.12578E-09  3.07564E-09  3.02255E-09  2.96651E-09  2.90752E-09
   2.84561E-09  2.78081E-09  2.71321E-09  2.64293E-09  2.57015E-09  2.49512E-09  2.41823E-09  2.34002E-09  2.26135E-09  2.18347E-09
   2.10840E-09  2.03948E-09  1.98267E-09  1.94956E-09  1.96672E-09  2.11341E-09  2.74496E-09  4.23750E-09  6.38909E-09  8.98443E-09
   1.18660E-08  1.45976E-08  1.63771E-08  1.64680E-08  1.47457E-08  1.17086E-08  8.01250E-09  4.31419E-09  1.62230E-09  4.31291E-10
  -1.14057E-10 -4.71816E-10 -7.50075E-10 -9.86044E-10 -1.19603E-09 -1.38826E-09 -1.56721E-09 -1.73547E-09 -1.89451E-09 -2.04521E-09
  -2.18805E-09 -2.32324E-09 -2.45082E-09 -2.57069E-09 -2.68272E-09 -2.78668E-09 -2.88241E-09 -2.97016E-09 -3.05020E-09 -3.12280E-09
  -3.18822E-09 -3.24667E-09 -3.29841E-09 -3.34364E-09 -3.38259E-09 -3.41545E-09 -3.44244E-09 -3.46375E-09 -3.47958E-09 -3.49013E-09
  -3.49560E-09 -3.49618E-09 -3.49204E-09 -3.48340E-09 -3.47043E-09 -3.45332E-09 -3.43226E-09 -3.40743E-09 -3.37902E-09 -3.34722E-09
  -3.31220E-09 -3.27415E-09 -3.23326E-09 -3.18971E-09 -3.14368E-09 -3.09534E-09 -3.04485E-09 -2.99237E-09 -2.93809E-09 -2.88216E-09
  -2.82476E-09 -2.76604E-09 -2.70619E-09 -2.64536E-09 -2.58371E-09 -2.52142E-09 -2.45865E-09 -2.39558E-09 -2.33235E-09 -2.26915E-09
  -2.20614E-09 -2.14348E-09 -2.08134E-09 -2.01989E-09 -1.95928E-09 -1.89969E-09 -1.84128E-09 -1.78421E-09 -1.72866E-09 -1.67480E-09
  -1.62276E-09 -1.57275E-09 -1.52481E-09 -1.47889E-09 -1.43494E-09 -1.39291E-09 -1.35271E-09 -1.31431E-09 -1.27764E-09 -1.24263E-09
  -1.20923E-09 -1.17737E-09 -1.14701E-09 -1.11807E-09 -1.09050E-09 -1.06424E-09 -1.03921E-09 -1.01539E-09 -9.92690E-10 -9.71055E-10
  -9.50423E-10 -9.30746E-10 -9.11949E-10 -8.93977E-10 -8.76782E-10 -8.60279E-10 -8.44434E-10 -8.29173E-10 -8.14441E-10 -8.00171E-10
  -7.86327E-10 -7.72882E-10 -7.59807E-10 -7.47072E-10 -7.34659E-10 -7.22533E-10 -7.10674E-10 -6.99047E-10 -6.87631E-10 -6.76399E-10
  -6.65322E-10 -6.54375E-10 -6.43529E-10 -6.32759E-10 -6.22038E-10 -6.11338E-10 -6.00634E-10 -5.89898E-10 -5.79107E-10 -5.68224E-10
  -5.57235E-10 -5.46104E-10 -5.34806E-10 -5.23321E-10 -5.11615E-10 -4.99662E-10 -4.87439E-10 -4.74914E-10 -4.62093E-10 -4.48986E-10
  -4.35604E-10 -4.21962E-10 -4.08073E-10 -3.93946E-10 -3.79597E-10 -3.65037E-10 -3.50278E-10 -3.35334E-10 -3.20219E-10 -3.04940E-10
  -2.89518E-10 -2.73957E-10 -2.58272E-10 -2.42482E-10 -2.26590E-10 -2.10617E-10 -1.94570E-10 -1.78462E-10 -1.62308E-10 -1.46122E-10
  -1.29910E-10 -1.13690E-10 -9.74724E-11 -8.12715E-11 -6.50997E-11 -4.89643E-11 -3.28712E-11 -1.68197E-11 -8.06522E-13  1.51686E-11
   3.11068E-11  4.70103E-11  6.28798E-11  7.87169E-11  9.45202E-11  1.10296E-10  1.26040E-10  1.41757E-10  1.57447E-10  1.73111E-10
   1.88753E-10  2.04369E-10  2.19965E-10  2.35539E-10  2.51095E-10  2.66631E-10  2.82151E-10  2.97657E-10  3.13148E-10  3.28624E-10
   3.44088E-10  3.59540E-10  3.74986E-10
 NY background values follow
    -8.301E-11   -5.932E-11   -3.562E-11   -1.193E-11    1.174E-11    3.539E-11    5.899E-11    8.253E-11    1.060E-10    1.294E-10
     1.527E-10    1.759E-10    1.990E-10    2.220E-10    2.448E-10    2.674E-10    2.899E-10    3.122E-10    3.344E-10    3.563E-10
     3.780E-10    3.995E-10    4.207E-10    4.417E-10    4.624E-10    4.829E-10    5.030E-10    5.229E-10    5.424E-10    5.616E-10
     5.806E-10    5.992E-10    6.177E-10    6.359E-10    6.539E-10    6.718E-10    6.895E-10    7.072E-10    7.247E-10    7.422E-10
     7.597E-10    7.772E-10    7.947E-10    8.123E-10    8.300E-10    8.478E-10    8.657E-10    8.838E-10    9.021E-10    9.206E-10
     9.394E-10    9.584E-10    9.777E-10    9.974E-10    1.017E-09    1.038E-09    1.059E-09    1.080E-09    1.102E-09    1.124E-09
     1.146E-09    1.169E-09    1.193E-09    1.217E-09    1.241E-09    1.265E-09    1.290E-09    1.316E-09    1.342E-09    1.368E-09
     1.395E-09    1.422E-09    1.450E-09    1.478E-09    1.506E-09    1.535E-09    1.564E-09    1.594E-09    1.624E-09    1.654E-09
     1.685E-09    1.716E-09    1.748E-09    1.780E-09    1.812E-09    1.845E-09    1.878E-09    1.912E-09    1.945E-09    1.979E-09
     2.013E-09    2.047E-09    2.081E-09    2.115E-09    2.149E-09    2.183E-09    2.216E-09    2.249E-09    2.282E-09    2.315E-09
     2.347E-09    2.379E-09    2.411E-09    2.441E-09    2.472E-09    2.501E-09    2.530E-09    2.558E-09    2.585E-09    2.612E-09
     2.637E-09    2.662E-09    2.685E-09    2.708E-09    2.729E-09    2.749E-09    2.768E-09    2.786E-09    2.802E-09    2.816E-09
     2.829E-09    2.841E-09    2.851E-09    2.859E-09    2.865E-09    2.869E-09    2.872E-09    2.872E-09    2.870E-09    2.867E-09
     2.860E-09    2.852E-09    2.841E-09    2.828E-09    2.812E-09    2.794E-09    2.773E-09    2.750E-09    2.723E-09    2.694E-09
     2.662E-09    2.627E-09    2.589E-09    2.548E-09    2.504E-09    2.456E-09    2.406E-09    2.351E-09    2.294E-09    2.233E-09
     2.169E-09    2.101E-09    2.030E-09    1.954E-09    1.876E-09    1.793E-09    1.706E-09    1.616E-09    1.522E-09    1.423E-09
     1.321E-09    1.214E-09    1.104E-09    9.886E-10    8.693E-10    7.457E-10    6.176E-10    4.850E-10    3.480E-10    2.068E-10
     6.192E-11   -8.625E-11   -2.373E-10   -3.907E-10   -5.461E-10   -7.030E-10   -8.611E-10   -1.020E-09   -1.179E-09   -1.338E-09
    -1.496E-09   -1.653E-09   -1.809E-09   -1.962E-09   -2.114E-09   -2.262E-09   -2.408E-09   -2.550E-09   -2.687E-09   -2.821E-09
    -2.949E-09   -3.072E-09   -3.189E-09   -3.300E-09   -3.404E-09   -3.501E-09   -3.591E-09   -3.673E-09   -3.748E-09   -3.816E-09
    -3.878E-09   -3.933E-09   -3.981E-09   -4.024E-09   -4.060E-09   -4.090E-09   -4.115E-09   -4.134E-09   -4.148E-09   -4.157E-09
    -4.161E-09   -4.160E-09   -4.154E-09   -4.144E-09   -4.130E-09   -4.111E-09   -4.089E-09   -4.063E-09   -4.034E-09   -4.001E-09
    -3.965E-09   -3.926E-09   -3.884E-09   -3.840E-09   -3.793E-09   -3.744E-09   -3.693E-09   -3.640E-09   -3.585E-09   -3.528E-09
    -3.470E-09   -3.411E-09   -3.350E-09   -3.289E-09   -3.227E-09   -3.164E-09   -3.101E-09   -3.037E-09   -2.973E-09   -2.910E-09
    -2.846E-09   -2.783E-09   -2.721E-09   -2.659E-09   -2.598E-09   -2.538E-09   -2.479E-09   -2.421E-09   -2.365E-09   -2.311E-09
    -2.259E-09   -2.208E-09   -2.160E-09   -2.114E-09   -2.070E-09   -2.027E-09   -1.987E-09   -1.948E-09   -1.911E-09   -1.876E-09
    -1.842E-09   -1.810E-09   -1.779E-09   -1.750E-09   -1.722E-09   -1.695E-09   -1.670E-09   -1.646E-09   -1.623E-09   -1.601E-09
    -1.580E-09   -1.560E-09   -1.541E-09   -1.523E-09   -1.505E-09   -1.488E-09   -1.472E-09   -1.457E-09   -1.442E-09   -1.427E-09
    -1.413E-09   -1.399E-09   -1.386E-09   -1.373E-09   -1.360E-09   -1.348E-09   -1.336E-09   -1.324E-09   -1.312E-09   -1.301E-09
    -1.289E-09   -1.278E-09   -1.267E-09   -1.256E-09   -1.245E-09   -1.234E-09   -1.223E-09   -1.212E-09   -1.201E-09   -1.190E-09
    -1.178E-09   -1.167E-09   -1.155E-09   -1.143E-09   -1.131E-09   -1.119E-09   -1.107E-09   -1.094E-09   -1.081E-09   -1.067E-09
    -1.054E-09   -1.040E-09   -1.026E-09   -1.011E-09   -9.965E-10   -9.817E-10   -9.666E-10   -9.514E-10   -9.359E-10   -9.203E-10
    -9.046E-10   -8.887E-10   -8.728E-10   -8.567E-10   -8.404E-10   -8.242E-10   -8.078E-10   -7.914E-10   -7.749E-10   -7.584E-10
    -7.419E-10   -7.253E-10   -7.088E-10   -6.922E-10   -6.757E-10   -6.593E-10   -6.429E-10   -6.265E-10   -6.101E-10   -5.938E-10
    -5.775E-10   -5.613E-10   -5.451E-10   -5.289E-10   -5.127E-10   -4.966E-10   -4.805E-10   -4.644E-10   -4.484E-10   -4.324E-10
    -4.164E-10   -4.004E-10   -3.844E-10   -3.685E-10   -3.526E-10   -3.367E-10   -3.208E-10   -3.049E-10   -2.890E-10   -2.732E-10
    -2.573E-10   -2.415E-10   -2.256E-10
 Ala      Conc. = 1.40E-10
   2.03512E-11  5.56554E-11  8.72076E-11  1.14902E-10  1.39483E-10  1.61383E-10  1.78127E-10  1.88293E-10  1.99930E-10  2.12929E-10
   2.19556E-10  2.28864E-10  2.43882E-10  2.58007E-10  2.73587E-10  2.91898E-10  3.11516E-10  3.31798E-10  3.52421E-10  3.73198E-10
   3.94010E-10  4.14777E-10  4.35438E-10  4.55953E-10  4.76285E-10  4.96401E-10  5.16281E-10  5.35902E-10  5.55243E-10  5.74296E-10
   5.93080E-10  6.11619E-10  6.29935E-10  6.48055E-10  6.66004E-10  6.83805E-10  7.01487E-10  7.19073E-10  7.36592E-10  7.54068E-10
   7.71529E-10  7.89001E-10  8.06510E-10  8.24085E-10  8.41749E-10  8.59533E-10  8.77461E-10  8.95561E-10  9.13861E-10  9.32387E-10
   9.51166E-10  9.70226E-10  9.89593E-10  1.00929E-09  1.02936E-09  1.04981E-09  1.07068E-09  1.09198E-09  1.11372E-09  1.13589E-09
   1.15849E-09  1.18153E-09  1.20499E-09  1.22889E-09  1.25321E-09  1.27796E-09  1.30314E-09  1.32874E-09  1.35477E-09  1.38123E-09
   1.40811E-09  1.43542E-09  1.46315E-09  1.49131E-09  1.51990E-09  1.54891E-09  1.57835E-09  1.60822E-09  1.63853E-09  1.66927E-09
   1.70044E-09  1.73206E-09  1.76413E-09  1.79666E-09  1.82964E-09  1.86309E-09  1.89695E-09  1.93120E-09  1.96582E-09  2.00079E-09
   2.03612E-09  2.07181E-09  2.10793E-09  2.14456E-09  2.18187E-09  2.22018E-09  2.26006E-09  2.30267E-09  2.35073E-09  2.41263E-09
   2.50407E-09  2.60627E-09  2.71845E-09  2.85822E-09  3.00405E-09  3.12668E-09  3.20869E-09  3.24956E-09  3.25197E-09  3.21006E-09
   3.12721E-09  3.03716E-09  2.97563E-09  2.89996E-09  2.83452E-09  2.82013E-09  2.82143E-09  2.82836E-09  2.83745E-09  2.84713E-09
   2.85658E-09  2.86529E-09  2.87292E-09  2.87925E-09  2.88409E-09  2.88730E-09  2.88874E-09  2.88831E-09  2.88592E-09  2.88147E-09
   2.87487E-09  2.86605E-09  2.85492E-09  2.84141E-09  2.82545E-09  2.80696E-09  2.78586E-09  2.76209E-09  2.73558E-09  2.70625E-09
   2.67403E-09  2.63887E-09  2.60071E-09  2.55947E-09  2.51511E-09  2.46757E-09  2.41678E-09  2.36269E-09  2.30524E-09  2.24437E-09
   2.18003E-09  2.11215E-09  2.04069E-09  1.96558E-09  1.88677E-09  1.80421E-09  1.71785E-09  1.62764E-09  1.53353E-09  1.43550E-09
   1.33352E-09  1.22759E-09  1.11778E-09  1.00421E-09  8.87293E-10  7.68254E-10  6.52445E-10  5.54590E-10  4.66416E-10  3.83466E-10
   3.04350E-10  2.21543E-10  1.17213E-10 -2.69198E-11 -2.14830E-10 -4.33931E-10 -6.68721E-10 -9.06222E-10 -1.12628E-09 -1.30344E-09
  -1.46923E-09 -1.63051E-09 -1.78877E-09 -1.94430E-09 -2.09698E-09 -2.24657E-09 -2.39274E-09 -2.53512E-09 -2.67330E-09 -2.80690E-09
  -2.93549E-09 -3.05866E-09 -3.17599E-09 -3.28704E-09 -3.39140E-09 -3.48864E-09 -3.57845E-09 -3.66094E-09 -3.73629E-09 -3.80468E-09
  -3.86630E-09 -3.92132E-09 -3.96993E-09 -4.01230E-09 -4.04863E-09 -4.07909E-09 -4.10385E-09 -4.12311E-09 -4.13704E-09 -4.14582E-09
  -4.14964E-09 -4.14867E-09 -4.14309E-09 -4.13309E-09 -4.11884E-09 -4.10052E-09 -4.07832E-09 -4.05242E-09 -4.02299E-09 -3.99021E-09
  -3.95427E-09 -3.91535E-09 -3.87362E-09 -3.82927E-09 -3.78247E-09 -3.73340E-09 -3.68220E-09 -3.62905E-09 -3.57412E-09 -3.51756E-09
  -3.45956E-09 -3.40026E-09 -3.33984E-09 -3.27847E-09 -3.21629E-09 -3.15350E-09 -3.09023E-09 -3.02668E-09 -2.96298E-09 -2.89933E-09
  -2.83587E-09 -2.77278E-09 -2.71021E-09 -2.64835E-09 -2.58733E-09 -2.52735E-09 -2.46855E-09 -2.41110E-09 -2.35518E-09 -2.30095E-09
  -2.24856E-09 -2.19819E-09 -2.14990E-09 -2.10364E-09 -2.05936E-09 -2.01699E-09 -1.97647E-09 -1.93774E-09 -1.90075E-09 -1.86542E-09
  -1.83171E-09 -1.79955E-09 -1.76888E-09 -1.73963E-09 -1.71176E-09 -1.68520E-09 -1.65988E-09 -1.63576E-09 -1.61278E-09 -1.59085E-09
  -1.56993E-09 -1.54997E-09 -1.53089E-09 -1.51263E-09 -1.49515E-09 -1.47837E-09 -1.46224E-09 -1.44670E-09 -1.43169E-09 -1.41715E-09
  -1.40302E-09 -1.38930E-09 -1.37595E-09 -1.36294E-09 -1.35025E-09 -1.33785E-09 -1.32572E-09 -1.31382E-09 -1.30212E-09 -1.29062E-09
  -1.27927E-09 -1.26804E-09 -1.25692E-09 -1.24588E-09 -1.23488E-09 -1.22390E-09 -1.21292E-09 -1.20191E-09 -1.19084E-09 -1.17968E-09
  -1.16841E-09 -1.15700E-09 -1.14542E-09 -1.13366E-09 -1.12167E-09 -1.10943E-09 -1.09693E-09 -1.08412E-09 -1.07101E-09 -1.05762E-09
  -1.04395E-09 -1.03002E-09 -1.01584E-09 -1.00142E-09 -9.86777E-10 -9.71923E-10 -9.56870E-10 -9.41630E-10 -9.26217E-10 -9.10640E-10
  -8.94917E-10 -8.79055E-10 -8.63068E-10 -8.46973E-10 -8.30775E-10 -8.14495E-10 -7.98139E-10 -7.81721E-10 -7.65255E-10 -7.48755E-10
  -7.32228E-10 -7.15691E-10 -6.99154E-10 -6.82633E-10 -6.66139E-10 -6.49679E-10 -6.33261E-10 -6.16882E-10 -6.00539E-10 -5.84232E-10
  -5.67961E-10 -5.51722E-10 -5.35516E-10 -5.19340E-10 -5.03196E-10 -4.87077E-10 -4.70988E-10 -4.54925E-10 -4.38886E-10 -4.22870E-10
  -4.06875E-10 -3.90903E-10 -3.74950E-10 -3.59015E-10 -3.43097E-10 -3.27197E-10 -3.11310E-10 -2.95435E-10 -2.79573E-10 -2.63724E-10
  -2.47883E-10 -2.32053E-10 -2.16226E-10
 Asp      Conc. = 5.29E-10
   5.52906E-10  4.99839E-10  4.40257E-10  3.70100E-10  3.05597E-10  2.42240E-10  2.00108E-10  1.76381E-10  1.78034E-10  1.89606E-10
   2.06066E-10  2.25274E-10  2.46126E-10  2.67931E-10  2.90027E-10  3.12282E-10  3.34700E-10  3.57231E-10  3.79828E-10  4.02455E-10
   4.25088E-10  4.47712E-10  4.70320E-10  4.92916E-10  5.15513E-10  5.38131E-10  5.60809E-10  5.83602E-10  6.06584E-10  6.29876E-10
   6.53671E-10  6.78244E-10  7.03994E-10  7.31544E-10  7.61977E-10  7.97488E-10  8.43169E-10  8.96025E-10  9.58849E-10  1.02343E-09
   1.08347E-09  1.13370E-09  1.17383E-09  1.21324E-09  1.26072E-09  1.34282E-09  1.45047E-09  1.57961E-09  1.73724E-09  1.87914E-09
   1.96845E-09  1.97525E-09  1.91424E-09  1.81183E-09  1.69414E-09  1.59253E-09  1.51464E-09  1.48375E-09  1.44050E-09  1.39484E-09
   1.39051E-09  1.40372E-09  1.41354E-09  1.42500E-09  1.43251E-09  1.42750E-09  1.41601E-09  1.41961E-09  1.43114E-09  1.44718E-09
   1.46616E-09  1.48726E-09  1.50998E-09  1.53400E-09  1.55911E-09  1.58515E-09  1.61201E-09  1.63961E-09  1.66789E-09  1.69681E-09
   1.72631E-09  1.75637E-09  1.78697E-09  1.81808E-09  1.84969E-09  1.88175E-09  1.91421E-09  1.94701E-09  1.98009E-09  2.01338E-09
   2.04684E-09  2.08041E-09  2.11402E-09  2.14763E-09  2.18119E-09  2.21463E-09  2.24790E-09  2.28096E-09  2.31374E-09  2.34620E-09
   2.37827E-09  2.40992E-09  2.44108E-09  2.47171E-09  2.50175E-09  2.53115E-09  2.55986E-09  2.58782E-09  2.61499E-09  2.64132E-09
   2.66674E-09  2.69121E-09  2.71468E-09  2.73709E-09  2.75836E-09  2.77843E-09  2.79724E-09  2.81470E-09  2.83077E-09  2.84536E-09
   2.85840E-09  2.86984E-09  2.87961E-09  2.88762E-09  2.89383E-09  2.89815E-09  2.90052E-09  2.90088E-09  2.89916E-09  2.89528E-09
   2.88918E-09  2.88080E-09  2.87006E-09  2.85689E-09  2.84124E-09  2.82303E-09  2.80219E-09  2.77867E-09  2.75238E-09  2.72327E-09
   2.69125E-09  2.65629E-09  2.61831E-09  2.57728E-09  2.53311E-09  2.48577E-09  2.43520E-09  2.38133E-09  2.32411E-09  2.26350E-09
   2.19944E-09  2.13187E-09  2.06076E-09  1.98605E-09  1.90771E-09  1.82570E-09  1.73999E-09  1.65057E-09  1.55744E-09  1.46064E-09
   1.36026E-09  1.25645E-09  1.14958E-09  1.04030E-09  9.30156E-10  8.23255E-10  7.35635E-10  7.27892E-10  7.72175E-10  8.48465E-10
   9.50771E-10  1.05314E-09  1.08926E-09  9.85558E-10  7.19019E-10  3.32668E-10 -1.14953E-10 -5.76373E-10 -9.81840E-10 -1.22079E-09
  -1.40962E-09 -1.58270E-09 -1.74806E-09 -1.90827E-09 -2.06424E-09 -2.21625E-09 -2.36426E-09 -2.50807E-09 -2.64739E-09 -2.78191E-09
  -2.91126E-09 -3.03508E-09 -3.15295E-09 -3.26445E-09 -3.36921E-09 -3.46679E-09 -3.55690E-09 -3.63965E-09 -3.71523E-09 -3.78383E-09
  -3.84563E-09 -3.90082E-09 -3.94957E-09 -3.99209E-09 -4.02854E-09 -4.05910E-09 -4.08397E-09 -4.10333E-09 -4.11734E-09 -4.12620E-09
  -4.13009E-09 -4.12919E-09 -4.12367E-09 -4.11373E-09 -4.09953E-09 -4.08127E-09 -4.05912E-09 -4.03326E-09 -4.00387E-09 -3.97114E-09
  -3.93523E-09 -3.89635E-09 -3.85465E-09 -3.81033E-09 -3.76356E-09 -3.71451E-09 -3.66335E-09 -3.61022E-09 -3.55531E-09 -3.49878E-09
