 LCModel (Version 6.3-1R) Copyright: S.W. Provencher.          Ref.: Magn. Reson. Med. 30:672-679 (1993).                
 onepulse 22x11_ftSpec_smooth_lcm
 26 lines in following concentration table = NCONC+1
    Conc.  %SD /Cr+PCr  Metabolite                                         
    0.000 999%   0.000 Ala                                                 
    0.000 999%   0.000 Asp                                                 
 3.05E-10 112%   1.000 Cr                                                  
 6.98E-10 116%   2.287 GABA                                                
 2.05E-10 405%   0.673 Glc                                                 
 1.95E-09  37%   6.389 Gln                                                 
 2.66E-11 999% 8.7E-02 Glu                                                 
    0.000 999%   0.000 Glyc                                                
 1.62E-10  73%   0.532 GPC                                                 
    0.000 999%   0.000 GSH                                                 
 9.15E-10  39%   2.998 Ins                                                 
    0.000 999%   0.000 Lac                                                 
    0.000 999%   0.000 NAAG                                                
 7.67E-10  33%   2.515 NAA                                                 
    0.000 999%   0.000 PCh                                                 
    0.000 999%   0.000 PCr                                                 
    0.000 999%   0.000 PE                                                  
 7.43E-11 290%   0.244 Scyllo                                              
 1.98E-09  25%   6.476 Ser                                                 
 7.17E-10 124%   2.349 Tau                                                 
 1.62E-10  73%   0.532 GPC+PCh                                             
 7.67E-10  33%   2.515 NAA+NAAG                                            
 9.15E-10  39%   2.998 Ins+Glyc                                            
 3.05E-10 112%   1.000 Cr+PCr                                              
 1.98E-09  32%   6.477 Glu+Gln                                             
   6 lines in following misc. output table
  FWHM = 0.089 ppm    S/N =   3                                            
  Data shift = 0.358 ppm                                                   
  Ph:   3 deg     -12.6 deg/ppm                                            
  alphaB,S = 2.8E-01,   4.5E+01                                            
   10 spline knots.   Ns = 5(1)                                            
  ( 7) 2 infls.   ( 5) 1 extrs.                                            
  363 points on ppm-axis = NY
      4.250000     4.238821     4.227641     4.216462     4.205282     4.194103     4.182923     4.171744     4.160564     4.149385
      4.138206     4.127026     4.115847     4.104667     4.093488     4.082308     4.071129     4.059949     4.048770     4.037591
      4.026411     4.015232     4.004052     3.992873     3.981693     3.970514     3.959334     3.948155     3.936975     3.925796
      3.914617     3.903437     3.892258     3.881078     3.869899     3.858719     3.847540     3.836360     3.825181     3.814002
      3.802822     3.791643     3.780463     3.769284     3.758104     3.746925     3.735745     3.724566     3.713387     3.702207
      3.691028     3.679848     3.668669     3.657489     3.646310     3.635130     3.623951     3.612772     3.601592     3.590413
      3.579233     3.568054     3.556874     3.545695     3.534515     3.523336     3.512156     3.500977     3.489798     3.478618
      3.467439     3.456259     3.445080     3.433900     3.422721     3.411541     3.400362     3.389183     3.378003     3.366824
      3.355644     3.344465     3.333285     3.322106     3.310926     3.299747     3.288568     3.277388     3.266209     3.255029
      3.243850     3.232670     3.221491     3.210311     3.199132     3.187953     3.176773     3.165594     3.154414     3.143235
      3.132055     3.120876     3.109696     3.098517     3.087337     3.076158     3.064979     3.053799     3.042620     3.031440
      3.020261     3.009081     2.997902     2.986722     2.975543     2.964364     2.953184     2.942005     2.930825     2.919646
      2.908466     2.897287     2.886107     2.874928     2.863749     2.852569     2.841390     2.830210     2.819031     2.807851
      2.796672     2.785492     2.774313     2.763134     2.751954     2.740775     2.729595     2.718416     2.707236     2.696057
      2.684877     2.673698     2.662519     2.651339     2.640160     2.628980     2.617801     2.606621     2.595442     2.584262
      2.573083     2.561903     2.550724     2.539545     2.528365     2.517186     2.506006     2.494827     2.483647     2.472468
      2.461288     2.450109     2.438930     2.427750     2.416571     2.405391     2.394212     2.383032     2.371853     2.360673
      2.349494     2.338315     2.327135     2.315956     2.304776     2.293597     2.282417     2.271238     2.260058     2.248879
      2.237700     2.226520     2.215341     2.204161     2.192982     2.181802     2.170623     2.159443     2.148264     2.137084
      2.125905     2.114726     2.103546     2.092367     2.081187     2.070008     2.058828     2.047649     2.036469     2.025290
      2.014111     2.002931     1.991752     1.980572     1.969393     1.958213     1.947034     1.935854     1.924675     1.913496
      1.902316     1.891137     1.879957     1.868778     1.857598     1.846419     1.835239     1.824060     1.812881     1.801701
      1.790522     1.779342     1.768163     1.756983     1.745804     1.734624     1.723445     1.712265     1.701086     1.689907
      1.678727     1.667548     1.656368     1.645189     1.634009     1.622830     1.611650     1.600471     1.589292     1.578112
      1.566933     1.555753     1.544574     1.533394     1.522215     1.511035     1.499856     1.488677     1.477497     1.466318
      1.455138     1.443959     1.432779     1.421600     1.410420     1.399241     1.388062     1.376882     1.365703     1.354523
      1.343344     1.332164     1.320985     1.309805     1.298626     1.287446     1.276267     1.265088     1.253908     1.242729
      1.231549     1.220370     1.209190     1.198011     1.186831     1.175652     1.164473     1.153293     1.142114     1.130934
      1.119755     1.108575     1.097396     1.086216     1.075037     1.063858     1.052678     1.041499     1.030319     1.019140
      1.007960     0.996781     0.985601     0.974422     0.963243     0.952063     0.940884     0.929704     0.918525     0.907345
      0.896166     0.884986     0.873807     0.862628     0.851448     0.840269     0.829089     0.817910     0.806730     0.795551
      0.784371     0.773192     0.762012     0.750833     0.739654     0.728474     0.717295     0.706115     0.694936     0.683756
      0.672577     0.661397     0.650218     0.639039     0.627859     0.616680     0.605500     0.594321     0.583141     0.571962
      0.560782     0.549603     0.538424     0.527244     0.516065     0.504885     0.493706     0.482526     0.471347     0.460167
      0.448988     0.437809     0.426629     0.415450     0.404270     0.393091     0.381911     0.370732     0.359552     0.348373
      0.337193     0.326014     0.314835     0.303655     0.292476     0.281296     0.270117     0.258937     0.247758     0.236578
      0.225399     0.214220     0.203040
 NY phased data points follow
   6.59670E-09  8.14358E-09  8.51734E-09  7.95541E-09  7.83280E-09  7.09152E-09  6.69719E-09  6.25150E-09  6.27383E-09  5.44568E-09
   5.95914E-09  6.33279E-09  6.69725E-09  7.14090E-09  7.61647E-09  8.56549E-09  8.68280E-09  8.15927E-09  9.20759E-09  7.80816E-09
   7.82403E-09  8.22722E-09  8.05961E-09  8.72245E-09  8.59388E-09  8.58733E-09  8.96834E-09  8.59422E-09  8.50966E-09  8.15370E-09
   9.45196E-09  1.05407E-08  1.17637E-08  1.23739E-08  1.29581E-08  1.22253E-08  1.19613E-08  1.09421E-08  1.02663E-08  1.00776E-08
   9.80057E-09  9.56638E-09  9.57679E-09  9.46271E-09  8.97683E-09  8.30835E-09  7.70229E-09  6.98706E-09  7.26235E-09  6.89958E-09
   7.45249E-09  6.53836E-09  6.26809E-09  6.66137E-09  6.07842E-09  5.09903E-09  4.01331E-09  4.34638E-09  4.15800E-09  4.43894E-09
   4.48152E-09  6.35187E-09  8.90409E-09  1.12565E-08  1.25573E-08  1.32698E-08  1.29668E-08  1.17543E-08  1.05596E-08  9.22421E-09
   9.22386E-09  8.13912E-09  7.41197E-09  5.97989E-09  5.48828E-09  5.33627E-09  4.65848E-09  5.30662E-09  7.61372E-09  1.09522E-08
   1.40046E-08  1.49488E-08  1.48986E-08  1.48793E-08  1.42948E-08  1.40041E-08  1.31701E-08  1.29525E-08  1.28335E-08  1.26435E-08
   1.20670E-08  1.14969E-08  1.13963E-08  1.16218E-08  1.01773E-08  1.02837E-08  9.89066E-09  9.59821E-09  8.92041E-09  8.17039E-09
   7.99631E-09  8.61851E-09  8.56405E-09  8.26637E-09  7.91766E-09  7.84273E-09  7.98680E-09  7.10299E-09  7.20981E-09  5.66821E-09
   5.96079E-09  4.87800E-09  5.30165E-09  5.83004E-09  6.10507E-09  5.54678E-09  6.32021E-09  6.81410E-09  6.46525E-09  6.34069E-09
   6.51693E-09  6.58633E-09  5.81490E-09  5.30367E-09  5.29191E-09  4.67631E-09  4.03978E-09  4.19874E-09  4.43082E-09  4.41115E-09
   4.68309E-09  4.81462E-09  4.57776E-09  4.71997E-09  4.20159E-09  4.50976E-09  4.21176E-09  4.41297E-09  4.29605E-09  5.54619E-09
   6.23776E-09  6.18825E-09  6.59304E-09  6.21722E-09  6.55285E-09  7.06633E-09  6.83988E-09  7.33580E-09  7.39024E-09  6.55020E-09
   6.32476E-09  6.33559E-09  6.08842E-09  5.68947E-09  5.40460E-09  5.30034E-09  5.45523E-09  5.12701E-09  5.02569E-09  4.98594E-09
   4.66248E-09  4.99543E-09  4.91305E-09  4.47918E-09  4.57915E-09  4.50316E-09  4.75242E-09  5.49815E-09  6.70948E-09  8.15193E-09
   1.26828E-08  1.64372E-08  1.69337E-08  1.61254E-08  1.46982E-08  1.28934E-08  1.21821E-08  1.07417E-08  9.10462E-09  8.05218E-09
   7.25291E-09  6.18385E-09  4.46324E-09  3.52926E-09  2.36148E-09  8.19208E-10 -4.60032E-10 -2.22217E-09 -3.74602E-09 -4.77958E-09
  -6.19250E-09 -7.94821E-09 -9.88399E-09 -1.12048E-08 -1.23555E-08 -1.33886E-08 -1.36878E-08 -1.47150E-08 -1.49240E-08 -1.48902E-08
  -1.43757E-08 -1.36427E-08 -1.34594E-08 -1.20146E-08 -1.07792E-08 -9.40777E-09 -7.57517E-09 -6.43176E-09 -5.66089E-09 -3.96279E-09
  -3.44701E-09 -2.29213E-09 -1.37516E-09 -1.68896E-09 -1.75811E-09 -1.45490E-09 -2.14105E-09 -1.93444E-09 -2.21045E-09 -2.54152E-09
  -2.21342E-09 -1.51506E-09 -1.23779E-09 -1.05547E-09 -8.59787E-10 -1.32872E-09 -1.48932E-09 -1.86043E-09 -1.72775E-09 -1.13339E-09
  -1.77506E-09 -1.14755E-09 -1.40288E-09 -1.22140E-09 -8.44703E-10 -1.02519E-09 -6.87349E-10 -1.57431E-09 -1.10453E-09 -1.12351E-09
  -8.40666E-10 -1.12597E-09 -1.48888E-09 -1.50119E-09 -7.35873E-10 -9.44489E-10 -9.21005E-10 -6.65540E-10 -4.44519E-10 -4.98115E-10
  -8.58100E-10 -7.18378E-11 -1.82257E-10 -2.66886E-11 -3.35320E-10  1.01069E-10 -9.29397E-10 -6.46034E-10 -8.31011E-10 -6.63540E-10
  -1.98862E-09 -1.32482E-09 -1.27152E-09 -1.36519E-09 -1.28000E-09 -8.23432E-10 -8.23537E-10 -3.94419E-10 -6.29896E-10  1.35138E-10
   3.39084E-10  4.27185E-10  5.80732E-10  8.58844E-10  9.60277E-10  9.80793E-10  1.09627E-09  2.29500E-10  2.64008E-10  5.22578E-10
   1.11780E-10 -1.53324E-10 -6.19348E-11 -1.62251E-10 -6.42956E-10 -3.99971E-10 -5.56981E-10 -3.98738E-10 -5.41881E-10 -8.43226E-10
  -1.20661E-09 -4.41976E-10 -1.05083E-09 -8.08171E-10 -8.06768E-10 -7.65805E-10 -8.28742E-10 -7.90428E-10 -9.21144E-10 -1.07883E-09
  -4.12460E-10 -9.15169E-10 -4.93724E-10 -5.80565E-10 -7.04562E-10 -5.73549E-10 -4.28429E-10 -4.93147E-10 -5.20305E-10 -1.00716E-10
   7.43282E-11 -5.97783E-10 -1.75426E-10  1.08630E-10 -6.71682E-10  4.05456E-11 -2.33684E-10 -3.24299E-10  4.72297E-10  2.28653E-10
   5.58829E-10  1.06023E-10 -4.30501E-11 -1.84372E-10  3.37774E-10  3.83379E-10  4.50204E-10  7.72770E-10 -6.51323E-12  6.42073E-10
   7.58165E-10  7.73689E-10  9.48378E-10  6.05775E-10  8.26447E-10  8.02712E-10  1.17494E-09  4.81979E-10  1.40526E-09  1.38671E-09
   5.70370E-10  1.46198E-09  1.20542E-09  1.52257E-09  1.12925E-09  1.53299E-09  1.65584E-09  1.71480E-09  1.37581E-09  1.53288E-09
   1.56411E-09  1.90506E-09  2.00334E-09  1.68545E-09  2.06225E-09  1.98784E-09  1.79621E-09  2.54036E-09  2.83314E-09  2.22223E-09
   1.87645E-09  1.86635E-09  2.15828E-09
 NY points of the fit to the data follow
   6.84139E-09  7.29948E-09  7.22986E-09  7.01495E-09  7.09219E-09  7.20660E-09  7.09094E-09  6.83324E-09  6.60395E-09  6.55736E-09
   6.66012E-09  6.72435E-09  7.04214E-09  7.40541E-09  7.77533E-09  8.00694E-09  8.15319E-09  8.45654E-09  8.64452E-09  8.40695E-09
   8.07063E-09  7.84292E-09  7.66651E-09  7.49648E-09  7.51549E-09  7.78060E-09  8.36454E-09  9.07653E-09  9.76729E-09  1.03372E-08
   1.08201E-08  1.10328E-08  1.11513E-08  1.10564E-08  1.07215E-08  1.02932E-08  1.02054E-08  1.02733E-08  1.03655E-08  1.04026E-08
   1.03334E-08  1.01176E-08  9.55190E-09  8.68337E-09  8.14049E-09  7.78904E-09  7.43504E-09  7.11978E-09  6.85165E-09  6.61986E-09
   6.41798E-09  6.24976E-09  6.11725E-09  5.99645E-09  5.90132E-09  5.95240E-09  6.13535E-09  6.43539E-09  6.93924E-09  7.58316E-09
   8.23773E-09  8.91368E-09  9.58670E-09  1.01434E-08  1.05366E-08  1.07295E-08  1.06982E-08  1.05656E-08  1.01765E-08  9.53766E-09
   9.10402E-09  8.74552E-09  8.30080E-09  7.94279E-09  7.76528E-09  7.65859E-09  7.64751E-09  8.17021E-09  9.14393E-09  1.04010E-08
   1.18647E-08  1.32548E-08  1.42369E-08  1.48880E-08  1.53020E-08  1.52619E-08  1.47492E-08  1.37914E-08  1.22821E-08  1.12323E-08
   1.06501E-08  1.02684E-08  1.00075E-08  9.72146E-09  9.42074E-09  9.21925E-09  8.99168E-09  8.71945E-09  8.51308E-09  8.32957E-09
   8.14558E-09  7.98503E-09  7.84432E-09  7.71883E-09  7.60524E-09  7.50119E-09  7.40475E-09  7.31457E-09  7.22961E-09  7.14900E-09
   7.07201E-09  6.99792E-09  6.92625E-09  6.85656E-09  6.78849E-09  6.72171E-09  6.65591E-09  6.59077E-09  6.52603E-09  6.46147E-09
   6.39687E-09  6.33206E-09  6.26682E-09  6.20101E-09  6.13444E-09  6.06697E-09  5.99843E-09  5.92870E-09  5.85765E-09  5.78514E-09
   5.71104E-09  5.63525E-09  5.55766E-09  5.47812E-09  5.39655E-09  5.31284E-09  5.22689E-09  5.13859E-09  5.04784E-09  4.95457E-09
   4.85866E-09  4.76002E-09  4.65858E-09  4.55426E-09  4.44693E-09  4.33656E-09  4.22305E-09  4.10635E-09  3.98638E-09  3.86310E-09
   3.73644E-09  3.60638E-09  3.47293E-09  3.33606E-09  3.19585E-09  3.05237E-09  2.90590E-09  2.75688E-09  2.60615E-09  2.45481E-09
   2.30453E-09  2.15802E-09  2.02003E-09  1.89981E-09  1.81817E-09  1.83383E-09  2.19288E-09  3.91779E-09  6.71877E-09  1.00184E-08
   1.32585E-08  1.57844E-08  1.71678E-08  1.74443E-08  1.68174E-08  1.52428E-08  1.23104E-08  7.80924E-09  3.04015E-09  1.03913E-09
   2.18934E-10 -2.80933E-10 -6.49811E-10 -9.50972E-10 -1.21169E-09 -1.44559E-09 -1.66028E-09 -1.86028E-09 -2.04837E-09 -2.22639E-09
  -2.39552E-09 -2.55654E-09 -2.71001E-09 -2.85621E-09 -2.99540E-09 -3.12767E-09 -3.25306E-09 -3.37154E-09 -3.48311E-09 -3.58763E-09
  -3.68504E-09 -3.77520E-09 -3.85798E-09 -3.93325E-09 -4.00084E-09 -4.06061E-09 -4.11236E-09 -4.15598E-09 -4.19136E-09 -4.21875E-09
  -4.23839E-09 -4.25056E-09 -4.25552E-09 -4.25352E-09 -4.24482E-09 -4.22967E-09 -4.20833E-09 -4.18105E-09 -4.14809E-09 -4.10970E-09
  -4.06612E-09 -4.01761E-09 -3.96442E-09 -3.90679E-09 -3.84498E-09 -3.77923E-09 -3.70978E-09 -3.63689E-09 -3.56080E-09 -3.48174E-09
  -3.39995E-09 -3.31569E-09 -3.22918E-09 -3.14067E-09 -3.05039E-09 -2.95857E-09 -2.86546E-09 -2.77126E-09 -2.67623E-09 -2.58059E-09
  -2.48455E-09 -2.38834E-09 -2.29219E-09 -2.19631E-09 -2.10092E-09 -2.00623E-09 -1.91246E-09 -1.81982E-09 -1.72850E-09 -1.63871E-09
  -1.55066E-09 -1.46455E-09 -1.38057E-09 -1.29890E-09 -1.21975E-09 -1.14328E-09 -1.06970E-09 -9.99179E-10 -9.31886E-10 -8.68006E-10
  -8.07554E-10 -7.50429E-10 -6.96519E-10 -6.45689E-10 -5.97825E-10 -5.52812E-10 -5.10524E-10 -4.70851E-10 -4.33668E-10 -3.98865E-10
  -3.66332E-10 -3.35942E-10 -3.07600E-10 -2.81175E-10 -2.56561E-10 -2.33665E-10 -2.12360E-10 -1.92551E-10 -1.74118E-10 -1.56980E-10
  -1.41010E-10 -1.26132E-10 -1.12216E-10 -9.91810E-11 -8.69411E-11 -7.53898E-11 -6.44222E-11 -5.39609E-11 -4.39203E-11 -3.42110E-11
  -2.47356E-11 -1.54088E-11 -6.15197E-12  3.09666E-12  1.24463E-11  2.19456E-11  3.16941E-11  4.17507E-11  5.21918E-11  6.30723E-11
   7.44643E-11  8.64553E-11  9.90663E-11  1.12390E-10  1.26471E-10  1.41350E-10  1.57096E-10  1.73771E-10  1.91384E-10  2.10021E-10
   2.29694E-10  2.50436E-10  2.72243E-10  2.95026E-10  3.18712E-10  3.43231E-10  3.68515E-10  3.94493E-10  4.21097E-10  4.48261E-10
   4.75919E-10  5.04002E-10  5.32449E-10  5.61194E-10  5.90176E-10  6.19331E-10  6.48600E-10  6.77922E-10  7.07238E-10  7.36491E-10
   7.65624E-10  7.94581E-10  8.23306E-10  8.51748E-10  8.79853E-10  9.07569E-10  9.34847E-10  9.61638E-10  9.87893E-10  1.01357E-09
   1.03861E-09  1.06298E-09  1.08664E-09  1.10954E-09  1.13165E-09  1.15291E-09  1.17331E-09  1.19279E-09  1.21132E-09  1.22887E-09
   1.24541E-09  1.26091E-09  1.27533E-09  1.28864E-09  1.30082E-09  1.31185E-09  1.32169E-09  1.33033E-09  1.33775E-09  1.34391E-09
   1.34881E-09  1.35243E-09  1.35475E-09
 NY background values follow
     3.118E-09    3.160E-09    3.202E-09    3.243E-09    3.283E-09    3.322E-09    3.361E-09    3.399E-09    3.437E-09    3.474E-09
     3.510E-09    3.545E-09    3.580E-09    3.614E-09    3.647E-09    3.680E-09    3.712E-09    3.743E-09    3.774E-09    3.804E-09
     3.833E-09    3.862E-09    3.891E-09    3.918E-09    3.946E-09    3.972E-09    3.998E-09    4.024E-09    4.049E-09    4.073E-09
     4.097E-09    4.121E-09    4.144E-09    4.166E-09    4.188E-09    4.210E-09    4.231E-09    4.252E-09    4.273E-09    4.293E-09
     4.313E-09    4.332E-09    4.352E-09    4.371E-09    4.389E-09    4.408E-09    4.426E-09    4.444E-09    4.462E-09    4.479E-09
     4.497E-09    4.514E-09    4.531E-09    4.548E-09    4.565E-09    4.582E-09    4.599E-09    4.616E-09    4.632E-09    4.649E-09
     4.665E-09    4.682E-09    4.698E-09    4.714E-09    4.729E-09    4.745E-09    4.760E-09    4.776E-09    4.791E-09    4.805E-09
     4.820E-09    4.834E-09    4.849E-09    4.862E-09    4.876E-09    4.889E-09    4.902E-09    4.915E-09    4.928E-09    4.940E-09
     4.951E-09    4.963E-09    4.974E-09    4.984E-09    4.995E-09    5.004E-09    5.014E-09    5.022E-09    5.031E-09    5.039E-09
     5.046E-09    5.053E-09    5.059E-09    5.065E-09    5.070E-09    5.074E-09    5.078E-09    5.081E-09    5.084E-09    5.086E-09
     5.087E-09    5.087E-09    5.087E-09    5.086E-09    5.084E-09    5.081E-09    5.077E-09    5.073E-09    5.067E-09    5.060E-09
     5.052E-09    5.043E-09    5.033E-09    5.021E-09    5.008E-09    4.993E-09    4.977E-09    4.960E-09    4.941E-09    4.920E-09
     4.897E-09    4.872E-09    4.846E-09    4.817E-09    4.786E-09    4.754E-09    4.719E-09    4.682E-09    4.642E-09    4.600E-09
     4.556E-09    4.509E-09    4.460E-09    4.408E-09    4.353E-09    4.295E-09    4.235E-09    4.171E-09    4.105E-09    4.035E-09
     3.963E-09    3.887E-09    3.808E-09    3.725E-09    3.640E-09    3.550E-09    3.457E-09    3.361E-09    3.261E-09    3.157E-09
     3.049E-09    2.938E-09    2.822E-09    2.703E-09    2.579E-09    2.452E-09    2.320E-09    2.184E-09    2.045E-09    1.902E-09
     1.756E-09    1.606E-09    1.454E-09    1.299E-09    1.142E-09    9.827E-10    8.215E-10    6.587E-10    4.944E-10    3.289E-10
     1.625E-10   -4.562E-12   -1.721E-10   -3.398E-10   -5.075E-10   -6.749E-10   -8.418E-10   -1.008E-09   -1.173E-09   -1.337E-09
    -1.499E-09   -1.660E-09   -1.818E-09   -1.974E-09   -2.128E-09   -2.279E-09   -2.427E-09   -2.572E-09   -2.713E-09   -2.851E-09
    -2.985E-09   -3.114E-09   -3.240E-09   -3.360E-09   -3.476E-09   -3.586E-09   -3.691E-09   -3.791E-09   -3.884E-09   -3.972E-09
    -4.054E-09   -4.129E-09   -4.197E-09   -4.258E-09   -4.313E-09   -4.360E-09   -4.399E-09   -4.431E-09   -4.455E-09   -4.471E-09
    -4.480E-09   -4.481E-09   -4.476E-09   -4.464E-09   -4.445E-09   -4.421E-09   -4.390E-09   -4.354E-09   -4.312E-09   -4.265E-09
    -4.212E-09   -4.156E-09   -4.094E-09   -4.028E-09   -3.959E-09   -3.885E-09   -3.808E-09   -3.728E-09   -3.644E-09   -3.558E-09
    -3.469E-09   -3.377E-09   -3.284E-09   -3.189E-09   -3.091E-09   -2.993E-09   -2.893E-09   -2.793E-09   -2.691E-09   -2.589E-09
    -2.487E-09   -2.385E-09   -2.282E-09   -2.180E-09   -2.079E-09   -1.978E-09   -1.879E-09   -1.781E-09   -1.684E-09   -1.588E-09
    -1.495E-09   -1.403E-09   -1.314E-09   -1.227E-09   -1.142E-09   -1.060E-09   -9.817E-10   -9.061E-10   -8.337E-10   -7.648E-10
    -6.994E-10   -6.374E-10   -5.786E-10   -5.230E-10   -4.704E-10   -4.206E-10   -3.737E-10   -3.294E-10   -2.876E-10   -2.483E-10
    -2.113E-10   -1.764E-10   -1.437E-10   -1.129E-10   -8.399E-11   -5.682E-11   -3.128E-11   -7.272E-12    1.532E-11    3.657E-11
     5.662E-11    7.554E-11    9.346E-11    1.105E-10    1.266E-10    1.421E-10    1.569E-10    1.712E-10    1.850E-10    1.985E-10
     2.117E-10    2.247E-10    2.376E-10    2.505E-10    2.634E-10    2.765E-10    2.898E-10    3.033E-10    3.173E-10    3.316E-10
     3.464E-10    3.617E-10    3.777E-10    3.943E-10    4.117E-10    4.299E-10    4.488E-10    4.687E-10    4.895E-10    5.113E-10
     5.341E-10    5.579E-10    5.828E-10    6.087E-10    6.354E-10    6.629E-10    6.911E-10    7.200E-10    7.496E-10    7.796E-10
     8.101E-10    8.411E-10    8.723E-10    9.039E-10    9.356E-10    9.675E-10    9.995E-10    1.032E-09    1.064E-09    1.095E-09
     1.127E-09    1.159E-09    1.190E-09    1.221E-09    1.252E-09    1.282E-09    1.312E-09    1.341E-09    1.370E-09    1.398E-09
     1.425E-09    1.452E-09    1.478E-09    1.503E-09    1.528E-09    1.551E-09    1.574E-09    1.596E-09    1.616E-09    1.636E-09
     1.655E-09    1.673E-09    1.689E-09    1.705E-09    1.719E-09    1.732E-09    1.744E-09    1.755E-09    1.764E-09    1.772E-09
     1.779E-09    1.785E-09    1.789E-09
 Cr       Conc. = 3.05E-10
   4.00420E-09  4.16679E-09  4.16131E-09  3.95074E-09  3.78336E-09  3.69963E-09  3.65453E-09  3.63024E-09  3.61841E-09  3.61455E-09
   3.61600E-09  3.62102E-09  3.62843E-09  3.63738E-09  3.64722E-09  3.65745E-09  3.66763E-09  3.67738E-09  3.68635E-09  3.69416E-09
   3.70046E-09  3.70480E-09  3.70667E-09  3.70544E-09  3.70032E-09  3.69018E-09  3.67347E-09  3.64791E-09  3.60994E-09  3.55381E-09
   3.47100E-09  3.38217E-09  3.44512E-09  3.66751E-09  4.02851E-09  4.48766E-09  4.96746E-09  5.39639E-09  5.75229E-09  6.04043E-09
   6.23848E-09  6.25487E-09  5.98079E-09  5.52122E-09  5.29258E-09  5.16265E-09  5.07945E-09  5.02264E-09  4.98248E-09  4.95361E-09
   4.93277E-09  4.91791E-09  4.90762E-09  4.90094E-09  4.89713E-09  4.89562E-09  4.89601E-09  4.89795E-09  4.90121E-09  4.90555E-09
   4.91082E-09  4.91685E-09  4.92354E-09  4.93079E-09  4.93850E-09  4.94659E-09  4.95500E-09  4.96366E-09  4.97253E-09  4.98156E-09
   4.99070E-09  4.99991E-09  5.00915E-09  5.01840E-09  5.02760E-09  5.03674E-09  5.04579E-09  5.05472E-09  5.06348E-09  5.07208E-09
   5.08047E-09  5.08863E-09  5.09653E-09  5.10417E-09  5.11151E-09  5.11851E-09  5.12517E-09  5.13145E-09  5.13735E-09  5.14283E-09
   5.14786E-09  5.15245E-09  5.15653E-09  5.16012E-09  5.16319E-09  5.16569E-09  5.16761E-09  5.16894E-09  5.16966E-09  5.16973E-09
   5.16915E-09  5.16786E-09  5.16585E-09  5.16314E-09  5.15963E-09  5.15533E-09  5.15018E-09  5.14411E-09  5.13705E-09  5.12894E-09
   5.11972E-09  5.10933E-09  5.09770E-09  5.08477E-09  5.07049E-09  5.05476E-09  5.03754E-09  5.01876E-09  4.99834E-09  4.97624E-09
   4.95237E-09  4.92667E-09  4.89907E-09  4.86951E-09  4.83791E-09  4.80422E-09  4.76835E-09  4.73025E-09  4.68984E-09  4.64705E-09
   4.60182E-09  4.55407E-09  4.50375E-09  4.45077E-09  4.39508E-09  4.33658E-09  4.27524E-09  4.21097E-09  4.14371E-09  4.07340E-09
   3.99994E-09  3.92328E-09  3.84337E-09  3.76013E-09  3.67347E-09  3.58336E-09  3.48971E-09  3.39247E-09  3.29156E-09  3.18694E-09
   3.07852E-09  2.96624E-09  2.85008E-09  2.72991E-09  2.60573E-09  2.47743E-09  2.34508E-09  2.20874E-09  2.06872E-09  1.92526E-09
   1.77864E-09  1.62920E-09  1.47736E-09  1.32373E-09  1.16951E-09  1.01783E-09  8.82696E-10  8.06044E-10  7.65713E-10  7.39759E-10
   7.06001E-10  6.38682E-10  5.24096E-10  3.67049E-10  1.75492E-10 -5.51766E-11 -3.42802E-10 -6.89492E-10 -1.02713E-09 -1.24290E-09
  -1.42695E-09 -1.59963E-09 -1.76604E-09 -1.92790E-09 -2.08591E-09 -2.24026E-09 -2.39101E-09 -2.53813E-09 -2.68143E-09 -2.82078E-09
  -2.95600E-09 -3.08687E-09 -3.21321E-09 -3.33476E-09 -3.45136E-09 -3.56277E-09 -3.66877E-09 -3.76913E-09 -3.86365E-09 -3.95209E-09
  -4.03425E-09 -4.10990E-09 -4.17884E-09 -4.24085E-09 -4.29571E-09 -4.34324E-09 -4.38318E-09 -4.41540E-09 -4.43975E-09 -4.45644E-09
  -4.46571E-09 -4.46779E-09 -4.46292E-09 -4.45135E-09 -4.43332E-09 -4.40906E-09 -4.37882E-09 -4.34283E-09 -4.30135E-09 -4.25462E-09
  -4.20286E-09 -4.14633E-09 -4.08528E-09 -4.01993E-09 -3.95053E-09 -3.87733E-09 -3.80056E-09 -3.72046E-09 -3.63728E-09 -3.55125E-09
  -3.46259E-09 -3.37157E-09 -3.27840E-09 -3.18332E-09 -3.08657E-09 -2.98838E-09 -2.88897E-09 -2.78858E-09 -2.68742E-09 -2.58574E-09
  -2.48373E-09 -2.38164E-09 -2.27968E-09 -2.17806E-09 -2.07700E-09 -1.97671E-09 -1.87741E-09 -1.77930E-09 -1.68258E-09 -1.58745E-09
  -1.49412E-09 -1.40280E-09 -1.31365E-09 -1.22688E-09 -1.14269E-09 -1.06123E-09 -9.82713E-10 -9.07304E-10 -8.35179E-10 -7.66517E-10
  -7.01334E-10 -6.39527E-10 -5.80983E-10 -5.25567E-10 -4.73163E-10 -4.23655E-10 -3.76918E-10 -3.32840E-10 -2.91295E-10 -2.52173E-10
  -2.15363E-10 -1.80740E-10 -1.48203E-10 -1.17625E-10 -8.88976E-11 -6.19268E-11 -3.65863E-11 -1.27787E-11  9.61424E-12  3.06764E-11
   5.05334E-11  6.92618E-11  8.69943E-11  1.03810E-10  1.19796E-10  1.35059E-10  1.49705E-10  1.63811E-10  1.77464E-10  1.90753E-10
   2.03776E-10  2.16618E-10  2.29360E-10  2.42062E-10  2.54834E-10  2.67726E-10  2.80837E-10  2.94227E-10  3.07972E-10  3.22127E-10
   3.36765E-10  3.51973E-10  3.67774E-10  3.84260E-10  4.01475E-10  4.19461E-10  4.38286E-10  4.58015E-10  4.78655E-10  5.00292E-10
   5.22940E-10  5.46631E-10  5.71362E-10  5.97042E-10  6.23601E-10  6.50969E-10  6.79076E-10  7.07853E-10  7.37233E-10  7.67148E-10
   7.97532E-10  8.28320E-10  8.59447E-10  8.90850E-10  9.22466E-10  9.54233E-10  9.86090E-10  1.01798E-09  1.04984E-09  1.08161E-09
   1.11325E-09  1.14468E-09  1.17586E-09  1.20674E-09  1.23726E-09  1.26737E-09  1.29702E-09  1.32616E-09  1.35475E-09  1.38273E-09
   1.41006E-09  1.43670E-09  1.46261E-09  1.48774E-09  1.51205E-09  1.53551E-09  1.55807E-09  1.57970E-09  1.60037E-09  1.62003E-09
   1.63866E-09  1.65623E-09  1.67270E-09  1.68805E-09  1.70225E-09  1.71527E-09  1.72709E-09  1.73769E-09  1.74704E-09  1.75513E-09
   1.76194E-09  1.76744E-09  1.77163E-09
 GABA     Conc. = 6.98E-10
   2.80912E-09  2.84627E-09  2.88246E-09  2.91768E-09  2.95189E-09  2.98509E-09  3.01724E-09  3.04832E-09  3.07830E-09  3.10713E-09
   3.13479E-09  3.16121E-09  3.18636E-09  3.21017E-09  3.23258E-09  3.25352E-09  3.27289E-09  3.29054E-09  3.30637E-09  3.32015E-09
   3.33167E-09  3.34070E-09  3.34687E-09  3.34979E-09  3.34904E-09  3.34401E-09  3.33425E-09  3.31984E-09  3.30485E-09  3.32450E-09
   3.38263E-09  3.45058E-09  3.58236E-09  3.79412E-09  4.03843E-09  4.32161E-09  4.63704E-09  4.94238E-09  5.19580E-09  5.36779E-09
   5.46450E-09  5.55450E-09  5.54652E-09  5.37090E-09  5.24719E-09  5.17257E-09  5.02596E-09  4.89241E-09  4.80051E-09  4.73361E-09
   4.68250E-09  4.64197E-09  4.60871E-09  4.58060E-09  4.55612E-09  4.53399E-09  4.51339E-09  4.49373E-09  4.47482E-09  4.45743E-09
   4.44500E-09  4.45563E-09  4.53018E-09  4.63685E-09  4.77602E-09  5.00165E-09  5.26493E-09  5.52716E-09  5.79170E-09  6.02572E-09
   6.18807E-09  6.25214E-09  6.21732E-09  6.14141E-09  6.07664E-09  5.87745E-09  5.64112E-09  5.55054E-09  5.45212E-09  5.32629E-09
   5.26315E-09  5.22702E-09  5.20605E-09  5.24225E-09  5.30901E-09  5.38429E-09  5.49976E-09  5.64204E-09  5.78751E-09  5.92492E-09
   6.02668E-09  6.11516E-09  6.20755E-09  6.20180E-09  6.13270E-09  6.12749E-09  6.06920E-09  5.94525E-09  5.87038E-09  5.80450E-09
   5.72684E-09  5.66336E-09  5.61181E-09  5.56860E-09  5.53125E-09  5.49809E-09  5.46795E-09  5.44001E-09  5.41364E-09  5.38838E-09
   5.36379E-09  5.33945E-09  5.31510E-09  5.29053E-09  5.26556E-09  5.24002E-09  5.21376E-09  5.18657E-09  5.15832E-09  5.12890E-09
   5.09817E-09  5.06605E-09  5.03241E-09  4.99716E-09  4.96018E-09  4.92141E-09  4.88071E-09  4.83803E-09  4.79326E-09  4.74633E-09
   4.69713E-09  4.64561E-09  4.59168E-09  4.53523E-09  4.47622E-09  4.41455E-09  4.35015E-09  4.28293E-09  4.21284E-09  4.13980E-09
   4.06370E-09  3.98450E-09  3.90213E-09  3.81651E-09  3.72755E-09  3.63520E-09  3.53938E-09  3.44003E-09  3.33708E-09  3.23047E-09
   3.12010E-09  3.00595E-09  2.88794E-09  2.76600E-09  2.64009E-09  2.51013E-09  2.37617E-09  2.23832E-09  2.09688E-09  1.95215E-09
   1.80449E-09  1.65435E-09  1.50239E-09  1.34975E-09  1.19885E-09  1.05673E-09  9.56141E-10  9.91121E-10  1.11023E-09  1.26309E-09
   1.39860E-09  1.45782E-09  1.40972E-09  1.26521E-09  1.04183E-09  7.28232E-10  2.83417E-10 -2.95999E-10 -8.51927E-10 -1.13300E-09
  -1.34492E-09 -1.53338E-09 -1.71013E-09 -1.87940E-09 -2.04306E-09 -2.20189E-09 -2.35633E-09 -2.50655E-09 -2.65251E-09 -2.79420E-09
  -2.93149E-09 -3.06421E-09 -3.19224E-09 -3.31534E-09 -3.43337E-09 -3.54609E-09 -3.65332E-09 -3.75483E-09 -3.85045E-09 -3.93991E-09
  -4.02304E-09 -4.09963E-09 -4.16944E-09 -4.23230E-09 -4.28797E-09 -4.33628E-09 -4.37697E-09 -4.40991E-09 -4.43495E-09 -4.45232E-09
  -4.46223E-09 -4.46494E-09 -4.46069E-09 -4.44971E-09 -4.43225E-09 -4.40855E-09 -4.37886E-09 -4.34340E-09 -4.30243E-09 -4.25620E-09
  -4.20494E-09 -4.14889E-09 -4.08830E-09 -4.02341E-09 -3.95446E-09 -3.88170E-09 -3.80535E-09 -3.72567E-09 -3.64290E-09 -3.55726E-09
