 LCModel (Version 6.3-1R) Copyright: S.W. Provencher.          Ref.: Magn. Reson. Med. 30:672-679 (1993).                
 onepulse 22x18_ftSpec_smooth_lcm
 26 lines in following concentration table = NCONC+1
    Conc.  %SD   /Cr    Metabolite                                         
 8.55E-11 216%   0.000 Ala                                                 
 5.21E-10  72%   0.000 Asp                                                 
    0.000 999%   0.000 Cr                                                  
 2.82E-09  13%   0.000 GABA                                                
 1.54E-09  20%   0.000 Glc                                                 
    0.000 999%   0.000 Gln                                                 
 3.99E-10  99%   0.000 Glu                                                 
    0.000 999%   0.000 Glyc                                                
    0.000 999%   0.000 GPC                                                 
 2.53E-11 802%   0.000 GSH                                                 
 1.53E-10 137%   0.000 Ins                                                 
    0.000 999%   0.000 Lac                                                 
    0.000 999%   0.000 NAAG                                                
 1.04E-09  16%   0.000 NAA                                                 
 1.18E-10  44%   0.000 PCh                                                 
    0.000 999%   0.000 PCr                                                 
    0.000 999%   0.000 PE                                                  
    0.000 999%   0.000 Scyllo                                              
    0.000 999%   0.000 Ser                                                 
    0.000 999%   0.000 Tau                                                 
 1.18E-10  44%   0.000 GPC+PCh                                             
 1.04E-09  16%   0.000 NAA+NAAG                                            
 1.53E-10 137%   0.000 Ins+Glyc                                            
    0.000 999%   0.000 Cr+PCr                                              
 3.99E-10  99%   0.000 Glu+Gln                                             
   6 lines in following misc. output table
  FWHM = 0.078 ppm    S/N =   4                                            
  Data shift = 0.324 ppm                                                   
  Ph:  49 deg      32.0 deg/ppm                                            
  alphaB,S = 1.7E-01,   7.9E+01                                            
   16 spline knots.   Ns = 5(1)                                            
  ( 9) 2 infls.   ( 3) 1 extrs.                                            
  363 points on ppm-axis = NY
      4.250000     4.238821     4.227641     4.216462     4.205282     4.194103     4.182923     4.171744     4.160564     4.149385
      4.138206     4.127026     4.115847     4.104667     4.093488     4.082308     4.071129     4.059949     4.048770     4.037591
      4.026411     4.015232     4.004052     3.992873     3.981693     3.970514     3.959334     3.948155     3.936975     3.925796
      3.914617     3.903437     3.892258     3.881078     3.869899     3.858719     3.847540     3.836360     3.825181     3.814002
      3.802822     3.791643     3.780463     3.769284     3.758104     3.746925     3.735745     3.724566     3.713387     3.702207
      3.691028     3.679848     3.668669     3.657489     3.646310     3.635130     3.623951     3.612772     3.601592     3.590413
      3.579233     3.568054     3.556874     3.545695     3.534515     3.523336     3.512156     3.500977     3.489798     3.478618
      3.467439     3.456259     3.445080     3.433900     3.422721     3.411541     3.400362     3.389183     3.378003     3.366824
      3.355644     3.344465     3.333285     3.322106     3.310926     3.299747     3.288568     3.277388     3.266209     3.255029
      3.243850     3.232670     3.221491     3.210311     3.199132     3.187953     3.176773     3.165594     3.154414     3.143235
      3.132055     3.120876     3.109696     3.098517     3.087337     3.076158     3.064979     3.053799     3.042620     3.031440
      3.020261     3.009081     2.997902     2.986722     2.975543     2.964364     2.953184     2.942005     2.930825     2.919646
      2.908466     2.897287     2.886107     2.874928     2.863749     2.852569     2.841390     2.830210     2.819031     2.807851
      2.796672     2.785492     2.774313     2.763134     2.751954     2.740775     2.729595     2.718416     2.707236     2.696057
      2.684877     2.673698     2.662519     2.651339     2.640160     2.628980     2.617801     2.606621     2.595442     2.584262
      2.573083     2.561903     2.550724     2.539545     2.528365     2.517186     2.506006     2.494827     2.483647     2.472468
      2.461288     2.450109     2.438930     2.427750     2.416571     2.405391     2.394212     2.383032     2.371853     2.360673
      2.349494     2.338315     2.327135     2.315956     2.304776     2.293597     2.282417     2.271238     2.260058     2.248879
      2.237700     2.226520     2.215341     2.204161     2.192982     2.181802     2.170623     2.159443     2.148264     2.137084
      2.125905     2.114726     2.103546     2.092367     2.081187     2.070008     2.058828     2.047649     2.036469     2.025290
      2.014111     2.002931     1.991752     1.980572     1.969393     1.958213     1.947034     1.935854     1.924675     1.913496
      1.902316     1.891137     1.879957     1.868778     1.857598     1.846419     1.835239     1.824060     1.812881     1.801701
      1.790522     1.779342     1.768163     1.756983     1.745804     1.734624     1.723445     1.712265     1.701086     1.689907
      1.678727     1.667548     1.656368     1.645189     1.634009     1.622830     1.611650     1.600471     1.589292     1.578112
      1.566933     1.555753     1.544574     1.533394     1.522215     1.511035     1.499856     1.488677     1.477497     1.466318
      1.455138     1.443959     1.432779     1.421600     1.410420     1.399241     1.388062     1.376882     1.365703     1.354523
      1.343344     1.332164     1.320985     1.309805     1.298626     1.287446     1.276267     1.265088     1.253908     1.242729
      1.231549     1.220370     1.209190     1.198011     1.186831     1.175652     1.164473     1.153293     1.142114     1.130934
      1.119755     1.108575     1.097396     1.086216     1.075037     1.063858     1.052678     1.041499     1.030319     1.019140
      1.007960     0.996781     0.985601     0.974422     0.963243     0.952063     0.940884     0.929704     0.918525     0.907345
      0.896166     0.884986     0.873807     0.862628     0.851448     0.840269     0.829089     0.817910     0.806730     0.795551
      0.784371     0.773192     0.762012     0.750833     0.739654     0.728474     0.717295     0.706115     0.694936     0.683756
      0.672577     0.661397     0.650218     0.639039     0.627859     0.616680     0.605500     0.594321     0.583141     0.571962
      0.560782     0.549603     0.538424     0.527244     0.516065     0.504885     0.493706     0.482526     0.471347     0.460167
      0.448988     0.437809     0.426629     0.415450     0.404270     0.393091     0.381911     0.370732     0.359552     0.348373
      0.337193     0.326014     0.314835     0.303655     0.292476     0.281296     0.270117     0.258937     0.247758     0.236578
      0.225399     0.214220     0.203040
 NY phased data points follow
   1.28061E-09  2.19496E-09  5.98874E-09  7.43677E-09  9.00813E-09  8.16397E-09  7.08512E-09  6.29563E-09  5.32735E-09  4.22970E-09
   4.70565E-09  3.79391E-09  4.07555E-09  3.93393E-09  5.15939E-09  5.32104E-09  5.55808E-09  6.52329E-09  6.60932E-09  6.14629E-09
   6.74420E-09  6.03567E-09  6.55921E-09  6.23702E-09  5.09197E-09  5.40002E-09  5.92243E-09  6.78206E-09  7.65480E-09  7.03129E-09
   6.70939E-09  6.02259E-09  5.91413E-09  6.98058E-09  9.07319E-09  9.78688E-09  1.04906E-08  9.24973E-09  8.70704E-09  6.76257E-09
   6.11050E-09  5.47233E-09  5.78205E-09  4.14590E-09  4.85665E-09  4.84604E-09  4.28528E-09  3.69887E-09  4.89607E-09  3.75271E-09
   2.93079E-09  2.72209E-09  3.99582E-09  3.32776E-09  4.74336E-09  4.16053E-09  3.65492E-09  2.75954E-09  3.51891E-09  3.06586E-09
   2.61612E-09  3.20019E-09  4.50423E-09  4.92935E-09  6.42691E-09  8.84194E-09  1.26626E-08  1.25118E-08  1.07889E-08  8.49096E-09
   6.94595E-09  5.50249E-09  5.66596E-09  4.39472E-09  3.59370E-09  3.03561E-09  3.42394E-09  2.74265E-09  3.19252E-09  4.03022E-09
   5.33434E-09  8.07291E-09  1.15336E-08  1.40416E-08  1.33651E-08  1.00989E-08  9.24040E-09  7.65302E-09  8.20137E-09  6.75382E-09
   6.56874E-09  6.32254E-09  5.26629E-09  5.48104E-09  5.24665E-09  4.32792E-09  4.66901E-09  3.43835E-09  4.25677E-09  3.11233E-09
   3.16007E-09  2.77463E-09  3.43905E-09  3.87004E-09  3.30751E-09  4.26583E-09  3.39199E-09  3.44182E-09  3.77806E-09  3.42993E-09
   3.55437E-09  2.26282E-09  2.14486E-09  2.22136E-09  2.75840E-09  2.67936E-09  3.77935E-09  3.30777E-09  3.91314E-09  4.00464E-09
   4.07333E-09  4.20655E-09  4.19068E-09  3.38659E-09  3.82741E-09  3.05143E-09  1.99429E-09  2.42796E-09  1.82494E-09  2.00170E-09
   2.59085E-09  3.68588E-09  2.81875E-09  2.55091E-09  3.12390E-09  3.38167E-09  2.71526E-09  2.66545E-09  2.58041E-09  2.40399E-09
   2.61357E-09  3.38843E-09  3.94362E-09  4.67337E-09  4.92220E-09  4.17302E-09  3.82847E-09  4.31929E-09  5.05505E-09  4.59232E-09
   5.25204E-09  4.76412E-09  3.97300E-09  4.36911E-09  4.83584E-09  4.11037E-09  4.63236E-09  4.24090E-09  4.90189E-09  5.13911E-09
   5.44510E-09  5.85217E-09  5.82077E-09  5.93811E-09  6.17501E-09  5.98751E-09  6.82912E-09  7.55025E-09  7.65573E-09  8.64492E-09
   1.11885E-08  1.27235E-08  1.46370E-08  1.69081E-08  1.69953E-08  1.37920E-08  1.02440E-08  6.82172E-09  5.29797E-09  4.20730E-09
   4.71536E-09  2.99566E-09  3.29530E-09  1.80032E-09  2.33134E-09  1.22762E-09  9.43320E-10  7.51379E-10  1.47501E-10  3.31140E-10
   3.93496E-11 -8.89195E-10 -1.41726E-09 -1.89079E-09 -3.09034E-09 -3.19652E-09 -4.69934E-09 -5.10058E-09 -6.50346E-09 -6.87246E-09
  -8.50052E-09 -8.90576E-09 -9.76552E-09 -1.03880E-08 -1.10228E-08 -1.13022E-08 -1.17581E-08 -1.16146E-08 -1.13066E-08 -1.16182E-08
  -1.04335E-08 -9.64383E-09 -8.69875E-09 -6.91697E-09 -6.79687E-09 -5.07009E-09 -3.84938E-09 -2.88701E-09 -2.95274E-09 -1.95267E-09
  -2.36422E-09 -1.49252E-09 -2.52608E-09 -2.29759E-09 -2.36327E-09 -3.39941E-09 -2.60648E-09 -1.77910E-09 -2.53874E-09 -2.03591E-09
  -2.33221E-09 -2.18077E-09 -1.94419E-09 -2.38762E-09 -1.89897E-09 -2.78421E-09 -2.57788E-09 -2.77205E-09 -2.22709E-09 -1.72325E-09
  -2.33320E-09 -1.84859E-09 -1.68830E-09 -1.50953E-09 -2.04674E-09 -2.15213E-09 -2.08668E-09 -2.49153E-09 -2.25887E-09 -2.28240E-09
  -2.16902E-09 -1.55825E-09 -1.75236E-09 -1.21029E-09 -1.48130E-09 -1.60949E-09 -1.19571E-09 -1.27723E-09 -1.73951E-09 -2.09343E-09
  -2.14754E-09 -2.07168E-09 -2.06350E-09 -3.23653E-09 -2.41206E-09 -2.29049E-09 -1.35088E-09 -1.85348E-09 -1.16410E-09 -1.27446E-09
  -5.88083E-10 -7.83029E-10 -1.04226E-09 -7.59642E-10 -1.22194E-09 -9.67167E-10 -7.88613E-10 -2.04232E-09 -1.48675E-09 -2.08508E-09
  -1.89784E-09 -1.85422E-09 -2.08319E-09 -2.10982E-09 -1.75734E-09 -2.25027E-09 -1.53086E-09 -1.83520E-09 -1.06571E-09 -1.63814E-09
  -9.09037E-10 -1.32220E-09 -1.59372E-09 -1.69583E-09 -1.32284E-09 -1.34103E-09 -1.55210E-09 -1.39485E-09 -1.17189E-09 -1.91756E-09
  -1.68488E-09 -9.53236E-10 -1.58388E-09 -1.44717E-09 -1.05660E-09 -1.38010E-09 -1.15029E-09 -1.42649E-09 -1.17420E-09 -1.05822E-09
  -1.12891E-09 -1.66343E-09 -1.51536E-09 -9.97642E-10 -8.49830E-10 -1.13992E-09 -9.81383E-10 -1.42179E-09 -7.46106E-10 -1.75337E-09
  -6.05275E-10 -1.36150E-09 -1.07563E-09 -6.45012E-10 -1.46371E-09 -6.67586E-10 -9.93472E-10 -1.28075E-09 -1.00827E-09 -1.63745E-09
  -6.08673E-10 -8.74973E-10 -1.74895E-09 -1.34341E-09 -1.02309E-09 -1.55878E-09 -7.82234E-10 -1.49842E-09 -1.13877E-09 -8.28383E-10
  -7.33563E-10 -8.91365E-10 -9.72381E-10 -5.45464E-10 -1.32670E-09 -6.42206E-10 -6.97377E-10 -1.33831E-09 -4.87927E-10 -1.36617E-09
  -8.33903E-10 -8.29044E-10 -9.23646E-10 -4.36050E-10 -6.06689E-10 -3.59142E-10 -6.88393E-10 -7.96300E-10 -7.53941E-10 -5.96906E-10
  -7.11324E-10 -1.29015E-09 -2.73047E-10
 NY points of the fit to the data follow
   4.50389E-09  5.06788E-09  5.66003E-09  6.19176E-09  6.51276E-09  6.52998E-09  6.24040E-09  5.73945E-09  5.21034E-09  4.70109E-09
   4.39938E-09  4.29256E-09  4.32418E-09  4.46231E-09  4.73679E-09  5.10395E-09  5.54209E-09  6.04079E-09  6.53900E-09  6.96749E-09
   7.27816E-09  7.28154E-09  6.89756E-09  6.32552E-09  5.72187E-09  5.25772E-09  5.17033E-09  5.55615E-09  6.19776E-09  6.84567E-09
   7.20516E-09  7.40888E-09  7.61634E-09  7.71217E-09  7.81954E-09  8.19682E-09  8.56968E-09  8.67614E-09  8.43135E-09  7.89422E-09
   7.21319E-09  6.37292E-09  5.31081E-09  4.52116E-09  4.02739E-09  3.50899E-09  3.15960E-09  3.09483E-09  3.18847E-09  3.32694E-09
   3.43922E-09  3.46621E-09  3.43244E-09  3.36996E-09  3.34455E-09  3.39996E-09  3.50848E-09  3.61176E-09  3.63375E-09  3.63716E-09
   3.78892E-09  4.23694E-09  4.88550E-09  5.67123E-09  6.75353E-09  7.78247E-09  8.56595E-09  9.16689E-09  9.51042E-09  9.46356E-09
   8.99505E-09  8.09119E-09  6.95014E-09  5.91333E-09  4.87545E-09  4.05541E-09  3.95197E-09  4.38569E-09  5.06731E-09  6.15882E-09
   7.49304E-09  8.96195E-09  1.04860E-08  1.15736E-08  1.17663E-08  1.11006E-08  9.78010E-09  8.17623E-09  6.85913E-09  6.46120E-09
   6.35418E-09  6.28505E-09  6.00336E-09  5.55172E-09  5.23969E-09  4.84564E-09  4.31550E-09  3.96591E-09  3.71181E-09  3.46652E-09
   3.31965E-09  3.24296E-09  3.21364E-09  3.23145E-09  3.27477E-09  3.32480E-09  3.36586E-09  3.38840E-09  3.38982E-09  3.36995E-09
   3.33190E-09  3.29124E-09  3.26406E-09  3.22509E-09  3.19686E-09  3.20592E-09  3.22731E-09  3.25391E-09  3.28319E-09  3.31393E-09
   3.34543E-09  3.37722E-09  3.40891E-09  3.44024E-09  3.47097E-09  3.50091E-09  3.52988E-09  3.55774E-09  3.58434E-09  3.60956E-09
   3.63326E-09  3.65534E-09  3.67568E-09  3.69417E-09  3.71070E-09  3.72517E-09  3.73748E-09  3.74754E-09  3.75527E-09  3.76059E-09
   3.76339E-09  3.76355E-09  3.76092E-09  3.75534E-09  3.74669E-09  3.73486E-09  3.71971E-09  3.70114E-09  3.67903E-09  3.65332E-09
   3.62395E-09  3.59089E-09  3.55416E-09  3.51381E-09  3.46997E-09  3.42286E-09  3.37285E-09  3.32048E-09  3.26664E-09  3.21265E-09
   3.16067E-09  3.11423E-09  3.07965E-09  3.06913E-09  3.11061E-09  3.28825E-09  3.96971E-09  5.38401E-09  7.27339E-09  9.46703E-09
   1.19564E-08  1.45430E-08  1.66509E-08  1.74773E-08  1.64475E-08  1.35941E-08  9.54708E-09  5.34872E-09  2.35709E-09  9.81191E-10
   3.87948E-10  4.67987E-12 -2.97095E-10 -5.58418E-10 -7.96319E-10 -1.01899E-09 -1.23070E-09 -1.43374E-09 -1.62935E-09 -1.81817E-09
  -2.00045E-09 -2.17622E-09 -2.34534E-09 -2.50754E-09 -2.66252E-09 -2.80992E-09 -2.94945E-09 -3.08121E-09 -3.20539E-09 -3.32211E-09
  -3.43153E-09 -3.53378E-09 -3.62897E-09 -3.71723E-09 -3.79866E-09 -3.87337E-09 -3.94148E-09 -4.00308E-09 -4.05828E-09 -4.10716E-09
  -4.14984E-09 -4.18640E-09 -4.21695E-09 -4.24158E-09 -4.26038E-09 -4.27345E-09 -4.28088E-09 -4.28276E-09 -4.27919E-09 -4.27025E-09
  -4.25604E-09 -4.23666E-09 -4.21218E-09 -4.18271E-09 -4.14840E-09 -4.10950E-09 -4.06630E-09 -4.01906E-09 -3.96807E-09 -3.91360E-09
  -3.85594E-09 -3.79535E-09 -3.73213E-09 -3.66654E-09 -3.59885E-09 -3.52935E-09 -3.45832E-09 -3.38603E-09 -3.31274E-09 -3.23876E-09
  -3.16435E-09 -3.08978E-09 -3.01534E-09 -2.94130E-09 -2.86793E-09 -2.79552E-09 -2.72433E-09 -2.65465E-09 -2.58676E-09 -2.52093E-09
  -2.45742E-09 -2.39653E-09 -2.33838E-09 -2.28289E-09 -2.22999E-09 -2.17960E-09 -2.13163E-09 -2.08601E-09 -2.04264E-09 -2.00145E-09
  -1.96237E-09 -1.92529E-09 -1.89015E-09 -1.85686E-09 -1.82535E-09 -1.79552E-09 -1.76728E-09 -1.74060E-09 -1.71535E-09 -1.69146E-09
  -1.66884E-09 -1.64744E-09 -1.62714E-09 -1.60787E-09 -1.58957E-09 -1.57212E-09 -1.55548E-09 -1.53954E-09 -1.52424E-09 -1.50947E-09
  -1.49520E-09 -1.48141E-09 -1.46809E-09 -1.45520E-09 -1.44275E-09 -1.43070E-09 -1.41904E-09 -1.40775E-09 -1.39682E-09 -1.38623E-09
  -1.37595E-09 -1.36598E-09 -1.35628E-09 -1.34685E-09 -1.33768E-09 -1.32872E-09 -1.31999E-09 -1.31144E-09 -1.30307E-09 -1.29486E-09
  -1.28679E-09 -1.27884E-09 -1.27099E-09 -1.26324E-09 -1.25555E-09 -1.24791E-09 -1.24031E-09 -1.23272E-09 -1.22514E-09 -1.21755E-09
  -1.20996E-09 -1.20236E-09 -1.19474E-09 -1.18710E-09 -1.17942E-09 -1.17171E-09 -1.16395E-09 -1.15615E-09 -1.14829E-09 -1.14037E-09
  -1.13238E-09 -1.12432E-09 -1.11618E-09 -1.10796E-09 -1.09964E-09 -1.09123E-09 -1.08271E-09 -1.07409E-09 -1.06535E-09 -1.05649E-09
  -1.04750E-09 -1.03838E-09 -1.02912E-09 -1.01971E-09 -1.01015E-09 -1.00044E-09 -9.90568E-10 -9.80556E-10 -9.70403E-10 -9.60117E-10
  -9.49706E-10 -9.39175E-10 -9.28530E-10 -9.17780E-10 -9.06933E-10 -8.95988E-10 -8.84963E-10 -8.73856E-10 -8.62679E-10 -8.51434E-10
  -8.40128E-10 -8.28774E-10 -8.17371E-10 -8.05931E-10 -7.94457E-10 -7.82960E-10 -7.71443E-10 -7.59911E-10 -7.48375E-10 -7.36843E-10
  -7.25317E-10 -7.13808E-10 -7.02316E-10
 NY background values follow
    -7.504E-10   -7.246E-10   -6.988E-10   -6.731E-10   -6.475E-10   -6.220E-10   -5.966E-10   -5.714E-10   -5.464E-10   -5.215E-10
    -4.968E-10   -4.723E-10   -4.481E-10   -4.241E-10   -4.003E-10   -3.768E-10   -3.536E-10   -3.307E-10   -3.081E-10   -2.858E-10
    -2.639E-10   -2.423E-10   -2.211E-10   -2.002E-10   -1.798E-10   -1.598E-10   -1.402E-10   -1.211E-10   -1.024E-10   -8.420E-11
    -6.643E-11   -4.908E-11   -3.214E-11   -1.556E-11    6.629E-13    1.656E-11    3.216E-11    4.748E-11    6.254E-11    7.737E-11
     9.200E-11    1.064E-10    1.207E-10    1.349E-10    1.489E-10    1.629E-10    1.768E-10    1.906E-10    2.044E-10    2.183E-10
     2.321E-10    2.461E-10    2.601E-10    2.742E-10    2.884E-10    3.028E-10    3.174E-10    3.321E-10    3.471E-10    3.624E-10
     3.781E-10    3.940E-10    4.104E-10    4.273E-10    4.446E-10    4.624E-10    4.808E-10    4.998E-10    5.195E-10    5.398E-10
     5.609E-10    5.827E-10    6.053E-10    6.288E-10    6.532E-10    6.785E-10    7.047E-10    7.320E-10    7.603E-10    7.897E-10
     8.202E-10    8.519E-10    8.848E-10    9.190E-10    9.544E-10    9.911E-10    1.029E-09    1.068E-09    1.108E-09    1.150E-09
     1.192E-09    1.235E-09    1.279E-09    1.324E-09    1.369E-09    1.415E-09    1.462E-09    1.510E-09    1.558E-09    1.606E-09
     1.655E-09    1.704E-09    1.753E-09    1.803E-09    1.852E-09    1.902E-09    1.952E-09    2.001E-09    2.051E-09    2.101E-09
     2.150E-09    2.199E-09    2.247E-09    2.296E-09    2.343E-09    2.391E-09    2.437E-09    2.483E-09    2.527E-09    2.571E-09
     2.614E-09    2.656E-09    2.696E-09    2.735E-09    2.773E-09    2.809E-09    2.844E-09    2.877E-09    2.908E-09    2.938E-09
     2.965E-09    2.990E-09    3.014E-09    3.035E-09    3.053E-09    3.070E-09    3.084E-09    3.095E-09    3.104E-09    3.110E-09
     3.113E-09    3.113E-09    3.110E-09    3.103E-09    3.093E-09    3.080E-09    3.062E-09    3.041E-09    3.016E-09    2.986E-09
     2.952E-09    2.913E-09    2.869E-09    2.820E-09    2.766E-09    2.707E-09    2.643E-09    2.573E-09    2.497E-09    2.415E-09
     2.326E-09    2.232E-09    2.131E-09    2.024E-09    1.910E-09    1.788E-09    1.660E-09    1.524E-09    1.381E-09    1.232E-09
     1.075E-09    9.130E-10    7.454E-10    5.729E-10    3.962E-10    2.157E-10    3.199E-11   -1.544E-10   -3.430E-10   -5.332E-10
    -7.245E-10   -9.163E-10   -1.108E-09   -1.300E-09   -1.490E-09   -1.679E-09   -1.865E-09   -2.049E-09   -2.230E-09   -2.407E-09
    -2.580E-09   -2.748E-09   -2.911E-09   -3.068E-09   -3.218E-09   -3.362E-09   -3.498E-09   -3.627E-09   -3.749E-09   -3.863E-09
    -3.971E-09   -4.071E-09   -4.165E-09   -4.252E-09   -4.332E-09   -4.406E-09   -4.473E-09   -4.533E-09   -4.588E-09   -4.636E-09
    -4.678E-09   -4.714E-09   -4.744E-09   -4.768E-09   -4.786E-09   -4.799E-09   -4.806E-09   -4.807E-09   -4.803E-09   -4.794E-09
    -4.780E-09   -4.760E-09   -4.735E-09   -4.705E-09   -4.671E-09   -4.632E-09   -4.588E-09   -4.541E-09   -4.489E-09   -4.435E-09
    -4.377E-09   -4.316E-09   -4.253E-09   -4.187E-09   -4.119E-09   -4.049E-09   -3.978E-09   -3.906E-09   -3.832E-09   -3.758E-09
    -3.683E-09   -3.609E-09   -3.534E-09   -3.460E-09   -3.386E-09   -3.314E-09   -3.242E-09   -3.173E-09   -3.105E-09   -3.039E-09
    -2.975E-09   -2.914E-09   -2.856E-09   -2.800E-09   -2.747E-09   -2.696E-09   -2.648E-09   -2.603E-09   -2.559E-09   -2.518E-09
    -2.479E-09   -2.441E-09   -2.406E-09   -2.373E-09   -2.341E-09   -2.311E-09   -2.283E-09   -2.256E-09   -2.231E-09   -2.207E-09
    -2.184E-09   -2.162E-09   -2.142E-09   -2.122E-09   -2.104E-09   -2.086E-09   -2.070E-09   -2.054E-09   -2.038E-09   -2.023E-09
    -2.009E-09   -1.995E-09   -1.982E-09   -1.969E-09   -1.956E-09   -1.944E-09   -1.932E-09   -1.921E-09   -1.910E-09   -1.899E-09
    -1.888E-09   -1.878E-09   -1.868E-09   -1.859E-09   -1.850E-09   -1.841E-09   -1.832E-09   -1.823E-09   -1.815E-09   -1.806E-09
    -1.798E-09   -1.790E-09   -1.782E-09   -1.774E-09   -1.766E-09   -1.758E-09   -1.751E-09   -1.743E-09   -1.735E-09   -1.728E-09
    -1.720E-09   -1.712E-09   -1.704E-09   -1.697E-09   -1.689E-09   -1.681E-09   -1.673E-09   -1.665E-09   -1.657E-09   -1.649E-09
    -1.641E-09   -1.633E-09   -1.624E-09   -1.616E-09   -1.607E-09   -1.599E-09   -1.590E-09   -1.581E-09   -1.573E-09   -1.564E-09
    -1.554E-09   -1.545E-09   -1.536E-09   -1.526E-09   -1.516E-09   -1.507E-09   -1.497E-09   -1.486E-09   -1.476E-09   -1.466E-09
    -1.455E-09   -1.444E-09   -1.433E-09   -1.423E-09   -1.412E-09   -1.400E-09   -1.389E-09   -1.378E-09   -1.367E-09   -1.355E-09
    -1.344E-09   -1.332E-09   -1.321E-09   -1.309E-09   -1.297E-09   -1.286E-09   -1.274E-09   -1.262E-09   -1.250E-09   -1.239E-09
    -1.227E-09   -1.215E-09   -1.204E-09
 Ala      Conc. = 8.55E-11
  -6.92273E-10 -6.58945E-10 -6.27340E-10 -5.97649E-10 -5.70262E-10 -5.44885E-10 -5.22458E-10 -5.04152E-10 -4.85566E-10 -4.66776E-10
  -4.52485E-10 -4.36747E-10 -4.17664E-10 -3.99621E-10 -3.80907E-10 -3.60500E-10 -3.39357E-10 -3.17922E-10 -2.96425E-10 -2.75000E-10
  -2.53738E-10 -2.32700E-10 -2.11937E-10 -1.91482E-10 -1.71365E-10 -1.51621E-10 -1.32267E-10 -1.13325E-10 -9.48174E-11 -7.67536E-11
  -5.91172E-11 -4.18850E-11 -2.50374E-11 -8.55160E-12  7.59501E-12  2.34245E-11  3.89594E-11  5.42225E-11  6.92384E-11  8.40304E-11
   9.86189E-11  1.13031E-10  1.27287E-10  1.41414E-10  1.55430E-10  1.69365E-10  1.83239E-10  1.97074E-10  2.10899E-10  2.24734E-10
   2.38601E-10  2.52530E-10  2.66539E-10  2.80655E-10  2.94895E-10  3.09295E-10  3.23873E-10  3.38657E-10  3.53687E-10  3.69004E-10
   3.84649E-10  4.00660E-10  4.17079E-10  4.33947E-10  4.51303E-10  4.69187E-10  4.87641E-10  5.06705E-10  5.26419E-10  5.46824E-10
   5.67961E-10  5.89870E-10  6.12593E-10  6.36170E-10  6.60642E-10  6.86051E-10  7.12438E-10  7.39846E-10  7.68316E-10  7.97890E-10
   8.28611E-10  8.60524E-10  8.93671E-10  9.28099E-10  9.63852E-10  1.00093E-09  1.03929E-09  1.07887E-09  1.11965E-09  1.16157E-09
   1.20461E-09  1.24875E-09  1.29399E-09  1.34034E-09  1.38789E-09  1.43677E-09  1.48730E-09  1.54011E-09  1.59681E-09  1.66244E-09
   1.74593E-09  1.83236E-09  1.92489E-09  2.03740E-09  2.15655E-09  2.26853E-09  2.36084E-09  2.42631E-09  2.46424E-09  2.47587E-09
   2.46553E-09  2.44926E-09  2.44355E-09  2.42350E-09  2.41195E-09  2.43582E-09  2.47056E-09  2.50923E-09  2.54943E-09  2.59005E-09
   2.63050E-09  2.67038E-09  2.70944E-09  2.74747E-09  2.78431E-09  2.81982E-09  2.85387E-09  2.88635E-09  2.91714E-09  2.94615E-09
   2.97326E-09  2.99838E-09  3.02142E-09  3.04227E-09  3.06085E-09  3.07706E-09  3.09081E-09  3.10200E-09  3.11055E-09  3.11636E-09
   3.11934E-09  3.11934E-09  3.11619E-09  3.10974E-09  3.09981E-09  3.08625E-09  3.06888E-09  3.04754E-09  3.02206E-09  2.99229E-09
   2.95805E-09  2.91918E-09  2.87553E-09  2.82692E-09  2.77319E-09  2.71419E-09  2.64975E-09  2.57972E-09  2.50394E-09  2.42227E-09
   2.33456E-09  2.24069E-09  2.14058E-09  2.03418E-09  1.92163E-09  1.80358E-09  1.68331E-09  1.56910E-09  1.45272E-09  1.33298E-09
   1.21133E-09  1.08650E-09  9.51534E-10  7.95224E-10  6.08953E-10  3.93256E-10  1.57382E-10 -8.46303E-11 -3.14251E-10 -5.15957E-10
  -7.11734E-10 -9.05902E-10 -1.09917E-09 -1.29145E-09 -1.48239E-09 -1.67159E-09 -1.85856E-09 -2.04281E-09 -2.22381E-09 -2.40106E-09
  -2.57402E-09 -2.74219E-09 -2.90502E-09 -3.06198E-09 -3.21254E-09 -3.35617E-09 -3.49247E-09 -3.62145E-09 -3.74319E-09 -3.85780E-09
  -3.96535E-09 -4.06595E-09 -4.15967E-09 -4.24662E-09 -4.32687E-09 -4.40053E-09 -4.46767E-09 -4.52840E-09 -4.58280E-09 -4.63096E-09
  -4.67297E-09 -4.70892E-09 -4.73890E-09 -4.76300E-09 -4.78131E-09 -4.79392E-09 -4.80092E-09 -4.80240E-09 -4.79845E-09 -4.78916E-09
  -4.77462E-09 -4.75491E-09 -4.73014E-09 -4.70038E-09 -4.66579E-09 -4.62663E-09 -4.58317E-09 -4.53570E-09 -4.48448E-09 -4.42979E-09
  -4.37191E-09 -4.31112E-09 -4.24770E-09 -4.18191E-09 -4.11404E-09 -4.04436E-09 -3.97314E-09 -3.90068E-09 -3.82722E-09 -3.75308E-09
  -3.67851E-09 -3.60378E-09 -3.52918E-09 -3.45499E-09 -3.38147E-09 -3.30891E-09 -3.23758E-09 -3.16776E-09 -3.09972E-09 -3.03375E-09
  -2.97011E-09 -2.90909E-09 -2.85080E-09 -2.79518E-09 -2.74215E-09 -2.69163E-09 -2.64353E-09 -2.59778E-09 -2.55428E-09 -2.51297E-09
  -2.47375E-09 -2.43655E-09 -2.40129E-09 -2.36787E-09 -2.33624E-09 -2.30629E-09 -2.27793E-09 -2.25112E-09 -2.22575E-09 -2.20174E-09
  -2.17900E-09 -2.15747E-09 -2.13705E-09 -2.11767E-09 -2.09924E-09 -2.08168E-09 -2.06491E-09 -2.04885E-09 -2.03343E-09 -2.01854E-09
  -2.00415E-09 -1.99024E-09 -1.97679E-09 -1.96378E-09 -1.95121E-09 -1.93903E-09 -1.92726E-09 -1.91584E-09 -1.90479E-09 -1.89407E-09
  -1.88367E-09 -1.87357E-09 -1.86375E-09 -1.85420E-09 -1.84489E-09 -1.83582E-09 -1.82695E-09 -1.81828E-09 -1.80978E-09 -1.80144E-09
  -1.79324E-09 -1.78516E-09 -1.77719E-09 -1.76930E-09 -1.76148E-09 -1.75371E-09 -1.74598E-09 -1.73825E-09 -1.73054E-09 -1.72282E-09
  -1.71509E-09 -1.70735E-09 -1.69960E-09 -1.69181E-09 -1.68400E-09 -1.67615E-09 -1.66825E-09 -1.66030E-09 -1.65230E-09 -1.64424E-09
  -1.63611E-09 -1.62790E-09 -1.61962E-09 -1.61125E-09 -1.60279E-09 -1.59423E-09 -1.58556E-09 -1.57679E-09 -1.56789E-09 -1.55888E-09
  -1.54974E-09 -1.54046E-09 -1.53104E-09 -1.52148E-09 -1.51177E-09 -1.50189E-09 -1.49186E-09 -1.48169E-09 -1.47137E-09 -1.46092E-09
  -1.45035E-09 -1.43965E-09 -1.42884E-09 -1.41792E-09 -1.40690E-09 -1.39579E-09 -1.38459E-09 -1.37331E-09 -1.36196E-09 -1.35054E-09
  -1.33905E-09 -1.32752E-09 -1.31594E-09 -1.30431E-09 -1.29266E-09 -1.28097E-09 -1.26927E-09 -1.25755E-09 -1.24582E-09 -1.23410E-09
  -1.22238E-09 -1.21068E-09 -1.19899E-09
 Asp      Conc. = 5.21E-10
  -1.08475E-10 -1.48352E-10 -1.93224E-10 -2.52373E-10 -3.14303E-10 -3.82314E-10 -4.31342E-10 -4.60535E-10 -4.61993E-10 -4.52344E-10
  -4.37090E-10 -4.18564E-10 -3.98048E-10 -3.76410E-10 -3.54440E-10 -3.32317E-10 -3.10055E-10 -2.87729E-10 -2.65402E-10 -2.43124E-10
  -2.20934E-10 -1.98858E-10 -1.76918E-10 -1.55116E-10 -1.33448E-10 -1.11912E-10 -9.04734E-11 -6.90921E-11 -4.77081E-11 -2.62182E-11
  -4.44984E-12  1.78455E-11  4.10283E-11  6.56731E-11  9.27898E-11  1.24476E-10  1.65712E-10  2.12174E-10  2.67993E-10  3.24810E-10
   3.79804E-10  4.30712E-10  4.77298E-10  5.24093E-10  5.70491E-10  6.37626E-10  7.13397E-10  8.10834E-10  9.56711E-10  1.11218E-09
   1.23592E-09  1.27898E-09  1.23303E-09  1.12029E-09  9.86532E-10  8.79788E-10  8.04790E-10  7.71679E-10  7.14839E-10  6.49922E-10
   6.28483E-10  6.30976E-10  6.38261E-10  6.50021E-10  6.53616E-10  6.39753E-10  6.18592E-10  6.13739E-10  6.17606E-10  6.26583E-10
   6.39030E-10  6.54086E-10  6.71259E-10  6.90245E-10  7.10855E-10  7.32965E-10  7.56499E-10  7.81409E-10  8.07668E-10  8.35265E-10
   8.64199E-10  8.94478E-10  9.26115E-10  9.59130E-10  9.93543E-10  1.02933E-09  1.06643E-09  1.10476E-09  1.14426E-09  1.18486E-09
   1.22650E-09  1.26910E-09  1.31261E-09  1.35696E-09  1.40208E-09  1.44792E-09  1.49440E-09  1.54148E-09  1.58908E-09  1.63714E-09
   1.68560E-09  1.73441E-09  1.78350E-09  1.83280E-09  1.88226E-09  1.93181E-09  1.98141E-09  2.03097E-09  2.08045E-09  2.12979E-09
   2.17892E-09  2.22778E-09  2.27631E-09  2.32443E-09  2.37206E-09  2.41910E-09  2.46546E-09  2.51106E-09  2.55580E-09  2.59959E-09
   2.64235E-09  2.68397E-09  2.72438E-09  2.76349E-09  2.80119E-09  2.83742E-09  2.87206E-09  2.90504E-09  2.93626E-09  2.96564E-09
   2.99309E-09  3.01851E-09  3.04181E-09  3.06292E-09  3.08173E-09  3.09816E-09  3.11212E-09  3.12352E-09  3.13227E-09  3.13828E-09
   3.14147E-09  3.14168E-09  3.13875E-09  3.13253E-09  3.12285E-09  3.10955E-09  3.09247E-09  3.07144E-09  3.04630E-09  3.01690E-09
   2.98309E-09  2.94470E-09  2.90158E-09  2.85359E-09  2.80058E-09  2.74241E-09  2.67896E-09  2.61010E-09  2.53576E-09  2.45587E-09
   2.37042E-09  2.27949E-09  2.18336E-09  2.08263E-09  1.97881E-09  1.87609E-09  1.79124E-09  1.78168E-09  1.79935E-09  1.83166E-09
   1.88471E-09  1.95072E-09  1.98779E-09  1.92517E-09  1.70377E-09  1.31878E-09  8.20543E-10  2.89696E-10 -1.66030E-10 -4.36855E-10
  -6.57398E-10 -8.63736E-10 -1.06403E-09 -1.26076E-09 -1.45473E-09 -1.64606E-09 -1.83460E-09 -2.02003E-09 -2.20195E-09 -2.37991E-09
  -2.55344E-09 -2.72207E-09 -2.88528E-09 -3.04254E-09 -3.19336E-09 -3.33721E-09 -3.47369E-09 -3.60282E-09 -3.72470E-09 -3.83942E-09
  -3.94708E-09 -4.04775E-09 -4.14155E-09 -4.22856E-09 -4.30888E-09 -4.38258E-09 -4.44978E-09 -4.51054E-09 -4.56498E-09 -4.61316E-09
  -4.65521E-09 -4.69118E-09 -4.72118E-09 -4.74530E-09 -4.76363E-09 -4.77626E-09 -4.78327E-09 -4.78476E-09 -4.78083E-09 -4.77155E-09
  -4.75701E-09 -4.73732E-09 -4.71255E-09 -4.68280E-09 -4.64822E-09 -4.60907E-09 -4.56562E-09 -4.51814E-09 -4.46693E-09 -4.41225E-09
