 LCModel (Version 6.3-1R) Copyright: S.W. Provencher.          Ref.: Magn. Reson. Med. 30:672-679 (1993).                
 onepulse 22x12_ftSpec_smooth_lcm
 26 lines in following concentration table = NCONC+1
    Conc.  %SD /Cr+PCr  Metabolite                                         
 5.09E-10  60%   0.957 Ala                                                 
    0.000 999%   0.000 Asp                                                 
    0.000 999%   0.000 Cr                                                  
 1.08E-09  62%   2.027 GABA                                                
    0.000 999%   0.000 Glc                                                 
 1.56E-09  45%   2.940 Gln                                                 
    0.000 999%   0.000 Glu                                                 
 1.34E-09 110%   2.523 Glyc                                                
    0.000 999%   0.000 GPC                                                 
    0.000 999%   0.000 GSH                                                 
    0.000 999%   0.000 Ins                                                 
 3.36E-10  92%   0.631 Lac                                                 
    0.000 999%   0.000 NAAG                                                
 8.68E-10  56%   1.632 NAA                                                 
    0.000 999%   0.000 PCh                                                 
 5.32E-10  58%   1.000 PCr                                                 
 2.67E-09  32%   5.012 PE                                                  
 7.10E-11 385%   0.133 Scyllo                                              
    0.000 999%   0.000 Ser                                                 
    0.000 999%   0.000 Tau                                                 
    0.000 999%   0.000 GPC+PCh                                             
 8.68E-10  34%   1.632 NAA+NAAG                                            
 1.34E-09  35%   2.523 Ins+Glyc                                            
 5.32E-10  58%   1.000 Cr+PCr                                              
 1.56E-09  45%   2.940 Glu+Gln                                             
   6 lines in following misc. output table
  FWHM = 0.123 ppm    S/N =   3                                            
  Data shift = 0.447 ppm                                                   
  Ph: 122 deg      14.0 deg/ppm                                            
  alphaB,S = 8.7E-01,   1.9E+01                                            
    9 spline knots.   Ns = 5(1)                                            
  (12) 4 infls.   (11) 3 extrs.                                            
  363 points on ppm-axis = NY
      4.250000     4.238821     4.227641     4.216462     4.205282     4.194103     4.182923     4.171744     4.160564     4.149385
      4.138206     4.127026     4.115847     4.104667     4.093488     4.082308     4.071129     4.059949     4.048770     4.037591
      4.026411     4.015232     4.004052     3.992873     3.981693     3.970514     3.959334     3.948155     3.936975     3.925796
      3.914617     3.903437     3.892258     3.881078     3.869899     3.858719     3.847540     3.836360     3.825181     3.814002
      3.802822     3.791643     3.780463     3.769284     3.758104     3.746925     3.735745     3.724566     3.713387     3.702207
      3.691028     3.679848     3.668669     3.657489     3.646310     3.635130     3.623951     3.612772     3.601592     3.590413
      3.579233     3.568054     3.556874     3.545695     3.534515     3.523336     3.512156     3.500977     3.489798     3.478618
      3.467439     3.456259     3.445080     3.433900     3.422721     3.411541     3.400362     3.389183     3.378003     3.366824
      3.355644     3.344465     3.333285     3.322106     3.310926     3.299747     3.288568     3.277388     3.266209     3.255029
      3.243850     3.232670     3.221491     3.210311     3.199132     3.187953     3.176773     3.165594     3.154414     3.143235
      3.132055     3.120876     3.109696     3.098517     3.087337     3.076158     3.064979     3.053799     3.042620     3.031440
      3.020261     3.009081     2.997902     2.986722     2.975543     2.964364     2.953184     2.942005     2.930825     2.919646
      2.908466     2.897287     2.886107     2.874928     2.863749     2.852569     2.841390     2.830210     2.819031     2.807851
      2.796672     2.785492     2.774313     2.763134     2.751954     2.740775     2.729595     2.718416     2.707236     2.696057
      2.684877     2.673698     2.662519     2.651339     2.640160     2.628980     2.617801     2.606621     2.595442     2.584262
      2.573083     2.561903     2.550724     2.539545     2.528365     2.517186     2.506006     2.494827     2.483647     2.472468
      2.461288     2.450109     2.438930     2.427750     2.416571     2.405391     2.394212     2.383032     2.371853     2.360673
      2.349494     2.338315     2.327135     2.315956     2.304776     2.293597     2.282417     2.271238     2.260058     2.248879
      2.237700     2.226520     2.215341     2.204161     2.192982     2.181802     2.170623     2.159443     2.148264     2.137084
      2.125905     2.114726     2.103546     2.092367     2.081187     2.070008     2.058828     2.047649     2.036469     2.025290
      2.014111     2.002931     1.991752     1.980572     1.969393     1.958213     1.947034     1.935854     1.924675     1.913496
      1.902316     1.891137     1.879957     1.868778     1.857598     1.846419     1.835239     1.824060     1.812881     1.801701
      1.790522     1.779342     1.768163     1.756983     1.745804     1.734624     1.723445     1.712265     1.701086     1.689907
      1.678727     1.667548     1.656368     1.645189     1.634009     1.622830     1.611650     1.600471     1.589292     1.578112
      1.566933     1.555753     1.544574     1.533394     1.522215     1.511035     1.499856     1.488677     1.477497     1.466318
      1.455138     1.443959     1.432779     1.421600     1.410420     1.399241     1.388062     1.376882     1.365703     1.354523
      1.343344     1.332164     1.320985     1.309805     1.298626     1.287446     1.276267     1.265088     1.253908     1.242729
      1.231549     1.220370     1.209190     1.198011     1.186831     1.175652     1.164473     1.153293     1.142114     1.130934
      1.119755     1.108575     1.097396     1.086216     1.075037     1.063858     1.052678     1.041499     1.030319     1.019140
      1.007960     0.996781     0.985601     0.974422     0.963243     0.952063     0.940884     0.929704     0.918525     0.907345
      0.896166     0.884986     0.873807     0.862628     0.851448     0.840269     0.829089     0.817910     0.806730     0.795551
      0.784371     0.773192     0.762012     0.750833     0.739654     0.728474     0.717295     0.706115     0.694936     0.683756
      0.672577     0.661397     0.650218     0.639039     0.627859     0.616680     0.605500     0.594321     0.583141     0.571962
      0.560782     0.549603     0.538424     0.527244     0.516065     0.504885     0.493706     0.482526     0.471347     0.460167
      0.448988     0.437809     0.426629     0.415450     0.404270     0.393091     0.381911     0.370732     0.359552     0.348373
      0.337193     0.326014     0.314835     0.303655     0.292476     0.281296     0.270117     0.258937     0.247758     0.236578
      0.225399     0.214220     0.203040
 NY phased data points follow
  -3.26585E-09 -3.22778E-09 -4.23946E-09 -3.19184E-09 -3.90943E-09 -3.03296E-09 -3.35928E-09 -1.59420E-09 -1.47569E-09 -1.23318E-09
  -8.47169E-10 -3.96562E-10 -1.67768E-09 -5.44409E-10 -1.86246E-09 -7.02137E-10 -9.40772E-10 -2.45258E-10 -4.09249E-10  1.34861E-10
  -8.69386E-10 -8.57773E-10 -1.45643E-09  2.88269E-10  1.12474E-09  2.93752E-09  3.94166E-09  5.02359E-09  4.56795E-09  4.87176E-09
   3.65360E-09  4.15252E-09  3.70570E-09  3.92104E-09  3.30119E-09  4.35653E-09  3.64626E-09  3.96814E-09  2.94083E-09  2.62829E-09
   2.00203E-09  1.97165E-09  1.99381E-09  2.18777E-09  8.40107E-10  2.24317E-09  1.34047E-09  1.08804E-09 -7.40843E-10 -9.07004E-10
  -2.22827E-09 -2.37968E-09 -3.94721E-09 -3.80707E-09 -2.70762E-09  4.83542E-10  2.68758E-09  5.07530E-09  6.15475E-09  6.53893E-09
   5.90947E-09  5.03048E-09  4.71301E-09  4.56759E-09  3.44921E-09  2.55296E-09  8.52401E-10  4.69624E-10 -1.56768E-09 -2.55941E-09
  -3.46319E-09 -9.27908E-10  2.29829E-09  5.77321E-09  6.19792E-09  7.62929E-09  7.63249E-09  8.30991E-09  7.74777E-09  8.31732E-09
   7.95726E-09  8.47408E-09  8.36763E-09  8.39150E-09  7.88338E-09  9.09327E-09  7.92014E-09  8.17260E-09  7.81023E-09  8.09817E-09
   7.64744E-09  7.27195E-09  6.08685E-09  6.71094E-09  7.04848E-09  7.08793E-09  6.64184E-09  6.78186E-09  7.42196E-09  6.90375E-09
   6.92061E-09  6.45545E-09  5.67882E-09  5.10553E-09  4.18549E-09  4.90043E-09  4.67557E-09  4.93897E-09  4.11123E-09  5.64505E-09
   5.19775E-09  5.65654E-09  5.39407E-09  6.42018E-09  5.80270E-09  5.75192E-09  5.10487E-09  5.32658E-09  4.30860E-09  4.12264E-09
   3.75353E-09  4.16195E-09  3.67831E-09  4.39988E-09  3.74473E-09  4.07678E-09  3.46219E-09  3.56963E-09  3.11763E-09  3.29773E-09
   1.88565E-09  2.69895E-09  3.48521E-09  4.27980E-09  3.91182E-09  4.33543E-09  3.79496E-09  4.90506E-09  4.48381E-09  5.57394E-09
   6.18416E-09  5.72273E-09  5.63316E-09  5.85487E-09  5.66877E-09  5.53756E-09  5.19322E-09  5.23206E-09  4.83853E-09  5.19894E-09
   4.64666E-09  4.99476E-09  4.45228E-09  4.45191E-09  4.54625E-09  4.21808E-09  3.33221E-09  2.94513E-09  2.24987E-09  2.24333E-09
   2.00334E-09  1.51378E-09  3.47508E-09  9.34970E-09  1.29639E-08  1.55626E-08  1.59992E-08  1.64626E-08  1.63810E-08  1.72086E-08
   1.62619E-08  1.65123E-08  1.61253E-08  1.65575E-08  1.58515E-08  1.57235E-08  1.53838E-08  1.53382E-08  1.46473E-08  1.46370E-08
   1.28889E-08  1.27188E-08  1.19550E-08  1.15397E-08  9.69778E-09  8.64044E-09  6.52108E-09  5.02303E-09  3.53967E-09  2.19004E-09
  -2.10039E-10 -1.32216E-09 -3.34154E-09 -3.99325E-09 -5.85395E-09 -6.45262E-09 -7.33856E-09 -7.46043E-09 -7.56613E-09 -6.86019E-09
  -7.19718E-09 -5.98860E-09 -5.59287E-09 -4.83042E-09 -3.41281E-09 -2.50420E-09 -2.41561E-09 -1.55873E-09 -1.61340E-09 -1.21013E-09
  -1.41654E-09 -1.68764E-09 -2.41612E-09 -1.70833E-09 -1.57849E-09 -9.76252E-10 -9.50184E-10 -6.57490E-10 -1.02083E-09 -8.04317E-10
  -1.40878E-09 -5.09679E-10 -1.07840E-09 -8.21656E-10 -1.12417E-09 -1.32282E-09 -1.03654E-09 -9.66217E-10 -6.63609E-10 -6.66134E-10
  -1.18283E-09 -4.23071E-10 -8.94308E-10 -7.77794E-11 -1.05699E-09 -1.30643E-09 -1.35403E-09 -6.59134E-10 -1.41707E-09 -1.10180E-09
  -1.44036E-09 -5.19383E-10 -1.35676E-09 -6.23909E-10 -6.98406E-10  2.39388E-10 -7.27096E-10  6.03739E-10 -1.56462E-10 -2.31812E-10
  -6.57433E-10  6.90563E-11 -9.20534E-10 -1.23946E-09 -1.37242E-09 -1.43418E-09 -1.91082E-09 -1.39835E-09 -1.87730E-09 -1.50965E-09
  -1.76038E-09 -1.62377E-09 -1.20420E-09 -1.02072E-09 -7.66106E-10 -6.40477E-10 -2.23772E-10 -1.70198E-10  1.99148E-10  3.39764E-10
  -3.76986E-10  1.74630E-10  2.04409E-11  2.49382E-10 -1.09359E-10  2.68454E-10 -4.06059E-10 -2.07116E-10 -5.94065E-10 -4.73316E-10
  -3.64103E-10 -1.77819E-10 -1.22249E-09 -7.07600E-10 -8.55863E-10 -9.54395E-10 -1.07146E-09 -1.02645E-09 -9.88237E-10 -1.13095E-09
  -1.21978E-09 -1.56956E-09 -1.16600E-09 -1.53803E-09 -1.58895E-09 -1.42580E-09 -1.53876E-09 -1.41540E-09 -1.71757E-09 -1.22198E-09
  -2.07295E-09 -1.73950E-09 -1.26625E-09 -1.40799E-09 -1.96560E-09 -1.08412E-09 -2.06534E-09 -1.88355E-09 -1.67409E-09 -1.95907E-09
  -1.76309E-09 -1.58205E-09 -1.54998E-09 -1.25497E-09 -1.67748E-09 -1.61796E-09 -2.16503E-09 -1.55545E-09 -2.08197E-09 -1.16484E-09
  -2.06014E-09 -1.97782E-09 -1.52735E-09 -1.67056E-09 -1.68987E-09 -1.54829E-09 -1.80460E-09 -1.52793E-09 -1.74679E-09 -1.60980E-09
  -2.32963E-09 -8.86565E-10 -2.10756E-09 -1.70618E-09 -1.97750E-09 -1.29316E-09 -1.73165E-09 -1.82601E-09 -1.53142E-09 -1.35826E-09
  -1.55835E-09 -1.74972E-09 -1.70192E-09 -1.63913E-09 -1.37439E-09 -1.43121E-09 -1.57537E-09 -1.20477E-09 -1.76066E-09 -1.60037E-09
  -8.81646E-10 -5.96525E-10 -1.24403E-09 -1.38004E-09 -1.58849E-09 -1.40810E-09 -1.08051E-09 -8.82202E-10 -1.02715E-09 -9.68530E-10
  -1.40504E-09 -7.69600E-10 -7.91062E-10
 NY points of the fit to the data follow
  -3.73471E-10 -1.28701E-09 -2.35302E-09 -3.15522E-09 -3.40588E-09 -3.43644E-09 -3.36834E-09 -3.12275E-09 -1.58593E-09 -1.34588E-10
  -1.47415E-10 -3.99103E-10 -6.63610E-10 -8.39332E-10 -8.24309E-10 -6.98015E-10 -4.01323E-10  2.59885E-11 -3.98059E-11 -1.26499E-09
  -1.62315E-09 -6.05924E-10  3.67401E-10  1.51010E-09  2.22468E-09  3.16376E-09  3.71067E-09  3.90206E-09  3.91321E-09  4.16359E-09
   4.30746E-09  4.54171E-09  5.13966E-09  5.09221E-09  4.09250E-09  3.51939E-09  2.81955E-09  2.61430E-09  2.48480E-09  2.33164E-09
   2.17529E-09  2.02921E-09  1.08708E-09 -1.54404E-10 -3.36900E-10 -3.27475E-10 -5.80387E-10 -6.60458E-10 -5.27180E-10 -3.24755E-10
  -2.35740E-11  2.66398E-10  5.93962E-10  8.50464E-10  1.29881E-09  1.72768E-09  2.11904E-09  2.94067E-09  3.67017E-09  3.84454E-09
   3.95983E-09  4.21911E-09  4.61304E-09  4.58733E-09  4.63941E-09  4.79334E-09  4.72372E-09  4.43002E-09  3.89919E-09  3.63783E-09
   3.76050E-09  3.91944E-09  3.84637E-09  3.78926E-09  4.34362E-09  4.57046E-09  4.98503E-09  7.35493E-09  8.62392E-09  8.79436E-09
   8.75929E-09  8.50118E-09  8.28346E-09  8.55018E-09  8.54997E-09  8.28156E-09  8.29173E-09  7.38828E-09  5.23541E-09  4.55200E-09
   4.28751E-09  4.17552E-09  4.23994E-09  4.11265E-09  3.87288E-09  3.94080E-09  3.92142E-09  3.75587E-09  3.81878E-09  4.08149E-09
   4.54584E-09  4.61930E-09  4.67426E-09  5.11441E-09  5.42010E-09  5.56653E-09  5.74896E-09  6.09288E-09  6.19919E-09  6.24775E-09
   6.18762E-09  5.96621E-09  6.03955E-09  5.82388E-09  5.37660E-09  5.23892E-09  5.11382E-09  4.87355E-09  4.62839E-09  4.60040E-09
   4.37673E-09  4.11617E-09  4.03016E-09  3.99284E-09  3.97409E-09  3.96396E-09  3.95817E-09  3.95455E-09  3.95190E-09  3.94948E-09
   3.94680E-09  3.94357E-09  3.93957E-09  3.93465E-09  3.92873E-09  3.92173E-09  3.91361E-09  3.90432E-09  3.89388E-09  3.88227E-09
   3.86953E-09  3.85568E-09  3.84074E-09  3.82474E-09  3.80775E-09  3.78983E-09  3.77107E-09  3.75155E-09  3.73141E-09  3.71076E-09
   3.68980E-09  3.66875E-09  3.64789E-09  3.62759E-09  3.60836E-09  3.59087E-09  3.57604E-09  3.56523E-09  3.56045E-09  3.56482E-09
   3.58346E-09  3.62533E-09  3.70754E-09  3.86698E-09  4.19860E-09  5.02738E-09  8.05191E-09  1.48295E-08  1.78158E-08  1.78002E-08
   1.69869E-08  1.65589E-08  1.64427E-08  1.64081E-08  1.65475E-08  1.68996E-08  1.61121E-08  1.19364E-08  5.67298E-09  3.93912E-09
   3.29734E-09  2.95736E-09  2.73736E-09  2.57608E-09  2.44749E-09  2.33878E-09  2.24294E-09  2.15584E-09  2.07490E-09  1.99845E-09
   1.92532E-09  1.85475E-09  1.78615E-09  1.71912E-09  1.65336E-09  1.58862E-09  1.52475E-09  1.46162E-09  1.39913E-09  1.33720E-09
   1.27579E-09  1.21484E-09  1.15433E-09  1.09424E-09  1.03456E-09  9.75273E-10  9.16384E-10  8.57907E-10  7.99827E-10  7.42159E-10
   6.84915E-10  6.28114E-10  5.71764E-10  5.15885E-10  4.60480E-10  4.05580E-10  3.51209E-10  2.97375E-10  2.44097E-10  1.91407E-10
   1.39325E-10  8.78692E-11  3.70613E-11 -1.30800E-11 -6.25337E-11 -1.11254E-10 -1.59246E-10 -2.06475E-10 -2.52905E-10 -2.98525E-10
  -3.43310E-10 -3.87232E-10 -4.30265E-10 -4.72393E-10 -5.13580E-10 -5.53806E-10 -5.93048E-10 -6.31282E-10 -6.68480E-10 -7.04610E-10
  -7.39660E-10 -7.73597E-10 -8.06397E-10 -8.38066E-10 -8.68623E-10 -8.98092E-10 -9.26491E-10 -9.53839E-10 -9.80160E-10 -1.00547E-09
  -1.02980E-09 -1.05316E-09 -1.07557E-09 -1.09706E-09 -1.11765E-09 -1.13735E-09 -1.15619E-09 -1.17418E-09 -1.19135E-09 -1.20772E-09
  -1.22331E-09 -1.23813E-09 -1.25222E-09 -1.26558E-09 -1.27825E-09 -1.29023E-09 -1.30155E-09 -1.31224E-09 -1.32231E-09 -1.33177E-09
  -1.34067E-09 -1.34900E-09 -1.35679E-09 -1.36407E-09 -1.37085E-09 -1.37716E-09 -1.38300E-09 -1.38842E-09 -1.39341E-09 -1.39802E-09
  -1.40224E-09 -1.40612E-09 -1.40966E-09 -1.41288E-09 -1.41581E-09 -1.41847E-09 -1.42087E-09 -1.42304E-09 -1.42500E-09 -1.42677E-09
  -1.42836E-09 -1.42980E-09 -1.43111E-09 -1.43231E-09 -1.43341E-09 -1.43445E-09 -1.43544E-09 -1.43639E-09 -1.43733E-09 -1.43829E-09
  -1.43927E-09 -1.44032E-09 -1.44142E-09 -1.44260E-09 -1.44387E-09 -1.44521E-09 -1.44663E-09 -1.44811E-09 -1.44965E-09 -1.45125E-09
  -1.45291E-09 -1.45462E-09 -1.45638E-09 -1.45818E-09 -1.46002E-09 -1.46190E-09 -1.46380E-09 -1.46574E-09 -1.46770E-09 -1.46968E-09
  -1.47168E-09 -1.47368E-09 -1.47570E-09 -1.47772E-09 -1.47974E-09 -1.48176E-09 -1.48376E-09 -1.48576E-09 -1.48774E-09 -1.48970E-09
  -1.49164E-09 -1.49355E-09 -1.49543E-09 -1.49727E-09 -1.49908E-09 -1.50084E-09 -1.50255E-09 -1.50422E-09 -1.50583E-09 -1.50737E-09
  -1.50886E-09 -1.51028E-09 -1.51163E-09 -1.51290E-09 -1.51410E-09 -1.51521E-09 -1.51623E-09 -1.51717E-09 -1.51801E-09 -1.51875E-09
  -1.51939E-09 -1.51992E-09 -1.52034E-09 -1.52065E-09 -1.52084E-09 -1.52091E-09 -1.52085E-09 -1.52066E-09 -1.52033E-09 -1.51988E-09
  -1.51927E-09 -1.51852E-09 -1.51762E-09
 NY background values follow
    -8.096E-09   -7.978E-09   -7.861E-09   -7.743E-09   -7.625E-09   -7.507E-09   -7.389E-09   -7.272E-09   -7.154E-09   -7.036E-09
    -6.919E-09   -6.801E-09   -6.683E-09   -6.566E-09   -6.449E-09   -6.331E-09   -6.214E-09   -6.097E-09   -5.980E-09   -5.864E-09
    -5.747E-09   -5.631E-09   -5.514E-09   -5.398E-09   -5.282E-09   -5.167E-09   -5.051E-09   -4.936E-09   -4.821E-09   -4.706E-09
    -4.591E-09   -4.477E-09   -4.363E-09   -4.249E-09   -4.135E-09   -4.022E-09   -3.909E-09   -3.796E-09   -3.684E-09   -3.572E-09
    -3.460E-09   -3.348E-09   -3.237E-09   -3.127E-09   -3.016E-09   -2.906E-09   -2.797E-09   -2.687E-09   -2.579E-09   -2.470E-09
    -2.362E-09   -2.255E-09   -2.148E-09   -2.041E-09   -1.935E-09   -1.829E-09   -1.724E-09   -1.619E-09   -1.515E-09   -1.411E-09
    -1.308E-09   -1.205E-09   -1.103E-09   -1.001E-09   -9.000E-10   -7.996E-10   -6.998E-10   -6.007E-10   -5.023E-10   -4.046E-10
    -3.077E-10   -2.115E-10   -1.162E-10   -2.166E-11    7.200E-11    1.648E-10    2.567E-10    3.476E-10    4.376E-10    5.266E-10
     6.146E-10    7.015E-10    7.874E-10    8.722E-10    9.558E-10    1.038E-09    1.120E-09    1.200E-09    1.279E-09    1.357E-09
     1.433E-09    1.508E-09    1.582E-09    1.654E-09    1.725E-09    1.795E-09    1.863E-09    1.930E-09    1.995E-09    2.059E-09
     2.121E-09    2.182E-09    2.241E-09    2.298E-09    2.354E-09    2.408E-09    2.461E-09    2.512E-09    2.561E-09    2.608E-09
     2.653E-09    2.697E-09    2.739E-09    2.778E-09    2.816E-09    2.852E-09    2.886E-09    2.919E-09    2.949E-09    2.977E-09
     3.003E-09    3.027E-09    3.048E-09    3.068E-09    3.086E-09    3.102E-09    3.115E-09    3.127E-09    3.137E-09    3.145E-09
     3.151E-09    3.155E-09    3.157E-09    3.158E-09    3.157E-09    3.154E-09    3.149E-09    3.143E-09    3.135E-09    3.126E-09
     3.114E-09    3.102E-09    3.087E-09    3.071E-09    3.054E-09    3.035E-09    3.015E-09    2.994E-09    2.971E-09    2.946E-09
     2.921E-09    2.894E-09    2.865E-09    2.836E-09    2.805E-09    2.773E-09    2.740E-09    2.706E-09    2.671E-09    2.635E-09
     2.597E-09    2.559E-09    2.519E-09    2.479E-09    2.438E-09    2.396E-09    2.353E-09    2.309E-09    2.264E-09    2.218E-09
     2.172E-09    2.125E-09    2.077E-09    2.028E-09    1.979E-09    1.929E-09    1.879E-09    1.828E-09    1.777E-09    1.724E-09
     1.672E-09    1.619E-09    1.565E-09    1.511E-09    1.457E-09    1.402E-09    1.347E-09    1.292E-09    1.237E-09    1.181E-09
     1.125E-09    1.068E-09    1.012E-09    9.552E-10    8.985E-10    8.416E-10    7.847E-10    7.277E-10    6.707E-10    6.137E-10
     5.567E-10    4.997E-10    4.429E-10    3.861E-10    3.295E-10    2.730E-10    2.168E-10    1.607E-10    1.049E-10    4.930E-11
    -5.980E-12   -6.094E-11   -1.156E-10   -1.698E-10   -2.237E-10   -2.771E-10   -3.301E-10   -3.827E-10   -4.347E-10   -4.862E-10
    -5.372E-10   -5.875E-10   -6.373E-10   -6.865E-10   -7.350E-10   -7.828E-10   -8.299E-10   -8.763E-10   -9.219E-10   -9.667E-10
    -1.011E-09   -1.054E-09   -1.096E-09   -1.138E-09   -1.178E-09   -1.218E-09   -1.256E-09   -1.294E-09   -1.331E-09   -1.366E-09
    -1.401E-09   -1.434E-09   -1.466E-09   -1.497E-09   -1.527E-09   -1.556E-09   -1.584E-09   -1.611E-09   -1.637E-09   -1.662E-09
    -1.686E-09   -1.709E-09   -1.731E-09   -1.752E-09   -1.772E-09   -1.791E-09   -1.810E-09   -1.827E-09   -1.844E-09   -1.860E-09
    -1.875E-09   -1.889E-09   -1.903E-09   -1.916E-09   -1.928E-09   -1.940E-09   -1.951E-09   -1.961E-09   -1.971E-09   -1.980E-09
    -1.989E-09   -1.997E-09   -2.004E-09   -2.011E-09   -2.018E-09   -2.024E-09   -2.029E-09   -2.034E-09   -2.039E-09   -2.043E-09
    -2.047E-09   -2.051E-09   -2.054E-09   -2.057E-09   -2.059E-09   -2.062E-09   -2.064E-09   -2.066E-09   -2.067E-09   -2.069E-09
    -2.070E-09   -2.071E-09   -2.072E-09   -2.073E-09   -2.074E-09   -2.075E-09   -2.075E-09   -2.076E-09   -2.077E-09   -2.077E-09
    -2.078E-09   -2.079E-09   -2.079E-09   -2.080E-09   -2.081E-09   -2.082E-09   -2.083E-09   -2.085E-09   -2.086E-09   -2.087E-09
    -2.089E-09   -2.090E-09   -2.091E-09   -2.093E-09   -2.095E-09   -2.096E-09   -2.098E-09   -2.099E-09   -2.101E-09   -2.103E-09
    -2.104E-09   -2.106E-09   -2.108E-09   -2.110E-09   -2.111E-09   -2.113E-09   -2.115E-09   -2.116E-09   -2.118E-09   -2.120E-09
    -2.121E-09   -2.123E-09   -2.125E-09   -2.126E-09   -2.128E-09   -2.129E-09   -2.131E-09   -2.132E-09   -2.133E-09   -2.134E-09
    -2.136E-09   -2.137E-09   -2.138E-09   -2.139E-09   -2.140E-09   -2.140E-09   -2.141E-09   -2.142E-09   -2.142E-09   -2.143E-09
    -2.143E-09   -2.143E-09   -2.143E-09   -2.143E-09   -2.143E-09   -2.143E-09   -2.143E-09   -2.142E-09   -2.141E-09   -2.141E-09
    -2.140E-09   -2.139E-09   -2.137E-09
 Ala      Conc. = 5.09E-10
  -7.70954E-09 -7.57384E-09 -7.45125E-09 -7.32755E-09 -7.21310E-09 -7.09440E-09 -6.98841E-09 -6.93963E-09 -6.85747E-09 -6.72689E-09
  -6.67582E-09 -6.62067E-09 -6.50992E-09 -6.42056E-09 -6.33532E-09 -6.23690E-09 -6.13203E-09 -6.02362E-09 -5.91312E-09 -5.80127E-09
  -5.68853E-09 -5.57519E-09 -5.46145E-09 -5.34746E-09 -5.23333E-09 -5.11913E-09 -5.00489E-09 -4.89069E-09 -4.77659E-09 -4.66256E-09
  -4.54870E-09 -4.43497E-09 -4.32142E-09 -4.20810E-09 -4.09496E-09 -3.98206E-09 -3.86942E-09 -3.75704E-09 -3.64493E-09 -3.53312E-09
  -3.42159E-09 -3.31037E-09 -3.19948E-09 -3.08895E-09 -2.97873E-09 -2.86889E-09 -2.75940E-09 -2.65027E-09 -2.54157E-09 -2.43325E-09
  -2.32533E-09 -2.21780E-09 -2.11072E-09 -2.00408E-09 -1.89786E-09 -1.79208E-09 -1.68677E-09 -1.58195E-09 -1.47758E-09 -1.37375E-09
  -1.27038E-09 -1.16751E-09 -1.06516E-09 -9.63369E-10 -8.62140E-10 -7.61511E-10 -6.61501E-10 -5.62142E-10 -4.63444E-10 -3.65437E-10
  -2.68148E-10 -1.71593E-10 -7.58015E-11  1.92235E-11  1.13443E-10  2.06842E-10  2.99423E-10  3.91134E-10  4.82007E-10  5.71988E-10
   6.61100E-10  7.49333E-10  8.36695E-10  9.23176E-10  1.00881E-09  1.09364E-09  1.17769E-09  1.26106E-09  1.34385E-09  1.42622E-09
   1.50841E-09  1.59075E-09  1.67379E-09  1.75840E-09  1.84598E-09  1.93907E-09  2.04263E-09  2.16775E-09  2.34515E-09  2.69224E-09
   3.27672E-09  3.43095E-09  3.53774E-09  4.00684E-09  4.31620E-09  4.42357E-09  4.44311E-09  4.47762E-09  4.52618E-09  4.45954E-09
   4.15485E-09  3.81635E-09  3.88719E-09  3.70479E-09  3.27373E-09  3.14347E-09  3.09958E-09  3.08691E-09  3.08817E-09  3.09622E-09
   3.10768E-09  3.12058E-09  3.13383E-09  3.14675E-09  3.15892E-09  3.17005E-09  3.17995E-09  3.18848E-09  3.19555E-09  3.20111E-09
   3.20511E-09  3.20752E-09  3.20833E-09  3.20754E-09  3.20514E-09  3.20114E-09  3.19555E-09  3.18839E-09  3.17966E-09  3.16939E-09
   3.15759E-09  3.14429E-09  3.12951E-09  3.11327E-09  3.09559E-09  3.07652E-09  3.05606E-09  3.03425E-09  3.01112E-09  2.98670E-09
   2.96102E-09  2.93412E-09  2.90604E-09  2.87682E-09  2.84652E-09  2.81520E-09  2.78291E-09  2.74978E-09  2.71592E-09  2.68154E-09
   2.64692E-09  2.61258E-09  2.57947E-09  2.54961E-09  2.52813E-09  2.53233E-09  2.65290E-09  3.01086E-09  3.14267E-09  3.09896E-09
   3.00821E-09  2.93991E-09  2.88916E-09  2.84212E-09  2.80394E-09  2.77997E-09  2.69480E-09  2.41503E-09  1.99536E-09  1.84993E-09
   1.76364E-09  1.69386E-09  1.63052E-09  1.57019E-09  1.51139E-09  1.45342E-09  1.39589E-09  1.33860E-09  1.28140E-09  1.22423E-09
   1.16704E-09  1.10982E-09  1.05254E-09  9.95223E-10  9.37860E-10  8.80458E-10  8.23045E-10  7.65632E-10  7.08233E-10  6.50876E-10
   5.93579E-10  5.36356E-10  4.79237E-10  4.22249E-10  3.65408E-10  3.08740E-10  2.52268E-10  1.96030E-10  1.40033E-10  8.43046E-11
   2.88741E-11 -2.62281E-11 -8.09822E-11 -1.35359E-10 -1.89347E-10 -2.42907E-10 -2.96010E-10 -3.48639E-10 -4.00773E-10 -4.52374E-10
  -5.03417E-10 -5.53880E-10 -6.03739E-10 -6.52971E-10 -7.01552E-10 -7.49434E-10 -7.96619E-10 -8.43071E-10 -8.88752E-10 -9.33649E-10
  -9.77735E-10 -1.02098E-09 -1.06336E-09 -1.10485E-09 -1.14542E-09 -1.18505E-09 -1.22371E-09 -1.26138E-09 -1.29803E-09 -1.33362E-09
  -1.36815E-09 -1.40157E-09 -1.43388E-09 -1.46506E-09 -1.49514E-09 -1.52414E-09 -1.55208E-09 -1.57898E-09 -1.60487E-09 -1.62975E-09
  -1.65365E-09 -1.67660E-09 -1.69861E-09 -1.71969E-09 -1.73988E-09 -1.75919E-09 -1.77765E-09 -1.79527E-09 -1.81207E-09 -1.82807E-09
  -1.84329E-09 -1.85776E-09 -1.87149E-09 -1.88451E-09 -1.89683E-09 -1.90847E-09 -1.91946E-09 -1.92981E-09 -1.93955E-09 -1.94869E-09
  -1.95726E-09 -1.96527E-09 -1.97275E-09 -1.97971E-09 -1.98618E-09 -1.99218E-09 -1.99772E-09 -2.00283E-09 -2.00752E-09 -2.01183E-09
  -2.01575E-09 -2.01933E-09 -2.02258E-09 -2.02551E-09 -2.02814E-09 -2.03051E-09 -2.03262E-09 -2.03451E-09 -2.03618E-09 -2.03766E-09
  -2.03897E-09 -2.04013E-09 -2.04115E-09 -2.04207E-09 -2.04290E-09 -2.04366E-09 -2.04437E-09 -2.04504E-09 -2.04571E-09 -2.04638E-09
  -2.04710E-09 -2.04786E-09 -2.04869E-09 -2.04960E-09 -2.05060E-09 -2.05166E-09 -2.05280E-09 -2.05401E-09 -2.05528E-09 -2.05661E-09
  -2.05800E-09 -2.05943E-09 -2.06092E-09 -2.06245E-09 -2.06401E-09 -2.06562E-09 -2.06725E-09 -2.06891E-09 -2.07060E-09 -2.07231E-09
  -2.07403E-09 -2.07576E-09 -2.07750E-09 -2.07925E-09 -2.08099E-09 -2.08273E-09 -2.08446E-09 -2.08618E-09 -2.08789E-09 -2.08957E-09
  -2.09123E-09 -2.09286E-09 -2.09446E-09 -2.09602E-09 -2.09755E-09 -2.09903E-09 -2.10046E-09 -2.10184E-09 -2.10316E-09 -2.10442E-09
  -2.10562E-09 -2.10675E-09 -2.10781E-09 -2.10880E-09 -2.10970E-09 -2.11052E-09 -2.11125E-09 -2.11190E-09 -2.11244E-09 -2.11288E-09
  -2.11323E-09 -2.11346E-09 -2.11358E-09 -2.11359E-09 -2.11347E-09 -2.11323E-09 -2.11287E-09 -2.11237E-09 -2.11174E-09 -2.11098E-09
  -2.11006E-09 -2.10900E-09 -2.10778E-09
 GABA     Conc. = 1.08E-09
  -7.98194E-09 -7.86265E-09 -7.74325E-09 -7.62372E-09 -7.50403E-09 -7.38421E-09 -7.26424E-09 -7.14410E-09 -7.02380E-09 -6.90324E-09
  -6.78247E-09 -6.66139E-09 -6.53995E-09 -6.41820E-09 -6.29584E-09 -6.17293E-09 -6.04955E-09 -5.92514E-09 -5.79955E-09 -5.67276E-09
  -5.54406E-09 -5.41282E-09 -5.27821E-09 -5.13880E-09 -4.99238E-09 -4.83532E-09 -4.65992E-09 -4.45004E-09 -4.16176E-09 -3.67220E-09
  -3.42701E-09 -3.26214E-09 -2.60247E-09 -2.13840E-09 -2.03928E-09 -1.76485E-09 -1.47897E-09 -1.29307E-09 -1.25012E-09 -1.36376E-09
  -1.52701E-09 -1.41330E-09 -1.51577E-09 -1.99383E-09 -2.04865E-09 -1.98690E-09 -2.18264E-09 -2.24715E-09 -2.21970E-09 -2.15531E-09
  -2.07156E-09 -1.97672E-09 -1.87426E-09 -1.76515E-09 -1.64995E-09 -1.52859E-09 -1.39959E-09 -1.26016E-09 -1.10471E-09 -9.21444E-10
  -6.82823E-10 -3.05203E-10  1.59501E-10  3.24685E-10  6.41918E-10  1.21018E-09  1.40525E-09  1.45011E-09  1.60807E-09  1.75805E-09
   1.83218E-09  1.76517E-09  1.55562E-09  1.40941E-09  1.45343E-09  1.16277E-09  8.45149E-10  9.36817E-10  9.46945E-10  9.48681E-10
   1.12815E-09  1.17212E-09  1.29474E-09  1.70901E-09  1.90296E-09  2.00127E-09  2.30763E-09  2.54490E-09  2.70026E-09  2.84875E-09
   2.89286E-09  2.94173E-09  3.10204E-09  3.03604E-09  2.83501E-09  2.92144E-09  2.89905E-09  2.70063E-09  2.67096E-09  2.66469E-09
   2.61654E-09  2.60131E-09  2.60725E-09  2.62530E-09  2.65059E-09  2.68013E-09  2.71238E-09  2.74628E-09  2.78109E-09  2.81635E-09
   2.85154E-09  2.88610E-09  2.91982E-09  2.95255E-09  2.98412E-09  3.01453E-09  3.04362E-09  3.07118E-09  3.09716E-09  3.12142E-09
   3.14398E-09  3.16475E-09  3.18369E-09  3.20079E-09  3.21606E-09  3.22950E-09  3.24113E-09  3.25095E-09  3.25898E-09  3.26524E-09
   3.26974E-09  3.27249E-09  3.27353E-09  3.27288E-09  3.27056E-09  3.26659E-09  3.26098E-09  3.25377E-09  3.24497E-09  3.23462E-09
   3.22275E-09  3.20938E-09  3.19454E-09  3.17825E-09  3.16054E-09  3.14145E-09  3.12101E-09  3.09926E-09  3.07624E-09  3.05198E-09
   3.02652E-09  2.99992E-09  2.97223E-09  2.94352E-09  2.91387E-09  2.88339E-09  2.85218E-09  2.82044E-09  2.78842E-09  2.75647E-09
   2.72518E-09  2.69553E-09  2.66936E-09  2.65047E-09  2.64821E-09  2.69228E-09  2.92540E-09  3.76861E-09  4.15919E-09  4.14035E-09
   3.99434E-09  3.89295E-09  3.83447E-09  3.78576E-09  3.75258E-09  3.76117E-09  3.67345E-09  3.19217E-09  2.29871E-09  2.00997E-09
   1.87877E-09  1.78854E-09  1.71382E-09  1.64637E-09  1.58275E-09  1.52133E-09  1.46123E-09  1.40194E-09  1.34317E-09  1.28473E-09
   1.22649E-09  1.16838E-09  1.11036E-09  1.05239E-09  9.94472E-10  9.36578E-10  8.78730E-10  8.20928E-10  7.63179E-10  7.05506E-10
   6.47921E-10  5.90435E-10  5.33074E-10  4.75862E-10  4.18812E-10  3.61951E-10  3.05297E-10  2.48889E-10  1.92732E-10  1.36853E-10
   8.12800E-11  2.60427E-11 -2.88402E-11 -8.33394E-11 -1.37443E-10 -1.91115E-10 -2.44324E-10 -2.97055E-10 -3.49287E-10 -4.00982E-10
  -4.52117E-10 -5.02669E-10 -5.52612E-10 -6.01927E-10 -6.50587E-10 -6.98547E-10 -7.45807E-10 -7.92332E-10 -8.38085E-10 -8.83051E-10
