 LCModel (Version 6.3-1R) Copyright: S.W. Provencher.          Ref.: Magn. Reson. Med. 30:672-679 (1993).                
 onepulse 22x14_ftSpec_smooth_lcm
 26 lines in following concentration table = NCONC+1
    Conc.  %SD   /Cr    Metabolite                                         
 7.12E-11 284%   0.000 Ala                                                 
    0.000 999%   0.000 Asp                                                 
    0.000 999%   0.000 Cr                                                  
 2.87E-09  16%   0.000 GABA                                                
 1.30E-09  30%   0.000 Glc                                                 
    0.000 999%   0.000 Gln                                                 
 1.02E-10 482%   0.000 Glu                                                 
    0.000 999%   0.000 Glyc                                                
 7.99E-11 699%   0.000 GPC                                                 
    0.000 999%   0.000 GSH                                                 
 1.90E-10 147%   0.000 Ins                                                 
    0.000 999%   0.000 Lac                                                 
    0.000 999%   0.000 NAAG                                                
 1.12E-09  16%   0.000 NAA                                                 
 2.70E-11 999%   0.000 PCh                                                 
    0.000 999%   0.000 PCr                                                 
    0.000 999%   0.000 PE                                                  
    0.000 999%   0.000 Scyllo                                              
 1.47E-09  40%   0.000 Ser                                                 
    0.000 999%   0.000 Tau                                                 
 1.07E-10  54%   0.000 GPC+PCh                                             
 1.12E-09  16%   0.000 NAA+NAAG                                            
 1.90E-10 147%   0.000 Ins+Glyc                                            
    0.000 999%   0.000 Cr+PCr                                              
 1.02E-10 482%   0.000 Glu+Gln                                             
   6 lines in following misc. output table
  FWHM = 0.078 ppm    S/N =   4                                            
  Data shift = 0.347 ppm                                                   
  Ph:  70 deg      28.1 deg/ppm                                            
  alphaB,S = 1.6E-01,   7.7E+01                                            
   16 spline knots.   Ns = 5(1)                                            
  ( 7) 2 infls.   ( 3) 1 extrs.                                            
  363 points on ppm-axis = NY
      4.250000     4.238821     4.227641     4.216462     4.205282     4.194103     4.182923     4.171744     4.160564     4.149385
      4.138206     4.127026     4.115847     4.104667     4.093488     4.082308     4.071129     4.059949     4.048770     4.037591
      4.026411     4.015232     4.004052     3.992873     3.981693     3.970514     3.959334     3.948155     3.936975     3.925796
      3.914617     3.903437     3.892258     3.881078     3.869899     3.858719     3.847540     3.836360     3.825181     3.814002
      3.802822     3.791643     3.780463     3.769284     3.758104     3.746925     3.735745     3.724566     3.713387     3.702207
      3.691028     3.679848     3.668669     3.657489     3.646310     3.635130     3.623951     3.612772     3.601592     3.590413
      3.579233     3.568054     3.556874     3.545695     3.534515     3.523336     3.512156     3.500977     3.489798     3.478618
      3.467439     3.456259     3.445080     3.433900     3.422721     3.411541     3.400362     3.389183     3.378003     3.366824
      3.355644     3.344465     3.333285     3.322106     3.310926     3.299747     3.288568     3.277388     3.266209     3.255029
      3.243850     3.232670     3.221491     3.210311     3.199132     3.187953     3.176773     3.165594     3.154414     3.143235
      3.132055     3.120876     3.109696     3.098517     3.087337     3.076158     3.064979     3.053799     3.042620     3.031440
      3.020261     3.009081     2.997902     2.986722     2.975543     2.964364     2.953184     2.942005     2.930825     2.919646
      2.908466     2.897287     2.886107     2.874928     2.863749     2.852569     2.841390     2.830210     2.819031     2.807851
      2.796672     2.785492     2.774313     2.763134     2.751954     2.740775     2.729595     2.718416     2.707236     2.696057
      2.684877     2.673698     2.662519     2.651339     2.640160     2.628980     2.617801     2.606621     2.595442     2.584262
      2.573083     2.561903     2.550724     2.539545     2.528365     2.517186     2.506006     2.494827     2.483647     2.472468
      2.461288     2.450109     2.438930     2.427750     2.416571     2.405391     2.394212     2.383032     2.371853     2.360673
      2.349494     2.338315     2.327135     2.315956     2.304776     2.293597     2.282417     2.271238     2.260058     2.248879
      2.237700     2.226520     2.215341     2.204161     2.192982     2.181802     2.170623     2.159443     2.148264     2.137084
      2.125905     2.114726     2.103546     2.092367     2.081187     2.070008     2.058828     2.047649     2.036469     2.025290
      2.014111     2.002931     1.991752     1.980572     1.969393     1.958213     1.947034     1.935854     1.924675     1.913496
      1.902316     1.891137     1.879957     1.868778     1.857598     1.846419     1.835239     1.824060     1.812881     1.801701
      1.790522     1.779342     1.768163     1.756983     1.745804     1.734624     1.723445     1.712265     1.701086     1.689907
      1.678727     1.667548     1.656368     1.645189     1.634009     1.622830     1.611650     1.600471     1.589292     1.578112
      1.566933     1.555753     1.544574     1.533394     1.522215     1.511035     1.499856     1.488677     1.477497     1.466318
      1.455138     1.443959     1.432779     1.421600     1.410420     1.399241     1.388062     1.376882     1.365703     1.354523
      1.343344     1.332164     1.320985     1.309805     1.298626     1.287446     1.276267     1.265088     1.253908     1.242729
      1.231549     1.220370     1.209190     1.198011     1.186831     1.175652     1.164473     1.153293     1.142114     1.130934
      1.119755     1.108575     1.097396     1.086216     1.075037     1.063858     1.052678     1.041499     1.030319     1.019140
      1.007960     0.996781     0.985601     0.974422     0.963243     0.952063     0.940884     0.929704     0.918525     0.907345
      0.896166     0.884986     0.873807     0.862628     0.851448     0.840269     0.829089     0.817910     0.806730     0.795551
      0.784371     0.773192     0.762012     0.750833     0.739654     0.728474     0.717295     0.706115     0.694936     0.683756
      0.672577     0.661397     0.650218     0.639039     0.627859     0.616680     0.605500     0.594321     0.583141     0.571962
      0.560782     0.549603     0.538424     0.527244     0.516065     0.504885     0.493706     0.482526     0.471347     0.460167
      0.448988     0.437809     0.426629     0.415450     0.404270     0.393091     0.381911     0.370732     0.359552     0.348373
      0.337193     0.326014     0.314835     0.303655     0.292476     0.281296     0.270117     0.258937     0.247758     0.236578
      0.225399     0.214220     0.203040
 NY phased data points follow
   1.40812E-08  1.55915E-08  1.51438E-08  1.35370E-08  1.17731E-08  1.15542E-08  1.03122E-08  1.00878E-08  9.34405E-09  9.31303E-09
   9.28091E-09  9.72885E-09  9.88908E-09  1.02040E-08  1.03639E-08  1.16848E-08  1.13569E-08  1.08620E-08  1.04108E-08  1.04779E-08
   1.04468E-08  9.83999E-09  9.06169E-09  9.82493E-09  1.05354E-08  1.07545E-08  1.10494E-08  1.08098E-08  9.82457E-09  9.70801E-09
   1.03774E-08  1.11896E-08  1.35143E-08  1.32423E-08  1.33011E-08  1.19585E-08  1.10298E-08  9.29698E-09  8.42340E-09  8.16846E-09
   8.09619E-09  7.40692E-09  6.99940E-09  7.60009E-09  6.87393E-09  5.92574E-09  6.44343E-09  5.16792E-09  5.74496E-09  5.07392E-09
   5.47011E-09  6.18949E-09  5.48706E-09  5.87491E-09  6.01055E-09  4.39715E-09  4.59777E-09  4.89735E-09  4.61351E-09  5.21099E-09
   6.29797E-09  7.08859E-09  9.46251E-09  1.30785E-08  1.56846E-08  1.43501E-08  1.29115E-08  1.03210E-08  8.96141E-09  7.49904E-09
   6.77947E-09  6.39915E-09  5.47299E-09  4.54885E-09  4.76636E-09  4.67365E-09  4.33910E-09  5.45392E-09  6.97858E-09  1.00999E-08
   1.41562E-08  1.57164E-08  1.45443E-08  1.22950E-08  1.12819E-08  1.02736E-08  9.45257E-09  8.95475E-09  8.31575E-09  7.46094E-09
   7.89752E-09  7.29159E-09  6.38384E-09  6.38502E-09  6.05124E-09  5.13980E-09  5.33839E-09  4.70930E-09  4.77281E-09  4.41348E-09
   4.24948E-09  3.80362E-09  4.58222E-09  4.99392E-09  4.32139E-09  4.07964E-09  4.91388E-09  4.16754E-09  3.55045E-09  3.53339E-09
   2.87737E-09  2.37802E-09  2.40571E-09  3.22197E-09  3.20213E-09  3.89348E-09  3.78458E-09  4.04927E-09  4.50757E-09  3.87398E-09
   4.26144E-09  4.12256E-09  3.70958E-09  3.15113E-09  2.43341E-09  2.34142E-09  2.21367E-09  2.20917E-09  2.50978E-09  3.11593E-09
   2.65543E-09  2.53931E-09  3.16134E-09  2.45656E-09  2.55165E-09  2.70123E-09  2.46392E-09  2.67963E-09  2.13259E-09  2.75195E-09
   4.48617E-09  5.05018E-09  4.60696E-09  3.62635E-09  4.30629E-09  4.12714E-09  5.28483E-09  4.34511E-09  5.61116E-09  4.27579E-09
   4.29969E-09  4.58989E-09  3.81426E-09  3.69038E-09  3.46396E-09  3.59204E-09  3.38963E-09  3.54270E-09  3.92862E-09  3.70588E-09
   4.24613E-09  4.12527E-09  4.17785E-09  3.99492E-09  3.64807E-09  4.01445E-09  4.76113E-09  5.99919E-09  7.00919E-09  7.76141E-09
   1.04262E-08  1.56472E-08  1.78877E-08  1.59113E-08  1.26452E-08  1.00155E-08  8.87060E-09  7.74750E-09  6.36605E-09  5.07046E-09
   4.51777E-09  3.62548E-09  2.98423E-09  2.53723E-09  1.57468E-09  1.04545E-09  3.46932E-10 -1.90816E-10 -1.24204E-09 -2.68318E-09
  -2.75390E-09 -3.47521E-09 -4.66559E-09 -5.85847E-09 -6.50297E-09 -8.29453E-09 -8.24717E-09 -9.41501E-09 -1.05654E-08 -1.10413E-08
  -1.11022E-08 -1.17292E-08 -1.12439E-08 -1.12853E-08 -1.01371E-08 -9.99566E-09 -8.83265E-09 -8.21979E-09 -7.43359E-09 -6.07235E-09
  -5.09952E-09 -4.08578E-09 -3.21897E-09 -2.27689E-09 -2.00762E-09 -1.24451E-09 -1.65833E-09 -6.38417E-10 -1.39895E-09 -1.45015E-09
  -1.73421E-09 -1.76747E-09 -1.11226E-09 -1.48576E-09 -1.20078E-09 -1.27794E-09 -1.06944E-09 -1.05521E-09 -7.54534E-10 -9.99694E-10
  -8.48478E-10 -1.10260E-09 -1.36131E-09 -1.80008E-09 -1.21705E-09 -1.20971E-09 -1.10326E-09 -7.17072E-10 -8.72349E-10 -3.09246E-10
  -6.02914E-10 -7.91505E-10 -8.27555E-10 -1.65444E-09 -1.36641E-09 -7.81788E-10 -9.41139E-10 -1.30896E-09 -1.07957E-09 -5.61265E-10
  -2.83994E-10 -3.18993E-10  5.58553E-13 -1.84565E-11  3.00546E-11 -4.07850E-10  4.94708E-11 -1.34005E-09 -8.53757E-10 -9.98151E-10
  -8.94467E-10 -1.49806E-09 -1.57198E-09 -1.57441E-09 -1.02425E-09 -1.02357E-09 -5.27606E-10 -1.46048E-09 -3.51050E-10 -2.48671E-10
   1.31664E-10  2.45778E-10  3.71405E-10  5.39631E-10  8.42673E-10  3.39870E-10  4.03426E-11  5.16175E-10 -3.41152E-10 -9.16697E-11
  -3.71789E-10 -1.20065E-10 -4.00600E-10 -8.00984E-10 -6.19101E-10 -1.08509E-09 -7.43998E-10 -1.12371E-09 -6.44921E-10 -3.33525E-10
  -9.59331E-10 -1.13224E-09 -5.85025E-10 -8.83586E-10 -5.39652E-10 -7.98760E-10 -3.96702E-10 -6.47682E-10 -9.94123E-10 -1.03740E-09
  -4.18358E-10 -9.10378E-10 -1.04217E-09 -3.76366E-10 -8.20890E-10 -1.63039E-10 -1.05165E-09 -4.40176E-10 -4.23660E-10 -1.47132E-09
  -2.15467E-10 -3.45571E-10 -7.11655E-10 -4.13475E-10 -3.89184E-10 -8.65989E-10  1.22142E-10 -2.70049E-10 -8.34352E-11 -2.07504E-10
  -4.84668E-10 -1.89862E-11 -1.87459E-10 -1.65536E-10 -8.23619E-11 -2.86441E-10 -9.72965E-11 -1.66304E-10  1.56603E-10 -2.58374E-10
   3.50402E-10  9.30668E-11 -1.01375E-10  8.57006E-11  3.09431E-11  7.06179E-11  4.85606E-11 -3.26139E-10 -6.52484E-11  4.86812E-11
   7.29358E-10 -1.39609E-10  1.38338E-10 -2.37645E-11  9.71181E-10 -3.57970E-10  1.90249E-10  2.00924E-10  2.61531E-10  2.12353E-10
   2.47006E-10  4.61454E-10  4.98899E-10  3.21269E-10  4.34584E-10  4.80308E-10  4.85394E-10  4.99013E-10  9.60245E-10  9.21640E-10
   5.46499E-10  3.59115E-11  3.88417E-10
 NY points of the fit to the data follow
   1.55075E-08  1.45882E-08  1.36880E-08  1.28935E-08  1.20978E-08  1.12272E-08  1.04043E-08  9.86661E-09  9.58261E-09  9.46722E-09
   9.54457E-09  9.68566E-09  9.85226E-09  1.00701E-08  1.03478E-08  1.06765E-08  1.10349E-08  1.13196E-08  1.13654E-08  1.11465E-08
   1.07520E-08  1.02399E-08  9.75541E-09  9.52498E-09  9.50333E-09  9.66723E-09  1.00391E-08  1.04914E-08  1.08842E-08  1.11189E-08
   1.11902E-08  1.13657E-08  1.15934E-08  1.16107E-08  1.15357E-08  1.15630E-08  1.13502E-08  1.07489E-08  9.87571E-09  8.93907E-09
   8.08209E-09  7.16356E-09  6.21578E-09  5.74283E-09  5.57525E-09  5.34708E-09  5.25558E-09  5.30228E-09  5.37319E-09  5.44512E-09
   5.56087E-09  5.72281E-09  5.92736E-09  6.11851E-09  6.27682E-09  6.40021E-09  6.51892E-09  6.62459E-09  6.77463E-09  7.01871E-09
   7.42409E-09  8.03717E-09  8.72853E-09  9.45217E-09  1.03550E-08  1.10400E-08  1.13436E-08  1.13814E-08  1.11127E-08  1.04677E-08
   9.54051E-09  8.48753E-09  7.54182E-09  6.87846E-09  6.20270E-09  5.79992E-09  6.20895E-09  7.26949E-09  8.62705E-09  1.03263E-08
   1.19284E-08  1.29826E-08  1.32993E-08  1.28019E-08  1.17657E-08  1.06520E-08  9.50573E-09  8.23252E-09  7.15738E-09  6.95113E-09
   6.84206E-09  6.69265E-09  6.30181E-09  5.78401E-09  5.47099E-09  5.10811E-09  4.63605E-09  4.36625E-09  4.19611E-09  4.03271E-09
   3.95369E-09  3.92922E-09  3.93574E-09  3.96457E-09  3.99381E-09  4.01155E-09  4.01608E-09  4.00654E-09  3.97867E-09  3.93126E-09
   3.87360E-09  3.82564E-09  3.79804E-09  3.76377E-09  3.73522E-09  3.73003E-09  3.73032E-09  3.73187E-09  3.73335E-09  3.73415E-09
   3.73397E-09  3.73257E-09  3.72980E-09  3.72552E-09  3.71964E-09  3.71206E-09  3.70269E-09  3.69148E-09  3.67834E-09  3.66321E-09
   3.64600E-09  3.62667E-09  3.60512E-09  3.58130E-09  3.55515E-09  3.52660E-09  3.49560E-09  3.46208E-09  3.42597E-09  3.38723E-09
   3.34577E-09  3.30160E-09  3.25465E-09  3.20492E-09  3.15238E-09  3.09700E-09  3.03879E-09  2.97773E-09  2.91385E-09  2.84717E-09
   2.77775E-09  2.70566E-09  2.63102E-09  2.55399E-09  2.47482E-09  2.39384E-09  2.31154E-09  2.22861E-09  2.14610E-09  2.06556E-09
   1.98948E-09  1.92197E-09  1.87034E-09  1.84884E-09  1.89012E-09  2.09124E-09  2.87086E-09  4.63654E-09  7.33502E-09  1.05371E-08
   1.36948E-08  1.60326E-08  1.68554E-08  1.60115E-08  1.39234E-08  1.11359E-08  7.93818E-09  4.56189E-09  1.81947E-09  3.14206E-10
  -3.06659E-10 -6.90046E-10 -9.79998E-10 -1.22192E-09 -1.43478E-09 -1.62791E-09 -1.80632E-09 -1.97283E-09 -2.12908E-09 -2.27605E-09
  -2.41426E-09 -2.54395E-09 -2.66518E-09 -2.77786E-09 -2.88186E-09 -2.97695E-09 -3.06300E-09 -3.14028E-09 -3.20914E-09 -3.26988E-09
  -3.32282E-09 -3.36824E-09 -3.40642E-09 -3.43763E-09 -3.46213E-09 -3.48019E-09 -3.49206E-09 -3.49799E-09 -3.49823E-09 -3.49303E-09
  -3.48263E-09 -3.46726E-09 -3.44718E-09 -3.42262E-09 -3.39382E-09 -3.36102E-09 -3.32444E-09 -3.28433E-09 -3.24092E-09 -3.19445E-09
  -3.14513E-09 -3.09321E-09 -3.03891E-09 -2.98248E-09 -2.92410E-09 -2.86396E-09 -2.80221E-09 -2.73901E-09 -2.67452E-09 -2.60891E-09
  -2.54234E-09 -2.47495E-09 -2.40691E-09 -2.33839E-09 -2.26952E-09 -2.20047E-09 -2.13140E-09 -2.06247E-09 -1.99381E-09 -1.92561E-09
  -1.85800E-09 -1.79113E-09 -1.72517E-09 -1.66026E-09 -1.59654E-09 -1.53417E-09 -1.47330E-09 -1.41408E-09 -1.35666E-09 -1.30118E-09
  -1.24778E-09 -1.19662E-09 -1.14775E-09 -1.10111E-09 -1.05665E-09 -1.01432E-09 -9.74030E-10 -9.35743E-10 -8.99387E-10 -8.64909E-10
  -8.32248E-10 -8.01337E-10 -7.72127E-10 -7.44548E-10 -7.18551E-10 -6.94070E-10 -6.71035E-10 -6.49414E-10 -6.29134E-10 -6.10130E-10
  -5.92345E-10 -5.75733E-10 -5.60221E-10 -5.45758E-10 -5.32295E-10 -5.19753E-10 -5.08100E-10 -4.97263E-10 -4.87193E-10 -4.77826E-10
  -4.69118E-10 -4.61021E-10 -4.53489E-10 -4.46473E-10 -4.39936E-10 -4.33825E-10 -4.28101E-10 -4.22714E-10 -4.17621E-10 -4.12782E-10
  -4.08149E-10 -4.03680E-10 -3.99332E-10 -3.95060E-10 -3.90826E-10 -3.86582E-10 -3.82291E-10 -3.77907E-10 -3.73395E-10 -3.68704E-10
  -3.63804E-10 -3.58647E-10 -3.53194E-10 -3.47413E-10 -3.41256E-10 -3.34687E-10 -3.27669E-10 -3.20160E-10 -3.12165E-10 -3.03695E-10
  -2.94767E-10 -2.85396E-10 -2.75599E-10 -2.65388E-10 -2.54781E-10 -2.43792E-10 -2.32437E-10 -2.20731E-10 -2.08690E-10 -1.96326E-10
  -1.83658E-10 -1.70697E-10 -1.57458E-10 -1.43961E-10 -1.30212E-10 -1.16235E-10 -1.02037E-10 -8.76332E-11 -7.30408E-11 -5.82752E-11
  -4.33440E-11 -2.82661E-11 -1.30531E-11  2.27873E-12  1.77166E-11  3.32506E-11  4.88674E-11  6.45569E-11  8.03125E-11  9.61243E-11
   1.11983E-10  1.27880E-10  1.43807E-10  1.59756E-10  1.75714E-10  1.91679E-10  2.07635E-10  2.23580E-10  2.39501E-10  2.55393E-10
   2.71248E-10  2.87054E-10  3.02806E-10  3.18496E-10  3.34115E-10  3.49654E-10  3.65108E-10  3.80469E-10  3.95729E-10  4.10878E-10
   4.25911E-10  4.40820E-10  4.55600E-10
 NY background values follow
     5.641E-09    5.613E-09    5.584E-09    5.555E-09    5.526E-09    5.497E-09    5.467E-09    5.437E-09    5.407E-09    5.377E-09
     5.346E-09    5.315E-09    5.284E-09    5.253E-09    5.221E-09    5.189E-09    5.157E-09    5.125E-09    5.093E-09    5.060E-09
     5.027E-09    4.994E-09    4.961E-09    4.928E-09    4.894E-09    4.860E-09    4.826E-09    4.792E-09    4.758E-09    4.724E-09
     4.689E-09    4.654E-09    4.619E-09    4.585E-09    4.550E-09    4.515E-09    4.481E-09    4.446E-09    4.412E-09    4.378E-09
     4.345E-09    4.312E-09    4.279E-09    4.246E-09    4.214E-09    4.183E-09    4.152E-09    4.121E-09    4.092E-09    4.063E-09
     4.034E-09    4.007E-09    3.980E-09    3.954E-09    3.929E-09    3.905E-09    3.882E-09    3.861E-09    3.840E-09    3.820E-09
     3.801E-09    3.783E-09    3.766E-09    3.750E-09    3.734E-09    3.720E-09    3.706E-09    3.693E-09    3.681E-09    3.670E-09
     3.659E-09    3.649E-09    3.640E-09    3.631E-09    3.623E-09    3.615E-09    3.608E-09    3.602E-09    3.596E-09    3.590E-09
     3.585E-09    3.580E-09    3.576E-09    3.572E-09    3.568E-09    3.564E-09    3.561E-09    3.558E-09    3.555E-09    3.553E-09
     3.550E-09    3.548E-09    3.545E-09    3.543E-09    3.541E-09    3.538E-09    3.536E-09    3.534E-09    3.531E-09    3.528E-09
     3.526E-09    3.523E-09    3.519E-09    3.516E-09    3.512E-09    3.508E-09    3.504E-09    3.499E-09    3.494E-09    3.488E-09
     3.482E-09    3.476E-09    3.468E-09    3.461E-09    3.452E-09    3.443E-09    3.433E-09    3.423E-09    3.411E-09    3.398E-09
     3.384E-09    3.369E-09    3.353E-09    3.335E-09    3.316E-09    3.296E-09    3.274E-09    3.250E-09    3.225E-09    3.197E-09
     3.168E-09    3.137E-09    3.104E-09    3.069E-09    3.032E-09    2.992E-09    2.950E-09    2.906E-09    2.859E-09    2.810E-09
     2.758E-09    2.703E-09    2.646E-09    2.586E-09    2.523E-09    2.457E-09    2.388E-09    2.316E-09    2.241E-09    2.163E-09
     2.082E-09    1.997E-09    1.909E-09    1.818E-09    1.723E-09    1.625E-09    1.523E-09    1.418E-09    1.309E-09    1.196E-09
     1.079E-09    9.591E-10    8.350E-10    7.069E-10    5.749E-10    4.388E-10    2.987E-10    1.544E-10    5.994E-12   -1.462E-10
    -3.016E-10   -4.600E-10   -6.207E-10   -7.834E-10   -9.476E-10   -1.113E-09   -1.279E-09   -1.445E-09   -1.610E-09   -1.775E-09
    -1.939E-09   -2.101E-09   -2.261E-09   -2.418E-09   -2.572E-09   -2.723E-09   -2.870E-09   -3.012E-09   -3.150E-09   -3.282E-09
    -3.409E-09   -3.529E-09   -3.643E-09   -3.750E-09   -3.849E-09   -3.940E-09   -4.023E-09   -4.098E-09   -4.165E-09   -4.224E-09
    -4.276E-09   -4.321E-09   -4.359E-09   -4.390E-09   -4.414E-09   -4.432E-09   -4.445E-09   -4.451E-09   -4.452E-09   -4.447E-09
    -4.437E-09   -4.423E-09   -4.403E-09   -4.380E-09   -4.352E-09   -4.320E-09   -4.284E-09   -4.245E-09   -4.203E-09   -4.157E-09
    -4.109E-09   -4.058E-09   -4.004E-09   -3.949E-09   -3.892E-09   -3.832E-09   -3.771E-09   -3.709E-09   -3.646E-09   -3.581E-09
    -3.515E-09   -3.449E-09   -3.381E-09   -3.314E-09   -3.246E-09   -3.177E-09   -3.109E-09   -3.041E-09   -2.973E-09   -2.905E-09
    -2.838E-09   -2.772E-09   -2.707E-09   -2.642E-09   -2.579E-09   -2.517E-09   -2.457E-09   -2.398E-09   -2.341E-09   -2.286E-09
    -2.233E-09   -2.182E-09   -2.134E-09   -2.087E-09   -2.043E-09   -2.001E-09   -1.961E-09   -1.923E-09   -1.887E-09   -1.852E-09
    -1.820E-09   -1.789E-09   -1.760E-09   -1.732E-09   -1.706E-09   -1.682E-09   -1.659E-09   -1.637E-09   -1.617E-09   -1.598E-09
    -1.580E-09   -1.563E-09   -1.547E-09   -1.533E-09   -1.519E-09   -1.506E-09   -1.494E-09   -1.483E-09   -1.472E-09   -1.463E-09
    -1.454E-09   -1.445E-09   -1.437E-09   -1.430E-09   -1.423E-09   -1.416E-09   -1.410E-09   -1.404E-09   -1.398E-09   -1.392E-09
    -1.387E-09   -1.382E-09   -1.377E-09   -1.372E-09   -1.367E-09   -1.362E-09   -1.357E-09   -1.352E-09   -1.346E-09   -1.341E-09
    -1.335E-09   -1.329E-09   -1.323E-09   -1.316E-09   -1.309E-09   -1.301E-09   -1.293E-09   -1.285E-09   -1.276E-09   -1.266E-09
    -1.256E-09   -1.245E-09   -1.235E-09   -1.223E-09   -1.211E-09   -1.199E-09   -1.187E-09   -1.174E-09   -1.160E-09   -1.147E-09
    -1.133E-09   -1.118E-09   -1.104E-09   -1.089E-09   -1.074E-09   -1.058E-09   -1.043E-09   -1.027E-09   -1.011E-09   -9.944E-10
    -9.780E-10   -9.614E-10   -9.446E-10   -9.277E-10   -9.106E-10   -8.935E-10   -8.762E-10   -8.589E-10   -8.415E-10   -8.240E-10
    -8.064E-10   -7.888E-10   -7.711E-10   -7.534E-10   -7.356E-10   -7.179E-10   -7.001E-10   -6.823E-10   -6.645E-10   -6.467E-10
    -6.290E-10   -6.113E-10   -5.936E-10   -5.760E-10   -5.584E-10   -5.408E-10   -5.234E-10   -5.060E-10   -4.887E-10   -4.715E-10
    -4.544E-10   -4.374E-10   -4.205E-10
 Ala      Conc. = 7.12E-11
   5.70757E-09  5.67970E-09  5.64967E-09  5.61804E-09  5.58464E-09  5.54933E-09  5.51147E-09  5.47273E-09  5.43680E-09  5.39991E-09
   5.36098E-09  5.32613E-09  5.29295E-09  5.25880E-09  5.22586E-09  5.19377E-09  5.16185E-09  5.12989E-09  5.09778E-09  5.06550E-09
   5.03302E-09  5.00033E-09  4.96745E-09  4.93435E-09  4.90104E-09  4.86756E-09  4.83388E-09  4.79999E-09  4.76591E-09  4.73167E-09
   4.69730E-09  4.66282E-09  4.62829E-09  4.59374E-09  4.55923E-09  4.52479E-09  4.49047E-09  4.45630E-09  4.42234E-09  4.38861E-09
   4.35518E-09  4.32206E-09  4.28933E-09  4.25702E-09  4.22518E-09  4.19382E-09  4.16304E-09  4.13286E-09  4.10330E-09  4.07444E-09
   4.04633E-09  4.01898E-09  3.99247E-09  3.96682E-09  3.94215E-09  3.91839E-09  3.89563E-09  3.87392E-09  3.85323E-09  3.83354E-09
   3.81481E-09  3.79703E-09  3.78017E-09  3.76420E-09  3.74910E-09  3.73486E-09  3.72144E-09  3.70881E-09  3.69695E-09  3.68583E-09
   3.67543E-09  3.66574E-09  3.65670E-09  3.64831E-09  3.64053E-09  3.63335E-09  3.62674E-09  3.62066E-09  3.61509E-09  3.61003E-09
   3.60541E-09  3.60125E-09  3.59749E-09  3.59416E-09  3.59117E-09  3.58858E-09  3.58633E-09  3.58442E-09  3.58286E-09  3.58164E-09
   3.58080E-09  3.58035E-09  3.58035E-09  3.58090E-09  3.58214E-09  3.58434E-09  3.58794E-09  3.59383E-09  3.60391E-09  3.62366E-09
   3.65930E-09  3.69862E-09  3.74088E-09  3.78849E-09  3.82575E-09  3.84443E-09  3.84505E-09  3.82825E-09  3.79077E-09  3.73212E-09
   3.66224E-09  3.60130E-09  3.56014E-09  3.51194E-09  3.46920E-09  3.44966E-09  3.43567E-09  3.42304E-09  3.41047E-09  3.39737E-09
   3.38344E-09  3.36849E-09  3.35236E-09  3.33496E-09  3.31617E-09  3.29591E-09  3.27408E-09  3.25063E-09  3.22545E-09  3.19849E-09
   3.16964E-09  3.13885E-09  3.10603E-09  3.07110E-09  3.03401E-09  2.99465E-09  2.95297E-09  2.90888E-09  2.86233E-09  2.81321E-09
   2.76144E-09  2.70701E-09  2.64982E-09  2.58982E-09  2.52697E-09  2.46119E-09  2.39243E-09  2.32065E-09  2.24577E-09  2.16774E-09
   2.08652E-09  2.00203E-09  1.91424E-09  1.82308E-09  1.72850E-09  1.63045E-09  1.52889E-09  1.42375E-09  1.31500E-09  1.20259E-09
   1.08650E-09  9.66701E-10  8.43232E-10  7.16134E-10  5.85667E-10  4.52582E-10  3.20265E-10  1.97519E-10  7.94273E-11 -3.73439E-11
  -1.57532E-10 -2.89749E-10 -4.41763E-10 -6.14062E-10 -7.99965E-10 -9.92584E-10 -1.18943E-09 -1.38936E-09 -1.58377E-09 -1.75718E-09
  -1.92433E-09 -2.08819E-09 -2.24920E-09 -2.40726E-09 -2.56204E-09 -2.71320E-09 -2.86032E-09 -3.00300E-09 -3.14077E-09 -3.27323E-09
  -3.39993E-09 -3.52044E-09 -3.63431E-09 -3.74109E-09 -3.84035E-09 -3.93164E-09 -4.01468E-09 -4.08959E-09 -4.15661E-09 -4.21597E-09
  -4.26790E-09 -4.31263E-09 -4.35039E-09 -4.38140E-09 -4.40591E-09 -4.42413E-09 -4.43631E-09 -4.44267E-09 -4.44343E-09 -4.43884E-09
  -4.42913E-09 -4.41451E-09 -4.39522E-09 -4.37150E-09 -4.34357E-09 -4.31167E-09 -4.27602E-09 -4.23684E-09 -4.19438E-09 -4.14886E-09
  -4.10050E-09 -4.04954E-09 -3.99620E-09 -3.94071E-09 -3.88328E-09 -3.82407E-09 -3.76325E-09 -3.70095E-09 -3.63736E-09 -3.57263E-09
  -3.50691E-09 -3.44036E-09 -3.37315E-09 -3.30542E-09 -3.23733E-09 -3.16904E-09 -3.10071E-09 -3.03249E-09 -2.96452E-09 -2.89698E-09
  -2.83001E-09 -2.76376E-09 -2.69838E-09 -2.63404E-09 -2.57085E-09 -2.50900E-09 -2.44862E-09 -2.38986E-09 -2.33287E-09 -2.27780E-09
  -2.22478E-09 -2.17398E-09 -2.12544E-09 -2.07911E-09 -2.03492E-09 -1.99284E-09 -1.95277E-09 -1.91468E-09 -1.87849E-09 -1.84416E-09
  -1.81161E-09 -1.78079E-09 -1.75165E-09 -1.72410E-09 -1.69812E-09 -1.67362E-09 -1.65054E-09 -1.62886E-09 -1.60848E-09 -1.58936E-09
  -1.57143E-09 -1.55464E-09 -1.53893E-09 -1.52425E-09 -1.51054E-09 -1.49772E-09 -1.48577E-09 -1.47461E-09 -1.46419E-09 -1.45445E-09
  -1.44534E-09 -1.43682E-09 -1.42884E-09 -1.42135E-09 -1.41431E-09 -1.40768E-09 -1.40141E-09 -1.39545E-09 -1.38976E-09 -1.38430E-09
  -1.37903E-09 -1.37389E-09 -1.36885E-09 -1.36387E-09 -1.35890E-09 -1.35389E-09 -1.34882E-09 -1.34363E-09 -1.33829E-09 -1.33275E-09
  -1.32697E-09 -1.32092E-09 -1.31455E-09 -1.30782E-09 -1.30070E-09 -1.29314E-09 -1.28512E-09 -1.27658E-09 -1.26753E-09 -1.25799E-09
  -1.24796E-09 -1.23747E-09 -1.22654E-09 -1.21517E-09 -1.20338E-09 -1.19119E-09 -1.17861E-09 -1.16566E-09 -1.15235E-09 -1.13870E-09
  -1.12473E-09 -1.11044E-09 -1.09585E-09 -1.08099E-09 -1.06585E-09 -1.05047E-09 -1.03484E-09 -1.01899E-09 -1.00293E-09 -9.86679E-10
  -9.70241E-10 -9.53637E-10 -9.36878E-10 -9.19982E-10 -9.02960E-10 -8.85822E-10 -8.68583E-10 -8.51252E-10 -8.33836E-10 -8.16346E-10
  -7.98790E-10 -7.81176E-10 -7.63515E-10 -7.45814E-10 -7.28085E-10 -7.10331E-10 -6.92568E-10 -6.74798E-10 -6.57034E-10 -6.39281E-10
  -6.21548E-10 -6.03846E-10 -5.86179E-10 -5.68559E-10 -5.50991E-10 -5.33486E-10 -5.16050E-10 -4.98688E-10 -4.81412E-10 -4.64229E-10
  -4.47145E-10 -4.30169E-10 -4.13305E-10
 GABA     Conc. = 2.87E-09
   6.76245E-09  6.75159E-09  6.74139E-09  6.73196E-09  6.72339E-09  6.71580E-09  6.70930E-09  6.70407E-09  6.70029E-09  6.69814E-09
   6.69787E-09  6.69982E-09  6.70427E-09  6.71164E-09  6.72242E-09  6.73703E-09  6.75620E-09  6.78083E-09  6.81188E-09  6.85081E-09
   6.89958E-09  6.96063E-09  7.03744E-09  7.13490E-09  7.26007E-09  7.42427E-09  7.64631E-09  7.96175E-09  8.44400E-09  9.03037E-09
   9.62940E-09  1.03755E-08  1.11384E-08  1.16619E-08  1.19867E-08  1.20938E-08  1.18431E-08  1.11930E-08  1.02572E-08  9.22721E-09
   8.26161E-09  7.21976E-09  6.12324E-09  5.48323E-09  5.13376E-09  4.74005E-09  4.52476E-09  4.49920E-09  4.52825E-09  4.57891E-09
   4.64085E-09  4.71068E-09  4.78850E-09  4.87586E-09  4.97540E-09  5.09131E-09  5.23001E-09  5.40106E-09  5.61991E-09  5.91377E-09
   6.33874E-09  6.97464E-09  7.65455E-09  8.36744E-09  9.22694E-09  9.90239E-09  1.02408E-08  1.03289E-08  1.01031E-08  9.49271E-09
   8.55856E-09  7.50074E-09  6.55278E-09  5.82113E-09  4.97667E-09  4.29376E-09  4.18107E-09  4.08530E-09  3.97940E-09  4.13432E-09
   4.37126E-09  4.64714E-09  5.09475E-09  5.58810E-09  6.01872E-09  6.49997E-09  6.96895E-09  7.29765E-09  7.46520E-09  7.45055E-09
   7.32098E-09  7.11976E-09  6.67440E-09  6.10504E-09  5.74355E-09  5.33554E-09  4.82079E-09  4.50903E-09  4.29539E-09  4.08115E-09
   3.93736E-09  3.84610E-09  3.78433E-09  3.74072E-09  3.70890E-09  3.68500E-09  3.66666E-09  3.65224E-09  3.64061E-09  3.63096E-09
   3.62253E-09  3.61502E-09  3.60813E-09  3.60159E-09  3.59518E-09  3.58864E-09  3.58168E-09  3.57415E-09  3.56591E-09  3.55684E-09
   3.54684E-09  3.53579E-09  3.52357E-09  3.51008E-09  3.49521E-09  3.47888E-09  3.46099E-09  3.44148E-09  3.42026E-09  3.39724E-09
   3.37235E-09  3.34550E-09  3.31663E-09  3.28563E-09  3.25247E-09  3.21705E-09  3.17930E-09  3.13916E-09  3.09655E-09  3.05139E-09
   3.00360E-09  2.95317E-09  2.90003E-09  2.84415E-09  2.78546E-09  2.72395E-09  2.65959E-09  2.59233E-09  2.52215E-09  2.44904E-09
   2.37301E-09  2.29405E-09  2.21222E-09  2.12757E-09  2.04019E-09  1.95023E-09  1.85792E-09  1.76361E-09  1.66782E-09  1.57138E-09
   1.47560E-09  1.38276E-09  1.29701E-09  1.22674E-09  1.19230E-09  1.25929E-09  1.73113E-09  2.62045E-09  3.76062E-09  4.98590E-09
   6.00706E-09  6.47749E-09  6.23202E-09  5.40358E-09  4.25394E-09  2.93948E-09  1.49240E-09  7.31696E-11 -7.52748E-10 -1.12950E-09
  -1.39216E-09 -1.61033E-09 -1.80567E-09 -1.98690E-09 -2.15804E-09 -2.32112E-09 -2.47714E-09 -2.62657E-09 -2.76954E-09 -2.90602E-09
  -3.03585E-09 -3.15880E-09 -3.27457E-09 -3.38281E-09 -3.48319E-09 -3.57534E-09 -3.65899E-09 -3.73433E-09 -3.80162E-09 -3.86112E-09
  -3.91309E-09 -3.95776E-09 -3.99539E-09 -4.02622E-09 -4.05048E-09 -4.06842E-09 -4.08027E-09 -4.08627E-09 -4.08666E-09 -4.08168E-09
  -4.07155E-09 -4.05651E-09 -4.03679E-09 -4.01263E-09 -3.98425E-09 -3.95190E-09 -3.91580E-09 -3.87617E-09 -3.83326E-09 -3.78730E-09
  -3.73850E-09 -3.68710E-09 -3.63333E-09 -3.57742E-09 -3.51957E-09 -3.45995E-09 -3.39872E-09 -3.33603E-09 -3.27205E-09 -3.20694E-09
