 LCModel (Version 6.3-1R) Copyright: S.W. Provencher.          Ref.: Magn. Reson. Med. 30:672-679 (1993).                
 onepulse 22x16_ftSpec_smooth_lcm
 26 lines in following concentration table = NCONC+1
    Conc.  %SD   /Cr    Metabolite                                         
 1.15E-10 145%   0.000 Ala                                                 
 3.71E-10  85%   0.000 Asp                                                 
    0.000 999%   0.000 Cr                                                  
 2.99E-09   9%   0.000 GABA                                                
 1.40E-09  19%   0.000 Glc                                                 
    0.000 999%   0.000 Gln                                                 
 3.48E-10  84%   0.000 Glu                                                 
    0.000 999%   0.000 Glyc                                                
    0.000 999%   0.000 GPC                                                 
    0.000 999%   0.000 GSH                                                 
 1.23E-10 138%   0.000 Ins                                                 
    0.000 999%   0.000 Lac                                                 
    0.000 999%   0.000 NAAG                                                
 1.06E-09  13%   0.000 NAA                                                 
 1.15E-10  36%   0.000 PCh                                                 
    0.000 999%   0.000 PCr                                                 
    0.000 999%   0.000 PE                                                  
    0.000 999%   0.000 Scyllo                                              
    0.000 999%   0.000 Ser                                                 
    0.000 999%   0.000 Tau                                                 
 1.15E-10  36%   0.000 GPC+PCh                                             
 1.06E-09  13%   0.000 NAA+NAAG                                            
 1.23E-10 138%   0.000 Ins+Glyc                                            
    0.000 999%   0.000 Cr+PCr                                              
 3.48E-10  84%   0.000 Glu+Gln                                             
   6 lines in following misc. output table
  FWHM = 0.067 ppm    S/N =   5                                            
  Data shift = 0.324 ppm                                                   
  Ph:  60 deg      33.5 deg/ppm                                            
  alphaB,S = 1.6E-01,   3.8E+01                                            
   16 spline knots.   Ns = 5(1)                                            
  ( 7) 2 infls.   ( 5) 1 extrs.                                            
  363 points on ppm-axis = NY
      4.250000     4.238821     4.227641     4.216462     4.205282     4.194103     4.182923     4.171744     4.160564     4.149385
      4.138206     4.127026     4.115847     4.104667     4.093488     4.082308     4.071129     4.059949     4.048770     4.037591
      4.026411     4.015232     4.004052     3.992873     3.981693     3.970514     3.959334     3.948155     3.936975     3.925796
      3.914617     3.903437     3.892258     3.881078     3.869899     3.858719     3.847540     3.836360     3.825181     3.814002
      3.802822     3.791643     3.780463     3.769284     3.758104     3.746925     3.735745     3.724566     3.713387     3.702207
      3.691028     3.679848     3.668669     3.657489     3.646310     3.635130     3.623951     3.612772     3.601592     3.590413
      3.579233     3.568054     3.556874     3.545695     3.534515     3.523336     3.512156     3.500977     3.489798     3.478618
      3.467439     3.456259     3.445080     3.433900     3.422721     3.411541     3.400362     3.389183     3.378003     3.366824
      3.355644     3.344465     3.333285     3.322106     3.310926     3.299747     3.288568     3.277388     3.266209     3.255029
      3.243850     3.232670     3.221491     3.210311     3.199132     3.187953     3.176773     3.165594     3.154414     3.143235
      3.132055     3.120876     3.109696     3.098517     3.087337     3.076158     3.064979     3.053799     3.042620     3.031440
      3.020261     3.009081     2.997902     2.986722     2.975543     2.964364     2.953184     2.942005     2.930825     2.919646
      2.908466     2.897287     2.886107     2.874928     2.863749     2.852569     2.841390     2.830210     2.819031     2.807851
      2.796672     2.785492     2.774313     2.763134     2.751954     2.740775     2.729595     2.718416     2.707236     2.696057
      2.684877     2.673698     2.662519     2.651339     2.640160     2.628980     2.617801     2.606621     2.595442     2.584262
      2.573083     2.561903     2.550724     2.539545     2.528365     2.517186     2.506006     2.494827     2.483647     2.472468
      2.461288     2.450109     2.438930     2.427750     2.416571     2.405391     2.394212     2.383032     2.371853     2.360673
      2.349494     2.338315     2.327135     2.315956     2.304776     2.293597     2.282417     2.271238     2.260058     2.248879
      2.237700     2.226520     2.215341     2.204161     2.192982     2.181802     2.170623     2.159443     2.148264     2.137084
      2.125905     2.114726     2.103546     2.092367     2.081187     2.070008     2.058828     2.047649     2.036469     2.025290
      2.014111     2.002931     1.991752     1.980572     1.969393     1.958213     1.947034     1.935854     1.924675     1.913496
      1.902316     1.891137     1.879957     1.868778     1.857598     1.846419     1.835239     1.824060     1.812881     1.801701
      1.790522     1.779342     1.768163     1.756983     1.745804     1.734624     1.723445     1.712265     1.701086     1.689907
      1.678727     1.667548     1.656368     1.645189     1.634009     1.622830     1.611650     1.600471     1.589292     1.578112
      1.566933     1.555753     1.544574     1.533394     1.522215     1.511035     1.499856     1.488677     1.477497     1.466318
      1.455138     1.443959     1.432779     1.421600     1.410420     1.399241     1.388062     1.376882     1.365703     1.354523
      1.343344     1.332164     1.320985     1.309805     1.298626     1.287446     1.276267     1.265088     1.253908     1.242729
      1.231549     1.220370     1.209190     1.198011     1.186831     1.175652     1.164473     1.153293     1.142114     1.130934
      1.119755     1.108575     1.097396     1.086216     1.075037     1.063858     1.052678     1.041499     1.030319     1.019140
      1.007960     0.996781     0.985601     0.974422     0.963243     0.952063     0.940884     0.929704     0.918525     0.907345
      0.896166     0.884986     0.873807     0.862628     0.851448     0.840269     0.829089     0.817910     0.806730     0.795551
      0.784371     0.773192     0.762012     0.750833     0.739654     0.728474     0.717295     0.706115     0.694936     0.683756
      0.672577     0.661397     0.650218     0.639039     0.627859     0.616680     0.605500     0.594321     0.583141     0.571962
      0.560782     0.549603     0.538424     0.527244     0.516065     0.504885     0.493706     0.482526     0.471347     0.460167
      0.448988     0.437809     0.426629     0.415450     0.404270     0.393091     0.381911     0.370732     0.359552     0.348373
      0.337193     0.326014     0.314835     0.303655     0.292476     0.281296     0.270117     0.258937     0.247758     0.236578
      0.225399     0.214220     0.203040
 NY phased data points follow
   3.50400E-10  1.94156E-09  5.37272E-09  7.00650E-09  8.88559E-09  7.58584E-09  6.71695E-09  5.84935E-09  5.26566E-09  4.32352E-09
   4.27950E-09  3.61242E-09  4.29130E-09  3.73780E-09  4.81469E-09  5.21284E-09  5.27166E-09  6.43147E-09  6.75025E-09  5.85665E-09
   6.53376E-09  5.73350E-09  7.08765E-09  6.03996E-09  4.96546E-09  5.35799E-09  6.56173E-09  6.82592E-09  7.83264E-09  7.48366E-09
   6.89411E-09  5.99465E-09  6.75160E-09  6.95125E-09  1.01329E-08  1.01912E-08  1.10108E-08  9.32845E-09  9.59187E-09  7.39031E-09
   6.66904E-09  6.04814E-09  6.63931E-09  5.04351E-09  5.15427E-09  5.81636E-09  5.02664E-09  3.42606E-09  5.32516E-09  3.87150E-09
   3.88097E-09  3.18844E-09  3.79462E-09  3.89065E-09  4.72540E-09  4.15482E-09  4.33401E-09  2.67123E-09  3.19946E-09  3.61234E-09
   2.80338E-09  2.66045E-09  4.55139E-09  4.94672E-09  6.67538E-09  9.77081E-09  1.41301E-08  1.29394E-08  1.12968E-08  8.68893E-09
   7.60137E-09  6.45008E-09  6.19152E-09  5.12713E-09  4.41182E-09  3.19517E-09  4.12538E-09  3.22374E-09  2.97807E-09  3.95169E-09
   5.63262E-09  8.12281E-09  1.21572E-08  1.40773E-08  1.38334E-08  1.08995E-08  9.79190E-09  8.42105E-09  8.72323E-09  7.60486E-09
   6.95565E-09  6.48592E-09  6.46264E-09  6.00759E-09  5.49488E-09  4.69063E-09  5.20966E-09  4.03074E-09  4.47772E-09  3.46572E-09
   3.62938E-09  3.18641E-09  3.97126E-09  3.59431E-09  3.33684E-09  4.64854E-09  3.83638E-09  3.42071E-09  4.22176E-09  3.61509E-09
   3.71081E-09  2.69331E-09  2.45375E-09  2.25309E-09  2.51464E-09  2.61065E-09  3.43728E-09  3.79304E-09  3.90133E-09  3.69364E-09
   4.02618E-09  3.92170E-09  4.35839E-09  3.42376E-09  3.51798E-09  3.10144E-09  1.86831E-09  2.22014E-09  1.89920E-09  2.04833E-09
   2.84542E-09  3.38573E-09  2.64821E-09  2.36796E-09  3.07125E-09  2.61463E-09  2.51947E-09  2.46623E-09  2.41886E-09  2.11855E-09
   2.27910E-09  2.99100E-09  4.04185E-09  4.66459E-09  4.47898E-09  3.49881E-09  3.86840E-09  3.78500E-09  5.01829E-09  4.01341E-09
   5.08521E-09  4.05708E-09  3.99336E-09  4.15640E-09  4.06605E-09  3.60305E-09  3.96527E-09  3.44324E-09  4.11396E-09  4.14559E-09
   4.46371E-09  4.52537E-09  5.24789E-09  5.01684E-09  4.97934E-09  4.49282E-09  5.24243E-09  5.92531E-09  6.58007E-09  7.77015E-09
   9.42777E-09  1.07503E-08  1.32034E-08  1.65309E-08  1.69822E-08  1.31396E-08  9.17527E-09  6.23376E-09  5.37428E-09  4.01445E-09
   3.78448E-09  2.13357E-09  2.23375E-09  1.03291E-09  1.35720E-09  6.18119E-10 -1.49067E-10 -3.34813E-10 -7.87194E-10 -1.04906E-09
  -1.61057E-09 -2.50662E-09 -2.85555E-09 -3.44932E-09 -4.46828E-09 -5.22616E-09 -5.81027E-09 -7.00097E-09 -7.33715E-09 -8.14795E-09
  -9.62240E-09 -9.68373E-09 -9.64100E-09 -1.04090E-08 -1.02431E-08 -1.05396E-08 -9.81486E-09 -1.01173E-08 -9.13356E-09 -9.35590E-09
  -8.31190E-09 -7.29505E-09 -6.68553E-09 -5.06399E-09 -4.98082E-09 -3.65192E-09 -2.67800E-09 -2.01599E-09 -2.57377E-09 -1.02082E-09
  -2.36333E-09 -1.21050E-09 -2.30209E-09 -2.33184E-09 -2.06550E-09 -2.81559E-09 -1.89143E-09 -1.61266E-09 -1.85777E-09 -1.75390E-09
  -1.58326E-09 -1.90722E-09 -1.58979E-09 -2.10375E-09 -1.98956E-09 -2.46683E-09 -1.94960E-09 -2.31904E-09 -1.62032E-09 -1.46997E-09
  -1.36772E-09 -1.29140E-09 -1.58482E-09 -1.52095E-09 -1.75472E-09 -2.09079E-09 -1.80645E-09 -1.73249E-09 -1.83118E-09 -1.74819E-09
  -1.67195E-09 -1.14823E-09 -1.26154E-09 -8.21489E-10 -9.03049E-10 -1.23029E-09 -1.06392E-09 -9.20328E-10 -1.36035E-09 -2.04715E-09
  -1.82289E-09 -1.91853E-09 -1.86989E-09 -2.44764E-09 -2.30714E-09 -1.62906E-09 -1.13417E-09 -1.51628E-09 -7.97462E-10 -1.38658E-09
  -1.98089E-11 -2.18186E-10 -5.40249E-10 -5.79197E-10 -5.04607E-10 -2.36856E-10 -3.28713E-10 -1.74675E-09 -7.91771E-10 -1.25414E-09
  -1.77174E-09 -1.56432E-09 -1.89893E-09 -1.44240E-09 -1.86420E-09 -1.55204E-09 -1.32238E-09 -1.69989E-09 -1.06073E-09 -1.42518E-09
  -9.09501E-10 -1.00196E-09 -1.34037E-09 -1.42617E-09 -1.03532E-09 -8.83487E-10 -8.11160E-10 -9.75401E-10 -9.41647E-10 -1.50100E-09
  -1.33591E-09 -8.21278E-10 -9.11207E-10 -1.39953E-09 -8.31757E-10 -7.66812E-10 -9.10850E-10 -9.54700E-10 -1.31365E-09 -4.92237E-10
  -1.13770E-09 -1.34739E-09 -6.14326E-10 -7.89350E-10 -6.63816E-10 -6.38735E-10 -6.12167E-10 -8.85751E-10 -1.08909E-11 -1.15011E-09
  -1.59669E-10 -8.16729E-10 -5.91762E-10 -2.51578E-10 -1.00174E-09 -2.44010E-10 -3.47095E-10 -6.18239E-10 -4.54848E-10 -8.01804E-10
  -4.05311E-11 -2.90918E-10 -8.70095E-10 -7.08944E-10 -4.43875E-10 -8.59454E-10 -4.93978E-10 -5.13559E-10 -5.73975E-10 -5.11824E-10
  -4.73858E-11 -1.98837E-10 -2.00501E-10 -4.65340E-10 -5.12124E-10 -5.08580E-11 -3.06650E-10 -9.97262E-10 -9.90819E-12 -6.19961E-10
  -1.86903E-10 -1.71536E-10 -1.97531E-10  4.52929E-11 -1.28511E-10 -7.57610E-11  9.16754E-11 -4.50304E-11 -1.40429E-10  2.23229E-10
   3.53131E-11 -6.13746E-10 -2.17894E-11
 NY points of the fit to the data follow
   4.11115E-09  4.63045E-09  5.18052E-09  5.69717E-09  6.07351E-09  6.18741E-09  5.98578E-09  5.53987E-09  5.09621E-09  4.62526E-09
   4.32292E-09  4.22682E-09  4.25846E-09  4.36222E-09  4.62215E-09  4.95172E-09  5.29506E-09  5.70966E-09  6.18543E-09  6.65958E-09
   7.11142E-09  7.27491E-09  6.97502E-09  6.42500E-09  5.83975E-09  5.37413E-09  5.22329E-09  5.59812E-09  6.31814E-09  7.12626E-09
   7.52622E-09  7.62815E-09  7.83725E-09  8.07826E-09  8.28937E-09  8.68264E-09  9.07274E-09  9.37014E-09  9.31136E-09  8.67946E-09
   7.81448E-09  7.15071E-09  6.12182E-09  5.04984E-09  4.50968E-09  3.97525E-09  3.46870E-09  3.34622E-09  3.42699E-09  3.55699E-09
   3.65458E-09  3.64576E-09  3.58373E-09  3.52796E-09  3.56180E-09  3.69202E-09  3.84578E-09  3.98270E-09  4.01750E-09  3.97548E-09
   4.07903E-09  4.52783E-09  5.18746E-09  5.92421E-09  6.98995E-09  8.03642E-09  8.92089E-09  9.63988E-09  1.00612E-08  1.01555E-08
   9.90630E-09  9.04511E-09  7.66619E-09  6.55689E-09  5.62305E-09  4.59513E-09  4.33631E-09  4.81587E-09  5.34325E-09  6.22917E-09
   7.39299E-09  8.87765E-09  1.07772E-08  1.23158E-08  1.25946E-08  1.16524E-08  1.01382E-08  8.58098E-09  7.22270E-09  6.85788E-09
   6.68537E-09  6.67194E-09  6.56445E-09  6.04847E-09  5.62868E-09  5.31000E-09  4.74436E-09  4.29076E-09  4.01635E-09  3.74645E-09
   3.57027E-09  3.47120E-09  3.42944E-09  3.44940E-09  3.50564E-09  3.57737E-09  3.62418E-09  3.63056E-09  3.61755E-09  3.59375E-09
   3.53122E-09  3.43603E-09  3.37573E-09  3.30602E-09  3.23843E-09  3.22579E-09  3.23050E-09  3.24214E-09  3.25716E-09  3.27392E-09
   3.29154E-09  3.30945E-09  3.32720E-09  3.34449E-09  3.36106E-09  3.37672E-09  3.39127E-09  3.40458E-09  3.41651E-09  3.42692E-09
   3.43569E-09  3.44272E-09  3.44791E-09  3.45114E-09  3.45232E-09  3.45134E-09  3.44812E-09  3.44258E-09  3.43465E-09  3.42425E-09
   3.41128E-09  3.39565E-09  3.37724E-09  3.35595E-09  3.33169E-09  3.30438E-09  3.27393E-09  3.24027E-09  3.20334E-09  3.16308E-09
   3.11950E-09  3.07259E-09  3.02240E-09  2.96902E-09  2.91261E-09  2.85342E-09  2.79182E-09  2.72837E-09  2.66392E-09  2.59976E-09
   2.53791E-09  2.48170E-09  2.43695E-09  2.41482E-09  2.44047E-09  2.58802E-09  3.18653E-09  4.45913E-09  6.00952E-09  7.74149E-09
   9.86185E-09  1.25646E-08  1.54114E-08  1.70464E-08  1.62699E-08  1.32720E-08  9.25930E-09  5.13070E-09  1.88334E-09  3.74471E-10
  -2.41245E-10 -6.20359E-10 -9.11053E-10 -1.15849E-09 -1.38091E-09 -1.58694E-09 -1.78100E-09 -1.96546E-09 -2.14158E-09 -2.31001E-09
  -2.47100E-09 -2.62456E-09 -2.77055E-09 -2.90870E-09 -3.03871E-09 -3.16020E-09 -3.27290E-09 -3.37699E-09 -3.47273E-09 -3.56037E-09
  -3.64011E-09 -3.71220E-09 -3.77682E-09 -3.83421E-09 -3.88455E-09 -3.92805E-09 -3.96490E-09 -3.99529E-09 -4.01943E-09 -4.03749E-09
  -4.04967E-09 -4.05615E-09 -4.05713E-09 -4.05279E-09 -4.04331E-09 -4.02889E-09 -4.00970E-09 -3.98593E-09 -3.95777E-09 -3.92539E-09
  -3.88899E-09 -3.84875E-09 -3.80484E-09 -3.75746E-09 -3.70680E-09 -3.65308E-09 -3.59651E-09 -3.53732E-09 -3.47573E-09 -3.41195E-09
  -3.34621E-09 -3.27873E-09 -3.20974E-09 -3.13944E-09 -3.06806E-09 -2.99582E-09 -2.92293E-09 -2.84964E-09 -2.77613E-09 -2.70265E-09
  -2.62941E-09 -2.55663E-09 -2.48453E-09 -2.41333E-09 -2.34325E-09 -2.27451E-09 -2.20732E-09 -2.14192E-09 -2.07852E-09 -2.01734E-09
  -1.95859E-09 -1.90251E-09 -1.84918E-09 -1.79851E-09 -1.75043E-09 -1.70484E-09 -1.66166E-09 -1.62080E-09 -1.58216E-09 -1.54567E-09
  -1.51122E-09 -1.47874E-09 -1.44813E-09 -1.41930E-09 -1.39218E-09 -1.36666E-09 -1.34264E-09 -1.32007E-09 -1.29884E-09 -1.27886E-09
  -1.26004E-09 -1.24230E-09 -1.22554E-09 -1.20967E-09 -1.19462E-09 -1.18028E-09 -1.16658E-09 -1.15342E-09 -1.14071E-09 -1.12836E-09
  -1.11633E-09 -1.10460E-09 -1.09313E-09 -1.08191E-09 -1.07094E-09 -1.06017E-09 -1.04959E-09 -1.03919E-09 -1.02894E-09 -1.01883E-09
  -1.00882E-09 -9.98911E-10 -9.89074E-10 -9.79289E-10 -9.69539E-10 -9.59801E-10 -9.50057E-10 -9.40286E-10 -9.30472E-10 -9.20585E-10
  -9.10618E-10 -9.00541E-10 -8.90337E-10 -8.79992E-10 -8.69479E-10 -8.58779E-10 -8.47876E-10 -8.36744E-10 -8.25388E-10 -8.13812E-10
  -8.02025E-10 -7.90034E-10 -7.77849E-10 -7.65472E-10 -7.52915E-10 -7.40184E-10 -7.27288E-10 -7.14232E-10 -7.01027E-10 -6.87676E-10
  -6.74194E-10 -6.60580E-10 -6.46844E-10 -6.33000E-10 -6.19046E-10 -6.04998E-10 -5.90858E-10 -5.76634E-10 -5.62337E-10 -5.47975E-10
  -5.33549E-10 -5.19072E-10 -5.04550E-10 -4.89992E-10 -4.75405E-10 -4.60793E-10 -4.46161E-10 -4.31511E-10 -4.16840E-10 -4.02151E-10
  -3.87444E-10 -3.72718E-10 -3.57974E-10 -3.43213E-10 -3.28438E-10 -3.13643E-10 -2.98835E-10 -2.84012E-10 -2.69174E-10 -2.54322E-10
  -2.39455E-10 -2.24576E-10 -2.09684E-10 -1.94780E-10 -1.79864E-10 -1.64938E-10 -1.50001E-10 -1.35051E-10 -1.20092E-10 -1.05126E-10
  -9.01504E-11 -7.51676E-11 -6.01733E-11
 NY background values follow
    -5.757E-10   -5.411E-10   -5.066E-10   -4.722E-10   -4.379E-10   -4.038E-10   -3.698E-10   -3.360E-10   -3.024E-10   -2.691E-10
    -2.361E-10   -2.033E-10   -1.708E-10   -1.387E-10   -1.070E-10   -7.564E-11   -4.471E-11   -1.422E-11    1.581E-11    4.534E-11
     7.436E-11    1.028E-10    1.308E-10    1.581E-10    1.848E-10    2.109E-10    2.363E-10    2.610E-10    2.850E-10    3.083E-10
     3.309E-10    3.528E-10    3.741E-10    3.947E-10    4.148E-10    4.343E-10    4.533E-10    4.718E-10    4.898E-10    5.073E-10
     5.245E-10    5.412E-10    5.576E-10    5.737E-10    5.894E-10    6.049E-10    6.201E-10    6.351E-10    6.500E-10    6.646E-10
     6.792E-10    6.936E-10    7.079E-10    7.222E-10    7.365E-10    7.508E-10    7.651E-10    7.795E-10    7.940E-10    8.086E-10
     8.234E-10    8.385E-10    8.537E-10    8.693E-10    8.852E-10    9.014E-10    9.180E-10    9.350E-10    9.525E-10    9.705E-10
     9.891E-10    1.008E-09    1.028E-09    1.048E-09    1.069E-09    1.091E-09    1.113E-09    1.137E-09    1.161E-09    1.186E-09
     1.212E-09    1.238E-09    1.266E-09    1.295E-09    1.325E-09    1.355E-09    1.387E-09    1.420E-09    1.453E-09    1.488E-09
     1.523E-09    1.558E-09    1.595E-09    1.632E-09    1.669E-09    1.707E-09    1.745E-09    1.783E-09    1.822E-09    1.861E-09
     1.900E-09    1.939E-09    1.978E-09    2.017E-09    2.056E-09    2.095E-09    2.134E-09    2.172E-09    2.210E-09    2.248E-09
     2.285E-09    2.321E-09    2.357E-09    2.392E-09    2.427E-09    2.461E-09    2.494E-09    2.525E-09    2.556E-09    2.586E-09
     2.614E-09    2.641E-09    2.667E-09    2.691E-09    2.714E-09    2.735E-09    2.754E-09    2.772E-09    2.787E-09    2.801E-09
     2.812E-09    2.822E-09    2.829E-09    2.834E-09    2.836E-09    2.836E-09    2.834E-09    2.828E-09    2.821E-09    2.810E-09
     2.796E-09    2.780E-09    2.760E-09    2.737E-09    2.711E-09    2.681E-09    2.647E-09    2.610E-09    2.569E-09    2.524E-09
     2.475E-09    2.421E-09    2.363E-09    2.301E-09    2.234E-09    2.162E-09    2.085E-09    2.003E-09    1.917E-09    1.824E-09
     1.727E-09    1.624E-09    1.515E-09    1.400E-09    1.280E-09    1.154E-09    1.021E-09    8.821E-10    7.369E-10    5.857E-10
     4.292E-10    2.678E-10    1.020E-10   -6.754E-11   -2.403E-10   -4.159E-10   -5.936E-10   -7.731E-10   -9.536E-10   -1.135E-09
    -1.316E-09   -1.497E-09   -1.677E-09   -1.855E-09   -2.031E-09   -2.205E-09   -2.375E-09   -2.542E-09   -2.705E-09   -2.863E-09
    -3.016E-09   -3.162E-09   -3.303E-09   -3.437E-09   -3.563E-09   -3.682E-09   -3.792E-09   -3.894E-09   -3.988E-09   -4.074E-09
    -4.153E-09   -4.224E-09   -4.287E-09   -4.344E-09   -4.394E-09   -4.436E-09   -4.473E-09   -4.503E-09   -4.527E-09   -4.544E-09
    -4.556E-09   -4.562E-09   -4.563E-09   -4.559E-09   -4.549E-09   -4.535E-09   -4.515E-09   -4.492E-09   -4.463E-09   -4.431E-09
    -4.394E-09   -4.354E-09   -4.310E-09   -4.263E-09   -4.212E-09   -4.159E-09   -4.102E-09   -4.043E-09   -3.981E-09   -3.917E-09
    -3.852E-09   -3.784E-09   -3.715E-09   -3.645E-09   -3.574E-09   -3.502E-09   -3.429E-09   -3.355E-09   -3.282E-09   -3.209E-09
    -3.135E-09   -3.063E-09   -2.991E-09   -2.919E-09   -2.849E-09   -2.781E-09   -2.713E-09   -2.648E-09   -2.585E-09   -2.524E-09
    -2.465E-09   -2.409E-09   -2.356E-09   -2.305E-09   -2.257E-09   -2.211E-09   -2.168E-09   -2.127E-09   -2.089E-09   -2.052E-09
    -2.018E-09   -1.985E-09   -1.955E-09   -1.926E-09   -1.899E-09   -1.873E-09   -1.849E-09   -1.827E-09   -1.806E-09   -1.786E-09
    -1.767E-09   -1.749E-09   -1.732E-09   -1.716E-09   -1.701E-09   -1.687E-09   -1.673E-09   -1.660E-09   -1.647E-09   -1.635E-09
    -1.623E-09   -1.611E-09   -1.600E-09   -1.589E-09   -1.578E-09   -1.567E-09   -1.556E-09   -1.546E-09   -1.536E-09   -1.525E-09
    -1.515E-09   -1.505E-09   -1.496E-09   -1.486E-09   -1.476E-09   -1.466E-09   -1.456E-09   -1.447E-09   -1.437E-09   -1.427E-09
    -1.417E-09   -1.407E-09   -1.396E-09   -1.386E-09   -1.375E-09   -1.365E-09   -1.354E-09   -1.343E-09   -1.331E-09   -1.320E-09
    -1.308E-09   -1.296E-09   -1.283E-09   -1.271E-09   -1.258E-09   -1.246E-09   -1.233E-09   -1.219E-09   -1.206E-09   -1.193E-09
    -1.179E-09   -1.165E-09   -1.152E-09   -1.138E-09   -1.124E-09   -1.110E-09   -1.095E-09   -1.081E-09   -1.067E-09   -1.052E-09
    -1.038E-09   -1.023E-09   -1.008E-09   -9.938E-10   -9.791E-10   -9.644E-10   -9.497E-10   -9.349E-10   -9.202E-10   -9.054E-10
    -8.905E-10   -8.757E-10   -8.608E-10   -8.460E-10   -8.311E-10   -8.161E-10   -8.012E-10   -7.863E-10   -7.713E-10   -7.563E-10
    -7.413E-10   -7.263E-10   -7.113E-10   -6.962E-10   -6.812E-10   -6.661E-10   -6.510E-10   -6.359E-10   -6.208E-10   -6.057E-10
    -5.906E-10   -5.754E-10   -5.603E-10
 Ala      Conc. = 1.15E-10
  -4.97082E-10 -4.52758E-10 -4.08853E-10 -3.69063E-10 -3.34473E-10 -3.00218E-10 -2.67148E-10 -2.43708E-10 -2.21562E-10 -1.94500E-10
  -1.74873E-10 -1.55562E-10 -1.30029E-10 -1.05870E-10 -8.11586E-11 -5.40047E-11 -2.58306E-11  2.71613E-12  3.13081E-11  5.97515E-11
   8.79184E-11  1.15720E-10  1.43083E-10  1.69958E-10  1.96299E-10  2.22057E-10  2.47203E-10  2.71704E-10  2.95523E-10  3.18646E-10
   3.41090E-10  3.62883E-10  3.84047E-10  4.04611E-10  4.24600E-10  4.44041E-10  4.62961E-10  4.81387E-10  4.99347E-10  5.16870E-10
   5.33981E-10  5.50710E-10  5.67083E-10  5.83131E-10  5.98877E-10  6.14355E-10  6.29590E-10  6.44608E-10  6.59443E-10  6.74120E-10
   6.88665E-10  7.03112E-10  7.17484E-10  7.31813E-10  7.46122E-10  7.60448E-10  7.74815E-10  7.89254E-10  8.03800E-10  8.18490E-10
   8.33359E-10  8.48445E-10  8.63784E-10  8.79410E-10  8.95360E-10  9.11673E-10  9.28382E-10  9.45525E-10  9.63138E-10  9.81258E-10
   9.99922E-10  1.01917E-09  1.03903E-09  1.05954E-09  1.08075E-09  1.10269E-09  1.12539E-09  1.14890E-09  1.17326E-09  1.19850E-09
   1.22466E-09  1.25178E-09  1.27992E-09  1.30910E-09  1.33937E-09  1.37074E-09  1.40315E-09  1.43658E-09  1.47097E-09  1.50631E-09
   1.54257E-09  1.57975E-09  1.61786E-09  1.65697E-09  1.69718E-09  1.73871E-09  1.78200E-09  1.82793E-09  1.87864E-09  1.94099E-09
   2.02579E-09  2.10700E-09  2.19711E-09  2.31787E-09  2.45364E-09  2.58948E-09  2.68856E-09  2.73814E-09  2.76143E-09  2.76861E-09
   2.73309E-09  2.66151E-09  2.62172E-09  2.56988E-09  2.51788E-09  2.51888E-09  2.53575E-09  2.55827E-09  2.58303E-09  2.60851E-09
   2.63391E-09  2.65876E-09  2.68274E-09  2.70561E-09  2.72718E-09  2.74732E-09  2.76588E-09  2.78276E-09  2.79784E-09  2.81103E-09
   2.82222E-09  2.83132E-09  2.83824E-09  2.84289E-09  2.84519E-09  2.84504E-09  2.84237E-09  2.83708E-09  2.82909E-09  2.81832E-09
   2.80467E-09  2.78804E-09  2.76830E-09  2.74532E-09  2.71897E-09  2.68914E-09  2.65568E-09  2.61849E-09  2.57742E-09  2.53235E-09
   2.48317E-09  2.42974E-09  2.37194E-09  2.30965E-09  2.24274E-09  2.17110E-09  2.09461E-09  2.01315E-09  1.92662E-09  1.83490E-09
   1.73790E-09  1.63556E-09  1.52786E-09  1.41482E-09  1.29674E-09  1.17459E-09  1.05300E-09  9.42754E-10  8.27816E-10  7.10188E-10
   5.94046E-10  4.85451E-10  3.79076E-10  2.46289E-10  6.10620E-11 -1.71253E-10 -4.21058E-10 -6.72622E-10 -9.14599E-10 -1.11243E-09
  -1.29990E-09 -1.48382E-09 -1.66545E-09 -1.84490E-09 -2.02192E-09 -2.19612E-09 -2.36706E-09 -2.53425E-09 -2.69718E-09 -2.85533E-09
  -3.00821E-09 -3.15528E-09 -3.29602E-09 -3.42988E-09 -3.55635E-09 -3.67491E-09 -3.78517E-09 -3.88721E-09 -3.98122E-09 -4.06739E-09
  -4.14589E-09 -4.21692E-09 -4.28065E-09 -4.33726E-09 -4.38695E-09 -4.42988E-09 -4.46625E-09 -4.49623E-09 -4.52001E-09 -4.53777E-09
  -4.54969E-09 -4.55596E-09 -4.55675E-09 -4.55226E-09 -4.54265E-09 -4.52813E-09 -4.50885E-09 -4.48501E-09 -4.45680E-09 -4.42439E-09
  -4.38796E-09 -4.34769E-09 -4.30378E-09 -4.25640E-09 -4.20574E-09 -4.15203E-09 -4.09548E-09 -4.03631E-09 -3.97474E-09 -3.91099E-09
  -3.84528E-09 -3.77784E-09 -3.70888E-09 -3.63862E-09 -3.56727E-09 -3.49507E-09 -3.42223E-09 -3.34897E-09 -3.27550E-09 -3.20207E-09
  -3.12887E-09 -3.05613E-09 -2.98407E-09 -2.91291E-09 -2.84287E-09 -2.77417E-09 -2.70702E-09 -2.64165E-09 -2.57829E-09 -2.51715E-09
  -2.45843E-09 -2.40239E-09 -2.34908E-09 -2.29845E-09 -2.25040E-09 -2.20484E-09 -2.16169E-09 -2.12085E-09 -2.08224E-09 -2.04577E-09
  -2.01135E-09 -1.97888E-09 -1.94829E-09 -1.91948E-09 -1.89237E-09 -1.86687E-09 -1.84286E-09 -1.82031E-09 -1.79909E-09 -1.77912E-09
  -1.76030E-09 -1.74257E-09 -1.72581E-09 -1.70995E-09 -1.69490E-09 -1.68056E-09 -1.66685E-09 -1.65369E-09 -1.64098E-09 -1.62862E-09
  -1.61658E-09 -1.60483E-09 -1.59336E-09 -1.58213E-09 -1.57113E-09 -1.56035E-09 -1.54976E-09 -1.53933E-09 -1.52906E-09 -1.51892E-09
  -1.50890E-09 -1.49896E-09 -1.48909E-09 -1.47928E-09 -1.46950E-09 -1.45973E-09 -1.44995E-09 -1.44014E-09 -1.43029E-09 -1.42036E-09
  -1.41036E-09 -1.40024E-09 -1.38999E-09 -1.37960E-09 -1.36904E-09 -1.35829E-09 -1.34733E-09 -1.33615E-09 -1.32474E-09 -1.31310E-09
  -1.30126E-09 -1.28921E-09 -1.27696E-09 -1.26452E-09 -1.25190E-09 -1.23910E-09 -1.22614E-09 -1.21301E-09 -1.19974E-09 -1.18631E-09
  -1.17275E-09 -1.15906E-09 -1.14525E-09 -1.13132E-09 -1.11729E-09 -1.10316E-09 -1.08893E-09 -1.07462E-09 -1.06023E-09 -1.04578E-09
  -1.03126E-09 -1.01669E-09 -1.00207E-09 -9.87415E-10 -9.72729E-10 -9.58015E-10 -9.43279E-10 -9.28523E-10 -9.13745E-10 -8.98946E-10
  -8.84128E-10 -8.69288E-10 -8.54430E-10 -8.39552E-10 -8.24657E-10 -8.09742E-10 -7.94812E-10 -7.79864E-10 -7.64899E-10 -7.49918E-10
  -7.34920E-10 -7.19909E-10 -7.04882E-10 -6.89841E-10 -6.74786E-10 -6.59719E-10 -6.44638E-10 -6.29544E-10 -6.14437E-10 -5.99322E-10
  -5.84195E-10 -5.69058E-10 -5.53908E-10
 Asp      Conc. = 3.71E-10
  -1.14881E-10 -1.23659E-10 -1.36906E-10 -1.66863E-10 -1.97622E-10 -2.33485E-10 -2.51910E-10 -2.59282E-10 -2.44921E-10 -2.22222E-10
  -1.95435E-10 -1.66441E-10 -1.36269E-10 -1.05458E-10 -7.46192E-11 -4.39167E-11 -1.33556E-11  1.70019E-11  4.71022E-11  7.68981E-11
   1.06350E-10  1.35428E-10  1.64103E-10  1.92363E-10  2.20198E-10  2.47595E-10  2.74567E-10  3.01131E-10  3.27315E-10  3.53184E-10
   3.78872E-10  4.04564E-10  4.30524E-10  4.57163E-10  4.85191E-10  5.16067E-10  5.53223E-10  5.92227E-10  6.37582E-10  6.82248E-10
   7.28443E-10  7.75889E-10  8.22229E-10  8.66714E-10  9.01818E-10  9.44873E-10  9.85618E-10  1.04986E-09  1.16699E-09  1.29746E-09
   1.40997E-09  1.44852E-09  1.40539E-09  1.31841E-09  1.23502E-09  1.17409E-09  1.11159E-09  1.09008E-09  1.05520E-09  1.00279E-09
   9.88800E-10  1.00228E-09  1.01482E-09  1.02388E-09  1.02923E-09  1.02528E-09  1.01212E-09  1.01162E-09  1.01779E-09  1.02777E-09
   1.04030E-09  1.05475E-09  1.07074E-09  1.08806E-09  1.10658E-09  1.12622E-09  1.14693E-09  1.16867E-09  1.19145E-09  1.21525E-09
   1.24009E-09  1.26598E-09  1.29293E-09  1.32097E-09  1.35011E-09  1.38035E-09  1.41162E-09  1.44384E-09  1.47695E-09  1.51089E-09
   1.54559E-09  1.58099E-09  1.61703E-09  1.65364E-09  1.69077E-09  1.72834E-09  1.76631E-09  1.80460E-09  1.84315E-09  1.88192E-09
   1.92083E-09  1.95982E-09  1.99883E-09  2.03781E-09  2.07669E-09  2.11541E-09  2.15391E-09  2.19214E-09  2.23003E-09  2.26752E-09
   2.30455E-09  2.34106E-09  2.37699E-09  2.41227E-09  2.44681E-09  2.48054E-09  2.51337E-09  2.54521E-09  2.57599E-09  2.60563E-09
   2.63403E-09  2.66112E-09  2.68682E-09  2.71103E-09  2.73369E-09  2.75471E-09  2.77401E-09  2.79150E-09  2.80710E-09  2.82073E-09
   2.83231E-09  2.84175E-09  2.84898E-09  2.85391E-09  2.85646E-09  2.85655E-09  2.85409E-09  2.84901E-09  2.84122E-09  2.83065E-09
   2.81719E-09  2.80076E-09  2.78121E-09  2.75843E-09  2.73229E-09  2.70267E-09  2.66945E-09  2.63249E-09  2.59169E-09  2.54691E-09
   2.49804E-09  2.44495E-09  2.38754E-09  2.32569E-09  2.25928E-09  2.18821E-09  2.11239E-09  2.03172E-09  1.94613E-09  1.85557E-09
   1.76002E-09  1.65953E-09  1.55430E-09  1.44471E-09  1.33184E-09  1.21861E-09  1.11692E-09  1.06830E-09  1.02086E-09  9.76719E-10
   9.47196E-10  9.52147E-10  9.80405E-10  9.42063E-10  7.44653E-10  3.93350E-10 -1.73171E-11 -4.32365E-10 -8.24381E-10 -1.06867E-09
  -1.27157E-09 -1.46269E-09 -1.64831E-09 -1.83020E-09 -2.00881E-09 -2.18410E-09 -2.35581E-09 -2.52355E-09 -2.68689E-09 -2.84536E-09
  -2.99847E-09 -3.14572E-09 -3.28660E-09 -3.42057E-09 -3.54713E-09 -3.66575E-09 -3.77606E-09 -3.87814E-09 -3.97218E-09 -4.05837E-09
  -4.13689E-09 -4.20793E-09 -4.27166E-09 -4.32828E-09 -4.37797E-09 -4.42090E-09 -4.45726E-09 -4.48724E-09 -4.51102E-09 -4.52877E-09
  -4.54069E-09 -4.54695E-09 -4.54773E-09 -4.54323E-09 -4.53361E-09 -4.51908E-09 -4.49979E-09 -4.47594E-09 -4.44772E-09 -4.41530E-09
  -4.37886E-09 -4.33859E-09 -4.29466E-09 -4.24727E-09 -4.19661E-09 -4.14289E-09 -4.08633E-09 -4.02715E-09 -3.96557E-09 -3.90181E-09
