 LCModel (Version 6.3-1R) Copyright: S.W. Provencher.          Ref.: Magn. Reson. Med. 30:672-679 (1993).                
 onepulse 22x19_ftSpec_smooth_lcm
 26 lines in following concentration table = NCONC+1
    Conc.  %SD   /Cr    Metabolite                                         
 4.92E-11 380%   0.000 Ala                                                 
 5.57E-10  69%   0.000 Asp                                                 
    0.000 999%   0.000 Cr                                                  
 2.69E-09  14%   0.000 GABA                                                
 1.69E-09  18%   0.000 Glc                                                 
    0.000 999%   0.000 Gln                                                 
 4.51E-10  87%   0.000 Glu                                                 
    0.000 999%   0.000 Glyc                                                
    0.000 999%   0.000 GPC                                                 
 1.19E-10 175%   0.000 GSH                                                 
 2.10E-10 103%   0.000 Ins                                                 
    0.000 999%   0.000 Lac                                                 
    0.000 999%   0.000 NAAG                                                
 9.79E-10  17%   0.000 NAA                                                 
 1.03E-10  51%   0.000 PCh                                                 
    0.000 999%   0.000 PCr                                                 
    0.000 999%   0.000 PE                                                  
    0.000 999%   0.000 Scyllo                                              
    0.000 999%   0.000 Ser                                                 
    0.000 999%   0.000 Tau                                                 
 1.03E-10  51%   0.000 GPC+PCh                                             
 9.79E-10  17%   0.000 NAA+NAAG                                            
 2.10E-10 103%   0.000 Ins+Glyc                                            
    0.000 999%   0.000 Cr+PCr                                              
 4.51E-10  87%   0.000 Glu+Gln                                             
   6 lines in following misc. output table
  FWHM = 0.067 ppm    S/N =   4                                            
  Data shift = 0.324 ppm                                                   
  Ph:  40 deg      28.1 deg/ppm                                            
  alphaB,S = 1.7E-01,   7.9E+01                                            
   16 spline knots.   Ns = 5(1)                                            
  ( 9) 2 infls.   ( 3) 1 extrs.                                            
  363 points on ppm-axis = NY
      4.250000     4.238821     4.227641     4.216462     4.205282     4.194103     4.182923     4.171744     4.160564     4.149385
      4.138206     4.127026     4.115847     4.104667     4.093488     4.082308     4.071129     4.059949     4.048770     4.037591
      4.026411     4.015232     4.004052     3.992873     3.981693     3.970514     3.959334     3.948155     3.936975     3.925796
      3.914617     3.903437     3.892258     3.881078     3.869899     3.858719     3.847540     3.836360     3.825181     3.814002
      3.802822     3.791643     3.780463     3.769284     3.758104     3.746925     3.735745     3.724566     3.713387     3.702207
      3.691028     3.679848     3.668669     3.657489     3.646310     3.635130     3.623951     3.612772     3.601592     3.590413
      3.579233     3.568054     3.556874     3.545695     3.534515     3.523336     3.512156     3.500977     3.489798     3.478618
      3.467439     3.456259     3.445080     3.433900     3.422721     3.411541     3.400362     3.389183     3.378003     3.366824
      3.355644     3.344465     3.333285     3.322106     3.310926     3.299747     3.288568     3.277388     3.266209     3.255029
      3.243850     3.232670     3.221491     3.210311     3.199132     3.187953     3.176773     3.165594     3.154414     3.143235
      3.132055     3.120876     3.109696     3.098517     3.087337     3.076158     3.064979     3.053799     3.042620     3.031440
      3.020261     3.009081     2.997902     2.986722     2.975543     2.964364     2.953184     2.942005     2.930825     2.919646
      2.908466     2.897287     2.886107     2.874928     2.863749     2.852569     2.841390     2.830210     2.819031     2.807851
      2.796672     2.785492     2.774313     2.763134     2.751954     2.740775     2.729595     2.718416     2.707236     2.696057
      2.684877     2.673698     2.662519     2.651339     2.640160     2.628980     2.617801     2.606621     2.595442     2.584262
      2.573083     2.561903     2.550724     2.539545     2.528365     2.517186     2.506006     2.494827     2.483647     2.472468
      2.461288     2.450109     2.438930     2.427750     2.416571     2.405391     2.394212     2.383032     2.371853     2.360673
      2.349494     2.338315     2.327135     2.315956     2.304776     2.293597     2.282417     2.271238     2.260058     2.248879
      2.237700     2.226520     2.215341     2.204161     2.192982     2.181802     2.170623     2.159443     2.148264     2.137084
      2.125905     2.114726     2.103546     2.092367     2.081187     2.070008     2.058828     2.047649     2.036469     2.025290
      2.014111     2.002931     1.991752     1.980572     1.969393     1.958213     1.947034     1.935854     1.924675     1.913496
      1.902316     1.891137     1.879957     1.868778     1.857598     1.846419     1.835239     1.824060     1.812881     1.801701
      1.790522     1.779342     1.768163     1.756983     1.745804     1.734624     1.723445     1.712265     1.701086     1.689907
      1.678727     1.667548     1.656368     1.645189     1.634009     1.622830     1.611650     1.600471     1.589292     1.578112
      1.566933     1.555753     1.544574     1.533394     1.522215     1.511035     1.499856     1.488677     1.477497     1.466318
      1.455138     1.443959     1.432779     1.421600     1.410420     1.399241     1.388062     1.376882     1.365703     1.354523
      1.343344     1.332164     1.320985     1.309805     1.298626     1.287446     1.276267     1.265088     1.253908     1.242729
      1.231549     1.220370     1.209190     1.198011     1.186831     1.175652     1.164473     1.153293     1.142114     1.130934
      1.119755     1.108575     1.097396     1.086216     1.075037     1.063858     1.052678     1.041499     1.030319     1.019140
      1.007960     0.996781     0.985601     0.974422     0.963243     0.952063     0.940884     0.929704     0.918525     0.907345
      0.896166     0.884986     0.873807     0.862628     0.851448     0.840269     0.829089     0.817910     0.806730     0.795551
      0.784371     0.773192     0.762012     0.750833     0.739654     0.728474     0.717295     0.706115     0.694936     0.683756
      0.672577     0.661397     0.650218     0.639039     0.627859     0.616680     0.605500     0.594321     0.583141     0.571962
      0.560782     0.549603     0.538424     0.527244     0.516065     0.504885     0.493706     0.482526     0.471347     0.460167
      0.448988     0.437809     0.426629     0.415450     0.404270     0.393091     0.381911     0.370732     0.359552     0.348373
      0.337193     0.326014     0.314835     0.303655     0.292476     0.281296     0.270117     0.258937     0.247758     0.236578
      0.225399     0.214220     0.203040
 NY phased data points follow
   2.87333E-09  4.15988E-09  7.40606E-09  9.08071E-09  1.04449E-08  9.88008E-09  8.43422E-09  7.75723E-09  6.62687E-09  5.48921E-09
   5.86696E-09  4.93365E-09  5.12200E-09  5.31522E-09  6.28202E-09  6.27432E-09  6.58842E-09  7.62064E-09  7.61248E-09  7.49494E-09
   7.67256E-09  7.15157E-09  7.15343E-09  7.28720E-09  6.04225E-09  6.32910E-09  6.46696E-09  7.58272E-09  8.18555E-09  7.70094E-09
   7.23753E-09  6.70326E-09  6.43950E-09  7.64119E-09  9.05395E-09  1.04406E-08  1.08146E-08  1.00452E-08  8.79171E-09  7.23702E-09
   6.29090E-09  5.82776E-09  5.76672E-09  4.40257E-09  5.20111E-09  4.89653E-09  4.45752E-09  4.44621E-09  5.00576E-09  3.92718E-09
   3.11026E-09  3.00954E-09  4.28835E-09  3.65516E-09  4.89946E-09  4.46467E-09  3.84743E-09  3.24682E-09  3.69662E-09  3.17092E-09
   3.04382E-09  4.02287E-09  4.68732E-09  5.24784E-09  6.59747E-09  8.95041E-09  1.19674E-08  1.26586E-08  1.09715E-08  9.00421E-09
   7.14707E-09  5.55278E-09  5.44277E-09  4.50131E-09  3.49998E-09  3.39810E-09  3.31792E-09  2.82676E-09  3.42655E-09  4.20696E-09
   5.25964E-09  8.30724E-09  1.16165E-08  1.43729E-08  1.33041E-08  1.03238E-08  9.40687E-09  7.85722E-09  7.94074E-09  6.79909E-09
   6.48110E-09  6.43230E-09  5.13360E-09  5.56038E-09  5.26175E-09  4.60770E-09  4.46842E-09  3.41513E-09  4.19601E-09  3.21268E-09
   3.05262E-09  2.97551E-09  3.22948E-09  3.78716E-09  3.32055E-09  4.01422E-09  3.17843E-09  3.50341E-09  3.64305E-09  3.42733E-09
   3.31895E-09  2.44925E-09  2.05579E-09  2.04153E-09  2.71043E-09  2.87116E-09  3.72642E-09  3.09096E-09  3.85029E-09  4.07947E-09
   4.00398E-09  4.14487E-09  3.94883E-09  3.52974E-09  3.59908E-09  2.80725E-09  1.97015E-09  2.43009E-09  1.73987E-09  1.78316E-09
   2.12027E-09  3.61854E-09  2.72609E-09  2.51644E-09  3.13497E-09  3.48576E-09  2.64364E-09  2.70292E-09  2.41629E-09  2.53338E-09
   2.53696E-09  3.49238E-09  3.90744E-09  4.57291E-09  4.92381E-09  4.35328E-09  3.77663E-09  4.50116E-09  4.79079E-09  4.58540E-09
   5.11870E-09  4.88345E-09  3.83596E-09  4.44575E-09  4.69112E-09  4.17395E-09  4.54311E-09  4.40069E-09  4.73474E-09  5.14906E-09
   5.58537E-09  5.94189E-09  5.69721E-09  5.98179E-09  6.25951E-09  6.35256E-09  6.94594E-09  7.69986E-09  7.70571E-09  8.66950E-09
   1.11678E-08  1.28725E-08  1.49024E-08  1.68349E-08  1.71431E-08  1.41680E-08  1.07978E-08  7.29329E-09  5.48691E-09  4.28189E-09
   4.78458E-09  3.22912E-09  3.37717E-09  1.97931E-09  2.27296E-09  1.53601E-09  1.05600E-09  9.90108E-10  1.51286E-10  3.00230E-10
  -6.92137E-11 -8.16624E-10 -1.46242E-09 -1.74467E-09 -3.02830E-09 -2.78152E-09 -4.63192E-09 -4.83867E-09 -6.45337E-09 -7.04173E-09
  -8.15329E-09 -8.73337E-09 -1.00271E-08 -1.05621E-08 -1.12847E-08 -1.14690E-08 -1.22063E-08 -1.19294E-08 -1.16389E-08 -1.18478E-08
  -1.09267E-08 -1.02260E-08 -8.90253E-09 -7.28168E-09 -6.98813E-09 -5.22706E-09 -4.20445E-09 -2.92676E-09 -2.78721E-09 -1.92010E-09
  -1.94289E-09 -1.56302E-09 -2.16183E-09 -2.13738E-09 -2.02252E-09 -3.01178E-09 -2.81505E-09 -1.83358E-09 -2.49473E-09 -1.95373E-09
  -2.20079E-09 -2.01891E-09 -1.78995E-09 -2.31661E-09 -1.63404E-09 -2.65130E-09 -2.63683E-09 -2.58907E-09 -2.29873E-09 -1.79168E-09
  -2.39231E-09 -1.67856E-09 -1.50214E-09 -1.34985E-09 -1.98989E-09 -2.12027E-09 -1.91006E-09 -2.46360E-09 -2.25630E-09 -2.35939E-09
  -2.01775E-09 -1.56362E-09 -1.61367E-09 -1.27708E-09 -1.40968E-09 -1.59725E-09 -1.01524E-09 -1.50938E-09 -1.55845E-09 -2.13694E-09
  -1.77175E-09 -1.85679E-09 -1.86863E-09 -3.19602E-09 -2.33141E-09 -2.41778E-09 -1.43637E-09 -1.77511E-09 -1.39172E-09 -1.26580E-09
  -6.07914E-10 -8.27972E-10 -8.77249E-10 -5.58238E-10 -1.21389E-09 -1.13672E-09 -6.26664E-10 -1.64922E-09 -1.46256E-09 -2.21223E-09
  -1.80729E-09 -1.86437E-09 -1.83311E-09 -2.13394E-09 -1.57937E-09 -2.44762E-09 -1.60545E-09 -1.87002E-09 -9.89188E-10 -1.68745E-09
  -8.50466E-10 -1.26103E-09 -1.67099E-09 -1.44274E-09 -1.19381E-09 -1.34349E-09 -1.70693E-09 -1.30470E-09 -1.25140E-09 -1.84260E-09
  -1.79264E-09 -9.92276E-10 -1.56525E-09 -1.46529E-09 -1.13274E-09 -1.27305E-09 -1.06890E-09 -1.49062E-09 -1.06228E-09 -1.10278E-09
  -1.15020E-09 -1.51617E-09 -1.44328E-09 -1.05946E-09 -7.41902E-10 -1.18101E-09 -1.06131E-09 -1.31684E-09 -8.66205E-10 -1.67560E-09
  -7.37438E-10 -1.51785E-09 -1.22322E-09 -7.06651E-10 -1.31910E-09 -7.34899E-10 -1.13989E-09 -1.30901E-09 -8.99688E-10 -1.67324E-09
  -7.19834E-10 -8.39785E-10 -1.61614E-09 -1.49850E-09 -9.65010E-10 -1.40121E-09 -8.10545E-10 -1.57042E-09 -1.35380E-09 -8.45026E-10
  -1.02999E-09 -9.83863E-10 -1.14359E-09 -4.78137E-10 -1.28770E-09 -9.69402E-10 -4.69166E-10 -1.48511E-09 -4.22051E-10 -1.22982E-09
  -7.68484E-10 -9.02136E-10 -1.13148E-09 -6.32073E-10 -7.17862E-10 -5.82780E-10 -7.94727E-10 -1.07140E-09 -8.45063E-10 -6.75578E-10
  -8.98953E-10 -1.27918E-09 -5.50398E-10
 NY points of the fit to the data follow
   5.54679E-09  6.22778E-09  6.97832E-09  7.71179E-09  8.22247E-09  8.35504E-09  8.06739E-09  7.45067E-09  6.73909E-09  6.00631E-09
   5.55309E-09  5.37492E-09  5.37635E-09  5.51289E-09  5.79401E-09  6.15162E-09  6.57244E-09  7.06421E-09  7.56811E-09  8.02667E-09
   8.40966E-09  8.48646E-09  8.12137E-09  7.46597E-09  6.68629E-09  5.98911E-09  5.69726E-09  5.99358E-09  6.64788E-09  7.26041E-09
   7.69824E-09  8.11616E-09  8.37342E-09  8.42735E-09  8.50869E-09  8.78021E-09  9.02344E-09  8.98253E-09  8.62132E-09  8.10410E-09
   7.52896E-09  6.54414E-09  5.51840E-09  4.95157E-09  4.32511E-09  3.69144E-09  3.43174E-09  3.36216E-09  3.45301E-09  3.60609E-09
   3.74582E-09  3.79976E-09  3.77854E-09  3.71545E-09  3.68628E-09  3.74638E-09  3.87127E-09  4.00595E-09  4.04763E-09  4.06151E-09
   4.24983E-09  4.65024E-09  5.24434E-09  6.12443E-09  7.19506E-09  8.12571E-09  8.84979E-09  9.36091E-09  9.57464E-09  9.36458E-09
   8.73703E-09  7.77045E-09  6.70415E-09  5.61955E-09  4.59215E-09  4.08029E-09  4.01521E-09  4.37820E-09  5.11192E-09  6.16701E-09
   7.43110E-09  8.94709E-09  1.05313E-08  1.16371E-08  1.19593E-08  1.14521E-08  1.01712E-08  8.48852E-09  7.01391E-09  6.55432E-09
   6.42956E-09  6.26488E-09  5.85565E-09  5.46578E-09  5.16593E-09  4.66831E-09  4.20235E-09  3.92386E-09  3.65690E-09  3.43391E-09
   3.30333E-09  3.22561E-09  3.18486E-09  3.17901E-09  3.19375E-09  3.21749E-09  3.24114E-09  3.25805E-09  3.26460E-09  3.25879E-09
   3.24248E-09  3.22626E-09  3.21964E-09  3.20413E-09  3.19408E-09  3.20791E-09  3.22990E-09  3.25544E-09  3.28288E-09  3.31137E-09
   3.34042E-09  3.36963E-09  3.39871E-09  3.42743E-09  3.45559E-09  3.48300E-09  3.50952E-09  3.53500E-09  3.55931E-09  3.58232E-09
   3.60391E-09  3.62396E-09  3.64237E-09  3.65901E-09  3.67378E-09  3.68658E-09  3.69732E-09  3.70590E-09  3.71223E-09  3.71624E-09
   3.71781E-09  3.71682E-09  3.71310E-09  3.70653E-09  3.69696E-09  3.68428E-09  3.66834E-09  3.64904E-09  3.62626E-09  3.59993E-09
   3.57000E-09  3.53643E-09  3.49923E-09  3.45845E-09  3.41422E-09  3.36678E-09  3.31648E-09  3.26391E-09  3.20997E-09  3.15609E-09
   3.10460E-09  3.05946E-09  3.02796E-09  3.02532E-09  3.09106E-09  3.37662E-09  4.15815E-09  5.54120E-09  7.39540E-09  9.60930E-09
   1.21707E-08  1.48151E-08  1.69206E-08  1.77197E-08  1.66847E-08  1.38152E-08  9.70931E-09  5.53259E-09  2.54040E-09  1.05028E-09
   4.29280E-10  3.56946E-11 -2.71513E-10 -5.36181E-10 -7.76285E-10 -1.00045E-09 -1.21315E-09 -1.41685E-09 -1.61285E-09 -1.80187E-09
  -1.98421E-09 -2.15993E-09 -2.32892E-09 -2.49093E-09 -2.64570E-09 -2.79286E-09 -2.93215E-09 -3.06367E-09 -3.18760E-09 -3.30409E-09
  -3.41329E-09 -3.51531E-09 -3.61030E-09 -3.69835E-09 -3.77959E-09 -3.85412E-09 -3.92205E-09 -3.98348E-09 -4.03850E-09 -4.08722E-09
  -4.12973E-09 -4.16612E-09 -4.19648E-09 -4.22092E-09 -4.23952E-09 -4.25238E-09 -4.25958E-09 -4.26121E-09 -4.25737E-09 -4.24814E-09
  -4.23362E-09 -4.21388E-09 -4.18902E-09 -4.15914E-09 -4.12436E-09 -4.08498E-09 -4.04124E-09 -3.99345E-09 -3.94189E-09 -3.88682E-09
  -3.82854E-09 -3.76732E-09 -3.70345E-09 -3.63719E-09 -3.56883E-09 -3.49866E-09 -3.42695E-09 -3.35399E-09 -3.28002E-09 -3.20538E-09
  -3.13031E-09 -3.05509E-09 -2.98001E-09 -2.90536E-09 -2.83138E-09 -2.75839E-09 -2.68665E-09 -2.61644E-09 -2.54805E-09 -2.48175E-09
  -2.41780E-09 -2.35652E-09 -2.29801E-09 -2.24219E-09 -2.18901E-09 -2.13837E-09 -2.09018E-09 -2.04438E-09 -2.00087E-09 -1.95958E-09
  -1.92042E-09 -1.88331E-09 -1.84817E-09 -1.81492E-09 -1.78347E-09 -1.75375E-09 -1.72566E-09 -1.69914E-09 -1.67410E-09 -1.65045E-09
  -1.62811E-09 -1.60701E-09 -1.58706E-09 -1.56817E-09 -1.55027E-09 -1.53327E-09 -1.51710E-09 -1.50167E-09 -1.48690E-09 -1.47270E-09
  -1.45903E-09 -1.44588E-09 -1.43322E-09 -1.42103E-09 -1.40931E-09 -1.39802E-09 -1.38716E-09 -1.37669E-09 -1.36661E-09 -1.35691E-09
  -1.34755E-09 -1.33852E-09 -1.32981E-09 -1.32139E-09 -1.31326E-09 -1.30538E-09 -1.29774E-09 -1.29033E-09 -1.28313E-09 -1.27611E-09
  -1.26927E-09 -1.26258E-09 -1.25602E-09 -1.24958E-09 -1.24324E-09 -1.23698E-09 -1.23079E-09 -1.22463E-09 -1.21852E-09 -1.21243E-09
  -1.20637E-09 -1.20033E-09 -1.19431E-09 -1.18829E-09 -1.18227E-09 -1.17626E-09 -1.17023E-09 -1.16419E-09 -1.15814E-09 -1.15205E-09
  -1.14594E-09 -1.13979E-09 -1.13360E-09 -1.12737E-09 -1.12108E-09 -1.11474E-09 -1.10833E-09 -1.10185E-09 -1.09530E-09 -1.08868E-09
  -1.08196E-09 -1.07516E-09 -1.06826E-09 -1.06125E-09 -1.05415E-09 -1.04693E-09 -1.03960E-09 -1.03217E-09 -1.02464E-09 -1.01701E-09
  -1.00930E-09 -1.00151E-09 -9.93636E-10 -9.85692E-10 -9.77683E-10 -9.69609E-10 -9.61483E-10 -9.53304E-10 -9.45080E-10 -9.36815E-10
  -9.28513E-10 -9.20183E-10 -9.11827E-10 -9.03451E-10 -8.95061E-10 -8.86663E-10 -8.78260E-10 -8.69856E-10 -8.61460E-10 -8.53077E-10
  -8.44711E-10 -8.36369E-10 -8.28049E-10
 NY background values follow
     1.550E-11    2.662E-11    3.771E-11    4.875E-11    5.975E-11    7.069E-11    8.157E-11    9.237E-11    1.031E-10    1.137E-10
     1.243E-10    1.347E-10    1.450E-10    1.552E-10    1.653E-10    1.752E-10    1.850E-10    1.946E-10    2.041E-10    2.134E-10
     2.226E-10    2.315E-10    2.403E-10    2.489E-10    2.572E-10    2.654E-10    2.733E-10    2.810E-10    2.885E-10    2.957E-10
     3.027E-10    3.095E-10    3.161E-10    3.226E-10    3.290E-10    3.353E-10    3.415E-10    3.477E-10    3.538E-10    3.599E-10
     3.661E-10    3.723E-10    3.785E-10    3.849E-10    3.914E-10    3.980E-10    4.048E-10    4.118E-10    4.189E-10    4.264E-10
     4.340E-10    4.420E-10    4.503E-10    4.589E-10    4.679E-10    4.772E-10    4.870E-10    4.972E-10    5.078E-10    5.189E-10
     5.306E-10    5.427E-10    5.555E-10    5.688E-10    5.828E-10    5.974E-10    6.128E-10    6.288E-10    6.455E-10    6.631E-10
     6.814E-10    7.006E-10    7.206E-10    7.414E-10    7.632E-10    7.860E-10    8.096E-10    8.343E-10    8.600E-10    8.868E-10
     9.146E-10    9.436E-10    9.736E-10    1.005E-09    1.037E-09    1.071E-09    1.106E-09    1.141E-09    1.178E-09    1.216E-09
     1.255E-09    1.294E-09    1.335E-09    1.376E-09    1.418E-09    1.460E-09    1.503E-09    1.547E-09    1.591E-09    1.636E-09
     1.681E-09    1.726E-09    1.772E-09    1.818E-09    1.864E-09    1.910E-09    1.957E-09    2.003E-09    2.049E-09    2.096E-09
     2.142E-09    2.188E-09    2.233E-09    2.279E-09    2.324E-09    2.368E-09    2.412E-09    2.455E-09    2.498E-09    2.540E-09
     2.580E-09    2.620E-09    2.659E-09    2.696E-09    2.732E-09    2.767E-09    2.800E-09    2.831E-09    2.861E-09    2.889E-09
     2.916E-09    2.940E-09    2.962E-09    2.983E-09    3.001E-09    3.016E-09    3.030E-09    3.040E-09    3.049E-09    3.054E-09
     3.057E-09    3.057E-09    3.054E-09    3.047E-09    3.038E-09    3.024E-09    3.007E-09    2.986E-09    2.961E-09    2.931E-09
     2.898E-09    2.859E-09    2.816E-09    2.768E-09    2.715E-09    2.657E-09    2.593E-09    2.524E-09    2.449E-09    2.368E-09
     2.281E-09    2.188E-09    2.088E-09    1.982E-09    1.869E-09    1.749E-09    1.622E-09    1.488E-09    1.347E-09    1.198E-09
     1.044E-09    8.829E-10    7.169E-10    5.461E-10    3.710E-10    1.922E-10    1.019E-11   -1.745E-10   -3.614E-10   -5.499E-10
    -7.394E-10   -9.296E-10   -1.120E-09   -1.309E-09   -1.498E-09   -1.685E-09   -1.870E-09   -2.052E-09   -2.232E-09   -2.407E-09
    -2.579E-09   -2.745E-09   -2.907E-09   -3.062E-09   -3.211E-09   -3.354E-09   -3.489E-09   -3.616E-09   -3.737E-09   -3.851E-09
    -3.957E-09   -4.057E-09   -4.150E-09   -4.236E-09   -4.315E-09   -4.388E-09   -4.455E-09   -4.515E-09   -4.568E-09   -4.616E-09
    -4.657E-09   -4.692E-09   -4.722E-09   -4.745E-09   -4.763E-09   -4.775E-09   -4.781E-09   -4.782E-09   -4.778E-09   -4.768E-09
    -4.753E-09   -4.732E-09   -4.707E-09   -4.676E-09   -4.641E-09   -4.601E-09   -4.557E-09   -4.508E-09   -4.456E-09   -4.401E-09
    -4.342E-09   -4.280E-09   -4.216E-09   -4.149E-09   -4.080E-09   -4.010E-09   -3.938E-09   -3.864E-09   -3.790E-09   -3.715E-09
    -3.639E-09   -3.564E-09   -3.488E-09   -3.413E-09   -3.339E-09   -3.266E-09   -3.194E-09   -3.123E-09   -3.054E-09   -2.988E-09
    -2.923E-09   -2.862E-09   -2.803E-09   -2.747E-09   -2.693E-09   -2.642E-09   -2.594E-09   -2.548E-09   -2.504E-09   -2.462E-09
    -2.423E-09   -2.386E-09   -2.350E-09   -2.317E-09   -2.285E-09   -2.255E-09   -2.227E-09   -2.200E-09   -2.175E-09   -2.151E-09
    -2.128E-09   -2.107E-09   -2.087E-09   -2.067E-09   -2.049E-09   -2.032E-09   -2.016E-09   -2.000E-09   -1.985E-09   -1.971E-09
    -1.957E-09   -1.943E-09   -1.930E-09   -1.918E-09   -1.906E-09   -1.894E-09   -1.883E-09   -1.873E-09   -1.862E-09   -1.852E-09
    -1.843E-09   -1.834E-09   -1.825E-09   -1.816E-09   -1.808E-09   -1.800E-09   -1.792E-09   -1.784E-09   -1.777E-09   -1.770E-09
    -1.762E-09   -1.756E-09   -1.749E-09   -1.742E-09   -1.736E-09   -1.729E-09   -1.723E-09   -1.716E-09   -1.710E-09   -1.704E-09
    -1.697E-09   -1.691E-09   -1.685E-09   -1.679E-09   -1.673E-09   -1.666E-09   -1.660E-09   -1.654E-09   -1.648E-09   -1.641E-09
    -1.635E-09   -1.629E-09   -1.622E-09   -1.616E-09   -1.609E-09   -1.603E-09   -1.596E-09   -1.590E-09   -1.583E-09   -1.576E-09
    -1.569E-09   -1.562E-09   -1.555E-09   -1.548E-09   -1.540E-09   -1.533E-09   -1.525E-09   -1.518E-09   -1.510E-09   -1.502E-09
    -1.494E-09   -1.486E-09   -1.478E-09   -1.470E-09   -1.462E-09   -1.454E-09   -1.445E-09   -1.437E-09   -1.429E-09   -1.420E-09
    -1.412E-09   -1.403E-09   -1.394E-09   -1.386E-09   -1.377E-09   -1.369E-09   -1.360E-09   -1.351E-09   -1.343E-09   -1.334E-09
    -1.326E-09   -1.317E-09   -1.309E-09
 Ala      Conc. = 4.92E-11
   4.70356E-11  6.26910E-11  7.73865E-11  9.11296E-11  1.03666E-10  1.15088E-10  1.24721E-10  1.31738E-10  1.39049E-10  1.46637E-10
   1.51080E-10  1.56214E-10  1.63605E-10  1.70251E-10  1.77169E-10  1.85157E-10  1.93635E-10  2.02328E-10  2.11097E-10  2.19857E-10
   2.28555E-10  2.37154E-10  2.45623E-10  2.53943E-10  2.62095E-10  2.70062E-10  2.77833E-10  2.85394E-10  2.92735E-10  2.99852E-10
   3.06765E-10  3.13495E-10  3.20065E-10  3.26498E-10  3.32816E-10  3.39043E-10  3.45201E-10  3.51315E-10  3.57407E-10  3.63501E-10
   3.69620E-10  3.75788E-10  3.82029E-10  3.88366E-10  3.94823E-10  4.01424E-10  4.08193E-10  4.15152E-10  4.22327E-10  4.29740E-10
   4.37415E-10  4.45378E-10  4.53650E-10  4.62257E-10  4.71222E-10  4.80569E-10  4.90321E-10  5.00504E-10  5.11147E-10  5.22277E-10
   5.33923E-10  5.46112E-10  5.58874E-10  5.72236E-10  5.86226E-10  6.00874E-10  6.16206E-10  6.32253E-10  6.49041E-10  6.66599E-10
   6.84957E-10  7.04141E-10  7.24182E-10  7.45107E-10  7.66944E-10  7.89725E-10  8.13476E-10  8.38226E-10  8.64006E-10  8.90844E-10
   9.18770E-10  9.47814E-10  9.78005E-10  1.00938E-09  1.04195E-09  1.07574E-09  1.11068E-09  1.14673E-09  1.18386E-09  1.22201E-09
   1.26115E-09  1.30125E-09  1.34230E-09  1.38427E-09  1.42719E-09  1.47112E-09  1.51619E-09  1.56274E-09  1.61158E-09  1.66541E-09
   1.72913E-09  1.79442E-09  1.86381E-09  1.94567E-09  2.03208E-09  2.11522E-09  2.18874E-09  2.24807E-09  2.29123E-09  2.31754E-09
   2.32972E-09  2.33877E-09  2.35457E-09  2.35899E-09  2.36672E-09  2.39662E-09  2.43323E-09  2.47212E-09  2.51175E-09  2.55138E-09
   2.59061E-09  2.62916E-09  2.66684E-09  2.70349E-09  2.73896E-09  2.77314E-09  2.80590E-09  2.83716E-09  2.86679E-09  2.89470E-09
   2.92080E-09  2.94498E-09  2.96716E-09  2.98723E-09  3.00510E-09  3.02069E-09  3.03389E-09  3.04462E-09  3.05278E-09  3.05828E-09
   3.06103E-09  3.06088E-09  3.05766E-09  3.05120E-09  3.04135E-09  3.02793E-09  3.01078E-09  2.98972E-09  2.96460E-09  2.93524E-09
   2.90149E-09  2.86317E-09  2.82012E-09  2.77217E-09  2.71916E-09  2.66092E-09  2.59730E-09  2.52813E-09  2.45324E-09  2.37249E-09
   2.28572E-09  2.19278E-09  2.09356E-09  1.98794E-09  1.87594E-09  1.75783E-09  1.63528E-09  1.51267E-09  1.38528E-09  1.25320E-09
   1.11815E-09  9.79704E-10  8.33858E-10  6.74378E-10  4.96222E-10  2.99032E-10  8.70514E-11 -1.31617E-10 -3.44342E-10 -5.39945E-10
  -7.32237E-10 -9.23757E-10 -1.11475E-09 -1.30496E-09 -1.49396E-09 -1.68131E-09 -1.86650E-09 -2.04904E-09 -2.22838E-09 -2.40401E-09
  -2.57543E-09 -2.74209E-09 -2.90348E-09 -3.05905E-09 -3.20828E-09 -3.35066E-09 -3.48576E-09 -3.61361E-09 -3.73428E-09 -3.84787E-09
  -3.95446E-09 -4.05414E-09 -4.14700E-09 -4.23311E-09 -4.31257E-09 -4.38547E-09 -4.45189E-09 -4.51192E-09 -4.56564E-09 -4.61314E-09
  -4.65451E-09 -4.68983E-09 -4.71919E-09 -4.74268E-09 -4.76038E-09 -4.77239E-09 -4.77877E-09 -4.77963E-09 -4.77505E-09 -4.76511E-09
  -4.74991E-09 -4.72952E-09 -4.70403E-09 -4.67354E-09 -4.63819E-09 -4.59824E-09 -4.55396E-09 -4.50564E-09 -4.45356E-09 -4.39801E-09
  -4.33924E-09 -4.27755E-09 -4.21322E-09 -4.14652E-09 -4.07773E-09 -4.00714E-09 -3.93501E-09 -3.86164E-09 -3.78728E-09 -3.71225E-09
  -3.63680E-09 -3.56121E-09 -3.48577E-09 -3.41075E-09 -3.33643E-09 -3.26309E-09 -3.19101E-09 -3.12047E-09 -3.05175E-09 -2.98512E-09
  -2.92086E-09 -2.85926E-09 -2.80044E-09 -2.74432E-09 -2.69083E-09 -2.63990E-09 -2.59142E-09 -2.54533E-09 -2.50154E-09 -2.45996E-09
  -2.42053E-09 -2.38314E-09 -2.34773E-09 -2.31421E-09 -2.28250E-09 -2.25251E-09 -2.22415E-09 -2.19738E-09 -2.17209E-09 -2.14818E-09
  -2.12559E-09 -2.10424E-09 -2.08404E-09 -2.06490E-09 -2.04677E-09 -2.02952E-09 -2.01312E-09 -1.99745E-09 -1.98244E-09 -1.96801E-09
  -1.95411E-09 -1.94073E-09 -1.92784E-09 -1.91543E-09 -1.90348E-09 -1.89196E-09 -1.88088E-09 -1.87019E-09 -1.85989E-09 -1.84997E-09
  -1.84039E-09 -1.83115E-09 -1.82222E-09 -1.81359E-09 -1.80524E-09 -1.79715E-09 -1.78930E-09 -1.78167E-09 -1.77427E-09 -1.76703E-09
  -1.75998E-09 -1.75308E-09 -1.74632E-09 -1.73967E-09 -1.73313E-09 -1.72666E-09 -1.72026E-09 -1.71390E-09 -1.70758E-09 -1.70130E-09
  -1.69503E-09 -1.68879E-09 -1.68257E-09 -1.67634E-09 -1.67013E-09 -1.66391E-09 -1.65769E-09 -1.65145E-09 -1.64519E-09 -1.63890E-09
  -1.63260E-09 -1.62625E-09 -1.61986E-09 -1.61342E-09 -1.60693E-09 -1.60039E-09 -1.59379E-09 -1.58711E-09 -1.58036E-09 -1.57354E-09
  -1.56662E-09 -1.55962E-09 -1.55251E-09 -1.54531E-09 -1.53801E-09 -1.53058E-09 -1.52305E-09 -1.51542E-09 -1.50769E-09 -1.49987E-09
  -1.49195E-09 -1.48396E-09 -1.47588E-09 -1.46774E-09 -1.45953E-09 -1.45125E-09 -1.44292E-09 -1.43453E-09 -1.42611E-09 -1.41764E-09
  -1.40913E-09 -1.40059E-09 -1.39203E-09 -1.38344E-09 -1.37484E-09 -1.36624E-09 -1.35762E-09 -1.34901E-09 -1.34040E-09 -1.33180E-09
  -1.32323E-09 -1.31467E-09 -1.30613E-09
 Asp      Conc. = 5.57E-10
   7.17698E-10  6.64847E-10  6.05041E-10  5.32309E-10  4.51854E-10  3.59782E-10  2.85907E-10  2.28782E-10  2.05986E-10  1.97078E-10
   1.95182E-10  1.97456E-10  2.02403E-10  2.09000E-10  2.16303E-10  2.23989E-10  2.32054E-10  2.40415E-10  2.48999E-10  2.57746E-10
   2.66616E-10  2.75580E-10  2.84618E-10  2.93727E-10  3.02908E-10  3.12175E-10  3.21558E-10  3.31098E-10  3.40862E-10  3.50951E-10
   3.61533E-10  3.72844E-10  3.85234E-10  3.99252E-10  4.15864E-10  4.37057E-10  4.67690E-10  5.04278E-10  5.51154E-10  6.00699E-10
   6.50524E-10  6.98445E-10  7.42674E-10  7.87185E-10  8.25768E-10  8.83034E-10  9.46760E-10  1.03440E-09  1.17891E-09  1.34612E-09
   1.49077E-09  1.55454E-09  1.52021E-09  1.40263E-09  1.24863E-09  1.12051E-09  1.02581E-09  9.90644E-10  9.27969E-10  8.49446E-10
   8.14829E-10  8.10246E-10  8.12321E-10  8.21540E-10  8.25053E-10  8.06812E-10  7.75970E-10  7.63730E-10  7.61842E-10  7.65950E-10
   7.74076E-10  7.85189E-10  7.98686E-10  8.14196E-10  8.31477E-10  8.50370E-10  8.70764E-10  8.92584E-10  9.15783E-10  9.40329E-10
   9.66199E-10  9.93388E-10  1.02189E-09  1.05171E-09  1.08285E-09  1.11529E-09  1.14896E-09  1.18380E-09  1.21974E-09  1.25673E-09
   1.29470E-09  1.33359E-09  1.37335E-09  1.41392E-09  1.45524E-09  1.49726E-09  1.53992E-09  1.58317E-09  1.62695E-09  1.67120E-09
   1.71587E-09  1.76092E-09  1.80627E-09  1.85189E-09  1.89771E-09  1.94368E-09  1.98975E-09  2.03587E-09  2.08198E-09  2.12803E-09
   2.17397E-09  2.21975E-09  2.26530E-09  2.31055E-09  2.35542E-09  2.39981E-09  2.44363E-09  2.48679E-09  2.52920E-09  2.57077E-09
   2.61141E-09  2.65101E-09  2.68951E-09  2.72680E-09  2.76279E-09  2.79739E-09  2.83052E-09  2.86208E-09  2.89198E-09  2.92013E-09
   2.94643E-09  2.97081E-09  2.99317E-09  3.01341E-09  3.03146E-09  3.04721E-09  3.06058E-09  3.07148E-09  3.07982E-09  3.08551E-09
   3.08845E-09  3.08851E-09  3.08551E-09  3.07930E-09  3.06972E-09  3.05659E-09  3.03975E-09  3.01905E-09  2.99433E-09  2.96541E-09
   2.93216E-09  2.89440E-09  2.85199E-09  2.80478E-09  2.75263E-09  2.69539E-09  2.63296E-09  2.56520E-09  2.49203E-09  2.41339E-09
   2.32929E-09  2.23980E-09  2.14521E-09  2.04611E-09  1.94398E-09  1.84281E-09  1.75796E-09  1.74771E-09  1.76299E-09  1.79497E-09
   1.85794E-09  1.94632E-09  2.01410E-09  1.98658E-09  1.79681E-09  1.42822E-09  9.17536E-10  3.44658E-10 -1.59514E-10 -4.47117E-10
  -6.70696E-10 -8.77068E-10 -1.07641E-09 -1.27182E-09 -1.46427E-09 -1.65402E-09 -1.84094E-09 -2.02476E-09 -2.20507E-09 -2.38146E-09
  -2.55347E-09 -2.72060E-09 -2.88237E-09 -3.03824E-09 -3.18773E-09 -3.33031E-09 -3.46558E-09 -3.59357E-09 -3.71437E-09 -3.82806E-09
  -3.93474E-09 -4.03449E-09 -4.12740E-09 -4.21357E-09 -4.29308E-09 -4.36602E-09 -4.43247E-09 -4.49253E-09 -4.54627E-09 -4.59380E-09
  -4.63519E-09 -4.67052E-09 -4.69990E-09 -4.72340E-09 -4.74111E-09 -4.75313E-09 -4.75952E-09 -4.76039E-09 -4.75582E-09 -4.74588E-09
  -4.73068E-09 -4.71030E-09 -4.68482E-09 -4.65433E-09 -4.61898E-09 -4.57903E-09 -4.53476E-09 -4.48644E-09 -4.43437E-09 -4.37881E-09
