 LCModel (Version 6.3-1R) Copyright: S.W. Provencher.          Ref.: Magn. Reson. Med. 30:672-679 (1993).                
 onepulse 22x26_ftSpec_smooth_lcm
 26 lines in following concentration table = NCONC+1
    Conc.  %SD /Cr+PCr  Metabolite                                         
    0.000 999%   0.000 Ala                                                 
    0.000 999%   0.000 Asp                                                 
    0.000 999%   0.000 Cr                                                  
    0.000 999%   0.000 GABA                                                
    0.000 999%   0.000 Glc                                                 
 1.82E-09  44%   3.832 Gln                                                 
 4.53E-10 140%   0.953 Glu                                                 
    0.000 999%   0.000 Glyc                                                
    0.000 999%   0.000 GPC                                                 
    0.000 999%   0.000 GSH                                                 
 1.57E-09  27%   3.309 Ins                                                 
    0.000 999%   0.000 Lac                                                 
    0.000 999%   0.000 NAAG                                                
 8.76E-10  27%   1.844 NAA                                                 
 2.20E-10  64%   0.462 PCh                                                 
 4.75E-10  45%   1.000 PCr                                                 
    0.000 999%   0.000 PE                                                  
 3.34E-10  92%   0.702 Scyllo                                              
 3.34E-09  18%   7.036 Ser                                                 
 1.41E-12 999% 3.0E-03 Tau                                                 
 2.20E-10  64%   0.462 GPC+PCh                                             
 8.76E-10  27%   1.844 NAA+NAAG                                            
 1.57E-09  27%   3.309 Ins+Glyc                                            
 4.75E-10  45%   1.000 Cr+PCr                                              
 2.27E-09  24%   4.785 Glu+Gln                                             
   6 lines in following misc. output table
  FWHM = 0.089 ppm    S/N =   4                                            
  Data shift = 0.347 ppm                                                   
  Ph: -40 deg     -20.0 deg/ppm                                            
  alphaB,S = 1.7E-01,   4.6E+01                                            
   16 spline knots.   Ns = 5(1)                                            
  (11) 4 infls.   ( 7) 1 extrs.                                            
  363 points on ppm-axis = NY
      4.250000     4.238821     4.227641     4.216462     4.205282     4.194103     4.182923     4.171744     4.160564     4.149385
      4.138206     4.127026     4.115847     4.104667     4.093488     4.082308     4.071129     4.059949     4.048770     4.037591
      4.026411     4.015232     4.004052     3.992873     3.981693     3.970514     3.959334     3.948155     3.936975     3.925796
      3.914617     3.903437     3.892258     3.881078     3.869899     3.858719     3.847540     3.836360     3.825181     3.814002
      3.802822     3.791643     3.780463     3.769284     3.758104     3.746925     3.735745     3.724566     3.713387     3.702207
      3.691028     3.679848     3.668669     3.657489     3.646310     3.635130     3.623951     3.612772     3.601592     3.590413
      3.579233     3.568054     3.556874     3.545695     3.534515     3.523336     3.512156     3.500977     3.489798     3.478618
      3.467439     3.456259     3.445080     3.433900     3.422721     3.411541     3.400362     3.389183     3.378003     3.366824
      3.355644     3.344465     3.333285     3.322106     3.310926     3.299747     3.288568     3.277388     3.266209     3.255029
      3.243850     3.232670     3.221491     3.210311     3.199132     3.187953     3.176773     3.165594     3.154414     3.143235
      3.132055     3.120876     3.109696     3.098517     3.087337     3.076158     3.064979     3.053799     3.042620     3.031440
      3.020261     3.009081     2.997902     2.986722     2.975543     2.964364     2.953184     2.942005     2.930825     2.919646
      2.908466     2.897287     2.886107     2.874928     2.863749     2.852569     2.841390     2.830210     2.819031     2.807851
      2.796672     2.785492     2.774313     2.763134     2.751954     2.740775     2.729595     2.718416     2.707236     2.696057
      2.684877     2.673698     2.662519     2.651339     2.640160     2.628980     2.617801     2.606621     2.595442     2.584262
      2.573083     2.561903     2.550724     2.539545     2.528365     2.517186     2.506006     2.494827     2.483647     2.472468
      2.461288     2.450109     2.438930     2.427750     2.416571     2.405391     2.394212     2.383032     2.371853     2.360673
      2.349494     2.338315     2.327135     2.315956     2.304776     2.293597     2.282417     2.271238     2.260058     2.248879
      2.237700     2.226520     2.215341     2.204161     2.192982     2.181802     2.170623     2.159443     2.148264     2.137084
      2.125905     2.114726     2.103546     2.092367     2.081187     2.070008     2.058828     2.047649     2.036469     2.025290
      2.014111     2.002931     1.991752     1.980572     1.969393     1.958213     1.947034     1.935854     1.924675     1.913496
      1.902316     1.891137     1.879957     1.868778     1.857598     1.846419     1.835239     1.824060     1.812881     1.801701
      1.790522     1.779342     1.768163     1.756983     1.745804     1.734624     1.723445     1.712265     1.701086     1.689907
      1.678727     1.667548     1.656368     1.645189     1.634009     1.622830     1.611650     1.600471     1.589292     1.578112
      1.566933     1.555753     1.544574     1.533394     1.522215     1.511035     1.499856     1.488677     1.477497     1.466318
      1.455138     1.443959     1.432779     1.421600     1.410420     1.399241     1.388062     1.376882     1.365703     1.354523
      1.343344     1.332164     1.320985     1.309805     1.298626     1.287446     1.276267     1.265088     1.253908     1.242729
      1.231549     1.220370     1.209190     1.198011     1.186831     1.175652     1.164473     1.153293     1.142114     1.130934
      1.119755     1.108575     1.097396     1.086216     1.075037     1.063858     1.052678     1.041499     1.030319     1.019140
      1.007960     0.996781     0.985601     0.974422     0.963243     0.952063     0.940884     0.929704     0.918525     0.907345
      0.896166     0.884986     0.873807     0.862628     0.851448     0.840269     0.829089     0.817910     0.806730     0.795551
      0.784371     0.773192     0.762012     0.750833     0.739654     0.728474     0.717295     0.706115     0.694936     0.683756
      0.672577     0.661397     0.650218     0.639039     0.627859     0.616680     0.605500     0.594321     0.583141     0.571962
      0.560782     0.549603     0.538424     0.527244     0.516065     0.504885     0.493706     0.482526     0.471347     0.460167
      0.448988     0.437809     0.426629     0.415450     0.404270     0.393091     0.381911     0.370732     0.359552     0.348373
      0.337193     0.326014     0.314835     0.303655     0.292476     0.281296     0.270117     0.258937     0.247758     0.236578
      0.225399     0.214220     0.203040
 NY phased data points follow
   2.02933E-08  1.81886E-08  1.60425E-08  1.26105E-08  1.19274E-08  9.69776E-09  1.05855E-08  9.99450E-09  1.01971E-08  9.84428E-09
   1.09370E-08  1.08558E-08  1.15296E-08  1.11167E-08  1.17309E-08  1.08337E-08  1.09553E-08  9.57700E-09  9.93881E-09  8.79032E-09
   9.48066E-09  7.47701E-09  8.41439E-09  7.62561E-09  8.89634E-09  9.23221E-09  9.26883E-09  8.07681E-09  7.41361E-09  6.93849E-09
   8.23456E-09  9.37291E-09  1.01632E-08  9.96483E-09  9.21965E-09  6.33785E-09  5.70443E-09  4.31411E-09  4.73354E-09  3.63344E-09
   4.09934E-09  3.67949E-09  3.93829E-09  3.73265E-09  3.93480E-09  3.53696E-09  2.68592E-09  2.53957E-09  3.20605E-09  2.90291E-09
   3.81069E-09  3.80561E-09  4.71047E-09  4.40144E-09  3.66908E-09  3.02091E-09  3.59817E-09  3.99690E-09  4.97266E-09  5.35079E-09
   6.62364E-09  6.64243E-09  8.57942E-09  1.02260E-08  1.08695E-08  9.28741E-09  7.51711E-09  5.82379E-09  4.53125E-09  3.48627E-09
   4.17778E-09  3.08314E-09  3.13547E-09  3.18487E-09  3.85271E-09  3.47913E-09  4.32009E-09  4.94098E-09  8.26503E-09  1.18021E-08
   1.50397E-08  1.51346E-08  1.28344E-08  9.31256E-09  8.21303E-09  6.49304E-09  5.96354E-09  5.28861E-09  5.02678E-09  4.75585E-09
   4.61913E-09  3.87837E-09  3.55214E-09  2.92252E-09  2.74979E-09  2.36419E-09  1.56802E-09  1.50762E-09  1.85305E-09  1.68827E-09
   1.96379E-09  1.89880E-09  2.62286E-09  2.39491E-09  2.07670E-09  2.13625E-09  2.33906E-09  2.07452E-09  1.67197E-09  5.07568E-10
   9.58450E-10  2.09336E-10  3.78277E-10  1.33045E-09  1.95940E-09  2.08811E-09  1.86030E-09  1.76896E-09  2.90002E-09  2.34953E-09
   2.20622E-09  2.12738E-09  2.00300E-09  1.13619E-09  9.51466E-10  1.34192E-10 -1.59166E-10  3.72481E-10  7.46111E-10  1.19401E-09
   1.44109E-09  1.00584E-09  1.27371E-09  1.44931E-09  1.77629E-09  1.84724E-09  1.27849E-09  1.06929E-09  1.45887E-09  2.38716E-09
   3.79427E-09  4.27962E-09  3.90209E-09  3.42677E-09  3.28347E-09  3.98485E-09  4.99714E-09  4.13303E-09  4.59261E-09  4.15577E-09
   4.27398E-09  3.78582E-09  4.10886E-09  3.38555E-09  3.20685E-09  3.19752E-09  3.71939E-09  3.47155E-09  3.42431E-09  4.39045E-09
   3.90148E-09  4.40497E-09  4.46120E-09  4.89906E-09  5.21568E-09  5.38505E-09  5.61062E-09  6.74898E-09  7.10709E-09  9.10295E-09
   1.25963E-08  1.78373E-08  2.07662E-08  1.87849E-08  1.54177E-08  1.30633E-08  1.09690E-08  9.84015E-09  9.10260E-09  7.45202E-09
   6.76384E-09  6.12126E-09  5.72647E-09  4.44133E-09  3.49127E-09  3.06759E-09  2.20170E-09  9.94134E-10 -2.42875E-10 -7.08080E-10
  -2.10136E-09 -2.93902E-09 -4.54465E-09 -5.89054E-09 -7.19476E-09 -8.90303E-09 -9.87938E-09 -1.11243E-08 -1.25903E-08 -1.31739E-08
  -1.40711E-08 -1.44711E-08 -1.48107E-08 -1.43590E-08 -1.41754E-08 -1.33398E-08 -1.23263E-08 -1.13523E-08 -9.78698E-09 -8.16126E-09
  -7.29303E-09 -6.03907E-09 -4.98555E-09 -3.46228E-09 -2.70002E-09 -1.82940E-09 -1.24401E-09 -8.72990E-10 -7.38515E-10 -6.14781E-10
  -1.42770E-09 -1.01386E-09 -1.44778E-09 -1.36107E-09 -1.49690E-09 -8.68224E-10 -1.32292E-09 -9.37429E-10 -1.03541E-09 -6.46924E-10
  -9.05891E-10 -8.68634E-10 -6.34952E-10 -8.42484E-10 -1.57994E-09 -1.28121E-09 -1.01719E-09 -1.02022E-09 -1.38830E-09 -3.01864E-10
  -4.76115E-10 -2.63877E-10 -4.83875E-10 -8.63027E-10 -8.90589E-10 -5.00356E-10 -1.14831E-09 -1.14544E-09 -7.36170E-10 -1.16892E-09
  -7.84076E-10 -2.41198E-10 -4.66776E-10 -2.46207E-10 -8.40172E-11  1.67668E-10  1.82566E-10  2.29177E-10 -3.37989E-11 -9.08142E-11
  -1.19778E-09 -7.59771E-10 -7.66823E-10 -1.26321E-09 -1.67892E-09 -1.50203E-09 -1.16739E-09 -1.43110E-09 -1.12206E-09 -1.68686E-10
  -6.42813E-10  2.07475E-10 -2.02509E-10  3.92328E-10  6.49726E-10  1.04746E-09  4.90199E-10  5.17201E-10  5.82801E-10  1.71510E-10
   2.88451E-11  3.16021E-10 -3.25135E-10 -1.18661E-10 -8.27201E-10 -2.16624E-10 -6.69779E-10 -5.47249E-10 -6.07617E-10 -6.87291E-10
  -5.05322E-10 -6.26071E-10 -9.53005E-10 -8.74171E-10 -4.36542E-10 -6.32305E-10 -1.01332E-09 -7.20146E-10 -5.65769E-10 -7.04047E-10
  -6.33953E-10 -8.54334E-10 -7.31068E-10 -6.25332E-10 -7.42719E-10 -7.21972E-10 -6.24347E-10 -5.43970E-10 -9.22353E-10 -3.82165E-10
  -1.11671E-09 -5.53851E-10 -7.38010E-10 -8.71655E-10 -1.10572E-09 -5.06769E-10 -9.03511E-10 -3.48747E-10 -7.70337E-10 -9.64568E-10
  -6.06992E-10 -5.05638E-10 -7.57745E-10 -6.73293E-10 -6.08482E-10 -2.92210E-10 -9.02135E-10 -4.49733E-10 -6.55303E-10 -4.01594E-10
  -8.65905E-10 -5.05365E-10 -6.91566E-10 -4.58293E-10 -6.60715E-10 -1.70574E-10 -5.73301E-10 -8.03022E-10 -9.42565E-10 -9.76451E-10
  -2.04543E-10 -5.20160E-10 -8.07170E-10 -5.08518E-10 -8.00118E-10 -4.48137E-10 -6.48343E-10 -6.96695E-10 -6.69126E-10 -2.74651E-10
  -9.54600E-10 -9.64087E-10 -3.00751E-10 -7.65810E-10 -4.13565E-10 -6.38753E-10 -9.13735E-10 -2.49118E-10 -7.74503E-10 -4.02204E-10
  -5.04960E-10 -3.99292E-10 -9.54690E-10
 NY points of the fit to the data follow
   1.90532E-08  1.70957E-08  1.48787E-08  1.34814E-08  1.29371E-08  1.23852E-08  1.14581E-08  1.05705E-08  1.01717E-08  1.04207E-08
   1.07824E-08  1.10484E-08  1.14603E-08  1.16292E-08  1.14477E-08  1.06662E-08  9.64595E-09  9.38064E-09  9.23939E-09  8.67425E-09
   8.21297E-09  8.22154E-09  8.29164E-09  8.10395E-09  8.20670E-09  8.68969E-09  9.29784E-09  9.48337E-09  8.97697E-09  8.57751E-09
   8.20055E-09  8.01831E-09  7.89924E-09  7.68312E-09  7.25027E-09  6.56378E-09  6.23185E-09  5.79324E-09  5.33313E-09  4.95626E-09
   4.58333E-09  3.98835E-09  3.20139E-09  2.90787E-09  2.89698E-09  2.95178E-09  3.01268E-09  3.05675E-09  3.09620E-09  3.13373E-09
   3.22057E-09  3.36197E-09  3.55854E-09  3.75751E-09  3.99757E-09  4.36329E-09  4.80540E-09  5.30933E-09  5.97839E-09  6.62009E-09
   7.09897E-09  7.46654E-09  7.73433E-09  7.73976E-09  7.54032E-09  7.11169E-09  6.55924E-09  6.05799E-09  5.32925E-09  4.49895E-09
   4.13439E-09  4.01226E-09  3.85932E-09  3.92367E-09  4.28076E-09  4.87036E-09  5.66340E-09  7.03104E-09  8.55409E-09  1.00637E-08
   1.13980E-08  1.21806E-08  1.20024E-08  1.10999E-08  1.00520E-08  8.92149E-09  7.64601E-09  6.07566E-09  4.15320E-09  3.36292E-09
   2.99382E-09  2.77801E-09  2.63274E-09  2.52612E-09  2.44882E-09  2.38882E-09  2.34021E-09  2.30231E-09  2.27227E-09  2.24851E-09
   2.22969E-09  2.21474E-09  2.20312E-09  2.19439E-09  2.18819E-09  2.18432E-09  2.18238E-09  2.18221E-09  2.18368E-09  2.18665E-09
   2.19106E-09  2.19681E-09  2.20383E-09  2.21201E-09  2.22116E-09  2.23111E-09  2.24169E-09  2.25276E-09  2.26415E-09  2.27572E-09
   2.28732E-09  2.29881E-09  2.31006E-09  2.32092E-09  2.33126E-09  2.34096E-09  2.34988E-09  2.35789E-09  2.36486E-09  2.37068E-09
   2.37521E-09  2.37833E-09  2.37993E-09  2.37987E-09  2.37806E-09  2.37435E-09  2.36865E-09  2.36084E-09  2.35080E-09  2.33844E-09
   2.32363E-09  2.30632E-09  2.28642E-09  2.26388E-09  2.23864E-09  2.21065E-09  2.17987E-09  2.14627E-09  2.10983E-09  2.07055E-09
   2.02846E-09  1.98361E-09  1.93611E-09  1.88610E-09  1.83380E-09  1.77956E-09  1.72385E-09  1.66739E-09  1.61123E-09  1.55698E-09
   1.50713E-09  1.46579E-09  1.44005E-09  1.44327E-09  1.50407E-09  1.69799E-09  2.31541E-09  4.21033E-09  7.46488E-09  1.12262E-08
   1.51140E-08  1.83081E-08  1.97004E-08  1.89533E-08  1.69535E-08  1.48068E-08  1.25474E-08  9.14685E-09  4.42220E-09  1.00542E-09
  -7.34692E-11 -6.22023E-10 -9.89657E-10 -1.27393E-09 -1.51216E-09 -1.72158E-09 -1.91106E-09 -2.08557E-09 -2.24797E-09 -2.39998E-09
  -2.54261E-09 -2.67641E-09 -2.80168E-09 -2.91847E-09 -3.02674E-09 -3.12634E-09 -3.21719E-09 -3.29956E-09 -3.37379E-09 -3.44019E-09
  -3.49901E-09 -3.55054E-09 -3.59501E-09 -3.63266E-09 -3.66372E-09 -3.68840E-09 -3.70692E-09 -3.71949E-09 -3.72631E-09 -3.72758E-09
  -3.72351E-09 -3.71427E-09 -3.70008E-09 -3.68111E-09 -3.65757E-09 -3.62965E-09 -3.59751E-09 -3.56137E-09 -3.52140E-09 -3.47779E-09
  -3.43072E-09 -3.38037E-09 -3.32694E-09 -3.27060E-09 -3.21155E-09 -3.14996E-09 -3.08604E-09 -3.01996E-09 -2.95193E-09 -2.88213E-09
  -2.81074E-09 -2.73797E-09 -2.66400E-09 -2.58901E-09 -2.51319E-09 -2.43675E-09 -2.35985E-09 -2.28271E-09 -2.20547E-09 -2.12838E-09
  -2.05159E-09 -1.97528E-09 -1.89967E-09 -1.82493E-09 -1.75125E-09 -1.67881E-09 -1.60781E-09 -1.53843E-09 -1.47086E-09 -1.40530E-09
  -1.34191E-09 -1.28092E-09 -1.22238E-09 -1.16626E-09 -1.11252E-09 -1.06113E-09 -1.01201E-09 -9.65142E-10 -9.20463E-10 -8.77935E-10
  -8.37512E-10 -7.99139E-10 -7.62780E-10 -7.28380E-10 -6.95901E-10 -6.65292E-10 -6.36493E-10 -6.09487E-10 -5.84213E-10 -5.60616E-10
  -5.38654E-10 -5.18291E-10 -4.99464E-10 -4.82134E-10 -4.66266E-10 -4.51787E-10 -4.38679E-10 -4.26878E-10 -4.16346E-10 -4.07027E-10
  -3.98882E-10 -3.91866E-10 -3.85931E-10 -3.81029E-10 -3.77123E-10 -3.74159E-10 -3.72098E-10 -3.70890E-10 -3.70490E-10 -3.70857E-10
  -3.71940E-10 -3.73697E-10 -3.76080E-10 -3.79046E-10 -3.82549E-10 -3.86543E-10 -3.90983E-10 -3.95821E-10 -4.01019E-10 -4.06519E-10
  -4.12289E-10 -4.18274E-10 -4.24431E-10 -4.30721E-10 -4.37091E-10 -4.43496E-10 -4.49896E-10 -4.56239E-10 -4.62515E-10 -4.68719E-10
  -4.74850E-10 -4.80906E-10 -4.86886E-10 -4.92785E-10 -4.98604E-10 -5.04340E-10 -5.09992E-10 -5.15556E-10 -5.21034E-10 -5.26419E-10
  -5.31715E-10 -5.36915E-10 -5.42018E-10 -5.47026E-10 -5.51932E-10 -5.56738E-10 -5.61440E-10 -5.66035E-10 -5.70524E-10 -5.74906E-10
  -5.79174E-10 -5.83330E-10 -5.87371E-10 -5.91296E-10 -5.95103E-10 -5.98788E-10 -6.02358E-10 -6.05818E-10 -6.09171E-10 -6.12423E-10
  -6.15581E-10 -6.18648E-10 -6.21631E-10 -6.24534E-10 -6.27365E-10 -6.30125E-10 -6.32824E-10 -6.35464E-10 -6.38051E-10 -6.40591E-10
  -6.43087E-10 -6.45547E-10 -6.47974E-10 -6.50376E-10 -6.52756E-10 -6.55120E-10 -6.57474E-10 -6.59820E-10 -6.62167E-10 -6.64520E-10
  -6.66884E-10 -6.69264E-10 -6.71663E-10
 NY background values follow
     8.156E-10    8.229E-10    8.302E-10    8.376E-10    8.450E-10    8.525E-10    8.600E-10    8.676E-10    8.751E-10    8.827E-10
     8.902E-10    8.977E-10    9.052E-10    9.127E-10    9.200E-10    9.273E-10    9.345E-10    9.416E-10    9.486E-10    9.555E-10
     9.622E-10    9.688E-10    9.753E-10    9.815E-10    9.876E-10    9.935E-10    9.992E-10    1.005E-09    1.010E-09    1.015E-09
     1.020E-09    1.024E-09    1.028E-09    1.033E-09    1.036E-09    1.040E-09    1.044E-09    1.047E-09    1.050E-09    1.053E-09
     1.056E-09    1.059E-09    1.061E-09    1.064E-09    1.066E-09    1.068E-09    1.070E-09    1.072E-09    1.074E-09    1.076E-09
     1.078E-09    1.079E-09    1.081E-09    1.082E-09    1.084E-09    1.085E-09    1.087E-09    1.088E-09    1.089E-09    1.091E-09
     1.092E-09    1.094E-09    1.095E-09    1.096E-09    1.098E-09    1.099E-09    1.100E-09    1.102E-09    1.103E-09    1.105E-09
     1.106E-09    1.108E-09    1.110E-09    1.112E-09    1.113E-09    1.115E-09    1.117E-09    1.119E-09    1.121E-09    1.124E-09
     1.126E-09    1.129E-09    1.131E-09    1.134E-09    1.137E-09    1.140E-09    1.143E-09    1.146E-09    1.150E-09    1.153E-09
     1.157E-09    1.161E-09    1.166E-09    1.171E-09    1.176E-09    1.181E-09    1.187E-09    1.193E-09    1.199E-09    1.206E-09
     1.214E-09    1.221E-09    1.230E-09    1.238E-09    1.248E-09    1.257E-09    1.268E-09    1.278E-09    1.290E-09    1.302E-09
     1.314E-09    1.328E-09    1.341E-09    1.356E-09    1.371E-09    1.386E-09    1.402E-09    1.417E-09    1.433E-09    1.448E-09
     1.464E-09    1.478E-09    1.493E-09    1.507E-09    1.520E-09    1.532E-09    1.543E-09    1.553E-09    1.562E-09    1.570E-09
     1.576E-09    1.580E-09    1.583E-09    1.584E-09    1.584E-09    1.581E-09    1.576E-09    1.568E-09    1.559E-09    1.546E-09
     1.531E-09    1.514E-09    1.493E-09    1.470E-09    1.443E-09    1.414E-09    1.381E-09    1.345E-09    1.306E-09    1.263E-09
     1.217E-09    1.167E-09    1.113E-09    1.056E-09    9.946E-10    9.293E-10    8.600E-10    7.864E-10    7.087E-10    6.265E-10
     5.400E-10    4.489E-10    3.533E-10    2.530E-10    1.478E-10    3.784E-11   -7.710E-11   -1.971E-10   -3.221E-10   -4.519E-10
    -5.859E-10   -7.237E-10   -8.648E-10   -1.009E-09   -1.155E-09   -1.304E-09   -1.453E-09   -1.604E-09   -1.756E-09   -1.907E-09
    -2.058E-09   -2.209E-09   -2.358E-09   -2.505E-09   -2.650E-09   -2.792E-09   -2.932E-09   -3.067E-09   -3.199E-09   -3.326E-09
    -3.448E-09   -3.565E-09   -3.676E-09   -3.780E-09   -3.877E-09   -3.968E-09   -4.050E-09   -4.126E-09   -4.193E-09   -4.254E-09
    -4.308E-09   -4.354E-09   -4.395E-09   -4.428E-09   -4.456E-09   -4.477E-09   -4.493E-09   -4.503E-09   -4.507E-09   -4.506E-09
    -4.499E-09   -4.488E-09   -4.472E-09   -4.451E-09   -4.426E-09   -4.396E-09   -4.362E-09   -4.325E-09   -4.283E-09   -4.238E-09
    -4.190E-09   -4.139E-09   -4.084E-09   -4.026E-09   -3.966E-09   -3.904E-09   -3.839E-09   -3.772E-09   -3.703E-09   -3.632E-09
    -3.560E-09   -3.486E-09   -3.412E-09   -3.336E-09   -3.259E-09   -3.182E-09   -3.105E-09   -3.027E-09   -2.949E-09   -2.871E-09
    -2.794E-09   -2.717E-09   -2.640E-09   -2.565E-09   -2.491E-09   -2.418E-09   -2.346E-09   -2.276E-09   -2.208E-09   -2.142E-09
    -2.078E-09   -2.017E-09   -1.958E-09   -1.901E-09   -1.847E-09   -1.795E-09   -1.746E-09   -1.698E-09   -1.653E-09   -1.610E-09
    -1.569E-09   -1.531E-09   -1.494E-09   -1.459E-09   -1.426E-09   -1.395E-09   -1.366E-09   -1.338E-09   -1.313E-09   -1.289E-09
    -1.266E-09   -1.246E-09   -1.227E-09   -1.209E-09   -1.193E-09   -1.178E-09   -1.164E-09   -1.152E-09   -1.141E-09   -1.132E-09
    -1.123E-09   -1.116E-09   -1.109E-09   -1.104E-09   -1.100E-09   -1.097E-09   -1.094E-09   -1.093E-09   -1.092E-09   -1.092E-09
    -1.093E-09   -1.094E-09   -1.096E-09   -1.099E-09   -1.102E-09   -1.106E-09   -1.110E-09   -1.114E-09   -1.119E-09   -1.124E-09
    -1.130E-09   -1.135E-09   -1.141E-09   -1.147E-09   -1.153E-09   -1.159E-09   -1.165E-09   -1.171E-09   -1.177E-09   -1.183E-09
    -1.189E-09   -1.195E-09   -1.200E-09   -1.206E-09   -1.211E-09   -1.217E-09   -1.222E-09   -1.227E-09   -1.233E-09   -1.238E-09
    -1.243E-09   -1.248E-09   -1.252E-09   -1.257E-09   -1.262E-09   -1.266E-09   -1.270E-09   -1.275E-09   -1.279E-09   -1.283E-09
    -1.287E-09   -1.291E-09   -1.294E-09   -1.298E-09   -1.301E-09   -1.305E-09   -1.308E-09   -1.311E-09   -1.314E-09   -1.317E-09
    -1.320E-09   -1.323E-09   -1.325E-09   -1.328E-09   -1.330E-09   -1.333E-09   -1.335E-09   -1.337E-09   -1.340E-09   -1.342E-09
    -1.344E-09   -1.346E-09   -1.348E-09   -1.350E-09   -1.352E-09   -1.354E-09   -1.356E-09   -1.358E-09   -1.360E-09   -1.362E-09
    -1.364E-09   -1.366E-09   -1.368E-09
 Gln      Conc. = 1.82E-09
   2.14378E-09  2.51127E-09  2.89648E-09  3.26480E-09  3.55014E-09  3.69138E-09  3.66078E-09  3.47229E-09  3.18658E-09  2.92248E-09
   2.53880E-09  2.08992E-09  1.88309E-09  1.61438E-09  1.45413E-09  1.37762E-09  1.33476E-09  1.30851E-09  1.29186E-09  1.28138E-09
   1.27512E-09  1.27184E-09  1.27074E-09  1.27137E-09  1.27351E-09  1.27697E-09  1.28108E-09  1.28582E-09  1.29129E-09  1.29710E-09
   1.30325E-09  1.30977E-09  1.31667E-09  1.32398E-09  1.33173E-09  1.33998E-09  1.34878E-09  1.35822E-09  1.36837E-09  1.37937E-09
   1.39141E-09  1.40468E-09  1.41953E-09  1.43633E-09  1.45544E-09  1.47743E-09  1.50297E-09  1.53264E-09  1.56815E-09  1.61199E-09
   1.66621E-09  1.73614E-09  1.83116E-09  1.96855E-09  2.19147E-09  2.56531E-09  2.99184E-09  3.48120E-09  4.11369E-09  4.70017E-09
   5.11185E-09  5.42946E-09  5.60326E-09  5.53120E-09  5.17480E-09  4.60476E-09  4.01939E-09  3.60820E-09  3.05012E-09  2.43851E-09
   2.21002E-09  2.20282E-09  2.24336E-09  2.44057E-09  2.77043E-09  3.25600E-09  3.72997E-09  4.14355E-09  4.49587E-09  4.73892E-09
   4.84692E-09  4.79603E-09  4.50132E-09  4.14424E-09  3.84410E-09  3.38166E-09  2.88155E-09  2.61685E-09  2.33293E-09  2.08005E-09
   1.92856E-09  1.82762E-09  1.75648E-09  1.70456E-09  1.66435E-09  1.63293E-09  1.60867E-09  1.58967E-09  1.57485E-09  1.56374E-09
   1.55559E-09  1.54972E-09  1.54591E-09  1.54393E-09  1.54370E-09  1.54510E-09  1.54788E-09  1.55193E-09  1.55720E-09  1.56361E-09
   1.57114E-09  1.57974E-09  1.58936E-09  1.59992E-09  1.61125E-09  1.62320E-09  1.63564E-09  1.64841E-09  1.66137E-09  1.67438E-09
   1.68731E-09  1.70003E-09  1.71240E-09  1.72429E-09  1.73558E-09  1.74612E-09  1.75581E-09  1.76450E-09  1.77208E-09  1.77841E-09
   1.78338E-09  1.78686E-09  1.78873E-09  1.78886E-09  1.78713E-09  1.78342E-09  1.77762E-09  1.76959E-09  1.75922E-09  1.74639E-09
   1.73098E-09  1.71290E-09  1.69207E-09  1.66839E-09  1.64178E-09  1.61217E-09  1.57947E-09  1.54359E-09  1.50448E-09  1.46205E-09
   1.41623E-09  1.36697E-09  1.31421E-09  1.25790E-09  1.19801E-09  1.13454E-09  1.06751E-09  9.96960E-10  9.23024E-10  8.45912E-10
   7.66002E-10  6.83940E-10  6.00879E-10  5.18956E-10  4.42614E-10  3.82521E-10  3.72298E-10  5.75635E-10  1.09804E-09  1.73074E-09
   2.41176E-09  3.00503E-09  3.27093E-09  3.08123E-09  2.57968E-09  2.02541E-09  1.48811E-09  7.68905E-10 -2.98255E-10 -1.24427E-09
  -1.61007E-09 -1.84946E-09 -2.04643E-09 -2.22337E-09 -2.38845E-09 -2.54516E-09 -2.69512E-09 -2.83904E-09 -2.97717E-09 -3.10955E-09
  -3.23601E-09 -3.35631E-09 -3.47016E-09 -3.57719E-09 -3.67705E-09 -3.76932E-09 -3.85374E-09 -3.93043E-09 -3.99962E-09 -4.06150E-09
  -4.11627E-09 -4.16413E-09 -4.20528E-09 -4.23991E-09 -4.26820E-09 -4.29034E-09 -4.30652E-09 -4.31693E-09 -4.32174E-09 -4.32115E-09
  -4.31534E-09 -4.30449E-09 -4.28878E-09 -4.26839E-09 -4.24351E-09 -4.21432E-09 -4.18100E-09 -4.14372E-09 -4.10268E-09 -4.05805E-09
  -4.01001E-09 -3.95874E-09 -3.90443E-09 -3.84725E-09 -3.78739E-09 -3.72504E-09 -3.66037E-09 -3.59359E-09 -3.52487E-09 -3.45441E-09
  -3.38239E-09 -3.30900E-09 -3.23443E-09 -3.15887E-09 -3.08250E-09 -3.00552E-09 -2.92810E-09 -2.85045E-09 -2.77272E-09 -2.69514E-09
  -2.61788E-09 -2.54113E-09 -2.46507E-09 -2.38990E-09 -2.31579E-09 -2.24294E-09 -2.17153E-09 -2.10175E-09 -2.03380E-09 -1.96786E-09
  -1.90410E-09 -1.84273E-09 -1.78383E-09 -1.72736E-09 -1.67328E-09 -1.62154E-09 -1.57209E-09 -1.52489E-09 -1.47989E-09 -1.43704E-09
  -1.39630E-09 -1.35761E-09 -1.32094E-09 -1.28624E-09 -1.25346E-09 -1.22255E-09 -1.19346E-09 -1.16616E-09 -1.14060E-09 -1.11672E-09
  -1.09447E-09 -1.07383E-09 -1.05473E-09 -1.03712E-09 -1.02098E-09 -1.00623E-09 -9.92857E-10 -9.80790E-10 -9.69995E-10 -9.60414E-10
  -9.52008E-10 -9.44733E-10 -9.38541E-10 -9.33383E-10 -9.29222E-10 -9.26005E-10 -9.23692E-10 -9.22233E-10 -9.21583E-10 -9.21700E-10
  -9.22536E-10 -9.24045E-10 -9.26183E-10 -9.28903E-10 -9.32162E-10 -9.35911E-10 -9.40108E-10 -9.44704E-10 -9.49659E-10 -9.54918E-10
  -9.60447E-10 -9.66192E-10 -9.72108E-10 -9.78158E-10 -9.84288E-10 -9.90454E-10 -9.96613E-10 -1.00272E-09 -1.00875E-09 -1.01472E-09
  -1.02061E-09 -1.02643E-09 -1.03217E-09 -1.03783E-09 -1.04341E-09 -1.04890E-09 -1.05432E-09 -1.05964E-09 -1.06488E-09 -1.07002E-09
  -1.07508E-09 -1.08004E-09 -1.08490E-09 -1.08966E-09 -1.09433E-09 -1.09889E-09 -1.10335E-09 -1.10770E-09 -1.11195E-09 -1.11609E-09
  -1.12011E-09 -1.12402E-09 -1.12781E-09 -1.13149E-09 -1.13505E-09 -1.13849E-09 -1.14181E-09 -1.14502E-09 -1.14812E-09 -1.15112E-09
  -1.15403E-09 -1.15684E-09 -1.15957E-09 -1.16222E-09 -1.16479E-09 -1.16729E-09 -1.16973E-09 -1.17211E-09 -1.17444E-09 -1.17672E-09
  -1.17895E-09 -1.18115E-09 -1.18331E-09 -1.18544E-09 -1.18756E-09 -1.18965E-09 -1.19174E-09 -1.19381E-09 -1.19589E-09 -1.19797E-09
  -1.20005E-09 -1.20216E-09 -1.20428E-09
 Glu      Conc. = 4.53E-10
   1.18654E-09  1.28852E-09  1.39090E-09  1.47613E-09  1.53328E-09  1.55483E-09  1.53727E-09  1.48010E-09  1.40016E-09  1.32990E-09
   1.22792E-09  1.15402E-09  1.10307E-09  1.04621E-09  1.02467E-09  1.01623E-09  1.01359E-09  1.01395E-09  1.01599E-09  1.01919E-09
   1.02319E-09  1.02776E-09  1.03272E-09  1.03783E-09  1.04305E-09  1.04831E-09  1.05355E-09  1.05871E-09  1.06379E-09  1.06877E-09
   1.07363E-09  1.07839E-09  1.08304E-09  1.08759E-09  1.09205E-09  1.09644E-09  1.10076E-09  1.10502E-09  1.10926E-09  1.11348E-09
   1.11772E-09  1.12201E-09  1.12637E-09  1.13084E-09  1.13548E-09  1.14033E-09  1.14545E-09  1.15094E-09  1.15689E-09  1.16348E-09
   1.17089E-09  1.17942E-09  1.18944E-09  1.20142E-09  1.21621E-09  1.23518E-09  1.26103E-09  1.29949E-09  1.36675E-09  1.46712E-09
   1.57982E-09  1.72926E-09  1.91533E-09  2.07929E-09  2.22518E-09  2.34734E-09  2.41524E-09  2.40492E-09  2.31227E-09  2.16507E-09
   2.02955E-09  1.91082E-09  1.75517E-09  1.65887E-09  1.67193E-09  1.69750E-09  1.76610E-09  1.87200E-09  1.96151E-09  2.02824E-09
   2.06026E-09  2.05546E-09  2.01853E-09  1.93267E-09  1.83374E-09  1.73913E-09  1.64276E-09  1.55488E-09  1.47437E-09  1.42469E-09
   1.37798E-09  1.34945E-09  1.32830E-09  1.31025E-09  1.30075E-09  1.29429E-09  1.28857E-09  1.28602E-09  1.28562E-09  1.28679E-09
   1.28927E-09  1.29293E-09  1.29767E-09  1.30339E-09  1.30996E-09  1.31735E-09  1.32555E-09  1.33452E-09  1.34426E-09  1.35476E-09
   1.36602E-09  1.37804E-09  1.39081E-09  1.40427E-09  1.41828E-09  1.43271E-09  1.44744E-09  1.46233E-09  1.47728E-09  1.49213E-09
   1.50679E-09  1.52111E-09  1.53498E-09  1.54827E-09  1.56087E-09  1.57265E-09  1.58348E-09  1.59325E-09  1.60184E-09  1.60912E-09
   1.61497E-09  1.61928E-09  1.62191E-09  1.62276E-09  1.62170E-09  1.61861E-09  1.61337E-09  1.60586E-09  1.59597E-09  1.58356E-09
   1.56852E-09  1.55077E-09  1.53020E-09  1.50673E-09  1.48028E-09  1.45076E-09  1.41807E-09  1.38214E-09  1.34288E-09  1.30020E-09
   1.25403E-09  1.20428E-09  1.15086E-09  1.09372E-09  1.03277E-09  9.67942E-10  8.99191E-10  8.26470E-10  7.49758E-10  6.69063E-10
   5.84460E-10  4.96124E-10  4.04453E-10  3.10297E-10  2.15777E-10  1.27375E-10  7.52694E-11  1.13043E-10  1.78438E-10  2.56237E-10
   3.19466E-10  3.06945E-10  1.73824E-10 -5.41545E-11 -3.05714E-10 -5.49035E-10 -8.26140E-10 -1.19750E-09 -1.58578E-09 -1.80060E-09
  -1.97656E-09 -2.13989E-09 -2.29688E-09 -2.44950E-09 -2.59837E-09 -2.74359E-09 -2.88504E-09 -3.02244E-09 -3.15544E-09 -3.28367E-09
  -3.40674E-09 -3.52422E-09 -3.63568E-09 -3.74068E-09 -3.83877E-09 -3.92951E-09 -4.01257E-09 -4.08807E-09 -4.15619E-09 -4.21712E-09
  -4.27103E-09 -4.31811E-09 -4.35855E-09 -4.39252E-09 -4.42021E-09 -4.44180E-09 -4.45747E-09 -4.46740E-09 -4.47177E-09 -4.47077E-09
  -4.46456E-09 -4.45334E-09 -4.43729E-09 -4.41658E-09 -4.39138E-09 -4.36190E-09 -4.32830E-09 -4.29076E-09 -4.24947E-09 -4.20459E-09
  -4.15632E-09 -4.10484E-09 -4.05031E-09 -3.99293E-09 -3.93287E-09 -3.87033E-09 -3.80548E-09 -3.73851E-09 -3.66962E-09 -3.59900E-09
