 LCModel (Version 6.3-1R) Copyright: S.W. Provencher.          Ref.: Magn. Reson. Med. 30:672-679 (1993).                
 onepulse 22x24_ftSpec_smooth_lcm
 26 lines in following concentration table = NCONC+1
    Conc.  %SD   /Cr    Metabolite                                         
 7.05E-11 334%   0.000 Ala                                                 
 4.21E-10 112%   0.000 Asp                                                 
    0.000 999%   0.000 Cr                                                  
 2.86E-09  12%   0.000 GABA                                                
 2.39E-09  16%   0.000 Glc                                                 
    0.000 999%   0.000 Gln                                                 
    0.000 999%   0.000 Glu                                                 
    0.000 999%   0.000 Glyc                                                
 1.48E-10  44%   0.000 GPC                                                 
 2.12E-10 120%   0.000 GSH                                                 
 3.44E-10  80%   0.000 Ins                                                 
    0.000 999%   0.000 Lac                                                 
    0.000 999%   0.000 NAAG                                                
 1.26E-09  15%   0.000 NAA                                                 
    0.000 999%   0.000 PCh                                                 
    0.000 999%   0.000 PCr                                                 
    0.000 999%   0.000 PE                                                  
    0.000 999%   0.000 Scyllo                                              
    0.000 999%   0.000 Ser                                                 
    0.000 999%   0.000 Tau                                                 
 1.48E-10  44%   0.000 GPC+PCh                                             
 1.26E-09  15%   0.000 NAA+NAAG                                            
 3.44E-10  80%   0.000 Ins+Glyc                                            
    0.000 999%   0.000 Cr+PCr                                              
    0.000 999%   0.000 Glu+Gln                                             
   6 lines in following misc. output table
  FWHM = 0.078 ppm    S/N =   4                                            
  Data shift = 0.324 ppm                                                   
  Ph:  37 deg      20.3 deg/ppm                                            
  alphaB,S = 1.8E-01,   8.3E+01                                            
   16 spline knots.   Ns = 5(1)                                            
  ( 7) 2 infls.   ( 5) 1 extrs.                                            
  363 points on ppm-axis = NY
      4.250000     4.238821     4.227641     4.216462     4.205282     4.194103     4.182923     4.171744     4.160564     4.149385
      4.138206     4.127026     4.115847     4.104667     4.093488     4.082308     4.071129     4.059949     4.048770     4.037591
      4.026411     4.015232     4.004052     3.992873     3.981693     3.970514     3.959334     3.948155     3.936975     3.925796
      3.914617     3.903437     3.892258     3.881078     3.869899     3.858719     3.847540     3.836360     3.825181     3.814002
      3.802822     3.791643     3.780463     3.769284     3.758104     3.746925     3.735745     3.724566     3.713387     3.702207
      3.691028     3.679848     3.668669     3.657489     3.646310     3.635130     3.623951     3.612772     3.601592     3.590413
      3.579233     3.568054     3.556874     3.545695     3.534515     3.523336     3.512156     3.500977     3.489798     3.478618
      3.467439     3.456259     3.445080     3.433900     3.422721     3.411541     3.400362     3.389183     3.378003     3.366824
      3.355644     3.344465     3.333285     3.322106     3.310926     3.299747     3.288568     3.277388     3.266209     3.255029
      3.243850     3.232670     3.221491     3.210311     3.199132     3.187953     3.176773     3.165594     3.154414     3.143235
      3.132055     3.120876     3.109696     3.098517     3.087337     3.076158     3.064979     3.053799     3.042620     3.031440
      3.020261     3.009081     2.997902     2.986722     2.975543     2.964364     2.953184     2.942005     2.930825     2.919646
      2.908466     2.897287     2.886107     2.874928     2.863749     2.852569     2.841390     2.830210     2.819031     2.807851
      2.796672     2.785492     2.774313     2.763134     2.751954     2.740775     2.729595     2.718416     2.707236     2.696057
      2.684877     2.673698     2.662519     2.651339     2.640160     2.628980     2.617801     2.606621     2.595442     2.584262
      2.573083     2.561903     2.550724     2.539545     2.528365     2.517186     2.506006     2.494827     2.483647     2.472468
      2.461288     2.450109     2.438930     2.427750     2.416571     2.405391     2.394212     2.383032     2.371853     2.360673
      2.349494     2.338315     2.327135     2.315956     2.304776     2.293597     2.282417     2.271238     2.260058     2.248879
      2.237700     2.226520     2.215341     2.204161     2.192982     2.181802     2.170623     2.159443     2.148264     2.137084
      2.125905     2.114726     2.103546     2.092367     2.081187     2.070008     2.058828     2.047649     2.036469     2.025290
      2.014111     2.002931     1.991752     1.980572     1.969393     1.958213     1.947034     1.935854     1.924675     1.913496
      1.902316     1.891137     1.879957     1.868778     1.857598     1.846419     1.835239     1.824060     1.812881     1.801701
      1.790522     1.779342     1.768163     1.756983     1.745804     1.734624     1.723445     1.712265     1.701086     1.689907
      1.678727     1.667548     1.656368     1.645189     1.634009     1.622830     1.611650     1.600471     1.589292     1.578112
      1.566933     1.555753     1.544574     1.533394     1.522215     1.511035     1.499856     1.488677     1.477497     1.466318
      1.455138     1.443959     1.432779     1.421600     1.410420     1.399241     1.388062     1.376882     1.365703     1.354523
      1.343344     1.332164     1.320985     1.309805     1.298626     1.287446     1.276267     1.265088     1.253908     1.242729
      1.231549     1.220370     1.209190     1.198011     1.186831     1.175652     1.164473     1.153293     1.142114     1.130934
      1.119755     1.108575     1.097396     1.086216     1.075037     1.063858     1.052678     1.041499     1.030319     1.019140
      1.007960     0.996781     0.985601     0.974422     0.963243     0.952063     0.940884     0.929704     0.918525     0.907345
      0.896166     0.884986     0.873807     0.862628     0.851448     0.840269     0.829089     0.817910     0.806730     0.795551
      0.784371     0.773192     0.762012     0.750833     0.739654     0.728474     0.717295     0.706115     0.694936     0.683756
      0.672577     0.661397     0.650218     0.639039     0.627859     0.616680     0.605500     0.594321     0.583141     0.571962
      0.560782     0.549603     0.538424     0.527244     0.516065     0.504885     0.493706     0.482526     0.471347     0.460167
      0.448988     0.437809     0.426629     0.415450     0.404270     0.393091     0.381911     0.370732     0.359552     0.348373
      0.337193     0.326014     0.314835     0.303655     0.292476     0.281296     0.270117     0.258937     0.247758     0.236578
      0.225399     0.214220     0.203040
 NY phased data points follow
   6.59490E-09  9.77932E-09  1.23292E-08  1.46402E-08  1.56608E-08  1.42062E-08  1.33823E-08  1.10230E-08  1.03609E-08  9.85395E-09
   8.90347E-09  9.06884E-09  9.04663E-09  9.53211E-09  9.97367E-09  9.97176E-09  1.08314E-08  1.10125E-08  1.16607E-08  1.13244E-08
   1.07861E-08  1.05706E-08  1.09954E-08  9.82930E-09  9.34547E-09  9.03120E-09  9.27212E-09  1.00818E-08  1.05576E-08  1.08025E-08
   9.30196E-09  8.58450E-09  8.64676E-09  9.41936E-09  1.02653E-08  1.21496E-08  1.30509E-08  1.14879E-08  1.04632E-08  9.29122E-09
   7.87009E-09  6.91724E-09  6.95048E-09  6.65755E-09  6.55062E-09  6.14198E-09  6.19667E-09  5.99543E-09  5.04669E-09  4.85249E-09
   4.44565E-09  4.24627E-09  4.77670E-09  4.53200E-09  5.13992E-09  5.53566E-09  4.65651E-09  4.03229E-09  3.76195E-09  3.62573E-09
   4.16416E-09  4.71289E-09  5.80676E-09  6.02892E-09  6.88120E-09  9.58824E-09  1.07022E-08  1.22436E-08  1.06128E-08  9.06459E-09
   7.23023E-09  6.06946E-09  5.42320E-09  5.10915E-09  3.90107E-09  4.00445E-09  4.25056E-09  3.33647E-09  3.47436E-09  3.95179E-09
   5.25739E-09  9.02965E-09  1.27584E-08  1.52981E-08  1.52492E-08  1.29443E-08  1.09660E-08  9.22949E-09  8.59436E-09  8.01156E-09
   7.60392E-09  7.56251E-09  6.69582E-09  6.16305E-09  6.07305E-09  4.93859E-09  4.81929E-09  4.48752E-09  3.59159E-09  3.61530E-09
   3.48152E-09  2.70647E-09  3.78297E-09  3.21921E-09  3.36102E-09  3.99530E-09  3.25772E-09  3.30915E-09  3.26541E-09  3.39044E-09
   2.46737E-09  2.18308E-09  1.85930E-09  1.36731E-09  1.01620E-09  1.84470E-09  2.87346E-09  2.66234E-09  2.61103E-09  2.68906E-09
   3.28611E-09  3.15587E-09  2.63303E-09  2.81826E-09  2.70945E-09  2.25364E-09  1.58567E-09  7.61598E-10  9.79340E-10  9.34124E-10
   7.77236E-10  1.59898E-09  1.89492E-09  1.72632E-09  1.64813E-09  1.90474E-09  2.21432E-09  2.07552E-09  1.48658E-09  1.61413E-09
   1.20765E-09  2.35756E-09  3.57437E-09  3.82359E-09  3.90220E-09  3.75636E-09  3.10533E-09  3.53820E-09  4.61917E-09  3.79252E-09
   4.45441E-09  4.22475E-09  3.85327E-09  3.55218E-09  4.03144E-09  3.69404E-09  3.30785E-09  3.01361E-09  4.12632E-09  3.62292E-09
   3.74004E-09  4.43976E-09  4.16227E-09  4.80509E-09  4.70362E-09  5.32105E-09  6.22694E-09  5.69710E-09  6.14782E-09  7.49996E-09
   8.39143E-09  1.08059E-08  1.36885E-08  1.70810E-08  1.92215E-08  1.68082E-08  1.30783E-08  1.01853E-08  7.92564E-09  6.45487E-09
   5.93014E-09  4.57559E-09  3.90905E-09  3.14111E-09  2.80368E-09  1.34678E-09  1.22805E-09  4.17587E-10 -4.67778E-10 -8.55743E-10
  -2.06058E-09 -2.24768E-09 -3.89609E-09 -4.28319E-09 -5.89413E-09 -6.85032E-09 -7.54822E-09 -8.81426E-09 -9.29554E-09 -1.07770E-08
  -1.13048E-08 -1.20852E-08 -1.28411E-08 -1.32585E-08 -1.33350E-08 -1.32687E-08 -1.28789E-08 -1.23807E-08 -1.17137E-08 -1.08299E-08
  -9.44391E-09 -8.27467E-09 -7.20098E-09 -6.06818E-09 -4.78720E-09 -3.35732E-09 -2.23222E-09 -1.58573E-09 -6.75210E-10 -5.48180E-10
   1.21962E-10 -5.03033E-10 -6.89253E-10 -1.07573E-09 -1.11733E-09 -1.10060E-09 -1.09593E-09 -1.55806E-09 -1.42892E-09 -1.29200E-09
  -7.42156E-10 -8.70971E-10 -8.41463E-10 -8.79154E-10 -6.66711E-10 -1.46524E-09 -2.21878E-09 -1.45187E-09 -8.90540E-10 -1.50208E-09
  -1.22251E-09 -5.92194E-10 -5.51422E-10 -6.68494E-10 -7.01563E-10 -1.38632E-09 -8.86685E-10 -1.22396E-09 -1.71338E-09 -1.19223E-09
  -1.24223E-09 -1.08312E-09 -6.98889E-10 -4.07386E-10 -4.85823E-10 -5.90878E-10 -2.79870E-10 -4.51808E-10 -3.70814E-10 -6.13679E-10
  -8.17469E-10 -1.01291E-09 -1.92552E-09 -1.20225E-09 -1.89070E-09 -1.51686E-09 -1.62008E-09 -7.84637E-10 -1.18521E-09 -9.59775E-10
   3.54096E-10  1.05592E-10 -4.47086E-10  7.92660E-12 -1.85407E-10  4.69592E-10  5.41301E-11 -7.11250E-11 -3.75581E-11 -2.43234E-10
  -7.97919E-10 -5.45527E-10 -8.18764E-10 -1.03634E-09 -1.22270E-09 -1.00290E-09 -8.02761E-10 -7.46188E-10 -1.65225E-09 -5.05493E-10
  -1.12877E-09 -9.85607E-10 -5.66925E-10 -1.02384E-09 -1.05725E-09 -8.07163E-10 -6.25128E-10 -1.03297E-09 -5.34070E-10 -6.30128E-10
  -1.89595E-10 -1.02235E-09 -4.82678E-10 -8.93441E-10 -2.65984E-10 -8.57429E-10 -2.10324E-10 -4.21199E-10 -5.95917E-10 -4.13976E-10
  -6.45289E-10 -4.89797E-10 -6.41247E-10  1.25254E-11 -4.82170E-10 -3.59239E-10 -4.58874E-10 -7.08032E-10  2.63611E-11  9.29475E-11
  -1.51490E-10 -3.87668E-10 -8.73216E-11 -3.29614E-10 -1.11827E-10 -3.16830E-10 -1.91216E-10 -7.02556E-11 -1.23219E-10  2.35063E-10
  -1.90359E-10 -3.84845E-10  2.50406E-11  4.34918E-11 -3.47073E-10  8.76961E-11  3.12203E-10 -7.29027E-11 -8.13142E-10 -1.90945E-10
  -2.50352E-10  4.80916E-10  2.15597E-10 -2.77971E-10  5.20241E-11  1.24874E-10 -2.60675E-11  3.53007E-12 -1.12623E-10  5.95170E-12
   1.80911E-11  8.99788E-12 -2.34520E-10  4.35580E-10  3.58334E-11 -2.20146E-10  3.33015E-10 -8.23004E-11  1.13266E-10  2.08706E-10
   9.69805E-11  2.51725E-10  3.34304E-10
 NY points of the fit to the data follow
   1.00314E-08  1.07560E-08  1.14979E-08  1.22048E-08  1.26282E-08  1.26237E-08  1.21160E-08  1.12641E-08  1.03524E-08  9.51106E-09
   9.14304E-09  9.09678E-09  9.18615E-09  9.39968E-09  9.71230E-09  1.01386E-08  1.06927E-08  1.13326E-08  1.18992E-08  1.23386E-08
   1.26421E-08  1.25238E-08  1.18424E-08  1.08303E-08  9.70789E-09  8.77206E-09  8.41063E-09  8.73230E-09  9.33725E-09  9.97248E-09
   1.02513E-08  1.01750E-08  1.00776E-08  9.89273E-09  9.73593E-09  1.00487E-08  1.04663E-08  1.06404E-08  1.04910E-08  1.00808E-08
   9.48364E-09  8.76128E-09  7.62150E-09  6.54583E-09  5.94201E-09  5.28247E-09  4.66964E-09  4.44197E-09  4.44435E-09  4.53823E-09
   4.63778E-09  4.68206E-09  4.67941E-09  4.66285E-09  4.69729E-09  4.81620E-09  4.98654E-09  5.12288E-09  5.11756E-09  5.01445E-09
   4.97646E-09  5.15535E-09  5.56899E-09  6.10627E-09  6.88495E-09  7.72763E-09  8.40635E-09  8.95614E-09  9.39699E-09  9.55424E-09
   9.35722E-09  8.73357E-09  7.82988E-09  6.91940E-09  5.97681E-09  5.08123E-09  4.83869E-09  5.29405E-09  6.00966E-09  7.10290E-09
   8.53948E-09  1.01276E-08  1.17069E-08  1.29252E-08  1.32933E-08  1.26343E-08  1.11000E-08  9.08058E-09  7.33722E-09  6.79105E-09
   6.69492E-09  6.65838E-09  6.47480E-09  6.03555E-09  5.64989E-09  5.30211E-09  4.74568E-09  4.27150E-09  3.97446E-09  3.68183E-09
   3.45486E-09  3.31422E-09  3.22757E-09  3.18686E-09  3.17264E-09  3.16831E-09  3.16152E-09  3.14256E-09  3.10545E-09  3.04923E-09
   2.97927E-09  2.90968E-09  2.85137E-09  2.77946E-09  2.71524E-09  2.68394E-09  2.66335E-09  2.64717E-09  2.63318E-09  2.62034E-09
   2.60808E-09  2.59601E-09  2.58381E-09  2.57127E-09  2.55819E-09  2.54443E-09  2.52985E-09  2.51435E-09  2.49783E-09  2.48020E-09
   2.46136E-09  2.44125E-09  2.41979E-09  2.39690E-09  2.37252E-09  2.34657E-09  2.31900E-09  2.28975E-09  2.25877E-09  2.22600E-09
   2.19140E-09  2.15495E-09  2.11661E-09  2.07636E-09  2.03422E-09  1.99019E-09  1.94427E-09  1.89649E-09  1.84684E-09  1.79538E-09
   1.74216E-09  1.68727E-09  1.63081E-09  1.57295E-09  1.51388E-09  1.45391E-09  1.39343E-09  1.33301E-09  1.27350E-09  1.21614E-09
   1.16283E-09  1.11670E-09  1.08315E-09  1.07238E-09  1.10669E-09  1.24760E-09  1.75232E-09  3.17176E-09  5.28378E-09  7.79775E-09
   1.06667E-08  1.37383E-08  1.65289E-08  1.82772E-08  1.82216E-08  1.59829E-08  1.18379E-08  6.79976E-09  2.57945E-09  6.57741E-10
  -6.90400E-11 -4.78088E-10 -7.63799E-10 -9.88115E-10 -1.17697E-09 -1.34312E-09 -1.49346E-09 -1.63202E-09 -1.76122E-09 -1.88260E-09
  -1.99710E-09 -2.10534E-09 -2.20766E-09 -2.30426E-09 -2.39524E-09 -2.48060E-09 -2.56034E-09 -2.63467E-09 -2.70378E-09 -2.76787E-09
  -2.82708E-09 -2.88157E-09 -2.93146E-09 -2.97688E-09 -3.01795E-09 -3.05476E-09 -3.08743E-09 -3.11605E-09 -3.14072E-09 -3.16153E-09
  -3.17857E-09 -3.19192E-09 -3.20168E-09 -3.20792E-09 -3.21072E-09 -3.21019E-09 -3.20637E-09 -3.19937E-09 -3.18926E-09 -3.17612E-09
  -3.16002E-09 -3.14104E-09 -3.11926E-09 -3.09476E-09 -3.06762E-09 -3.03799E-09 -3.00599E-09 -2.97175E-09 -2.93542E-09 -2.89712E-09
  -2.85700E-09 -2.81517E-09 -2.77179E-09 -2.72698E-09 -2.68086E-09 -2.63359E-09 -2.58528E-09 -2.53607E-09 -2.48609E-09 -2.43549E-09
  -2.38438E-09 -2.33291E-09 -2.28120E-09 -2.22939E-09 -2.17760E-09 -2.12597E-09 -2.07464E-09 -2.02373E-09 -1.97338E-09 -1.92373E-09
  -1.87488E-09 -1.82700E-09 -1.78014E-09 -1.73430E-09 -1.68945E-09 -1.64560E-09 -1.60272E-09 -1.56081E-09 -1.51984E-09 -1.47980E-09
  -1.44069E-09 -1.40248E-09 -1.36517E-09 -1.32873E-09 -1.29316E-09 -1.25845E-09 -1.22456E-09 -1.19151E-09 -1.15928E-09 -1.12783E-09
  -1.09717E-09 -1.06728E-09 -1.03814E-09 -1.00974E-09 -9.82084E-10 -9.55125E-10 -9.28878E-10 -9.03314E-10 -8.78427E-10 -8.54194E-10
  -8.30604E-10 -8.07643E-10 -7.85289E-10 -7.63521E-10 -7.42332E-10 -7.21693E-10 -7.01595E-10 -6.82014E-10 -6.62933E-10 -6.44341E-10
  -6.26213E-10 -6.08534E-10 -5.91285E-10 -5.74449E-10 -5.58011E-10 -5.41948E-10 -5.26247E-10 -5.10887E-10 -4.95858E-10 -4.81126E-10
  -4.66692E-10 -4.52525E-10 -4.38611E-10 -4.24940E-10 -4.11485E-10 -3.98229E-10 -3.85161E-10 -3.72253E-10 -3.59505E-10 -3.46910E-10
  -3.34465E-10 -3.22167E-10 -3.10013E-10 -2.97994E-10 -2.86111E-10 -2.74358E-10 -2.62732E-10 -2.51229E-10 -2.39846E-10 -2.28576E-10
  -2.17421E-10 -2.06370E-10 -1.95422E-10 -1.84578E-10 -1.73826E-10 -1.63171E-10 -1.52601E-10 -1.42116E-10 -1.31712E-10 -1.21388E-10
  -1.11132E-10 -1.00948E-10 -9.08270E-11 -8.07698E-11 -7.07713E-11 -6.08233E-11 -5.09277E-11 -4.10819E-11 -3.12817E-11 -2.15254E-11
  -1.18111E-11 -2.13457E-12  7.50555E-12  1.71123E-11  2.66855E-11  3.62327E-11  4.57505E-11  5.52448E-11  6.47170E-11  7.41703E-11
   8.36080E-11  9.30295E-11  1.02440E-10  1.11841E-10  1.21234E-10  1.30623E-10  1.40010E-10  1.49398E-10  1.58789E-10  1.68183E-10
   1.77586E-10  1.86997E-10  1.96424E-10
 NY background values follow
     1.231E-09    1.228E-09    1.225E-09    1.222E-09    1.218E-09    1.215E-09    1.212E-09    1.209E-09    1.206E-09    1.203E-09
     1.200E-09    1.197E-09    1.194E-09    1.191E-09    1.188E-09    1.185E-09    1.182E-09    1.180E-09    1.177E-09    1.175E-09
     1.172E-09    1.170E-09    1.168E-09    1.166E-09    1.164E-09    1.162E-09    1.161E-09    1.159E-09    1.158E-09    1.156E-09
     1.155E-09    1.154E-09    1.154E-09    1.153E-09    1.153E-09    1.153E-09    1.153E-09    1.153E-09    1.153E-09    1.154E-09
     1.155E-09    1.156E-09    1.157E-09    1.158E-09    1.160E-09    1.162E-09    1.165E-09    1.167E-09    1.170E-09    1.173E-09
     1.177E-09    1.180E-09    1.184E-09    1.189E-09    1.193E-09    1.198E-09    1.203E-09    1.209E-09    1.215E-09    1.221E-09
     1.228E-09    1.234E-09    1.242E-09    1.249E-09    1.257E-09    1.265E-09    1.273E-09    1.281E-09    1.290E-09    1.299E-09
     1.308E-09    1.318E-09    1.328E-09    1.337E-09    1.348E-09    1.358E-09    1.368E-09    1.379E-09    1.390E-09    1.401E-09
     1.412E-09    1.424E-09    1.435E-09    1.447E-09    1.459E-09    1.470E-09    1.482E-09    1.495E-09    1.507E-09    1.519E-09
     1.531E-09    1.543E-09    1.555E-09    1.567E-09    1.579E-09    1.590E-09    1.602E-09    1.613E-09    1.624E-09    1.635E-09
     1.645E-09    1.655E-09    1.665E-09    1.674E-09    1.683E-09    1.692E-09    1.700E-09    1.707E-09    1.714E-09    1.721E-09
     1.727E-09    1.732E-09    1.736E-09    1.740E-09    1.744E-09    1.746E-09    1.748E-09    1.748E-09    1.748E-09    1.747E-09
     1.745E-09    1.741E-09    1.737E-09    1.731E-09    1.724E-09    1.716E-09    1.707E-09    1.696E-09    1.683E-09    1.669E-09
     1.654E-09    1.637E-09    1.618E-09    1.598E-09    1.575E-09    1.551E-09    1.526E-09    1.498E-09    1.468E-09    1.436E-09
     1.402E-09    1.366E-09    1.328E-09    1.288E-09    1.246E-09    1.201E-09    1.154E-09    1.105E-09    1.054E-09    1.000E-09
     9.442E-10    8.859E-10    8.251E-10    7.620E-10    6.964E-10    6.284E-10    5.579E-10    4.849E-10    4.094E-10    3.313E-10
     2.506E-10    1.673E-10    8.143E-11   -7.148E-12   -9.840E-11   -1.924E-10   -2.891E-10   -3.885E-10   -4.907E-10   -5.954E-10
    -7.025E-10   -8.115E-10   -9.222E-10   -1.034E-09   -1.148E-09   -1.262E-09   -1.377E-09   -1.493E-09   -1.608E-09   -1.724E-09
    -1.839E-09   -1.953E-09   -2.067E-09   -2.179E-09   -2.290E-09   -2.399E-09   -2.506E-09   -2.611E-09   -2.713E-09   -2.812E-09
    -2.909E-09   -3.002E-09   -3.091E-09   -3.177E-09   -3.258E-09   -3.335E-09   -3.408E-09   -3.476E-09   -3.539E-09   -3.598E-09
    -3.653E-09   -3.703E-09   -3.749E-09   -3.791E-09   -3.829E-09   -3.863E-09   -3.893E-09   -3.919E-09   -3.942E-09   -3.960E-09
    -3.976E-09   -3.987E-09   -3.995E-09   -4.000E-09   -4.001E-09   -3.999E-09   -3.994E-09   -3.986E-09   -3.975E-09   -3.960E-09
    -3.943E-09   -3.923E-09   -3.900E-09   -3.875E-09   -3.847E-09   -3.817E-09   -3.784E-09   -3.749E-09   -3.712E-09   -3.673E-09
    -3.632E-09   -3.590E-09   -3.546E-09   -3.500E-09   -3.453E-09   -3.406E-09   -3.357E-09   -3.307E-09   -3.257E-09   -3.205E-09
    -3.154E-09   -3.102E-09   -3.050E-09   -2.997E-09   -2.945E-09   -2.893E-09   -2.841E-09   -2.790E-09   -2.739E-09   -2.689E-09
    -2.640E-09   -2.592E-09   -2.545E-09   -2.498E-09   -2.453E-09   -2.409E-09   -2.366E-09   -2.324E-09   -2.282E-09   -2.242E-09
    -2.202E-09   -2.164E-09   -2.126E-09   -2.089E-09   -2.054E-09   -2.019E-09   -1.984E-09   -1.951E-09   -1.918E-09   -1.887E-09
    -1.856E-09   -1.826E-09   -1.796E-09   -1.767E-09   -1.740E-09   -1.712E-09   -1.686E-09   -1.660E-09   -1.635E-09   -1.610E-09
    -1.586E-09   -1.563E-09   -1.540E-09   -1.518E-09   -1.497E-09   -1.476E-09   -1.456E-09   -1.436E-09   -1.416E-09   -1.397E-09
    -1.379E-09   -1.361E-09   -1.343E-09   -1.326E-09   -1.310E-09   -1.293E-09   -1.277E-09   -1.262E-09   -1.246E-09   -1.231E-09
    -1.217E-09   -1.202E-09   -1.188E-09   -1.174E-09   -1.160E-09   -1.147E-09   -1.133E-09   -1.120E-09   -1.107E-09   -1.094E-09
    -1.081E-09   -1.069E-09   -1.056E-09   -1.044E-09   -1.032E-09   -1.020E-09   -1.008E-09   -9.959E-10   -9.842E-10   -9.726E-10
    -9.611E-10   -9.498E-10   -9.385E-10   -9.273E-10   -9.162E-10   -9.052E-10   -8.943E-10   -8.835E-10   -8.728E-10   -8.621E-10
    -8.515E-10   -8.410E-10   -8.305E-10   -8.201E-10   -8.098E-10   -7.995E-10   -7.892E-10   -7.790E-10   -7.689E-10   -7.588E-10
    -7.487E-10   -7.386E-10   -7.286E-10   -7.187E-10   -7.087E-10   -6.988E-10   -6.889E-10   -6.790E-10   -6.692E-10   -6.593E-10
    -6.495E-10   -6.397E-10   -6.299E-10   -6.201E-10   -6.103E-10   -6.005E-10   -5.907E-10   -5.809E-10   -5.711E-10   -5.613E-10
    -5.515E-10   -5.417E-10   -5.318E-10
 Ala      Conc. = 7.05E-11
   1.28128E-09  1.28390E-09  1.28504E-09  1.28482E-09  1.28291E-09  1.27925E-09  1.27309E-09  1.26393E-09  1.25560E-09  1.24735E-09
   1.23529E-09  1.22510E-09  1.21805E-09  1.21017E-09  1.20316E-09  1.19791E-09  1.19359E-09  1.18983E-09  1.18645E-09  1.18337E-09
   1.18052E-09  1.17787E-09  1.17541E-09  1.17312E-09  1.17099E-09  1.16903E-09  1.16723E-09  1.16558E-09  1.16409E-09  1.16277E-09
   1.16162E-09  1.16064E-09  1.15984E-09  1.15922E-09  1.15879E-09  1.15855E-09  1.15852E-09  1.15869E-09  1.15907E-09  1.15967E-09
   1.16049E-09  1.16154E-09  1.16284E-09  1.16437E-09  1.16616E-09  1.16819E-09  1.17050E-09  1.17307E-09  1.17591E-09  1.17904E-09
   1.18246E-09  1.18617E-09  1.19019E-09  1.19451E-09  1.19915E-09  1.20411E-09  1.20939E-09  1.21501E-09  1.22095E-09  1.22720E-09
   1.23377E-09  1.24063E-09  1.24780E-09  1.25525E-09  1.26299E-09  1.27100E-09  1.27928E-09  1.28783E-09  1.29662E-09  1.30567E-09
   1.31496E-09  1.32449E-09  1.33425E-09  1.34423E-09  1.35443E-09  1.36484E-09  1.37545E-09  1.38627E-09  1.39728E-09  1.40848E-09
   1.41987E-09  1.43143E-09  1.44317E-09  1.45509E-09  1.46718E-09  1.47943E-09  1.49183E-09  1.50434E-09  1.51697E-09  1.52970E-09
   1.54253E-09  1.55545E-09  1.56850E-09  1.58170E-09  1.59514E-09  1.60896E-09  1.62342E-09  1.63907E-09  1.65715E-09  1.68163E-09
   1.71969E-09  1.76088E-09  1.80613E-09  1.86561E-09  1.93015E-09  1.98931E-09  2.03441E-09  2.05839E-09  2.05729E-09  2.03173E-09
   1.98840E-09  1.94215E-09  1.90427E-09  1.85023E-09  1.80164E-09  1.78405E-09  1.77572E-09  1.77056E-09  1.76650E-09  1.76262E-09
   1.75843E-09  1.75363E-09  1.74802E-09  1.74146E-09  1.73383E-09  1.72503E-09  1.71499E-09  1.70362E-09  1.69087E-09  1.67667E-09
   1.66096E-09  1.64367E-09  1.62475E-09  1.60415E-09  1.58181E-09  1.55767E-09  1.53169E-09  1.50380E-09  1.47396E-09  1.44211E-09
   1.40820E-09  1.37220E-09  1.33407E-09  1.29381E-09  1.25137E-09  1.20674E-09  1.15989E-09  1.11079E-09  1.05941E-09  1.00574E-09
   9.49751E-10  8.91410E-10  8.30701E-10  7.67597E-10  7.02076E-10  6.34113E-10  5.63691E-10  4.90785E-10  4.15383E-10  3.37467E-10
   2.57030E-10  1.74078E-10  8.86453E-11  7.89439E-13 -8.92837E-11 -1.80997E-10 -2.71795E-10 -3.54824E-10 -4.35319E-10 -5.15042E-10
  -5.93574E-10 -6.72360E-10 -7.56377E-10 -8.53085E-10 -9.69403E-10 -1.10786E-09 -1.26432E-09 -1.42768E-09 -1.58017E-09 -1.70630E-09
  -1.82560E-09 -1.94223E-09 -2.05705E-09 -2.17023E-09 -2.28167E-09 -2.39121E-09 -2.49864E-09 -2.60373E-09 -2.70622E-09 -2.80588E-09
  -2.90243E-09 -2.99563E-09 -3.08521E-09 -3.17090E-09 -3.25244E-09 -3.32958E-09 -3.40210E-09 -3.47005E-09 -3.53350E-09 -3.59252E-09
  -3.64718E-09 -3.69756E-09 -3.74373E-09 -3.78577E-09 -3.82374E-09 -3.85772E-09 -3.88778E-09 -3.91400E-09 -3.93645E-09 -3.95519E-09
  -3.97032E-09 -3.98188E-09 -3.98997E-09 -3.99465E-09 -3.99599E-09 -3.99408E-09 -3.98897E-09 -3.98074E-09 -3.96948E-09 -3.95524E-09
  -3.93810E-09 -3.91814E-09 -3.89542E-09 -3.87002E-09 -3.84203E-09 -3.81158E-09 -3.77880E-09 -3.74382E-09 -3.70677E-09 -3.66779E-09
  -3.62700E-09 -3.58454E-09 -3.54055E-09 -3.49514E-09 -3.44845E-09 -3.40062E-09 -3.35177E-09 -3.30205E-09 -3.25156E-09 -3.20047E-09
  -3.14889E-09 -3.09695E-09 -3.04479E-09 -2.99254E-09 -2.94032E-09 -2.88828E-09 -2.83653E-09 -2.78522E-09 -2.73448E-09 -2.68444E-09
  -2.63522E-09 -2.58697E-09 -2.53974E-09 -2.49353E-09 -2.44834E-09 -2.40414E-09 -2.36091E-09 -2.31866E-09 -2.27736E-09 -2.23699E-09
  -2.19755E-09 -2.15902E-09 -2.12139E-09 -2.08464E-09 -2.04876E-09 -2.01374E-09 -1.97954E-09 -1.94619E-09 -1.91365E-09 -1.88191E-09
  -1.85094E-09 -1.82076E-09 -1.79132E-09 -1.76263E-09 -1.73468E-09 -1.70743E-09 -1.68089E-09 -1.65504E-09 -1.62986E-09 -1.60534E-09
  -1.58146E-09 -1.55822E-09 -1.53557E-09 -1.51352E-09 -1.49205E-09 -1.47112E-09 -1.45074E-09 -1.43087E-09 -1.41150E-09 -1.39262E-09
  -1.37421E-09 -1.35624E-09 -1.33871E-09 -1.32159E-09 -1.30486E-09 -1.28851E-09 -1.27252E-09 -1.25687E-09 -1.24155E-09 -1.22653E-09
  -1.21180E-09 -1.19734E-09 -1.18313E-09 -1.16917E-09 -1.15541E-09 -1.14186E-09 -1.12849E-09 -1.11529E-09 -1.10224E-09 -1.08934E-09
  -1.07659E-09 -1.06399E-09 -1.05153E-09 -1.03920E-09 -1.02701E-09 -1.01495E-09 -1.00301E-09 -9.91192E-10 -9.79494E-10 -9.67907E-10
  -9.56433E-10 -9.45062E-10 -9.33792E-10 -9.22624E-10 -9.11546E-10 -9.00563E-10 -8.89664E-10 -8.78847E-10 -8.68109E-10 -8.57450E-10
  -8.46856E-10 -8.36332E-10 -8.25870E-10 -8.15469E-10 -8.05125E-10 -7.94829E-10 -7.84583E-10 -7.74384E-10 -7.64229E-10 -7.54116E-10
  -7.44042E-10 -7.34004E-10 -7.24000E-10 -7.14027E-10 -7.04085E-10 -6.94167E-10 -6.84276E-10 -6.74406E-10 -6.64555E-10 -6.54721E-10
  -6.44899E-10 -6.35091E-10 -6.25291E-10 -6.15499E-10 -6.05710E-10 -5.95925E-10 -5.86138E-10 -5.76347E-10 -5.66550E-10 -5.56748E-10
  -5.46934E-10 -5.37108E-10 -5.27264E-10
 Asp      Conc. = 4.21E-10
   1.74599E-09  1.68453E-09  1.62279E-09  1.54966E-09  1.47641E-09  1.39724E-09  1.33332E-09  1.28819E-09  1.26570E-09  1.25197E-09
   1.24266E-09  1.23599E-09  1.23103E-09  1.22708E-09  1.22353E-09  1.22030E-09  1.21743E-09  1.21488E-09  1.21262E-09  1.21065E-09
   1.20896E-09  1.20754E-09  1.20641E-09  1.20559E-09  1.20508E-09  1.20494E-09  1.20520E-09  1.20592E-09  1.20716E-09  1.20903E-09
   1.21166E-09  1.21525E-09  1.22008E-09  1.22661E-09  1.23565E-09  1.24889E-09  1.27017E-09  1.29625E-09  1.32975E-09  1.36450E-09
   1.39756E-09  1.42721E-09  1.45423E-09  1.48198E-09  1.51225E-09  1.55772E-09  1.60984E-09  1.67693E-09  1.78041E-09  1.89137E-09
   1.98165E-09  2.01169E-09  1.97116E-09  1.87195E-09  1.75151E-09  1.65333E-09  1.58910E-09  1.55951E-09  1.50623E-09  1.44486E-09
   1.42097E-09  1.41466E-09  1.41378E-09  1.41993E-09  1.41861E-09  1.40097E-09  1.37699E-09  1.36661E-09  1.36307E-09  1.36334E-09
   1.36602E-09  1.37039E-09  1.37600E-09  1.38258E-09  1.38994E-09  1.39795E-09  1.40650E-09  1.41551E-09  1.42494E-09  1.43473E-09
   1.44483E-09  1.45524E-09  1.46590E-09  1.47681E-09  1.48794E-09  1.49926E-09  1.51074E-09  1.52234E-09  1.53403E-09  1.54576E-09
   1.55752E-09  1.56926E-09  1.58096E-09  1.59258E-09  1.60410E-09  1.61547E-09  1.62669E-09  1.63770E-09  1.64849E-09  1.65902E-09
   1.66927E-09  1.67920E-09  1.68878E-09  1.69800E-09  1.70681E-09  1.71519E-09  1.72311E-09  1.73054E-09  1.73746E-09  1.74384E-09
   1.74964E-09  1.75484E-09  1.75940E-09  1.76329E-09  1.76646E-09  1.76885E-09  1.77041E-09  1.77109E-09  1.77084E-09  1.76961E-09
   1.76734E-09  1.76398E-09  1.75949E-09  1.75380E-09  1.74687E-09  1.73865E-09  1.72908E-09  1.71812E-09  1.70571E-09  1.69180E-09
   1.67634E-09  1.65928E-09  1.64056E-09  1.62014E-09  1.59796E-09  1.57397E-09  1.54813E-09  1.52037E-09  1.49066E-09  1.45894E-09
   1.42514E-09  1.38926E-09  1.35127E-09  1.31113E-09  1.26883E-09  1.22433E-09  1.17763E-09  1.12869E-09  1.07750E-09  1.02403E-09
   9.68261E-10  9.10173E-10  8.49753E-10  7.86983E-10  7.21854E-10  6.54355E-10  5.84491E-10  5.12264E-10  4.37706E-10  3.60855E-10
   2.81799E-10  2.00688E-10  1.17811E-10  3.36953E-11 -5.04429E-11 -1.31329E-10 -1.95779E-10 -1.99465E-10 -1.72819E-10 -1.28875E-10
  -6.64368E-11  5.72836E-12  5.76918E-11  4.37926E-11 -7.98307E-11 -3.31910E-10 -6.91551E-10 -1.09619E-09 -1.44274E-09 -1.62809E-09
  -1.76962E-09 -1.89759E-09 -2.01919E-09 -2.13681E-09 -2.25135E-09 -2.36316E-09 -2.47230E-09 -2.57872E-09 -2.68228E-09 -2.78279E-09
  -2.88005E-09 -2.97383E-09 -3.06391E-09 -3.15002E-09 -3.23193E-09 -3.30938E-09 -3.38218E-09 -3.45037E-09 -3.51403E-09 -3.57324E-09
  -3.62807E-09 -3.67860E-09 -3.72491E-09 -3.76707E-09 -3.80515E-09 -3.83924E-09 -3.86939E-09 -3.89570E-09 -3.91822E-09 -3.93704E-09
  -3.95223E-09 -3.96386E-09 -3.97201E-09 -3.97674E-09 -3.97813E-09 -3.97627E-09 -3.97120E-09 -3.96302E-09 -3.95179E-09 -3.93759E-09
  -3.92048E-09 -3.90055E-09 -3.87787E-09 -3.85250E-09 -3.82454E-09 -3.79412E-09 -3.76136E-09 -3.72640E-09 -3.68938E-09 -3.65042E-09
