 LCModel (Version 6.3-1R) Copyright: S.W. Provencher.          Ref.: Magn. Reson. Med. 30:672-679 (1993).                
 onepulse 22x20_ftSpec_smooth_lcm
 26 lines in following concentration table = NCONC+1
    Conc.  %SD   /Cr    Metabolite                                         
 6.02E-11 319%   0.000 Ala                                                 
 4.04E-10  97%   0.000 Asp                                                 
    0.000 999%   0.000 Cr                                                  
 2.67E-09  12%   0.000 GABA                                                
 1.79E-09  17%   0.000 Glc                                                 
    0.000 999%   0.000 Gln                                                 
 4.87E-10  75%   0.000 Glu                                                 
    0.000 999%   0.000 Glyc                                                
    0.000 999%   0.000 GPC                                                 
 1.00E-10 212%   0.000 GSH                                                 
 1.87E-10 116%   0.000 Ins                                                 
    0.000 999%   0.000 Lac                                                 
    0.000 999%   0.000 NAAG                                                
 1.11E-09  15%   0.000 NAA                                                 
 1.24E-10  41%   0.000 PCh                                                 
    0.000 999%   0.000 PCr                                                 
    0.000 999%   0.000 PE                                                  
    0.000 999%   0.000 Scyllo                                              
    0.000 999%   0.000 Ser                                                 
    0.000 999%   0.000 Tau                                                 
 1.24E-10  41%   0.000 GPC+PCh                                             
 1.11E-09  15%   0.000 NAA+NAAG                                            
 1.87E-10 116%   0.000 Ins+Glyc                                            
    0.000 999%   0.000 Cr+PCr                                              
 4.87E-10  75%   0.000 Glu+Gln                                             
   6 lines in following misc. output table
  FWHM = 0.078 ppm    S/N =   4                                            
  Data shift = 0.324 ppm                                                   
  Ph:  38 deg      27.4 deg/ppm                                            
  alphaB,S = 1.6E-01,   1.2E+02                                            
   16 spline knots.   Ns = 5(1)                                            
  ( 9) 2 infls.   ( 3) 1 extrs.                                            
  363 points on ppm-axis = NY
      4.250000     4.238821     4.227641     4.216462     4.205282     4.194103     4.182923     4.171744     4.160564     4.149385
      4.138206     4.127026     4.115847     4.104667     4.093488     4.082308     4.071129     4.059949     4.048770     4.037591
      4.026411     4.015232     4.004052     3.992873     3.981693     3.970514     3.959334     3.948155     3.936975     3.925796
      3.914617     3.903437     3.892258     3.881078     3.869899     3.858719     3.847540     3.836360     3.825181     3.814002
      3.802822     3.791643     3.780463     3.769284     3.758104     3.746925     3.735745     3.724566     3.713387     3.702207
      3.691028     3.679848     3.668669     3.657489     3.646310     3.635130     3.623951     3.612772     3.601592     3.590413
      3.579233     3.568054     3.556874     3.545695     3.534515     3.523336     3.512156     3.500977     3.489798     3.478618
      3.467439     3.456259     3.445080     3.433900     3.422721     3.411541     3.400362     3.389183     3.378003     3.366824
      3.355644     3.344465     3.333285     3.322106     3.310926     3.299747     3.288568     3.277388     3.266209     3.255029
      3.243850     3.232670     3.221491     3.210311     3.199132     3.187953     3.176773     3.165594     3.154414     3.143235
      3.132055     3.120876     3.109696     3.098517     3.087337     3.076158     3.064979     3.053799     3.042620     3.031440
      3.020261     3.009081     2.997902     2.986722     2.975543     2.964364     2.953184     2.942005     2.930825     2.919646
      2.908466     2.897287     2.886107     2.874928     2.863749     2.852569     2.841390     2.830210     2.819031     2.807851
      2.796672     2.785492     2.774313     2.763134     2.751954     2.740775     2.729595     2.718416     2.707236     2.696057
      2.684877     2.673698     2.662519     2.651339     2.640160     2.628980     2.617801     2.606621     2.595442     2.584262
      2.573083     2.561903     2.550724     2.539545     2.528365     2.517186     2.506006     2.494827     2.483647     2.472468
      2.461288     2.450109     2.438930     2.427750     2.416571     2.405391     2.394212     2.383032     2.371853     2.360673
      2.349494     2.338315     2.327135     2.315956     2.304776     2.293597     2.282417     2.271238     2.260058     2.248879
      2.237700     2.226520     2.215341     2.204161     2.192982     2.181802     2.170623     2.159443     2.148264     2.137084
      2.125905     2.114726     2.103546     2.092367     2.081187     2.070008     2.058828     2.047649     2.036469     2.025290
      2.014111     2.002931     1.991752     1.980572     1.969393     1.958213     1.947034     1.935854     1.924675     1.913496
      1.902316     1.891137     1.879957     1.868778     1.857598     1.846419     1.835239     1.824060     1.812881     1.801701
      1.790522     1.779342     1.768163     1.756983     1.745804     1.734624     1.723445     1.712265     1.701086     1.689907
      1.678727     1.667548     1.656368     1.645189     1.634009     1.622830     1.611650     1.600471     1.589292     1.578112
      1.566933     1.555753     1.544574     1.533394     1.522215     1.511035     1.499856     1.488677     1.477497     1.466318
      1.455138     1.443959     1.432779     1.421600     1.410420     1.399241     1.388062     1.376882     1.365703     1.354523
      1.343344     1.332164     1.320985     1.309805     1.298626     1.287446     1.276267     1.265088     1.253908     1.242729
      1.231549     1.220370     1.209190     1.198011     1.186831     1.175652     1.164473     1.153293     1.142114     1.130934
      1.119755     1.108575     1.097396     1.086216     1.075037     1.063858     1.052678     1.041499     1.030319     1.019140
      1.007960     0.996781     0.985601     0.974422     0.963243     0.952063     0.940884     0.929704     0.918525     0.907345
      0.896166     0.884986     0.873807     0.862628     0.851448     0.840269     0.829089     0.817910     0.806730     0.795551
      0.784371     0.773192     0.762012     0.750833     0.739654     0.728474     0.717295     0.706115     0.694936     0.683756
      0.672577     0.661397     0.650218     0.639039     0.627859     0.616680     0.605500     0.594321     0.583141     0.571962
      0.560782     0.549603     0.538424     0.527244     0.516065     0.504885     0.493706     0.482526     0.471347     0.460167
      0.448988     0.437809     0.426629     0.415450     0.404270     0.393091     0.381911     0.370732     0.359552     0.348373
      0.337193     0.326014     0.314835     0.303655     0.292476     0.281296     0.270117     0.258937     0.247758     0.236578
      0.225399     0.214220     0.203040
 NY phased data points follow
   3.59673E-09  5.55106E-09  8.06258E-09  1.02503E-08  1.15073E-08  1.13043E-08  9.45629E-09  8.94405E-09  7.67401E-09  6.57483E-09
   6.55013E-09  5.90946E-09  5.91508E-09  6.42664E-09  7.00012E-09  7.13260E-09  7.23946E-09  8.50271E-09  8.44747E-09  8.67928E-09
   8.20440E-09  8.19273E-09  7.71354E-09  8.18031E-09  6.80318E-09  7.05969E-09  6.85374E-09  8.25174E-09  8.47746E-09  8.49207E-09
   7.54260E-09  7.17688E-09  6.90727E-09  8.04474E-09  8.85792E-09  1.10608E-08  1.09960E-08  1.06835E-08  8.95559E-09  7.78430E-09
   6.42894E-09  6.10522E-09  5.82664E-09  4.84918E-09  5.53006E-09  5.09266E-09  4.59308E-09  4.90517E-09  5.00929E-09  4.09230E-09
   3.30935E-09  3.24999E-09  4.26885E-09  3.97194E-09  4.85615E-09  4.67327E-09  3.99648E-09  3.63420E-09  3.56878E-09  3.32041E-09
   3.36847E-09  4.51394E-09  4.73279E-09  5.42260E-09  6.57387E-09  8.98334E-09  1.11697E-08  1.26544E-08  1.10330E-08  9.50748E-09
   7.31075E-09  5.87161E-09  5.21264E-09  4.71065E-09  3.35453E-09  3.80715E-09  3.27771E-09  2.89421E-09  3.42681E-09  4.23279E-09
   5.06976E-09  8.34164E-09  1.15420E-08  1.46658E-08  1.34228E-08  1.09533E-08  9.63041E-09  8.20568E-09  7.81399E-09  7.11569E-09
   6.34998E-09  6.60925E-09  5.21133E-09  5.71116E-09  5.26690E-09  4.82882E-09  4.31871E-09  3.55409E-09  4.08521E-09  3.39763E-09
   2.85268E-09  3.13283E-09  3.20638E-09  3.48653E-09  3.27670E-09  3.80690E-09  2.97703E-09  3.41271E-09  3.54094E-09  3.34537E-09
   3.01140E-09  2.78162E-09  1.91688E-09  1.91015E-09  2.38733E-09  2.96845E-09  3.53945E-09  3.02817E-09  3.66272E-09  3.93285E-09
   3.75872E-09  4.01088E-09  3.55726E-09  3.60582E-09  3.15375E-09  2.55308E-09  1.76666E-09  2.24391E-09  1.73144E-09  1.54133E-09
   1.55576E-09  3.34648E-09  2.47548E-09  2.44592E-09  2.97074E-09  3.43937E-09  2.55215E-09  2.71374E-09  2.14128E-09  2.50049E-09
   2.27885E-09  3.49362E-09  3.93044E-09  4.39728E-09  4.78724E-09  4.47784E-09  3.72412E-09  4.54342E-09  4.49140E-09  4.45404E-09
   4.90857E-09  4.82926E-09  3.65180E-09  4.49491E-09  4.43682E-09  4.16077E-09  4.29512E-09  4.36423E-09  4.42451E-09  4.93554E-09
   5.42917E-09  5.75389E-09  5.63268E-09  5.99807E-09  6.07926E-09  6.50591E-09  6.81565E-09  7.50868E-09  7.66034E-09  8.59478E-09
   1.07565E-08  1.27334E-08  1.48605E-08  1.66635E-08  1.74097E-08  1.46172E-08  1.11544E-08  7.80027E-09  5.90931E-09  4.41513E-09
   4.68304E-09  3.40181E-09  3.21354E-09  2.09260E-09  1.99496E-09  1.77149E-09  9.84201E-10  1.05045E-09  3.44047E-11 -2.65272E-11
  -6.23504E-10 -1.04098E-09 -2.01083E-09 -2.03949E-09 -3.43024E-09 -3.03343E-09 -4.90236E-09 -5.16587E-09 -6.68931E-09 -7.63169E-09
  -8.32752E-09 -8.91618E-09 -1.04329E-08 -1.10164E-08 -1.16126E-08 -1.17129E-08 -1.24932E-08 -1.22090E-08 -1.17716E-08 -1.16583E-08
  -1.10696E-08 -1.04105E-08 -8.80423E-09 -7.38401E-09 -6.88242E-09 -4.94227E-09 -4.22246E-09 -2.78509E-09 -2.43113E-09 -1.54186E-09
  -1.43611E-09 -1.35216E-09 -1.65671E-09 -2.03534E-09 -1.70195E-09 -2.26910E-09 -2.87218E-09 -1.88797E-09 -2.35777E-09 -1.85481E-09
  -1.84884E-09 -1.71257E-09 -1.54464E-09 -2.22132E-09 -1.31504E-09 -2.48014E-09 -2.62568E-09 -2.25599E-09 -2.18969E-09 -1.89882E-09
  -2.17559E-09 -1.49342E-09 -1.28302E-09 -1.13247E-09 -1.81854E-09 -2.03319E-09 -1.72852E-09 -2.33838E-09 -2.16303E-09 -2.20467E-09
  -1.75987E-09 -1.52291E-09 -1.45214E-09 -1.28679E-09 -1.26111E-09 -1.46013E-09 -8.84780E-10 -1.48733E-09 -1.21202E-09 -2.04543E-09
  -1.50559E-09 -1.55345E-09 -1.84186E-09 -2.80073E-09 -2.24924E-09 -2.34164E-09 -1.63934E-09 -1.53792E-09 -1.50223E-09 -1.20776E-09
  -5.25915E-10 -7.05351E-10 -7.81373E-10 -3.41504E-10 -9.51884E-10 -1.14182E-09 -4.98522E-10 -1.11330E-09 -1.17345E-09 -2.06654E-09
  -1.70051E-09 -1.80146E-09 -1.70855E-09 -1.90674E-09 -1.41486E-09 -2.21838E-09 -1.56493E-09 -1.86047E-09 -1.09183E-09 -1.49224E-09
  -1.00241E-09 -1.08731E-09 -1.74472E-09 -1.09723E-09 -1.01160E-09 -1.10655E-09 -1.66145E-09 -9.86349E-10 -1.32383E-09 -1.62633E-09
  -1.69134E-09 -1.15235E-09 -1.32132E-09 -1.34388E-09 -1.22494E-09 -9.89638E-10 -8.09319E-10 -1.40745E-09 -1.02247E-09 -9.57620E-10
  -1.24313E-09 -1.23716E-09 -1.18462E-09 -9.47666E-10 -6.14083E-10 -1.08524E-09 -1.15462E-09 -1.03416E-09 -8.12790E-10 -1.37780E-09
  -7.26331E-10 -1.50038E-09 -1.21774E-09 -7.90934E-10 -1.03500E-09 -7.31292E-10 -1.08453E-09 -1.13237E-09 -6.83106E-10 -1.46686E-09
  -7.60489E-10 -6.16431E-10 -1.28194E-09 -1.38040E-09 -7.38809E-10 -9.11841E-10 -6.92500E-10 -1.37563E-09 -1.33574E-09 -7.58194E-10
  -1.06143E-09 -8.82901E-10 -1.12912E-09 -3.85361E-10 -9.17664E-10 -1.00959E-09 -2.40204E-10 -1.45761E-09 -4.08028E-10 -7.84369E-10
  -5.19724E-10 -5.92618E-10 -1.13166E-09 -6.03461E-10 -7.17768E-10 -6.04288E-10 -6.60015E-10 -1.07253E-09 -8.57244E-10 -4.91162E-10
  -9.07594E-10 -9.31117E-10 -7.09340E-10
 NY points of the fit to the data follow
   6.64606E-09  7.39301E-09  8.15180E-09  8.81589E-09  9.22037E-09  9.25181E-09  8.91228E-09  8.28797E-09  7.59591E-09  6.90958E-09
   6.45720E-09  6.25540E-09  6.22390E-09  6.31721E-09  6.56849E-09  6.96615E-09  7.48001E-09  8.06419E-09  8.62539E-09  9.05416E-09
   9.30055E-09  9.22052E-09  8.74928E-09  8.07787E-09  7.39870E-09  6.85704E-09  6.67224E-09  6.95116E-09  7.44478E-09  7.97722E-09
   8.26293E-09  8.34588E-09  8.45975E-09  8.50855E-09  8.54474E-09  8.83674E-09  9.16506E-09  9.25308E-09  9.02733E-09  8.54930E-09
   7.91369E-09  7.14779E-09  6.12745E-09  5.26751E-09  4.74201E-09  4.22136E-09  3.80764E-09  3.66684E-09  3.66644E-09  3.72507E-09
   3.77215E-09  3.78207E-09  3.76362E-09  3.73989E-09  3.74401E-09  3.80372E-09  3.89901E-09  4.00370E-09  4.04293E-09  4.06968E-09
   4.20040E-09  4.58533E-09  5.18923E-09  5.93495E-09  6.92404E-09  7.93569E-09  8.71694E-09  9.27269E-09  9.57333E-09  9.48935E-09
   9.00771E-09  8.14994E-09  7.06991E-09  6.03779E-09  5.06712E-09  4.27569E-09  4.08572E-09  4.41384E-09  5.16713E-09  6.37200E-09
   7.83213E-09  9.32949E-09  1.07453E-08  1.17680E-08  1.20360E-08  1.15270E-08  1.03613E-08  8.80202E-09  7.33930E-09  6.57497E-09
   6.35807E-09  6.22092E-09  5.94800E-09  5.51774E-09  5.17148E-09  4.80353E-09  4.30853E-09  3.93524E-09  3.67727E-09  3.43344E-09
   3.26674E-09  3.17099E-09  3.12081E-09  3.11025E-09  3.12224E-09  3.14245E-09  3.16049E-09  3.16908E-09  3.16430E-09  3.14559E-09
   3.11751E-09  3.09119E-09  3.07501E-09  3.05287E-09  3.03933E-09  3.05079E-09  3.07122E-09  3.09579E-09  3.12270E-09  3.15103E-09
   3.18022E-09  3.20987E-09  3.23963E-09  3.26925E-09  3.29849E-09  3.32717E-09  3.35510E-09  3.38213E-09  3.40811E-09  3.43290E-09
   3.45635E-09  3.47834E-09  3.49874E-09  3.51744E-09  3.53431E-09  3.54923E-09  3.56210E-09  3.57280E-09  3.58125E-09  3.58734E-09
   3.59095E-09  3.59195E-09  3.59014E-09  3.58537E-09  3.57747E-09  3.56630E-09  3.55170E-09  3.53354E-09  3.51167E-09  3.48598E-09
   3.45639E-09  3.42281E-09  3.38521E-09  3.34360E-09  3.29802E-09  3.24862E-09  3.19568E-09  3.13961E-09  3.08114E-09  3.02137E-09
   2.96217E-09  2.90660E-09  2.86019E-09  2.83361E-09  2.85080E-09  2.98058E-09  3.52076E-09  4.89488E-09  6.99467E-09  9.51115E-09
   1.22368E-08  1.48481E-08  1.68202E-08  1.75529E-08  1.66286E-08  1.40320E-08  1.02149E-08  6.06661E-09  2.81762E-09  1.18318E-09
   4.89725E-10  5.70871E-11 -2.76485E-10 -5.60943E-10 -8.16805E-10 -1.05397E-09 -1.27763E-09 -1.49066E-09 -1.69467E-09 -1.89053E-09
  -2.07866E-09 -2.25921E-09 -2.43209E-09 -2.59712E-09 -2.75401E-09 -2.90242E-09 -3.04208E-09 -3.17317E-09 -3.29590E-09 -3.41048E-09
  -3.51709E-09 -3.61592E-09 -3.70713E-09 -3.79088E-09 -3.86732E-09 -3.93660E-09 -3.99886E-09 -4.05424E-09 -4.10287E-09 -4.14489E-09
  -4.18044E-09 -4.20963E-09 -4.23260E-09 -4.24948E-09 -4.26039E-09 -4.26546E-09 -4.26481E-09 -4.25856E-09 -4.24685E-09 -4.22979E-09
  -4.20750E-09 -4.18010E-09 -4.14773E-09 -4.11049E-09 -4.06857E-09 -4.02222E-09 -3.97173E-09 -3.91739E-09 -3.85947E-09 -3.79826E-09
  -3.73403E-09 -3.66708E-09 -3.59768E-09 -3.52612E-09 -3.45266E-09 -3.37760E-09 -3.30122E-09 -3.22380E-09 -3.14560E-09 -3.06693E-09
  -2.98807E-09 -2.90927E-09 -2.83084E-09 -2.75306E-09 -2.67619E-09 -2.60053E-09 -2.52634E-09 -2.45392E-09 -2.38355E-09 -2.31550E-09
  -2.25005E-09 -2.18749E-09 -2.12794E-09 -2.07131E-09 -2.01752E-09 -1.96648E-09 -1.91809E-09 -1.87227E-09 -1.82892E-09 -1.78795E-09
  -1.74927E-09 -1.71278E-09 -1.67839E-09 -1.64602E-09 -1.61557E-09 -1.58695E-09 -1.56005E-09 -1.53482E-09 -1.51114E-09 -1.48891E-09
  -1.46805E-09 -1.44847E-09 -1.43007E-09 -1.41277E-09 -1.39647E-09 -1.38107E-09 -1.36650E-09 -1.35265E-09 -1.33944E-09 -1.32677E-09
  -1.31459E-09 -1.30288E-09 -1.29162E-09 -1.28079E-09 -1.27039E-09 -1.26038E-09 -1.25075E-09 -1.24148E-09 -1.23256E-09 -1.22396E-09
  -1.21566E-09 -1.20766E-09 -1.19992E-09 -1.19244E-09 -1.18519E-09 -1.17815E-09 -1.17131E-09 -1.16464E-09 -1.15815E-09 -1.15178E-09
  -1.14555E-09 -1.13941E-09 -1.13336E-09 -1.12739E-09 -1.12146E-09 -1.11556E-09 -1.10968E-09 -1.10379E-09 -1.09789E-09 -1.09198E-09
  -1.08605E-09 -1.08011E-09 -1.07414E-09 -1.06816E-09 -1.06215E-09 -1.05612E-09 -1.05006E-09 -1.04397E-09 -1.03786E-09 -1.03171E-09
  -1.02553E-09 -1.01931E-09 -1.01306E-09 -1.00677E-09 -1.00044E-09 -9.94069E-10 -9.87654E-10 -9.81190E-10 -9.74681E-10 -9.68126E-10
  -9.61515E-10 -9.54854E-10 -9.48136E-10 -9.41365E-10 -9.34537E-10 -9.27646E-10 -9.20699E-10 -9.13700E-10 -9.06650E-10 -8.99554E-10
  -8.92415E-10 -8.85236E-10 -8.78022E-10 -8.70774E-10 -8.63501E-10 -8.56198E-10 -8.48877E-10 -8.41537E-10 -8.34183E-10 -8.26817E-10
  -8.19443E-10 -8.12066E-10 -8.04688E-10 -7.97314E-10 -7.89945E-10 -7.82589E-10 -7.75245E-10 -7.67916E-10 -7.60609E-10 -7.53328E-10
  -7.46075E-10 -7.38855E-10 -7.31665E-10
 NY background values follow
     9.170E-10    9.125E-10    9.079E-10    9.032E-10    8.985E-10    8.936E-10    8.887E-10    8.837E-10    8.786E-10    8.734E-10
     8.681E-10    8.627E-10    8.572E-10    8.517E-10    8.460E-10    8.403E-10    8.344E-10    8.285E-10    8.224E-10    8.162E-10
     8.100E-10    8.036E-10    7.971E-10    7.905E-10    7.838E-10    7.770E-10    7.701E-10    7.630E-10    7.558E-10    7.485E-10
     7.412E-10    7.337E-10    7.262E-10    7.187E-10    7.111E-10    7.036E-10    6.960E-10    6.886E-10    6.812E-10    6.739E-10
     6.667E-10    6.596E-10    6.527E-10    6.460E-10    6.395E-10    6.331E-10    6.271E-10    6.212E-10    6.157E-10    6.104E-10
     6.055E-10    6.009E-10    5.967E-10    5.929E-10    5.895E-10    5.864E-10    5.839E-10    5.818E-10    5.802E-10    5.792E-10
     5.787E-10    5.789E-10    5.798E-10    5.813E-10    5.836E-10    5.867E-10    5.906E-10    5.954E-10    6.011E-10    6.077E-10
     6.153E-10    6.239E-10    6.336E-10    6.444E-10    6.563E-10    6.694E-10    6.837E-10    6.993E-10    7.161E-10    7.343E-10
     7.539E-10    7.749E-10    7.973E-10    8.212E-10    8.466E-10    8.736E-10    9.021E-10    9.319E-10    9.631E-10    9.956E-10
     1.029E-09    1.064E-09    1.100E-09    1.137E-09    1.175E-09    1.215E-09    1.254E-09    1.295E-09    1.337E-09    1.379E-09
     1.422E-09    1.466E-09    1.510E-09    1.554E-09    1.599E-09    1.645E-09    1.691E-09    1.737E-09    1.783E-09    1.829E-09
     1.876E-09    1.922E-09    1.969E-09    2.015E-09    2.061E-09    2.107E-09    2.152E-09    2.197E-09    2.242E-09    2.285E-09
     2.328E-09    2.370E-09    2.411E-09    2.451E-09    2.490E-09    2.527E-09    2.563E-09    2.598E-09    2.631E-09    2.662E-09
     2.692E-09    2.719E-09    2.745E-09    2.768E-09    2.790E-09    2.809E-09    2.826E-09    2.840E-09    2.852E-09    2.861E-09
     2.867E-09    2.870E-09    2.870E-09    2.867E-09    2.861E-09    2.851E-09    2.837E-09    2.819E-09    2.796E-09    2.770E-09
     2.739E-09    2.703E-09    2.662E-09    2.616E-09    2.565E-09    2.508E-09    2.446E-09    2.378E-09    2.304E-09    2.223E-09
     2.137E-09    2.044E-09    1.944E-09    1.837E-09    1.723E-09    1.602E-09    1.473E-09    1.337E-09    1.193E-09    1.042E-09
     8.840E-10    7.199E-10    5.502E-10    3.755E-10    1.964E-10    1.335E-11   -1.730E-10   -3.621E-10   -5.533E-10   -7.462E-10
    -9.401E-10   -1.134E-09   -1.329E-09   -1.522E-09   -1.715E-09   -1.905E-09   -2.093E-09   -2.279E-09   -2.460E-09   -2.638E-09
    -2.811E-09   -2.979E-09   -3.141E-09   -3.296E-09   -3.445E-09   -3.586E-09   -3.720E-09   -3.845E-09   -3.962E-09   -4.072E-09
    -4.175E-09   -4.270E-09   -4.358E-09   -4.438E-09   -4.511E-09   -4.578E-09   -4.638E-09   -4.691E-09   -4.737E-09   -4.777E-09
    -4.810E-09   -4.838E-09   -4.859E-09   -4.874E-09   -4.883E-09   -4.887E-09   -4.885E-09   -4.877E-09   -4.864E-09   -4.846E-09
    -4.822E-09   -4.793E-09   -4.760E-09   -4.722E-09   -4.679E-09   -4.631E-09   -4.580E-09   -4.524E-09   -4.465E-09   -4.403E-09
    -4.338E-09   -4.270E-09   -4.200E-09   -4.128E-09   -4.053E-09   -3.978E-09   -3.900E-09   -3.822E-09   -3.743E-09   -3.664E-09
    -3.584E-09   -3.505E-09   -3.426E-09   -3.347E-09   -3.270E-09   -3.194E-09   -3.119E-09   -3.046E-09   -2.975E-09   -2.906E-09
    -2.840E-09   -2.777E-09   -2.717E-09   -2.660E-09   -2.605E-09   -2.554E-09   -2.505E-09   -2.458E-09   -2.415E-09   -2.373E-09
    -2.334E-09   -2.297E-09   -2.262E-09   -2.229E-09   -2.198E-09   -2.169E-09   -2.142E-09   -2.116E-09   -2.092E-09   -2.069E-09
    -2.048E-09   -2.028E-09   -2.009E-09   -1.991E-09   -1.975E-09   -1.959E-09   -1.944E-09   -1.930E-09   -1.916E-09   -1.903E-09
    -1.890E-09   -1.878E-09   -1.867E-09   -1.855E-09   -1.845E-09   -1.834E-09   -1.824E-09   -1.814E-09   -1.805E-09   -1.796E-09
    -1.787E-09   -1.779E-09   -1.771E-09   -1.763E-09   -1.756E-09   -1.748E-09   -1.741E-09   -1.734E-09   -1.727E-09   -1.720E-09
    -1.714E-09   -1.707E-09   -1.701E-09   -1.695E-09   -1.688E-09   -1.682E-09   -1.676E-09   -1.670E-09   -1.663E-09   -1.657E-09
    -1.651E-09   -1.644E-09   -1.638E-09   -1.632E-09   -1.626E-09   -1.619E-09   -1.613E-09   -1.606E-09   -1.600E-09   -1.593E-09
    -1.587E-09   -1.580E-09   -1.574E-09   -1.567E-09   -1.561E-09   -1.554E-09   -1.547E-09   -1.540E-09   -1.533E-09   -1.527E-09
    -1.520E-09   -1.513E-09   -1.506E-09   -1.499E-09   -1.491E-09   -1.484E-09   -1.477E-09   -1.470E-09   -1.462E-09   -1.455E-09
    -1.447E-09   -1.440E-09   -1.432E-09   -1.425E-09   -1.417E-09   -1.409E-09   -1.402E-09   -1.394E-09   -1.386E-09   -1.379E-09
    -1.371E-09   -1.363E-09   -1.356E-09   -1.348E-09   -1.340E-09   -1.333E-09   -1.325E-09   -1.317E-09   -1.310E-09   -1.302E-09
    -1.294E-09   -1.287E-09   -1.279E-09
 Ala      Conc. = 6.02E-11
   9.57409E-10  9.58226E-10  9.57678E-10  9.55832E-10  9.52448E-10  9.47451E-10  9.40290E-10  9.30585E-10  9.21032E-10  9.11483E-10
   8.99138E-10  8.87771E-10  8.78676E-10  8.69054E-10  8.59928E-10  8.51998E-10  8.44656E-10  8.37621E-10  8.30744E-10  8.23940E-10
   8.17158E-10  8.10362E-10  8.03531E-10  7.96644E-10  7.89686E-10  7.82653E-10  7.75532E-10  7.68317E-10  7.61004E-10  7.53593E-10
   7.46102E-10  7.38546E-10  7.30947E-10  7.23325E-10  7.15697E-10  7.08084E-10  7.00507E-10  6.92986E-10  6.85540E-10  6.78189E-10
   6.70956E-10  6.63857E-10  6.56918E-10  6.50154E-10  6.43591E-10  6.37244E-10  6.31138E-10  6.25294E-10  6.19727E-10  6.14463E-10
   6.09523E-10  6.04922E-10  6.00687E-10  5.96836E-10  5.93398E-10  5.90376E-10  5.87800E-10  5.85701E-10  5.84115E-10  5.83080E-10
   5.82636E-10  5.82822E-10  5.83677E-10  5.85241E-10  5.87552E-10  5.90652E-10  5.94577E-10  5.99368E-10  6.05065E-10  6.11706E-10
   6.19331E-10  6.27981E-10  6.37693E-10  6.48509E-10  6.60466E-10  6.73608E-10  6.87973E-10  7.03599E-10  7.20528E-10  7.38803E-10
   7.58460E-10  7.79545E-10  8.02094E-10  8.26157E-10  8.51766E-10  8.78928E-10  9.07591E-10  9.37706E-10  9.69227E-10  1.00211E-09
   1.03632E-09  1.07182E-09  1.10859E-09  1.14665E-09  1.18600E-09  1.22676E-09  1.26910E-09  1.31349E-09  1.36102E-09  1.41535E-09
   1.48372E-09  1.55693E-09  1.63450E-09  1.72436E-09  1.81766E-09  1.90516E-09  1.97963E-09  2.03615E-09  2.07265E-09  2.08996E-09
   2.09378E-09  2.09588E-09  2.10503E-09  2.10554E-09  2.11228E-09  2.14201E-09  2.17909E-09  2.21891E-09  2.25982E-09  2.30102E-09
   2.34204E-09  2.38260E-09  2.42246E-09  2.46145E-09  2.49942E-09  2.53621E-09  2.57172E-09  2.60582E-09  2.63840E-09  2.66935E-09
   2.69856E-09  2.72592E-09  2.75133E-09  2.77470E-09  2.79590E-09  2.81486E-09  2.83145E-09  2.84559E-09  2.85717E-09  2.86610E-09
   2.87225E-09  2.87549E-09  2.87563E-09  2.87249E-09  2.86588E-09  2.85563E-09  2.84156E-09  2.82348E-09  2.80121E-09  2.77457E-09
   2.74339E-09  2.70748E-09  2.66667E-09  2.62076E-09  2.56960E-09  2.51299E-09  2.45076E-09  2.38273E-09  2.30874E-09  2.22861E-09
   2.14217E-09  2.04927E-09  1.94979E-09  1.84363E-09  1.73082E-09  1.61174E-09  1.48864E-09  1.36792E-09  1.24511E-09  1.11834E-09
   9.86821E-10  8.48002E-10  6.97279E-10  5.29418E-10  3.41308E-10  1.33986E-10 -8.72416E-11 -3.13195E-10 -5.31400E-10 -7.32247E-10
  -9.29413E-10 -1.12554E-09 -1.32090E-09 -1.51525E-09 -1.70814E-09 -1.89909E-09 -2.08758E-09 -2.27306E-09 -2.45497E-09 -2.63277E-09
  -2.80590E-09 -2.97379E-09 -3.13587E-09 -3.29158E-09 -3.44035E-09 -3.58161E-09 -3.71495E-09 -3.84039E-09 -3.95805E-09 -4.06805E-09
  -4.17050E-09 -4.26553E-09 -4.35326E-09 -4.43380E-09 -4.50727E-09 -4.57379E-09 -4.63348E-09 -4.68646E-09 -4.73284E-09 -4.77275E-09
  -4.80630E-09 -4.83360E-09 -4.85479E-09 -4.86997E-09 -4.87927E-09 -4.88280E-09 -4.88069E-09 -4.87304E-09 -4.85998E-09 -4.84162E-09
  -4.81810E-09 -4.78951E-09 -4.75598E-09 -4.71763E-09 -4.67464E-09 -4.62726E-09 -4.57577E-09 -4.52045E-09 -4.46159E-09 -4.39946E-09
  -4.33435E-09 -4.26653E-09 -4.19629E-09 -4.12391E-09 -4.04965E-09 -3.97381E-09 -3.89666E-09 -3.81850E-09 -3.73957E-09 -3.66020E-09
  -3.58063E-09 -3.50116E-09 -3.42206E-09 -3.34363E-09 -3.26611E-09 -3.18982E-09 -3.11502E-09 -3.04199E-09 -2.97102E-09 -2.90239E-09
  -2.83635E-09 -2.77323E-09 -2.71312E-09 -2.65594E-09 -2.60161E-09 -2.55004E-09 -2.50112E-09 -2.45479E-09 -2.41092E-09 -2.36945E-09
  -2.33027E-09 -2.29328E-09 -2.25842E-09 -2.22557E-09 -2.19465E-09 -2.16556E-09 -2.13820E-09 -2.11251E-09 -2.08837E-09 -2.06570E-09
  -2.04440E-09 -2.02438E-09 -2.00555E-09 -1.98782E-09 -1.97110E-09 -1.95528E-09 -1.94029E-09 -1.92603E-09 -1.91241E-09 -1.89933E-09
  -1.88675E-09 -1.87464E-09 -1.86299E-09 -1.85177E-09 -1.84097E-09 -1.83058E-09 -1.82057E-09 -1.81092E-09 -1.80161E-09 -1.79264E-09
  -1.78397E-09 -1.77560E-09 -1.76749E-09 -1.75964E-09 -1.75202E-09 -1.74463E-09 -1.73743E-09 -1.73040E-09 -1.72355E-09 -1.71683E-09
  -1.71024E-09 -1.70376E-09 -1.69736E-09 -1.69104E-09 -1.68477E-09 -1.67853E-09 -1.67230E-09 -1.66607E-09 -1.65983E-09 -1.65358E-09
  -1.64732E-09 -1.64104E-09 -1.63474E-09 -1.62842E-09 -1.62208E-09 -1.61571E-09 -1.60932E-09 -1.60291E-09 -1.59646E-09 -1.58999E-09
  -1.58348E-09 -1.57694E-09 -1.57036E-09 -1.56375E-09 -1.55709E-09 -1.55039E-09 -1.54365E-09 -1.53687E-09 -1.53004E-09 -1.52316E-09
  -1.51623E-09 -1.50924E-09 -1.50220E-09 -1.49511E-09 -1.48796E-09 -1.48075E-09 -1.47348E-09 -1.46617E-09 -1.45879E-09 -1.45138E-09
  -1.44392E-09 -1.43642E-09 -1.42889E-09 -1.42132E-09 -1.41373E-09 -1.40610E-09 -1.39846E-09 -1.39080E-09 -1.38313E-09 -1.37544E-09
  -1.36774E-09 -1.36004E-09 -1.35234E-09 -1.34464E-09 -1.33695E-09 -1.32927E-09 -1.32160E-09 -1.31395E-09 -1.30632E-09 -1.29871E-09
  -1.29113E-09 -1.28358E-09 -1.27606E-09
 Asp      Conc. = 4.04E-10
   1.41098E-09  1.35456E-09  1.29366E-09  1.22398E-09  1.15308E-09  1.07892E-09  1.01857E-09  9.72908E-10  9.47232E-10  9.29841E-10
   9.16745E-10  9.06220E-10  8.97328E-10  8.89409E-10  8.81901E-10  8.74661E-10  8.67673E-10  8.60886E-10  8.54255E-10  8.47744E-10
   8.41333E-10  8.35005E-10  8.28759E-10  8.22593E-10  8.16514E-10  8.10545E-10  8.04710E-10  7.99047E-10  7.93615E-10  7.88500E-10
   7.83839E-10  7.79822E-10  7.76740E-10  7.75047E-10  7.75554E-10  7.79968E-10  7.92444E-10  8.10418E-10  8.36361E-10  8.63376E-10
   8.87041E-10  9.04587E-10  9.16972E-10  9.31514E-10  9.52022E-10  9.96064E-10  1.05291E-09  1.12229E-09  1.21685E-09  1.31073E-09
   1.37806E-09  1.38993E-09  1.34210E-09  1.24638E-09  1.13153E-09  1.03447E-09  9.63268E-10  9.23537E-10  8.69852E-10  8.13025E-10
   7.85615E-10  7.73493E-10  7.65031E-10  7.60709E-10  7.51234E-10  7.29955E-10  7.04514E-10  6.91094E-10  6.84465E-10  6.82072E-10
   6.82735E-10  6.85834E-10  6.91007E-10  6.98037E-10  7.06786E-10  7.17172E-10  7.29141E-10  7.42663E-10  7.57726E-10  7.74330E-10
   7.92477E-10  8.12187E-10  8.33470E-10  8.56358E-10  8.80863E-10  9.06976E-10  9.34629E-10  9.63756E-10  9.94292E-10  1.02617E-09
   1.05934E-09  1.09373E-09  1.12928E-09  1.16592E-09  1.20361E-09  1.24227E-09  1.28186E-09  1.32230E-09  1.36354E-09  1.40553E-09
   1.44820E-09  1.49149E-09  1.53535E-09  1.57972E-09  1.62453E-09  1.66974E-09  1.71528E-09  1.76109E-09  1.80712E-09  1.85331E-09
   1.89960E-09  1.94594E-09  1.99225E-09  2.03847E-09  2.08450E-09  2.13022E-09  2.17556E-09  2.22040E-09  2.26465E-09  2.30821E-09
   2.35098E-09  2.39286E-09  2.43375E-09  2.47356E-09  2.51218E-09  2.54952E-09  2.58547E-09  2.61995E-09  2.65285E-09  2.68407E-09
   2.71351E-09  2.74108E-09  2.76668E-09  2.79021E-09  2.81156E-09  2.83065E-09  2.84737E-09  2.86162E-09  2.87332E-09  2.88235E-09
   2.88861E-09  2.89196E-09  2.89221E-09  2.88918E-09  2.88269E-09  2.87257E-09  2.85863E-09  2.84070E-09  2.81860E-09  2.79215E-09
   2.76118E-09  2.72551E-09  2.68498E-09  2.63941E-09  2.58863E-09  2.53248E-09  2.47082E-09  2.40348E-09  2.33035E-09  2.25131E-09
   2.16630E-09  2.07531E-09  1.97850E-09  1.87625E-09  1.76968E-09  1.66200E-09  1.56642E-09  1.53035E-09  1.52634E-09  1.53809E-09
   1.55724E-09  1.56467E-09  1.52696E-09  1.40529E-09  1.17367E-09  8.33510E-10  4.15091E-10 -2.51605E-11 -4.07902E-10 -6.61042E-10
  -8.78087E-10 -1.08447E-09 -1.28602E-09 -1.48445E-09 -1.68020E-09 -1.87327E-09 -2.06336E-09 -2.25009E-09 -2.43301E-09 -2.61162E-09
  -2.78542E-09 -2.95387E-09 -3.11643E-09 -3.27254E-09 -3.42166E-09 -3.56324E-09 -3.69685E-09 -3.82252E-09 -3.94039E-09 -4.05058E-09
  -4.15320E-09 -4.24839E-09 -4.33625E-09 -4.41692E-09 -4.49051E-09 -4.55713E-09 -4.61692E-09 -4.66999E-09 -4.71646E-09 -4.75644E-09
  -4.79007E-09 -4.81744E-09 -4.83869E-09 -4.85393E-09 -4.86329E-09 -4.86687E-09 -4.86481E-09 -4.85721E-09 -4.84419E-09 -4.82588E-09
  -4.80240E-09 -4.77385E-09 -4.74036E-09 -4.70205E-09 -4.65908E-09 -4.61173E-09 -4.56027E-09 -4.50499E-09 -4.44616E-09 -4.38406E-09
