 LCModel (Version 6.3-1R) Copyright: S.W. Provencher.          Ref.: Magn. Reson. Med. 30:672-679 (1993).                
 onepulse 22x22_ftSpec_smooth_lcm
 26 lines in following concentration table = NCONC+1
    Conc.  %SD   /Cr    Metabolite                                         
 9.84E-11 215%   0.000 Ala                                                 
 6.73E-10  64%   0.000 Asp                                                 
    0.000 999%   0.000 Cr                                                  
 2.97E-09  15%   0.000 GABA                                                
 1.94E-09  18%   0.000 Glc                                                 
    0.000 999%   0.000 Gln                                                 
 9.56E-11 487%   0.000 Glu                                                 
    0.000 999%   0.000 Glyc                                                
    0.000 999%   0.000 GPC                                                 
 7.54E-11 309%   0.000 GSH                                                 
 2.28E-10 108%   0.000 Ins                                                 
    0.000 999%   0.000 Lac                                                 
    0.000 999%   0.000 NAAG                                                
 1.26E-09  16%   0.000 NAA                                                 
 1.21E-10  50%   0.000 PCh                                                 
    0.000 999%   0.000 PCr                                                 
    0.000 999%   0.000 PE                                                  
    0.000 999%   0.000 Scyllo                                              
    0.000 999%   0.000 Ser                                                 
    0.000 999%   0.000 Tau                                                 
 1.21E-10  50%   0.000 GPC+PCh                                             
 1.26E-09  16%   0.000 NAA+NAAG                                            
 2.28E-10 108%   0.000 Ins+Glyc                                            
    0.000 999%   0.000 Cr+PCr                                              
 9.56E-11 487%   0.000 Glu+Gln                                             
   6 lines in following misc. output table
  FWHM = 0.067 ppm    S/N =   4                                            
  Data shift = 0.335 ppm                                                   
  Ph:  52 deg      29.6 deg/ppm                                            
  alphaB,S = 1.6E-01,   7.8E+01                                            
   16 spline knots.   Ns = 5(1)                                            
  ( 9) 2 infls.   ( 5) 1 extrs.                                            
  363 points on ppm-axis = NY
      4.250000     4.238821     4.227641     4.216462     4.205282     4.194103     4.182923     4.171744     4.160564     4.149385
      4.138206     4.127026     4.115847     4.104667     4.093488     4.082308     4.071129     4.059949     4.048770     4.037591
      4.026411     4.015232     4.004052     3.992873     3.981693     3.970514     3.959334     3.948155     3.936975     3.925796
      3.914617     3.903437     3.892258     3.881078     3.869899     3.858719     3.847540     3.836360     3.825181     3.814002
      3.802822     3.791643     3.780463     3.769284     3.758104     3.746925     3.735745     3.724566     3.713387     3.702207
      3.691028     3.679848     3.668669     3.657489     3.646310     3.635130     3.623951     3.612772     3.601592     3.590413
      3.579233     3.568054     3.556874     3.545695     3.534515     3.523336     3.512156     3.500977     3.489798     3.478618
      3.467439     3.456259     3.445080     3.433900     3.422721     3.411541     3.400362     3.389183     3.378003     3.366824
      3.355644     3.344465     3.333285     3.322106     3.310926     3.299747     3.288568     3.277388     3.266209     3.255029
      3.243850     3.232670     3.221491     3.210311     3.199132     3.187953     3.176773     3.165594     3.154414     3.143235
      3.132055     3.120876     3.109696     3.098517     3.087337     3.076158     3.064979     3.053799     3.042620     3.031440
      3.020261     3.009081     2.997902     2.986722     2.975543     2.964364     2.953184     2.942005     2.930825     2.919646
      2.908466     2.897287     2.886107     2.874928     2.863749     2.852569     2.841390     2.830210     2.819031     2.807851
      2.796672     2.785492     2.774313     2.763134     2.751954     2.740775     2.729595     2.718416     2.707236     2.696057
      2.684877     2.673698     2.662519     2.651339     2.640160     2.628980     2.617801     2.606621     2.595442     2.584262
      2.573083     2.561903     2.550724     2.539545     2.528365     2.517186     2.506006     2.494827     2.483647     2.472468
      2.461288     2.450109     2.438930     2.427750     2.416571     2.405391     2.394212     2.383032     2.371853     2.360673
      2.349494     2.338315     2.327135     2.315956     2.304776     2.293597     2.282417     2.271238     2.260058     2.248879
      2.237700     2.226520     2.215341     2.204161     2.192982     2.181802     2.170623     2.159443     2.148264     2.137084
      2.125905     2.114726     2.103546     2.092367     2.081187     2.070008     2.058828     2.047649     2.036469     2.025290
      2.014111     2.002931     1.991752     1.980572     1.969393     1.958213     1.947034     1.935854     1.924675     1.913496
      1.902316     1.891137     1.879957     1.868778     1.857598     1.846419     1.835239     1.824060     1.812881     1.801701
      1.790522     1.779342     1.768163     1.756983     1.745804     1.734624     1.723445     1.712265     1.701086     1.689907
      1.678727     1.667548     1.656368     1.645189     1.634009     1.622830     1.611650     1.600471     1.589292     1.578112
      1.566933     1.555753     1.544574     1.533394     1.522215     1.511035     1.499856     1.488677     1.477497     1.466318
      1.455138     1.443959     1.432779     1.421600     1.410420     1.399241     1.388062     1.376882     1.365703     1.354523
      1.343344     1.332164     1.320985     1.309805     1.298626     1.287446     1.276267     1.265088     1.253908     1.242729
      1.231549     1.220370     1.209190     1.198011     1.186831     1.175652     1.164473     1.153293     1.142114     1.130934
      1.119755     1.108575     1.097396     1.086216     1.075037     1.063858     1.052678     1.041499     1.030319     1.019140
      1.007960     0.996781     0.985601     0.974422     0.963243     0.952063     0.940884     0.929704     0.918525     0.907345
      0.896166     0.884986     0.873807     0.862628     0.851448     0.840269     0.829089     0.817910     0.806730     0.795551
      0.784371     0.773192     0.762012     0.750833     0.739654     0.728474     0.717295     0.706115     0.694936     0.683756
      0.672577     0.661397     0.650218     0.639039     0.627859     0.616680     0.605500     0.594321     0.583141     0.571962
      0.560782     0.549603     0.538424     0.527244     0.516065     0.504885     0.493706     0.482526     0.471347     0.460167
      0.448988     0.437809     0.426629     0.415450     0.404270     0.393091     0.381911     0.370732     0.359552     0.348373
      0.337193     0.326014     0.314835     0.303655     0.292476     0.281296     0.270117     0.258937     0.247758     0.236578
      0.225399     0.214220     0.203040
 NY phased data points follow
   5.12989E-09  7.19420E-09  1.01769E-08  1.14705E-08  1.17851E-08  1.01942E-08  9.20623E-09  8.02005E-09  7.24642E-09  6.23286E-09
   6.75133E-09  6.05037E-09  6.93221E-09  7.10862E-09  7.57778E-09  7.36586E-09  8.69042E-09  8.91689E-09  9.62652E-09  8.21348E-09
   8.88921E-09  8.43766E-09  8.54158E-09  7.33891E-09  7.48769E-09  7.05109E-09  8.35892E-09  8.37139E-09  9.32140E-09  7.69847E-09
   7.21430E-09  7.03657E-09  7.77423E-09  8.15799E-09  1.11017E-08  1.11809E-08  1.08919E-08  9.60735E-09  8.64275E-09  6.77677E-09
   6.17926E-09  6.03215E-09  5.60637E-09  6.00129E-09  5.37966E-09  5.03186E-09  5.14135E-09  4.70311E-09  4.42770E-09  3.53550E-09
   3.37959E-09  3.89054E-09  3.95334E-09  4.39009E-09  4.62601E-09  3.91484E-09  3.71356E-09  3.06389E-09  3.02017E-09  3.21900E-09
   4.04132E-09  4.48027E-09  4.97319E-09  5.73512E-09  8.28338E-09  9.48044E-09  1.20679E-08  1.06824E-08  9.69023E-09  7.26696E-09
   6.38124E-09  5.19221E-09  5.00414E-09  3.15380E-09  3.91518E-09  3.49248E-09  2.68571E-09  2.88491E-09  3.57195E-09  4.29951E-09
   7.66364E-09  1.07874E-08  1.44179E-08  1.42531E-08  1.25874E-08  1.05719E-08  9.07829E-09  8.45280E-09  8.07120E-09  7.11764E-09
   7.31612E-09  6.00772E-09  6.14157E-09  5.99114E-09  5.09438E-09  4.73832E-09  4.17127E-09  4.00163E-09  3.96824E-09  3.13522E-09
   2.92310E-09  3.92030E-09  3.02730E-09  3.34641E-09  4.00100E-09  3.17639E-09  3.30061E-09  3.47944E-09  3.44838E-09  2.59540E-09
   3.12386E-09  1.91793E-09  1.87319E-09  1.53837E-09  2.46109E-09  3.24516E-09  2.93521E-09  3.19026E-09  3.34978E-09  3.43163E-09
   3.74322E-09  2.91212E-09  3.41978E-09  2.92700E-09  2.57808E-09  1.65277E-09  1.38349E-09  1.77422E-09  1.36557E-09  7.50555E-10
   2.40260E-09  2.05769E-09  2.19512E-09  2.30900E-09  2.78274E-09  2.65607E-09  2.51950E-09  1.75625E-09  1.97633E-09  1.51845E-09
   2.80539E-09  3.95151E-09  3.98054E-09  4.29607E-09  4.48210E-09  3.61504E-09  3.95786E-09  4.46297E-09  4.12711E-09  4.65380E-09
   4.59892E-09  3.70485E-09  4.13164E-09  4.37935E-09  4.15446E-09  3.95986E-09  3.86212E-09  4.31478E-09  4.29552E-09  4.57089E-09
   4.90717E-09  5.24221E-09  5.80845E-09  5.54557E-09  6.22540E-09  6.71090E-09  6.54164E-09  7.26286E-09  8.11723E-09  9.63096E-09
   1.18758E-08  1.43934E-08  1.67804E-08  1.87783E-08  1.68829E-08  1.32846E-08  1.01599E-08  8.26999E-09  6.50187E-09  6.18579E-09
   5.30258E-09  4.40138E-09  3.76412E-09  3.13971E-09  2.77346E-09  2.33136E-09  1.86647E-09  1.07037E-09  7.92625E-10 -3.57634E-10
  -3.04509E-10 -1.98952E-09 -1.93867E-09 -3.44482E-09 -3.68799E-09 -4.76687E-09 -5.56951E-09 -6.53498E-09 -8.07876E-09 -8.59957E-09
  -9.33938E-09 -1.05686E-08 -1.15759E-08 -1.19438E-08 -1.21156E-08 -1.24692E-08 -1.25045E-08 -1.20654E-08 -1.14012E-08 -1.08338E-08
  -1.00407E-08 -8.60171E-09 -7.47534E-09 -6.51564E-09 -4.54519E-09 -3.54324E-09 -2.65918E-09 -1.73491E-09 -9.75643E-10 -6.34195E-10
  -7.62519E-10 -6.68664E-10 -1.71193E-09 -1.43646E-09 -1.01955E-09 -2.17480E-09 -2.04664E-09 -1.85027E-09 -1.76275E-09 -1.02972E-09
  -1.25910E-09 -9.85842E-10 -1.78639E-09 -7.13523E-10 -2.09573E-09 -2.61011E-09 -1.57277E-09 -1.53012E-09 -1.94824E-09 -1.65365E-09
  -1.21063E-09 -9.93555E-10 -8.17496E-10 -1.17464E-09 -1.72030E-09 -1.26568E-09 -2.00020E-09 -2.02742E-09 -1.61587E-09 -1.42666E-09
  -1.28384E-09 -1.26182E-09 -9.38628E-10 -1.05704E-09 -1.16781E-09 -7.29110E-10 -1.03952E-09 -6.11500E-10 -1.13021E-09 -1.31605E-09
  -1.18458E-09 -2.00995E-09 -1.92065E-09 -2.08365E-09 -1.86781E-09 -1.99141E-09 -1.10885E-09 -1.51088E-09 -1.02413E-09 -2.86562E-10
  -3.87120E-10 -9.01283E-10 -3.66065E-10 -3.10505E-10 -5.06786E-10 -5.38303E-10 -4.63330E-10 -3.19181E-10 -1.17742E-09 -1.40186E-09
  -1.05259E-09 -1.62159E-09 -1.46353E-09 -1.36724E-09 -1.33790E-09 -1.14084E-09 -1.53502E-09 -1.94215E-09 -8.17823E-10 -1.36973E-09
  -9.28056E-10 -1.42430E-09 -1.04480E-09 -1.03420E-09 -8.46436E-10 -1.22356E-09 -8.08703E-10 -8.76221E-10 -1.21999E-09 -8.50715E-10
  -1.53373E-09 -8.42563E-10 -1.14592E-09 -9.91661E-10 -1.04219E-09 -3.14741E-10 -1.01724E-09 -9.92185E-10 -5.18884E-10 -1.22121E-09
  -8.26262E-10 -8.01779E-10 -5.31106E-10 -5.68152E-10 -5.94164E-10 -1.17367E-09 -8.80290E-10 -2.86880E-10 -6.66602E-10 -4.61636E-10
  -1.27666E-09 -8.99512E-10 -9.86574E-10 -5.37457E-10 -8.75166E-10 -6.54381E-10 -5.77372E-10 -4.23251E-10 -6.66288E-10 -8.43158E-10
  -5.57453E-10 -6.54816E-10 -9.32320E-10 -6.73792E-10 -1.35753E-10 -6.97565E-11 -9.19047E-10 -1.17281E-09 -5.85934E-10 -7.68822E-10
  -2.73674E-10 -8.02695E-10 -5.28783E-10 -3.21098E-10 -5.18569E-10 -3.08556E-10 -9.27802E-10 -7.80509E-10 -2.91928E-10 -5.31160E-10
  -4.33524E-11 -7.43519E-10 -2.56274E-10 -6.62128E-10 -5.77833E-10 -1.35308E-10 -7.52740E-10 -7.38318E-10 -2.71401E-10 -7.36864E-10
  -2.20257E-10 -5.83751E-10 -8.29931E-10
 NY points of the fit to the data follow
   7.95826E-09  8.56091E-09  9.08454E-09  9.43473E-09  9.48325E-09  9.18739E-09  8.60478E-09  7.89724E-09  7.28954E-09  6.77568E-09
   6.55874E-09  6.56720E-09  6.69962E-09  6.94732E-09  7.33628E-09  7.83586E-09  8.40441E-09  8.99971E-09  9.49855E-09  9.78385E-09
   9.82563E-09  9.47908E-09  8.76271E-09  7.99298E-09  7.32933E-09  6.87534E-09  6.81312E-09  7.20055E-09  7.77737E-09  8.28372E-09
   8.49027E-09  8.64778E-09  8.88654E-09  8.99154E-09  9.05428E-09  9.33021E-09  9.56328E-09  9.48539E-09  9.03912E-09  8.33799E-09
   7.55671E-09  6.65289E-09  5.54811E-09  4.76150E-09  4.31266E-09  3.89637E-09  3.65943E-09  3.66169E-09  3.79176E-09  3.93336E-09
   4.03279E-09  4.05980E-09  4.05435E-09  4.02359E-09  3.99866E-09  4.02043E-09  4.06854E-09  4.12557E-09  4.12052E-09  4.10969E-09
   4.27191E-09  4.74226E-09  5.34225E-09  6.04339E-09  7.05701E-09  7.96184E-09  8.56645E-09  8.98429E-09  9.16587E-09  8.98094E-09
   8.41872E-09  7.49761E-09  6.44753E-09  5.56144E-09  4.64881E-09  3.91388E-09  3.91022E-09  4.58334E-09  5.60362E-09  7.06457E-09
   8.73060E-09  1.03760E-08  1.18352E-08  1.25850E-08  1.23477E-08  1.14013E-08  1.00002E-08  8.38080E-09  6.95806E-09  6.44187E-09
   6.27885E-09  6.16656E-09  5.84317E-09  5.34109E-09  4.99712E-09  4.60196E-09  4.07306E-09  3.72348E-09  3.47912E-09  3.24941E-09
   3.11963E-09  3.05580E-09  3.03738E-09  3.06595E-09  3.11224E-09  3.15577E-09  3.18410E-09  3.19182E-09  3.17703E-09  3.13757E-09
   3.07740E-09  3.01672E-09  2.97842E-09  2.93167E-09  2.89388E-09  2.89401E-09  2.90664E-09  2.92458E-09  2.94524E-09  2.96741E-09
   2.99039E-09  3.01369E-09  3.03695E-09  3.05992E-09  3.08236E-09  3.10409E-09  3.12495E-09  3.14480E-09  3.16350E-09  3.18093E-09
   3.19698E-09  3.21152E-09  3.22447E-09  3.23570E-09  3.24512E-09  3.25264E-09  3.25815E-09  3.26158E-09  3.26285E-09  3.26185E-09
   3.25851E-09  3.25270E-09  3.24426E-09  3.23306E-09  3.21897E-09  3.20186E-09  3.18161E-09  3.15809E-09  3.13121E-09  3.10086E-09
   3.06699E-09  3.02954E-09  2.98850E-09  2.94390E-09  2.89583E-09  2.84447E-09  2.79014E-09  2.73332E-09  2.67484E-09  2.61597E-09
   2.55886E-09  2.50715E-09  2.46754E-09  2.45348E-09  2.49692E-09  2.69828E-09  3.51128E-09  5.27147E-09  7.70314E-09  1.05005E-08
   1.34843E-08  1.62336E-08  1.80632E-08  1.83286E-08  1.68120E-08  1.38136E-08  9.92061E-09  5.86373E-09  2.77927E-09  1.22667E-09
   5.47732E-10  1.17403E-10 -2.12512E-10 -4.90648E-10 -7.37802E-10 -9.64331E-10 -1.17584E-09 -1.37556E-09 -1.56533E-09 -1.74628E-09
  -1.91900E-09 -2.08378E-09 -2.24068E-09 -2.38962E-09 -2.53044E-09 -2.66287E-09 -2.78673E-09 -2.90225E-09 -3.00968E-09 -3.10928E-09
  -3.20126E-09 -3.28584E-09 -3.36320E-09 -3.43354E-09 -3.49704E-09 -3.55387E-09 -3.60420E-09 -3.64819E-09 -3.68600E-09 -3.71779E-09
  -3.74370E-09 -3.76390E-09 -3.77853E-09 -3.78774E-09 -3.79168E-09 -3.79049E-09 -3.78432E-09 -3.77331E-09 -3.75760E-09 -3.73734E-09
  -3.71267E-09 -3.68372E-09 -3.65064E-09 -3.61357E-09 -3.57268E-09 -3.52820E-09 -3.48035E-09 -3.42936E-09 -3.37548E-09 -3.31894E-09
  -3.25997E-09 -3.19879E-09 -3.13565E-09 -3.07077E-09 -3.00437E-09 -2.93671E-09 -2.86801E-09 -2.79849E-09 -2.72838E-09 -2.65793E-09
  -2.58737E-09 -2.51690E-09 -2.44678E-09 -2.37723E-09 -2.30847E-09 -2.24075E-09 -2.17428E-09 -2.10930E-09 -2.04604E-09 -1.98473E-09
  -1.92558E-09 -1.86886E-09 -1.81463E-09 -1.76285E-09 -1.71344E-09 -1.66633E-09 -1.62145E-09 -1.57873E-09 -1.53810E-09 -1.49947E-09
  -1.46279E-09 -1.42797E-09 -1.39495E-09 -1.36365E-09 -1.33400E-09 -1.30593E-09 -1.27935E-09 -1.25423E-09 -1.23047E-09 -1.20798E-09
  -1.18672E-09 -1.16660E-09 -1.14755E-09 -1.12950E-09 -1.11239E-09 -1.09612E-09 -1.08064E-09 -1.06587E-09 -1.05175E-09 -1.03819E-09
  -1.02515E-09 -1.01262E-09 -1.00058E-09 -9.88991E-10 -9.77854E-10 -9.67137E-10 -9.56829E-10 -9.46901E-10 -9.37338E-10 -9.28123E-10
  -9.19231E-10 -9.10645E-10 -9.02343E-10 -8.94306E-10 -8.86517E-10 -8.78952E-10 -8.71595E-10 -8.64422E-10 -8.57421E-10 -8.50558E-10
  -8.43830E-10 -8.37206E-10 -8.30667E-10 -8.24202E-10 -8.17783E-10 -8.11391E-10 -8.05011E-10 -7.98616E-10 -7.92207E-10 -7.85786E-10
  -7.79353E-10 -7.72913E-10 -7.66469E-10 -7.60017E-10 -7.53566E-10 -7.47115E-10 -7.40667E-10 -7.34225E-10 -7.27792E-10 -7.21366E-10
  -7.14957E-10 -7.08559E-10 -7.02177E-10 -6.95820E-10 -6.89479E-10 -6.83167E-10 -6.76880E-10 -6.70619E-10 -6.64391E-10 -6.58200E-10
  -6.52039E-10 -6.45918E-10 -6.39836E-10 -6.33798E-10 -6.27807E-10 -6.21858E-10 -6.15957E-10 -6.10104E-10 -6.04295E-10 -5.98529E-10
  -5.92807E-10 -5.87127E-10 -5.81487E-10 -5.75888E-10 -5.70330E-10 -5.64806E-10 -5.59324E-10 -5.53878E-10 -5.48468E-10 -5.43092E-10
  -5.37748E-10 -5.32440E-10 -5.27163E-10 -5.21917E-10 -5.16702E-10 -5.11517E-10 -5.06360E-10 -5.01229E-10 -4.96124E-10 -4.91048E-10
  -4.85997E-10 -4.80971E-10 -4.75963E-10
 NY background values follow
     5.500E-10    5.434E-10    5.368E-10    5.302E-10    5.236E-10    5.170E-10    5.104E-10    5.038E-10    4.972E-10    4.907E-10
     4.842E-10    4.777E-10    4.712E-10    4.648E-10    4.585E-10    4.522E-10    4.459E-10    4.397E-10    4.336E-10    4.276E-10
     4.216E-10    4.157E-10    4.099E-10    4.042E-10    3.985E-10    3.930E-10    3.876E-10    3.823E-10    3.771E-10    3.720E-10
     3.671E-10    3.623E-10    3.577E-10    3.534E-10    3.493E-10    3.454E-10    3.419E-10    3.387E-10    3.358E-10    3.332E-10
     3.311E-10    3.293E-10    3.280E-10    3.272E-10    3.268E-10    3.269E-10    3.276E-10    3.288E-10    3.306E-10    3.330E-10
     3.360E-10    3.397E-10    3.441E-10    3.491E-10    3.549E-10    3.614E-10    3.687E-10    3.768E-10    3.856E-10    3.953E-10
     4.057E-10    4.170E-10    4.290E-10    4.418E-10    4.554E-10    4.698E-10    4.849E-10    5.009E-10    5.177E-10    5.352E-10
     5.535E-10    5.726E-10    5.925E-10    6.132E-10    6.347E-10    6.570E-10    6.801E-10    7.039E-10    7.286E-10    7.540E-10
     7.802E-10    8.072E-10    8.350E-10    8.636E-10    8.930E-10    9.231E-10    9.540E-10    9.856E-10    1.018E-09    1.051E-09
     1.084E-09    1.118E-09    1.153E-09    1.188E-09    1.223E-09    1.259E-09    1.295E-09    1.332E-09    1.368E-09    1.405E-09
     1.443E-09    1.480E-09    1.518E-09    1.555E-09    1.593E-09    1.631E-09    1.669E-09    1.706E-09    1.744E-09    1.781E-09
     1.819E-09    1.856E-09    1.893E-09    1.929E-09    1.965E-09    2.001E-09    2.036E-09    2.071E-09    2.105E-09    2.138E-09
     2.170E-09    2.201E-09    2.231E-09    2.260E-09    2.288E-09    2.315E-09    2.340E-09    2.363E-09    2.386E-09    2.406E-09
     2.425E-09    2.442E-09    2.457E-09    2.470E-09    2.482E-09    2.491E-09    2.498E-09    2.502E-09    2.504E-09    2.504E-09
     2.501E-09    2.496E-09    2.488E-09    2.477E-09    2.462E-09    2.445E-09    2.424E-09    2.399E-09    2.371E-09    2.338E-09
     2.302E-09    2.262E-09    2.217E-09    2.168E-09    2.114E-09    2.055E-09    1.991E-09    1.922E-09    1.848E-09    1.769E-09
     1.684E-09    1.593E-09    1.496E-09    1.394E-09    1.285E-09    1.170E-09    1.048E-09    9.199E-10    7.850E-10    6.438E-10
     4.967E-10    3.444E-10    1.873E-10    2.598E-11   -1.391E-10   -3.073E-10   -4.782E-10   -6.513E-10   -8.261E-10   -1.002E-09
    -1.178E-09   -1.355E-09   -1.531E-09   -1.706E-09   -1.880E-09   -2.052E-09   -2.221E-09   -2.388E-09   -2.550E-09   -2.709E-09
    -2.863E-09   -3.012E-09   -3.156E-09   -3.293E-09   -3.424E-09   -3.547E-09   -3.663E-09   -3.772E-09   -3.873E-09   -3.967E-09
    -4.054E-09   -4.134E-09   -4.207E-09   -4.274E-09   -4.334E-09   -4.388E-09   -4.435E-09   -4.476E-09   -4.512E-09   -4.541E-09
    -4.565E-09   -4.583E-09   -4.596E-09   -4.603E-09   -4.605E-09   -4.603E-09   -4.595E-09   -4.583E-09   -4.566E-09   -4.544E-09
    -4.518E-09   -4.488E-09   -4.454E-09   -4.416E-09   -4.374E-09   -4.329E-09   -4.280E-09   -4.228E-09   -4.173E-09   -4.116E-09
    -4.056E-09   -3.994E-09   -3.930E-09   -3.865E-09   -3.798E-09   -3.730E-09   -3.660E-09   -3.590E-09   -3.519E-09   -3.448E-09
    -3.377E-09   -3.306E-09   -3.236E-09   -3.165E-09   -3.096E-09   -3.028E-09   -2.961E-09   -2.896E-09   -2.832E-09   -2.770E-09
    -2.710E-09   -2.653E-09   -2.599E-09   -2.546E-09   -2.497E-09   -2.449E-09   -2.404E-09   -2.361E-09   -2.320E-09   -2.281E-09
    -2.243E-09   -2.208E-09   -2.175E-09   -2.143E-09   -2.113E-09   -2.085E-09   -2.058E-09   -2.032E-09   -2.008E-09   -1.985E-09
    -1.963E-09   -1.943E-09   -1.924E-09   -1.905E-09   -1.888E-09   -1.871E-09   -1.855E-09   -1.840E-09   -1.826E-09   -1.812E-09
    -1.798E-09   -1.785E-09   -1.773E-09   -1.761E-09   -1.749E-09   -1.738E-09   -1.728E-09   -1.717E-09   -1.707E-09   -1.698E-09
    -1.689E-09   -1.680E-09   -1.671E-09   -1.662E-09   -1.654E-09   -1.646E-09   -1.639E-09   -1.631E-09   -1.624E-09   -1.616E-09
    -1.609E-09   -1.602E-09   -1.595E-09   -1.588E-09   -1.582E-09   -1.575E-09   -1.568E-09   -1.561E-09   -1.554E-09   -1.548E-09
    -1.541E-09   -1.534E-09   -1.527E-09   -1.520E-09   -1.513E-09   -1.506E-09   -1.499E-09   -1.493E-09   -1.486E-09   -1.479E-09
    -1.472E-09   -1.465E-09   -1.458E-09   -1.452E-09   -1.445E-09   -1.438E-09   -1.431E-09   -1.425E-09   -1.418E-09   -1.411E-09
    -1.405E-09   -1.398E-09   -1.391E-09   -1.385E-09   -1.378E-09   -1.372E-09   -1.366E-09   -1.359E-09   -1.353E-09   -1.347E-09
    -1.341E-09   -1.334E-09   -1.328E-09   -1.322E-09   -1.316E-09   -1.310E-09   -1.304E-09   -1.298E-09   -1.292E-09   -1.286E-09
    -1.280E-09   -1.274E-09   -1.269E-09   -1.263E-09   -1.257E-09   -1.251E-09   -1.246E-09   -1.240E-09   -1.234E-09   -1.229E-09
    -1.223E-09   -1.217E-09   -1.212E-09
 Ala      Conc. = 9.84E-11
   6.25890E-10  6.26343E-10  6.24406E-10  6.20198E-10  6.13537E-10  6.04732E-10  5.92628E-10  5.76449E-10  5.61544E-10  5.47433E-10
   5.29113E-10  5.13284E-10  5.01423E-10  4.88922E-10  4.77712E-10  4.68550E-10  4.60444E-10  4.52965E-10  4.45904E-10  4.39147E-10
   4.32629E-10  4.26307E-10  4.20159E-10  4.14166E-10  4.08317E-10  4.02609E-10  3.97037E-10  3.91599E-10  3.86296E-10  3.81134E-10
   3.76133E-10  3.71313E-10  3.66696E-10  3.62307E-10  3.58166E-10  3.54297E-10  3.50724E-10  3.47470E-10  3.44558E-10  3.42011E-10
   3.39855E-10  3.38111E-10  3.36804E-10  3.35958E-10  3.35598E-10  3.35744E-10  3.36424E-10  3.37662E-10  3.39478E-10  3.41900E-10
   3.44952E-10  3.48655E-10  3.53036E-10  3.58117E-10  3.63929E-10  3.70484E-10  3.77813E-10  3.85932E-10  3.94843E-10  4.04544E-10
   4.15037E-10  4.26322E-10  4.38399E-10  4.51268E-10  4.64931E-10  4.79387E-10  4.94636E-10  5.10681E-10  5.27520E-10  5.45155E-10
   5.63587E-10  5.82816E-10  6.02844E-10  6.23672E-10  6.45301E-10  6.67733E-10  6.90969E-10  7.15012E-10  7.39864E-10  7.65528E-10
   7.92007E-10  8.19308E-10  8.47432E-10  8.76389E-10  9.06183E-10  9.36809E-10  9.68243E-10  1.00046E-09  1.03345E-09  1.06720E-09
   1.10171E-09  1.13700E-09  1.17310E-09  1.21008E-09  1.24808E-09  1.28734E-09  1.32830E-09  1.37188E-09  1.42029E-09  1.48049E-09
   1.56391E-09  1.65009E-09  1.74287E-09  1.85707E-09  1.97119E-09  2.06955E-09  2.14281E-09  2.18783E-09  2.20447E-09  2.19181E-09
   2.15495E-09  2.11451E-09  2.09383E-09  2.06241E-09  2.03801E-09  2.04988E-09  2.07297E-09  2.10026E-09  2.12930E-09  2.15897E-09
   2.18865E-09  2.21798E-09  2.24667E-09  2.27454E-09  2.30142E-09  2.32718E-09  2.35169E-09  2.37485E-09  2.39656E-09  2.41670E-09
   2.43520E-09  2.45195E-09  2.46688E-09  2.47988E-09  2.49087E-09  2.49977E-09  2.50649E-09  2.51095E-09  2.51305E-09  2.51273E-09
   2.50988E-09  2.50437E-09  2.49606E-09  2.48479E-09  2.47040E-09  2.45274E-09  2.43167E-09  2.40701E-09  2.37863E-09  2.34637E-09
   2.31009E-09  2.26961E-09  2.22481E-09  2.17551E-09  2.12159E-09  2.06287E-09  1.99923E-09  1.93051E-09  1.85657E-09  1.77727E-09
   1.69250E-09  1.60212E-09  1.50610E-09  1.40440E-09  1.29724E-09  1.18550E-09  1.07362E-09  9.73270E-10  8.73539E-10  7.72185E-10
   6.68700E-10  5.57725E-10  4.29732E-10  2.74959E-10  9.07236E-11 -1.17458E-10 -3.40342E-10 -5.68276E-10 -7.86503E-10 -9.75631E-10
  -1.15771E-09 -1.33737E-09 -1.51549E-09 -1.69207E-09 -1.86681E-09 -2.03934E-09 -2.20922E-09 -2.37598E-09 -2.53911E-09 -2.69814E-09
  -2.85256E-09 -3.00186E-09 -3.14554E-09 -3.28306E-09 -3.41394E-09 -3.53765E-09 -3.65382E-09 -3.76250E-09 -3.86383E-09 -3.95795E-09
  -4.04498E-09 -4.12508E-09 -4.19837E-09 -4.26500E-09 -4.32509E-09 -4.37879E-09 -4.42624E-09 -4.46756E-09 -4.50290E-09 -4.53239E-09
  -4.55618E-09 -4.57438E-09 -4.58714E-09 -4.59461E-09 -4.59691E-09 -4.59417E-09 -4.58655E-09 -4.57416E-09 -4.55715E-09 -4.53566E-09
  -4.50981E-09 -4.47975E-09 -4.44561E-09 -4.40753E-09 -4.36568E-09 -4.32027E-09 -4.27154E-09 -4.21971E-09 -4.16501E-09 -4.10769E-09
  -4.04796E-09 -3.98606E-09 -3.92222E-09 -3.85666E-09 -3.78962E-09 -3.72132E-09 -3.65200E-09 -3.58189E-09 -3.51120E-09 -3.44019E-09
  -3.36907E-09 -3.29807E-09 -3.22742E-09 -3.15737E-09 -3.08811E-09 -3.01989E-09 -2.95295E-09 -2.88750E-09 -2.82378E-09 -2.76202E-09
  -2.70242E-09 -2.64526E-09 -2.59060E-09 -2.53839E-09 -2.48856E-09 -2.44104E-09 -2.39575E-09 -2.35263E-09 -2.31159E-09 -2.27257E-09
  -2.23549E-09 -2.20028E-09 -2.16687E-09 -2.13519E-09 -2.10516E-09 -2.07671E-09 -2.04976E-09 -2.02426E-09 -2.00012E-09 -1.97727E-09
  -1.95563E-09 -1.93514E-09 -1.91573E-09 -1.89731E-09 -1.87983E-09 -1.86319E-09 -1.84735E-09 -1.83221E-09 -1.81772E-09 -1.80380E-09
  -1.79039E-09 -1.77750E-09 -1.76508E-09 -1.75313E-09 -1.74162E-09 -1.73054E-09 -1.71986E-09 -1.70956E-09 -1.69963E-09 -1.69004E-09
  -1.68077E-09 -1.67181E-09 -1.66314E-09 -1.65472E-09 -1.64655E-09 -1.63861E-09 -1.63087E-09 -1.62332E-09 -1.61593E-09 -1.60868E-09
  -1.60157E-09 -1.59455E-09 -1.58762E-09 -1.58076E-09 -1.57395E-09 -1.56716E-09 -1.56038E-09 -1.55358E-09 -1.54677E-09 -1.53994E-09
  -1.53310E-09 -1.52625E-09 -1.51939E-09 -1.51253E-09 -1.50566E-09 -1.49879E-09 -1.49192E-09 -1.48505E-09 -1.47819E-09 -1.47133E-09
  -1.46449E-09 -1.45766E-09 -1.45084E-09 -1.44404E-09 -1.43726E-09 -1.43050E-09 -1.42376E-09 -1.41705E-09 -1.41037E-09 -1.40372E-09
  -1.39710E-09 -1.39052E-09 -1.38397E-09 -1.37746E-09 -1.37100E-09 -1.36457E-09 -1.35819E-09 -1.35186E-09 -1.34556E-09 -1.33931E-09
  -1.33310E-09 -1.32692E-09 -1.32079E-09 -1.31469E-09 -1.30863E-09 -1.30260E-09 -1.29660E-09 -1.29064E-09 -1.28472E-09 -1.27882E-09
  -1.27295E-09 -1.26712E-09 -1.26131E-09 -1.25553E-09 -1.24977E-09 -1.24405E-09 -1.23835E-09 -1.23267E-09 -1.22701E-09 -1.22138E-09
  -1.21577E-09 -1.21018E-09 -1.20460E-09
 Asp      Conc. = 6.73E-10
   1.34429E-09  1.23577E-09  1.12242E-09  9.99935E-10  8.84187E-10  7.68872E-10  6.80910E-10  6.14598E-10  5.81841E-10  5.61783E-10
   5.47880E-10  5.37461E-10  5.29185E-10  5.22218E-10  5.15773E-10  5.09682E-10  5.04005E-10  4.98713E-10  4.93776E-10  4.89178E-10
   4.84915E-10  4.80994E-10  4.77436E-10  4.74270E-10  4.71535E-10  4.69292E-10  4.67611E-10  4.66587E-10  4.66348E-10  4.67069E-10
   4.69005E-10  4.72511E-10  4.78114E-10  4.86646E-10  4.99559E-10  5.19829E-10  5.54372E-10  5.96813E-10  6.52189E-10  7.06269E-10
   7.52986E-10  7.89128E-10  8.17225E-10  8.53223E-10  9.00465E-10  9.95048E-10  1.10585E-09  1.23149E-09  1.39372E-09  1.53723E-09
   1.62238E-09  1.61461E-09  1.52211E-09  1.36806E-09  1.19062E-09  1.04348E-09  9.26641E-10  8.74569E-10  8.07985E-10  7.33664E-10
   7.06084E-10  7.02547E-10  6.97475E-10  6.95475E-10  6.89761E-10  6.67987E-10  6.36605E-10  6.24933E-10  6.23816E-10  6.28737E-10
   6.37657E-10  6.49502E-10  6.63636E-10  6.79658E-10  6.97297E-10  7.16366E-10  7.36729E-10  7.58285E-10  7.80959E-10  8.04692E-10
   8.29437E-10  8.55160E-10  8.81828E-10  9.09422E-10  9.37918E-10  9.67286E-10  9.97474E-10  1.02843E-09  1.06012E-09  1.09248E-09
   1.12549E-09  1.15908E-09  1.19322E-09  1.22788E-09  1.26300E-09  1.29855E-09  1.33448E-09  1.37076E-09  1.40735E-09  1.44421E-09
   1.48129E-09  1.51856E-09  1.55599E-09  1.59352E-09  1.63113E-09  1.66878E-09  1.70642E-09  1.74402E-09  1.78155E-09  1.81895E-09
   1.85621E-09  1.89327E-09  1.93009E-09  1.96662E-09  2.00277E-09  2.03845E-09  2.07360E-09  2.10811E-09  2.14192E-09  2.17493E-09
   2.20706E-09  2.23824E-09  2.26837E-09  2.29739E-09  2.32519E-09  2.35171E-09  2.37686E-09  2.40055E-09  2.42271E-09  2.44325E-09
   2.46209E-09  2.47914E-09  2.49434E-09  2.50758E-09  2.51880E-09  2.52790E-09  2.53481E-09  2.53944E-09  2.54172E-09  2.54156E-09
   2.53888E-09  2.53354E-09  2.52539E-09  2.51429E-09  2.50007E-09  2.48260E-09  2.46173E-09  2.43729E-09  2.40916E-09  2.37716E-09
   2.34118E-09  2.30105E-09  2.25664E-09  2.20781E-09  2.15444E-09  2.09639E-09  2.03356E-09  1.96584E-09  1.89316E-09  1.81549E-09
   1.73285E-09  1.64538E-09  1.55346E-09  1.45789E-09  1.36065E-09  1.26729E-09  1.20002E-09  1.24956E-09  1.34985E-09  1.47631E-09
   1.62394E-09  1.75818E-09  1.81406E-09  1.71887E-09  1.44335E-09  1.01611E-09  4.96032E-10 -5.56099E-11 -5.51409E-10 -8.38806E-10
  -1.05755E-09 -1.25608E-09 -1.44562E-09 -1.62979E-09 -1.80991E-09 -1.98642E-09 -2.15935E-09 -2.32850E-09 -2.49356E-09 -2.65416E-09
  -2.80988E-09 -2.96028E-09 -3.10490E-09 -3.24322E-09 -3.37479E-09 -3.49912E-09 -3.61582E-09 -3.72497E-09 -3.82672E-09 -3.92121E-09
  -4.00859E-09 -4.08899E-09 -4.16255E-09 -4.22943E-09 -4.28976E-09 -4.34367E-09 -4.39130E-09 -4.43281E-09 -4.46831E-09 -4.49795E-09
  -4.52188E-09 -4.54021E-09 -4.55310E-09 -4.56068E-09 -4.56308E-09 -4.56045E-09 -4.55292E-09 -4.54062E-09 -4.52369E-09 -4.50228E-09
  -4.47651E-09 -4.44652E-09 -4.41245E-09 -4.37443E-09 -4.33264E-09 -4.28729E-09 -4.23861E-09 -4.18683E-09 -4.13219E-09 -4.07492E-09
