 LCModel (Version 6.3-1R) Copyright: S.W. Provencher.          Ref.: Magn. Reson. Med. 30:672-679 (1993).                
 onepulse 22x25_ftSpec_smooth_lcm
 26 lines in following concentration table = NCONC+1
    Conc.  %SD   /Cr    Metabolite                                         
    0.000 999%   0.000 Ala                                                 
    0.000 999%   0.000 Asp                                                 
    0.000 999%   0.000 Cr                                                  
 2.54E-09  19%   0.000 GABA                                                
 2.60E-09  16%   0.000 Glc                                                 
    0.000 999%   0.000 Gln                                                 
 1.76E-10 305%   0.000 Glu                                                 
    0.000 999%   0.000 Glyc                                                
 1.39E-10  53%   0.000 GPC                                                 
 3.82E-10  70%   0.000 GSH                                                 
 3.65E-10  81%   0.000 Ins                                                 
    0.000 999%   0.000 Lac                                                 
    0.000 999%   0.000 NAAG                                                
 1.21E-09  20%   0.000 NAA                                                 
    0.000 999%   0.000 PCh                                                 
    0.000 999%   0.000 PCr                                                 
    0.000 999%   0.000 PE                                                  
    0.000 999%   0.000 Scyllo                                              
    0.000 999%   0.000 Ser                                                 
    0.000 999%   0.000 Tau                                                 
 1.39E-10  53%   0.000 GPC+PCh                                             
 1.21E-09  20%   0.000 NAA+NAAG                                            
 3.65E-10  81%   0.000 Ins+Glyc                                            
    0.000 999%   0.000 Cr+PCr                                              
 1.76E-10 305%   0.000 Glu+Gln                                             
   6 lines in following misc. output table
  FWHM = 0.056 ppm    S/N =   3                                            
  Data shift = 0.302 ppm                                                   
  Ph:  14 deg      13.6 deg/ppm                                            
  alphaB,S = 1.7E-01,   4.6E+01                                            
   16 spline knots.   Ns = 5(1)                                            
  ( 9) 3 infls.   ( 5) 1 extrs.                                            
  363 points on ppm-axis = NY
      4.250000     4.238821     4.227641     4.216462     4.205282     4.194103     4.182923     4.171744     4.160564     4.149385
      4.138206     4.127026     4.115847     4.104667     4.093488     4.082308     4.071129     4.059949     4.048770     4.037591
      4.026411     4.015232     4.004052     3.992873     3.981693     3.970514     3.959334     3.948155     3.936975     3.925796
      3.914617     3.903437     3.892258     3.881078     3.869899     3.858719     3.847540     3.836360     3.825181     3.814002
      3.802822     3.791643     3.780463     3.769284     3.758104     3.746925     3.735745     3.724566     3.713387     3.702207
      3.691028     3.679848     3.668669     3.657489     3.646310     3.635130     3.623951     3.612772     3.601592     3.590413
      3.579233     3.568054     3.556874     3.545695     3.534515     3.523336     3.512156     3.500977     3.489798     3.478618
      3.467439     3.456259     3.445080     3.433900     3.422721     3.411541     3.400362     3.389183     3.378003     3.366824
      3.355644     3.344465     3.333285     3.322106     3.310926     3.299747     3.288568     3.277388     3.266209     3.255029
      3.243850     3.232670     3.221491     3.210311     3.199132     3.187953     3.176773     3.165594     3.154414     3.143235
      3.132055     3.120876     3.109696     3.098517     3.087337     3.076158     3.064979     3.053799     3.042620     3.031440
      3.020261     3.009081     2.997902     2.986722     2.975543     2.964364     2.953184     2.942005     2.930825     2.919646
      2.908466     2.897287     2.886107     2.874928     2.863749     2.852569     2.841390     2.830210     2.819031     2.807851
      2.796672     2.785492     2.774313     2.763134     2.751954     2.740775     2.729595     2.718416     2.707236     2.696057
      2.684877     2.673698     2.662519     2.651339     2.640160     2.628980     2.617801     2.606621     2.595442     2.584262
      2.573083     2.561903     2.550724     2.539545     2.528365     2.517186     2.506006     2.494827     2.483647     2.472468
      2.461288     2.450109     2.438930     2.427750     2.416571     2.405391     2.394212     2.383032     2.371853     2.360673
      2.349494     2.338315     2.327135     2.315956     2.304776     2.293597     2.282417     2.271238     2.260058     2.248879
      2.237700     2.226520     2.215341     2.204161     2.192982     2.181802     2.170623     2.159443     2.148264     2.137084
      2.125905     2.114726     2.103546     2.092367     2.081187     2.070008     2.058828     2.047649     2.036469     2.025290
      2.014111     2.002931     1.991752     1.980572     1.969393     1.958213     1.947034     1.935854     1.924675     1.913496
      1.902316     1.891137     1.879957     1.868778     1.857598     1.846419     1.835239     1.824060     1.812881     1.801701
      1.790522     1.779342     1.768163     1.756983     1.745804     1.734624     1.723445     1.712265     1.701086     1.689907
      1.678727     1.667548     1.656368     1.645189     1.634009     1.622830     1.611650     1.600471     1.589292     1.578112
      1.566933     1.555753     1.544574     1.533394     1.522215     1.511035     1.499856     1.488677     1.477497     1.466318
      1.455138     1.443959     1.432779     1.421600     1.410420     1.399241     1.388062     1.376882     1.365703     1.354523
      1.343344     1.332164     1.320985     1.309805     1.298626     1.287446     1.276267     1.265088     1.253908     1.242729
      1.231549     1.220370     1.209190     1.198011     1.186831     1.175652     1.164473     1.153293     1.142114     1.130934
      1.119755     1.108575     1.097396     1.086216     1.075037     1.063858     1.052678     1.041499     1.030319     1.019140
      1.007960     0.996781     0.985601     0.974422     0.963243     0.952063     0.940884     0.929704     0.918525     0.907345
      0.896166     0.884986     0.873807     0.862628     0.851448     0.840269     0.829089     0.817910     0.806730     0.795551
      0.784371     0.773192     0.762012     0.750833     0.739654     0.728474     0.717295     0.706115     0.694936     0.683756
      0.672577     0.661397     0.650218     0.639039     0.627859     0.616680     0.605500     0.594321     0.583141     0.571962
      0.560782     0.549603     0.538424     0.527244     0.516065     0.504885     0.493706     0.482526     0.471347     0.460167
      0.448988     0.437809     0.426629     0.415450     0.404270     0.393091     0.381911     0.370732     0.359552     0.348373
      0.337193     0.326014     0.314835     0.303655     0.292476     0.281296     0.270117     0.258937     0.247758     0.236578
      0.225399     0.214220     0.203040
 NY phased data points follow
   7.13088E-09  7.77892E-09  1.01791E-08  1.31121E-08  1.59818E-08  1.75362E-08  1.79496E-08  1.56360E-08  1.48437E-08  1.22547E-08
   1.18162E-08  1.14126E-08  1.08100E-08  1.05047E-08  1.09565E-08  1.12210E-08  1.18168E-08  1.16873E-08  1.27701E-08  1.24887E-08
   1.31444E-08  1.22696E-08  1.22516E-08  1.15263E-08  1.21909E-08  1.06194E-08  1.04793E-08  9.93956E-09  1.03608E-08  1.12313E-08
   1.17433E-08  1.14216E-08  1.01662E-08  9.30561E-09  9.67620E-09  1.07065E-08  1.17929E-08  1.29443E-08  1.37171E-08  1.15101E-08
   1.04822E-08  9.06144E-09  8.34833E-09  7.23663E-09  7.28281E-09  6.91219E-09  6.73359E-09  6.45848E-09  6.52056E-09  6.26014E-09
   5.23161E-09  4.78757E-09  4.87637E-09  4.52157E-09  5.13228E-09  4.95889E-09  5.72318E-09  5.98431E-09  5.07353E-09  4.24082E-09
   4.27074E-09  4.22257E-09  4.96301E-09  5.35859E-09  6.67578E-09  6.71232E-09  8.03132E-09  1.05248E-08  1.17431E-08  1.19763E-08
   1.02522E-08  8.51828E-09  6.96471E-09  5.57110E-09  5.52638E-09  4.84999E-09  4.16511E-09  4.06824E-09  4.50443E-09  3.73433E-09
   4.15266E-09  4.51816E-09  6.67990E-09  1.05020E-08  1.44033E-08  1.59993E-08  1.51059E-08  1.20540E-08  1.03800E-08  8.59862E-09
   7.91893E-09  7.22802E-09  6.93995E-09  6.71017E-09  6.22570E-09  5.47149E-09  5.20570E-09  4.20668E-09  4.10525E-09  3.71686E-09
   2.77641E-09  2.68760E-09  2.86466E-09  2.30792E-09  2.97706E-09  2.68407E-09  3.05185E-09  3.23881E-09  2.68982E-09  2.68070E-09
   2.78466E-09  2.63547E-09  1.97417E-09  1.10315E-09  1.29570E-09  5.95573E-10  5.53010E-10  1.44090E-09  2.33603E-09  2.18084E-09
   2.02352E-09  1.99858E-09  2.92075E-09  2.40519E-09  2.14559E-09  2.11902E-09  2.02494E-09  1.27687E-09  9.07016E-10  8.73765E-12
   4.33686E-11  2.77755E-10  5.90780E-10  1.05641E-09  1.43454E-09  1.00308E-09  1.17688E-09  1.35960E-09  1.70061E-09  1.57094E-09
   1.10453E-09  1.09487E-09  1.17179E-09  2.26560E-09  3.52196E-09  3.68101E-09  3.51313E-09  3.08109E-09  2.78215E-09  3.45246E-09
   4.41921E-09  3.37636E-09  4.05245E-09  3.54707E-09  3.47523E-09  2.90402E-09  3.44545E-09  2.73820E-09  2.58533E-09  2.42053E-09
   3.45969E-09  2.80901E-09  3.24246E-09  3.90060E-09  3.55509E-09  4.07639E-09  4.14565E-09  4.71126E-09  5.46758E-09  5.09642E-09
   5.68830E-09  7.01005E-09  7.83287E-09  1.02008E-08  1.34250E-08  1.68999E-08  1.78203E-08  1.39634E-08  9.90197E-09  7.04017E-09
   4.85721E-09  3.53904E-09  2.81091E-09  1.12208E-09  6.67051E-10 -2.12441E-10 -5.38538E-10 -2.28593E-09 -2.54040E-09 -3.39205E-09
  -4.24873E-09 -5.23297E-09 -6.13749E-09 -6.70230E-09 -8.09450E-09 -8.74368E-09 -1.02857E-08 -1.12998E-08 -1.19866E-08 -1.32687E-08
  -1.34075E-08 -1.46172E-08 -1.48292E-08 -1.51926E-08 -1.53309E-08 -1.51949E-08 -1.45314E-08 -1.38491E-08 -1.28589E-08 -1.17241E-08
  -1.03975E-08 -9.18794E-09 -7.17342E-09 -6.00573E-09 -4.84754E-09 -3.76197E-09 -2.40607E-09 -1.32456E-09 -5.78212E-10 -1.69118E-10
   4.22464E-10  1.11753E-10  5.60080E-10 -3.79223E-10 -7.05419E-10 -8.30463E-10 -9.38620E-10 -1.15623E-09 -7.87014E-10 -1.07569E-09
  -1.08457E-09 -9.34393E-10 -6.28778E-10 -7.21893E-10 -8.02479E-10 -7.46645E-10 -6.99304E-10 -1.44993E-09 -1.79639E-09 -1.30347E-09
  -6.88443E-10 -1.27271E-09 -7.91231E-10 -2.66413E-10 -4.07982E-10 -6.04497E-10 -7.37503E-10 -1.26594E-09 -7.85561E-10 -1.06920E-09
  -1.45992E-09 -9.63881E-10 -8.57090E-10 -9.89801E-10 -1.62159E-10 -2.83128E-10 -2.34192E-10 -3.26051E-10 -3.86639E-11 -2.85021E-10
  -2.32815E-10 -7.43912E-10 -7.52425E-10 -1.28699E-09 -1.75181E-09 -1.03779E-09 -1.53846E-09 -1.47132E-09 -1.26747E-09 -6.06345E-10
  -6.66944E-10 -6.96059E-10  7.39453E-10  2.75768E-10  1.04259E-10  3.94490E-10  1.58484E-10  7.31429E-10  4.33955E-10  1.05771E-10
  -1.88017E-10 -1.67130E-10 -5.47780E-10 -7.41966E-10 -5.78605E-10 -9.88214E-10 -1.06083E-09 -9.83369E-10 -8.25005E-10 -6.16895E-10
  -1.22481E-09 -4.19473E-10 -9.53226E-10 -7.48226E-10 -4.49247E-10 -8.96239E-10 -8.31542E-10 -5.05863E-10 -3.59232E-10 -8.50727E-10
  -4.17719E-10 -2.58529E-10 -9.49371E-11 -6.24023E-10 -2.63209E-10 -6.15032E-10  6.98768E-11 -5.06824E-10  1.19730E-11 -2.09633E-10
  -1.18213E-10 -4.05235E-10 -9.53346E-11 -3.11432E-10 -3.17724E-10  2.07051E-10 -1.89029E-10 -2.33077E-10  7.34060E-11 -1.53037E-10
   2.54908E-10  3.22994E-10 -6.46703E-11  1.58174E-10  4.28999E-10  5.66045E-11  2.24473E-10  1.66442E-10  3.61657E-10  1.20663E-10
   2.25013E-10  5.09219E-10  2.41501E-10 -4.74341E-12  4.01020E-10  4.29930E-10  2.24188E-10  4.13555E-10  5.12037E-10  3.16339E-10
  -3.47368E-10  1.90580E-10  2.72362E-10  8.68773E-10  6.68327E-10  4.11537E-11  4.84240E-10  3.97294E-10  4.58639E-10  4.64930E-10
   4.11298E-10  4.01334E-10  6.17778E-10  2.59933E-10  1.55486E-10  9.34424E-10  5.32120E-10  3.71987E-10  7.02490E-10  2.81965E-10
   8.73514E-10  5.13777E-10  6.79846E-10
 NY points of the fit to the data follow
   9.51546E-09  1.01836E-08  1.09237E-08  1.20628E-08  1.33885E-08  1.45684E-08  1.51197E-08  1.48161E-08  1.38366E-08  1.21801E-08
   1.10127E-08  1.05484E-08  1.03843E-08  1.05174E-08  1.08601E-08  1.12494E-08  1.16598E-08  1.21104E-08  1.24458E-08  1.27917E-08
   1.35505E-08  1.43727E-08  1.47293E-08  1.44027E-08  1.32521E-08  1.14300E-08  9.83430E-09  9.34842E-09  9.61221E-09  1.03849E-08
   1.10531E-08  1.12872E-08  1.13581E-08  1.10048E-08  1.02973E-08  1.02360E-08  1.06931E-08  1.10713E-08  1.11642E-08  1.11092E-08
   1.10061E-08  1.09315E-08  1.00531E-08  8.76063E-09  8.10758E-09  7.27634E-09  6.14531E-09  5.39049E-09  5.01837E-09  4.91298E-09
   4.91001E-09  4.91166E-09  4.84648E-09  4.73386E-09  4.68134E-09  4.79043E-09  5.06809E-09  5.43657E-09  5.68730E-09  5.71269E-09
   5.56099E-09  5.47225E-09  5.61345E-09  5.85921E-09  6.34881E-09  7.09391E-09  7.69767E-09  8.12341E-09  8.67400E-09  9.17914E-09
   9.52738E-09  9.41672E-09  8.83310E-09  8.10921E-09  7.34178E-09  6.12425E-09  5.46755E-09  5.92642E-09  6.41304E-09  6.79838E-09
   7.36544E-09  8.16282E-09  9.43282E-09  1.11760E-08  1.28837E-08  1.38266E-08  1.33669E-08  1.12953E-08  8.49829E-09  7.08062E-09
   6.73970E-09  6.72487E-09  6.74077E-09  6.32606E-09  5.90384E-09  5.77564E-09  5.25663E-09  4.61230E-09  4.29078E-09  3.95524E-09
   3.59631E-09  3.34082E-09  3.15155E-09  3.00380E-09  2.88368E-09  2.78274E-09  2.69623E-09  2.62104E-09  2.55484E-09  2.49571E-09
   2.44183E-09  2.39177E-09  2.34498E-09  2.30102E-09  2.25955E-09  2.22026E-09  2.18251E-09  2.14585E-09  2.11000E-09  2.07474E-09
   2.03990E-09  2.00536E-09  1.97090E-09  1.93635E-09  1.90159E-09  1.86647E-09  1.83087E-09  1.79466E-09  1.75779E-09  1.72013E-09
   1.68159E-09  1.64209E-09  1.60156E-09  1.55991E-09  1.51709E-09  1.47300E-09  1.42758E-09  1.38075E-09  1.33246E-09  1.28267E-09
   1.23131E-09  1.17840E-09  1.12389E-09  1.06780E-09  1.01013E-09  9.50917E-10  8.90189E-10  8.27982E-10  7.64322E-10  6.99252E-10
   6.32842E-10  5.65176E-10  4.96373E-10  4.26578E-10  3.55984E-10  2.84843E-10  2.13513E-10  1.42478E-10  7.24412E-11  4.42990E-12
  -5.99726E-11 -1.18212E-10 -1.65858E-10 -1.94496E-10 -1.85564E-10 -8.73607E-11  3.16933E-10  1.69009E-09  3.40733E-09  4.83505E-09
   6.18851E-09  8.01832E-09  1.06950E-08  1.39750E-08  1.68230E-08  1.76902E-08  1.52614E-08  9.60133E-09  3.18764E-09  2.08980E-11
  -1.00498E-09 -1.51205E-09 -1.83575E-09 -2.07396E-09 -2.26510E-09 -2.42718E-09 -2.56962E-09 -2.69774E-09 -2.81472E-09 -2.92253E-09
  -3.02240E-09 -3.11512E-09 -3.20117E-09 -3.28085E-09 -3.35430E-09 -3.42158E-09 -3.48276E-09 -3.53808E-09 -3.58778E-09 -3.63209E-09
  -3.67121E-09 -3.70533E-09 -3.73461E-09 -3.75922E-09 -3.77930E-09 -3.79499E-09 -3.80643E-09 -3.81376E-09 -3.81711E-09 -3.81659E-09
  -3.81234E-09 -3.80447E-09 -3.79310E-09 -3.77836E-09 -3.76034E-09 -3.73918E-09 -3.71498E-09 -3.68785E-09 -3.65791E-09 -3.62528E-09
  -3.59005E-09 -3.55234E-09 -3.51226E-09 -3.46991E-09 -3.42542E-09 -3.37891E-09 -3.33048E-09 -3.28028E-09 -3.22841E-09 -3.17500E-09
  -3.12018E-09 -3.06406E-09 -3.00678E-09 -2.94844E-09 -2.88916E-09 -2.82908E-09 -2.76830E-09 -2.70696E-09 -2.64515E-09 -2.58304E-09
  -2.52071E-09 -2.45829E-09 -2.39591E-09 -2.33369E-09 -2.27173E-09 -2.21016E-09 -2.14911E-09 -2.08869E-09 -2.02902E-09 -1.97023E-09
  -1.91242E-09 -1.85574E-09 -1.80022E-09 -1.74586E-09 -1.69266E-09 -1.64059E-09 -1.58963E-09 -1.53977E-09 -1.49100E-09 -1.44330E-09
  -1.39666E-09 -1.35105E-09 -1.30647E-09 -1.26289E-09 -1.22031E-09 -1.17870E-09 -1.13804E-09 -1.09834E-09 -1.05957E-09 -1.02170E-09
  -9.84732E-10 -9.48651E-10 -9.13426E-10 -8.79051E-10 -8.45519E-10 -8.12790E-10 -7.80875E-10 -7.49742E-10 -7.19383E-10 -6.89773E-10
  -6.60900E-10 -6.32745E-10 -6.05285E-10 -5.78497E-10 -5.52371E-10 -5.26876E-10 -5.02000E-10 -4.77717E-10 -4.54008E-10 -4.30859E-10
  -4.08242E-10 -3.86142E-10 -3.64535E-10 -3.43403E-10 -3.22727E-10 -3.02483E-10 -2.82656E-10 -2.63222E-10 -2.44167E-10 -2.25458E-10
  -2.07091E-10 -1.89034E-10 -1.71270E-10 -1.53786E-10 -1.36554E-10 -1.19554E-10 -1.02772E-10 -8.61789E-11 -6.97734E-11 -5.35476E-11
  -3.74972E-11 -2.16185E-11 -5.90766E-12  9.64312E-12  2.50351E-11  4.02742E-11  5.53648E-11  7.03116E-11  8.51179E-11  9.97913E-11
   1.14331E-10  1.28747E-10  1.43042E-10  1.57217E-10  1.71283E-10  1.85237E-10  1.99090E-10  2.12844E-10  2.26503E-10  2.40069E-10
   2.53553E-10  2.66955E-10  2.80282E-10  2.93535E-10  3.06719E-10  3.19843E-10  3.32906E-10  3.45911E-10  3.58862E-10  3.71761E-10
   3.84610E-10  3.97414E-10  4.10174E-10  4.22894E-10  4.35575E-10  4.48222E-10  4.60835E-10  4.73418E-10  4.85974E-10  4.98506E-10
   5.11017E-10  5.23508E-10  5.35983E-10  5.48444E-10  5.60895E-10  5.73338E-10  5.85776E-10  5.98212E-10  6.10648E-10  6.23085E-10
   6.35529E-10  6.47980E-10  6.60445E-10
 NY background values follow
     2.886E-09    2.861E-09    2.835E-09    2.809E-09    2.782E-09    2.756E-09    2.730E-09    2.704E-09    2.678E-09    2.652E-09
     2.626E-09    2.600E-09    2.573E-09    2.547E-09    2.522E-09    2.496E-09    2.470E-09    2.444E-09    2.419E-09    2.393E-09
     2.368E-09    2.343E-09    2.318E-09    2.293E-09    2.269E-09    2.244E-09    2.220E-09    2.196E-09    2.172E-09    2.149E-09
     2.126E-09    2.103E-09    2.080E-09    2.057E-09    2.035E-09    2.013E-09    1.991E-09    1.970E-09    1.949E-09    1.928E-09
     1.907E-09    1.887E-09    1.867E-09    1.847E-09    1.828E-09    1.809E-09    1.790E-09    1.771E-09    1.753E-09    1.735E-09
     1.718E-09    1.700E-09    1.683E-09    1.667E-09    1.651E-09    1.635E-09    1.619E-09    1.604E-09    1.589E-09    1.575E-09
     1.560E-09    1.547E-09    1.533E-09    1.520E-09    1.507E-09    1.495E-09    1.482E-09    1.470E-09    1.459E-09    1.447E-09
     1.436E-09    1.426E-09    1.415E-09    1.405E-09    1.395E-09    1.386E-09    1.376E-09    1.367E-09    1.358E-09    1.350E-09
     1.342E-09    1.334E-09    1.326E-09    1.318E-09    1.311E-09    1.304E-09    1.297E-09    1.291E-09    1.284E-09    1.278E-09
     1.271E-09    1.265E-09    1.259E-09    1.253E-09    1.246E-09    1.240E-09    1.234E-09    1.227E-09    1.221E-09    1.214E-09
     1.207E-09    1.200E-09    1.193E-09    1.185E-09    1.177E-09    1.169E-09    1.161E-09    1.152E-09    1.143E-09    1.133E-09
     1.123E-09    1.112E-09    1.101E-09    1.089E-09    1.077E-09    1.064E-09    1.051E-09    1.036E-09    1.021E-09    1.005E-09
     9.883E-10    9.705E-10    9.516E-10    9.317E-10    9.107E-10    8.886E-10    8.652E-10    8.406E-10    8.146E-10    7.874E-10
     7.587E-10    7.285E-10    6.968E-10    6.636E-10    6.287E-10    5.922E-10    5.540E-10    5.140E-10    4.722E-10    4.285E-10
     3.829E-10    3.354E-10    2.859E-10    2.345E-10    1.812E-10    1.260E-10    6.879E-11    9.686E-12   -5.135E-11   -1.143E-10
    -1.792E-10   -2.460E-10   -3.147E-10   -3.854E-10   -4.580E-10   -5.325E-10   -6.089E-10   -6.872E-10   -7.675E-10   -8.497E-10
    -9.338E-10   -1.020E-09   -1.108E-09   -1.198E-09   -1.289E-09   -1.383E-09   -1.479E-09   -1.576E-09   -1.676E-09   -1.777E-09
    -1.879E-09   -1.983E-09   -2.088E-09   -2.193E-09   -2.299E-09   -2.405E-09   -2.510E-09   -2.616E-09   -2.721E-09   -2.825E-09
    -2.928E-09   -3.030E-09   -3.130E-09   -3.228E-09   -3.325E-09   -3.419E-09   -3.510E-09   -3.599E-09   -3.684E-09   -3.766E-09
    -3.845E-09   -3.920E-09   -3.991E-09   -4.057E-09   -4.119E-09   -4.176E-09   -4.228E-09   -4.275E-09   -4.317E-09   -4.355E-09
    -4.388E-09   -4.416E-09   -4.440E-09   -4.460E-09   -4.476E-09   -4.487E-09   -4.494E-09   -4.498E-09   -4.498E-09   -4.494E-09
    -4.486E-09   -4.475E-09   -4.461E-09   -4.443E-09   -4.423E-09   -4.399E-09   -4.372E-09   -4.343E-09   -4.310E-09   -4.275E-09
    -4.238E-09   -4.198E-09   -4.156E-09   -4.112E-09   -4.065E-09   -4.017E-09   -3.967E-09   -3.915E-09   -3.861E-09   -3.806E-09
    -3.749E-09   -3.692E-09   -3.633E-09   -3.573E-09   -3.512E-09   -3.451E-09   -3.388E-09   -3.326E-09   -3.262E-09   -3.199E-09
    -3.135E-09   -3.071E-09   -3.008E-09   -2.944E-09   -2.881E-09   -2.818E-09   -2.756E-09   -2.694E-09   -2.634E-09   -2.574E-09
    -2.515E-09   -2.457E-09   -2.400E-09   -2.345E-09   -2.290E-09   -2.237E-09   -2.185E-09   -2.134E-09   -2.085E-09   -2.036E-09
    -1.988E-09   -1.942E-09   -1.896E-09   -1.852E-09   -1.808E-09   -1.766E-09   -1.724E-09   -1.684E-09   -1.644E-09   -1.605E-09
    -1.567E-09   -1.530E-09   -1.494E-09   -1.459E-09   -1.425E-09   -1.391E-09   -1.358E-09   -1.327E-09   -1.295E-09   -1.265E-09
    -1.235E-09   -1.206E-09   -1.178E-09   -1.151E-09   -1.124E-09   -1.098E-09   -1.072E-09   -1.047E-09   -1.023E-09   -9.986E-10
    -9.753E-10   -9.525E-10   -9.302E-10   -9.084E-10   -8.871E-10   -8.662E-10   -8.457E-10   -8.256E-10   -8.059E-10   -7.865E-10
    -7.675E-10   -7.488E-10   -7.304E-10   -7.123E-10   -6.945E-10   -6.768E-10   -6.594E-10   -6.422E-10   -6.252E-10   -6.084E-10
    -5.918E-10   -5.753E-10   -5.590E-10   -5.429E-10   -5.269E-10   -5.111E-10   -4.955E-10   -4.799E-10   -4.646E-10   -4.494E-10
    -4.343E-10   -4.193E-10   -4.045E-10   -3.898E-10   -3.752E-10   -3.607E-10   -3.463E-10   -3.320E-10   -3.178E-10   -3.037E-10
    -2.897E-10   -2.758E-10   -2.620E-10   -2.482E-10   -2.345E-10   -2.209E-10   -2.073E-10   -1.938E-10   -1.804E-10   -1.670E-10
    -1.537E-10   -1.404E-10   -1.271E-10   -1.139E-10   -1.008E-10   -8.765E-11   -7.456E-11   -6.151E-11   -4.848E-11   -3.548E-11
    -2.250E-11   -9.548E-12    3.390E-12    1.631E-11    2.922E-11    4.212E-11    5.502E-11    6.791E-11    8.080E-11    9.368E-11
     1.066E-10    1.195E-10    1.324E-10
 GABA     Conc. = 2.54E-09
   2.94228E-09  2.91654E-09  2.89081E-09  2.86510E-09  2.83944E-09  2.81386E-09  2.78838E-09  2.76304E-09  2.73788E-09  2.71295E-09
   2.68828E-09  2.66394E-09  2.64005E-09  2.61661E-09  2.59386E-09  2.57188E-09  2.55073E-09  2.53077E-09  2.51229E-09  2.49547E-09
   2.48087E-09  2.46915E-09  2.46117E-09  2.45845E-09  2.46328E-09  2.47926E-09  2.51358E-09  2.58019E-09  2.71588E-09  3.02186E-09
   3.29163E-09  3.55048E-09  4.15678E-09  4.89565E-09  5.59183E-09  6.41003E-09  7.22593E-09  7.86227E-09  8.19646E-09  8.21383E-09
   8.06740E-09  7.90764E-09  6.97256E-09  5.70884E-09  5.22695E-09  4.62166E-09  3.65725E-09  3.11618E-09  2.81579E-09  2.62395E-09
   2.49154E-09  2.39586E-09  2.32543E-09  2.27413E-09  2.23812E-09  2.21538E-09  2.20635E-09  2.21321E-09  2.24107E-09  2.30065E-09
   2.41538E-09  2.65618E-09  3.01741E-09  3.31860E-09  3.76101E-09  4.46162E-09  5.17433E-09  5.89419E-09  6.63724E-09  7.23612E-09
   7.51299E-09  7.36719E-09  6.88089E-09  6.31908E-09  5.58833E-09  4.32804E-09  3.48721E-09  3.25049E-09  2.78906E-09  2.37377E-09
   2.27158E-09  2.22186E-09  2.25994E-09  2.50309E-09  2.74601E-09  2.99909E-09  3.40516E-09  3.86089E-09  4.29780E-09  4.66457E-09
   4.91703E-09  5.19470E-09  5.38766E-09  5.09440E-09  4.75921E-09  4.69797E-09  4.23352E-09  3.63345E-09  3.34875E-09  3.04450E-09
   2.71258E-09  2.48076E-09  2.31246E-09  2.18345E-09  2.08021E-09  1.99459E-09  1.92208E-09  1.85975E-09  1.80543E-09  1.75732E-09
   1.71370E-09  1.67323E-09  1.63543E-09  1.59992E-09  1.56642E-09  1.53465E-09  1.50402E-09  1.47412E-09  1.44469E-09  1.41554E-09
   1.38653E-09  1.35755E-09  1.32840E-09  1.29894E-09  1.26904E-09  1.23859E-09  1.20745E-09  1.17553E-09  1.14277E-09  1.10906E-09
   1.07430E-09  1.03843E-09  1.00138E-09  9.63072E-10  9.23441E-10  8.82406E-10  8.39896E-10  7.95839E-10  7.50184E-10  7.02881E-10
   6.53873E-10  6.03148E-10  5.50678E-10  4.96447E-10  4.40463E-10  3.82738E-10  3.23289E-10  2.62126E-10  1.99247E-10  1.34658E-10
   6.83849E-11  4.53387E-13 -6.90905E-11 -1.40195E-10 -2.12792E-10 -2.86793E-10 -3.62066E-10 -4.38432E-10 -5.15624E-10 -5.93253E-10
  -6.70703E-10 -7.46962E-10 -8.20228E-10 -8.86978E-10 -9.39059E-10 -9.52223E-10 -8.15074E-10 -2.79670E-10  2.33019E-10  6.19107E-10
   1.03556E-09  1.68180E-09  2.64196E-09  3.74294E-09  4.53757E-09  4.45848E-09  3.12922E-09  7.95014E-10 -1.37871E-09 -2.05184E-09
  -2.36794E-09 -2.57728E-09 -2.74127E-09 -2.88139E-09 -3.00691E-09 -3.12238E-09 -3.23021E-09 -3.33173E-09 -3.42769E-09 -3.51849E-09
  -3.60433E-09 -3.68528E-09 -3.76132E-09 -3.83236E-09 -3.89830E-09 -3.95896E-09 -4.01425E-09 -4.06430E-09 -4.10925E-09 -4.14924E-09
  -4.18442E-09 -4.21491E-09 -4.24084E-09 -4.26234E-09 -4.27952E-09 -4.29250E-09 -4.30140E-09 -4.30633E-09 -4.30741E-09 -4.30474E-09
  -4.29845E-09 -4.28863E-09 -4.27540E-09 -4.25888E-09 -4.23916E-09 -4.21636E-09 -4.19058E-09 -4.16193E-09 -4.13053E-09 -4.09647E-09
  -4.05987E-09 -4.02083E-09 -3.97945E-09 -3.93585E-09 -3.89014E-09 -3.84244E-09 -3.79286E-09 -3.74153E-09 -3.68856E-09 -3.63408E-09
  -3.57821E-09 -3.52107E-09 -3.46278E-09 -3.40346E-09 -3.34322E-09 -3.28219E-09 -3.22049E-09 -3.15824E-09 -3.09555E-09 -3.03256E-09
  -2.96938E-09 -2.90611E-09 -2.84290E-09 -2.77986E-09 -2.71710E-09 -2.65475E-09 -2.59292E-09 -2.53173E-09 -2.47131E-09 -2.41178E-09
  -2.35324E-09 -2.29584E-09 -2.23961E-09 -2.18455E-09 -2.13066E-09 -2.07790E-09 -2.02627E-09 -1.97576E-09 -1.92633E-09 -1.87798E-09
  -1.83070E-09 -1.78446E-09 -1.73926E-09 -1.69506E-09 -1.65187E-09 -1.60966E-09 -1.56841E-09 -1.52812E-09 -1.48877E-09 -1.45033E-09
  -1.41279E-09 -1.37615E-09 -1.34037E-09 -1.30544E-09 -1.27136E-09 -1.23810E-09 -1.20565E-09 -1.17399E-09 -1.14310E-09 -1.11298E-09
  -1.08359E-09 -1.05493E-09 -1.02697E-09 -9.99681E-10 -9.73062E-10 -9.47078E-10 -9.21719E-10 -8.96956E-10 -8.72771E-10 -8.49150E-10
  -8.26067E-10 -8.03503E-10 -7.81437E-10 -7.59849E-10 -7.38722E-10 -7.18032E-10 -6.97760E-10 -6.77886E-10 -6.58395E-10 -6.39252E-10
  -6.20456E-10 -6.01973E-10 -5.83785E-10 -5.65882E-10 -5.48233E-10 -5.30819E-10 -5.13626E-10 -4.96626E-10 -4.79816E-10 -4.63188E-10
  -4.46739E-10 -4.30465E-10 -4.14361E-10 -3.98419E-10 -3.82639E-10 -3.67015E-10 -3.51541E-10 -3.36214E-10 -3.21030E-10 -3.05982E-10
  -2.91069E-10 -2.76282E-10 -2.61618E-10 -2.47077E-10 -2.32647E-10 -2.18331E-10 -2.04119E-10 -1.90006E-10 -1.75992E-10 -1.62071E-10
  -1.48235E-10 -1.34483E-10 -1.20809E-10 -1.07210E-10 -9.36809E-11 -8.02142E-11 -6.68103E-11 -5.34660E-11 -4.01774E-11 -2.69424E-11
  -1.37582E-11 -6.21322E-13  1.24704E-11  2.55201E-11  3.85292E-11  5.15035E-11  6.44421E-11  7.73500E-11  9.02294E-11  1.03083E-10
   1.15915E-10  1.28726E-10  1.41520E-10  1.54299E-10  1.67066E-10  1.79824E-10  1.92576E-10  2.05325E-10  2.18073E-10  2.30822E-10
   2.43576E-10  2.56337E-10  2.69111E-10
 Glc      Conc. = 2.60E-09
   7.62324E-09  8.10825E-09  8.69657E-09  9.58611E-09  1.04872E-08  1.11133E-08  1.12275E-08  1.07846E-08  9.97456E-09  8.72874E-09
   7.81661E-09  7.34422E-09  7.16210E-09  7.27296E-09  7.70132E-09  8.26128E-09  8.84112E-09  9.51322E-09  1.02970E-08  1.11815E-08
   1.22678E-08  1.32279E-08  1.36545E-08  1.31948E-08  1.17873E-08  9.68652E-09  7.78232E-09  6.86145E-09  6.45913E-09  6.26370E-09
   6.04628E-09  5.74329E-09  5.49960E-09  5.24542E-09  4.85778E-09  4.46156E-09  4.21144E-09  3.91059E-09  3.55464E-09  3.31368E-09
   3.14923E-09  3.02304E-09  2.91910E-09  2.83124E-09  2.75470E-09  2.68694E-09  2.62609E-09  2.57079E-09  2.52002E-09  2.47304E-09
   2.42930E-09  2.38833E-09  2.34979E-09  2.31341E-09  2.27898E-09  2.24625E-09  2.21509E-09  2.18539E-09  2.15700E-09  2.12982E-09
   2.10378E-09  2.07878E-09  2.05476E-09  2.03166E-09  2.00941E-09  1.98799E-09  1.96733E-09  1.94741E-09  1.92817E-09  1.90960E-09
   1.89167E-09  1.87433E-09  1.85758E-09  1.84138E-09  1.82572E-09  1.81057E-09  1.79592E-09  1.78174E-09  1.76803E-09  1.75477E-09
   1.74193E-09  1.72953E-09  1.71751E-09  1.70590E-09  1.69466E-09  1.68379E-09  1.67324E-09  1.66299E-09  1.65300E-09  1.64323E-09
   1.63367E-09  1.62426E-09  1.61499E-09  1.60582E-09  1.59672E-09  1.58765E-09  1.57860E-09  1.56953E-09  1.56041E-09  1.55121E-09
   1.54189E-09  1.53243E-09  1.52281E-09  1.51298E-09  1.50293E-09  1.49262E-09  1.48202E-09  1.47111E-09  1.45985E-09  1.44822E-09
   1.43619E-09  1.42372E-09  1.41080E-09  1.39737E-09  1.38339E-09  1.36881E-09  1.35357E-09  1.33761E-09  1.32090E-09  1.30337E-09
   1.28498E-09  1.26567E-09  1.24539E-09  1.22409E-09  1.20172E-09  1.17823E-09  1.15356E-09  1.12767E-09  1.10050E-09  1.07200E-09
   1.04213E-09  1.01082E-09  9.78042E-10  9.43727E-10  9.07835E-10  8.70310E-10  8.31106E-10  7.90174E-10  7.47466E-10  7.02929E-10
   6.56515E-10  6.08223E-10  5.58054E-10  5.06014E-10  4.52108E-10  3.96345E-10  3.38734E-10  2.79288E-10  2.18019E-10  1.54945E-10
   9.00926E-11  2.34823E-11 -4.48461E-11 -1.14851E-10 -1.86472E-10 -2.59635E-10 -3.34235E-10 -4.10133E-10 -4.87127E-10 -5.64935E-10
  -6.43124E-10 -7.21019E-10 -7.97491E-10 -8.70533E-10 -9.36089E-10 -9.84557E-10 -9.85843E-10 -7.91719E-10 -2.47809E-10  2.49428E-10
   6.36192E-10  1.08128E-09  1.77401E-09  2.76739E-09  3.84953E-09  4.54903E-09  4.31029E-09  2.82510E-09  4.58685E-10 -1.51933E-09
  -2.12325E-09 -2.42322E-09 -2.62634E-09 -2.78669E-09 -2.92391E-09 -3.04669E-09 -3.15934E-09 -3.26416E-09 -3.36246E-09 -3.45495E-09
  -3.54204E-09 -3.62393E-09 -3.70067E-09 -3.77224E-09 -3.83858E-09 -3.89954E-09 -3.95506E-09 -4.00527E-09 -4.05034E-09 -4.09042E-09
  -4.12564E-09 -4.15616E-09 -4.18210E-09 -4.20359E-09 -4.22075E-09 -4.23370E-09 -4.24256E-09 -4.24745E-09 -4.24848E-09 -4.24576E-09
  -4.23941E-09 -4.22954E-09 -4.21625E-09 -4.19966E-09 -4.17988E-09 -4.15701E-09 -4.13117E-09 -4.10247E-09 -4.07100E-09 -4.03689E-09
  -4.00022E-09 -3.96112E-09 -3.91969E-09 -3.87604E-09 -3.83027E-09 -3.78252E-09 -3.73289E-09 -3.68150E-09 -3.62848E-09 -3.57396E-09
