 LCModel (Version 6.3-1R) Copyright: S.W. Provencher.          Ref.: Magn. Reson. Med. 30:672-679 (1993).                
 onepulse 22x27_ftSpec_smooth_lcm
 26 lines in following concentration table = NCONC+1
    Conc.  %SD /Cr+PCr  Metabolite                                         
    0.000 999%   0.000 Ala                                                 
    0.000 999%   0.000 Asp                                                 
 4.18E-10  58%   1.000 Cr                                                  
    0.000 999%   0.000 GABA                                                
    0.000 999%   0.000 Glc                                                 
 1.81E-09  49%   4.336 Gln                                                 
 3.94E-10 202%   0.942 Glu                                                 
    0.000 999%   0.000 Glyc                                                
    0.000 999%   0.000 GPC                                                 
    0.000 999%   0.000 GSH                                                 
 1.54E-09  20%   3.679 Ins                                                 
    0.000 999%   0.000 Lac                                                 
 4.23E-11 930%   0.101 NAAG                                                
 7.77E-10  62%   1.856 NAA                                                 
 2.01E-10  42%   0.480 PCh                                                 
    0.000 999%   0.000 PCr                                                 
    0.000 999%   0.000 PE                                                  
 3.17E-10  37%   0.758 Scyllo                                              
 3.33E-09  18%   7.969 Ser                                                 
    0.000 999%   0.000 Tau                                                 
 2.01E-10  42%   0.480 GPC+PCh                                             
 8.19E-10  32%   1.957 NAA+NAAG                                            
 1.54E-09  20%   3.679 Ins+Glyc                                            
 4.18E-10  58%   1.000 Cr+PCr                                              
 2.21E-09  26%   5.277 Glu+Gln                                             
   6 lines in following misc. output table
  FWHM = 0.078 ppm    S/N =   3                                            
  Data shift = 0.335 ppm                                                   
  Ph: -53 deg     -26.2 deg/ppm                                            
  alphaB,S = 1.7E-01,   3.9E+01                                            
   16 spline knots.   Ns = 5(1)                                            
  (10) 2 infls.   ( 9) 1 extrs.                                            
  363 points on ppm-axis = NY
      4.250000     4.238821     4.227641     4.216462     4.205282     4.194103     4.182923     4.171744     4.160564     4.149385
      4.138206     4.127026     4.115847     4.104667     4.093488     4.082308     4.071129     4.059949     4.048770     4.037591
      4.026411     4.015232     4.004052     3.992873     3.981693     3.970514     3.959334     3.948155     3.936975     3.925796
      3.914617     3.903437     3.892258     3.881078     3.869899     3.858719     3.847540     3.836360     3.825181     3.814002
      3.802822     3.791643     3.780463     3.769284     3.758104     3.746925     3.735745     3.724566     3.713387     3.702207
      3.691028     3.679848     3.668669     3.657489     3.646310     3.635130     3.623951     3.612772     3.601592     3.590413
      3.579233     3.568054     3.556874     3.545695     3.534515     3.523336     3.512156     3.500977     3.489798     3.478618
      3.467439     3.456259     3.445080     3.433900     3.422721     3.411541     3.400362     3.389183     3.378003     3.366824
      3.355644     3.344465     3.333285     3.322106     3.310926     3.299747     3.288568     3.277388     3.266209     3.255029
      3.243850     3.232670     3.221491     3.210311     3.199132     3.187953     3.176773     3.165594     3.154414     3.143235
      3.132055     3.120876     3.109696     3.098517     3.087337     3.076158     3.064979     3.053799     3.042620     3.031440
      3.020261     3.009081     2.997902     2.986722     2.975543     2.964364     2.953184     2.942005     2.930825     2.919646
      2.908466     2.897287     2.886107     2.874928     2.863749     2.852569     2.841390     2.830210     2.819031     2.807851
      2.796672     2.785492     2.774313     2.763134     2.751954     2.740775     2.729595     2.718416     2.707236     2.696057
      2.684877     2.673698     2.662519     2.651339     2.640160     2.628980     2.617801     2.606621     2.595442     2.584262
      2.573083     2.561903     2.550724     2.539545     2.528365     2.517186     2.506006     2.494827     2.483647     2.472468
      2.461288     2.450109     2.438930     2.427750     2.416571     2.405391     2.394212     2.383032     2.371853     2.360673
      2.349494     2.338315     2.327135     2.315956     2.304776     2.293597     2.282417     2.271238     2.260058     2.248879
      2.237700     2.226520     2.215341     2.204161     2.192982     2.181802     2.170623     2.159443     2.148264     2.137084
      2.125905     2.114726     2.103546     2.092367     2.081187     2.070008     2.058828     2.047649     2.036469     2.025290
      2.014111     2.002931     1.991752     1.980572     1.969393     1.958213     1.947034     1.935854     1.924675     1.913496
      1.902316     1.891137     1.879957     1.868778     1.857598     1.846419     1.835239     1.824060     1.812881     1.801701
      1.790522     1.779342     1.768163     1.756983     1.745804     1.734624     1.723445     1.712265     1.701086     1.689907
      1.678727     1.667548     1.656368     1.645189     1.634009     1.622830     1.611650     1.600471     1.589292     1.578112
      1.566933     1.555753     1.544574     1.533394     1.522215     1.511035     1.499856     1.488677     1.477497     1.466318
      1.455138     1.443959     1.432779     1.421600     1.410420     1.399241     1.388062     1.376882     1.365703     1.354523
      1.343344     1.332164     1.320985     1.309805     1.298626     1.287446     1.276267     1.265088     1.253908     1.242729
      1.231549     1.220370     1.209190     1.198011     1.186831     1.175652     1.164473     1.153293     1.142114     1.130934
      1.119755     1.108575     1.097396     1.086216     1.075037     1.063858     1.052678     1.041499     1.030319     1.019140
      1.007960     0.996781     0.985601     0.974422     0.963243     0.952063     0.940884     0.929704     0.918525     0.907345
      0.896166     0.884986     0.873807     0.862628     0.851448     0.840269     0.829089     0.817910     0.806730     0.795551
      0.784371     0.773192     0.762012     0.750833     0.739654     0.728474     0.717295     0.706115     0.694936     0.683756
      0.672577     0.661397     0.650218     0.639039     0.627859     0.616680     0.605500     0.594321     0.583141     0.571962
      0.560782     0.549603     0.538424     0.527244     0.516065     0.504885     0.493706     0.482526     0.471347     0.460167
      0.448988     0.437809     0.426629     0.415450     0.404270     0.393091     0.381911     0.370732     0.359552     0.348373
      0.337193     0.326014     0.314835     0.303655     0.292476     0.281296     0.270117     0.258937     0.247758     0.236578
      0.225399     0.214220     0.203040
 NY phased data points follow
   1.86669E-08  1.95742E-08  1.72607E-08  1.49017E-08  1.19315E-08  1.10648E-08  9.72721E-09  1.01499E-08  9.94435E-09  9.99164E-09
   9.67880E-09  1.05640E-08  1.07096E-08  1.12913E-08  1.10677E-08  1.11910E-08  1.06360E-08  1.02382E-08  9.20616E-09  9.53687E-09
   8.49660E-09  8.96617E-09  7.27704E-09  8.07406E-09  7.63649E-09  8.49342E-09  9.02522E-09  8.61856E-09  7.79058E-09  7.14393E-09
   6.98519E-09  7.91629E-09  9.51411E-09  1.00901E-08  9.65786E-09  8.51643E-09  6.09379E-09  5.26995E-09  4.13238E-09  4.70609E-09
   3.92126E-09  3.88262E-09  3.79547E-09  3.82639E-09  4.00551E-09  3.80265E-09  3.76341E-09  2.69938E-09  2.71721E-09  3.10100E-09
   3.03751E-09  3.64707E-09  3.89910E-09  4.45092E-09  4.22867E-09  3.55673E-09  3.05919E-09  3.41926E-09  4.15298E-09  4.81913E-09
   5.29881E-09  6.07605E-09  6.53228E-09  8.28891E-09  9.70229E-09  1.04095E-08  8.53039E-09  7.03284E-09  5.64325E-09  4.33261E-09
   3.51717E-09  4.23592E-09  3.02280E-09  3.06003E-09  3.28293E-09  3.73606E-09  3.66786E-09  4.22606E-09  4.99327E-09  8.55594E-09
   1.20250E-08  1.47855E-08  1.49028E-08  1.22029E-08  8.92302E-09  8.06516E-09  6.57687E-09  5.89540E-09  5.40630E-09  4.65868E-09
   4.63377E-09  4.46146E-09  3.97026E-09  3.40866E-09  3.20973E-09  2.68087E-09  2.42574E-09  1.59831E-09  1.56510E-09  1.70036E-09
   1.81494E-09  1.74992E-09  1.75305E-09  2.67641E-09  2.18508E-09  1.89399E-09  2.10547E-09  2.16352E-09  2.01824E-09  1.58992E-09
   4.18642E-10  8.06299E-10  3.69232E-11  3.46070E-10  1.31366E-09  1.54768E-09  1.94985E-09  1.68183E-09  1.60972E-09  2.60914E-09
   2.22695E-09  2.05271E-09  1.97938E-09  1.65769E-09  8.53103E-10  6.00830E-10 -3.57098E-11 -3.69962E-10  3.66099E-10  5.46642E-10
   1.18170E-09  1.15917E-09  8.85743E-10  1.15600E-09  1.29823E-09  1.60786E-09  1.83872E-09  1.18390E-09  8.91659E-10  1.66713E-09
   2.61977E-09  3.98660E-09  4.74961E-09  4.14089E-09  3.66359E-09  3.57258E-09  4.48985E-09  5.22155E-09  4.60684E-09  4.84049E-09
   4.24298E-09  4.42433E-09  4.23104E-09  4.28137E-09  3.47536E-09  3.43428E-09  3.58737E-09  3.80633E-09  3.76379E-09  3.53660E-09
   4.44361E-09  3.97001E-09  4.48650E-09  4.68470E-09  5.00641E-09  4.79631E-09  5.30181E-09  5.73906E-09  6.61377E-09  6.70634E-09
   8.78413E-09  1.21532E-08  1.76920E-08  2.02307E-08  1.80793E-08  1.47508E-08  1.25228E-08  1.04323E-08  9.51984E-09  8.65662E-09
   6.91953E-09  6.23001E-09  5.51989E-09  4.80611E-09  3.60091E-09  2.48349E-09  1.80197E-09  9.98734E-10 -7.28422E-10 -2.18015E-09
  -2.92337E-09 -4.22785E-09 -5.50738E-09 -7.31534E-09 -8.57577E-09 -1.02917E-08 -1.20366E-08 -1.32948E-08 -1.43766E-08 -1.60140E-08
  -1.64479E-08 -1.70121E-08 -1.69192E-08 -1.71751E-08 -1.62530E-08 -1.56284E-08 -1.42289E-08 -1.26704E-08 -1.11633E-08 -9.34158E-09
  -7.31556E-09 -6.28537E-09 -4.79030E-09 -3.91488E-09 -2.41999E-09 -1.85352E-09 -1.02554E-09 -8.76236E-10 -4.70244E-10 -8.99332E-10
  -8.62270E-10 -1.66055E-09 -1.06337E-09 -1.71661E-09 -1.30604E-09 -1.67590E-09 -8.55053E-10 -1.41179E-09 -8.37925E-10 -1.11708E-09
  -7.92590E-10 -1.00045E-09 -1.23706E-09 -9.87894E-10 -1.07987E-09 -1.79914E-09 -1.07902E-09 -1.03071E-09 -9.91039E-10 -1.48983E-09
  -3.32619E-10 -6.88428E-10 -4.54321E-10 -6.71619E-10 -1.22408E-09 -1.11326E-09 -6.67443E-10 -1.05971E-09 -1.18562E-09 -7.24939E-10
  -1.09403E-09 -8.85029E-10 -3.71251E-10 -5.00112E-10 -5.29949E-10 -9.54907E-11 -4.80787E-11  1.34119E-10  1.67869E-11  2.10820E-11
  -3.89491E-10 -1.22595E-09 -9.62051E-10 -6.51587E-10 -1.34725E-09 -1.66111E-09 -1.77963E-09 -1.45828E-09 -1.29339E-09 -1.31101E-09
  -5.53972E-10 -6.59395E-10  1.07812E-10 -1.75694E-10  3.18649E-10  6.10947E-10  1.05611E-09  6.03593E-10  4.13702E-10  5.25644E-10
   8.70440E-11 -7.21537E-11  2.63863E-10 -2.40434E-10 -1.08351E-10 -9.59383E-10 -5.22524E-10 -7.25959E-10 -7.38298E-10 -9.61509E-10
  -7.41623E-10 -7.39968E-10 -8.25101E-10 -1.13182E-09 -1.09298E-09 -5.64951E-10 -6.78601E-10 -1.10509E-09 -7.26310E-10 -8.47727E-10
  -9.07781E-10 -7.98719E-10 -1.00721E-09 -7.81463E-10 -8.84751E-10 -6.92745E-10 -1.16209E-09 -8.31543E-10 -6.78332E-10 -1.11736E-09
  -6.83149E-10 -1.16846E-09 -6.01286E-10 -9.77459E-10 -1.04714E-09 -1.34248E-09 -6.76747E-10 -8.61734E-10 -5.05959E-10 -7.36570E-10
  -1.11849E-09 -7.85465E-10 -7.69727E-10 -8.02638E-10 -9.09744E-10 -7.26769E-10 -4.00103E-10 -1.02918E-09 -5.43672E-10 -9.84957E-10
  -4.78370E-10 -9.09419E-10 -7.77756E-10 -8.11841E-10 -6.45369E-10 -8.26758E-10 -5.22607E-10 -8.95011E-10 -7.36852E-10 -9.97681E-10
  -1.24425E-09 -4.38042E-10 -8.37758E-10 -9.92542E-10 -6.92747E-10 -9.96530E-10 -6.14584E-10 -8.09052E-10 -9.78573E-10 -9.40821E-10
  -6.99598E-10 -9.95059E-10 -1.19979E-09 -4.12799E-10 -1.00479E-09 -6.33742E-10 -5.91675E-10 -1.22572E-09 -3.88073E-10 -9.51311E-10
  -5.18063E-10 -7.04402E-10 -6.90000E-10
 NY points of the fit to the data follow
   1.91867E-08  1.76522E-08  1.57382E-08  1.40062E-08  1.34449E-08  1.29203E-08  1.18929E-08  1.07659E-08  1.00724E-08  1.00721E-08
   1.02221E-08  1.02684E-08  1.06523E-08  1.11176E-08  1.15145E-08  1.12481E-08  1.03891E-08  9.98215E-09  9.54003E-09  8.48335E-09
   7.56815E-09  7.48350E-09  7.87977E-09  8.09378E-09  8.26234E-09  8.46190E-09  8.73649E-09  8.85292E-09  8.56620E-09  8.49344E-09
   8.55383E-09  8.48473E-09  8.20623E-09  7.67333E-09  6.95430E-09  6.16131E-09  6.05413E-09  5.99822E-09  5.79914E-09  5.49147E-09
   5.11056E-09  4.52915E-09  3.70008E-09  3.17205E-09  3.02722E-09  2.98829E-09  2.99235E-09  3.01570E-09  3.05109E-09  3.07374E-09
   3.10183E-09  3.14487E-09  3.23339E-09  3.34485E-09  3.52874E-09  3.85134E-09  4.23126E-09  4.65727E-09  5.25168E-09  5.85179E-09
   6.36278E-09  6.84555E-09  7.32066E-09  7.60739E-09  7.64342E-09  7.31908E-09  6.81042E-09  6.38735E-09  5.70121E-09  4.79277E-09
   4.33385E-09  4.12620E-09  3.84013E-09  3.72297E-09  3.90810E-09  4.34668E-09  4.99073E-09  6.12226E-09  7.32094E-09  8.52800E-09
   9.84459E-09  1.10981E-08  1.17710E-08  1.17229E-08  1.11591E-08  1.01056E-08  8.68733E-09  6.97843E-09  4.87672E-09  3.91131E-09
   3.44168E-09  3.15601E-09  2.95891E-09  2.81044E-09  2.69712E-09  2.60645E-09  2.53140E-09  2.47074E-09  2.42006E-09  2.37664E-09
   2.34104E-09  2.31147E-09  2.28594E-09  2.26416E-09  2.24615E-09  2.23151E-09  2.21965E-09  2.21027E-09  2.20312E-09  2.19804E-09
   2.19489E-09  2.19354E-09  2.19388E-09  2.19573E-09  2.19890E-09  2.20315E-09  2.20830E-09  2.21416E-09  2.22054E-09  2.22728E-09
   2.23419E-09  2.24112E-09  2.24790E-09  2.25438E-09  2.26040E-09  2.26581E-09  2.27046E-09  2.27420E-09  2.27690E-09  2.27840E-09
   2.27856E-09  2.27726E-09  2.27434E-09  2.26968E-09  2.26314E-09  2.25458E-09  2.24389E-09  2.23093E-09  2.21558E-09  2.19771E-09
   2.17720E-09  2.15399E-09  2.12799E-09  2.09916E-09  2.06743E-09  2.03276E-09  1.99511E-09  1.95444E-09  1.91075E-09  1.86403E-09
   1.81431E-09  1.76162E-09  1.70606E-09  1.64777E-09  1.58693E-09  1.52384E-09  1.45892E-09  1.39279E-09  1.32635E-09  1.26095E-09
   1.19869E-09  1.14294E-09  1.09945E-09  1.07891E-09  1.10380E-09  1.23248E-09  1.68536E-09  3.18116E-09  5.50478E-09  8.02007E-09
   1.10649E-08  1.46249E-08  1.77532E-08  1.92080E-08  1.86455E-08  1.67971E-08  1.41303E-08  1.00027E-08  4.41620E-09  6.10335E-10
  -5.67868E-10 -1.15731E-09 -1.54689E-09 -1.84525E-09 -2.09374E-09 -2.31128E-09 -2.50756E-09 -2.68791E-09 -2.85539E-09 -3.01183E-09
  -3.15825E-09 -3.29525E-09 -3.42307E-09 -3.54178E-09 -3.65131E-09 -3.75146E-09 -3.84215E-09 -3.92366E-09 -3.99637E-09 -4.06059E-09
  -4.11664E-09 -4.16479E-09 -4.20533E-09 -4.23851E-09 -4.26459E-09 -4.28382E-09 -4.29642E-09 -4.30265E-09 -4.30273E-09 -4.29689E-09
  -4.28536E-09 -4.26835E-09 -4.24609E-09 -4.21880E-09 -4.18671E-09 -4.15002E-09 -4.10895E-09 -4.06372E-09 -4.01454E-09 -3.96163E-09
  -3.90519E-09 -3.84545E-09 -3.78261E-09 -3.71689E-09 -3.64849E-09 -3.57762E-09 -3.50446E-09 -3.42921E-09 -3.35206E-09 -3.27322E-09
  -3.19288E-09 -3.11122E-09 -3.02846E-09 -2.94478E-09 -2.86036E-09 -2.77542E-09 -2.69014E-09 -2.60472E-09 -2.51933E-09 -2.43421E-09
  -2.34952E-09 -2.26545E-09 -2.18221E-09 -2.10000E-09 -2.01898E-09 -1.93937E-09 -1.86134E-09 -1.78511E-09 -1.71085E-09 -1.63878E-09
  -1.56905E-09 -1.50190E-09 -1.43738E-09 -1.37547E-09 -1.31612E-09 -1.25928E-09 -1.20491E-09 -1.15295E-09 -1.10336E-09 -1.05610E-09
  -1.01111E-09 -9.68333E-10 -9.27742E-10 -8.89277E-10 -8.52897E-10 -8.18551E-10 -7.86175E-10 -7.55755E-10 -7.27224E-10 -7.00529E-10
  -6.75624E-10 -6.52473E-10 -6.31011E-10 -6.11199E-10 -5.92999E-10 -5.76337E-10 -5.61195E-10 -5.47505E-10 -5.35231E-10 -5.24312E-10
  -5.14708E-10 -5.06372E-10 -4.99251E-10 -4.93294E-10 -4.88459E-10 -4.84692E-10 -4.81947E-10 -4.80172E-10 -4.79319E-10 -4.79343E-10
  -4.80190E-10 -4.81815E-10 -4.84167E-10 -4.87197E-10 -4.90859E-10 -4.95101E-10 -4.99877E-10 -5.05135E-10 -5.10834E-10 -5.16912E-10
  -5.23335E-10 -5.30044E-10 -5.36994E-10 -5.44141E-10 -5.51430E-10 -5.58814E-10 -5.66248E-10 -5.73679E-10 -5.81094E-10 -5.88484E-10
  -5.95845E-10 -6.03174E-10 -6.10466E-10 -6.17713E-10 -6.24914E-10 -6.32063E-10 -6.39156E-10 -6.46187E-10 -6.53153E-10 -6.60047E-10
  -6.66869E-10 -6.73608E-10 -6.80263E-10 -6.86830E-10 -6.93302E-10 -6.99678E-10 -7.05949E-10 -7.12112E-10 -7.18163E-10 -7.24100E-10
  -7.29912E-10 -7.35599E-10 -7.41155E-10 -7.46576E-10 -7.51859E-10 -7.56995E-10 -7.61992E-10 -7.66855E-10 -7.71587E-10 -7.76195E-10
  -7.80685E-10 -7.85060E-10 -7.89329E-10 -7.93494E-10 -7.97564E-10 -8.01540E-10 -8.05433E-10 -8.09245E-10 -8.12982E-10 -8.16648E-10
  -8.20249E-10 -8.23793E-10 -8.27282E-10 -8.30724E-10 -8.34122E-10 -8.37484E-10 -8.40814E-10 -8.44116E-10 -8.47397E-10 -8.50664E-10
  -8.53920E-10 -8.57173E-10 -8.60423E-10
 NY background values follow
     5.433E-10    5.526E-10    5.620E-10    5.714E-10    5.810E-10    5.905E-10    6.002E-10    6.098E-10    6.195E-10    6.291E-10
     6.388E-10    6.484E-10    6.580E-10    6.675E-10    6.770E-10    6.864E-10    6.957E-10    7.049E-10    7.140E-10    7.230E-10
     7.318E-10    7.405E-10    7.490E-10    7.574E-10    7.655E-10    7.735E-10    7.812E-10    7.887E-10    7.960E-10    8.030E-10
     8.097E-10    8.163E-10    8.226E-10    8.286E-10    8.345E-10    8.401E-10    8.455E-10    8.508E-10    8.558E-10    8.606E-10
     8.653E-10    8.698E-10    8.741E-10    8.783E-10    8.823E-10    8.862E-10    8.899E-10    8.935E-10    8.970E-10    9.003E-10
     9.035E-10    9.066E-10    9.097E-10    9.126E-10    9.154E-10    9.182E-10    9.209E-10    9.235E-10    9.260E-10    9.285E-10
     9.309E-10    9.334E-10    9.357E-10    9.381E-10    9.404E-10    9.427E-10    9.450E-10    9.473E-10    9.496E-10    9.520E-10
     9.543E-10    9.567E-10    9.591E-10    9.616E-10    9.641E-10    9.667E-10    9.693E-10    9.720E-10    9.748E-10    9.776E-10
     9.806E-10    9.836E-10    9.868E-10    9.901E-10    9.935E-10    9.970E-10    1.001E-09    1.005E-09    1.009E-09    1.013E-09
     1.017E-09    1.022E-09    1.027E-09    1.032E-09    1.038E-09    1.044E-09    1.050E-09    1.057E-09    1.064E-09    1.071E-09
     1.079E-09    1.088E-09    1.097E-09    1.106E-09    1.116E-09    1.126E-09    1.137E-09    1.149E-09    1.161E-09    1.173E-09
     1.187E-09    1.201E-09    1.215E-09    1.231E-09    1.246E-09    1.262E-09    1.279E-09    1.295E-09    1.311E-09    1.328E-09
     1.343E-09    1.359E-09    1.374E-09    1.388E-09    1.401E-09    1.413E-09    1.424E-09    1.434E-09    1.443E-09    1.450E-09
     1.456E-09    1.459E-09    1.461E-09    1.461E-09    1.459E-09    1.454E-09    1.448E-09    1.438E-09    1.426E-09    1.411E-09
     1.393E-09    1.372E-09    1.348E-09    1.321E-09    1.291E-09    1.257E-09    1.220E-09    1.179E-09    1.135E-09    1.087E-09
     1.035E-09    9.795E-10    9.199E-10    8.563E-10    7.887E-10    7.168E-10    6.407E-10    5.602E-10    4.753E-10    3.858E-10
     2.918E-10    1.931E-10    8.962E-11   -1.872E-11   -1.320E-10   -2.503E-10   -3.736E-10   -5.022E-10   -6.360E-10   -7.745E-10
    -9.174E-10   -1.064E-09   -1.214E-09   -1.367E-09   -1.522E-09   -1.679E-09   -1.838E-09   -1.997E-09   -2.157E-09   -2.316E-09
    -2.475E-09   -2.633E-09   -2.789E-09   -2.943E-09   -3.095E-09   -3.243E-09   -3.388E-09   -3.529E-09   -3.665E-09   -3.797E-09
    -3.922E-09   -4.042E-09   -4.155E-09   -4.261E-09   -4.359E-09   -4.450E-09   -4.532E-09   -4.606E-09   -4.672E-09   -4.730E-09
    -4.780E-09   -4.823E-09   -4.859E-09   -4.888E-09   -4.909E-09   -4.925E-09   -4.934E-09   -4.937E-09   -4.934E-09   -4.925E-09
    -4.910E-09   -4.891E-09   -4.866E-09   -4.836E-09   -4.802E-09   -4.763E-09   -4.720E-09   -4.672E-09   -4.621E-09   -4.566E-09
    -4.508E-09   -4.446E-09   -4.382E-09   -4.314E-09   -4.244E-09   -4.172E-09   -4.097E-09   -4.020E-09   -3.942E-09   -3.861E-09
    -3.780E-09   -3.697E-09   -3.612E-09   -3.527E-09   -3.442E-09   -3.355E-09   -3.269E-09   -3.182E-09   -3.096E-09   -3.009E-09
    -2.924E-09   -2.838E-09   -2.754E-09   -2.671E-09   -2.589E-09   -2.508E-09   -2.429E-09   -2.352E-09   -2.276E-09   -2.203E-09
    -2.133E-09   -2.064E-09   -1.999E-09   -1.936E-09   -1.876E-09   -1.818E-09   -1.763E-09   -1.710E-09   -1.660E-09   -1.611E-09
    -1.566E-09   -1.522E-09   -1.481E-09   -1.441E-09   -1.404E-09   -1.369E-09   -1.336E-09   -1.305E-09   -1.275E-09   -1.248E-09
    -1.222E-09   -1.198E-09   -1.176E-09   -1.155E-09   -1.137E-09   -1.119E-09   -1.103E-09   -1.089E-09   -1.076E-09   -1.064E-09
    -1.054E-09   -1.045E-09   -1.037E-09   -1.031E-09   -1.025E-09   -1.021E-09   -1.017E-09   -1.015E-09   -1.013E-09   -1.013E-09
    -1.013E-09   -1.014E-09   -1.016E-09   -1.018E-09   -1.021E-09   -1.025E-09   -1.029E-09   -1.034E-09   -1.039E-09   -1.044E-09
    -1.050E-09   -1.056E-09   -1.063E-09   -1.069E-09   -1.076E-09   -1.083E-09   -1.090E-09   -1.097E-09   -1.104E-09   -1.111E-09
    -1.117E-09   -1.124E-09   -1.131E-09   -1.138E-09   -1.144E-09   -1.151E-09   -1.158E-09   -1.164E-09   -1.171E-09   -1.177E-09
    -1.183E-09   -1.190E-09   -1.196E-09   -1.202E-09   -1.208E-09   -1.214E-09   -1.219E-09   -1.225E-09   -1.231E-09   -1.236E-09
    -1.242E-09   -1.247E-09   -1.252E-09   -1.257E-09   -1.262E-09   -1.266E-09   -1.271E-09   -1.275E-09   -1.280E-09   -1.284E-09
    -1.288E-09   -1.292E-09   -1.296E-09   -1.299E-09   -1.303E-09   -1.307E-09   -1.310E-09   -1.313E-09   -1.317E-09   -1.320E-09
    -1.323E-09   -1.326E-09   -1.329E-09   -1.332E-09   -1.335E-09   -1.338E-09   -1.341E-09   -1.344E-09   -1.347E-09   -1.350E-09
    -1.353E-09   -1.356E-09   -1.358E-09
 Cr       Conc. = 4.18E-10
   2.29421E-09  2.06452E-09  1.61805E-09  1.06902E-09  8.96730E-10  8.25157E-10  7.87810E-10  7.66322E-10  7.53574E-10  7.46180E-10
   7.42310E-10  7.40871E-10  7.41171E-10  7.42741E-10  7.45256E-10  7.48477E-10  7.52227E-10  7.56371E-10  7.60804E-10  7.65447E-10
   7.70242E-10  7.75152E-10  7.80170E-10  7.85323E-10  7.90698E-10  7.96494E-10  8.03116E-10  8.11438E-10  8.23505E-10  8.45044E-10
   8.98159E-10  1.11534E-09  1.45092E-09  1.82012E-09  2.28089E-09  2.84348E-09  3.37455E-09  3.68182E-09  3.70067E-09  3.53580E-09
   3.25712E-09  2.74860E-09  1.95568E-09  1.43128E-09  1.26298E-09  1.18321E-09  1.13699E-09  1.10713E-09  1.08651E-09  1.07164E-09
   1.06058E-09  1.05217E-09  1.04568E-09  1.04061E-09  1.03664E-09  1.03350E-09  1.03104E-09  1.02912E-09  1.02764E-09  1.02653E-09
   1.02572E-09  1.02519E-09  1.02488E-09  1.02477E-09  1.02483E-09  1.02506E-09  1.02544E-09  1.02596E-09  1.02660E-09  1.02737E-09
   1.02827E-09  1.02927E-09  1.03040E-09  1.03164E-09  1.03300E-09  1.03448E-09  1.03607E-09  1.03779E-09  1.03964E-09  1.04161E-09
   1.04372E-09  1.04596E-09  1.04835E-09  1.05088E-09  1.05356E-09  1.05640E-09  1.05943E-09  1.06265E-09  1.06609E-09  1.06976E-09
   1.07369E-09  1.07789E-09  1.08238E-09  1.08718E-09  1.09231E-09  1.09779E-09  1.10364E-09  1.10987E-09  1.11651E-09  1.12358E-09
   1.13109E-09  1.13907E-09  1.14753E-09  1.15650E-09  1.16599E-09  1.17602E-09  1.18661E-09  1.19779E-09  1.20957E-09  1.22197E-09
   1.23501E-09  1.24871E-09  1.26309E-09  1.27807E-09  1.29354E-09  1.30934E-09  1.32537E-09  1.34148E-09  1.35755E-09  1.37345E-09
   1.38904E-09  1.40419E-09  1.41877E-09  1.43266E-09  1.44572E-09  1.45783E-09  1.46884E-09  1.47863E-09  1.48708E-09  1.49404E-09
   1.49939E-09  1.50300E-09  1.50474E-09  1.50447E-09  1.50207E-09  1.49741E-09  1.49035E-09  1.48077E-09  1.46854E-09  1.45352E-09
   1.43559E-09  1.41465E-09  1.39062E-09  1.36342E-09  1.33297E-09  1.29918E-09  1.26197E-09  1.22127E-09  1.17698E-09  1.12904E-09
   1.07737E-09  1.02188E-09  9.62514E-10  8.99185E-10  8.31831E-10  7.60385E-10  6.84796E-10  6.05016E-10  5.21020E-10  4.32806E-10
   3.40422E-10  2.44000E-10  1.43849E-10  4.06363E-11 -6.39366E-11 -1.64533E-10 -2.35119E-10 -2.48283E-10 -2.60635E-10 -2.58838E-10
  -2.27455E-10 -1.97318E-10 -2.33674E-10 -3.76044E-10 -5.98654E-10 -8.59166E-10 -1.17401E-09 -1.58293E-09 -1.98517E-09 -2.20800E-09
  -2.39192E-09 -2.56280E-09 -2.72695E-09 -2.88635E-09 -3.04162E-09 -3.19284E-09 -3.33983E-09 -3.48232E-09 -3.61991E-09 -3.75221E-09
  -3.87877E-09 -3.99916E-09 -4.11290E-09 -4.21951E-09 -4.31853E-09 -4.40947E-09 -4.49200E-09 -4.56625E-09 -4.63242E-09 -4.69074E-09
  -4.74140E-09 -4.78463E-09 -4.82064E-09 -4.84963E-09 -4.87182E-09 -4.88741E-09 -4.89663E-09 -4.89966E-09 -4.89674E-09 -4.88805E-09
  -4.87383E-09 -4.85426E-09 -4.82956E-09 -4.79995E-09 -4.76562E-09 -4.72680E-09 -4.68368E-09 -4.63648E-09 -4.58540E-09 -4.53065E-09
  -4.47244E-09 -4.41098E-09 -4.34648E-09 -4.27915E-09 -4.20918E-09 -4.13678E-09 -4.06214E-09 -3.98545E-09 -3.90690E-09 -3.82668E-09
  -3.74500E-09 -3.66204E-09 -3.57799E-09 -3.49306E-09 -3.40742E-09 -3.32128E-09 -3.23482E-09 -3.14825E-09 -3.06174E-09 -2.97550E-09
  -2.88973E-09 -2.80459E-09 -2.72030E-09 -2.63705E-09 -2.55502E-09 -2.47440E-09 -2.39540E-09 -2.31820E-09 -2.24299E-09 -2.16998E-09
  -2.09933E-09 -2.03126E-09 -1.96585E-09 -1.90305E-09 -1.84283E-09 -1.78514E-09 -1.72991E-09 -1.67712E-09 -1.62671E-09 -1.57862E-09
  -1.53283E-09 -1.48926E-09 -1.44788E-09 -1.40864E-09 -1.37150E-09 -1.33639E-09 -1.30327E-09 -1.27211E-09 -1.24285E-09 -1.21543E-09
  -1.18981E-09 -1.16595E-09 -1.14379E-09 -1.12329E-09 -1.10440E-09 -1.08706E-09 -1.07125E-09 -1.05690E-09 -1.04397E-09 -1.03240E-09
  -1.02215E-09 -1.01318E-09 -1.00543E-09 -9.98845E-10 -9.93392E-10 -9.89011E-10 -9.85660E-10 -9.83283E-10 -9.81834E-10 -9.81267E-10
  -9.81529E-10 -9.82573E-10 -9.84350E-10 -9.86810E-10 -9.89907E-10 -9.93588E-10 -9.97808E-10 -1.00252E-09 -1.00767E-09 -1.01320E-09
  -1.01909E-09 -1.02526E-09 -1.03168E-09 -1.03831E-09 -1.04507E-09 -1.05194E-09 -1.05886E-09 -1.06578E-09 -1.07269E-09 -1.07958E-09
  -1.08645E-09 -1.09328E-09 -1.10008E-09 -1.10684E-09 -1.11356E-09 -1.12023E-09 -1.12684E-09 -1.13340E-09 -1.13990E-09 -1.14632E-09
  -1.15268E-09 -1.15896E-09 -1.16515E-09 -1.17126E-09 -1.17728E-09 -1.18321E-09 -1.18903E-09 -1.19475E-09 -1.20036E-09 -1.20586E-09
  -1.21123E-09 -1.21649E-09 -1.22161E-09 -1.22660E-09 -1.23146E-09 -1.23617E-09 -1.24074E-09 -1.24518E-09 -1.24950E-09 -1.25369E-09
  -1.25776E-09 -1.26173E-09 -1.26559E-09 -1.26934E-09 -1.27301E-09 -1.27658E-09 -1.28007E-09 -1.28348E-09 -1.28681E-09 -1.29008E-09
  -1.29329E-09 -1.29643E-09 -1.29953E-09 -1.30258E-09 -1.30559E-09 -1.30856E-09 -1.31150E-09 -1.31442E-09 -1.31732E-09 -1.32020E-09
  -1.32307E-09 -1.32594E-09 -1.32881E-09
 Gln      Conc. = 1.81E-09
   1.33414E-09  1.66451E-09  2.04520E-09  2.45664E-09  2.85672E-09  3.19168E-09  3.38044E-09  3.37443E-09  3.21561E-09  3.02686E-09
   2.65610E-09  2.13723E-09  1.88783E-09  1.56537E-09  1.35254E-09  1.24095E-09  1.17340E-09  1.12874E-09  1.09768E-09  1.07545E-09
   1.05935E-09  1.04767E-09  1.03926E-09  1.03340E-09  1.02979E-09  1.02818E-09  1.02771E-09  1.02824E-09  1.02982E-09  1.03196E-09
   1.03458E-09  1.03766E-09  1.04116E-09  1.04508E-09  1.04941E-09  1.05416E-09  1.05934E-09  1.06500E-09  1.07116E-09  1.07790E-09
   1.08536E-09  1.09363E-09  1.10296E-09  1.11358E-09  1.12578E-09  1.13999E-09  1.15676E-09  1.17645E-09  1.20038E-09  1.23036E-09
   1.26752E-09  1.31594E-09  1.38304E-09  1.48226E-09  1.64841E-09  1.93669E-09  2.25516E-09  2.65053E-09  3.25383E-09  3.89414E-09
   4.42260E-09  4.89405E-09  5.27609E-09  5.47879E-09  5.36813E-09  4.91206E-09  4.33797E-09  3.93027E-09  3.31728E-09  2.56094E-09
   2.20571E-09  2.09748E-09  2.01852E-09  2.10300E-09  2.33386E-09  2.75021E-09  3.21023E-09  3.66928E-09  4.10280E-09  4.46485E-09
   4.74040E-09  4.86167E-09  4.67671E-09  4.38994E-09  4.15039E-09  3.68825E-09  3.13027E-09  2.82478E-09  2.49302E-09  2.19076E-09
   2.00504E-09  1.87907E-09  1.78866E-09  1.72133E-09  1.66820E-09  1.62582E-09  1.59232E-09  1.56543E-09  1.54371E-09  1.52649E-09
   1.51288E-09  1.50209E-09  1.49382E-09  1.48784E-09  1.48397E-09  1.48210E-09  1.48189E-09  1.48321E-09  1.48598E-09  1.49012E-09
   1.49556E-09  1.50226E-09  1.51014E-09  1.51911E-09  1.52898E-09  1.53958E-09  1.55074E-09  1.56230E-09  1.57411E-09  1.58600E-09
   1.59783E-09  1.60944E-09  1.62069E-09  1.63143E-09  1.64152E-09  1.65081E-09  1.65916E-09  1.66643E-09  1.67249E-09  1.67720E-09
   1.68040E-09  1.68198E-09  1.68179E-09  1.67970E-09  1.67557E-09  1.66927E-09  1.66066E-09  1.64962E-09  1.63601E-09  1.61970E-09
   1.60055E-09  1.57848E-09  1.55341E-09  1.52525E-09  1.49392E-09  1.45935E-09  1.42146E-09  1.38018E-09  1.33543E-09  1.28714E-09
   1.23526E-09  1.17972E-09  1.12047E-09  1.05747E-09  9.90692E-10  9.20123E-10  8.45777E-10  7.67700E-10  6.86001E-10  6.00860E-10
   5.12603E-10  4.21780E-10  3.29365E-10  2.37151E-10  1.48833E-10  7.32640E-11  3.86052E-11  1.84583E-10  5.48114E-10  9.35557E-10
   1.41336E-09  2.01946E-09  2.59235E-09  2.85787E-09  2.68823E-09  2.21638E-09  1.58966E-09  7.01808E-10 -5.64404E-10 -1.63127E-09
  -2.03134E-09 -2.28793E-09 -2.49656E-09 -2.68271E-09 -2.85562E-09 -3.01925E-09 -3.17538E-09 -3.32485E-09 -3.46794E-09 -3.60466E-09
  -3.73486E-09 -3.85829E-09 -3.97462E-09 -4.08346E-09 -4.18442E-09 -4.27707E-09 -4.36112E-09 -4.43672E-09 -4.50412E-09 -4.56355E-09
  -4.61524E-09 -4.65941E-09 -4.69629E-09 -4.72609E-09 -4.74903E-09 -4.76533E-09 -4.77521E-09 -4.77887E-09 -4.77654E-09 -4.76842E-09
  -4.75473E-09 -4.73568E-09 -4.71147E-09 -4.68233E-09 -4.64846E-09 -4.61007E-09 -4.56737E-09 -4.52057E-09 -4.46988E-09 -4.41551E-09
  -4.35766E-09 -4.29656E-09 -4.23240E-09 -4.16540E-09 -4.09577E-09 -4.02369E-09 -3.94935E-09 -3.87296E-09 -3.79470E-09 -3.71478E-09
