 LCModel (Version 6.3-1R) Copyright: S.W. Provencher.          Ref.: Magn. Reson. Med. 30:672-679 (1993).                
 onepulse 22x28_ftSpec_smooth_lcm
 26 lines in following concentration table = NCONC+1
    Conc.  %SD /Cr+PCr  Metabolite                                         
 2.58E-10 146%   1.119 Ala                                                 
 3.32E-10 351%   1.442 Asp                                                 
    0.000 999%   0.000 Cr                                                  
 3.95E-10 213%   1.713 GABA                                                
    0.000 999%   0.000 Glc                                                 
 9.77E-11 880%   0.424 Gln                                                 
    0.000 999%   0.000 Glu                                                 
 2.05E-09 115%   8.902 Glyc                                                
    0.000 999%   0.000 GPC                                                 
 1.89E-09  34%   8.197 GSH                                                 
 5.20E-10 397%   2.258 Ins                                                 
    0.000 999%   0.000 Lac                                                 
 4.22E-10  95%   1.833 NAAG                                                
 2.69E-10 195%   1.166 NAA                                                 
    0.000 999%   0.000 PCh                                                 
 2.30E-10 192%   1.000 PCr                                                 
 3.57E-09  27%  15.502 PE                                                  
 3.64E-10  51%   1.579 Scyllo                                              
 6.17E-11 999%   0.268 Ser                                                 
    0.000 999%   0.000 Tau                                                 
    0.000 999%   0.000 GPC+PCh                                             
 6.91E-10  48%   2.999 NAA+NAAG                                            
 2.57E-09  18%  11.159 Ins+Glyc                                            
 2.30E-10 192%   1.000 Cr+PCr                                              
 9.77E-11 880%   0.424 Glu+Gln                                             
   6 lines in following misc. output table
  FWHM = 0.123 ppm    S/N =   3                                            
  Data shift = 0.458 ppm                                                   
  Ph:  96 deg       6.8 deg/ppm                                            
  alphaB,S = 5.4E+01,   3.9E+01                                            
    9 spline knots.   Ns = 5(1)                                            
  (12) 4 infls.   (11) 3 extrs.                                            
  363 points on ppm-axis = NY
      4.250000     4.238821     4.227641     4.216462     4.205282     4.194103     4.182923     4.171744     4.160564     4.149385
      4.138206     4.127026     4.115847     4.104667     4.093488     4.082308     4.071129     4.059949     4.048770     4.037591
      4.026411     4.015232     4.004052     3.992873     3.981693     3.970514     3.959334     3.948155     3.936975     3.925796
      3.914617     3.903437     3.892258     3.881078     3.869899     3.858719     3.847540     3.836360     3.825181     3.814002
      3.802822     3.791643     3.780463     3.769284     3.758104     3.746925     3.735745     3.724566     3.713387     3.702207
      3.691028     3.679848     3.668669     3.657489     3.646310     3.635130     3.623951     3.612772     3.601592     3.590413
      3.579233     3.568054     3.556874     3.545695     3.534515     3.523336     3.512156     3.500977     3.489798     3.478618
      3.467439     3.456259     3.445080     3.433900     3.422721     3.411541     3.400362     3.389183     3.378003     3.366824
      3.355644     3.344465     3.333285     3.322106     3.310926     3.299747     3.288568     3.277388     3.266209     3.255029
      3.243850     3.232670     3.221491     3.210311     3.199132     3.187953     3.176773     3.165594     3.154414     3.143235
      3.132055     3.120876     3.109696     3.098517     3.087337     3.076158     3.064979     3.053799     3.042620     3.031440
      3.020261     3.009081     2.997902     2.986722     2.975543     2.964364     2.953184     2.942005     2.930825     2.919646
      2.908466     2.897287     2.886107     2.874928     2.863749     2.852569     2.841390     2.830210     2.819031     2.807851
      2.796672     2.785492     2.774313     2.763134     2.751954     2.740775     2.729595     2.718416     2.707236     2.696057
      2.684877     2.673698     2.662519     2.651339     2.640160     2.628980     2.617801     2.606621     2.595442     2.584262
      2.573083     2.561903     2.550724     2.539545     2.528365     2.517186     2.506006     2.494827     2.483647     2.472468
      2.461288     2.450109     2.438930     2.427750     2.416571     2.405391     2.394212     2.383032     2.371853     2.360673
      2.349494     2.338315     2.327135     2.315956     2.304776     2.293597     2.282417     2.271238     2.260058     2.248879
      2.237700     2.226520     2.215341     2.204161     2.192982     2.181802     2.170623     2.159443     2.148264     2.137084
      2.125905     2.114726     2.103546     2.092367     2.081187     2.070008     2.058828     2.047649     2.036469     2.025290
      2.014111     2.002931     1.991752     1.980572     1.969393     1.958213     1.947034     1.935854     1.924675     1.913496
      1.902316     1.891137     1.879957     1.868778     1.857598     1.846419     1.835239     1.824060     1.812881     1.801701
      1.790522     1.779342     1.768163     1.756983     1.745804     1.734624     1.723445     1.712265     1.701086     1.689907
      1.678727     1.667548     1.656368     1.645189     1.634009     1.622830     1.611650     1.600471     1.589292     1.578112
      1.566933     1.555753     1.544574     1.533394     1.522215     1.511035     1.499856     1.488677     1.477497     1.466318
      1.455138     1.443959     1.432779     1.421600     1.410420     1.399241     1.388062     1.376882     1.365703     1.354523
      1.343344     1.332164     1.320985     1.309805     1.298626     1.287446     1.276267     1.265088     1.253908     1.242729
      1.231549     1.220370     1.209190     1.198011     1.186831     1.175652     1.164473     1.153293     1.142114     1.130934
      1.119755     1.108575     1.097396     1.086216     1.075037     1.063858     1.052678     1.041499     1.030319     1.019140
      1.007960     0.996781     0.985601     0.974422     0.963243     0.952063     0.940884     0.929704     0.918525     0.907345
      0.896166     0.884986     0.873807     0.862628     0.851448     0.840269     0.829089     0.817910     0.806730     0.795551
      0.784371     0.773192     0.762012     0.750833     0.739654     0.728474     0.717295     0.706115     0.694936     0.683756
      0.672577     0.661397     0.650218     0.639039     0.627859     0.616680     0.605500     0.594321     0.583141     0.571962
      0.560782     0.549603     0.538424     0.527244     0.516065     0.504885     0.493706     0.482526     0.471347     0.460167
      0.448988     0.437809     0.426629     0.415450     0.404270     0.393091     0.381911     0.370732     0.359552     0.348373
      0.337193     0.326014     0.314835     0.303655     0.292476     0.281296     0.270117     0.258937     0.247758     0.236578
      0.225399     0.214220     0.203040
 NY phased data points follow
   1.17250E-08  1.23876E-08  1.25859E-08  1.33527E-08  1.34467E-08  1.38529E-08  1.36319E-08  1.28584E-08  1.29738E-08  1.26745E-08
   1.26621E-08  1.20364E-08  1.10954E-08  1.16634E-08  1.10337E-08  1.24447E-08  1.21073E-08  1.22093E-08  1.09936E-08  1.09481E-08
   1.02434E-08  1.16822E-08  1.31914E-08  1.43197E-08  1.44791E-08  1.35215E-08  1.22828E-08  1.13097E-08  1.05663E-08  1.09157E-08
   9.77108E-09  9.96967E-09  9.06531E-09  9.69712E-09  9.14395E-09  9.55104E-09  8.60459E-09  8.14883E-09  7.72276E-09  7.37421E-09
   7.32036E-09  7.47202E-09  7.60549E-09  7.95330E-09  7.30700E-09  6.76469E-09  5.87668E-09  6.02713E-09  6.05565E-09  6.19877E-09
   6.31357E-09  6.22036E-09  7.25734E-09  8.65164E-09  1.08392E-08  1.16297E-08  1.09337E-08  1.07002E-08  9.58939E-09  8.42767E-09
   8.26622E-09  7.96204E-09  6.42698E-09  6.33746E-09  5.78917E-09  5.35796E-09  4.45587E-09  3.38369E-09  3.73489E-09  6.94047E-09
   1.01675E-08  1.40945E-08  1.53929E-08  1.43597E-08  1.33800E-08  1.34499E-08  1.21196E-08  1.26510E-08  1.13531E-08  1.12570E-08
   1.10602E-08  1.12463E-08  1.05136E-08  1.06356E-08  1.02154E-08  1.00071E-08  9.36559E-09  8.76613E-09  8.51408E-09  8.23655E-09
   8.16666E-09  7.50358E-09  8.02340E-09  8.48373E-09  7.65240E-09  7.81139E-09  7.81787E-09  8.03979E-09  8.27086E-09  7.28690E-09
   6.86812E-09  6.41315E-09  5.11828E-09  5.85105E-09  5.46885E-09  5.96149E-09  5.89185E-09  5.65917E-09  5.79734E-09  6.52572E-09
   6.16914E-09  6.66332E-09  6.47517E-09  6.33066E-09  5.65794E-09  5.28862E-09  3.94067E-09  4.09660E-09  3.59477E-09  3.90155E-09
   3.96566E-09  3.67832E-09  3.41800E-09  3.42655E-09  3.10551E-09  3.58077E-09  3.37701E-09  2.27504E-09  1.62956E-09  1.95215E-09
   2.16982E-09  3.87798E-09  4.33989E-09  4.33111E-09  3.62599E-09  3.89127E-09  4.90656E-09  5.33057E-09  5.74617E-09  5.91218E-09
   5.37750E-09  5.95452E-09  6.06529E-09  6.07684E-09  5.13045E-09  5.56272E-09  5.03960E-09  5.65436E-09  4.75281E-09  5.30011E-09
   4.94570E-09  4.88538E-09  4.86704E-09  5.49291E-09  4.80605E-09  4.39928E-09  4.10792E-09  4.55301E-09  3.38996E-09  2.69402E-09
   2.89892E-09  6.16019E-09  1.23008E-08  1.65906E-08  1.77399E-08  1.81665E-08  1.80988E-08  1.78696E-08  1.87299E-08  1.85409E-08
   1.82482E-08  1.88032E-08  1.87899E-08  1.91300E-08  1.88759E-08  1.89735E-08  1.92861E-08  1.95801E-08  1.83571E-08  1.80968E-08
   1.75785E-08  1.76220E-08  1.60441E-08  1.53943E-08  1.39541E-08  1.25466E-08  1.00364E-08  8.78497E-09  6.01668E-09  3.85431E-09
   9.90638E-10 -5.87057E-10 -2.96972E-09 -4.89725E-09 -6.79181E-09 -8.06909E-09 -8.88372E-09 -9.00171E-09 -9.50549E-09 -8.28041E-09
  -7.95418E-09 -6.60738E-09 -6.07503E-09 -4.89336E-09 -4.04710E-09 -2.77533E-09 -2.28614E-09 -1.13190E-09 -8.98631E-10 -4.38710E-10
  -1.09917E-09 -6.74419E-10 -8.63400E-10 -6.71238E-10 -8.42436E-10 -4.90165E-10 -4.52608E-10 -5.54606E-10 -2.31496E-11 -3.69999E-10
   1.51479E-10 -9.82713E-11 -3.22964E-10  1.54092E-10 -4.12791E-10 -6.97557E-10 -3.08275E-10  5.71979E-11 -3.69329E-10 -4.73205E-10
   1.87345E-10 -2.46860E-10  5.13252E-10 -4.38799E-12 -4.21288E-10 -3.91082E-10  8.58051E-11 -3.87595E-10 -1.51269E-10 -1.12907E-10
  -3.43977E-10 -5.77997E-10  2.45338E-12 -5.25071E-10 -4.73595E-10 -2.78206E-10  3.44674E-12  3.67604E-10  5.39824E-10  1.06114E-09
   5.94759E-10  1.32606E-10  4.69748E-10  7.48331E-10  1.60382E-10  7.80329E-11 -9.52866E-10 -6.12649E-10 -1.05622E-09 -1.10483E-09
  -1.36026E-09 -9.70628E-10 -9.69995E-10 -1.02562E-09 -8.25323E-10 -3.11021E-10  2.32251E-10  3.04898E-10  3.60109E-10  7.08106E-10
   2.03461E-10  6.77664E-10  6.47566E-10  1.07266E-09  8.74172E-10  4.08721E-10  4.71762E-10  4.81853E-10  2.86203E-10  9.56030E-11
   2.28225E-10  2.39358E-10  2.65631E-10 -2.48672E-10 -3.91182E-10  2.13842E-10 -1.18347E-10 -1.52120E-10  1.39018E-10 -2.60220E-10
  -1.03022E-11 -3.48048E-10 -2.31655E-10 -2.82106E-10 -1.87849E-10  8.47812E-11 -7.68810E-10 -1.48443E-11 -3.98452E-10 -3.75856E-10
  -5.91456E-10 -5.12555E-10 -2.03956E-10 -3.46464E-10 -5.75227E-10 -8.90626E-10 -6.52832E-10 -8.33960E-10 -3.10156E-10 -3.31610E-10
  -6.47845E-10 -5.84784E-10 -6.07932E-10 -4.58196E-10 -9.99751E-10 -3.30784E-10 -5.41657E-10 -5.98197E-10 -5.61528E-10 -7.21531E-10
  -3.11116E-10 -6.97474E-10 -6.14804E-10 -6.15101E-10 -5.03277E-10 -4.82340E-10 -4.18227E-10 -9.04590E-10  2.05438E-11 -8.32201E-10
  -7.34273E-10 -3.87772E-10 -7.57798E-10 -6.51050E-10 -6.67095E-10 -8.47040E-10 -4.28614E-10 -5.56501E-10 -5.80767E-10 -8.17391E-10
  -6.27069E-10 -9.57646E-10 -1.06573E-09 -3.17191E-10 -1.33742E-09 -3.82028E-10 -7.68685E-10 -8.88306E-10 -7.05279E-10 -8.10620E-10
  -4.34763E-10 -4.62265E-10 -5.87643E-10 -1.05141E-09 -8.52461E-10 -2.86499E-10 -4.00938E-10 -7.71373E-10 -5.27284E-12 -1.05917E-09
  -5.46384E-10 -4.08480E-11 -2.90359E-10
 NY points of the fit to the data follow
   1.47238E-08  1.32031E-08  1.23910E-08  1.23635E-08  1.29011E-08  1.32160E-08  1.30968E-08  1.29319E-08  1.32077E-08  1.25275E-08
   1.23533E-08  1.16607E-08  1.14062E-08  1.16108E-08  1.19549E-08  1.22305E-08  1.22647E-08  1.19385E-08  1.04067E-08  9.24978E-09
   1.06733E-08  1.22231E-08  1.34174E-08  1.42855E-08  1.46322E-08  1.44812E-08  1.34702E-08  1.18800E-08  1.04677E-08  1.00541E-08
   9.57779E-09  9.09612E-09  8.83944E-09  8.82158E-09  8.53149E-09  8.40390E-09  8.63869E-09  8.94091E-09  8.89356E-09  8.64706E-09
   8.29482E-09  7.76862E-09  7.07329E-09  6.45838E-09  5.98000E-09  5.78962E-09  5.51072E-09  5.50496E-09  6.20003E-09  6.99224E-09
   7.79033E-09  8.26136E-09  8.56464E-09  9.03652E-09  9.27138E-09  9.22712E-09  9.32734E-09  9.32333E-09  9.08821E-09  8.66432E-09
   8.30057E-09  8.07151E-09  7.98845E-09  7.71837E-09  7.60793E-09  7.96274E-09  8.20609E-09  8.28390E-09  8.67944E-09  9.40796E-09
   9.90341E-09  1.02279E-08  1.07570E-08  1.10938E-08  1.13385E-08  1.19195E-08  1.26045E-08  1.30602E-08  1.28251E-08  1.20473E-08
   1.11876E-08  1.06457E-08  1.00784E-08  9.55542E-09  9.12353E-09  8.20494E-09  7.01704E-09  6.18498E-09  5.77930E-09  5.80655E-09
   5.86825E-09  5.94592E-09  5.99797E-09  5.99588E-09  6.00747E-09  6.06052E-09  6.06687E-09  6.08508E-09  6.16806E-09  6.30726E-09
   6.51373E-09  6.59467E-09  6.64034E-09  6.77465E-09  6.87115E-09  6.89524E-09  6.87304E-09  6.82571E-09  6.74134E-09  6.59897E-09
   6.41668E-09  6.28397E-09  6.22920E-09  6.05628E-09  5.87822E-09  5.83278E-09  5.81440E-09  5.80245E-09  5.79160E-09  5.78011E-09
   5.76714E-09  5.75254E-09  5.73617E-09  5.71802E-09  5.69811E-09  5.67648E-09  5.65316E-09  5.62820E-09  5.60167E-09  5.57360E-09
   5.54403E-09  5.51300E-09  5.48055E-09  5.44673E-09  5.41155E-09  5.37506E-09  5.33727E-09  5.29822E-09  5.25793E-09  5.21642E-09
   5.17373E-09  5.12985E-09  5.08480E-09  5.03864E-09  4.99133E-09  4.94290E-09  4.89339E-09  4.84282E-09  4.79118E-09  4.73854E-09
   4.68494E-09  4.63040E-09  4.57504E-09  4.51899E-09  4.46240E-09  4.40557E-09  4.34896E-09  4.29324E-09  4.23956E-09  4.18988E-09
   4.14757E-09  4.11908E-09  4.11739E-09  4.17211E-09  4.36293E-09  4.97389E-09  7.56510E-09  1.39353E-08  1.87469E-08  2.04571E-08
   2.02579E-08  1.97545E-08  1.98563E-08  2.07354E-08  2.19341E-08  2.22641E-08  2.00600E-08  1.45247E-08  8.37713E-09  6.36343E-09
   5.47042E-09  4.94616E-09  4.58812E-09  4.31972E-09  4.10541E-09  3.92635E-09  3.77160E-09  3.63432E-09  3.51005E-09  3.39573E-09
   3.28918E-09  3.18885E-09  3.09356E-09  3.00243E-09  2.91477E-09  2.83002E-09  2.74779E-09  2.66773E-09  2.58955E-09  2.51303E-09
   2.43799E-09  2.36427E-09  2.29175E-09  2.22031E-09  2.14987E-09  2.08035E-09  2.01169E-09  1.94385E-09  1.87675E-09  1.81038E-09
   1.74469E-09  1.67967E-09  1.61529E-09  1.55153E-09  1.48836E-09  1.42579E-09  1.36380E-09  1.30238E-09  1.24152E-09  1.18122E-09
   1.12149E-09  1.06231E-09  1.00368E-09  9.45603E-10  8.88071E-10  8.31113E-10  7.74700E-10  7.18846E-10  6.63568E-10  6.08857E-10
   5.54717E-10  5.01158E-10  4.48185E-10  3.95797E-10  3.44008E-10  2.92824E-10  2.42244E-10  1.92277E-10  1.42931E-10  9.42202E-11
   4.61373E-11 -1.30096E-12 -4.80882E-11 -9.42175E-11 -1.39684E-10 -1.84478E-10 -2.28594E-10 -2.72021E-10 -3.14754E-10 -3.56785E-10
  -3.98106E-10 -4.38712E-10 -4.78591E-10 -5.17738E-10 -5.56146E-10 -5.93805E-10 -6.30711E-10 -6.66854E-10 -7.02228E-10 -7.36823E-10
  -7.70634E-10 -8.03655E-10 -8.35876E-10 -8.67291E-10 -8.97893E-10 -9.27674E-10 -9.56627E-10 -9.84746E-10 -1.01202E-09 -1.03845E-09
  -1.06403E-09 -1.08874E-09 -1.11259E-09 -1.13555E-09 -1.15764E-09 -1.17884E-09 -1.19915E-09 -1.21856E-09 -1.23706E-09 -1.25465E-09
  -1.27132E-09 -1.28707E-09 -1.30189E-09 -1.31577E-09 -1.32871E-09 -1.34071E-09 -1.35175E-09 -1.36183E-09 -1.37096E-09 -1.37912E-09
  -1.38631E-09 -1.39251E-09 -1.39774E-09 -1.40198E-09 -1.40523E-09 -1.40749E-09 -1.40874E-09 -1.40899E-09 -1.40824E-09 -1.40647E-09
  -1.40368E-09 -1.39988E-09 -1.39505E-09 -1.38920E-09 -1.38231E-09 -1.37440E-09 -1.36544E-09 -1.35544E-09 -1.34440E-09 -1.33232E-09
  -1.31918E-09 -1.30499E-09 -1.28975E-09 -1.27345E-09 -1.25610E-09 -1.23768E-09 -1.21820E-09 -1.19765E-09 -1.17604E-09 -1.15336E-09
  -1.12961E-09 -1.10478E-09 -1.07888E-09 -1.05191E-09 -1.02386E-09 -9.94738E-10 -9.64534E-10 -9.33251E-10 -9.00890E-10 -8.67448E-10
  -8.32927E-10 -7.97327E-10 -7.60643E-10 -7.22880E-10 -6.84037E-10 -6.44112E-10 -6.03106E-10 -5.61021E-10 -5.17857E-10 -4.73613E-10
  -4.28292E-10 -3.81893E-10 -3.34419E-10 -2.85869E-10 -2.36246E-10 -1.85551E-10 -1.33785E-10 -8.09507E-11 -2.70491E-11  2.79178E-11
   8.39484E-11  1.41040E-10  1.99192E-10  2.58399E-10  3.18661E-10  3.79974E-10  4.42336E-10  5.05744E-10  5.70195E-10  6.35687E-10
   7.02215E-10  7.69777E-10  8.38368E-10
 NY background values follow
     5.155E-09    5.228E-09    5.299E-09    5.368E-09    5.437E-09    5.504E-09    5.570E-09    5.634E-09    5.698E-09    5.760E-09
     5.821E-09    5.880E-09    5.939E-09    5.996E-09    6.051E-09    6.106E-09    6.159E-09    6.211E-09    6.262E-09    6.311E-09
     6.360E-09    6.407E-09    6.452E-09    6.497E-09    6.540E-09    6.582E-09    6.622E-09    6.662E-09    6.700E-09    6.737E-09
     6.773E-09    6.807E-09    6.840E-09    6.872E-09    6.903E-09    6.933E-09    6.961E-09    6.988E-09    7.014E-09    7.038E-09
     7.062E-09    7.084E-09    7.105E-09    7.125E-09    7.143E-09    7.161E-09    7.177E-09    7.192E-09    7.206E-09    7.218E-09
     7.230E-09    7.240E-09    7.249E-09    7.257E-09    7.264E-09    7.270E-09    7.275E-09    7.278E-09    7.280E-09    7.281E-09
     7.281E-09    7.280E-09    7.278E-09    7.275E-09    7.271E-09    7.265E-09    7.258E-09    7.251E-09    7.242E-09    7.232E-09
     7.222E-09    7.210E-09    7.197E-09    7.183E-09    7.168E-09    7.152E-09    7.135E-09    7.117E-09    7.098E-09    7.078E-09
     7.057E-09    7.035E-09    7.012E-09    6.988E-09    6.963E-09    6.937E-09    6.910E-09    6.883E-09    6.854E-09    6.825E-09
     6.794E-09    6.763E-09    6.731E-09    6.698E-09    6.664E-09    6.629E-09    6.593E-09    6.557E-09    6.519E-09    6.481E-09
     6.442E-09    6.402E-09    6.362E-09    6.320E-09    6.278E-09    6.235E-09    6.192E-09    6.147E-09    6.102E-09    6.056E-09
     6.010E-09    5.962E-09    5.914E-09    5.866E-09    5.816E-09    5.766E-09    5.716E-09    5.664E-09    5.612E-09    5.560E-09
     5.507E-09    5.453E-09    5.398E-09    5.343E-09    5.288E-09    5.232E-09    5.175E-09    5.118E-09    5.060E-09    5.002E-09
     4.943E-09    4.884E-09    4.824E-09    4.764E-09    4.703E-09    4.642E-09    4.581E-09    4.519E-09    4.456E-09    4.393E-09
     4.330E-09    4.267E-09    4.203E-09    4.138E-09    4.074E-09    4.009E-09    3.943E-09    3.878E-09    3.812E-09    3.746E-09
     3.679E-09    3.612E-09    3.545E-09    3.478E-09    3.411E-09    3.343E-09    3.275E-09    3.207E-09    3.138E-09    3.070E-09
     3.001E-09    2.933E-09    2.864E-09    2.795E-09    2.725E-09    2.656E-09    2.587E-09    2.517E-09    2.448E-09    2.378E-09
     2.309E-09    2.239E-09    2.170E-09    2.100E-09    2.030E-09    1.961E-09    1.891E-09    1.821E-09    1.752E-09    1.683E-09
     1.613E-09    1.544E-09    1.475E-09    1.406E-09    1.337E-09    1.268E-09    1.199E-09    1.131E-09    1.062E-09    9.943E-10
     9.263E-10    8.586E-10    7.910E-10    7.237E-10    6.567E-10    5.898E-10    5.233E-10    4.570E-10    3.910E-10    3.253E-10
     2.599E-10    1.948E-10    1.300E-10    6.561E-11    1.544E-12   -6.216E-11   -1.255E-10   -1.884E-10   -2.510E-10   -3.131E-10
    -3.749E-10   -4.362E-10   -4.970E-10   -5.574E-10   -6.174E-10   -6.769E-10   -7.359E-10   -7.944E-10   -8.524E-10   -9.099E-10
    -9.668E-10   -1.023E-09   -1.079E-09   -1.135E-09   -1.189E-09   -1.243E-09   -1.297E-09   -1.350E-09   -1.403E-09   -1.454E-09
    -1.506E-09   -1.556E-09   -1.606E-09   -1.655E-09   -1.704E-09   -1.752E-09   -1.799E-09   -1.846E-09   -1.892E-09   -1.937E-09
    -1.981E-09   -2.025E-09   -2.068E-09   -2.110E-09   -2.152E-09   -2.192E-09   -2.232E-09   -2.271E-09   -2.310E-09   -2.347E-09
    -2.384E-09   -2.420E-09   -2.455E-09   -2.490E-09   -2.523E-09   -2.556E-09   -2.588E-09   -2.619E-09   -2.649E-09   -2.678E-09
    -2.706E-09   -2.734E-09   -2.761E-09   -2.786E-09   -2.811E-09   -2.835E-09   -2.858E-09   -2.880E-09   -2.901E-09   -2.921E-09
    -2.940E-09   -2.958E-09   -2.976E-09   -2.992E-09   -3.007E-09   -3.022E-09   -3.035E-09   -3.047E-09   -3.059E-09   -3.069E-09
    -3.079E-09   -3.087E-09   -3.094E-09   -3.101E-09   -3.106E-09   -3.110E-09   -3.114E-09   -3.116E-09   -3.117E-09   -3.117E-09
    -3.116E-09   -3.114E-09   -3.111E-09   -3.107E-09   -3.102E-09   -3.096E-09   -3.088E-09   -3.080E-09   -3.071E-09   -3.060E-09
    -3.048E-09   -3.036E-09   -3.022E-09   -3.007E-09   -2.991E-09   -2.974E-09   -2.955E-09   -2.936E-09   -2.916E-09   -2.894E-09
    -2.871E-09   -2.848E-09   -2.823E-09   -2.797E-09   -2.770E-09   -2.741E-09   -2.712E-09   -2.681E-09   -2.650E-09   -2.617E-09
    -2.583E-09   -2.548E-09   -2.512E-09   -2.475E-09   -2.436E-09   -2.397E-09   -2.356E-09   -2.314E-09   -2.271E-09   -2.227E-09
    -2.182E-09   -2.136E-09   -2.088E-09   -2.040E-09   -1.990E-09   -1.939E-09   -1.887E-09   -1.834E-09   -1.780E-09   -1.725E-09
    -1.669E-09   -1.611E-09   -1.552E-09   -1.493E-09   -1.432E-09   -1.370E-09   -1.307E-09   -1.243E-09   -1.177E-09   -1.111E-09
    -1.044E-09   -9.752E-10   -9.055E-10   -8.349E-10   -7.631E-10   -6.902E-10   -6.163E-10   -5.413E-10   -4.653E-10   -3.882E-10
    -3.100E-10   -2.308E-10   -1.505E-10
 Ala      Conc. = 2.58E-10
   5.35731E-09  5.40616E-09  5.45755E-09  5.50915E-09  5.55775E-09  5.60182E-09  5.63291E-09  5.67067E-09  5.73327E-09  5.77254E-09
   5.80174E-09  5.86655E-09  5.92640E-09  5.97401E-09  6.03117E-09  6.09061E-09  6.14909E-09  6.20601E-09  6.26124E-09  6.31479E-09
   6.36671E-09  6.41704E-09  6.46583E-09  6.51311E-09  6.55894E-09  6.60334E-09  6.64630E-09  6.68788E-09  6.72810E-09  6.76695E-09
   6.80448E-09  6.84066E-09  6.87553E-09  6.90912E-09  6.94139E-09  6.97238E-09  7.00211E-09  7.03057E-09  7.05777E-09  7.08373E-09
   7.10842E-09  7.13189E-09  7.15413E-09  7.17516E-09  7.19495E-09  7.21356E-09  7.23095E-09  7.24714E-09  7.26217E-09  7.27601E-09
   7.28867E-09  7.30015E-09  7.31049E-09  7.31968E-09  7.32770E-09  7.33458E-09  7.34034E-09  7.34499E-09  7.34850E-09  7.35096E-09
   7.35229E-09  7.35252E-09  7.35168E-09  7.34978E-09  7.34681E-09  7.34279E-09  7.33774E-09  7.33166E-09  7.32457E-09  7.31647E-09
   7.30738E-09  7.29733E-09  7.28632E-09  7.27435E-09  7.26148E-09  7.24770E-09  7.23302E-09  7.21752E-09  7.20116E-09  7.18402E-09
   7.16610E-09  7.14745E-09  7.12812E-09  7.10817E-09  7.08767E-09  7.06665E-09  7.04527E-09  7.02359E-09  7.00178E-09  6.98004E-09
   6.95858E-09  6.93780E-09  6.91814E-09  6.90027E-09  6.88526E-09  6.87482E-09  6.87192E-09  6.88247E-09  6.92030E-09  7.02637E-09
   7.18612E-09  7.20940E-09  7.20264E-09  7.28329E-09  7.32342E-09  7.29075E-09  7.21265E-09  7.11067E-09  6.97330E-09  6.77941E-09
   6.54714E-09  6.36602E-09  6.26433E-09  6.04595E-09  5.82382E-09  5.73561E-09  5.67577E-09  5.62363E-09  5.57382E-09  5.52453E-09
   5.47489E-09  5.42471E-09  5.37381E-09  5.32217E-09  5.26974E-09  5.21655E-09  5.16260E-09  5.10793E-09  5.05256E-09  4.99651E-09
   4.93981E-09  4.88248E-09  4.82453E-09  4.76600E-09  4.70690E-09  4.64726E-09  4.58707E-09  4.52638E-09  4.46520E-09  4.40353E-09
   4.34141E-09  4.27883E-09  4.21583E-09  4.15243E-09  4.08860E-09  4.02438E-09  3.95979E-09  3.89485E-09  3.82955E-09  3.76393E-09
   3.69800E-09  3.63174E-09  3.56520E-09  3.49841E-09  3.43133E-09  3.36400E-09  3.29648E-09  3.22876E-09  3.16086E-09  3.09290E-09
   3.02488E-09  2.95701E-09  2.88955E-09  2.82316E-09  2.75946E-09  2.70406E-09  2.68652E-09  2.78206E-09  2.84501E-09  2.82678E-09
   2.75540E-09  2.67332E-09  2.60574E-09  2.55869E-09  2.52276E-09  2.46983E-09  2.35690E-09  2.15562E-09  1.92003E-09  1.79814E-09
   1.70721E-09  1.62617E-09  1.54958E-09  1.47542E-09  1.40277E-09  1.33115E-09  1.26030E-09  1.19004E-09  1.12027E-09  1.05094E-09
   9.81977E-10  9.13380E-10  8.45113E-10  7.77182E-10  7.09567E-10  6.42260E-10  5.75279E-10  5.08620E-10  4.42279E-10  3.76274E-10
   3.10607E-10  2.45274E-10  1.80293E-10  1.15677E-10  5.14231E-11 -1.24545E-11 -7.59505E-11 -1.39037E-10 -2.01728E-10 -2.64008E-10
  -3.25865E-10 -3.87282E-10 -4.48256E-10 -5.08771E-10 -5.68835E-10 -6.28421E-10 -6.87517E-10 -7.46121E-10 -8.04230E-10 -8.61818E-10
  -9.18878E-10 -9.75403E-10 -1.03138E-09 -1.08682E-09 -1.14170E-09 -1.19598E-09 -1.24970E-09 -1.30282E-09 -1.35533E-09 -1.40723E-09
  -1.45852E-09 -1.50916E-09 -1.55917E-09 -1.60853E-09 -1.65723E-09 -1.70525E-09 -1.75260E-09 -1.79927E-09 -1.84524E-09 -1.89049E-09
  -1.93504E-09 -1.97886E-09 -2.02195E-09 -2.06430E-09 -2.10590E-09 -2.14674E-09 -2.18682E-09 -2.22612E-09 -2.26463E-09 -2.30236E-09
  -2.33928E-09 -2.37540E-09 -2.41069E-09 -2.44517E-09 -2.47881E-09 -2.51162E-09 -2.54358E-09 -2.57468E-09 -2.60492E-09 -2.63429E-09
  -2.66278E-09 -2.69039E-09 -2.71711E-09 -2.74293E-09 -2.76784E-09 -2.79184E-09 -2.81493E-09 -2.83708E-09 -2.85831E-09 -2.87859E-09
  -2.89794E-09 -2.91633E-09 -2.93376E-09 -2.95023E-09 -2.96573E-09 -2.98025E-09 -2.99380E-09 -3.00635E-09 -3.01792E-09 -3.02849E-09
  -3.03805E-09 -3.04661E-09 -3.05415E-09 -3.06067E-09 -3.06617E-09 -3.07065E-09 -3.07408E-09 -3.07648E-09 -3.07784E-09 -3.07816E-09
  -3.07742E-09 -3.07563E-09 -3.07278E-09 -3.06886E-09 -3.06388E-09 -3.05783E-09 -3.05071E-09 -3.04251E-09 -3.03322E-09 -3.02286E-09
  -3.01140E-09 -2.99886E-09 -2.98522E-09 -2.97049E-09 -2.95466E-09 -2.93773E-09 -2.91969E-09 -2.90055E-09 -2.88030E-09 -2.85894E-09
  -2.83646E-09 -2.81288E-09 -2.78817E-09 -2.76236E-09 -2.73542E-09 -2.70736E-09 -2.67818E-09 -2.64787E-09 -2.61644E-09 -2.58389E-09
  -2.55021E-09 -2.51541E-09 -2.47948E-09 -2.44242E-09 -2.40424E-09 -2.36493E-09 -2.32449E-09 -2.28292E-09 -2.24022E-09 -2.19640E-09
  -2.15145E-09 -2.10538E-09 -2.05818E-09 -2.00986E-09 -1.96041E-09 -1.90984E-09 -1.85815E-09 -1.80533E-09 -1.75141E-09 -1.69636E-09
  -1.64020E-09 -1.58292E-09 -1.52453E-09 -1.46503E-09 -1.40443E-09 -1.34272E-09 -1.27990E-09 -1.21599E-09 -1.15098E-09 -1.08487E-09
  -1.01768E-09 -9.49388E-10 -8.80015E-10 -8.09560E-10 -7.38025E-10 -6.65414E-10 -5.91732E-10 -5.16981E-10 -4.41166E-10 -3.64290E-10
  -2.86358E-10 -2.07374E-10 -1.27342E-10
 Asp      Conc. = 3.32E-10
   5.20819E-09  5.23334E-09  5.28437E-09  5.32390E-09  5.37027E-09  5.41971E-09  5.46935E-09  5.54967E-09  5.63199E-09  5.71061E-09
   5.78571E-09  5.85787E-09  5.92751E-09  5.99468E-09  6.05926E-09  6.12187E-09  6.18272E-09  6.24193E-09  6.29960E-09  6.35583E-09
   6.41069E-09  6.46425E-09  6.51659E-09  6.56778E-09  6.61792E-09  6.66709E-09  6.71535E-09  6.76286E-09  6.80975E-09  6.85619E-09
   6.90244E-09  6.94879E-09  6.99574E-09  7.04404E-09  7.09490E-09  7.15047E-09  7.20925E-09  7.25367E-09  7.28753E-09  7.30856E-09
   7.33387E-09  7.37831E-09  7.45593E-09  7.53175E-09  7.61936E-09  7.64679E-09  7.60044E-09  7.55404E-09  7.58032E-09  7.60960E-09
   7.62197E-09  7.60610E-09  7.53921E-09  7.43211E-09  7.34323E-09  7.28781E-09  7.30308E-09  7.31640E-09  7.28102E-09  7.23139E-09
   7.22494E-09  7.21838E-09  7.21449E-09  7.22692E-09  7.22622E-09  7.20598E-09  7.18746E-09  7.17888E-09  7.17231E-09  7.16570E-09
   7.15837E-09  7.15004E-09  7.14061E-09  7.13000E-09  7.11823E-09  7.10528E-09  7.09115E-09  7.07589E-09  7.05945E-09  7.04192E-09
   7.02327E-09  7.00352E-09  6.98269E-09  6.96080E-09  6.93788E-09  6.91390E-09  6.88892E-09  6.86293E-09  6.83594E-09  6.80798E-09
   6.77903E-09  6.74916E-09  6.71834E-09  6.68658E-09  6.65390E-09  6.62032E-09  6.58584E-09  6.55047E-09  6.51423E-09  6.47715E-09
   6.43919E-09  6.40041E-09  6.36080E-09  6.32036E-09  6.27912E-09  6.23709E-09  6.19425E-09  6.15066E-09  6.10632E-09  6.06121E-09
   6.01537E-09  5.96877E-09  5.92149E-09  5.87346E-09  5.82476E-09  5.77536E-09  5.72529E-09  5.67457E-09  5.62318E-09  5.57121E-09
   5.51851E-09  5.46523E-09  5.41133E-09  5.35685E-09  5.30177E-09  5.24612E-09  5.18989E-09  5.13311E-09  5.07580E-09  5.01795E-09
   4.95957E-09  4.90069E-09  4.84131E-09  4.78144E-09  4.72109E-09  4.66029E-09  4.59902E-09  4.53730E-09  4.47517E-09  4.41260E-09
   4.34964E-09  4.28627E-09  4.22251E-09  4.15841E-09  4.09391E-09  4.02905E-09  3.96386E-09  3.89835E-09  3.83250E-09  3.76636E-09
   3.69993E-09  3.63319E-09  3.56620E-09  3.49897E-09  3.43147E-09  3.36375E-09  3.29585E-09  3.22778E-09  3.15957E-09  3.09132E-09
   3.02308E-09  2.95509E-09  2.88768E-09  2.82168E-09  2.75916E-09  2.70723E-09  2.70314E-09  2.84623E-09  2.94819E-09  2.94527E-09
   2.87328E-09  2.78715E-09  2.71962E-09  2.67867E-09  2.65232E-09  2.60449E-09  2.47964E-09  2.24059E-09  1.95566E-09  1.81773E-09
   1.72025E-09  1.63561E-09  1.55671E-09  1.48093E-09  1.40706E-09  1.33450E-09  1.26288E-09  1.19199E-09  1.12169E-09  1.05189E-09
   9.82538E-10  9.13593E-10  8.45017E-10  7.76809E-10  7.08946E-10  6.41415E-10  5.74229E-10  5.07382E-10  4.40869E-10  3.74706E-10
   3.08892E-10  2.43424E-10  1.78317E-10  1.13582E-10  4.92188E-11 -1.47617E-11 -7.83541E-11 -1.41531E-10 -2.04307E-10 -2.66667E-10
  -3.28599E-10 -3.90086E-10 -4.51127E-10 -5.11705E-10 -5.71827E-10 -6.31470E-10 -6.90617E-10 -7.49270E-10 -8.07426E-10 -8.65058E-10
  -9.22159E-10 -9.78724E-10 -1.03474E-09 -1.09021E-09 -1.14512E-09 -1.19944E-09 -1.25318E-09 -1.30634E-09 -1.35887E-09 -1.41080E-09
