 LCModel (Version 6.3-1R) Copyright: S.W. Provencher.          Ref.: Magn. Reson. Med. 30:672-679 (1993).                
 onepulse 22x21_ftSpec_smooth_lcm
 26 lines in following concentration table = NCONC+1
    Conc.  %SD   /Cr    Metabolite                                         
 4.48E-11 451%   0.000 Ala                                                 
 4.17E-10  98%   0.000 Asp                                                 
    0.000 999%   0.000 Cr                                                  
 2.78E-09  15%   0.000 GABA                                                
 1.94E-09  17%   0.000 Glc                                                 
    0.000 999%   0.000 Gln                                                 
 3.08E-10 145%   0.000 Glu                                                 
    0.000 999%   0.000 Glyc                                                
    0.000 999%   0.000 GPC                                                 
 1.51E-10 150%   0.000 GSH                                                 
 2.63E-10  87%   0.000 Ins                                                 
    0.000 999%   0.000 Lac                                                 
    0.000 999%   0.000 NAAG                                                
 1.15E-09  16%   0.000 NAA                                                 
 1.23E-10  47%   0.000 PCh                                                 
    0.000 999%   0.000 PCr                                                 
    0.000 999%   0.000 PE                                                  
    0.000 999%   0.000 Scyllo                                              
    0.000 999%   0.000 Ser                                                 
    0.000 999%   0.000 Tau                                                 
 1.23E-10  47%   0.000 GPC+PCh                                             
 1.15E-09  16%   0.000 NAA+NAAG                                            
 2.63E-10  87%   0.000 Ins+Glyc                                            
    0.000 999%   0.000 Cr+PCr                                              
 3.08E-10 145%   0.000 Glu+Gln                                             
   6 lines in following misc. output table
  FWHM = 0.078 ppm    S/N =   4                                            
  Data shift = 0.324 ppm                                                   
  Ph:  40 deg      27.3 deg/ppm                                            
  alphaB,S = 1.7E-01,   7.9E+01                                            
   16 spline knots.   Ns = 5(1)                                            
  ( 9) 2 infls.   ( 5) 1 extrs.                                            
  363 points on ppm-axis = NY
      4.250000     4.238821     4.227641     4.216462     4.205282     4.194103     4.182923     4.171744     4.160564     4.149385
      4.138206     4.127026     4.115847     4.104667     4.093488     4.082308     4.071129     4.059949     4.048770     4.037591
      4.026411     4.015232     4.004052     3.992873     3.981693     3.970514     3.959334     3.948155     3.936975     3.925796
      3.914617     3.903437     3.892258     3.881078     3.869899     3.858719     3.847540     3.836360     3.825181     3.814002
      3.802822     3.791643     3.780463     3.769284     3.758104     3.746925     3.735745     3.724566     3.713387     3.702207
      3.691028     3.679848     3.668669     3.657489     3.646310     3.635130     3.623951     3.612772     3.601592     3.590413
      3.579233     3.568054     3.556874     3.545695     3.534515     3.523336     3.512156     3.500977     3.489798     3.478618
      3.467439     3.456259     3.445080     3.433900     3.422721     3.411541     3.400362     3.389183     3.378003     3.366824
      3.355644     3.344465     3.333285     3.322106     3.310926     3.299747     3.288568     3.277388     3.266209     3.255029
      3.243850     3.232670     3.221491     3.210311     3.199132     3.187953     3.176773     3.165594     3.154414     3.143235
      3.132055     3.120876     3.109696     3.098517     3.087337     3.076158     3.064979     3.053799     3.042620     3.031440
      3.020261     3.009081     2.997902     2.986722     2.975543     2.964364     2.953184     2.942005     2.930825     2.919646
      2.908466     2.897287     2.886107     2.874928     2.863749     2.852569     2.841390     2.830210     2.819031     2.807851
      2.796672     2.785492     2.774313     2.763134     2.751954     2.740775     2.729595     2.718416     2.707236     2.696057
      2.684877     2.673698     2.662519     2.651339     2.640160     2.628980     2.617801     2.606621     2.595442     2.584262
      2.573083     2.561903     2.550724     2.539545     2.528365     2.517186     2.506006     2.494827     2.483647     2.472468
      2.461288     2.450109     2.438930     2.427750     2.416571     2.405391     2.394212     2.383032     2.371853     2.360673
      2.349494     2.338315     2.327135     2.315956     2.304776     2.293597     2.282417     2.271238     2.260058     2.248879
      2.237700     2.226520     2.215341     2.204161     2.192982     2.181802     2.170623     2.159443     2.148264     2.137084
      2.125905     2.114726     2.103546     2.092367     2.081187     2.070008     2.058828     2.047649     2.036469     2.025290
      2.014111     2.002931     1.991752     1.980572     1.969393     1.958213     1.947034     1.935854     1.924675     1.913496
      1.902316     1.891137     1.879957     1.868778     1.857598     1.846419     1.835239     1.824060     1.812881     1.801701
      1.790522     1.779342     1.768163     1.756983     1.745804     1.734624     1.723445     1.712265     1.701086     1.689907
      1.678727     1.667548     1.656368     1.645189     1.634009     1.622830     1.611650     1.600471     1.589292     1.578112
      1.566933     1.555753     1.544574     1.533394     1.522215     1.511035     1.499856     1.488677     1.477497     1.466318
      1.455138     1.443959     1.432779     1.421600     1.410420     1.399241     1.388062     1.376882     1.365703     1.354523
      1.343344     1.332164     1.320985     1.309805     1.298626     1.287446     1.276267     1.265088     1.253908     1.242729
      1.231549     1.220370     1.209190     1.198011     1.186831     1.175652     1.164473     1.153293     1.142114     1.130934
      1.119755     1.108575     1.097396     1.086216     1.075037     1.063858     1.052678     1.041499     1.030319     1.019140
      1.007960     0.996781     0.985601     0.974422     0.963243     0.952063     0.940884     0.929704     0.918525     0.907345
      0.896166     0.884986     0.873807     0.862628     0.851448     0.840269     0.829089     0.817910     0.806730     0.795551
      0.784371     0.773192     0.762012     0.750833     0.739654     0.728474     0.717295     0.706115     0.694936     0.683756
      0.672577     0.661397     0.650218     0.639039     0.627859     0.616680     0.605500     0.594321     0.583141     0.571962
      0.560782     0.549603     0.538424     0.527244     0.516065     0.504885     0.493706     0.482526     0.471347     0.460167
      0.448988     0.437809     0.426629     0.415450     0.404270     0.393091     0.381911     0.370732     0.359552     0.348373
      0.337193     0.326014     0.314835     0.303655     0.292476     0.281296     0.270117     0.258937     0.247758     0.236578
      0.225399     0.214220     0.203040
 NY phased data points follow
   3.65039E-09  6.12938E-09  8.24454E-09  1.08612E-08  1.20574E-08  1.21399E-08  1.01734E-08  9.55888E-09  8.27247E-09  7.25859E-09
   6.77232E-09  6.68831E-09  6.35079E-09  7.11300E-09  7.40719E-09  7.75435E-09  7.59858E-09  8.99897E-09  9.03892E-09  9.53525E-09
   8.41367E-09  8.92737E-09  8.25272E-09  8.68145E-09  7.32048E-09  7.52735E-09  7.11660E-09  8.60831E-09  8.60153E-09  9.16075E-09
   7.72555E-09  7.37433E-09  7.20511E-09  8.14382E-09  8.64341E-09  1.14052E-08  1.11098E-08  1.09361E-08  9.23716E-09  8.20556E-09
   6.54326E-09  6.16710E-09  5.92492E-09  5.27746E-09  5.84222E-09  5.25141E-09  4.78015E-09  5.05028E-09  4.90891E-09  4.26124E-09
   3.45222E-09  3.37030E-09  4.11940E-09  4.11925E-09  4.72444E-09  4.72838E-09  4.05877E-09  3.82903E-09  3.38226E-09  3.33687E-09
   3.52521E-09  4.55096E-09  4.78241E-09  5.39811E-09  6.44189E-09  8.85622E-09  1.04443E-08  1.24722E-08  1.09105E-08  9.69532E-09
   7.27343E-09  6.15808E-09  5.10587E-09  4.83407E-09  3.18246E-09  4.02644E-09  3.35901E-09  2.85617E-09  3.31993E-09  4.11461E-09
   4.94430E-09  8.26615E-09  1.13812E-08  1.47720E-08  1.37653E-08  1.17014E-08  9.90739E-09  8.51162E-09  7.92551E-09  7.46788E-09
   6.44044E-09  6.75315E-09  5.38858E-09  5.79836E-09  5.38398E-09  4.80716E-09  4.29519E-09  3.67404E-09  3.93059E-09  3.56257E-09
   2.73782E-09  3.01049E-09  3.43251E-09  3.04068E-09  3.26107E-09  3.70932E-09  2.91400E-09  3.20063E-09  3.45286E-09  3.20757E-09
   2.68240E-09  2.96678E-09  1.78306E-09  1.82339E-09  1.91130E-09  2.80756E-09  3.34805E-09  2.95489E-09  3.41080E-09  3.58797E-09
   3.50826E-09  3.79557E-09  3.10944E-09  3.48875E-09  2.82475E-09  2.37717E-09  1.53681E-09  1.76913E-09  1.76711E-09  1.33716E-09
   1.06085E-09  2.89139E-09  2.19265E-09  2.31987E-09  2.66613E-09  3.18894E-09  2.57146E-09  2.61759E-09  1.89751E-09  2.25517E-09
   1.93650E-09  3.29867E-09  4.04569E-09  4.18507E-09  4.58687E-09  4.53344E-09  3.69320E-09  4.34139E-09  4.39224E-09  4.27425E-09
   4.74924E-09  4.65319E-09  3.57110E-09  4.36836E-09  4.33726E-09  4.11298E-09  4.07656E-09  4.15363E-09  4.26535E-09  4.60053E-09
   5.06599E-09  5.35174E-09  5.58891E-09  5.98852E-09  5.84396E-09  6.48132E-09  6.73142E-09  7.07138E-09  7.60158E-09  8.44245E-09
   1.02900E-08  1.24096E-08  1.46729E-08  1.65123E-08  1.77454E-08  1.51524E-08  1.14843E-08  8.27510E-09  6.46328E-09  4.71564E-09
   4.70226E-09  3.65370E-09  3.07975E-09  2.24384E-09  1.81529E-09  1.74723E-09  9.85187E-10  8.73314E-10 -5.49791E-11 -3.60697E-10
  -1.21138E-09 -1.36753E-09 -2.72187E-09 -2.62777E-09 -4.09069E-09 -3.89475E-09 -5.42134E-09 -5.93115E-09 -7.17968E-09 -8.44935E-09
  -8.93550E-09 -9.54895E-09 -1.09701E-08 -1.17532E-08 -1.20908E-08 -1.21643E-08 -1.27341E-08 -1.25580E-08 -1.19694E-08 -1.14658E-08
  -1.09553E-08 -1.02364E-08 -8.53860E-09 -7.31430E-09 -6.52896E-09 -4.46352E-09 -3.77919E-09 -2.55690E-09 -1.89873E-09 -1.06353E-09
  -9.24117E-10 -9.77696E-10 -1.08306E-09 -1.94734E-09 -1.49661E-09 -1.53642E-09 -2.68074E-09 -1.96627E-09 -2.11436E-09 -1.79568E-09
  -1.40201E-09 -1.45415E-09 -1.26642E-09 -2.10133E-09 -9.74447E-10 -2.39905E-09 -2.59238E-09 -1.88766E-09 -1.91216E-09 -1.99919E-09
  -1.85252E-09 -1.38038E-09 -1.10971E-09 -9.59165E-10 -1.55101E-09 -1.90708E-09 -1.54494E-09 -2.25604E-09 -2.06344E-09 -1.90113E-09
  -1.51087E-09 -1.44371E-09 -1.33761E-09 -1.20292E-09 -1.17051E-09 -1.31272E-09 -8.16212E-10 -1.28973E-09 -8.46552E-10 -1.71481E-09
  -1.42839E-09 -1.36029E-09 -1.95662E-09 -2.34748E-09 -2.13333E-09 -2.14666E-09 -1.85032E-09 -1.27520E-09 -1.48724E-09 -1.07977E-09
  -4.05344E-10 -5.55667E-10 -8.22698E-10 -2.85161E-10 -5.67130E-10 -9.57092E-10 -5.12385E-10 -7.13632E-10 -7.68744E-10 -1.73563E-09
  -1.56226E-09 -1.54717E-09 -1.72309E-09 -1.65936E-09 -1.33629E-09 -1.75920E-09 -1.38746E-09 -1.79842E-09 -1.45631E-09 -1.11649E-09
  -1.22538E-09 -9.50309E-10 -1.68844E-09 -9.40272E-10 -9.37564E-10 -8.95076E-10 -1.46818E-09 -7.50269E-10 -1.20027E-09 -1.40191E-09
  -1.32837E-09 -1.40155E-09 -1.02427E-09 -1.20308E-09 -1.16883E-09 -8.77931E-10 -4.76385E-10 -1.23992E-09 -9.81753E-10 -7.24884E-10
  -1.27512E-09 -9.75693E-10 -9.27647E-10 -7.37762E-10 -5.24731E-10 -8.83940E-10 -1.22275E-09 -8.26868E-10 -5.90506E-10 -1.02731E-09
  -6.27383E-10 -1.42578E-09 -1.06498E-09 -9.21816E-10 -7.15856E-10 -7.86855E-10 -8.33963E-10 -8.61366E-10 -4.96063E-10 -1.11836E-09
  -8.08268E-10 -4.97728E-10 -9.35094E-10 -1.16653E-09 -5.50123E-10 -3.90062E-10 -3.99551E-10 -1.17670E-09 -1.19306E-09 -6.61755E-10
  -8.88157E-10 -6.22904E-10 -9.93812E-10 -3.81357E-10 -5.15244E-10 -7.93942E-10 -1.82055E-10 -1.26229E-09 -5.39968E-10 -4.06787E-10
  -3.97089E-10 -2.03409E-10 -9.61728E-10 -4.31584E-10 -6.83256E-10 -5.27202E-10 -3.80822E-10 -9.40246E-10 -7.92468E-10 -3.45224E-10
  -8.15645E-10 -5.00147E-10 -7.13331E-10
 NY points of the fit to the data follow
   6.96571E-09  7.69983E-09  8.49043E-09  9.24130E-09  9.76986E-09  9.90120E-09  9.58440E-09  8.90333E-09  8.13855E-09  7.34879E-09
   6.85145E-09  6.68999E-09  6.72411E-09  6.89811E-09  7.22000E-09  7.64047E-09  8.10307E-09  8.59648E-09  9.08687E-09  9.51799E-09
   9.87365E-09  9.92877E-09  9.51828E-09  8.82142E-09  7.99851E-09  7.21592E-09  6.81858E-09  7.04239E-09  7.60288E-09  8.22340E-09
   8.53832E-09  8.65936E-09  8.79701E-09  8.78249E-09  8.74705E-09  9.05464E-09  9.42888E-09  9.55628E-09  9.34486E-09  8.86693E-09
   8.24643E-09  7.46668E-09  6.37630E-09  5.48647E-09  4.92188E-09  4.30232E-09  3.81190E-09  3.62892E-09  3.64129E-09  3.73942E-09
   3.83089E-09  3.86233E-09  3.84413E-09  3.80393E-09  3.80547E-09  3.89592E-09  4.04955E-09  4.19768E-09  4.23948E-09  4.21543E-09
   4.28233E-09  4.62376E-09  5.14644E-09  5.79320E-09  6.77199E-09  7.72314E-09  8.41532E-09  8.96353E-09  9.33722E-09  9.36308E-09
   9.00318E-09  8.21606E-09  7.18166E-09  6.21408E-09  5.20722E-09  4.35993E-09  4.23907E-09  4.69812E-09  5.39512E-09  6.43935E-09
   7.72512E-09  9.18056E-09  1.07595E-08  1.19784E-08  1.23417E-08  1.18325E-08  1.05468E-08  8.77783E-09  7.16272E-09  6.51682E-09
   6.35274E-09  6.27444E-09  6.00776E-09  5.55406E-09  5.23699E-09  4.86337E-09  4.32157E-09  3.94088E-09  3.67364E-09  3.40473E-09
   3.21949E-09  3.10515E-09  3.03697E-09  3.00959E-09  3.00540E-09  3.01153E-09  3.01988E-09  3.02436E-09  3.02134E-09  3.00896E-09
   2.98871E-09  2.96940E-09  2.95926E-09  2.94236E-09  2.93082E-09  2.94070E-09  2.95805E-09  2.97878E-09  3.00137E-09  3.02504E-09
   3.04932E-09  3.07384E-09  3.09830E-09  3.12247E-09  3.14613E-09  3.16909E-09  3.19120E-09  3.21231E-09  3.23228E-09  3.25096E-09
   3.26823E-09  3.28398E-09  3.29807E-09  3.31040E-09  3.32084E-09  3.32930E-09  3.33565E-09  3.33980E-09  3.34167E-09  3.34115E-09
   3.33814E-09  3.33251E-09  3.32411E-09  3.31280E-09  3.29846E-09  3.28097E-09  3.26020E-09  3.23606E-09  3.20842E-09  3.17721E-09
   3.14238E-09  3.10387E-09  3.06170E-09  3.01589E-09  2.96656E-09  2.91389E-09  2.85819E-09  2.79996E-09  2.73999E-09  2.67950E-09
   2.62048E-09  2.56625E-09  2.52279E-09  2.50178E-09  2.53020E-09  2.68950E-09  3.34623E-09  4.79350E-09  6.74037E-09  8.92847E-09
   1.14324E-08  1.41481E-08  1.65544E-08  1.78617E-08  1.73986E-08  1.49771E-08  1.10055E-08  6.46045E-09  2.85827E-09  1.02712E-09
   2.77770E-10 -1.69656E-10 -5.04985E-10 -7.85538E-10 -1.03454E-09 -1.26311E-09 -1.47707E-09 -1.67967E-09 -1.87271E-09 -2.05723E-09
  -2.23376E-09 -2.40250E-09 -2.56347E-09 -2.71650E-09 -2.86137E-09 -2.99778E-09 -3.12549E-09 -3.24470E-09 -3.35566E-09 -3.45858E-09
  -3.55369E-09 -3.64116E-09 -3.72120E-09 -3.79397E-09 -3.85965E-09 -3.91839E-09 -3.97036E-09 -4.01573E-09 -4.05463E-09 -4.08722E-09
  -4.11365E-09 -4.13406E-09 -4.14860E-09 -4.15743E-09 -4.16067E-09 -4.15847E-09 -4.15098E-09 -4.13833E-09 -4.12066E-09 -4.09811E-09
  -4.07083E-09 -4.03894E-09 -4.00260E-09 -3.96193E-09 -3.91711E-09 -3.86839E-09 -3.81602E-09 -3.76025E-09 -3.70135E-09 -3.63955E-09
  -3.57512E-09 -3.50831E-09 -3.43938E-09 -3.36857E-09 -3.29614E-09 -3.22234E-09 -3.14743E-09 -3.07167E-09 -2.99528E-09 -2.91855E-09
  -2.84172E-09 -2.76503E-09 -2.68875E-09 -2.61313E-09 -2.53841E-09 -2.46486E-09 -2.39272E-09 -2.32224E-09 -2.25369E-09 -2.18732E-09
  -2.12335E-09 -2.06208E-09 -2.00359E-09 -1.94781E-09 -1.89467E-09 -1.84409E-09 -1.79598E-09 -1.75026E-09 -1.70685E-09 -1.66567E-09
  -1.62664E-09 -1.58966E-09 -1.55467E-09 -1.52157E-09 -1.49030E-09 -1.46076E-09 -1.43286E-09 -1.40655E-09 -1.38173E-09 -1.35831E-09
  -1.33621E-09 -1.31536E-09 -1.29566E-09 -1.27704E-09 -1.25943E-09 -1.24271E-09 -1.22684E-09 -1.21172E-09 -1.19727E-09 -1.18339E-09
  -1.17006E-09 -1.15725E-09 -1.14493E-09 -1.13308E-09 -1.12170E-09 -1.11075E-09 -1.10021E-09 -1.09007E-09 -1.08030E-09 -1.07089E-09
  -1.06181E-09 -1.05304E-09 -1.04457E-09 -1.03637E-09 -1.02843E-09 -1.02071E-09 -1.01321E-09 -1.00590E-09 -9.98763E-10 -9.91770E-10
  -9.84917E-10 -9.78170E-10 -9.71511E-10 -9.64929E-10 -9.58394E-10 -9.51887E-10 -9.45392E-10 -9.38882E-10 -9.32357E-10 -9.25815E-10
  -9.19255E-10 -9.12680E-10 -9.06089E-10 -8.99479E-10 -8.92854E-10 -8.86212E-10 -8.79555E-10 -8.72881E-10 -8.66194E-10 -8.59488E-10
  -8.52771E-10 -8.46034E-10 -8.39283E-10 -8.32521E-10 -8.25739E-10 -8.18948E-10 -8.12140E-10 -8.05316E-10 -7.98480E-10 -7.91635E-10
  -7.84770E-10 -7.77893E-10 -7.71002E-10 -7.64100E-10 -7.57186E-10 -7.50255E-10 -7.43315E-10 -7.36366E-10 -7.29407E-10 -7.22442E-10
  -7.15473E-10 -7.08499E-10 -7.01522E-10 -6.94545E-10 -6.87571E-10 -6.80596E-10 -6.73629E-10 -6.66666E-10 -6.59711E-10 -6.52764E-10
  -6.45826E-10 -6.38902E-10 -6.31991E-10 -6.25095E-10 -6.18216E-10 -6.11356E-10 -6.04515E-10 -5.97693E-10 -5.90895E-10 -5.84123E-10
  -5.77377E-10 -5.70660E-10 -5.63968E-10
 NY background values follow
     6.717E-10    6.690E-10    6.663E-10    6.636E-10    6.607E-10    6.578E-10    6.548E-10    6.518E-10    6.486E-10    6.454E-10
     6.422E-10    6.389E-10    6.355E-10    6.321E-10    6.286E-10    6.251E-10    6.216E-10    6.180E-10    6.143E-10    6.106E-10
     6.069E-10    6.031E-10    5.994E-10    5.955E-10    5.917E-10    5.878E-10    5.839E-10    5.800E-10    5.761E-10    5.721E-10
     5.682E-10    5.643E-10    5.604E-10    5.566E-10    5.528E-10    5.492E-10    5.456E-10    5.422E-10    5.390E-10    5.359E-10
     5.330E-10    5.303E-10    5.278E-10    5.255E-10    5.235E-10    5.218E-10    5.203E-10    5.192E-10    5.184E-10    5.179E-10
     5.178E-10    5.181E-10    5.188E-10    5.199E-10    5.214E-10    5.234E-10    5.258E-10    5.287E-10    5.322E-10    5.362E-10
     5.407E-10    5.459E-10    5.516E-10    5.580E-10    5.650E-10    5.728E-10    5.812E-10    5.904E-10    6.004E-10    6.111E-10
     6.227E-10    6.351E-10    6.484E-10    6.625E-10    6.776E-10    6.936E-10    7.106E-10    7.285E-10    7.475E-10    7.675E-10
     7.886E-10    8.108E-10    8.341E-10    8.585E-10    8.841E-10    9.108E-10    9.387E-10    9.676E-10    9.975E-10    1.028E-09
     1.060E-09    1.093E-09    1.126E-09    1.161E-09    1.196E-09    1.232E-09    1.268E-09    1.305E-09    1.342E-09    1.380E-09
     1.419E-09    1.458E-09    1.497E-09    1.536E-09    1.576E-09    1.616E-09    1.656E-09    1.697E-09    1.737E-09    1.777E-09
     1.818E-09    1.858E-09    1.898E-09    1.938E-09    1.978E-09    2.017E-09    2.056E-09    2.094E-09    2.132E-09    2.169E-09
     2.205E-09    2.240E-09    2.274E-09    2.307E-09    2.338E-09    2.368E-09    2.397E-09    2.425E-09    2.450E-09    2.474E-09
     2.496E-09    2.516E-09    2.535E-09    2.551E-09    2.564E-09    2.576E-09    2.585E-09    2.592E-09    2.596E-09    2.597E-09
     2.596E-09    2.592E-09    2.584E-09    2.574E-09    2.560E-09    2.542E-09    2.521E-09    2.496E-09    2.467E-09    2.434E-09
     2.396E-09    2.354E-09    2.308E-09    2.257E-09    2.200E-09    2.139E-09    2.073E-09    2.001E-09    1.923E-09    1.840E-09
     1.751E-09    1.657E-09    1.556E-09    1.448E-09    1.334E-09    1.214E-09    1.087E-09    9.527E-10    8.117E-10    6.640E-10
     5.104E-10    3.512E-10    1.871E-10    1.851E-11   -1.539E-10   -3.297E-10   -5.083E-10   -6.891E-10   -8.717E-10   -1.055E-09
    -1.240E-09   -1.424E-09   -1.608E-09   -1.792E-09   -1.973E-09   -2.153E-09   -2.330E-09   -2.503E-09   -2.674E-09   -2.840E-09
    -3.001E-09   -3.157E-09   -3.307E-09   -3.450E-09   -3.587E-09   -3.717E-09   -3.838E-09   -3.952E-09   -4.058E-09   -4.157E-09
    -4.248E-09   -4.332E-09   -4.408E-09   -4.478E-09   -4.541E-09   -4.597E-09   -4.647E-09   -4.690E-09   -4.727E-09   -4.758E-09
    -4.782E-09   -4.801E-09   -4.814E-09   -4.821E-09   -4.823E-09   -4.820E-09   -4.811E-09   -4.797E-09   -4.778E-09   -4.755E-09
    -4.726E-09   -4.693E-09   -4.656E-09   -4.615E-09   -4.569E-09   -4.519E-09   -4.466E-09   -4.410E-09   -4.350E-09   -4.287E-09
    -4.222E-09   -4.155E-09   -4.085E-09   -4.014E-09   -3.941E-09   -3.866E-09   -3.791E-09   -3.714E-09   -3.637E-09   -3.560E-09
    -3.483E-09   -3.405E-09   -3.329E-09   -3.252E-09   -3.177E-09   -3.103E-09   -3.031E-09   -2.960E-09   -2.891E-09   -2.824E-09
    -2.759E-09   -2.698E-09   -2.639E-09   -2.583E-09   -2.529E-09   -2.478E-09   -2.429E-09   -2.383E-09   -2.340E-09   -2.298E-09
    -2.259E-09   -2.221E-09   -2.186E-09   -2.152E-09   -2.121E-09   -2.091E-09   -2.062E-09   -2.036E-09   -2.011E-09   -1.987E-09
    -1.964E-09   -1.943E-09   -1.923E-09   -1.904E-09   -1.886E-09   -1.869E-09   -1.853E-09   -1.838E-09   -1.823E-09   -1.809E-09
    -1.795E-09   -1.782E-09   -1.769E-09   -1.757E-09   -1.745E-09   -1.734E-09   -1.723E-09   -1.713E-09   -1.703E-09   -1.693E-09
    -1.684E-09   -1.674E-09   -1.666E-09   -1.657E-09   -1.649E-09   -1.641E-09   -1.633E-09   -1.625E-09   -1.618E-09   -1.611E-09
    -1.604E-09   -1.597E-09   -1.590E-09   -1.583E-09   -1.576E-09   -1.569E-09   -1.562E-09   -1.555E-09   -1.549E-09   -1.542E-09
    -1.535E-09   -1.528E-09   -1.521E-09   -1.514E-09   -1.507E-09   -1.500E-09   -1.493E-09   -1.487E-09   -1.480E-09   -1.473E-09
    -1.466E-09   -1.458E-09   -1.451E-09   -1.444E-09   -1.437E-09   -1.430E-09   -1.423E-09   -1.416E-09   -1.409E-09   -1.402E-09
    -1.395E-09   -1.387E-09   -1.380E-09   -1.373E-09   -1.366E-09   -1.359E-09   -1.351E-09   -1.344E-09   -1.337E-09   -1.329E-09
    -1.322E-09   -1.315E-09   -1.308E-09   -1.300E-09   -1.293E-09   -1.286E-09   -1.279E-09   -1.271E-09   -1.264E-09   -1.257E-09
    -1.249E-09   -1.242E-09   -1.235E-09   -1.228E-09   -1.221E-09   -1.213E-09   -1.206E-09   -1.199E-09   -1.192E-09   -1.185E-09
    -1.178E-09   -1.171E-09   -1.164E-09
 Ala      Conc. = 4.48E-11
   7.01973E-10  7.03249E-10  7.03460E-10  7.02818E-10  7.01045E-10  6.98170E-10  6.93669E-10  6.86984E-10  6.80618E-10  6.74445E-10
   6.65680E-10  6.57716E-10  6.51732E-10  6.45171E-10  6.38983E-10  6.33805E-10  6.29130E-10  6.24728E-10  6.20486E-10  6.16338E-10
   6.12250E-10  6.08196E-10  6.04164E-10  6.00142E-10  5.96123E-10  5.92106E-10  5.88087E-10  5.84062E-10  5.80035E-10  5.76008E-10
   5.71995E-10  5.68013E-10  5.64078E-10  5.60209E-10  5.56420E-10  5.52730E-10  5.49156E-10  5.45716E-10  5.42426E-10  5.39303E-10
   5.36368E-10  5.33634E-10  5.31123E-10  5.28849E-10  5.26833E-10  5.25089E-10  5.23637E-10  5.22497E-10  5.21681E-10  5.21211E-10
   5.21105E-10  5.21377E-10  5.22049E-10  5.23136E-10  5.24663E-10  5.26635E-10  5.29076E-10  5.32010E-10  5.35458E-10  5.39445E-10
   5.43998E-10  5.49142E-10  5.54900E-10  5.61299E-10  5.68363E-10  5.76119E-10  5.84590E-10  5.93803E-10  6.03782E-10  6.14553E-10
   6.26140E-10  6.38571E-10  6.51869E-10  6.66062E-10  6.81171E-10  6.97227E-10  7.14253E-10  7.32274E-10  7.51318E-10  7.71411E-10
   7.92576E-10  8.14846E-10  8.38240E-10  8.62794E-10  8.88526E-10  9.15439E-10  9.43489E-10  9.72634E-10  1.00284E-09  1.03406E-09
   1.06627E-09  1.09945E-09  1.13357E-09  1.16862E-09  1.20464E-09  1.24167E-09  1.27987E-09  1.31957E-09  1.36160E-09  1.40877E-09
   1.46609E-09  1.52365E-09  1.58395E-09  1.65656E-09  1.73262E-09  1.80456E-09  1.86759E-09  1.91804E-09  1.95424E-09  1.97582E-09
   1.98551E-09  1.99271E-09  2.00606E-09  2.00998E-09  2.01694E-09  2.04332E-09  2.07562E-09  2.10997E-09  2.14497E-09  2.17997E-09
   2.21460E-09  2.24858E-09  2.28174E-09  2.31392E-09  2.34497E-09  2.37477E-09  2.40320E-09  2.43016E-09  2.45553E-09  2.47922E-09
   2.50112E-09  2.52113E-09  2.53915E-09  2.55508E-09  2.56882E-09  2.58027E-09  2.58934E-09  2.59594E-09  2.59995E-09  2.60129E-09
   2.59986E-09  2.59551E-09  2.58810E-09  2.57747E-09  2.56347E-09  2.54593E-09  2.52472E-09  2.49968E-09  2.47064E-09  2.43746E-09
   2.39999E-09  2.35807E-09  2.31154E-09  2.26027E-09  2.20408E-09  2.14284E-09  2.07639E-09  2.00458E-09  1.92726E-09  1.84429E-09
   1.75552E-09  1.66082E-09  1.56009E-09  1.45321E-09  1.34020E-09  1.22134E-09  1.09840E-09  9.76084E-10  8.48677E-10  7.15779E-10
   5.79430E-10  4.39482E-10  2.92616E-10  1.33683E-10 -4.15225E-11 -2.33311E-10 -4.38060E-10 -6.48654E-10 -8.54229E-10 -1.04464E-09
  -1.23169E-09 -1.41760E-09 -1.60254E-09 -1.78623E-09 -1.96822E-09 -2.14807E-09 -2.32526E-09 -2.49927E-09 -2.66958E-09 -2.83564E-09
  -2.99694E-09 -3.15295E-09 -3.30311E-09 -3.44689E-09 -3.58376E-09 -3.71318E-09 -3.83475E-09 -3.94852E-09 -4.05462E-09 -4.15320E-09
  -4.24438E-09 -4.32829E-09 -4.40509E-09 -4.47489E-09 -4.53785E-09 -4.59408E-09 -4.64373E-09 -4.68694E-09 -4.72383E-09 -4.75454E-09
  -4.77922E-09 -4.79798E-09 -4.81097E-09 -4.81833E-09 -4.82018E-09 -4.81668E-09 -4.80793E-09 -4.79409E-09 -4.77529E-09 -4.75167E-09
  -4.72335E-09 -4.69048E-09 -4.65318E-09 -4.61160E-09 -4.56591E-09 -4.51634E-09 -4.46316E-09 -4.40660E-09 -4.34694E-09 -4.28441E-09
  -4.21927E-09 -4.15176E-09 -4.08216E-09 -4.01071E-09 -3.93764E-09 -3.86323E-09 -3.78772E-09 -3.71137E-09 -3.63440E-09 -3.55712E-09
  -3.47974E-09 -3.40252E-09 -3.32572E-09 -3.24960E-09 -3.17438E-09 -3.10034E-09 -3.02771E-09 -2.95677E-09 -2.88775E-09 -2.82092E-09
  -2.75651E-09 -2.69480E-09 -2.63587E-09 -2.57967E-09 -2.52611E-09 -2.47512E-09 -2.42660E-09 -2.38048E-09 -2.33667E-09 -2.29510E-09
  -2.25568E-09 -2.21832E-09 -2.18295E-09 -2.14948E-09 -2.11784E-09 -2.08794E-09 -2.05967E-09 -2.03301E-09 -2.00783E-09 -1.98406E-09
  -1.96161E-09 -1.94041E-09 -1.92037E-09 -1.90142E-09 -1.88347E-09 -1.86642E-09 -1.85022E-09 -1.83476E-09 -1.81998E-09 -1.80579E-09
  -1.79213E-09 -1.77900E-09 -1.76636E-09 -1.75420E-09 -1.74250E-09 -1.73123E-09 -1.72039E-09 -1.70993E-09 -1.69985E-09 -1.69013E-09
  -1.68075E-09 -1.67168E-09 -1.66290E-09 -1.65440E-09 -1.64615E-09 -1.63813E-09 -1.63033E-09 -1.62272E-09 -1.61529E-09 -1.60800E-09
  -1.60084E-09 -1.59380E-09 -1.58685E-09 -1.57997E-09 -1.57314E-09 -1.56633E-09 -1.55955E-09 -1.55274E-09 -1.54592E-09 -1.53909E-09
  -1.53223E-09 -1.52536E-09 -1.51848E-09 -1.51158E-09 -1.50466E-09 -1.49772E-09 -1.49077E-09 -1.48381E-09 -1.47683E-09 -1.46983E-09
  -1.46282E-09 -1.45579E-09 -1.44874E-09 -1.44168E-09 -1.43461E-09 -1.42752E-09 -1.42042E-09 -1.41330E-09 -1.40617E-09 -1.39902E-09
  -1.39186E-09 -1.38469E-09 -1.37750E-09 -1.37029E-09 -1.36308E-09 -1.35585E-09 -1.34861E-09 -1.34136E-09 -1.33409E-09 -1.32683E-09
  -1.31955E-09 -1.31227E-09 -1.30499E-09 -1.29771E-09 -1.29042E-09 -1.28314E-09 -1.27586E-09 -1.26859E-09 -1.26132E-09 -1.25406E-09
  -1.24681E-09 -1.23957E-09 -1.23234E-09 -1.22513E-09 -1.21793E-09 -1.21075E-09 -1.20359E-09 -1.19644E-09 -1.18932E-09 -1.18222E-09
  -1.17515E-09 -1.16810E-09 -1.16108E-09
 Asp      Conc. = 4.17E-10
   1.18556E-09  1.13040E-09  1.07234E-09  1.00346E-09  9.32453E-10  8.54593E-10  7.91039E-10  7.42706E-10  7.17638E-10  7.01849E-10
   6.90760E-10  6.82468E-10  6.75962E-10  6.70541E-10  6.65553E-10  6.60851E-10  6.56443E-10  6.52285E-10  6.48338E-10  6.44573E-10
   6.40974E-10  6.37531E-10  6.34248E-10  6.31128E-10  6.28186E-10  6.25451E-10  6.22951E-10  6.20734E-10  6.18864E-10  6.17433E-10
   6.16580E-10  6.16498E-10  6.17480E-10  6.19989E-10  6.24850E-10  6.33810E-10  6.51097E-10  6.72121E-10  7.00815E-10  7.29839E-10
   7.57511E-10  7.83424E-10  8.08228E-10  8.35714E-10  8.62760E-10  9.05902E-10  9.50172E-10  1.00779E-09  1.10854E-09  1.22087E-09
   1.31133E-09  1.34210E-09  1.30338E-09  1.20685E-09  1.08763E-09  9.90177E-10  9.20414E-10  8.88275E-10  8.35246E-10  7.73054E-10
   7.45933E-10  7.38468E-10  7.35789E-10  7.39154E-10  7.37266E-10  7.20375E-10  6.96208E-10  6.85696E-10  6.82623E-10  6.83986E-10
   6.88421E-10  6.95212E-10  7.03944E-10  7.14363E-10  7.26301E-10  7.39653E-10  7.54347E-10  7.70334E-10  7.87586E-10  8.06087E-10
   8.25824E-10  8.46801E-10  8.69015E-10  8.92481E-10  9.17201E-10  9.43160E-10  9.70300E-10  9.98564E-10  1.02790E-09  1.05825E-09
   1.08957E-09  1.12181E-09  1.15490E-09  1.18881E-09  1.22348E-09  1.25886E-09  1.29491E-09  1.33157E-09  1.36879E-09  1.40653E-09
   1.44474E-09  1.48336E-09  1.52236E-09  1.56168E-09  1.60127E-09  1.64109E-09  1.68109E-09  1.72122E-09  1.76143E-09  1.80168E-09
   1.84192E-09  1.88209E-09  1.92216E-09  1.96205E-09  2.00165E-09  2.04088E-09  2.07963E-09  2.11782E-09  2.15534E-09  2.19210E-09
   2.22801E-09  2.26296E-09  2.29686E-09  2.32962E-09  2.36114E-09  2.39132E-09  2.42007E-09  2.44730E-09  2.47290E-09  2.49678E-09
   2.51885E-09  2.53900E-09  2.55715E-09  2.57320E-09  2.58705E-09  2.59861E-09  2.60778E-09  2.61447E-09  2.61858E-09  2.62002E-09
   2.61868E-09  2.61444E-09  2.60713E-09  2.59661E-09  2.58273E-09  2.56533E-09  2.54426E-09  2.51938E-09  2.49052E-09  2.45755E-09
   2.42031E-09  2.37865E-09  2.33244E-09  2.28153E-09  2.22577E-09  2.16504E-09  2.09921E-09  2.02815E-09  1.95177E-09  1.86999E-09
   1.78277E-09  1.69013E-09  1.59226E-09  1.48958E-09  1.38326E-09  1.27670E-09  1.18407E-09  1.15617E-09  1.14179E-09  1.12998E-09
   1.13533E-09  1.15463E-09  1.15479E-09  1.08377E-09  8.95649E-10  5.79594E-10  1.61940E-10 -2.98571E-10 -7.08497E-10 -9.63163E-10
  -1.17391E-09 -1.37178E-09 -1.56382E-09 -1.75214E-09 -1.93736E-09 -2.11955E-09 -2.29851E-09 -2.47389E-09 -2.64528E-09 -2.81223E-09
  -2.97425E-09 -3.13086E-09 -3.28153E-09 -3.42574E-09 -3.56298E-09 -3.69273E-09 -3.81458E-09 -3.92859E-09 -4.03492E-09 -4.13368E-09
  -4.22504E-09 -4.30911E-09 -4.38605E-09 -4.45598E-09 -4.51905E-09 -4.57539E-09 -4.62514E-09 -4.66844E-09 -4.70541E-09 -4.73620E-09
  -4.76095E-09 -4.77978E-09 -4.79283E-09 -4.80025E-09 -4.80216E-09 -4.79870E-09 -4.79001E-09 -4.77621E-09 -4.75746E-09 -4.73387E-09
  -4.70559E-09 -4.67275E-09 -4.63549E-09 -4.59395E-09 -4.54828E-09 -4.49875E-09 -4.44560E-09 -4.38907E-09 -4.32943E-09 -4.26692E-09
