 LCModel (Version 6.3-1R) Copyright: S.W. Provencher.          Ref.: Magn. Reson. Med. 30:672-679 (1993).                
 onepulse 22x29_ftSpec_smooth_lcm
 26 lines in following concentration table = NCONC+1
    Conc.  %SD   /Cr    Metabolite                                         
    0.000 999%   0.000 Ala                                                 
    0.000 999%   0.000 Asp                                                 
    0.000 999%   0.000 Cr                                                  
    0.000 999%   0.000 GABA                                                
    0.000 999%   0.000 Glc                                                 
    0.000 999%   0.000 Gln                                                 
    0.000 999%   0.000 Glu                                                 
    0.000 999%   0.000 Glyc                                                
    0.000 999%   0.000 GPC                                                 
    0.000 999%   0.000 GSH                                                 
 5.20E-10  70%   0.000 Ins                                                 
    0.000 999%   0.000 Lac                                                 
    0.000 999%   0.000 NAAG                                                
    0.000 999%   0.000 NAA                                                 
 1.02E-11 874%   0.000 PCh                                                 
    0.000 999%   0.000 PCr                                                 
    0.000 999%   0.000 PE                                                  
    0.000 999%   0.000 Scyllo                                              
    0.000 999%   0.000 Ser                                                 
    0.000 999%   0.000 Tau                                                 
 1.02E-11 874%   0.000 GPC+PCh                                             
    0.000 999%   0.000 NAA+NAAG                                            
 5.20E-10  70%   0.000 Ins+Glyc                                            
    0.000 999%   0.000 Cr+PCr                                              
    0.000 999%   0.000 Glu+Gln                                             
   6 lines in following misc. output table
  FWHM = 0.056 ppm    S/N =   0                                            
  Data shift = 0.179 ppm                                                   
  Ph:   6 deg      74.8 deg/ppm                                            
  alphaB,S = 1.2E+00,   6.4E+00                                            
    8 spline knots.   Ns = 5(1)                                            
  ( 4) 1 infls.   ( 1) 1 extrs.                                            
  363 points on ppm-axis = NY
      4.250000     4.238821     4.227641     4.216462     4.205282     4.194103     4.182923     4.171744     4.160564     4.149385
      4.138206     4.127026     4.115847     4.104667     4.093488     4.082308     4.071129     4.059949     4.048770     4.037591
      4.026411     4.015232     4.004052     3.992873     3.981693     3.970514     3.959334     3.948155     3.936975     3.925796
      3.914617     3.903437     3.892258     3.881078     3.869899     3.858719     3.847540     3.836360     3.825181     3.814002
      3.802822     3.791643     3.780463     3.769284     3.758104     3.746925     3.735745     3.724566     3.713387     3.702207
      3.691028     3.679848     3.668669     3.657489     3.646310     3.635130     3.623951     3.612772     3.601592     3.590413
      3.579233     3.568054     3.556874     3.545695     3.534515     3.523336     3.512156     3.500977     3.489798     3.478618
      3.467439     3.456259     3.445080     3.433900     3.422721     3.411541     3.400362     3.389183     3.378003     3.366824
      3.355644     3.344465     3.333285     3.322106     3.310926     3.299747     3.288568     3.277388     3.266209     3.255029
      3.243850     3.232670     3.221491     3.210311     3.199132     3.187953     3.176773     3.165594     3.154414     3.143235
      3.132055     3.120876     3.109696     3.098517     3.087337     3.076158     3.064979     3.053799     3.042620     3.031440
      3.020261     3.009081     2.997902     2.986722     2.975543     2.964364     2.953184     2.942005     2.930825     2.919646
      2.908466     2.897287     2.886107     2.874928     2.863749     2.852569     2.841390     2.830210     2.819031     2.807851
      2.796672     2.785492     2.774313     2.763134     2.751954     2.740775     2.729595     2.718416     2.707236     2.696057
      2.684877     2.673698     2.662519     2.651339     2.640160     2.628980     2.617801     2.606621     2.595442     2.584262
      2.573083     2.561903     2.550724     2.539545     2.528365     2.517186     2.506006     2.494827     2.483647     2.472468
      2.461288     2.450109     2.438930     2.427750     2.416571     2.405391     2.394212     2.383032     2.371853     2.360673
      2.349494     2.338315     2.327135     2.315956     2.304776     2.293597     2.282417     2.271238     2.260058     2.248879
      2.237700     2.226520     2.215341     2.204161     2.192982     2.181802     2.170623     2.159443     2.148264     2.137084
      2.125905     2.114726     2.103546     2.092367     2.081187     2.070008     2.058828     2.047649     2.036469     2.025290
      2.014111     2.002931     1.991752     1.980572     1.969393     1.958213     1.947034     1.935854     1.924675     1.913496
      1.902316     1.891137     1.879957     1.868778     1.857598     1.846419     1.835239     1.824060     1.812881     1.801701
      1.790522     1.779342     1.768163     1.756983     1.745804     1.734624     1.723445     1.712265     1.701086     1.689907
      1.678727     1.667548     1.656368     1.645189     1.634009     1.622830     1.611650     1.600471     1.589292     1.578112
      1.566933     1.555753     1.544574     1.533394     1.522215     1.511035     1.499856     1.488677     1.477497     1.466318
      1.455138     1.443959     1.432779     1.421600     1.410420     1.399241     1.388062     1.376882     1.365703     1.354523
      1.343344     1.332164     1.320985     1.309805     1.298626     1.287446     1.276267     1.265088     1.253908     1.242729
      1.231549     1.220370     1.209190     1.198011     1.186831     1.175652     1.164473     1.153293     1.142114     1.130934
      1.119755     1.108575     1.097396     1.086216     1.075037     1.063858     1.052678     1.041499     1.030319     1.019140
      1.007960     0.996781     0.985601     0.974422     0.963243     0.952063     0.940884     0.929704     0.918525     0.907345
      0.896166     0.884986     0.873807     0.862628     0.851448     0.840269     0.829089     0.817910     0.806730     0.795551
      0.784371     0.773192     0.762012     0.750833     0.739654     0.728474     0.717295     0.706115     0.694936     0.683756
      0.672577     0.661397     0.650218     0.639039     0.627859     0.616680     0.605500     0.594321     0.583141     0.571962
      0.560782     0.549603     0.538424     0.527244     0.516065     0.504885     0.493706     0.482526     0.471347     0.460167
      0.448988     0.437809     0.426629     0.415450     0.404270     0.393091     0.381911     0.370732     0.359552     0.348373
      0.337193     0.326014     0.314835     0.303655     0.292476     0.281296     0.270117     0.258937     0.247758     0.236578
      0.225399     0.214220     0.203040
 NY phased data points follow
  -3.88195E-11  4.14007E-11 -1.03498E-09 -1.20613E-09 -1.71018E-09 -1.09996E-09 -1.91033E-09 -1.48887E-09 -1.39069E-09 -5.27014E-10
  -2.63438E-10  2.05862E-10 -2.08889E-10 -2.62168E-10 -2.39227E-09 -4.20674E-09 -7.27079E-09 -7.77174E-09 -8.34351E-09 -7.18613E-09
  -6.99454E-09 -6.38085E-09 -6.53875E-09 -6.21503E-09 -6.23547E-09 -5.48246E-09 -6.22282E-09 -6.14122E-09 -6.99678E-09 -7.34128E-09
  -8.20510E-09 -8.39161E-09 -8.09741E-09 -7.93472E-09 -8.36937E-09 -8.14501E-09 -8.57423E-09 -7.16037E-09 -7.98679E-09 -7.21241E-09
  -8.43882E-09 -8.37102E-09 -8.90096E-09 -7.77439E-09 -7.96960E-09 -7.13052E-09 -7.70106E-09 -9.00781E-09 -1.05590E-08 -1.10983E-08
  -1.10073E-08 -1.00917E-08 -9.80358E-09 -8.72087E-09 -9.34150E-09 -8.48943E-09 -8.73568E-09 -7.82901E-09 -8.34482E-09 -8.01780E-09
  -8.41089E-09 -7.74028E-09 -7.66918E-09 -7.19640E-09 -6.67654E-09 -6.68134E-09 -6.80637E-09 -6.76544E-09 -7.20185E-09 -6.55177E-09
  -6.31930E-09 -5.44013E-09 -5.58038E-09 -5.47079E-09 -5.53385E-09 -5.58627E-09 -5.36491E-09 -6.32493E-09 -7.33521E-09 -8.89430E-09
  -9.68575E-09 -9.18380E-09 -9.23380E-09 -8.26009E-09 -7.61239E-09 -7.24888E-09 -7.30823E-09 -5.85864E-09 -5.95872E-09 -5.49546E-09
  -5.04526E-09 -4.39241E-09 -3.59070E-09 -4.26346E-09 -7.21762E-09 -9.74675E-09 -1.26330E-08 -1.34379E-08 -1.23457E-08 -1.15342E-08
  -1.16217E-08 -1.04113E-08 -1.10283E-08 -9.58707E-09 -9.58614E-09 -9.45146E-09 -9.48152E-09 -8.76281E-09 -8.89350E-09 -8.51419E-09
  -8.11027E-09 -7.54854E-09 -7.13458E-09 -7.05234E-09 -6.63773E-09 -6.60034E-09 -6.11236E-09 -6.75296E-09 -6.77170E-09 -5.93841E-09
  -6.03956E-09 -6.01552E-09 -6.15110E-09 -6.10500E-09 -4.84654E-09 -4.87367E-09 -3.95035E-09 -3.53615E-09 -4.15513E-09 -3.71517E-09
  -4.28671E-09 -3.96541E-09 -4.01758E-09 -4.06011E-09 -4.48287E-09 -4.03605E-09 -4.38452E-09 -3.80654E-09 -3.47827E-09 -2.92243E-09
  -2.14100E-09 -1.61155E-09 -1.99166E-09 -1.65445E-09 -2.22183E-09 -2.02924E-09 -1.92579E-09 -1.90017E-09 -1.97047E-09 -1.95811E-09
  -2.39910E-09 -2.04891E-09 -1.30498E-09 -1.92733E-09 -2.60866E-09 -3.52412E-09 -4.82267E-09 -4.67481E-09 -4.52673E-09 -4.19936E-09
  -5.23750E-09 -5.80262E-09 -6.04524E-09 -6.33774E-09 -5.73633E-09 -5.49011E-09 -5.95768E-09 -5.81054E-09 -5.18403E-09 -4.96869E-09
  -5.29629E-09 -5.09028E-09 -5.35122E-09 -4.95240E-09 -5.51857E-09 -5.05648E-09 -5.44169E-09 -5.71163E-09 -5.98580E-09 -5.16368E-09
  -5.32831E-09 -5.90795E-09 -6.27045E-09 -5.91525E-09 -7.52864E-09 -9.87693E-09 -1.36922E-08 -1.58098E-08 -1.47820E-08 -1.23562E-08
  -1.08839E-08 -9.15407E-09 -8.29348E-09 -7.51031E-09 -5.63104E-09 -5.16477E-09 -4.04637E-09 -2.84457E-09 -1.72722E-09 -5.09524E-10
   6.40227E-10  1.72232E-09  3.95840E-09  5.76521E-09  7.21595E-09  8.27495E-09  1.05253E-08  1.24506E-08  1.38700E-08  1.56040E-08
   1.74490E-08  1.84665E-08  1.91835E-08  2.00647E-08  2.01114E-08  1.98461E-08  1.83866E-08  1.78407E-08  1.60646E-08  1.43308E-08
   1.17065E-08  9.26739E-09  7.24200E-09  4.74970E-09  2.75231E-09  1.51739E-09  1.23954E-10  2.63560E-11 -8.07849E-10 -7.43058E-10
  -6.63959E-10 -1.97569E-10 -5.98183E-11  7.91434E-10  1.14430E-09  1.31400E-09  7.63490E-10  1.08508E-09  6.81573E-10  1.01341E-09
   6.69114E-10  1.46310E-09  6.27805E-10  1.50444E-09  1.01899E-09  1.21013E-09  1.33969E-09  1.12938E-09  1.07608E-09  1.46256E-09
   8.13782E-10  6.70205E-10  7.84799E-10  1.29006E-09  6.10256E-10  1.29284E-09  7.09341E-10  1.16064E-09  1.24913E-09  9.22887E-10
   3.46846E-10  8.04258E-10  5.88572E-10  6.79457E-10  7.74105E-10  1.17294E-09  4.53245E-10  7.69081E-10  7.64447E-10  1.49550E-10
  -4.17333E-11 -1.21618E-10  2.81051E-10  4.38117E-10  9.18150E-10  1.14937E-09  8.33755E-10  8.41326E-10  1.42955E-09  1.22869E-09
   1.59878E-09  7.84975E-10  4.21328E-10  5.22554E-10  1.61460E-10 -2.93261E-10 -2.80069E-10 -2.35419E-10 -6.01885E-10 -6.20646E-10
  -5.79008E-10 -9.12880E-11  1.92979E-10  2.04140E-10  5.36323E-10  2.85653E-10  4.64964E-10  6.86261E-10  9.44443E-10  1.33364E-09
   8.85911E-10  8.46251E-10  8.28925E-10  8.41088E-10  6.06965E-10  6.97949E-10  6.31563E-10  8.91188E-10  5.63483E-10  1.01535E-10
   5.39656E-10  5.41564E-10  2.42925E-10  7.72571E-10  2.61736E-10  5.96497E-10  1.40981E-10  2.51510E-10  1.73926E-10  1.44288E-10
   6.07027E-10 -9.34660E-11  2.74470E-10  2.50698E-10 -1.15371E-10 -6.45859E-11 -2.99127E-10  8.95749E-11 -1.55548E-11 -4.07877E-12
  -4.00981E-10 -2.76562E-10 -6.17112E-10 -2.49201E-10  8.21027E-11 -1.59576E-10 -3.03590E-10 -1.91041E-10 -6.76326E-11 -5.73746E-10
  -1.40804E-10 -8.49857E-11 -3.96836E-10 -3.30803E-10 -4.18231E-10 -4.56937E-11 -4.14920E-10 -4.29399E-10 -4.01770E-10 -2.00280E-10
  -2.20205E-10 -1.86935E-10 -8.62853E-10  2.79297E-10 -5.45169E-10 -4.51428E-10 -3.16052E-10 -4.88456E-10 -4.99697E-10 -5.83898E-10
  -7.25165E-10 -4.05196E-10 -4.52962E-10
 NY points of the fit to the data follow
  -2.02320E-09 -2.02178E-09 -2.01347E-09 -2.02881E-09 -2.07349E-09 -2.06655E-09 -2.04151E-09 -2.05921E-09 -2.05230E-09 -1.98108E-09
  -1.93957E-09 -2.07510E-09 -2.46627E-09 -3.09871E-09 -3.89605E-09 -4.74219E-09 -5.51000E-09 -6.06989E-09 -6.33934E-09 -6.39292E-09
  -6.37873E-09 -6.35002E-09 -6.27224E-09 -6.16238E-09 -6.05452E-09 -5.97093E-09 -5.93654E-09 -5.97821E-09 -6.10807E-09 -6.31283E-09
  -6.55630E-09 -6.79148E-09 -6.98522E-09 -7.12887E-09 -7.22144E-09 -7.26951E-09 -7.29873E-09 -7.32793E-09 -7.36128E-09 -7.39723E-09
  -7.43409E-09 -7.47126E-09 -7.50872E-09 -7.54624E-09 -7.58363E-09 -7.62064E-09 -7.65713E-09 -7.69287E-09 -7.72779E-09 -7.76178E-09
  -7.79469E-09 -7.82652E-09 -7.85711E-09 -7.88647E-09 -7.91456E-09 -7.94125E-09 -7.96658E-09 -7.99056E-09 -8.01298E-09 -8.03401E-09
  -8.05357E-09 -8.07159E-09 -8.08814E-09 -8.10314E-09 -8.11667E-09 -8.12862E-09 -8.13906E-09 -8.14793E-09 -8.15527E-09 -8.16109E-09
  -8.16535E-09 -8.16807E-09 -8.16930E-09 -8.16896E-09 -8.16713E-09 -8.16377E-09 -8.15889E-09 -8.15250E-09 -8.14460E-09 -8.13520E-09
  -8.12428E-09 -8.11187E-09 -8.09796E-09 -8.08256E-09 -8.06569E-09 -8.04735E-09 -8.02752E-09 -8.00624E-09 -7.98351E-09 -7.95933E-09
  -7.93370E-09 -7.90666E-09 -7.87817E-09 -7.84830E-09 -7.81701E-09 -7.78430E-09 -7.75023E-09 -7.71478E-09 -7.67796E-09 -7.63978E-09
  -7.60025E-09 -7.55938E-09 -7.51719E-09 -7.47370E-09 -7.42888E-09 -7.38277E-09 -7.33537E-09 -7.28673E-09 -7.23682E-09 -7.18562E-09
  -7.13324E-09 -7.07961E-09 -7.02475E-09 -6.96869E-09 -6.91145E-09 -6.85303E-09 -6.79347E-09 -6.73275E-09 -6.67087E-09 -6.60793E-09
  -6.54380E-09 -6.47863E-09 -6.41235E-09 -6.34502E-09 -6.27664E-09 -6.20720E-09 -6.13671E-09 -6.06526E-09 -5.99279E-09 -5.91934E-09
  -5.84493E-09 -5.76955E-09 -5.69326E-09 -5.61605E-09 -5.53793E-09 -5.45888E-09 -5.37904E-09 -5.29830E-09 -5.21674E-09 -5.13432E-09
  -5.05113E-09 -4.96715E-09 -4.88242E-09 -4.79690E-09 -4.71067E-09 -4.62373E-09 -4.53610E-09 -4.44782E-09 -4.35893E-09 -4.26946E-09
  -4.17945E-09 -4.08896E-09 -3.99800E-09 -3.90662E-09 -3.81487E-09 -3.72278E-09 -3.63039E-09 -3.53775E-09 -3.44489E-09 -3.35185E-09
  -3.25864E-09 -3.16530E-09 -3.07183E-09 -2.97826E-09 -2.88472E-09 -2.79231E-09 -2.71086E-09 -2.65724E-09 -2.48125E-09 -2.12490E-09
  -1.62421E-09 -1.07776E-09 -6.17643E-10 -3.65092E-10 -3.77327E-10 -6.08187E-10 -9.28552E-10 -1.18648E-09 -1.29239E-09 -1.27770E-09
  -1.22572E-09 -1.15930E-09 -1.08579E-09 -1.00843E-09 -9.28834E-10 -8.47957E-10 -7.66401E-10 -6.84598E-10 -6.02743E-10 -5.21082E-10
  -4.39804E-10 -3.58965E-10 -2.78703E-10 -1.99081E-10 -1.20217E-10 -4.21274E-11  3.51515E-11  1.11498E-10  1.86902E-10  2.61354E-10
   3.34788E-10  4.07168E-10  4.78450E-10  5.48619E-10  6.17663E-10  6.85501E-10  7.52145E-10  8.17566E-10  8.81751E-10  9.44612E-10
   1.00622E-09  1.06648E-09  1.12540E-09  1.18296E-09  1.23916E-09  1.29393E-09  1.34728E-09  1.39923E-09  1.44970E-09  1.49874E-09
   1.54632E-09  1.59248E-09  1.63720E-09  1.68050E-09  1.72237E-09  1.76285E-09  1.80191E-09  1.83958E-09  1.87586E-09  1.91075E-09
   1.94428E-09  1.97644E-09  2.00725E-09  2.03671E-09  2.06483E-09  2.09162E-09  2.11710E-09  2.14126E-09  2.16413E-09  2.18570E-09
   2.20599E-09  2.22502E-09  2.24278E-09  2.25929E-09  2.27456E-09  2.28860E-09  2.30142E-09  2.31303E-09  2.32344E-09  2.33267E-09
   2.34072E-09  2.34760E-09  2.35333E-09  2.35791E-09  2.36135E-09  2.36368E-09  2.36489E-09  2.36499E-09  2.36401E-09  2.36194E-09
   2.35880E-09  2.35461E-09  2.34936E-09  2.34308E-09  2.33577E-09  2.32744E-09  2.31810E-09  2.30776E-09  2.29644E-09  2.28415E-09
   2.27088E-09  2.25665E-09  2.24149E-09  2.22537E-09  2.20834E-09  2.19038E-09  2.17152E-09  2.15175E-09  2.13110E-09  2.10955E-09
   2.08714E-09  2.06386E-09  2.03973E-09  2.01475E-09  1.98892E-09  1.96227E-09  1.93479E-09  1.90649E-09  1.87738E-09  1.84747E-09
   1.81676E-09  1.78527E-09  1.75298E-09  1.71992E-09  1.68608E-09  1.65147E-09  1.61608E-09  1.57994E-09  1.54303E-09  1.50537E-09
   1.46696E-09  1.42780E-09  1.38791E-09  1.34727E-09  1.30591E-09  1.26382E-09  1.22100E-09  1.17748E-09  1.13324E-09  1.08829E-09
   1.04265E-09  9.96305E-10  9.49274E-10  9.01559E-10  8.53165E-10  8.04097E-10  7.54361E-10  7.03962E-10  6.52907E-10  6.01201E-10
   5.48849E-10  4.95858E-10  4.42232E-10  3.87979E-10  3.33104E-10  2.77612E-10  2.21511E-10  1.64805E-10  1.07501E-10  4.96046E-11
  -8.87738E-12 -6.79392E-11 -1.27574E-10 -1.87777E-10 -2.48541E-10 -3.09859E-10 -3.71727E-10 -4.34136E-10 -4.97081E-10 -5.60555E-10
  -6.24552E-10 -6.89065E-10 -7.54089E-10 -8.19616E-10 -8.85639E-10 -9.52154E-10 -1.01915E-09 -1.08663E-09 -1.15457E-09 -1.22298E-09
  -1.29185E-09 -1.36116E-09 -1.43092E-09 -1.50112E-09 -1.57175E-09 -1.64280E-09 -1.71426E-09 -1.78614E-09 -1.85842E-09 -1.93109E-09
  -2.00415E-09 -2.07760E-09 -2.15142E-09
 NY background values follow
    -2.662E-09   -2.806E-09   -2.949E-09   -3.090E-09   -3.229E-09   -3.366E-09   -3.501E-09   -3.634E-09   -3.765E-09   -3.894E-09
    -4.021E-09   -4.147E-09   -4.270E-09   -4.392E-09   -4.511E-09   -4.628E-09   -4.744E-09   -4.857E-09   -4.969E-09   -5.078E-09
    -5.186E-09   -5.291E-09   -5.395E-09   -5.496E-09   -5.595E-09   -5.693E-09   -5.788E-09   -5.881E-09   -5.973E-09   -6.062E-09
    -6.149E-09   -6.234E-09   -6.317E-09   -6.398E-09   -6.478E-09   -6.555E-09   -6.630E-09   -6.703E-09   -6.774E-09   -6.843E-09
    -6.910E-09   -6.975E-09   -7.038E-09   -7.099E-09   -7.158E-09   -7.215E-09   -7.270E-09   -7.323E-09   -7.374E-09   -7.423E-09
    -7.471E-09   -7.516E-09   -7.559E-09   -7.601E-09   -7.640E-09   -7.678E-09   -7.713E-09   -7.747E-09   -7.779E-09   -7.809E-09
    -7.837E-09   -7.864E-09   -7.888E-09   -7.911E-09   -7.932E-09   -7.951E-09   -7.968E-09   -7.983E-09   -7.997E-09   -8.009E-09
    -8.019E-09   -8.028E-09   -8.034E-09   -8.040E-09   -8.043E-09   -8.045E-09   -8.045E-09   -8.043E-09   -8.040E-09   -8.035E-09
    -8.028E-09   -8.020E-09   -8.011E-09   -7.999E-09   -7.986E-09   -7.972E-09   -7.956E-09   -7.938E-09   -7.919E-09   -7.898E-09
    -7.876E-09   -7.852E-09   -7.827E-09   -7.801E-09   -7.772E-09   -7.743E-09   -7.712E-09   -7.679E-09   -7.645E-09   -7.610E-09
    -7.573E-09   -7.535E-09   -7.495E-09   -7.454E-09   -7.412E-09   -7.368E-09   -7.323E-09   -7.277E-09   -7.229E-09   -7.180E-09
    -7.130E-09   -7.079E-09   -7.026E-09   -6.972E-09   -6.917E-09   -6.860E-09   -6.803E-09   -6.744E-09   -6.684E-09   -6.623E-09
    -6.560E-09   -6.497E-09   -6.432E-09   -6.366E-09   -6.300E-09   -6.232E-09   -6.163E-09   -6.093E-09   -6.022E-09   -5.950E-09
    -5.877E-09   -5.803E-09   -5.728E-09   -5.652E-09   -5.575E-09   -5.497E-09   -5.418E-09   -5.339E-09   -5.258E-09   -5.177E-09
    -5.095E-09   -5.012E-09   -4.928E-09   -4.843E-09   -4.758E-09   -4.671E-09   -4.584E-09   -4.497E-09   -4.409E-09   -4.320E-09
    -4.230E-09   -4.140E-09   -4.049E-09   -3.958E-09   -3.867E-09   -3.775E-09   -3.682E-09   -3.590E-09   -3.497E-09   -3.403E-09
    -3.310E-09   -3.216E-09   -3.122E-09   -3.028E-09   -2.934E-09   -2.840E-09   -2.746E-09   -2.652E-09   -2.558E-09   -2.464E-09
    -2.370E-09   -2.277E-09   -2.183E-09   -2.090E-09   -1.997E-09   -1.905E-09   -1.812E-09   -1.721E-09   -1.629E-09   -1.538E-09
    -1.448E-09   -1.358E-09   -1.268E-09   -1.179E-09   -1.091E-09   -1.004E-09   -9.168E-10   -8.306E-10   -7.452E-10   -6.606E-10
    -5.768E-10   -4.938E-10   -4.117E-10   -3.305E-10   -2.502E-10   -1.709E-10   -9.251E-11   -1.520E-11    6.108E-11    1.363E-10
     2.105E-10    2.835E-10    3.553E-10    4.261E-10    4.956E-10    5.639E-10    6.310E-10    6.968E-10    7.614E-10    8.246E-10
     8.865E-10    9.471E-10    1.006E-09    1.064E-09    1.121E-09    1.176E-09    1.229E-09    1.282E-09    1.332E-09    1.382E-09
     1.430E-09    1.476E-09    1.521E-09    1.564E-09    1.607E-09    1.647E-09    1.687E-09    1.725E-09    1.761E-09    1.796E-09
     1.830E-09    1.863E-09    1.894E-09    1.923E-09    1.952E-09    1.979E-09    2.005E-09    2.029E-09    2.052E-09    2.074E-09
     2.095E-09    2.114E-09    2.132E-09    2.149E-09    2.165E-09    2.179E-09    2.192E-09    2.204E-09    2.215E-09    2.225E-09
     2.233E-09    2.241E-09    2.247E-09    2.252E-09    2.255E-09    2.258E-09    2.260E-09    2.260E-09    2.260E-09    2.258E-09
     2.256E-09    2.252E-09    2.247E-09    2.241E-09    2.234E-09    2.227E-09    2.218E-09    2.208E-09    2.197E-09    2.185E-09
     2.172E-09    2.159E-09    2.144E-09    2.128E-09    2.112E-09    2.095E-09    2.076E-09    2.057E-09    2.037E-09    2.016E-09
     1.994E-09    1.971E-09    1.948E-09    1.923E-09    1.898E-09    1.872E-09    1.845E-09    1.818E-09    1.789E-09    1.760E-09
     1.730E-09    1.699E-09    1.667E-09    1.635E-09    1.602E-09    1.568E-09    1.533E-09    1.497E-09    1.461E-09    1.424E-09
     1.386E-09    1.348E-09    1.309E-09    1.269E-09    1.228E-09    1.187E-09    1.144E-09    1.102E-09    1.058E-09    1.014E-09
     9.688E-10    9.232E-10    8.768E-10    8.298E-10    7.822E-10    7.338E-10    6.848E-10    6.351E-10    5.848E-10    5.338E-10
     4.822E-10    4.299E-10    3.770E-10    3.235E-10    2.694E-10    2.146E-10    1.593E-10    1.033E-10    4.674E-11   -1.041E-11
    -6.814E-11   -1.265E-10   -1.853E-10   -2.448E-10   -3.048E-10   -3.653E-10   -4.265E-10   -4.881E-10   -5.503E-10   -6.130E-10
    -6.762E-10   -7.400E-10   -8.042E-10   -8.690E-10   -9.342E-10   -1.000E-09   -1.066E-09   -1.133E-09   -1.200E-09   -1.268E-09
    -1.336E-09   -1.404E-09   -1.473E-09   -1.543E-09   -1.613E-09   -1.683E-09   -1.754E-09   -1.825E-09   -1.896E-09   -1.968E-09
    -2.040E-09   -2.113E-09   -2.186E-09
 Ins      Conc. = 5.20E-10
  -2.04808E-09 -2.04890E-09 -2.04336E-09 -2.06269E-09 -2.11179E-09 -2.10892E-09 -2.08659E-09 -2.10523E-09 -2.09678E-09 -2.02146E-09
  -1.97413E-09 -2.10343E-09 -2.48932E-09 -3.11832E-09 -3.91443E-09 -4.76175E-09 -5.53307E-09 -6.09804E-09 -6.37335E-09 -6.43319E-09
  -6.42597E-09 -6.40531E-09 -6.33690E-09 -6.23868E-09 -6.16543E-09 -6.13144E-09 -6.14096E-09 -6.20063E-09 -6.30924E-09 -6.45250E-09
  -6.60810E-09 -6.75468E-09 -6.88464E-09 -7.00305E-09 -7.10364E-09 -7.17206E-09 -7.21716E-09 -7.25777E-09 -7.29969E-09 -7.34233E-09
  -7.38460E-09 -7.42623E-09 -7.46744E-09 -7.50815E-09 -7.54831E-09 -7.58775E-09 -7.62637E-09 -7.66402E-09 -7.70065E-09 -7.73618E-09
  -7.77050E-09 -7.80360E-09 -7.83536E-09 -7.86580E-09 -7.89489E-09 -7.92251E-09 -7.94870E-09 -7.97348E-09 -7.99666E-09 -8.01839E-09
  -8.03861E-09 -8.05726E-09 -8.07440E-09 -8.08996E-09 -8.10402E-09 -8.11648E-09 -8.12739E-09 -8.13672E-09 -8.14449E-09 -8.15074E-09
  -8.15539E-09 -8.15849E-09 -8.16009E-09 -8.16010E-09 -8.15860E-09 -8.15557E-09 -8.15100E-09 -8.14492E-09 -8.13731E-09 -8.12819E-09
  -8.11754E-09 -8.10539E-09 -8.09174E-09 -8.07658E-09 -8.05995E-09 -8.04183E-09 -8.02223E-09 -8.00117E-09 -7.97865E-09 -7.95468E-09
  -7.92924E-09 -7.90240E-09 -7.87409E-09 -7.84441E-09 -7.81330E-09 -7.78077E-09 -7.74686E-09 -7.71157E-09 -7.67491E-09 -7.63689E-09
  -7.59751E-09 -7.55680E-09 -7.51475E-09 -7.47140E-09 -7.42672E-09 -7.38075E-09 -7.33348E-09 -7.28497E-09 -7.23519E-09 -7.18411E-09
  -7.13186E-09 -7.07834E-09 -7.02360E-09 -6.96765E-09 -6.91052E-09 -6.85221E-09 -6.79275E-09 -6.73214E-09 -6.67036E-09 -6.60751E-09
  -6.54349E-09 -6.47841E-09 -6.41222E-09 -6.34498E-09 -6.27669E-09 -6.20734E-09 -6.13694E-09 -6.06557E-09 -5.99319E-09 -5.91982E-09
  -5.84549E-09 -5.77018E-09 -5.69396E-09 -5.61682E-09 -5.53878E-09 -5.45980E-09 -5.38003E-09 -5.29935E-09 -5.21786E-09 -5.13550E-09
  -5.05237E-09 -4.96846E-09 -4.88378E-09 -4.79832E-09 -4.71214E-09 -4.62526E-09 -4.53768E-09 -4.44945E-09 -4.36060E-09 -4.27118E-09
  -4.18122E-09 -4.09077E-09 -3.99984E-09 -3.90851E-09 -3.81679E-09 -3.72474E-09 -3.63239E-09 -3.53977E-09 -3.44694E-09 -3.35393E-09
  -3.26073E-09 -3.16742E-09 -3.07397E-09 -2.98042E-09 -2.88690E-09 -2.79449E-09 -2.71283E-09 -2.65843E-09 -2.48400E-09 -2.13269E-09
  -1.63984E-09 -1.10214E-09 -6.49145E-10 -3.99741E-10 -4.10027E-10 -6.34708E-10 -9.47143E-10 -1.19833E-09 -1.30042E-09 -1.28427E-09
  -1.23156E-09 -1.16471E-09 -1.09090E-09 -1.01334E-09 -9.33598E-10 -8.52609E-10 -7.70967E-10 -6.89098E-10 -6.07190E-10 -5.25487E-10
  -4.44176E-10 -3.63310E-10 -2.83026E-10 -2.03386E-10 -1.24509E-10 -4.64086E-11  3.08788E-11  1.07232E-10  1.82641E-10  2.57097E-10
   3.30533E-10  4.02915E-10  4.74198E-10  5.44367E-10  6.13412E-10  6.81249E-10  7.47892E-10  8.13313E-10  8.77497E-10  9.40358E-10
   1.00197E-09  1.06223E-09  1.12114E-09  1.17870E-09  1.23490E-09  1.28967E-09  1.34302E-09  1.39497E-09  1.44544E-09  1.49448E-09
   1.54206E-09  1.58822E-09  1.63294E-09  1.67625E-09  1.71812E-09  1.75860E-09  1.79766E-09  1.83533E-09  1.87162E-09  1.90652E-09
   1.94005E-09  1.97221E-09  2.00302E-09  2.03249E-09  2.06062E-09  2.08742E-09  2.11290E-09  2.13707E-09  2.15994E-09  2.18152E-09
   2.20181E-09  2.22085E-09  2.23862E-09  2.25514E-09  2.27041E-09  2.28446E-09  2.29729E-09  2.30892E-09  2.31934E-09  2.32858E-09
   2.33664E-09  2.34353E-09  2.34928E-09  2.35386E-09  2.35732E-09  2.35966E-09  2.36088E-09  2.36100E-09  2.36003E-09  2.35797E-09
   2.35485E-09  2.35067E-09  2.34544E-09  2.33917E-09  2.33187E-09  2.32356E-09  2.31424E-09  2.30392E-09  2.29262E-09  2.28034E-09
   2.26709E-09  2.25288E-09  2.23773E-09  2.22164E-09  2.20462E-09  2.18668E-09  2.16784E-09  2.14809E-09  2.12745E-09  2.10593E-09
   2.08354E-09  2.06028E-09  2.03617E-09  2.01121E-09  1.98541E-09  1.95877E-09  1.93132E-09  1.90304E-09  1.87395E-09  1.84406E-09
   1.81338E-09  1.78190E-09  1.74965E-09  1.71661E-09  1.68279E-09  1.64820E-09  1.61284E-09  1.57672E-09  1.53984E-09  1.50220E-09
   1.46382E-09  1.42468E-09  1.38481E-09  1.34420E-09  1.30286E-09  1.26080E-09  1.21801E-09  1.17451E-09  1.13030E-09  1.08538E-09
   1.03976E-09  9.93446E-10  9.46443E-10  8.98754E-10  8.50387E-10  8.01347E-10  7.51639E-10  7.01268E-10  6.50241E-10  5.98563E-10
   5.46239E-10  4.93276E-10  4.39679E-10  3.85455E-10  3.30608E-10  2.75145E-10  2.19072E-10  1.62396E-10  1.05121E-10  4.72539E-11
  -1.11988E-11 -7.02311E-11 -1.29837E-10 -1.90010E-10 -2.50744E-10 -3.12033E-10 -3.73870E-10 -4.36249E-10 -4.99164E-10 -5.62608E-10
  -6.26575E-10 -6.91058E-10 -7.56052E-10 -8.21549E-10 -8.87542E-10 -9.54026E-10 -1.02099E-09 -1.08844E-09 -1.15635E-09 -1.22473E-09
  -1.29357E-09 -1.36285E-09 -1.43258E-09 -1.50275E-09 -1.57334E-09 -1.64436E-09 -1.71580E-09 -1.78764E-09 -1.85989E-09 -1.93254E-09
  -2.00557E-09 -2.07898E-09 -2.15277E-09
 PCh      Conc. = 1.02E-11
  -2.63689E-09 -2.77918E-09 -2.91907E-09 -3.05585E-09 -3.19030E-09 -3.32321E-09 -3.45555E-09 -3.58772E-09 -3.72046E-09 -3.85380E-09
  -3.98693E-09 -4.11849E-09 -4.24715E-09 -4.37199E-09 -4.49264E-09 -4.60890E-09 -4.72083E-09 -4.82920E-09 -4.93480E-09 -5.03799E-09
  -5.13846E-09 -5.23585E-09 -5.32987E-09 -5.41963E-09 -5.48439E-09 -5.53213E-09 -5.58353E-09 -5.65884E-09 -5.77136E-09 -5.92210E-09
  -6.09718E-09 -6.27097E-09 -6.41791E-09 -6.52427E-09 -6.59535E-09 -6.65212E-09 -6.71130E-09 -6.77293E-09 -6.83541E-09 -6.89772E-09
  -6.95934E-09 -7.01988E-09 -7.07916E-09 -7.13695E-09 -7.19322E-09 -7.24783E-09 -7.30077E-09 -7.35194E-09 -7.40135E-09 -7.44898E-09
  -7.49479E-09 -7.53880E-09 -7.58094E-09 -7.62127E-09 -7.65979E-09 -7.69642E-09 -7.73124E-09 -7.76427E-09 -7.79537E-09 -7.82470E-09
  -7.85223E-09 -7.87790E-09 -7.90181E-09 -7.92389E-09 -7.94423E-09 -7.96276E-09 -7.97954E-09 -7.99453E-09 -8.00779E-09 -8.01935E-09
  -8.02914E-09 -8.03723E-09 -8.04367E-09 -8.04838E-09 -8.05144E-09 -8.05284E-09 -8.05257E-09 -8.05068E-09 -8.04714E-09 -8.04199E-09
  -8.03520E-09 -8.02682E-09 -8.01683E-09 -8.00525E-09 -7.99211E-09 -7.97740E-09 -7.96111E-09 -7.94330E-09 -7.92394E-09 -7.90306E-09
  -7.88064E-09 -7.85675E-09 -7.83133E-09 -7.80447E-09 -7.77611E-09 -7.74627E-09 -7.71501E-09 -7.68230E-09 -7.64816E-09 -7.61261E-09
  -7.57565E-09 -7.53730E-09 -7.49757E-09 -7.45648E-09 -7.41402E-09 -7.37022E-09 -7.32508E-09 -7.27865E-09 -7.23091E-09 -7.18182E-09
  -7.13152E-09 -7.07991E-09 -7.02705E-09 -6.97293E-09 -6.91759E-09 -6.86104E-09 -6.80329E-09 -6.74436E-09 -6.68422E-09 -6.62298E-09
  -6.56052E-09 -6.49698E-09 -6.43229E-09 -6.36651E-09 -6.29965E-09 -6.23169E-09 -6.16264E-09 -6.09260E-09 -6.02150E-09 -5.94938E-09
  -5.87627E-09 -5.80214E-09 -5.72708E-09 -5.65106E-09 -5.57409E-09 -5.49615E-09 -5.41739E-09 -5.33768E-09 -5.25712E-09 -5.17566E-09
  -5.09338E-09 -5.01028E-09 -4.92637E-09 -4.84164E-09 -4.75615E-09 -4.66991E-09 -4.58292E-09 -4.49524E-09 -4.40688E-09 -4.31789E-09
  -4.22831E-09 -4.13818E-09 -4.04751E-09 -3.95637E-09 -3.86476E-09 -3.77275E-09 -3.68036E-09 -3.58763E-09 -3.49461E-09 -3.40132E-09
  -3.30778E-09 -3.21408E-09 -3.12020E-09 -3.02621E-09 -2.93214E-09 -2.83804E-09 -2.74414E-09 -2.65082E-09 -2.55522E-09 -2.45627E-09
  -2.35464E-09 -2.25227E-09 -2.15174E-09 -2.05542E-09 -1.96447E-09 -1.87807E-09 -1.79377E-09 -1.70868E-09 -1.62107E-09 -1.53154E-09
  -1.44179E-09 -1.35227E-09 -1.26312E-09 -1.17450E-09 -1.08644E-09 -9.98985E-10 -9.12192E-10 -8.26139E-10 -7.40777E-10 -6.56183E-10
  -5.72425E-10 -4.89466E-10 -4.07377E-10 -3.26168E-10 -2.45916E-10 -1.66604E-10 -8.82421E-11 -1.09303E-11  6.53385E-11  1.40569E-10
   2.14708E-10  2.87731E-10  3.59599E-10  4.30308E-10  4.99851E-10  5.68151E-10  6.35225E-10  7.01051E-10  7.65616E-10  8.28838E-10
   8.90790E-10  9.51380E-10  1.01061E-09  1.06847E-09  1.12497E-09  1.18002E-09  1.23366E-09  1.28588E-09  1.33662E-09  1.38592E-09
   1.43378E-09  1.48020E-09  1.52518E-09  1.56874E-09  1.61088E-09  1.65162E-09  1.69095E-09  1.72888E-09  1.76543E-09  1.80060E-09
