 LCModel (Version 6.3-1R) Copyright: S.W. Provencher.          Ref.: Magn. Reson. Med. 30:672-679 (1993).                
 onepulse 22x23_ftSpec_smooth_lcm
 26 lines in following concentration table = NCONC+1
    Conc.  %SD   /Cr    Metabolite                                         
 1.07E-10 202%   0.000 Ala                                                 
 6.97E-10  63%   0.000 Asp                                                 
    0.000 999%   0.000 Cr                                                  
 3.02E-09  11%   0.000 GABA                                                
 2.02E-09  17%   0.000 Glc                                                 
    0.000 999%   0.000 Gln                                                 
    0.000 999%   0.000 Glu                                                 
    0.000 999%   0.000 Glyc                                                
    0.000 999%   0.000 GPC                                                 
 9.29E-11 250%   0.000 GSH                                                 
 2.67E-10  95%   0.000 Ins                                                 
    0.000 999%   0.000 Lac                                                 
    0.000 999%   0.000 NAAG                                                
 1.33E-09  14%   0.000 NAA                                                 
 1.27E-10  49%   0.000 PCh                                                 
    0.000 999%   0.000 PCr                                                 
    0.000 999%   0.000 PE                                                  
    0.000 999%   0.000 Scyllo                                              
    0.000 999%   0.000 Ser                                                 
    0.000 999%   0.000 Tau                                                 
 1.27E-10  49%   0.000 GPC+PCh                                             
 1.33E-09  14%   0.000 NAA+NAAG                                            
 2.67E-10  95%   0.000 Ins+Glyc                                            
    0.000 999%   0.000 Cr+PCr                                              
    0.000 999%   0.000 Glu+Gln                                             
   6 lines in following misc. output table
  FWHM = 0.078 ppm    S/N =   4                                            
  Data shift = 0.335 ppm                                                   
  Ph:  52 deg      28.3 deg/ppm                                            
  alphaB,S = 1.6E-01,   7.7E+01                                            
   16 spline knots.   Ns = 5(1)                                            
  ( 9) 2 infls.   ( 5) 1 extrs.                                            
  363 points on ppm-axis = NY
      4.250000     4.238821     4.227641     4.216462     4.205282     4.194103     4.182923     4.171744     4.160564     4.149385
      4.138206     4.127026     4.115847     4.104667     4.093488     4.082308     4.071129     4.059949     4.048770     4.037591
      4.026411     4.015232     4.004052     3.992873     3.981693     3.970514     3.959334     3.948155     3.936975     3.925796
      3.914617     3.903437     3.892258     3.881078     3.869899     3.858719     3.847540     3.836360     3.825181     3.814002
      3.802822     3.791643     3.780463     3.769284     3.758104     3.746925     3.735745     3.724566     3.713387     3.702207
      3.691028     3.679848     3.668669     3.657489     3.646310     3.635130     3.623951     3.612772     3.601592     3.590413
      3.579233     3.568054     3.556874     3.545695     3.534515     3.523336     3.512156     3.500977     3.489798     3.478618
      3.467439     3.456259     3.445080     3.433900     3.422721     3.411541     3.400362     3.389183     3.378003     3.366824
      3.355644     3.344465     3.333285     3.322106     3.310926     3.299747     3.288568     3.277388     3.266209     3.255029
      3.243850     3.232670     3.221491     3.210311     3.199132     3.187953     3.176773     3.165594     3.154414     3.143235
      3.132055     3.120876     3.109696     3.098517     3.087337     3.076158     3.064979     3.053799     3.042620     3.031440
      3.020261     3.009081     2.997902     2.986722     2.975543     2.964364     2.953184     2.942005     2.930825     2.919646
      2.908466     2.897287     2.886107     2.874928     2.863749     2.852569     2.841390     2.830210     2.819031     2.807851
      2.796672     2.785492     2.774313     2.763134     2.751954     2.740775     2.729595     2.718416     2.707236     2.696057
      2.684877     2.673698     2.662519     2.651339     2.640160     2.628980     2.617801     2.606621     2.595442     2.584262
      2.573083     2.561903     2.550724     2.539545     2.528365     2.517186     2.506006     2.494827     2.483647     2.472468
      2.461288     2.450109     2.438930     2.427750     2.416571     2.405391     2.394212     2.383032     2.371853     2.360673
      2.349494     2.338315     2.327135     2.315956     2.304776     2.293597     2.282417     2.271238     2.260058     2.248879
      2.237700     2.226520     2.215341     2.204161     2.192982     2.181802     2.170623     2.159443     2.148264     2.137084
      2.125905     2.114726     2.103546     2.092367     2.081187     2.070008     2.058828     2.047649     2.036469     2.025290
      2.014111     2.002931     1.991752     1.980572     1.969393     1.958213     1.947034     1.935854     1.924675     1.913496
      1.902316     1.891137     1.879957     1.868778     1.857598     1.846419     1.835239     1.824060     1.812881     1.801701
      1.790522     1.779342     1.768163     1.756983     1.745804     1.734624     1.723445     1.712265     1.701086     1.689907
      1.678727     1.667548     1.656368     1.645189     1.634009     1.622830     1.611650     1.600471     1.589292     1.578112
      1.566933     1.555753     1.544574     1.533394     1.522215     1.511035     1.499856     1.488677     1.477497     1.466318
      1.455138     1.443959     1.432779     1.421600     1.410420     1.399241     1.388062     1.376882     1.365703     1.354523
      1.343344     1.332164     1.320985     1.309805     1.298626     1.287446     1.276267     1.265088     1.253908     1.242729
      1.231549     1.220370     1.209190     1.198011     1.186831     1.175652     1.164473     1.153293     1.142114     1.130934
      1.119755     1.108575     1.097396     1.086216     1.075037     1.063858     1.052678     1.041499     1.030319     1.019140
      1.007960     0.996781     0.985601     0.974422     0.963243     0.952063     0.940884     0.929704     0.918525     0.907345
      0.896166     0.884986     0.873807     0.862628     0.851448     0.840269     0.829089     0.817910     0.806730     0.795551
      0.784371     0.773192     0.762012     0.750833     0.739654     0.728474     0.717295     0.706115     0.694936     0.683756
      0.672577     0.661397     0.650218     0.639039     0.627859     0.616680     0.605500     0.594321     0.583141     0.571962
      0.560782     0.549603     0.538424     0.527244     0.516065     0.504885     0.493706     0.482526     0.471347     0.460167
      0.448988     0.437809     0.426629     0.415450     0.404270     0.393091     0.381911     0.370732     0.359552     0.348373
      0.337193     0.326014     0.314835     0.303655     0.292476     0.281296     0.270117     0.258937     0.247758     0.236578
      0.225399     0.214220     0.203040
 NY phased data points follow
   5.37493E-09  7.63613E-09  1.06294E-08  1.20826E-08  1.19525E-08  1.09281E-08  9.35057E-09  8.32103E-09  7.81939E-09  6.55443E-09
   7.17537E-09  6.58222E-09  7.33917E-09  7.60486E-09  7.91352E-09  8.13700E-09  9.03661E-09  9.49090E-09  9.95729E-09  8.82505E-09
   9.18269E-09  9.20649E-09  8.76053E-09  7.83244E-09  7.82517E-09  7.64472E-09  8.66361E-09  8.86873E-09  9.76033E-09  8.15780E-09
   7.55377E-09  7.36854E-09  8.02386E-09  8.53204E-09  1.11404E-08  1.18257E-08  1.11057E-08  1.00708E-08  9.14446E-09  7.29058E-09
   6.49415E-09  6.39544E-09  6.12078E-09  6.23881E-09  5.70674E-09  5.56309E-09  5.55150E-09  4.76476E-09  4.67908E-09  3.89458E-09
   3.71612E-09  4.15500E-09  4.05573E-09  4.47768E-09  4.88824E-09  4.10298E-09  3.74210E-09  3.15924E-09  3.04434E-09  3.32897E-09
   4.00211E-09  4.72626E-09  5.14120E-09  5.72391E-09  8.43802E-09  9.48517E-09  1.19957E-08  1.06236E-08  9.46635E-09  7.28494E-09
   6.35915E-09  5.31617E-09  5.12721E-09  3.45324E-09  3.84718E-09  3.80523E-09  2.85800E-09  2.86577E-09  3.43288E-09  4.22252E-09
   7.76838E-09  1.11459E-08  1.44694E-08  1.47665E-08  1.30765E-08  1.10320E-08  9.38341E-09  8.77327E-09  8.30514E-09  7.64447E-09
   7.72618E-09  6.56415E-09  6.33428E-09  6.33996E-09  5.23298E-09  5.00825E-09  4.57709E-09  3.95748E-09  4.03147E-09  3.52350E-09
   2.83112E-09  4.09340E-09  3.21571E-09  3.38658E-09  4.18626E-09  3.36161E-09  3.44043E-09  3.42629E-09  3.59296E-09  2.57798E-09
   2.85504E-09  1.99901E-09  1.74724E-09  1.27846E-09  2.09984E-09  3.10250E-09  2.83774E-09  2.93814E-09  3.06281E-09  3.37902E-09
   3.53172E-09  2.78607E-09  3.16093E-09  2.93084E-09  2.58821E-09  1.74454E-09  1.07592E-09  1.51437E-09  1.25265E-09  7.14768E-10
   1.97296E-09  2.00515E-09  2.03343E-09  1.98473E-09  2.29962E-09  2.53706E-09  2.32504E-09  1.63841E-09  1.80254E-09  1.28003E-09
   2.48049E-09  3.74462E-09  3.86599E-09  4.07914E-09  4.18059E-09  3.38211E-09  3.62727E-09  4.54024E-09  3.94261E-09  4.55627E-09
   4.44053E-09  3.82254E-09  3.84123E-09  4.26593E-09  4.03669E-09  3.72035E-09  3.43397E-09  4.34609E-09  4.01247E-09  4.12057E-09
   4.61308E-09  4.69228E-09  5.34617E-09  5.14738E-09  5.78535E-09  6.58332E-09  6.07735E-09  6.71776E-09  7.81019E-09  9.00291E-09
   1.13464E-08  1.39917E-08  1.68675E-08  1.90943E-08  1.71415E-08  1.35320E-08  1.04630E-08  8.37442E-09  6.75427E-09  6.34606E-09
   5.29813E-09  4.44010E-09  3.75525E-09  3.26668E-09  2.27034E-09  2.17018E-09  1.36748E-09  5.99048E-10  3.62645E-10 -8.98976E-10
  -8.98887E-10 -2.64633E-09 -2.80664E-09 -4.34759E-09 -5.00938E-09 -5.80248E-09 -6.84039E-09 -7.54721E-09 -9.13966E-09 -9.63590E-09
  -1.04871E-08 -1.14393E-08 -1.22364E-08 -1.25178E-08 -1.26628E-08 -1.25988E-08 -1.24784E-08 -1.20003E-08 -1.12339E-08 -1.02969E-08
  -9.27388E-09 -8.03972E-09 -6.94606E-09 -5.75308E-09 -4.07509E-09 -2.84899E-09 -2.17999E-09 -1.20157E-09 -7.46798E-10 -2.06244E-10
  -5.97268E-10 -5.50691E-10 -1.38971E-09 -1.27645E-09 -9.54076E-10 -1.56964E-09 -1.92533E-09 -1.61928E-09 -1.57090E-09 -7.99063E-10
  -1.07640E-09 -8.74674E-10 -1.33217E-09 -6.58655E-10 -1.83019E-09 -2.50395E-09 -1.43681E-09 -1.15543E-09 -1.77280E-09 -1.43991E-09
  -9.20794E-10 -7.84232E-10 -7.81521E-10 -9.04990E-10 -1.60472E-09 -1.02890E-09 -1.66210E-09 -1.89752E-09 -1.40019E-09 -1.37118E-09
  -1.13923E-09 -1.03525E-09 -6.30430E-10 -7.91963E-10 -9.43548E-10 -5.35370E-10 -8.18876E-10 -5.22150E-10 -8.16894E-10 -1.07463E-09
  -1.15629E-09 -2.03307E-09 -1.57532E-09 -2.04165E-09 -1.62805E-09 -1.80070E-09 -9.01380E-10 -1.39668E-09 -9.05784E-10  8.02489E-11
  -1.74420E-10 -7.58923E-10 -2.96625E-10 -2.61692E-10  2.85767E-12 -3.78371E-10 -3.49651E-10 -1.14372E-10 -7.47351E-10 -1.19523E-09
  -7.23421E-10 -1.31049E-09 -1.30084E-09 -1.36284E-09 -1.13321E-09 -8.92911E-10 -1.18123E-09 -1.97138E-09 -6.32777E-10 -1.31090E-09
  -9.73758E-10 -9.51294E-10 -1.09295E-09 -1.08890E-09 -8.56616E-10 -9.10627E-10 -9.50207E-10 -6.03811E-10 -9.37325E-10 -4.31390E-10
  -1.36302E-09 -6.09233E-10 -1.04467E-09 -5.93342E-10 -1.05716E-09 -2.03320E-10 -7.68323E-10 -8.07370E-10 -4.25157E-10 -9.70116E-10
  -6.41112E-10 -6.54197E-10 -2.21187E-10 -5.76158E-10 -3.89458E-10 -8.64851E-10 -8.51383E-10  9.25235E-12 -2.37298E-10 -2.47045E-10
  -9.07423E-10 -5.09640E-10 -7.26926E-10 -2.85532E-10 -7.24835E-10 -4.14425E-10 -2.67138E-10 -2.43633E-10 -1.82529E-10 -5.65440E-10
  -5.30528E-10 -2.70828E-10 -4.81777E-10 -6.06153E-10 -1.36435E-11  1.93841E-10 -5.97402E-10 -1.00736E-09 -3.77846E-10 -4.93880E-10
   1.80771E-10 -3.36926E-10 -4.63434E-10 -1.22119E-10 -1.59649E-10 -2.62001E-10 -4.73530E-10 -5.38483E-10 -1.78191E-10 -3.65207E-10
  -4.19105E-11 -4.29942E-10  8.18449E-11 -4.22954E-10 -4.77855E-10  1.33957E-10 -4.52896E-10 -3.72005E-10 -4.46411E-11 -3.87522E-10
   5.09123E-11 -1.91315E-10 -4.72705E-10
 NY points of the fit to the data follow
   8.21818E-09  8.86248E-09  9.43261E-09  9.83799E-09  9.93625E-09  9.66673E-09  9.08488E-09  8.35587E-09  7.73275E-09  7.19353E-09
   6.97169E-09  6.99463E-09  7.14283E-09  7.40459E-09  7.79575E-09  8.28628E-09  8.84868E-09  9.45469E-09  9.97904E-09  1.02946E-08
   1.03726E-08  1.00484E-08  9.32151E-09  8.51387E-09  7.79994E-09  7.28853E-09  7.18180E-09  7.56578E-09  8.15072E-09  8.67082E-09
   8.87757E-09  9.00749E-09  9.22418E-09  9.31546E-09  9.35799E-09  9.64276E-09  9.91040E-09  9.87596E-09  9.45858E-09  8.76878E-09
   7.99667E-09  7.10643E-09  5.96605E-09  5.12258E-09  4.64536E-09  4.19801E-09  3.92425E-09  3.91128E-09  4.03770E-09  4.18445E-09
   4.28581E-09  4.31149E-09  4.30098E-09  4.26560E-09  4.23680E-09  4.25815E-09  4.29780E-09  4.35150E-09  4.32743E-09  4.27611E-09
   4.38552E-09  4.80184E-09  5.34735E-09  6.00173E-09  6.98171E-09  7.87738E-09  8.49077E-09  8.93570E-09  9.17171E-09  9.05369E-09
   8.55695E-09  7.67425E-09  6.64300E-09  5.76604E-09  4.82774E-09  4.02694E-09  3.96980E-09  4.58032E-09  5.55809E-09  7.01685E-09
   8.74422E-09  1.05089E-08  1.21119E-08  1.29991E-08  1.28492E-08  1.19290E-08  1.05070E-08  8.81211E-09  7.26301E-09  6.64388E-09
   6.45900E-09  6.35305E-09  6.03533E-09  5.51665E-09  5.16303E-09  4.76659E-09  4.21563E-09  3.84292E-09  3.58543E-09  3.33990E-09
   3.19573E-09  3.12109E-09  3.09524E-09  3.12000E-09  3.16389E-09  3.20488E-09  3.22956E-09  3.23180E-09  3.20964E-09  3.15969E-09
   3.08491E-09  3.00861E-09  2.95808E-09  2.89697E-09  2.84419E-09  2.83373E-09  2.83729E-09  2.84683E-09  2.85949E-09  2.87388E-09
   2.88925E-09  2.90508E-09  2.92097E-09  2.93663E-09  2.95183E-09  2.96638E-09  2.98009E-09  2.99282E-09  3.00445E-09  3.01484E-09
   3.02386E-09  3.03140E-09  3.03736E-09  3.04162E-09  3.04408E-09  3.04466E-09  3.04324E-09  3.03975E-09  3.03409E-09  3.02619E-09
   3.01594E-09  3.00323E-09  2.98791E-09  2.96987E-09  2.94898E-09  2.92513E-09  2.89819E-09  2.86807E-09  2.83465E-09  2.79787E-09
   2.75766E-09  2.71397E-09  2.66681E-09  2.61620E-09  2.56225E-09  2.50512E-09  2.44513E-09  2.38277E-09  2.31882E-09  2.25455E-09
   2.19203E-09  2.13480E-09  2.08935E-09  2.06866E-09  2.10346E-09  2.28943E-09  3.05951E-09  4.76660E-09  7.17956E-09  1.00147E-08
   1.31132E-08  1.60445E-08  1.80800E-08  1.85163E-08  1.70955E-08  1.41178E-08  1.01709E-08  5.96938E-09  2.68741E-09  1.00113E-09
   2.78821E-10 -1.69280E-10 -5.07606E-10 -7.89480E-10 -1.03757E-09 -1.26313E-09 -1.47225E-09 -1.66845E-09 -1.85376E-09 -2.02941E-09
  -2.19609E-09 -2.35413E-09 -2.50365E-09 -2.64458E-09 -2.77679E-09 -2.90002E-09 -3.01413E-09 -3.11936E-09 -3.21604E-09 -3.30445E-09
  -3.38487E-09 -3.45754E-09 -3.52271E-09 -3.58060E-09 -3.63143E-09 -3.67542E-09 -3.71277E-09 -3.74370E-09 -3.76838E-09 -3.78703E-09
  -3.79984E-09 -3.80699E-09 -3.80867E-09 -3.80507E-09 -3.79638E-09 -3.78278E-09 -3.76445E-09 -3.74157E-09 -3.71433E-09 -3.68290E-09
  -3.64746E-09 -3.60820E-09 -3.56528E-09 -3.51889E-09 -3.46922E-09 -3.41648E-09 -3.36089E-09 -3.30265E-09 -3.24200E-09 -3.17914E-09
  -3.11428E-09 -3.04765E-09 -2.97946E-09 -2.90993E-09 -2.83925E-09 -2.76765E-09 -2.69535E-09 -2.62257E-09 -2.54948E-09 -2.47635E-09
  -2.40337E-09 -2.33074E-09 -2.25869E-09 -2.18743E-09 -2.11716E-09 -2.04811E-09 -1.98047E-09 -1.91448E-09 -1.85033E-09 -1.78826E-09
  -1.72844E-09 -1.67112E-09 -1.61637E-09 -1.56413E-09 -1.51432E-09 -1.46688E-09 -1.42172E-09 -1.37878E-09 -1.33796E-09 -1.29920E-09
  -1.26242E-09 -1.22755E-09 -1.19451E-09 -1.16323E-09 -1.13363E-09 -1.10563E-09 -1.07915E-09 -1.05414E-09 -1.03051E-09 -1.00817E-09
  -9.87060E-10 -9.67108E-10 -9.48223E-10 -9.30338E-10 -9.13389E-10 -8.97274E-10 -8.81945E-10 -8.67312E-10 -8.53306E-10 -8.39843E-10
  -8.26884E-10 -8.14409E-10 -8.02392E-10 -7.90811E-10 -7.79653E-10 -7.68889E-10 -7.58505E-10 -7.48472E-10 -7.38773E-10 -7.29391E-10
  -7.20299E-10 -7.11480E-10 -7.02910E-10 -6.94569E-10 -6.86439E-10 -6.78494E-10 -6.70717E-10 -6.63085E-10 -6.55583E-10 -6.48177E-10
  -6.40861E-10 -6.33604E-10 -6.26387E-10 -6.19197E-10 -6.12004E-10 -6.04788E-10 -5.97534E-10 -5.90213E-10 -5.82830E-10 -5.75384E-10
  -5.67883E-10 -5.60331E-10 -5.52734E-10 -5.45092E-10 -5.37415E-10 -5.29705E-10 -5.21969E-10 -5.14209E-10 -5.06433E-10 -4.98641E-10
  -4.90845E-10 -4.83042E-10 -4.75240E-10 -4.67447E-10 -4.59662E-10 -4.51896E-10 -4.44149E-10 -4.36426E-10 -4.28734E-10 -4.21080E-10
  -4.13461E-10 -4.05888E-10 -3.98363E-10 -3.90893E-10 -3.83483E-10 -3.76132E-10 -3.68844E-10 -3.61617E-10 -3.54446E-10 -3.47330E-10
  -3.40267E-10 -3.33252E-10 -3.26285E-10 -3.19362E-10 -3.12484E-10 -3.05643E-10 -2.98843E-10 -2.92077E-10 -2.85344E-10 -2.78642E-10
  -2.71966E-10 -2.65317E-10 -2.58691E-10 -2.52087E-10 -2.45500E-10 -2.38930E-10 -2.32374E-10 -2.25827E-10 -2.19289E-10 -2.12759E-10
  -2.06234E-10 -1.99711E-10 -1.93184E-10
 NY background values follow
     7.062E-10    6.980E-10    6.898E-10    6.817E-10    6.735E-10    6.654E-10    6.573E-10    6.492E-10    6.411E-10    6.331E-10
     6.251E-10    6.171E-10    6.092E-10    6.014E-10    5.936E-10    5.859E-10    5.782E-10    5.706E-10    5.631E-10    5.556E-10
     5.483E-10    5.410E-10    5.338E-10    5.268E-10    5.198E-10    5.129E-10    5.062E-10    4.996E-10    4.931E-10    4.867E-10
     4.805E-10    4.744E-10    4.686E-10    4.630E-10    4.576E-10    4.525E-10    4.477E-10    4.433E-10    4.391E-10    4.354E-10
     4.320E-10    4.290E-10    4.265E-10    4.245E-10    4.229E-10    4.219E-10    4.213E-10    4.214E-10    4.220E-10    4.232E-10
     4.251E-10    4.276E-10    4.308E-10    4.347E-10    4.393E-10    4.446E-10    4.508E-10    4.577E-10    4.654E-10    4.739E-10
     4.831E-10    4.931E-10    5.039E-10    5.154E-10    5.277E-10    5.407E-10    5.545E-10    5.690E-10    5.842E-10    6.001E-10
     6.168E-10    6.341E-10    6.522E-10    6.709E-10    6.904E-10    7.105E-10    7.313E-10    7.528E-10    7.750E-10    7.978E-10
     8.213E-10    8.454E-10    8.702E-10    8.956E-10    9.217E-10    9.484E-10    9.756E-10    1.003E-09    1.032E-09    1.061E-09
     1.090E-09    1.120E-09    1.150E-09    1.180E-09    1.211E-09    1.242E-09    1.273E-09    1.305E-09    1.337E-09    1.369E-09
     1.401E-09    1.433E-09    1.465E-09    1.497E-09    1.529E-09    1.562E-09    1.594E-09    1.626E-09    1.658E-09    1.690E-09
     1.721E-09    1.753E-09    1.784E-09    1.814E-09    1.845E-09    1.875E-09    1.904E-09    1.933E-09    1.961E-09    1.988E-09
     2.014E-09    2.039E-09    2.063E-09    2.086E-09    2.108E-09    2.129E-09    2.148E-09    2.166E-09    2.182E-09    2.196E-09
     2.209E-09    2.220E-09    2.229E-09    2.236E-09    2.241E-09    2.244E-09    2.245E-09    2.244E-09    2.240E-09    2.233E-09
     2.225E-09    2.213E-09    2.199E-09    2.181E-09    2.161E-09    2.138E-09    2.111E-09    2.080E-09    2.046E-09    2.008E-09
     1.967E-09    1.921E-09    1.871E-09    1.817E-09    1.758E-09    1.694E-09    1.626E-09    1.553E-09    1.475E-09    1.392E-09
     1.303E-09    1.209E-09    1.110E-09    1.004E-09    8.931E-10    7.758E-10    6.524E-10    5.228E-10    3.867E-10    2.448E-10
     9.736E-11   -5.496E-11   -2.117E-10   -3.722E-10   -5.361E-10   -7.029E-10   -8.719E-10   -1.043E-09   -1.215E-09   -1.388E-09
    -1.560E-09   -1.733E-09   -1.905E-09   -2.075E-09   -2.244E-09   -2.410E-09   -2.573E-09   -2.733E-09   -2.889E-09   -3.040E-09
    -3.186E-09   -3.327E-09   -3.462E-09   -3.590E-09   -3.711E-09   -3.824E-09   -3.930E-09   -4.027E-09   -4.117E-09   -4.199E-09
    -4.274E-09   -4.341E-09   -4.402E-09   -4.455E-09   -4.502E-09   -4.542E-09   -4.576E-09   -4.604E-09   -4.626E-09   -4.642E-09
    -4.652E-09   -4.657E-09   -4.656E-09   -4.650E-09   -4.640E-09   -4.624E-09   -4.604E-09   -4.579E-09   -4.551E-09   -4.518E-09
    -4.481E-09   -4.440E-09   -4.396E-09   -4.348E-09   -4.297E-09   -4.243E-09   -4.187E-09   -4.127E-09   -4.066E-09   -4.002E-09
    -3.936E-09   -3.868E-09   -3.799E-09   -3.729E-09   -3.657E-09   -3.585E-09   -3.512E-09   -3.438E-09   -3.364E-09   -3.290E-09
    -3.217E-09   -3.143E-09   -3.071E-09   -2.999E-09   -2.928E-09   -2.858E-09   -2.790E-09   -2.723E-09   -2.658E-09   -2.596E-09
    -2.535E-09   -2.477E-09   -2.422E-09   -2.369E-09   -2.319E-09   -2.271E-09   -2.225E-09   -2.182E-09   -2.140E-09   -2.101E-09
    -2.064E-09   -2.029E-09   -1.995E-09   -1.963E-09   -1.933E-09   -1.905E-09   -1.878E-09   -1.852E-09   -1.828E-09   -1.805E-09
    -1.784E-09   -1.763E-09   -1.744E-09   -1.726E-09   -1.708E-09   -1.692E-09   -1.676E-09   -1.661E-09   -1.646E-09   -1.632E-09
    -1.619E-09   -1.606E-09   -1.594E-09   -1.581E-09   -1.570E-09   -1.559E-09   -1.548E-09   -1.537E-09   -1.527E-09   -1.517E-09
    -1.508E-09   -1.499E-09   -1.490E-09   -1.481E-09   -1.472E-09   -1.464E-09   -1.456E-09   -1.447E-09   -1.440E-09   -1.432E-09
    -1.424E-09   -1.416E-09   -1.409E-09   -1.401E-09   -1.393E-09   -1.386E-09   -1.378E-09   -1.370E-09   -1.362E-09   -1.354E-09
    -1.346E-09   -1.338E-09   -1.330E-09   -1.322E-09   -1.314E-09   -1.306E-09   -1.298E-09   -1.289E-09   -1.281E-09   -1.273E-09
    -1.265E-09   -1.256E-09   -1.248E-09   -1.240E-09   -1.231E-09   -1.223E-09   -1.215E-09   -1.207E-09   -1.199E-09   -1.190E-09
    -1.182E-09   -1.174E-09   -1.166E-09   -1.158E-09   -1.150E-09   -1.142E-09   -1.135E-09   -1.127E-09   -1.119E-09   -1.111E-09
    -1.104E-09   -1.096E-09   -1.089E-09   -1.081E-09   -1.074E-09   -1.067E-09   -1.059E-09   -1.052E-09   -1.045E-09   -1.037E-09
    -1.030E-09   -1.023E-09   -1.016E-09   -1.009E-09   -1.001E-09   -9.943E-10   -9.872E-10   -9.801E-10   -9.729E-10   -9.658E-10
    -9.587E-10   -9.516E-10   -9.445E-10
 Ala      Conc. = 1.07E-10
   7.87268E-10  7.87076E-10  7.84381E-10  7.79215E-10  7.71374E-10  7.61342E-10  7.47665E-10  7.29188E-10  7.12179E-10  6.96230E-10
   6.75270E-10  6.56901E-10  6.43073E-10  6.28459E-10  6.15193E-10  6.04209E-10  5.94411E-10  5.85322E-10  5.76706E-10  5.68436E-10
   5.60436E-10  5.52660E-10  5.45080E-10  5.37674E-10  5.30429E-10  5.23343E-10  5.16406E-10  5.09616E-10  5.02974E-10  4.96485E-10
   4.90169E-10  4.84044E-10  4.78133E-10  4.72459E-10  4.67043E-10  4.61907E-10  4.57076E-10  4.52572E-10  4.48417E-10  4.44634E-10
   4.41249E-10  4.38282E-10  4.35759E-10  4.33702E-10  4.32136E-10  4.31082E-10  4.30566E-10  4.30613E-10  4.31242E-10  4.32480E-10
   4.34352E-10  4.36877E-10  4.40084E-10  4.43993E-10  4.48636E-10  4.54023E-10  4.60185E-10  4.67137E-10  4.74874E-10  4.83390E-10
   4.92679E-10  5.02738E-10  5.13560E-10  5.25139E-10  5.37471E-10  5.50551E-10  5.64372E-10  5.78931E-10  5.94222E-10  6.10240E-10
   6.26980E-10  6.44438E-10  6.62609E-10  6.81488E-10  7.01071E-10  7.21354E-10  7.42334E-10  7.64005E-10  7.86366E-10  8.09416E-10
   8.33148E-10  8.57565E-10  8.82663E-10  9.08448E-10  9.34916E-10  9.62065E-10  9.89872E-10  1.01832E-09  1.04740E-09  1.07712E-09
   1.10746E-09  1.13847E-09  1.17018E-09  1.20267E-09  1.23610E-09  1.27071E-09  1.30698E-09  1.34589E-09  1.38975E-09  1.44596E-09
   1.52666E-09  1.61081E-09  1.70310E-09  1.81915E-09  1.93566E-09  2.03561E-09  2.10882E-09  2.15157E-09  2.16371E-09  2.14317E-09
   2.09407E-09  2.04023E-09  2.00935E-09  1.96549E-09  1.92789E-09  1.93083E-09  1.94641E-09  1.96679E-09  1.98923E-09  2.01246E-09
   2.03583E-09  2.05889E-09  2.08138E-09  2.10307E-09  2.12380E-09  2.14341E-09  2.16179E-09  2.17882E-09  2.19440E-09  2.20842E-09
   2.22079E-09  2.23142E-09  2.24021E-09  2.24708E-09  2.25195E-09  2.25471E-09  2.25530E-09  2.25362E-09  2.24959E-09  2.24312E-09
   2.23413E-09  2.22249E-09  2.20807E-09  2.19072E-09  2.17031E-09  2.14668E-09  2.11970E-09  2.08924E-09  2.05514E-09  2.01728E-09
   1.97550E-09  1.92968E-09  1.87967E-09  1.82534E-09  1.76655E-09  1.70316E-09  1.63503E-09  1.56204E-09  1.48406E-09  1.40096E-09
   1.31263E-09  1.21898E-09  1.11995E-09  1.01555E-09  9.06025E-10  7.92311E-10  6.79130E-10  5.78752E-10  4.79983E-10  3.81049E-10
   2.81722E-10  1.75880E-10  5.25482E-11 -9.94802E-11 -2.83456E-10 -4.93025E-10 -7.18246E-10 -9.49396E-10 -1.17020E-09 -1.35785E-09
  -1.53712E-09 -1.71325E-09 -1.88728E-09 -2.05927E-09 -2.22894E-09 -2.39595E-09 -2.55984E-09 -2.72015E-09 -2.87639E-09 -3.02805E-09
  -3.17464E-09 -3.31565E-09 -3.45057E-09 -3.57886E-09 -3.70002E-09 -3.81354E-09 -3.91904E-09 -4.01660E-09 -4.10640E-09 -4.18862E-09
  -4.26343E-09 -4.33100E-09 -4.39151E-09 -4.44513E-09 -4.49204E-09 -4.53241E-09 -4.56642E-09 -4.59423E-09 -4.61603E-09 -4.63198E-09
  -4.64227E-09 -4.64705E-09 -4.64652E-09 -4.64084E-09 -4.63018E-09 -4.61472E-09 -4.59463E-09 -4.57008E-09 -4.54125E-09 -4.50831E-09
  -4.47144E-09 -4.43080E-09 -4.38658E-09 -4.33894E-09 -4.28807E-09 -4.23418E-09 -4.17748E-09 -4.11818E-09 -4.05650E-09 -3.99265E-09
  -3.92685E-09 -3.85930E-09 -3.79022E-09 -3.71982E-09 -3.64830E-09 -3.57590E-09 -3.50281E-09 -3.42926E-09 -3.35543E-09 -3.28157E-09
  -3.20788E-09 -3.13456E-09 -3.06183E-09 -2.98992E-09 -2.91900E-09 -2.84931E-09 -2.78106E-09 -2.71446E-09 -2.64972E-09 -2.58706E-09
  -2.52666E-09 -2.46878E-09 -2.41347E-09 -2.36068E-09 -2.31034E-09 -2.26236E-09 -2.21667E-09 -2.17321E-09 -2.13188E-09 -2.09261E-09
  -2.05533E-09 -2.01996E-09 -1.98643E-09 -1.95466E-09 -1.92458E-09 -1.89610E-09 -1.86915E-09 -1.84366E-09 -1.81956E-09 -1.79676E-09
  -1.77519E-09 -1.75477E-09 -1.73543E-09 -1.71709E-09 -1.69969E-09 -1.68312E-09 -1.66734E-09 -1.65226E-09 -1.63781E-09 -1.62390E-09
  -1.61049E-09 -1.59758E-09 -1.58512E-09 -1.57309E-09 -1.56149E-09 -1.55029E-09 -1.53946E-09 -1.52899E-09 -1.51885E-09 -1.50903E-09
  -1.49950E-09 -1.49024E-09 -1.48123E-09 -1.47244E-09 -1.46387E-09 -1.45549E-09 -1.44727E-09 -1.43919E-09 -1.43125E-09 -1.42340E-09
  -1.41564E-09 -1.40793E-09 -1.40027E-09 -1.39263E-09 -1.38499E-09 -1.37732E-09 -1.36962E-09 -1.36184E-09 -1.35400E-09 -1.34610E-09
  -1.33814E-09 -1.33013E-09 -1.32208E-09 -1.31397E-09 -1.30583E-09 -1.29766E-09 -1.28945E-09 -1.28123E-09 -1.27298E-09 -1.26472E-09
  -1.25644E-09 -1.24817E-09 -1.23988E-09 -1.23161E-09 -1.22335E-09 -1.21510E-09 -1.20686E-09 -1.19865E-09 -1.19047E-09 -1.18232E-09
  -1.17420E-09 -1.16613E-09 -1.15811E-09 -1.15014E-09 -1.14222E-09 -1.13436E-09 -1.12656E-09 -1.11882E-09 -1.11114E-09 -1.10350E-09
  -1.09592E-09 -1.08838E-09 -1.08089E-09 -1.07344E-09 -1.06603E-09 -1.05865E-09 -1.05132E-09 -1.04401E-09 -1.03673E-09 -1.02949E-09
  -1.02226E-09 -1.01506E-09 -1.00788E-09 -1.00072E-09 -9.93571E-10 -9.86438E-10 -9.79314E-10 -9.72197E-10 -9.65086E-10 -9.57980E-10
  -9.50874E-10 -9.43769E-10 -9.36655E-10
 Asp      Conc. = 6.97E-10
   1.54407E-09  1.43394E-09  1.31619E-09  1.18989E-09  1.06776E-09  9.44499E-10  8.49614E-10  7.74172E-10  7.36066E-10  7.12205E-10
   6.95242E-10  6.82197E-10  6.71584E-10  6.62501E-10  6.54091E-10  6.46094E-10  6.38573E-10  6.31493E-10  6.24813E-10  6.18511E-10
   6.12575E-10  6.07010E-10  6.01833E-10  5.97066E-10  5.92749E-10  5.88938E-10  5.85701E-10  5.83130E-10  5.81352E-10  5.80538E-10
   5.80938E-10  5.82902E-10  5.86949E-10  5.93895E-10  6.05163E-10  6.23646E-10  6.56177E-10  6.97519E-10  7.52538E-10  8.07683E-10
   8.56564E-10  8.95194E-10  9.24269E-10  9.59950E-10  1.00315E-09  1.09515E-09  1.20647E-09  1.33639E-09  1.50592E-09  1.66071E-09
   1.75735E-09  1.75705E-09  1.66695E-09  1.51041E-09  1.32578E-09  1.17065E-09  1.04165E-09  9.87483E-10  9.19573E-10  8.40357E-10
   8.07042E-10  8.01749E-10  7.94394E-10  7.89402E-10  7.82648E-10  7.58798E-10  7.22407E-10  7.06682E-10  7.02331E-10  7.04409E-10
   7.10691E-10  7.20001E-10  7.31646E-10  7.45186E-10  7.60321E-10  7.76844E-10  7.94600E-10  8.13475E-10  8.33380E-10  8.54248E-10
   8.76019E-10  8.98653E-10  9.22107E-10  9.46355E-10  9.71364E-10  9.97103E-10  1.02352E-09  1.05058E-09  1.07823E-09  1.10644E-09
   1.13516E-09  1.16435E-09  1.19397E-09  1.22400E-09  1.25439E-09  1.28510E-09  1.31611E-09  1.34737E-09  1.37884E-09  1.41051E-09
   1.44232E-09  1.47425E-09  1.50626E-09  1.53833E-09  1.57040E-09  1.60246E-09  1.63446E-09  1.66638E-09  1.69818E-09  1.72983E-09
   1.76130E-09  1.79254E-09  1.82353E-09  1.85421E-09  1.88449E-09  1.91429E-09  1.94353E-09  1.97213E-09  2.00000E-09  2.02706E-09
   2.05323E-09  2.07843E-09  2.10258E-09  2.12559E-09  2.14738E-09  2.16787E-09  2.18697E-09  2.20462E-09  2.22072E-09  2.23519E-09
   2.24795E-09  2.25892E-09  2.26802E-09  2.27516E-09  2.28027E-09  2.28326E-09  2.28405E-09  2.28256E-09  2.27872E-09  2.27243E-09
   2.26361E-09  2.25214E-09  2.23789E-09  2.22071E-09  2.20047E-09  2.17703E-09  2.15026E-09  2.12000E-09  2.08615E-09  2.04854E-09
   2.00707E-09  1.96159E-09  1.91197E-09  1.85810E-09  1.79985E-09  1.73711E-09  1.66978E-09  1.59778E-09  1.52105E-09  1.43954E-09
   1.35332E-09  1.26253E-09  1.16754E-09  1.06914E-09  9.69284E-10  8.73288E-10  8.02044E-10  8.46042E-10  9.44258E-10  1.07403E-09
   1.23311E-09  1.38597E-09  1.46293E-09  1.38505E-09  1.11795E-09  6.91770E-10  1.67126E-10 -3.97650E-10 -9.14517E-10 -1.21221E-09
  -1.43157E-09 -1.62809E-09 -1.81437E-09 -1.99447E-09 -2.16988E-09 -2.34112E-09 -2.50825E-09 -2.67111E-09 -2.82938E-09 -2.98272E-09
  -3.13070E-09 -3.27287E-09 -3.40878E-09 -3.53792E-09 -3.65983E-09 -3.77399E-09 -3.88006E-09 -3.97812E-09 -4.06837E-09 -4.15099E-09
  -4.22616E-09 -4.29406E-09 -4.35486E-09 -4.40875E-09 -4.45591E-09 -4.49651E-09 -4.53072E-09 -4.55873E-09 -4.58070E-09 -4.59682E-09
  -4.60726E-09 -4.61219E-09 -4.61179E-09 -4.60623E-09 -4.59569E-09 -4.58034E-09 -4.56035E-09 -4.53590E-09 -4.50717E-09 -4.47432E-09
  -4.43753E-09 -4.39697E-09 -4.35282E-09 -4.30525E-09 -4.25445E-09 -4.20062E-09 -4.14398E-09 -4.08474E-09 -4.02312E-09 -3.95933E-09
