 LCModel (Version 6.3-1R) Copyright: S.W. Provencher.          Ref.: Magn. Reson. Med. 30:672-679 (1993).                
 onepulse 22x30_ftSpec_smooth_lcm
 26 lines in following concentration table = NCONC+1
    Conc.  %SD   /Cr    Metabolite                                         
    0.000 999%   0.000 Ala                                                 
    0.000 999%   0.000 Asp                                                 
    0.000 999%   0.000 Cr                                                  
    0.000 999%   0.000 GABA                                                
    0.000 999%   0.000 Glc                                                 
    0.000 999%   0.000 Gln                                                 
    0.000 999%   0.000 Glu                                                 
    0.000 999%   0.000 Glyc                                                
    0.000 999%   0.000 GPC                                                 
 6.55E-12 584%   0.000 GSH                                                 
 9.83E-11  55%   0.000 Ins                                                 
    0.000 999%   0.000 Lac                                                 
    0.000 999%   0.000 NAAG                                                
    0.000 999%   0.000 NAA                                                 
 1.14E-12 999%   0.000 PCh                                                 
    0.000 999%   0.000 PCr                                                 
    0.000 999%   0.000 PE                                                  
    0.000 999%   0.000 Scyllo                                              
    0.000 999%   0.000 Ser                                                 
    0.000 999%   0.000 Tau                                                 
 1.14E-12 999%   0.000 GPC+PCh                                             
    0.000 999%   0.000 NAA+NAAG                                            
 9.83E-11  55%   0.000 Ins+Glyc                                            
    0.000 999%   0.000 Cr+PCr                                              
    0.000 999%   0.000 Glu+Gln                                             
   6 lines in following misc. output table
  FWHM = 0.045 ppm    S/N =   0                                            
  Data shift = 0.168 ppm                                                   
  Ph:-163 deg       1.2 deg/ppm                                            
  alphaB,S = 2.1E+00,   7.4E-01                                            
    8 spline knots.   Ns = 5(1)                                            
  ( 3) 2 infls.   ( 2) 2 extrs.                                            
  363 points on ppm-axis = NY
      4.250000     4.238821     4.227641     4.216462     4.205282     4.194103     4.182923     4.171744     4.160564     4.149385
      4.138206     4.127026     4.115847     4.104667     4.093488     4.082308     4.071129     4.059949     4.048770     4.037591
      4.026411     4.015232     4.004052     3.992873     3.981693     3.970514     3.959334     3.948155     3.936975     3.925796
      3.914617     3.903437     3.892258     3.881078     3.869899     3.858719     3.847540     3.836360     3.825181     3.814002
      3.802822     3.791643     3.780463     3.769284     3.758104     3.746925     3.735745     3.724566     3.713387     3.702207
      3.691028     3.679848     3.668669     3.657489     3.646310     3.635130     3.623951     3.612772     3.601592     3.590413
      3.579233     3.568054     3.556874     3.545695     3.534515     3.523336     3.512156     3.500977     3.489798     3.478618
      3.467439     3.456259     3.445080     3.433900     3.422721     3.411541     3.400362     3.389183     3.378003     3.366824
      3.355644     3.344465     3.333285     3.322106     3.310926     3.299747     3.288568     3.277388     3.266209     3.255029
      3.243850     3.232670     3.221491     3.210311     3.199132     3.187953     3.176773     3.165594     3.154414     3.143235
      3.132055     3.120876     3.109696     3.098517     3.087337     3.076158     3.064979     3.053799     3.042620     3.031440
      3.020261     3.009081     2.997902     2.986722     2.975543     2.964364     2.953184     2.942005     2.930825     2.919646
      2.908466     2.897287     2.886107     2.874928     2.863749     2.852569     2.841390     2.830210     2.819031     2.807851
      2.796672     2.785492     2.774313     2.763134     2.751954     2.740775     2.729595     2.718416     2.707236     2.696057
      2.684877     2.673698     2.662519     2.651339     2.640160     2.628980     2.617801     2.606621     2.595442     2.584262
      2.573083     2.561903     2.550724     2.539545     2.528365     2.517186     2.506006     2.494827     2.483647     2.472468
      2.461288     2.450109     2.438930     2.427750     2.416571     2.405391     2.394212     2.383032     2.371853     2.360673
      2.349494     2.338315     2.327135     2.315956     2.304776     2.293597     2.282417     2.271238     2.260058     2.248879
      2.237700     2.226520     2.215341     2.204161     2.192982     2.181802     2.170623     2.159443     2.148264     2.137084
      2.125905     2.114726     2.103546     2.092367     2.081187     2.070008     2.058828     2.047649     2.036469     2.025290
      2.014111     2.002931     1.991752     1.980572     1.969393     1.958213     1.947034     1.935854     1.924675     1.913496
      1.902316     1.891137     1.879957     1.868778     1.857598     1.846419     1.835239     1.824060     1.812881     1.801701
      1.790522     1.779342     1.768163     1.756983     1.745804     1.734624     1.723445     1.712265     1.701086     1.689907
      1.678727     1.667548     1.656368     1.645189     1.634009     1.622830     1.611650     1.600471     1.589292     1.578112
      1.566933     1.555753     1.544574     1.533394     1.522215     1.511035     1.499856     1.488677     1.477497     1.466318
      1.455138     1.443959     1.432779     1.421600     1.410420     1.399241     1.388062     1.376882     1.365703     1.354523
      1.343344     1.332164     1.320985     1.309805     1.298626     1.287446     1.276267     1.265088     1.253908     1.242729
      1.231549     1.220370     1.209190     1.198011     1.186831     1.175652     1.164473     1.153293     1.142114     1.130934
      1.119755     1.108575     1.097396     1.086216     1.075037     1.063858     1.052678     1.041499     1.030319     1.019140
      1.007960     0.996781     0.985601     0.974422     0.963243     0.952063     0.940884     0.929704     0.918525     0.907345
      0.896166     0.884986     0.873807     0.862628     0.851448     0.840269     0.829089     0.817910     0.806730     0.795551
      0.784371     0.773192     0.762012     0.750833     0.739654     0.728474     0.717295     0.706115     0.694936     0.683756
      0.672577     0.661397     0.650218     0.639039     0.627859     0.616680     0.605500     0.594321     0.583141     0.571962
      0.560782     0.549603     0.538424     0.527244     0.516065     0.504885     0.493706     0.482526     0.471347     0.460167
      0.448988     0.437809     0.426629     0.415450     0.404270     0.393091     0.381911     0.370732     0.359552     0.348373
      0.337193     0.326014     0.314835     0.303655     0.292476     0.281296     0.270117     0.258937     0.247758     0.236578
      0.225399     0.214220     0.203040
 NY phased data points follow
  -4.46359E-09 -4.46844E-09 -5.05950E-09 -5.44919E-09 -5.59874E-09 -5.32489E-09 -5.35972E-09 -5.58548E-09 -5.42441E-09 -4.83710E-09
  -4.98501E-09 -4.85982E-09 -5.50945E-09 -5.81063E-09 -6.80951E-09 -8.17280E-09 -9.41090E-09 -9.95482E-09 -9.19163E-09 -8.49366E-09
  -7.59112E-09 -7.31284E-09 -7.15541E-09 -7.03538E-09 -6.94001E-09 -6.65805E-09 -6.64436E-09 -7.19672E-09 -7.23157E-09 -7.61872E-09
  -7.92078E-09 -8.01061E-09 -7.70656E-09 -7.10223E-09 -7.36848E-09 -7.19210E-09 -7.26598E-09 -6.92695E-09 -6.44691E-09 -6.92271E-09
  -6.70227E-09 -7.34545E-09 -7.14238E-09 -7.03633E-09 -6.28766E-09 -6.65611E-09 -6.28107E-09 -7.03714E-09 -7.93992E-09 -8.45239E-09
  -8.05242E-09 -7.27735E-09 -6.70723E-09 -6.38699E-09 -5.84708E-09 -6.22639E-09 -5.72301E-09 -5.82522E-09 -5.28719E-09 -5.69199E-09
  -5.47061E-09 -5.59099E-09 -5.04143E-09 -5.30564E-09 -4.70900E-09 -4.51615E-09 -4.78977E-09 -4.79160E-09 -4.83242E-09 -4.96921E-09
  -4.38483E-09 -4.35388E-09 -3.86977E-09 -4.33379E-09 -4.18848E-09 -4.41742E-09 -4.50505E-09 -4.61215E-09 -5.58970E-09 -6.07957E-09
  -6.73021E-09 -6.52493E-09 -6.16642E-09 -5.88582E-09 -5.12267E-09 -4.81304E-09 -4.65049E-09 -4.70043E-09 -3.71434E-09 -4.18438E-09
  -3.78803E-09 -3.59124E-09 -3.47347E-09 -3.42389E-09 -4.85290E-09 -6.95062E-09 -8.28583E-09 -9.43501E-09 -9.10584E-09 -7.77977E-09
  -7.36999E-09 -7.16705E-09 -6.35232E-09 -6.67801E-09 -5.42243E-09 -5.69787E-09 -5.54488E-09 -5.47764E-09 -4.89026E-09 -5.12207E-09
  -4.72782E-09 -4.36158E-09 -3.98200E-09 -3.88819E-09 -3.89067E-09 -3.52703E-09 -3.58305E-09 -3.40032E-09 -3.89987E-09 -3.64819E-09
  -3.05376E-09 -3.11082E-09 -3.18307E-09 -3.25626E-09 -3.11081E-09 -2.09710E-09 -2.41269E-09 -1.50034E-09 -1.69998E-09 -1.89150E-09
  -1.71455E-09 -2.17552E-09 -1.85912E-09 -2.03719E-09 -1.95311E-09 -2.26647E-09 -1.86887E-09 -2.17469E-09 -1.61155E-09 -1.47380E-09
  -1.13221E-09 -4.51703E-10 -4.27740E-10 -6.49711E-10 -5.01085E-10 -9.78491E-10 -8.37776E-10 -8.36973E-10 -8.31037E-10 -1.00096E-09
  -1.08449E-09 -1.42779E-09 -1.21561E-09 -7.98893E-10 -1.54994E-09 -2.02132E-09 -2.77704E-09 -3.57477E-09 -3.44934E-09 -3.43638E-09
  -3.28569E-09 -4.20441E-09 -4.45411E-09 -4.82634E-09 -5.04145E-09 -4.54694E-09 -4.34232E-09 -4.76675E-09 -4.60239E-09 -4.17854E-09
  -4.03681E-09 -4.40411E-09 -4.15175E-09 -4.37151E-09 -4.15863E-09 -4.56054E-09 -4.16014E-09 -4.55796E-09 -4.65177E-09 -4.95271E-09
  -4.24796E-09 -4.24806E-09 -4.69016E-09 -4.88837E-09 -4.59210E-09 -5.76743E-09 -7.33430E-09 -9.58529E-09 -1.08189E-08 -1.02637E-08
  -8.50203E-09 -7.71853E-09 -6.51432E-09 -5.97056E-09 -5.44902E-09 -4.03592E-09 -3.77180E-09 -2.93876E-09 -1.95759E-09 -1.25911E-09
  -3.45099E-10  4.77040E-10  1.35695E-09  2.99397E-09  4.46184E-09  5.73484E-09  6.50141E-09  8.33886E-09  9.93658E-09  1.10622E-08
   1.24215E-08  1.40167E-08  1.48535E-08  1.54275E-08  1.60880E-08  1.62111E-08  1.62860E-08  1.50127E-08  1.46077E-08  1.32099E-08
   1.19779E-08  9.85249E-09  7.86077E-09  6.30005E-09  4.23121E-09  2.50191E-09  1.45524E-09  1.02565E-10  1.50429E-10 -6.01484E-10
  -5.35875E-10 -4.20276E-10  8.99163E-11  1.39488E-10  7.88517E-10  1.06963E-09  1.18998E-09  7.18272E-10  8.09330E-10  5.77720E-10
   8.07601E-10  6.59205E-10  1.39594E-09  7.65388E-10  1.58087E-09  1.19617E-09  1.16723E-09  1.28946E-09  1.12214E-09  1.02430E-09
   1.32291E-09  1.18545E-09  8.48044E-10  8.09774E-10  1.30306E-09  9.77837E-10  1.51608E-09  1.03482E-09  1.25136E-09  1.30464E-09
   1.11364E-09  5.48977E-10  8.72420E-10  7.19407E-10  8.06857E-10  8.99411E-10  1.50739E-09  1.05644E-09  1.06234E-09  1.32137E-09
   8.19015E-10  3.02574E-10  8.88934E-11  2.53454E-10  4.81649E-10  6.16868E-10  9.02121E-10  8.51340E-10  8.09661E-10  1.29502E-09
   1.24346E-09  1.73212E-09  1.40086E-09  8.83662E-10  1.05086E-09  1.00385E-09  5.37605E-10  4.68060E-10  5.03421E-10  1.84125E-10
   5.42678E-11 -1.16720E-10  1.11169E-10  3.71679E-10  3.76748E-10  5.40817E-10  4.17115E-10  4.33045E-10  6.89004E-10  7.35835E-10
   1.20237E-09  1.03450E-09  9.69034E-10  9.34210E-10  1.00013E-09  8.68268E-10  9.57210E-10  8.41274E-10  1.09736E-09  1.09875E-09
   6.83471E-10  7.85790E-10  1.11384E-09  6.70440E-10  1.19645E-09  8.89790E-10  1.13943E-09  8.80963E-10  8.24303E-10  8.84500E-10
   6.70472E-10  1.07963E-09  8.60349E-10  8.38726E-10  1.11440E-09  6.27901E-10  8.32353E-10  5.32945E-10  6.35014E-10  6.91925E-10
   8.32210E-10  6.15313E-10  6.66056E-10  3.34959E-10  2.60348E-10  6.30755E-10  7.76530E-10  5.51601E-10  6.16396E-10  8.72306E-10
   6.18262E-10  5.09068E-10  9.67311E-10  6.65569E-10  5.92472E-10  4.75913E-10  8.75366E-10  7.55811E-10  6.17529E-10  4.63391E-10
   8.34728E-10  6.89021E-10  1.11646E-09  2.92650E-10  9.61952E-10  1.00457E-09  6.52255E-10  8.75079E-10  8.37201E-10  9.44893E-10
   7.36660E-10  6.61064E-10  6.89744E-10
 NY points of the fit to the data follow
  -7.43438E-09 -7.23890E-09 -7.16639E-09 -7.19416E-09 -7.10262E-09 -6.87722E-09 -6.76017E-09 -6.63423E-09 -6.10873E-09 -5.42205E-09
  -5.16530E-09 -5.45686E-09 -6.08492E-09 -6.90499E-09 -7.73403E-09 -8.43342E-09 -8.97809E-09 -9.18116E-09 -8.79095E-09 -8.13183E-09
  -7.73068E-09 -7.43881E-09 -7.10395E-09 -6.82741E-09 -6.63931E-09 -6.52787E-09 -6.49462E-09 -6.57357E-09 -6.72652E-09 -6.89553E-09
  -7.03680E-09 -7.08163E-09 -7.03473E-09 -6.99983E-09 -6.89907E-09 -6.74133E-09 -6.60661E-09 -6.52678E-09 -6.48544E-09 -6.47043E-09
  -6.47286E-09 -6.47765E-09 -6.47502E-09 -6.45511E-09 -6.41333E-09 -6.35838E-09 -6.30763E-09 -6.24464E-09 -6.19088E-09 -6.14416E-09
  -6.09320E-09 -6.04172E-09 -5.99819E-09 -5.95231E-09 -5.90808E-09 -5.87853E-09 -5.85905E-09 -5.84379E-09 -5.82749E-09 -5.80948E-09
  -5.78575E-09 -5.75335E-09 -5.71798E-09 -5.67682E-09 -5.62529E-09 -5.57982E-09 -5.53810E-09 -5.49010E-09 -5.44693E-09 -5.40095E-09
  -5.35158E-09 -5.30992E-09 -5.26469E-09 -5.21867E-09 -5.18057E-09 -5.14810E-09 -5.12059E-09 -5.09530E-09 -5.07386E-09 -5.05205E-09
  -5.02239E-09 -4.99195E-09 -4.95808E-09 -4.91160E-09 -4.86920E-09 -4.82787E-09 -4.78203E-09 -4.73907E-09 -4.69794E-09 -4.65761E-09
  -4.61769E-09 -4.57798E-09 -4.53834E-09 -4.49877E-09 -4.45918E-09 -4.41957E-09 -4.37991E-09 -4.34021E-09 -4.30045E-09 -4.26064E-09
  -4.22077E-09 -4.18082E-09 -4.14080E-09 -4.10071E-09 -4.06054E-09 -4.02030E-09 -3.97998E-09 -3.93959E-09 -3.89913E-09 -3.85857E-09
  -3.81796E-09 -3.77726E-09 -3.73648E-09 -3.69562E-09 -3.65468E-09 -3.61366E-09 -3.57258E-09 -3.53141E-09 -3.49016E-09 -3.44885E-09
  -3.40744E-09 -3.36597E-09 -3.32441E-09 -3.28278E-09 -3.24108E-09 -3.19929E-09 -3.15741E-09 -3.11548E-09 -3.07346E-09 -3.03135E-09
  -2.98918E-09 -2.94692E-09 -2.90459E-09 -2.86219E-09 -2.81970E-09 -2.77712E-09 -2.73450E-09 -2.69177E-09 -2.64898E-09 -2.60608E-09
  -2.56313E-09 -2.52009E-09 -2.47697E-09 -2.43375E-09 -2.39046E-09 -2.34708E-09 -2.30361E-09 -2.26007E-09 -2.21643E-09 -2.17273E-09
  -2.12894E-09 -2.08509E-09 -2.04114E-09 -1.99710E-09 -1.95294E-09 -1.90865E-09 -1.86416E-09 -1.81941E-09 -1.77429E-09 -1.72858E-09
  -1.68194E-09 -1.63377E-09 -1.58282E-09 -1.52644E-09 -1.45781E-09 -1.35447E-09 -1.10359E-09 -4.57225E-10  1.00110E-10  2.95371E-10
   1.14161E-10 -3.18552E-10 -8.89646E-10 -1.55307E-09 -2.09758E-09 -2.35148E-09 -2.21093E-09 -1.72352E-09 -1.15404E-09 -9.80921E-10
  -8.95862E-10 -8.35175E-10 -7.84012E-10 -7.37454E-10 -6.93444E-10 -6.51008E-10 -6.09648E-10 -5.69100E-10 -5.29157E-10 -4.89739E-10
  -4.50802E-10 -4.12272E-10 -3.74145E-10 -3.36396E-10 -2.99040E-10 -2.62051E-10 -2.25419E-10 -1.89181E-10 -1.53325E-10 -1.17836E-10
  -8.27357E-11 -4.80277E-11 -1.37258E-11  2.01730E-11  5.36709E-11  8.67319E-11  1.19369E-10  1.51576E-10  1.83348E-10  2.14646E-10
   2.45511E-10  2.75897E-10  3.05806E-10  3.35236E-10  3.64190E-10  3.92626E-10  4.20560E-10  4.47992E-10  4.74885E-10  5.01266E-10
   5.27128E-10  5.52484E-10  5.77331E-10  6.01681E-10  6.25532E-10  6.48897E-10  6.71776E-10  6.94175E-10  7.16098E-10  7.37549E-10
   7.58539E-10  7.79067E-10  7.99140E-10  8.18763E-10  8.37942E-10  8.56680E-10  8.74985E-10  8.92858E-10  9.10307E-10  9.27335E-10
   9.43947E-10  9.60155E-10  9.75955E-10  9.91355E-10  1.00636E-09  1.02097E-09  1.03520E-09  1.04905E-09  1.06253E-09  1.07563E-09
   1.08837E-09  1.10075E-09  1.11278E-09  1.12446E-09  1.13578E-09  1.14678E-09  1.15744E-09  1.16776E-09  1.17776E-09  1.18744E-09
   1.19681E-09  1.20587E-09  1.21462E-09  1.22308E-09  1.23123E-09  1.23910E-09  1.24669E-09  1.25399E-09  1.26102E-09  1.26778E-09
   1.27427E-09  1.28050E-09  1.28648E-09  1.29221E-09  1.29770E-09  1.30294E-09  1.30795E-09  1.31274E-09  1.31729E-09  1.32163E-09
   1.32575E-09  1.32966E-09  1.33337E-09  1.33688E-09  1.34019E-09  1.34331E-09  1.34626E-09  1.34901E-09  1.35159E-09  1.35401E-09
   1.35626E-09  1.35834E-09  1.36028E-09  1.36205E-09  1.36368E-09  1.36515E-09  1.36648E-09  1.36766E-09  1.36871E-09  1.36961E-09
   1.37038E-09  1.37102E-09  1.37152E-09  1.37190E-09  1.37216E-09  1.37229E-09  1.37231E-09  1.37221E-09  1.37199E-09  1.37167E-09
   1.37123E-09  1.37070E-09  1.37006E-09  1.36932E-09  1.36849E-09  1.36756E-09  1.36654E-09  1.36543E-09  1.36424E-09  1.36296E-09
   1.36161E-09  1.36018E-09  1.35867E-09  1.35710E-09  1.35545E-09  1.35374E-09  1.35197E-09  1.35013E-09  1.34824E-09  1.34629E-09
   1.34430E-09  1.34225E-09  1.34016E-09  1.33802E-09  1.33584E-09  1.33363E-09  1.33138E-09  1.32910E-09  1.32679E-09  1.32445E-09
   1.32208E-09  1.31970E-09  1.31730E-09  1.31488E-09  1.31245E-09  1.31001E-09  1.30756E-09  1.30511E-09  1.30266E-09  1.30021E-09
   1.29776E-09  1.29531E-09  1.29288E-09  1.29046E-09  1.28806E-09  1.28567E-09  1.28330E-09  1.28096E-09  1.27864E-09  1.27636E-09
   1.27410E-09  1.27188E-09  1.26969E-09
 NY background values follow
    -7.868E-09   -7.834E-09   -7.799E-09   -7.765E-09   -7.731E-09   -7.697E-09   -7.663E-09   -7.629E-09   -7.594E-09   -7.560E-09
    -7.526E-09   -7.491E-09   -7.457E-09   -7.423E-09   -7.388E-09   -7.354E-09   -7.319E-09   -7.285E-09   -7.250E-09   -7.216E-09
    -7.181E-09   -7.147E-09   -7.112E-09   -7.077E-09   -7.043E-09   -7.008E-09   -6.973E-09   -6.938E-09   -6.904E-09   -6.869E-09
    -6.834E-09   -6.799E-09   -6.764E-09   -6.729E-09   -6.694E-09   -6.658E-09   -6.623E-09   -6.588E-09   -6.553E-09   -6.517E-09
    -6.482E-09   -6.446E-09   -6.411E-09   -6.375E-09   -6.340E-09   -6.304E-09   -6.268E-09   -6.232E-09   -6.197E-09   -6.161E-09
    -6.125E-09   -6.089E-09   -6.053E-09   -6.016E-09   -5.980E-09   -5.944E-09   -5.908E-09   -5.871E-09   -5.835E-09   -5.798E-09
    -5.761E-09   -5.725E-09   -5.688E-09   -5.651E-09   -5.614E-09   -5.577E-09   -5.540E-09   -5.503E-09   -5.466E-09   -5.428E-09
    -5.391E-09   -5.353E-09   -5.316E-09   -5.278E-09   -5.241E-09   -5.203E-09   -5.165E-09   -5.127E-09   -5.089E-09   -5.051E-09
    -5.012E-09   -4.974E-09   -4.936E-09   -4.897E-09   -4.859E-09   -4.820E-09   -4.781E-09   -4.743E-09   -4.704E-09   -4.665E-09
    -4.626E-09   -4.587E-09   -4.547E-09   -4.508E-09   -4.469E-09   -4.429E-09   -4.390E-09   -4.350E-09   -4.311E-09   -4.271E-09
    -4.231E-09   -4.191E-09   -4.151E-09   -4.111E-09   -4.071E-09   -4.031E-09   -3.990E-09   -3.950E-09   -3.909E-09   -3.869E-09
    -3.828E-09   -3.787E-09   -3.747E-09   -3.706E-09   -3.665E-09   -3.624E-09   -3.583E-09   -3.542E-09   -3.500E-09   -3.459E-09
    -3.418E-09   -3.376E-09   -3.334E-09   -3.293E-09   -3.251E-09   -3.209E-09   -3.167E-09   -3.125E-09   -3.083E-09   -3.041E-09
    -2.999E-09   -2.957E-09   -2.915E-09   -2.872E-09   -2.830E-09   -2.787E-09   -2.744E-09   -2.702E-09   -2.659E-09   -2.616E-09
    -2.573E-09   -2.530E-09   -2.487E-09   -2.444E-09   -2.401E-09   -2.357E-09   -2.314E-09   -2.270E-09   -2.227E-09   -2.183E-09
    -2.140E-09   -2.096E-09   -2.053E-09   -2.009E-09   -1.965E-09   -1.922E-09   -1.878E-09   -1.834E-09   -1.791E-09   -1.747E-09
    -1.703E-09   -1.660E-09   -1.617E-09   -1.573E-09   -1.530E-09   -1.487E-09   -1.444E-09   -1.401E-09   -1.358E-09   -1.315E-09
    -1.272E-09   -1.230E-09   -1.187E-09   -1.145E-09   -1.103E-09   -1.061E-09   -1.019E-09   -9.779E-10   -9.366E-10   -8.954E-10
    -8.545E-10   -8.138E-10   -7.732E-10   -7.330E-10   -6.930E-10   -6.532E-10   -6.136E-10   -5.744E-10   -5.354E-10   -4.967E-10
    -4.583E-10   -4.202E-10   -3.824E-10   -3.449E-10   -3.078E-10   -2.710E-10   -2.345E-10   -1.983E-10   -1.626E-10   -1.271E-10
    -9.209E-11   -5.743E-11   -2.317E-11    1.070E-11    4.417E-11    7.722E-11    1.098E-10    1.420E-10    1.738E-10    2.051E-10
     2.360E-10    2.663E-10    2.962E-10    3.257E-10    3.546E-10    3.831E-10    4.110E-10    4.385E-10    4.653E-10    4.917E-10
     5.176E-10    5.430E-10    5.678E-10    5.922E-10    6.160E-10    6.394E-10    6.623E-10    6.847E-10    7.066E-10    7.281E-10
     7.491E-10    7.696E-10    7.897E-10    8.093E-10    8.285E-10    8.473E-10    8.656E-10    8.835E-10    9.009E-10    9.180E-10
     9.346E-10    9.508E-10    9.666E-10    9.820E-10    9.970E-10    1.012E-09    1.026E-09    1.040E-09    1.053E-09    1.066E-09
     1.079E-09    1.091E-09    1.104E-09    1.115E-09    1.127E-09    1.138E-09    1.148E-09    1.159E-09    1.169E-09    1.178E-09
     1.188E-09    1.197E-09    1.205E-09    1.214E-09    1.222E-09    1.230E-09    1.238E-09    1.245E-09    1.252E-09    1.259E-09
     1.265E-09    1.271E-09    1.277E-09    1.283E-09    1.289E-09    1.294E-09    1.299E-09    1.304E-09    1.308E-09    1.313E-09
     1.317E-09    1.321E-09    1.324E-09    1.328E-09    1.331E-09    1.334E-09    1.337E-09    1.340E-09    1.343E-09    1.345E-09
     1.347E-09    1.349E-09    1.351E-09    1.353E-09    1.355E-09    1.356E-09    1.358E-09    1.359E-09    1.360E-09    1.361E-09
     1.361E-09    1.362E-09    1.363E-09    1.363E-09    1.363E-09    1.363E-09    1.363E-09    1.363E-09    1.363E-09    1.363E-09
     1.362E-09    1.362E-09    1.361E-09    1.360E-09    1.360E-09    1.359E-09    1.358E-09    1.357E-09    1.355E-09    1.354E-09
     1.353E-09    1.351E-09    1.350E-09    1.348E-09    1.347E-09    1.345E-09    1.343E-09    1.341E-09    1.339E-09    1.338E-09
     1.336E-09    1.334E-09    1.331E-09    1.329E-09    1.327E-09    1.325E-09    1.323E-09    1.320E-09    1.318E-09    1.316E-09
     1.313E-09    1.311E-09    1.309E-09    1.306E-09    1.304E-09    1.301E-09    1.299E-09    1.296E-09    1.294E-09    1.292E-09
     1.289E-09    1.287E-09    1.284E-09    1.282E-09    1.279E-09    1.277E-09    1.275E-09    1.272E-09    1.270E-09    1.268E-09
     1.266E-09    1.263E-09    1.261E-09
 GSH      Conc. = 6.55E-12
  -7.64164E-09 -7.61194E-09 -7.62519E-09 -7.66532E-09 -7.72559E-09 -7.78531E-09 -7.81693E-09 -7.80324E-09 -7.74062E-09 -7.63854E-09
  -7.56340E-09 -7.51537E-09 -7.46920E-09 -7.42947E-09 -7.39231E-09 -7.35625E-09 -7.32074E-09 -7.28554E-09 -7.25052E-09 -7.21559E-09
  -7.18070E-09 -7.14582E-09 -7.11090E-09 -7.07593E-09 -7.04088E-09 -7.00574E-09 -6.97044E-09 -6.93489E-09 -6.89871E-09 -6.86199E-09
  -6.82471E-09 -6.78633E-09 -6.74594E-09 -6.69697E-09 -6.63008E-09 -6.57139E-09 -6.51657E-09 -6.47181E-09 -6.44630E-09 -6.44113E-09
  -6.45266E-09 -6.46464E-09 -6.46713E-09 -6.45094E-09 -6.41197E-09 -6.35919E-09 -6.31014E-09 -6.24850E-09 -6.19583E-09 -6.14998E-09
  -6.09974E-09 -6.04885E-09 -6.00580E-09 -5.96033E-09 -5.91644E-09 -5.88716E-09 -5.86792E-09 -5.85285E-09 -5.83672E-09 -5.81885E-09
  -5.79523E-09 -5.76292E-09 -5.72763E-09 -5.68653E-09 -5.63505E-09 -5.58963E-09 -5.54794E-09 -5.49997E-09 -5.45682E-09 -5.41085E-09
  -5.36149E-09 -5.31983E-09 -5.27460E-09 -5.22857E-09 -5.19047E-09 -5.15799E-09 -5.13047E-09 -5.10517E-09 -5.08371E-09 -5.06188E-09
  -5.03221E-09 -5.00175E-09 -4.96786E-09 -4.92136E-09 -4.87894E-09 -4.83759E-09 -4.79173E-09 -4.74874E-09 -4.70759E-09 -4.66724E-09
  -4.62729E-09 -4.58757E-09 -4.54790E-09 -4.50831E-09 -4.46870E-09 -4.42906E-09 -4.38939E-09 -4.34966E-09 -4.30988E-09 -4.27005E-09
  -4.23015E-09 -4.19018E-09 -4.15014E-09 -4.11003E-09 -4.06983E-09 -4.02957E-09 -3.98923E-09 -3.94883E-09 -3.90834E-09 -3.86776E-09
  -3.82713E-09 -3.78641E-09 -3.74561E-09 -3.70473E-09 -3.66377E-09 -3.62274E-09 -3.58163E-09 -3.54045E-09 -3.49918E-09 -3.45786E-09
  -3.41643E-09 -3.37494E-09 -3.33337E-09 -3.29172E-09 -3.25000E-09 -3.20820E-09 -3.16631E-09 -3.12436E-09 -3.08233E-09 -3.04022E-09
  -2.99804E-09 -2.95577E-09 -2.91344E-09 -2.87103E-09 -2.82854E-09 -2.78596E-09 -2.74334E-09 -2.70062E-09 -2.65783E-09 -2.61495E-09
  -2.57201E-09 -2.52900E-09 -2.48591E-09 -2.44273E-09 -2.39949E-09 -2.35617E-09 -2.31278E-09 -2.26932E-09 -2.22581E-09 -2.18224E-09
  -2.13863E-09 -2.09500E-09 -2.05133E-09 -2.00764E-09 -1.96394E-09 -1.92023E-09 -1.87652E-09 -1.83281E-09 -1.78910E-09 -1.74539E-09
  -1.70166E-09 -1.65789E-09 -1.61400E-09 -1.56985E-09 -1.52504E-09 -1.47824E-09 -1.42293E-09 -1.34252E-09 -1.26714E-09 -1.21426E-09
  -1.18506E-09 -1.17183E-09 -1.16737E-09 -1.16908E-09 -1.16386E-09 -1.14095E-09 -1.09369E-09 -1.02476E-09 -9.49973E-10 -9.00331E-10
  -8.56603E-10 -8.14633E-10 -7.73459E-10 -7.32802E-10 -6.92529E-10 -6.52583E-10 -6.12947E-10 -5.73631E-10 -5.34589E-10 -4.95845E-10
  -4.57420E-10 -4.19285E-10 -3.81466E-10 -3.43959E-10 -3.06796E-10 -2.69962E-10 -2.33453E-10 -1.97316E-10 -1.61540E-10 -1.26117E-10
  -9.10696E-11 -5.64052E-11 -2.21389E-11  1.17310E-11  4.52057E-11  7.82486E-11  1.10872E-10  1.43068E-10  1.74833E-10  2.06126E-10
   2.36988E-10  2.67372E-10  2.97281E-10  3.26711E-10  3.55667E-10  3.84107E-10  4.12044E-10  4.39480E-10  4.66378E-10  4.92764E-10
   5.18632E-10  5.43995E-10  5.68849E-10  5.93206E-10  6.17064E-10  6.40436E-10  6.63322E-10  6.85728E-10  7.07658E-10  7.29117E-10
   7.50115E-10  7.70650E-10  7.90731E-10  8.10362E-10  8.29549E-10  8.48295E-10  8.66607E-10  8.84488E-10  9.01945E-10  9.18981E-10
   9.35601E-10  9.51816E-10  9.67623E-10  9.83031E-10  9.98041E-10  1.01266E-09  1.02690E-09  1.04076E-09  1.05424E-09  1.06735E-09
   1.08010E-09  1.09249E-09  1.10453E-09  1.11621E-09  1.12754E-09  1.13854E-09  1.14921E-09  1.15954E-09  1.16955E-09  1.17923E-09
   1.18861E-09  1.19767E-09  1.20643E-09  1.21489E-09  1.22306E-09  1.23093E-09  1.23853E-09  1.24583E-09  1.25287E-09  1.25964E-09
   1.26614E-09  1.27237E-09  1.27836E-09  1.28410E-09  1.28959E-09  1.29484E-09  1.29986E-09  1.30465E-09  1.30921E-09  1.31355E-09
   1.31768E-09  1.32159E-09  1.32531E-09  1.32882E-09  1.33214E-09  1.33527E-09  1.33822E-09  1.34098E-09  1.34357E-09  1.34599E-09
   1.34824E-09  1.35034E-09  1.35228E-09  1.35406E-09  1.35569E-09  1.35717E-09  1.35850E-09  1.35969E-09  1.36074E-09  1.36165E-09
   1.36242E-09  1.36307E-09  1.36358E-09  1.36396E-09  1.36422E-09  1.36436E-09  1.36438E-09  1.36429E-09  1.36408E-09  1.36376E-09
   1.36333E-09  1.36280E-09  1.36217E-09  1.36144E-09  1.36061E-09  1.35968E-09  1.35867E-09  1.35757E-09  1.35638E-09  1.35511E-09
   1.35376E-09  1.35234E-09  1.35084E-09  1.34927E-09  1.34763E-09  1.34592E-09  1.34415E-09  1.34232E-09  1.34044E-09  1.33850E-09
   1.33650E-09  1.33446E-09  1.33237E-09  1.33024E-09  1.32807E-09  1.32586E-09  1.32362E-09  1.32134E-09  1.31903E-09  1.31670E-09
   1.31434E-09  1.31196E-09  1.30957E-09  1.30716E-09  1.30473E-09  1.30230E-09  1.29985E-09  1.29741E-09  1.29496E-09  1.29251E-09
   1.29007E-09  1.28763E-09  1.28520E-09  1.28279E-09  1.28039E-09  1.27801E-09  1.27565E-09  1.27331E-09  1.27100E-09  1.26872E-09
   1.26646E-09  1.26425E-09  1.26207E-09
 Ins      Conc. = 9.83E-11
  -7.66217E-09 -7.46354E-09 -7.34688E-09 -7.30405E-09 -7.12117E-09 -6.80345E-09 -6.62159E-09 -6.47427E-09 -5.97337E-09 -5.34862E-09
  -5.12635E-09 -5.42657E-09 -6.06342E-09 -6.88814E-09 -7.72002E-09 -8.42277E-09 -8.97128E-09 -9.17848E-09 -8.79073E-09 -8.13345E-09
  -7.73445E-09 -7.44621E-09 -7.12034E-09 -6.88046E-09 -6.74821E-09 -6.67323E-09 -6.64155E-09 -6.69160E-09 -6.79724E-09 -6.90664E-09
  -6.98737E-09 -6.98984E-09 -6.93392E-09 -6.93472E-09 -6.91323E-09 -6.81208E-09 -6.70552E-09 -6.63852E-09 -6.58906E-09 -6.54478E-09
  -6.50085E-09 -6.45857E-09 -6.41821E-09 -6.37909E-09 -6.34078E-09 -6.30303E-09 -6.26568E-09 -6.22858E-09 -6.19168E-09 -6.15493E-09
  -6.11826E-09 -6.08167E-09 -6.04509E-09 -6.00854E-09 -5.97201E-09 -5.93543E-09 -5.89884E-09 -5.86226E-09 -5.82557E-09 -5.78888E-09
  -5.75215E-09 -5.71533E-09 -5.67848E-09 -5.64156E-09 -5.60460E-09 -5.56755E-09 -5.53045E-09 -5.49326E-09 -5.45600E-09 -5.41869E-09
  -5.38128E-09 -5.34379E-09 -5.30625E-09 -5.26860E-09 -5.23088E-09 -5.19309E-09 -5.15521E-09 -5.11725E-09 -5.07921E-09 -5.04110E-09
  -5.00289E-09 -4.96461E-09 -4.92624E-09 -4.88779E-09 -4.84927E-09 -4.81066E-09 -4.77197E-09 -4.73320E-09 -4.69435E-09 -4.65542E-09
  -4.61640E-09 -4.57731E-09 -4.53812E-09 -4.49888E-09 -4.45954E-09 -4.42012E-09 -4.38062E-09 -4.34104E-09 -4.30138E-09 -4.26164E-09
  -4.22182E-09 -4.18192E-09 -4.14194E-09 -4.10189E-09 -4.06175E-09 -4.02153E-09 -3.98123E-09 -3.94086E-09 -3.90041E-09 -3.85986E-09
  -3.81926E-09 -3.77857E-09 -3.73779E-09 -3.69693E-09 -3.65600E-09 -3.61499E-09 -3.57390E-09 -3.53274E-09 -3.49149E-09 -3.45019E-09
  -3.40877E-09 -3.36730E-09 -3.32574E-09 -3.28411E-09 -3.24241E-09 -3.20062E-09 -3.15874E-09 -3.11681E-09 -3.07478E-09 -3.03268E-09
  -2.99051E-09 -2.94824E-09 -2.90592E-09 -2.86351E-09 -2.82103E-09 -2.77844E-09 -2.73582E-09 -2.69309E-09 -2.65030E-09 -2.60741E-09
  -2.56445E-09 -2.52141E-09 -2.47830E-09 -2.43508E-09 -2.39179E-09 -2.34842E-09 -2.30496E-09 -2.26142E-09 -2.21779E-09 -2.17410E-09
  -2.13033E-09 -2.08648E-09 -2.04256E-09 -1.99855E-09 -1.95443E-09 -1.91017E-09 -1.86575E-09 -1.82108E-09 -1.77606E-09 -1.73051E-09
  -1.68409E-09 -1.63626E-09 -1.58585E-09 -1.53040E-09 -1.46357E-09 -1.36446E-09 -1.12792E-09 -5.25451E-10 -6.21969E-12  1.77190E-10
   1.17782E-11 -3.86556E-10 -9.13142E-10 -1.52500E-09 -2.02628E-09 -2.25790E-09 -2.12386E-09 -1.66861E-09 -1.13836E-09 -9.75184E-10
  -8.93399E-10 -8.34180E-10 -7.83795E-10 -7.37696E-10 -6.93974E-10 -6.51730E-10 -6.10502E-10 -5.70048E-10 -5.30174E-10 -4.90808E-10
  -4.51909E-10 -4.13409E-10 -3.75305E-10 -3.37573E-10 -3.00232E-10 -2.63254E-10 -2.26630E-10 -1.90400E-10 -1.54549E-10 -1.19065E-10
  -8.39681E-11 -4.92629E-11 -1.49631E-11  1.89340E-11  5.24307E-11  8.54909E-11  1.18128E-10  1.50334E-10  1.82107E-10  2.13404E-10
   2.44270E-10  2.74656E-10  3.04565E-10  3.33996E-10  3.62950E-10  3.91388E-10  4.19322E-10  4.46755E-10  4.73649E-10  5.00030E-10
   5.25893E-10  5.51250E-10  5.76098E-10  6.00449E-10  6.24301E-10  6.47667E-10  6.70547E-10  6.92947E-10  7.14871E-10  7.36323E-10
