 LCModel (Version 6.3-1R) Copyright: S.W. Provencher.          Ref.: Magn. Reson. Med. 30:672-679 (1993).                
 onepulse 22x4_ftSpec_smooth_lcm
 26 lines in following concentration table = NCONC+1
    Conc.  %SD /Cr+PCr  Metabolite                                         
 8.67E-10  27%   1.987 Ala                                                 
 3.65E-09  15%   8.359 Asp                                                 
    0.000 999%   0.000 Cr                                                  
 1.39E-09  28%   3.177 GABA                                                
 5.31E-10 102%   1.218 Glc                                                 
    0.000 999%   0.000 Gln                                                 
    0.000 999%   0.000 Glu                                                 
    0.000 999%   0.000 Glyc                                                
 1.42E-10  77%   0.325 GPC                                                 
 7.40E-10  41%   1.696 GSH                                                 
 2.48E-09  15%   5.689 Ins                                                 
 4.69E-11 488%   0.107 Lac                                                 
    0.000 999%   0.000 NAAG                                                
 3.58E-10  44%   0.821 NAA                                                 
    0.000 999%   0.000 PCh                                                 
 4.36E-10  44%   1.000 PCr                                                 
 1.22E-09  62%   2.798 PE                                                  
 1.81E-10  72%   0.415 Scyllo                                              
 6.17E-09  15%  14.153 Ser                                                 
    0.000 999%   0.000 Tau                                                 
 1.42E-10  77%   0.325 GPC+PCh                                             
 3.58E-10  44%   0.821 NAA+NAAG                                            
 2.48E-09  15%   5.689 Ins+Glyc                                            
 4.36E-10  44%   1.000 Cr+PCr                                              
    0.000 999%   0.000 Glu+Gln                                             
   6 lines in following misc. output table
  FWHM = 0.123 ppm    S/N =   7                                            
  Data shift = 0.481 ppm                                                   
  Ph:-150 deg      13.7 deg/ppm                                            
  alphaB,S = 1.0E+01,   6.0E+00                                            
   10 spline knots.   Ns = 5(1)                                            
  (10) 6 infls.   ( 9) 5 extrs.                                            
  363 points on ppm-axis = NY
      4.250000     4.238821     4.227641     4.216462     4.205282     4.194103     4.182923     4.171744     4.160564     4.149385
      4.138206     4.127026     4.115847     4.104667     4.093488     4.082308     4.071129     4.059949     4.048770     4.037591
      4.026411     4.015232     4.004052     3.992873     3.981693     3.970514     3.959334     3.948155     3.936975     3.925796
      3.914617     3.903437     3.892258     3.881078     3.869899     3.858719     3.847540     3.836360     3.825181     3.814002
      3.802822     3.791643     3.780463     3.769284     3.758104     3.746925     3.735745     3.724566     3.713387     3.702207
      3.691028     3.679848     3.668669     3.657489     3.646310     3.635130     3.623951     3.612772     3.601592     3.590413
      3.579233     3.568054     3.556874     3.545695     3.534515     3.523336     3.512156     3.500977     3.489798     3.478618
      3.467439     3.456259     3.445080     3.433900     3.422721     3.411541     3.400362     3.389183     3.378003     3.366824
      3.355644     3.344465     3.333285     3.322106     3.310926     3.299747     3.288568     3.277388     3.266209     3.255029
      3.243850     3.232670     3.221491     3.210311     3.199132     3.187953     3.176773     3.165594     3.154414     3.143235
      3.132055     3.120876     3.109696     3.098517     3.087337     3.076158     3.064979     3.053799     3.042620     3.031440
      3.020261     3.009081     2.997902     2.986722     2.975543     2.964364     2.953184     2.942005     2.930825     2.919646
      2.908466     2.897287     2.886107     2.874928     2.863749     2.852569     2.841390     2.830210     2.819031     2.807851
      2.796672     2.785492     2.774313     2.763134     2.751954     2.740775     2.729595     2.718416     2.707236     2.696057
      2.684877     2.673698     2.662519     2.651339     2.640160     2.628980     2.617801     2.606621     2.595442     2.584262
      2.573083     2.561903     2.550724     2.539545     2.528365     2.517186     2.506006     2.494827     2.483647     2.472468
      2.461288     2.450109     2.438930     2.427750     2.416571     2.405391     2.394212     2.383032     2.371853     2.360673
      2.349494     2.338315     2.327135     2.315956     2.304776     2.293597     2.282417     2.271238     2.260058     2.248879
      2.237700     2.226520     2.215341     2.204161     2.192982     2.181802     2.170623     2.159443     2.148264     2.137084
      2.125905     2.114726     2.103546     2.092367     2.081187     2.070008     2.058828     2.047649     2.036469     2.025290
      2.014111     2.002931     1.991752     1.980572     1.969393     1.958213     1.947034     1.935854     1.924675     1.913496
      1.902316     1.891137     1.879957     1.868778     1.857598     1.846419     1.835239     1.824060     1.812881     1.801701
      1.790522     1.779342     1.768163     1.756983     1.745804     1.734624     1.723445     1.712265     1.701086     1.689907
      1.678727     1.667548     1.656368     1.645189     1.634009     1.622830     1.611650     1.600471     1.589292     1.578112
      1.566933     1.555753     1.544574     1.533394     1.522215     1.511035     1.499856     1.488677     1.477497     1.466318
      1.455138     1.443959     1.432779     1.421600     1.410420     1.399241     1.388062     1.376882     1.365703     1.354523
      1.343344     1.332164     1.320985     1.309805     1.298626     1.287446     1.276267     1.265088     1.253908     1.242729
      1.231549     1.220370     1.209190     1.198011     1.186831     1.175652     1.164473     1.153293     1.142114     1.130934
      1.119755     1.108575     1.097396     1.086216     1.075037     1.063858     1.052678     1.041499     1.030319     1.019140
      1.007960     0.996781     0.985601     0.974422     0.963243     0.952063     0.940884     0.929704     0.918525     0.907345
      0.896166     0.884986     0.873807     0.862628     0.851448     0.840269     0.829089     0.817910     0.806730     0.795551
      0.784371     0.773192     0.762012     0.750833     0.739654     0.728474     0.717295     0.706115     0.694936     0.683756
      0.672577     0.661397     0.650218     0.639039     0.627859     0.616680     0.605500     0.594321     0.583141     0.571962
      0.560782     0.549603     0.538424     0.527244     0.516065     0.504885     0.493706     0.482526     0.471347     0.460167
      0.448988     0.437809     0.426629     0.415450     0.404270     0.393091     0.381911     0.370732     0.359552     0.348373
      0.337193     0.326014     0.314835     0.303655     0.292476     0.281296     0.270117     0.258937     0.247758     0.236578
      0.225399     0.214220     0.203040
 NY phased data points follow
   3.82605E-10  1.01712E-09  9.24283E-12  1.26883E-09  5.57762E-10  1.60073E-09  5.19913E-10  1.56185E-09  1.35828E-09  1.46634E-09
   9.83696E-10  1.20851E-09  2.69055E-10  1.18499E-09  1.10571E-09  9.98687E-10  4.95524E-10  7.64188E-10  1.40364E-10  2.20586E-10
   1.73888E-11  9.82102E-10  1.12160E-09  2.27678E-09  1.98349E-09  2.24656E-09  2.03666E-09  2.22621E-09  1.84857E-09  2.15985E-09
   1.74153E-09  2.04056E-09  2.08672E-09  2.45460E-09  2.15763E-09  2.20485E-09  1.85877E-09  2.02203E-09  1.61004E-09  1.83605E-09
   1.21875E-09  1.40770E-09  1.22030E-09  1.48275E-09  1.09685E-09  7.90658E-10 -1.20667E-10  7.69056E-11 -6.28931E-10 -7.24757E-10
  -1.91936E-09 -1.79340E-09 -1.32725E-09 -5.62919E-10  2.18383E-10  1.03223E-09  1.13430E-09  1.49716E-09  1.37661E-09  2.10426E-09
   1.20938E-09  1.78042E-09  1.18125E-09  8.40767E-10 -4.70855E-10 -1.22124E-09 -2.59522E-09 -2.20640E-09 -2.91125E-09 -1.59751E-09
  -9.85013E-10  7.63749E-10  2.34734E-10  1.41053E-09  1.04945E-09  1.93535E-09  1.72227E-09  2.03613E-09  2.61247E-09  2.46146E-09
   3.07004E-09  3.35389E-09  3.60217E-09  3.65365E-09  3.59936E-09  3.56537E-09  3.50997E-09  3.83775E-09  3.25352E-09  3.43370E-09
   3.10801E-09  2.93159E-09  2.98683E-09  3.08102E-09  2.68918E-09  3.39754E-09  3.36362E-09  3.64955E-09  3.49814E-09  3.13454E-09
   2.82776E-09  3.25829E-09  2.33072E-09  2.53010E-09  2.42499E-09  2.66050E-09  2.69997E-09  2.87469E-09  2.55080E-09  2.42343E-09
   2.26264E-09  2.67915E-09  2.51701E-09  2.60232E-09  1.45251E-09  1.33367E-09  1.27199E-09  1.11132E-09  5.08380E-10  5.27631E-10
   4.05822E-10  3.21513E-10  9.23734E-11  4.37939E-10  3.36745E-10  3.26318E-10 -1.35235E-10  3.01622E-11 -8.70722E-10 -3.15733E-10
   1.10928E-10  3.48755E-10  3.60684E-10  6.27610E-11  3.30920E-11  6.00636E-10  1.03391E-09  8.86471E-10  1.01929E-09  1.50190E-09
   1.77978E-09  2.28207E-09  2.30490E-09  2.17224E-09  2.78687E-09  2.61561E-09  2.80383E-09  3.20256E-09  3.32446E-09  3.84283E-09
   3.89058E-09  4.56748E-09  4.61052E-09  4.62476E-09  4.67081E-09  5.30175E-09  4.92425E-09  4.27614E-09  3.69593E-09  3.24442E-09
   4.62460E-09  6.97467E-09  9.34059E-09  1.13323E-08  1.29296E-08  1.56614E-08  1.75311E-08  1.96073E-08  2.14702E-08  2.29645E-08
   2.45691E-08  2.61719E-08  2.73761E-08  2.79227E-08  2.81772E-08  2.79572E-08  2.68696E-08  2.53113E-08  2.39156E-08  2.13115E-08
   1.84852E-08  1.53864E-08  1.23049E-08  9.53590E-09  6.84406E-09  3.78751E-09  1.87134E-09  6.89803E-10 -3.83271E-10 -8.36334E-11
  -4.08739E-11  7.44557E-10  1.69855E-09  2.62989E-09  3.35345E-09  3.81945E-09  3.50922E-09  3.57993E-09  3.37729E-09  2.71755E-09
   3.08957E-09  2.52150E-09  3.01996E-09  3.26982E-09  4.01070E-09  4.05563E-09  4.36098E-09  4.16662E-09  3.64348E-09  3.02055E-09
   2.47241E-09  2.18829E-09  2.48375E-09  2.48136E-09  3.43290E-09  3.75606E-09  4.27350E-09  4.29711E-09  3.86456E-09  3.40859E-09
   2.97516E-09  2.38442E-09  2.43341E-09  2.72383E-09  2.65503E-09  2.34516E-09  3.23016E-09  2.75210E-09  3.67871E-09  3.49408E-09
   3.88503E-09  3.57968E-09  3.81752E-09  3.65786E-09  3.58302E-09  3.27194E-09  3.40407E-09  3.32832E-09  3.54723E-09  2.71910E-09
   3.59707E-09  2.76900E-09  3.46685E-09  2.77264E-09  3.00246E-09  2.61925E-09  2.77714E-09  2.08893E-09  2.69217E-09  1.89047E-09
   3.19965E-09  2.86745E-09  3.34653E-09  2.69217E-09  3.47470E-09  3.21402E-09  2.92200E-09  2.60000E-09  3.06234E-09  2.01881E-09
   3.24543E-09  2.42932E-09  2.98201E-09  2.17491E-09  2.67309E-09  2.21690E-09  3.23708E-09  2.60650E-09  3.27963E-09  2.68873E-09
   3.65142E-09  2.54406E-09  3.73706E-09  2.70771E-09  3.41348E-09  2.37061E-09  3.67855E-09  2.70291E-09  3.74058E-09  2.48869E-09
   3.38085E-09  2.77084E-09  3.51221E-09  2.63984E-09  3.08327E-09  2.16040E-09  3.35162E-09  2.92130E-09  3.53791E-09  2.50736E-09
   3.47679E-09  2.97438E-09  3.15167E-09  2.99902E-09  3.28287E-09  2.23241E-09  3.56112E-09  3.18126E-09  3.29356E-09  2.83568E-09
   3.61338E-09  2.89350E-09  3.50283E-09  2.77183E-09  3.40090E-09  2.74818E-09  3.56892E-09  2.84200E-09  3.57574E-09  2.96493E-09
   3.39797E-09  2.83192E-09  3.45323E-09  3.26268E-09  3.48547E-09  3.06865E-09  3.64016E-09  3.33611E-09  3.46457E-09  3.09484E-09
   3.23900E-09  3.29681E-09  3.31726E-09  3.21399E-09  3.51211E-09  3.10449E-09  3.67601E-09  3.52591E-09  3.86327E-09  3.11089E-09
   3.41052E-09  3.51414E-09  3.86876E-09  3.35033E-09  3.86744E-09  3.31013E-09  3.37187E-09  3.07989E-09  3.93142E-09  3.25742E-09
   3.72800E-09  3.32783E-09  3.47794E-09  3.30352E-09  3.53910E-09  3.16936E-09  3.70568E-09  3.26482E-09  3.06192E-09  3.25719E-09
   3.54392E-09  3.08551E-09  3.17580E-09  3.13168E-09  2.71789E-09  2.93838E-09  3.33773E-09  2.91649E-09  2.69577E-09  2.97684E-09
   3.12684E-09  2.51487E-09  2.83696E-09
 NY points of the fit to the data follow
   3.70495E-10  1.35350E-09  2.05576E-09  1.39944E-09  1.44827E-10 -8.13058E-10 -1.81722E-09 -7.79076E-10  2.92757E-09  2.64298E-09
  -4.49878E-10 -1.54279E-10  5.75097E-10  2.51560E-09  3.35506E-09  2.36912E-09 -7.41432E-10  1.87536E-09  3.51068E-09  7.09114E-10
  -1.84337E-09 -8.31698E-10  1.40465E-09  2.13578E-09  3.86363E-10  9.69646E-10  2.08137E-09  3.09984E-09  1.75528E-09  1.95579E-09
   2.68986E-09  4.10156E-09  3.86403E-09  2.94483E-09  7.16719E-10  1.36665E-09  1.43687E-09  1.27578E-09  1.06416E-09  1.08647E-09
   1.04709E-09  1.73530E-09  7.54083E-10  1.59381E-10  5.47738E-10  2.57671E-10  2.21543E-09  4.81509E-10 -2.21507E-10  8.24543E-10
   2.07310E-09  1.42406E-09  1.04443E-09  1.88812E-09  2.37994E-09  1.61926E-09  2.86386E-09 -3.44771E-10 -8.71341E-10  3.57101E-10
   1.34398E-09  1.46685E-11  4.43583E-10  4.02492E-10 -1.50588E-10  6.52369E-10  1.01379E-09  7.44695E-10  6.12242E-10  7.66301E-10
   1.25362E-09  1.04120E-09  1.20154E-09  4.70695E-10  1.14718E-09  2.16352E-09  8.17964E-10  1.86378E-09  1.50654E-09  1.31788E-09
   1.74664E-09  1.32913E-09  2.09872E-09  2.42457E-09  1.44908E-09  1.50636E-09  2.65444E-09  2.93501E-09  8.06084E-10  1.01154E-09
   1.20651E-09  9.02650E-10  1.28233E-09  2.00745E-09  1.17879E-09  1.12362E-09  2.05649E-09  1.78895E-09  1.87120E-09  2.98684E-09
   2.66599E-09  2.08540E-09  3.34878E-09  3.71850E-09  3.44012E-09  3.16405E-09  3.03298E-09  3.35618E-09  3.66509E-09  3.98639E-09
   2.47306E-09  1.53282E-09  2.88681E-09  2.20236E-09  1.15493E-09  1.02558E-09  1.06495E-09  1.07836E-09  1.07346E-09  1.22029E-09
   1.25293E-09  1.26300E-09  1.32323E-09  1.39017E-09  1.45701E-09  1.52230E-09  1.58574E-09  1.64723E-09  1.70686E-09  1.76481E-09
   1.82115E-09  1.87600E-09  1.92950E-09  1.98177E-09  2.03288E-09  2.08293E-09  2.13204E-09  2.18029E-09  2.22779E-09  2.27463E-09
   2.32090E-09  2.36671E-09  2.41220E-09  2.45751E-09  2.50274E-09  2.54808E-09  2.59371E-09  2.63986E-09  2.68685E-09  2.73498E-09
   2.78470E-09  2.83654E-09  2.89121E-09  2.94963E-09  3.01308E-09  3.08329E-09  3.16280E-09  3.25529E-09  3.36652E-09  3.50587E-09
   3.68981E-09  3.95000E-09  4.35611E-09  5.09544E-09  6.86167E-09  1.31366E-08  1.69232E-08  2.12370E-08  2.33622E-08  2.46341E-08
   2.45724E-08  2.59739E-08  2.74525E-08  2.71633E-08  2.72615E-08  3.00167E-08  2.81927E-08  2.69332E-08  2.21493E-08  1.57737E-08
   7.99686E-09  5.84307E-09  4.99260E-09  4.55207E-09  4.28891E-09  4.11786E-09  4.00041E-09  3.91669E-09  3.85543E-09  3.80977E-09
   3.77533E-09  3.74913E-09  3.72915E-09  3.71393E-09  3.70240E-09  3.69377E-09  3.68743E-09  3.68293E-09  3.67989E-09  3.67801E-09
   3.67710E-09  3.67693E-09  3.67738E-09  3.67830E-09  3.67960E-09  3.68119E-09  3.68301E-09  3.68497E-09  3.68704E-09  3.68917E-09
   3.69133E-09  3.69348E-09  3.69559E-09  3.69765E-09  3.69962E-09  3.70150E-09  3.70326E-09  3.70489E-09  3.70639E-09  3.70773E-09
   3.70891E-09  3.70993E-09  3.71078E-09  3.71145E-09  3.71193E-09  3.71223E-09  3.71233E-09  3.71224E-09  3.71195E-09  3.71145E-09
   3.71076E-09  3.70986E-09  3.70875E-09  3.70743E-09  3.70591E-09  3.70417E-09  3.70222E-09  3.70007E-09  3.69770E-09  3.69512E-09
   3.69233E-09  3.68933E-09  3.68611E-09  3.68269E-09  3.67906E-09  3.67521E-09  3.67115E-09  3.66689E-09  3.66241E-09  3.65774E-09
   3.65285E-09  3.64775E-09  3.64245E-09  3.63695E-09  3.63123E-09  3.62532E-09  3.61920E-09  3.61289E-09  3.60637E-09  3.59965E-09
   3.59273E-09  3.58561E-09  3.57830E-09  3.57079E-09  3.56308E-09  3.55518E-09  3.54708E-09  3.53879E-09  3.53030E-09  3.52163E-09
   3.51276E-09  3.50369E-09  3.49444E-09  3.48500E-09  3.47537E-09  3.46555E-09  3.45554E-09  3.44535E-09  3.43498E-09  3.42441E-09
   3.41367E-09  3.40274E-09  3.39163E-09  3.38033E-09  3.36886E-09  3.35721E-09  3.34538E-09  3.33337E-09  3.32118E-09  3.30882E-09
   3.29629E-09  3.28358E-09  3.27070E-09  3.25764E-09  3.24442E-09  3.23102E-09  3.21746E-09  3.20372E-09  3.18982E-09  3.17576E-09
   3.16153E-09  3.14713E-09  3.13258E-09  3.11786E-09  3.10298E-09  3.08794E-09  3.07274E-09  3.05738E-09  3.04187E-09  3.02620E-09
   3.01038E-09  2.99441E-09  2.97828E-09  2.96200E-09  2.94557E-09  2.92899E-09  2.91226E-09  2.89539E-09  2.87838E-09  2.86122E-09
   2.84391E-09  2.82647E-09  2.80888E-09  2.79116E-09  2.77330E-09  2.75530E-09  2.73716E-09  2.71890E-09  2.70050E-09  2.68196E-09
   2.66330E-09  2.64451E-09  2.62559E-09  2.60655E-09  2.58738E-09  2.56808E-09  2.54867E-09  2.52913E-09  2.50947E-09  2.48969E-09
   2.46980E-09  2.44979E-09  2.42967E-09  2.40943E-09  2.38908E-09  2.36862E-09  2.34806E-09  2.32738E-09  2.30660E-09  2.28571E-09
   2.26472E-09  2.24363E-09  2.22243E-09  2.20114E-09  2.17975E-09  2.15826E-09  2.13668E-09  2.11501E-09  2.09324E-09  2.07138E-09
   2.04943E-09  2.02740E-09  2.00528E-09
 NY background values follow
     3.440E-10    3.509E-10    3.578E-10    3.647E-10    3.715E-10    3.784E-10    3.853E-10    3.921E-10    3.989E-10    4.057E-10
     4.126E-10    4.194E-10    4.261E-10    4.329E-10    4.397E-10    4.464E-10    4.532E-10    4.599E-10    4.666E-10    4.733E-10
     4.800E-10    4.866E-10    4.933E-10    4.999E-10    5.065E-10    5.131E-10    5.197E-10    5.263E-10    5.328E-10    5.394E-10
     5.459E-10    5.524E-10    5.588E-10    5.653E-10    5.717E-10    5.781E-10    5.845E-10    5.909E-10    5.973E-10    6.036E-10
     6.099E-10    6.162E-10    6.225E-10    6.287E-10    6.349E-10    6.411E-10    6.473E-10    6.534E-10    6.595E-10    6.656E-10
     6.717E-10    6.777E-10    6.837E-10    6.897E-10    6.957E-10    7.016E-10    7.075E-10    7.134E-10    7.192E-10    7.250E-10
     7.308E-10    7.366E-10    7.423E-10    7.480E-10    7.536E-10    7.593E-10    7.649E-10    7.704E-10    7.759E-10    7.814E-10
     7.869E-10    7.923E-10    7.977E-10    8.031E-10    8.084E-10    8.137E-10    8.189E-10    8.242E-10    8.293E-10    8.345E-10
     8.396E-10    8.447E-10    8.497E-10    8.547E-10    8.596E-10    8.645E-10    8.694E-10    8.742E-10    8.790E-10    8.838E-10
     8.885E-10    8.931E-10    8.978E-10    9.023E-10    9.069E-10    9.114E-10    9.158E-10    9.202E-10    9.246E-10    9.289E-10
     9.332E-10    9.374E-10    9.416E-10    9.457E-10    9.498E-10    9.539E-10    9.579E-10    9.618E-10    9.657E-10    9.696E-10
     9.734E-10    9.771E-10    9.808E-10    9.845E-10    9.881E-10    9.917E-10    9.952E-10    9.986E-10    1.002E-09    1.005E-09
     1.009E-09    1.012E-09    1.015E-09    1.018E-09    1.021E-09    1.024E-09    1.027E-09    1.030E-09    1.033E-09    1.036E-09
     1.039E-09    1.041E-09    1.044E-09    1.047E-09    1.049E-09    1.052E-09    1.054E-09    1.057E-09    1.059E-09    1.061E-09
     1.063E-09    1.065E-09    1.067E-09    1.069E-09    1.071E-09    1.073E-09    1.075E-09    1.077E-09    1.079E-09    1.080E-09
     1.082E-09    1.083E-09    1.085E-09    1.086E-09    1.088E-09    1.089E-09    1.090E-09    1.091E-09    1.092E-09    1.093E-09
     1.094E-09    1.095E-09    1.096E-09    1.097E-09    1.098E-09    1.098E-09    1.099E-09    1.099E-09    1.100E-09    1.100E-09
     1.101E-09    1.101E-09    1.101E-09    1.101E-09    1.101E-09    1.101E-09    1.101E-09    1.101E-09    1.101E-09    1.101E-09
     1.101E-09    1.101E-09    1.100E-09    1.100E-09    1.099E-09    1.099E-09    1.098E-09    1.098E-09    1.097E-09    1.096E-09
     1.095E-09    1.095E-09    1.094E-09    1.093E-09    1.092E-09    1.091E-09    1.089E-09    1.088E-09    1.087E-09    1.086E-09
     1.085E-09    1.083E-09    1.082E-09    1.080E-09    1.079E-09    1.077E-09    1.076E-09    1.074E-09    1.072E-09    1.070E-09
     1.069E-09    1.067E-09    1.065E-09    1.063E-09    1.061E-09    1.059E-09    1.057E-09    1.054E-09    1.052E-09    1.050E-09
     1.048E-09    1.045E-09    1.043E-09    1.041E-09    1.038E-09    1.036E-09    1.033E-09    1.030E-09    1.028E-09    1.025E-09
     1.022E-09    1.019E-09    1.017E-09    1.014E-09    1.011E-09    1.008E-09    1.005E-09    1.002E-09    9.988E-10    9.957E-10
     9.925E-10    9.893E-10    9.860E-10    9.827E-10    9.794E-10    9.760E-10    9.726E-10    9.692E-10    9.657E-10    9.621E-10
     9.586E-10    9.549E-10    9.513E-10    9.476E-10    9.439E-10    9.401E-10    9.363E-10    9.324E-10    9.285E-10    9.246E-10
     9.206E-10    9.166E-10    9.126E-10    9.085E-10    9.044E-10    9.002E-10    8.960E-10    8.918E-10    8.875E-10    8.831E-10
     8.788E-10    8.744E-10    8.699E-10    8.654E-10    8.609E-10    8.563E-10    8.517E-10    8.470E-10    8.423E-10    8.376E-10
     8.328E-10    8.280E-10    8.231E-10    8.182E-10    8.132E-10    8.082E-10    8.032E-10    7.981E-10    7.930E-10    7.878E-10
     7.826E-10    7.773E-10    7.720E-10    7.667E-10    7.613E-10    7.558E-10    7.503E-10    7.448E-10    7.392E-10    7.336E-10
     7.280E-10    7.222E-10    7.165E-10    7.107E-10    7.048E-10    6.990E-10    6.930E-10    6.870E-10    6.810E-10    6.749E-10
     6.688E-10    6.627E-10    6.565E-10    6.502E-10    6.439E-10    6.376E-10    6.312E-10    6.248E-10    6.183E-10    6.118E-10
     6.052E-10    5.986E-10    5.920E-10    5.853E-10    5.786E-10    5.718E-10    5.650E-10    5.581E-10    5.512E-10    5.443E-10
     5.373E-10    5.302E-10    5.232E-10    5.161E-10    5.089E-10    5.017E-10    4.945E-10    4.872E-10    4.798E-10    4.725E-10
     4.651E-10    4.576E-10    4.502E-10    4.426E-10    4.351E-10    4.275E-10    4.198E-10    4.121E-10    4.044E-10    3.967E-10
     3.889E-10    3.810E-10    3.732E-10    3.653E-10    3.573E-10    3.494E-10    3.413E-10    3.333E-10    3.252E-10    3.171E-10
     3.089E-10    3.008E-10    2.925E-10
 Ala      Conc. = 8.67E-10
   9.08842E-10  8.65579E-10  8.94721E-10  8.09753E-10  7.08526E-10  8.27076E-10  7.71219E-10  2.50911E-10  5.69864E-10  7.86418E-10
   2.34175E-10  3.12134E-10  4.86983E-10  3.70398E-10  3.65287E-10  3.85981E-10  4.10656E-10  4.34962E-10  4.57926E-10  4.79417E-10
   4.99536E-10  5.18442E-10  5.36289E-10  5.53221E-10  5.69360E-10  5.84810E-10  5.99659E-10  6.13982E-10  6.27843E-10  6.41296E-10
   6.54386E-10  6.67158E-10  6.79642E-10  6.91871E-10  7.03872E-10  7.15669E-10  7.27282E-10  7.38730E-10  7.50031E-10  7.61201E-10
   7.72251E-10  7.83196E-10  7.94048E-10  8.04818E-10  8.15516E-10  8.26153E-10  8.36735E-10  8.47274E-10  8.57779E-10  8.68259E-10
   8.78718E-10  8.89167E-10  8.99614E-10  9.10068E-10  9.20539E-10  9.31033E-10  9.41560E-10  9.52129E-10  9.62752E-10  9.73437E-10
   9.84196E-10  9.95040E-10  1.00598E-09  1.01704E-09  1.02822E-09  1.03955E-09  1.05104E-09  1.06271E-09  1.07458E-09  1.08668E-09
   1.09903E-09  1.11167E-09  1.12463E-09  1.13795E-09  1.15167E-09  1.16584E-09  1.18051E-09  1.19577E-09  1.21168E-09  1.22834E-09
   1.24585E-09  1.26434E-09  1.28397E-09  1.30491E-09  1.32741E-09  1.35173E-09  1.37824E-09  1.40738E-09  1.43974E-09  1.47608E-09
   1.51746E-09  1.56534E-09  1.62181E-09  1.69008E-09  1.77521E-09  1.88591E-09  2.03874E-09  2.26987E-09  2.67651E-09  3.55326E-09
   3.28175E-09  2.73962E-09  3.97538E-09  4.29029E-09  3.94237E-09  3.58298E-09  3.34288E-09  3.58606E-09  3.86798E-09  4.05971E-09
   2.46572E-09  1.48002E-09  2.78213E-09  2.05129E-09  9.34042E-10  7.39366E-10  7.08854E-10  7.19141E-10  7.41282E-10  7.66452E-10
   7.91578E-10  8.15558E-10  8.38038E-10  8.58966E-10  8.78407E-10  8.96479E-10  9.13301E-10  9.28999E-10  9.43680E-10  9.57447E-10
   9.70389E-10  9.82585E-10  9.94105E-10  1.00501E-09  1.01535E-09  1.02518E-09  1.03454E-09  1.04347E-09  1.05200E-09  1.06016E-09
   1.06799E-09  1.07550E-09  1.08273E-09  1.08969E-09  1.09640E-09  1.10290E-09  1.10919E-09  1.11531E-09  1.12127E-09  1.12710E-09
   1.13282E-09  1.13847E-09  1.14410E-09  1.14973E-09  1.15544E-09  1.16131E-09  1.16746E-09  1.17405E-09  1.18133E-09  1.18971E-09
   1.19984E-09  1.21294E-09  1.23142E-09  1.26087E-09  1.31688E-09  1.45935E-09  2.03759E-09  2.55806E-09  2.10121E-09  1.98174E-09
   2.12516E-09  2.41162E-09  2.56776E-09  2.35023E-09  2.14235E-09  2.18152E-09  2.79738E-09  2.88880E-09  1.69277E-09  1.42423E-09
   1.33411E-09  1.29274E-09  1.27004E-09  1.25613E-09  1.24692E-09  1.24048E-09  1.23576E-09  1.23218E-09  1.22936E-09  1.22708E-09
   1.22517E-09  1.22353E-09  1.22208E-09  1.22076E-09  1.21954E-09  1.21837E-09  1.21725E-09  1.21614E-09  1.21504E-09  1.21393E-09
   1.21281E-09  1.21166E-09  1.21048E-09  1.20927E-09  1.20802E-09  1.20672E-09  1.20539E-09  1.20401E-09  1.20258E-09  1.20109E-09
   1.19956E-09  1.19798E-09  1.19634E-09  1.19466E-09  1.19291E-09  1.19111E-09  1.18926E-09  1.18735E-09  1.18539E-09  1.18337E-09
   1.18130E-09  1.17917E-09  1.17699E-09  1.17475E-09  1.17246E-09  1.17011E-09  1.16772E-09  1.16526E-09  1.16275E-09  1.16019E-09
   1.15757E-09  1.15490E-09  1.15218E-09  1.14940E-09  1.14658E-09  1.14369E-09  1.14076E-09  1.13777E-09  1.13474E-09  1.13165E-09
   1.12851E-09  1.12532E-09  1.12208E-09  1.11878E-09  1.11544E-09  1.11205E-09  1.10861E-09  1.10511E-09  1.10157E-09  1.09798E-09
   1.09434E-09  1.09066E-09  1.08692E-09  1.08314E-09  1.07930E-09  1.07543E-09  1.07150E-09  1.06752E-09  1.06350E-09  1.05943E-09
   1.05532E-09  1.05116E-09  1.04695E-09  1.04269E-09  1.03839E-09  1.03403E-09  1.02963E-09  1.02519E-09  1.02069E-09  1.01615E-09
   1.01156E-09  1.00692E-09  1.00223E-09  9.97493E-10  9.92706E-10  9.87872E-10  9.82988E-10  9.78055E-10  9.73073E-10  9.68042E-10
   9.62961E-10  9.57832E-10  9.52651E-10  9.47420E-10  9.42142E-10  9.36813E-10  9.31434E-10  9.26004E-10  9.20525E-10  9.14997E-10
   9.09419E-10  9.03789E-10  8.98109E-10  8.92380E-10  8.86599E-10  8.80770E-10  8.74889E-10  8.68958E-10  8.62977E-10  8.56946E-10
   8.50865E-10  8.44732E-10  8.38550E-10  8.32318E-10  8.26034E-10  8.19702E-10  8.13320E-10  8.06886E-10  8.00404E-10  7.93870E-10
   7.87287E-10  7.80656E-10  7.73975E-10  7.67243E-10  7.60461E-10  7.53630E-10  7.46751E-10  7.39822E-10  7.32844E-10  7.25818E-10
   7.18745E-10  7.11622E-10  7.04451E-10  6.97232E-10  6.89966E-10  6.82652E-10  6.75291E-10  6.67883E-10  6.60428E-10  6.52927E-10
   6.45379E-10  6.37786E-10  6.30145E-10  6.22461E-10  6.14729E-10  6.06953E-10  5.99133E-10  5.91268E-10  5.83358E-10  5.75404E-10
   5.67407E-10  5.59367E-10  5.51283E-10  5.43156E-10  5.34987E-10  5.26775E-10  5.18522E-10  5.10227E-10  5.01891E-10  4.93514E-10
   4.85096E-10  4.76638E-10  4.68141E-10  4.59604E-10  4.51027E-10  4.42412E-10  4.33760E-10  4.25068E-10  4.16339E-10  4.07573E-10
   3.98771E-10  3.89932E-10  3.81057E-10
 Asp      Conc. = 3.65E-09
   2.46945E-09  2.42338E-09  1.92005E-09  4.35962E-10  4.52356E-10  2.89291E-10 -2.29781E-10  3.84539E-10 -7.29054E-10 -6.52474E-10
  -4.19867E-10 -2.08728E-10 -3.02850E-11  1.18953E-10  2.55313E-10  3.92290E-10  5.03037E-10  6.03932E-10  6.98321E-10  7.87894E-10
   8.73949E-10  9.57580E-10  1.03975E-09  1.12136E-09  1.20327E-09  1.28633E-09  1.37145E-09  1.45962E-09  1.55199E-09  1.64991E-09
   1.75506E-09  1.86961E-09  1.99649E-09  2.13987E-09  2.30602E-09  2.50517E-09  2.75521E-09  3.08263E-09  3.27406E-09  3.22064E-09
   3.20591E-09  3.25507E-09  3.70756E-09  4.29858E-09  5.17521E-09  4.87310E-09  6.09293E-09  4.67820E-09  4.06279E-09  4.63524E-09
   5.24551E-09  4.19906E-09  3.54871E-09  3.88059E-09  3.92441E-09  3.25837E-09  4.15469E-09  5.80626E-10 -1.95272E-10  8.66043E-10
   1.47574E-09 -2.24643E-12  2.08851E-10  3.66223E-10 -5.07507E-10 -2.90976E-10  5.22307E-10  2.71157E-10 -4.02710E-11 -9.03981E-11
  -7.38004E-11 -3.58995E-11  9.24116E-12  5.63047E-11  1.03038E-10  1.48450E-10  1.92121E-10  2.33901E-10  2.73777E-10  3.11812E-10
   3.48089E-10  3.82715E-10  4.15791E-10  4.47424E-10  4.77713E-10  5.06744E-10  5.34607E-10  5.61380E-10  5.87136E-10  6.11941E-10
   6.35852E-10  6.58931E-10  6.81223E-10  7.02779E-10  7.23642E-10  7.43844E-10  7.63427E-10  7.82425E-10  8.00869E-10  8.18773E-10
   8.36182E-10  8.53116E-10  8.69594E-10  8.85638E-10  9.01260E-10  9.16487E-10  9.31337E-10  9.45823E-10  9.59958E-10  9.73742E-10
   9.87211E-10  1.00038E-09  1.01324E-09  1.02580E-09  1.03809E-09  1.05010E-09  1.06185E-09  1.07335E-09  1.08459E-09  1.09560E-09
   1.10638E-09  1.11693E-09  1.12725E-09  1.13737E-09  1.14728E-09  1.15699E-09  1.16650E-09  1.17582E-09  1.18496E-09  1.19392E-09
   1.20270E-09  1.21131E-09  1.21976E-09  1.22805E-09  1.23619E-09  1.24418E-09  1.25203E-09  1.25974E-09  1.26733E-09  1.27480E-09
   1.28215E-09  1.28940E-09  1.29656E-09  1.30363E-09  1.31064E-09  1.31760E-09  1.32452E-09  1.33143E-09  1.33836E-09  1.34534E-09
   1.35240E-09  1.35962E-09  1.36704E-09  1.37475E-09  1.38286E-09  1.39152E-09  1.40094E-09  1.41139E-09  1.42328E-09  1.43719E-09
   1.45403E-09  1.47525E-09  1.50330E-09  1.54265E-09  1.60221E-09  1.70235E-09  1.89930E-09  2.40242E-09  4.40970E-09  7.47636E-09
   5.42322E-09  4.73669E-09  5.25122E-09  6.42112E-09  7.37190E-09  6.48278E-09  5.56063E-09  5.43558E-09  7.80360E-09  9.44821E-09
   3.84411E-09  2.52159E-09  2.08770E-09  1.88894E-09  1.77901E-09  1.71074E-09  1.66489E-09  1.63234E-09  1.60824E-09  1.58981E-09
   1.57533E-09  1.56371E-09  1.55418E-09  1.54624E-09  1.53953E-09  1.53376E-09  1.52874E-09  1.52432E-09  1.52038E-09  1.51681E-09
   1.51356E-09  1.51055E-09  1.50775E-09  1.50511E-09  1.50259E-09  1.50018E-09  1.49786E-09  1.49558E-09  1.49335E-09  1.49116E-09
   1.48898E-09  1.48682E-09  1.48465E-09  1.48247E-09  1.48028E-09  1.47807E-09  1.47584E-09  1.47358E-09  1.47129E-09  1.46895E-09
   1.46659E-09  1.46417E-09  1.46172E-09  1.45922E-09  1.45667E-09  1.45407E-09  1.45143E-09  1.44873E-09  1.44597E-09  1.44317E-09
   1.44031E-09  1.43739E-09  1.43442E-09  1.43140E-09  1.42831E-09  1.42517E-09  1.42197E-09  1.41871E-09  1.41540E-09  1.41202E-09
