 LCModel (Version 6.3-1R) Copyright: S.W. Provencher.          Ref.: Magn. Reson. Med. 30:672-679 (1993).                
 onepulse 22x5_ftSpec_smooth_lcm
 26 lines in following concentration table = NCONC+1
    Conc.  %SD   /Cr    Metabolite                                         
    0.000 999%   0.000 Ala                                                 
 5.01E-10 191%   0.000 Asp                                                 
    0.000 999%   0.000 Cr                                                  
 2.37E-09  27%   0.000 GABA                                                
 1.57E-09  74%   0.000 Glc                                                 
    0.000 999%   0.000 Gln                                                 
    0.000 999%   0.000 Glu                                                 
    0.000 999%   0.000 Glyc                                                
    0.000 999%   0.000 GPC                                                 
    0.000 999%   0.000 GSH                                                 
 3.42E-10 190%   0.000 Ins                                                 
    0.000 999%   0.000 Lac                                                 
    0.000 999%   0.000 NAAG                                                
 6.11E-10  51%   0.000 NAA                                                 
 8.59E-11 149%   0.000 PCh                                                 
    0.000 999%   0.000 PCr                                                 
    0.000 999%   0.000 PE                                                  
 1.60E-12 999%   0.000 Scyllo                                              
 9.90E-10 119%   0.000 Ser                                                 
    0.000 999%   0.000 Tau                                                 
 8.59E-11 149%   0.000 GPC+PCh                                             
 6.11E-10  51%   0.000 NAA+NAAG                                            
 3.42E-10 190%   0.000 Ins+Glyc                                            
    0.000 999%   0.000 Cr+PCr                                              
    0.000 999%   0.000 Glu+Gln                                             
   6 lines in following misc. output table
  FWHM = 0.101 ppm    S/N =   2                                            
  Data shift = 0.302 ppm                                                   
  Ph: -12 deg     -31.8 deg/ppm                                            
  alphaB,S = 7.4E-01,   2.6E+01                                            
    8 spline knots.   Ns = 5(1)                                            
  ( 8) 3 infls.   ( 5) 1 extrs.                                            
  363 points on ppm-axis = NY
      4.250000     4.238821     4.227641     4.216462     4.205282     4.194103     4.182923     4.171744     4.160564     4.149385
      4.138206     4.127026     4.115847     4.104667     4.093488     4.082308     4.071129     4.059949     4.048770     4.037591
      4.026411     4.015232     4.004052     3.992873     3.981693     3.970514     3.959334     3.948155     3.936975     3.925796
      3.914617     3.903437     3.892258     3.881078     3.869899     3.858719     3.847540     3.836360     3.825181     3.814002
      3.802822     3.791643     3.780463     3.769284     3.758104     3.746925     3.735745     3.724566     3.713387     3.702207
      3.691028     3.679848     3.668669     3.657489     3.646310     3.635130     3.623951     3.612772     3.601592     3.590413
      3.579233     3.568054     3.556874     3.545695     3.534515     3.523336     3.512156     3.500977     3.489798     3.478618
      3.467439     3.456259     3.445080     3.433900     3.422721     3.411541     3.400362     3.389183     3.378003     3.366824
      3.355644     3.344465     3.333285     3.322106     3.310926     3.299747     3.288568     3.277388     3.266209     3.255029
      3.243850     3.232670     3.221491     3.210311     3.199132     3.187953     3.176773     3.165594     3.154414     3.143235
      3.132055     3.120876     3.109696     3.098517     3.087337     3.076158     3.064979     3.053799     3.042620     3.031440
      3.020261     3.009081     2.997902     2.986722     2.975543     2.964364     2.953184     2.942005     2.930825     2.919646
      2.908466     2.897287     2.886107     2.874928     2.863749     2.852569     2.841390     2.830210     2.819031     2.807851
      2.796672     2.785492     2.774313     2.763134     2.751954     2.740775     2.729595     2.718416     2.707236     2.696057
      2.684877     2.673698     2.662519     2.651339     2.640160     2.628980     2.617801     2.606621     2.595442     2.584262
      2.573083     2.561903     2.550724     2.539545     2.528365     2.517186     2.506006     2.494827     2.483647     2.472468
      2.461288     2.450109     2.438930     2.427750     2.416571     2.405391     2.394212     2.383032     2.371853     2.360673
      2.349494     2.338315     2.327135     2.315956     2.304776     2.293597     2.282417     2.271238     2.260058     2.248879
      2.237700     2.226520     2.215341     2.204161     2.192982     2.181802     2.170623     2.159443     2.148264     2.137084
      2.125905     2.114726     2.103546     2.092367     2.081187     2.070008     2.058828     2.047649     2.036469     2.025290
      2.014111     2.002931     1.991752     1.980572     1.969393     1.958213     1.947034     1.935854     1.924675     1.913496
      1.902316     1.891137     1.879957     1.868778     1.857598     1.846419     1.835239     1.824060     1.812881     1.801701
      1.790522     1.779342     1.768163     1.756983     1.745804     1.734624     1.723445     1.712265     1.701086     1.689907
      1.678727     1.667548     1.656368     1.645189     1.634009     1.622830     1.611650     1.600471     1.589292     1.578112
      1.566933     1.555753     1.544574     1.533394     1.522215     1.511035     1.499856     1.488677     1.477497     1.466318
      1.455138     1.443959     1.432779     1.421600     1.410420     1.399241     1.388062     1.376882     1.365703     1.354523
      1.343344     1.332164     1.320985     1.309805     1.298626     1.287446     1.276267     1.265088     1.253908     1.242729
      1.231549     1.220370     1.209190     1.198011     1.186831     1.175652     1.164473     1.153293     1.142114     1.130934
      1.119755     1.108575     1.097396     1.086216     1.075037     1.063858     1.052678     1.041499     1.030319     1.019140
      1.007960     0.996781     0.985601     0.974422     0.963243     0.952063     0.940884     0.929704     0.918525     0.907345
      0.896166     0.884986     0.873807     0.862628     0.851448     0.840269     0.829089     0.817910     0.806730     0.795551
      0.784371     0.773192     0.762012     0.750833     0.739654     0.728474     0.717295     0.706115     0.694936     0.683756
      0.672577     0.661397     0.650218     0.639039     0.627859     0.616680     0.605500     0.594321     0.583141     0.571962
      0.560782     0.549603     0.538424     0.527244     0.516065     0.504885     0.493706     0.482526     0.471347     0.460167
      0.448988     0.437809     0.426629     0.415450     0.404270     0.393091     0.381911     0.370732     0.359552     0.348373
      0.337193     0.326014     0.314835     0.303655     0.292476     0.281296     0.270117     0.258937     0.247758     0.236578
      0.225399     0.214220     0.203040
 NY phased data points follow
   9.53470E-09  1.07547E-08  1.27230E-08  1.31216E-08  1.44300E-08  1.25800E-08  1.21075E-08  1.04090E-08  1.05884E-08  9.84735E-09
   9.93997E-09  9.12538E-09  1.02344E-08  1.00217E-08  1.07818E-08  1.02882E-08  1.10581E-08  1.03893E-08  1.18672E-08  1.09308E-08
   1.14268E-08  1.03980E-08  1.08484E-08  1.07703E-08  1.02472E-08  9.77530E-09  1.02391E-08  9.82259E-09  1.09024E-08  1.07902E-08
   1.02834E-08  9.99162E-09  1.06384E-08  1.02296E-08  1.10785E-08  1.13653E-08  1.23060E-08  1.18220E-08  1.18840E-08  1.06975E-08
   1.00872E-08  9.69006E-09  9.50708E-09  8.92593E-09  9.32656E-09  8.83964E-09  9.05116E-09  8.80905E-09  8.80000E-09  8.07909E-09
   7.92648E-09  7.49374E-09  7.94218E-09  7.49931E-09  7.92236E-09  7.40123E-09  7.69574E-09  7.63544E-09  7.92424E-09  7.41226E-09
   7.40746E-09  6.79960E-09  7.95402E-09  7.90412E-09  8.82071E-09  8.70173E-09  1.04134E-08  1.17287E-08  1.24023E-08  1.19443E-08
   1.19983E-08  1.06086E-08  1.02965E-08  9.39839E-09  9.55749E-09  8.09746E-09  8.25685E-09  7.41291E-09  7.28186E-09  6.89189E-09
   7.70240E-09  8.14099E-09  1.05742E-08  1.15870E-08  1.36624E-08  1.42039E-08  1.44620E-08  1.29576E-08  1.27212E-08  1.23231E-08
   1.18853E-08  1.16410E-08  1.08137E-08  1.12926E-08  1.05397E-08  1.02484E-08  1.02038E-08  9.42363E-09  8.85017E-09  8.24575E-09
   8.25731E-09  7.52523E-09  7.77239E-09  6.81815E-09  7.06078E-09  6.74288E-09  6.92044E-09  6.97939E-09  7.23970E-09  6.70898E-09
   7.31111E-09  6.83684E-09  6.64109E-09  6.00370E-09  5.65209E-09  5.41917E-09  6.03903E-09  5.28784E-09  5.70527E-09  5.99491E-09
   6.14136E-09  6.11582E-09  6.16611E-09  5.68442E-09  5.68950E-09  5.74941E-09  5.92744E-09  5.57738E-09  5.22514E-09  4.44901E-09
   4.66437E-09  5.37043E-09  5.40293E-09  5.38085E-09  5.80821E-09  6.32198E-09  6.37941E-09  6.55764E-09  7.06300E-09  7.20881E-09
   7.25012E-09  6.88826E-09  7.45986E-09  7.49832E-09  8.19846E-09  9.63478E-09  9.08323E-09  9.29974E-09  9.03593E-09  9.52972E-09
   1.00669E-08  1.04431E-08  9.87890E-09  1.01727E-08  1.04081E-08  1.03936E-08  1.03242E-08  1.01387E-08  9.58225E-09  9.96677E-09
   1.00008E-08  9.86577E-09  1.01502E-08  9.97054E-09  1.02503E-08  9.93735E-09  1.02324E-08  9.89179E-09  9.49843E-09  9.47833E-09
   9.69026E-09  9.82053E-09  8.92274E-09  9.90148E-09  1.11860E-08  1.44707E-08  1.68009E-08  1.76111E-08  1.70549E-08  1.60646E-08
   1.53235E-08  1.44158E-08  1.20279E-08  1.05138E-08  7.74337E-09  5.99632E-09  3.14910E-09  7.07517E-10 -2.89178E-09 -5.62010E-09
  -9.25431E-09 -1.20728E-08 -1.53597E-08 -1.71250E-08 -1.98294E-08 -2.12969E-08 -2.24131E-08 -2.23522E-08 -2.22346E-08 -2.09558E-08
  -2.00565E-08 -1.79293E-08 -1.54582E-08 -1.31188E-08 -1.07133E-08 -8.47208E-09 -7.16323E-09 -5.63457E-09 -5.07454E-09 -4.28143E-09
  -4.83526E-09 -4.69452E-09 -5.21605E-09 -4.36095E-09 -5.25586E-09 -3.80499E-09 -4.47828E-09 -3.66411E-09 -3.66718E-09 -3.08941E-09
  -3.70907E-09 -3.65421E-09 -4.36467E-09 -4.48158E-09 -4.71713E-09 -4.15698E-09 -4.24477E-09 -3.04358E-09 -3.28232E-09 -2.44225E-09
  -2.88052E-09 -2.98092E-09 -3.60407E-09 -3.76347E-09 -4.41846E-09 -3.83718E-09 -4.34812E-09 -3.37724E-09 -3.43117E-09 -2.84372E-09
  -3.73899E-09 -2.34161E-09 -3.11977E-09 -2.32282E-09 -2.99524E-09 -2.79411E-09 -3.40016E-09 -3.24088E-09 -3.63884E-09 -3.38120E-09
  -3.90482E-09 -3.11872E-09 -3.74891E-09 -3.02546E-09 -4.20765E-09 -2.71177E-09 -3.54581E-09 -2.93204E-09 -3.49123E-09 -2.99157E-09
  -3.32399E-09 -2.85047E-09 -3.56983E-09 -2.45549E-09 -3.12910E-09 -2.23325E-09 -2.44061E-09 -2.69289E-09 -3.39786E-09 -2.98873E-09
  -3.30982E-09 -3.56698E-09 -4.16040E-09 -2.94664E-09 -4.12773E-09 -2.72279E-09 -3.30536E-09 -2.96265E-09 -3.30307E-09 -2.72545E-09
  -2.88449E-09 -1.88243E-09 -2.46404E-09 -2.32132E-09 -2.73053E-09 -2.18104E-09 -3.17159E-09 -2.39235E-09 -2.85600E-09 -2.91631E-09
  -3.32093E-09 -2.64778E-09 -2.85403E-09 -2.86624E-09 -3.23916E-09 -3.31265E-09 -3.03813E-09 -3.11323E-09 -3.41208E-09 -3.65993E-09
  -3.50777E-09 -3.07257E-09 -2.88954E-09 -3.24974E-09 -3.53673E-09 -3.58890E-09 -3.18154E-09 -3.89658E-09 -3.56358E-09 -3.49414E-09
  -3.99507E-09 -3.32752E-09 -3.07548E-09 -3.76261E-09 -3.97104E-09 -3.51917E-09 -3.90440E-09 -3.95460E-09 -3.92559E-09 -4.06609E-09
  -3.87947E-09 -3.73464E-09 -3.89174E-09 -4.07736E-09 -3.92331E-09 -4.41865E-09 -3.98598E-09 -4.24142E-09 -3.82990E-09 -4.23907E-09
  -4.38912E-09 -4.32803E-09 -4.11465E-09 -4.75538E-09 -4.45065E-09 -4.57245E-09 -4.24693E-09 -4.50849E-09 -4.66107E-09 -4.39676E-09
  -4.64862E-09 -4.33800E-09 -4.46082E-09 -4.68953E-09 -5.04068E-09 -5.13829E-09 -4.73388E-09 -4.63753E-09 -5.10991E-09 -5.02569E-09
  -5.19733E-09 -5.50055E-09 -5.48988E-09 -5.03193E-09 -5.13545E-09 -5.63979E-09 -5.30463E-09 -5.77663E-09 -5.50876E-09 -5.64417E-09
  -5.68916E-09 -5.80313E-09 -5.59772E-09
 NY points of the fit to the data follow
   1.28746E-08  1.22160E-08  1.18701E-08  1.20580E-08  1.21596E-08  1.18819E-08  1.12293E-08  1.05982E-08  9.97639E-09  9.51147E-09
   9.38269E-09  9.40178E-09  9.59291E-09  1.00810E-08  1.06967E-08  1.11713E-08  1.15240E-08  1.17112E-08  1.15504E-08  1.13388E-08
   1.14332E-08  1.16372E-08  1.15909E-08  1.12993E-08  1.05989E-08  9.72958E-09  9.32696E-09  9.27252E-09  9.49746E-09  1.00324E-08
   1.05346E-08  1.08299E-08  1.12565E-08  1.14552E-08  1.11483E-08  1.11608E-08  1.15170E-08  1.17614E-08  1.18131E-08  1.16386E-08
   1.13637E-08  1.12130E-08  1.06281E-08  9.55895E-09  9.16343E-09  8.99853E-09  8.33154E-09  7.80909E-09  7.65943E-09  7.69669E-09
   7.86851E-09  8.03586E-09  8.10433E-09  7.98474E-09  7.76272E-09  7.62164E-09  7.67806E-09  7.89231E-09  8.01918E-09  8.00011E-09
   8.01614E-09  8.15327E-09  8.60455E-09  9.01478E-09  9.49837E-09  1.02631E-08  1.07783E-08  1.10468E-08  1.14084E-08  1.17606E-08
   1.19770E-08  1.18439E-08  1.13629E-08  1.08437E-08  1.04823E-08  9.49538E-09  8.66138E-09  9.30963E-09  9.79402E-09  9.81251E-09
   9.98233E-09  1.01307E-08  1.04180E-08  1.12234E-08  1.21320E-08  1.26748E-08  1.26771E-08  1.18243E-08  1.05538E-08  1.02896E-08
   1.02595E-08  1.03346E-08  1.05144E-08  1.02493E-08  9.77525E-09  9.76276E-09  9.49175E-09  8.88084E-09  8.61126E-09  8.40725E-09
   8.11322E-09  7.90434E-09  7.75981E-09  7.65300E-09  7.56977E-09  7.50171E-09  7.44404E-09  7.39404E-09  7.34983E-09  7.30991E-09
   7.27289E-09  7.23719E-09  7.20233E-09  7.16792E-09  7.13371E-09  7.09956E-09  7.06514E-09  7.02994E-09  6.99374E-09  6.95638E-09
   6.91770E-09  6.87766E-09  6.83609E-09  6.79288E-09  6.74792E-09  6.70111E-09  6.65235E-09  6.60157E-09  6.54872E-09  6.49371E-09
   6.43647E-09  6.37693E-09  6.31506E-09  6.25080E-09  6.18409E-09  6.11489E-09  6.04316E-09  5.96881E-09  5.89181E-09  5.81214E-09
   5.72978E-09  5.64469E-09  5.55684E-09  5.46617E-09  5.37267E-09  5.27633E-09  5.17720E-09  5.07541E-09  4.97112E-09  4.86448E-09
   4.75567E-09  4.64491E-09  4.53244E-09  4.41856E-09  4.30359E-09  4.18799E-09  4.07230E-09  3.95724E-09  3.84385E-09  3.73360E-09
   3.62874E-09  3.53296E-09  3.45269E-09  3.40062E-09  3.40562E-09  3.55125E-09  4.19836E-09  6.66920E-09  9.02133E-09  1.03216E-08
   1.07818E-08  1.10673E-08  1.18236E-08  1.33426E-08  1.52049E-08  1.61559E-08  1.45461E-08  9.74633E-09  3.96270E-09  2.03861E-09
   1.31452E-09  8.99108E-10  6.01444E-10  3.60095E-10  1.49755E-10 -4.17063E-11 -2.20744E-10 -3.91046E-10 -5.54907E-10 -7.13719E-10
  -8.68386E-10 -1.01955E-09 -1.16759E-09 -1.31280E-09 -1.45530E-09 -1.59525E-09 -1.73271E-09 -1.86767E-09 -2.00013E-09 -2.13011E-09
  -2.25754E-09 -2.38239E-09 -2.50458E-09 -2.62407E-09 -2.74078E-09 -2.85462E-09 -2.96553E-09 -3.07343E-09 -3.17824E-09 -3.27983E-09
  -3.37818E-09 -3.47314E-09 -3.56464E-09 -3.65260E-09 -3.73693E-09 -3.81751E-09 -3.89426E-09 -3.96710E-09 -4.03591E-09 -4.10076E-09
  -4.16170E-09 -4.21886E-09 -4.27227E-09 -4.32204E-09 -4.36824E-09 -4.41097E-09 -4.45029E-09 -4.48629E-09 -4.51905E-09 -4.54864E-09
  -4.57516E-09 -4.59868E-09 -4.61928E-09 -4.63704E-09 -4.65204E-09 -4.66437E-09 -4.67411E-09 -4.68131E-09 -4.68609E-09 -4.68850E-09
  -4.68863E-09 -4.68658E-09 -4.68240E-09 -4.67619E-09 -4.66800E-09 -4.65795E-09 -4.64609E-09 -4.63252E-09 -4.61731E-09 -4.60053E-09
  -4.58228E-09 -4.56262E-09 -4.54166E-09 -4.51943E-09 -4.49604E-09 -4.47159E-09 -4.44613E-09 -4.41973E-09 -4.39250E-09 -4.36449E-09
  -4.33580E-09 -4.30652E-09 -4.27671E-09 -4.24646E-09 -4.21583E-09 -4.18491E-09 -4.15381E-09 -4.12255E-09 -4.09125E-09 -4.05999E-09
  -4.02883E-09 -3.99786E-09 -3.96717E-09 -3.93680E-09 -3.90689E-09 -3.87747E-09 -3.84864E-09 -3.82049E-09 -3.79307E-09 -3.76647E-09
  -3.74080E-09 -3.71609E-09 -3.69247E-09 -3.66997E-09 -3.64870E-09 -3.62873E-09 -3.61016E-09 -3.59301E-09 -3.57743E-09 -3.56347E-09
  -3.55118E-09 -3.54065E-09 -3.53181E-09 -3.52465E-09 -3.51912E-09 -3.51521E-09 -3.51286E-09 -3.51206E-09 -3.51278E-09 -3.51498E-09
  -3.51863E-09 -3.52369E-09 -3.53015E-09 -3.53796E-09 -3.54709E-09 -3.55751E-09 -3.56920E-09 -3.58212E-09 -3.59623E-09 -3.61151E-09
  -3.62793E-09 -3.64544E-09 -3.66403E-09 -3.68366E-09 -3.70430E-09 -3.72591E-09 -3.74847E-09 -3.77194E-09 -3.79629E-09 -3.82150E-09
  -3.84753E-09 -3.87433E-09 -3.90190E-09 -3.93020E-09 -3.95918E-09 -3.98881E-09 -4.01910E-09 -4.04997E-09 -4.08142E-09 -4.11338E-09
  -4.14587E-09 -4.17882E-09 -4.21220E-09 -4.24600E-09 -4.28018E-09 -4.31470E-09 -4.34954E-09 -4.38465E-09 -4.42004E-09 -4.45560E-09
  -4.49139E-09 -4.52731E-09 -4.56338E-09 -4.59953E-09 -4.63571E-09 -4.67197E-09 -4.70820E-09 -4.74441E-09 -4.78054E-09 -4.81659E-09
  -4.85251E-09 -4.88826E-09 -4.92383E-09 -4.95916E-09 -4.99425E-09 -5.02904E-09 -5.06354E-09 -5.09767E-09 -5.13142E-09 -5.16476E-09
  -5.19765E-09 -5.23007E-09 -5.26200E-09
 NY background values follow
     3.798E-09    3.829E-09    3.861E-09    3.893E-09    3.924E-09    3.956E-09    3.988E-09    4.020E-09    4.052E-09    4.083E-09
     4.115E-09    4.147E-09    4.179E-09    4.211E-09    4.243E-09    4.275E-09    4.306E-09    4.338E-09    4.370E-09    4.402E-09
     4.434E-09    4.466E-09    4.497E-09    4.529E-09    4.561E-09    4.593E-09    4.624E-09    4.656E-09    4.687E-09    4.719E-09
     4.750E-09    4.782E-09    4.813E-09    4.844E-09    4.875E-09    4.906E-09    4.937E-09    4.968E-09    4.999E-09    5.030E-09
     5.061E-09    5.091E-09    5.122E-09    5.152E-09    5.182E-09    5.213E-09    5.243E-09    5.273E-09    5.303E-09    5.332E-09
     5.362E-09    5.391E-09    5.421E-09    5.450E-09    5.479E-09    5.508E-09    5.537E-09    5.565E-09    5.594E-09    5.622E-09
     5.650E-09    5.678E-09    5.706E-09    5.734E-09    5.761E-09    5.789E-09    5.816E-09    5.843E-09    5.869E-09    5.896E-09
     5.922E-09    5.949E-09    5.974E-09    6.000E-09    6.026E-09    6.051E-09    6.076E-09    6.101E-09    6.125E-09    6.148E-09
     6.172E-09    6.194E-09    6.217E-09    6.238E-09    6.259E-09    6.279E-09    6.299E-09    6.318E-09    6.336E-09    6.353E-09
     6.369E-09    6.384E-09    6.398E-09    6.412E-09    6.424E-09    6.435E-09    6.445E-09    6.454E-09    6.461E-09    6.467E-09
     6.472E-09    6.476E-09    6.478E-09    6.479E-09    6.478E-09    6.476E-09    6.472E-09    6.467E-09    6.460E-09    6.451E-09
     6.441E-09    6.429E-09    6.415E-09    6.399E-09    6.381E-09    6.361E-09    6.340E-09    6.316E-09    6.290E-09    6.262E-09
     6.233E-09    6.200E-09    6.166E-09    6.129E-09    6.091E-09    6.049E-09    6.006E-09    5.960E-09    5.911E-09    5.860E-09
     5.806E-09    5.750E-09    5.691E-09    5.630E-09    5.566E-09    5.498E-09    5.429E-09    5.356E-09    5.281E-09    5.202E-09
     5.121E-09    5.036E-09    4.949E-09    4.858E-09    4.764E-09    4.668E-09    4.567E-09    4.464E-09    4.358E-09    4.249E-09
     4.137E-09    4.023E-09    3.906E-09    3.786E-09    3.664E-09    3.540E-09    3.413E-09    3.285E-09    3.154E-09    3.022E-09
     2.888E-09    2.752E-09    2.614E-09    2.475E-09    2.335E-09    2.193E-09    2.050E-09    1.906E-09    1.761E-09    1.615E-09
     1.468E-09    1.321E-09    1.173E-09    1.024E-09    8.756E-10    7.263E-10    5.769E-10    4.274E-10    2.779E-10    1.285E-10
    -2.076E-11   -1.697E-10   -3.182E-10   -4.663E-10   -6.137E-10   -7.605E-10   -9.064E-10   -1.051E-09   -1.196E-09   -1.339E-09
    -1.480E-09   -1.621E-09   -1.760E-09   -1.898E-09   -2.034E-09   -2.168E-09   -2.300E-09   -2.431E-09   -2.560E-09   -2.686E-09
    -2.811E-09   -2.933E-09   -3.053E-09   -3.170E-09   -3.284E-09   -3.396E-09   -3.506E-09   -3.612E-09   -3.715E-09   -3.815E-09
    -3.912E-09   -4.006E-09   -4.097E-09   -4.183E-09   -4.267E-09   -4.346E-09   -4.422E-09   -4.494E-09   -4.562E-09   -4.626E-09
    -4.686E-09   -4.743E-09   -4.796E-09   -4.845E-09   -4.890E-09   -4.932E-09   -4.971E-09   -5.007E-09   -5.039E-09   -5.068E-09
    -5.094E-09   -5.117E-09   -5.137E-09   -5.154E-09   -5.169E-09   -5.181E-09   -5.190E-09   -5.197E-09   -5.201E-09   -5.203E-09
    -5.203E-09   -5.201E-09   -5.196E-09   -5.190E-09   -5.181E-09   -5.171E-09   -5.158E-09   -5.145E-09   -5.129E-09   -5.112E-09
    -5.093E-09   -5.073E-09   -5.052E-09   -5.030E-09   -5.006E-09   -4.981E-09   -4.955E-09   -4.929E-09   -4.901E-09   -4.873E-09
    -4.844E-09   -4.814E-09   -4.784E-09   -4.754E-09   -4.723E-09   -4.692E-09   -4.660E-09   -4.629E-09   -4.597E-09   -4.566E-09
    -4.534E-09   -4.503E-09   -4.472E-09   -4.442E-09   -4.411E-09   -4.382E-09   -4.353E-09   -4.324E-09   -4.297E-09   -4.270E-09
    -4.244E-09   -4.219E-09   -4.195E-09   -4.172E-09   -4.151E-09   -4.131E-09   -4.112E-09   -4.095E-09   -4.079E-09   -4.065E-09
    -4.052E-09   -4.041E-09   -4.032E-09   -4.025E-09   -4.019E-09   -4.015E-09   -4.012E-09   -4.011E-09   -4.012E-09   -4.014E-09
    -4.017E-09   -4.022E-09   -4.028E-09   -4.036E-09   -4.045E-09   -4.055E-09   -4.067E-09   -4.079E-09   -4.093E-09   -4.108E-09
    -4.124E-09   -4.142E-09   -4.160E-09   -4.179E-09   -4.200E-09   -4.221E-09   -4.244E-09   -4.267E-09   -4.291E-09   -4.316E-09
    -4.342E-09   -4.368E-09   -4.396E-09   -4.424E-09   -4.453E-09   -4.482E-09   -4.512E-09   -4.543E-09   -4.574E-09   -4.606E-09
    -4.638E-09   -4.671E-09   -4.704E-09   -4.737E-09   -4.771E-09   -4.806E-09   -4.840E-09   -4.875E-09   -4.910E-09   -4.946E-09
    -4.981E-09   -5.017E-09   -5.053E-09   -5.089E-09   -5.125E-09   -5.161E-09   -5.197E-09   -5.233E-09   -5.268E-09   -5.304E-09
    -5.340E-09   -5.375E-09   -5.411E-09   -5.446E-09   -5.481E-09   -5.515E-09   -5.550E-09   -5.583E-09   -5.617E-09   -5.650E-09
    -5.683E-09   -5.715E-09   -5.746E-09
 Asp      Conc. = 5.01E-10
   4.39315E-09  4.35186E-09  4.33511E-09  4.30737E-09  4.28866E-09  4.23350E-09  4.17922E-09  4.14057E-09  4.14050E-09  4.15450E-09
   4.17511E-09  4.19969E-09  4.22716E-09  4.25663E-09  4.28665E-09  4.31704E-09  4.34783E-09  4.37899E-09  4.41046E-09  4.44218E-09
   4.47414E-09  4.50631E-09  4.53870E-09  4.57129E-09  4.60411E-09  4.63718E-09  4.67053E-09  4.70423E-09  4.73834E-09  4.77299E-09
   4.80834E-09  4.84464E-09  4.88229E-09  4.92200E-09  4.96511E-09  5.01485E-09  5.07917E-09  5.14127E-09  5.20725E-09  5.25890E-09
   5.30038E-09  5.34638E-09  5.41897E-09  5.52935E-09  5.66043E-09  5.79593E-09  5.85401E-09  5.85182E-09  5.90513E-09  6.00607E-09
   6.16467E-09  6.31473E-09  6.39000E-09  6.33950E-09  6.19456E-09  6.05714E-09  5.99643E-09  6.04664E-09  6.03093E-09  5.94207E-09
   5.90818E-09  5.89489E-09  5.89183E-09  5.93003E-09  5.97507E-09  5.98416E-09  5.96261E-09  5.96186E-09  5.97102E-09  5.98524E-09
   6.00239E-09  6.02139E-09  6.04163E-09  6.06270E-09  6.08432E-09  6.10627E-09  6.12839E-09  6.15054E-09  6.17260E-09  6.19448E-09
   6.21610E-09  6.23738E-09  6.25826E-09  6.27865E-09  6.29853E-09  6.31781E-09  6.33645E-09  6.35440E-09  6.37160E-09  6.38801E-09
   6.40357E-09  6.41826E-09  6.43199E-09  6.44476E-09  6.45650E-09  6.46716E-09  6.47671E-09  6.48510E-09  6.49229E-09  6.49823E-09
   6.50289E-09  6.50621E-09  6.50815E-09  6.50868E-09  6.50774E-09  6.50530E-09  6.50131E-09  6.49575E-09  6.48855E-09  6.47966E-09
   6.46908E-09  6.45674E-09  6.44259E-09  6.42660E-09  6.40873E-09  6.38894E-09  6.36718E-09  6.34342E-09  6.31760E-09  6.28970E-09
   6.25966E-09  6.22745E-09  6.19301E-09  6.15633E-09  6.11735E-09  6.07602E-09  6.03230E-09  5.98617E-09  5.93758E-09  5.88647E-09
   5.83282E-09  5.77657E-09  5.71771E-09  5.65617E-09  5.59191E-09  5.52489E-09  5.45510E-09  5.38245E-09  5.30694E-09  5.22850E-09
   5.14711E-09  5.06272E-09  4.97530E-09  4.88479E-09  4.79117E-09  4.69439E-09  4.59445E-09  4.49145E-09  4.38549E-09  4.27667E-09
   4.16510E-09  4.05090E-09  3.93415E-09  3.81499E-09  3.69352E-09  3.56988E-09  3.44419E-09  3.31661E-09  3.18730E-09  3.05647E-09
   2.92438E-09  2.79141E-09  2.65817E-09  2.52578E-09  2.39674E-09  2.27838E-09  2.20408E-09  2.27078E-09  2.31576E-09  2.27589E-09
   2.17317E-09  2.06089E-09  1.98829E-09  1.97493E-09  1.98311E-09  1.91052E-09  1.62955E-09  1.10307E-09  5.24491E-10  2.57552E-10
   6.74090E-11 -1.01298E-10 -2.61224E-10 -4.16528E-10 -5.68953E-10 -7.19298E-10 -8.67944E-10 -1.01506E-09 -1.16078E-09 -1.30508E-09
  -1.44794E-09 -1.58934E-09 -1.72921E-09 -1.86748E-09 -2.00405E-09 -2.13887E-09 -2.27185E-09 -2.40288E-09 -2.53186E-09 -2.65875E-09
  -2.78340E-09 -2.90575E-09 -3.02568E-09 -3.14311E-09 -3.25794E-09 -3.37006E-09 -3.47938E-09 -3.58581E-09 -3.68926E-09 -3.78959E-09
  -3.88675E-09 -3.98061E-09 -4.07108E-09 -4.15806E-09 -4.24147E-09 -4.32118E-09 -4.39710E-09 -4.46916E-09 -4.53722E-09 -4.60137E-09
  -4.66163E-09 -4.71814E-09 -4.77093E-09 -4.82011E-09 -4.86573E-09 -4.90791E-09 -4.94670E-09 -4.98219E-09 -5.01445E-09 -5.04357E-09
  -5.06963E-09 -5.09270E-09 -5.11286E-09 -5.13020E-09 -5.14479E-09 -5.15672E-09 -5.16606E-09 -5.17289E-09 -5.17729E-09 -5.17934E-09
  -5.17912E-09 -5.17672E-09 -5.17220E-09 -5.16565E-09 -5.15715E-09 -5.14677E-09 -5.13460E-09 -5.12072E-09 -5.10520E-09 -5.08812E-09
  -5.06959E-09 -5.04963E-09 -5.02840E-09 -5.00588E-09 -4.98221E-09 -4.95749E-09 -4.93176E-09 -4.90510E-09 -4.87760E-09 -4.84934E-09
  -4.82039E-09 -4.79086E-09 -4.76080E-09 -4.73029E-09 -4.69942E-09 -4.66826E-09 -4.63691E-09 -4.60541E-09 -4.57388E-09 -4.54238E-09
  -4.51099E-09 -4.47979E-09 -4.44887E-09 -4.41827E-09 -4.38814E-09 -4.35849E-09 -4.32944E-09 -4.30107E-09 -4.27342E-09 -4.24661E-09
  -4.22071E-09 -4.19579E-09 -4.17195E-09 -4.14923E-09 -4.12775E-09 -4.10757E-09 -4.08878E-09 -4.07142E-09 -4.05563E-09 -4.04146E-09
  -4.02896E-09 -4.01822E-09 -4.00917E-09 -4.00180E-09 -3.99606E-09 -3.99194E-09 -3.98938E-09 -3.98838E-09 -3.98889E-09 -3.99088E-09
  -3.99433E-09 -3.99918E-09 -4.00544E-09 -4.01304E-09 -4.02196E-09 -4.03218E-09 -4.04366E-09 -4.05638E-09 -4.07029E-09 -4.08536E-09
  -4.10157E-09 -4.11887E-09 -4.13727E-09 -4.15668E-09 -4.17712E-09 -4.19852E-09 -4.22088E-09 -4.24414E-09 -4.26829E-09 -4.29329E-09
  -4.31911E-09 -4.34570E-09 -4.37307E-09 -4.40115E-09 -4.42993E-09 -4.45935E-09 -4.48942E-09 -4.52008E-09 -4.55132E-09 -4.58308E-09
  -4.61535E-09 -4.64809E-09 -4.68126E-09 -4.71484E-09 -4.74881E-09 -4.78311E-09 -4.81774E-09 -4.85263E-09 -4.88780E-09 -4.92315E-09
  -4.95872E-09 -4.99442E-09 -5.03026E-09 -5.06620E-09 -5.10216E-09 -5.13819E-09 -5.17420E-09 -5.21019E-09 -5.24609E-09 -5.28192E-09
  -5.31761E-09 -5.35313E-09 -5.38847E-09 -5.42357E-09 -5.45843E-09 -5.49299E-09 -5.52725E-09 -5.56115E-09 -5.59466E-09 -5.62777E-09
  -5.66042E-09 -5.69260E-09 -5.72429E-09
 GABA     Conc. = 2.37E-09
   4.04762E-09  4.08220E-09  4.11704E-09  4.15216E-09  4.18757E-09  4.22331E-09  4.25939E-09  4.29586E-09  4.33277E-09  4.37018E-09
   4.40815E-09  4.44673E-09  4.48611E-09  4.52630E-09  4.56756E-09  4.61006E-09  4.65380E-09  4.69924E-09  4.74687E-09  4.79695E-09
   4.85025E-09  4.90775E-09  4.97059E-09  5.04071E-09  5.12121E-09  5.21666E-09  5.33598E-09  5.49636E-09  5.73957E-09  6.19059E-09
   6.63479E-09  6.94003E-09  7.56381E-09  8.33974E-09  8.89787E-09  9.46263E-09  1.00574E-08  1.05058E-08  1.06810E-08  1.05735E-08
   1.03400E-08  1.02013E-08  9.57229E-09  8.39810E-09  7.86964E-09  7.57800E-09  6.87982E-09  6.38632E-09  6.17504E-09  6.07389E-09
   6.02744E-09  6.01287E-09  6.01926E-09  6.04177E-09  6.07785E-09  6.12626E-09  6.18818E-09  6.26685E-09  6.36879E-09  6.50731E-09
   6.71023E-09  7.05431E-09  7.62606E-09  8.03083E-09  8.40017E-09  9.13357E-09  9.75426E-09  1.01690E-08  1.06273E-08  1.10329E-08
   1.12174E-08  1.10616E-08  1.06131E-08  1.01435E-08  9.78456E-09  8.74837E-09  7.73278E-09  7.67509E-09  7.45405E-09  7.05761E-09
   7.05749E-09  7.09623E-09  7.14865E-09  7.50235E-09  7.84726E-09  8.05722E-09  8.42758E-09  8.85521E-09  9.21112E-09  9.50248E-09
   9.64559E-09  9.79989E-09  1.00240E-08  9.78685E-09  9.33188E-09  9.33321E-09  9.07265E-09  8.46991E-09  8.20689E-09  8.00828E-09
   7.71877E-09  7.51373E-09  7.37250E-09  7.26858E-09  7.18788E-09  7.12207E-09  7.06640E-09  7.01821E-09  6.97563E-09  6.93718E-09
   6.90150E-09  6.86703E-09  6.83329E-09  6.79992E-09  6.76666E-09  6.73338E-09  6.69976E-09  6.66530E-09  6.62977E-09  6.59304E-09
   6.55493E-09  6.51541E-09  6.47432E-09  6.43153E-09  6.38695E-09  6.34048E-09  6.29202E-09  6.24149E-09  6.18884E-09  6.13399E-09
   6.07687E-09  6.01740E-09  5.95555E-09  5.89127E-09  5.82448E-09  5.75514E-09  5.68321E-09  5.60860E-09  5.53128E-09  5.45120E-09
   5.36834E-09  5.28265E-09  5.19410E-09  5.10261E-09  5.00816E-09  4.91071E-09  4.81028E-09  4.70699E-09  4.60094E-09  4.49227E-09
   4.38108E-09  4.26753E-09  4.15176E-09  4.03396E-09  3.91431E-09  3.79304E-09  3.67041E-09  3.54676E-09  3.42254E-09  3.29836E-09
   3.17508E-09  3.05411E-09  2.93781E-09  2.83067E-09  2.74256E-09  2.70079E-09  2.81507E-09  3.58761E-09  4.36956E-09  4.77928E-09
   4.86869E-09  4.87319E-09  5.03228E-09  5.46642E-09  6.04596E-09  6.33600E-09  5.73477E-09  3.96280E-09  1.72737E-09  8.36290E-10
   4.59808E-10  2.09120E-10  4.92453E-12 -1.77347E-10 -3.47558E-10 -5.10318E-10 -6.68011E-10 -8.21946E-10 -9.72942E-10 -1.12143E-09
  -1.26767E-09 -1.41185E-09 -1.55404E-09 -1.69427E-09 -1.83252E-09 -1.96878E-09 -2.10303E-09 -2.23516E-09 -2.36513E-09 -2.49289E-09
  -2.61834E-09 -2.74140E-09 -2.86199E-09 -2.98001E-09 -3.09539E-09 -3.20802E-09 -3.31781E-09 -3.42468E-09 -3.52854E-09 -3.62925E-09
  -3.72677E-09 -3.82097E-09 -3.91176E-09 -3.99905E-09 -4.08276E-09 -4.16274E-09 -4.23893E-09 -4.31124E-09 -4.37955E-09 -4.44392E-09
  -4.50442E-09 -4.56114E-09 -4.61414E-09 -4.66353E-09 -4.70935E-09 -4.75171E-09 -4.79069E-09 -4.82636E-09 -4.85880E-09 -4.88808E-09
  -4.91431E-09 -4.93754E-09 -4.95786E-09 -4.97535E-09 -4.99009E-09 -5.00217E-09 -5.01165E-09 -5.01862E-09 -5.02316E-09 -5.02535E-09
