 LCModel (Version 6.3-1R) Copyright: S.W. Provencher.          Ref.: Magn. Reson. Med. 30:672-679 (1993).                
 onepulse 22x6_ftSpec_smooth_lcm
 26 lines in following concentration table = NCONC+1
    Conc.  %SD /Cr+PCr  Metabolite                                         
    0.000 999%   0.000 Ala                                                 
    0.000 999%   0.000 Asp                                                 
    0.000 999%   0.000 Cr                                                  
    0.000 999%   0.000 GABA                                                
    0.000 999%   0.000 Glc                                                 
 1.44E-09  44%  16.328 Gln                                                 
    0.000 999%   0.000 Glu                                                 
    0.000 999%   0.000 Glyc                                                
    0.000 999%   0.000 GPC                                                 
    0.000 999%   0.000 GSH                                                 
 2.32E-09  13%  26.292 Ins                                                 
    0.000 999%   0.000 Lac                                                 
 4.97E-10  68%   5.621 NAAG                                                
 9.82E-11 491%   1.110 NAA                                                 
    0.000 999%   0.000 PCh                                                 
 8.84E-11 305%   1.000 PCr                                                 
 1.42E-09  46%  16.066 PE                                                  
 3.08E-10  55%   3.486 Scyllo                                              
 8.13E-09  10%  91.938 Ser                                                 
    0.000 999%   0.000 Tau                                                 
    0.000 999%   0.000 GPC+PCh                                             
 5.95E-10  52%   6.731 NAA+NAAG                                            
 2.32E-09  13%  26.292 Ins+Glyc                                            
 8.84E-11 305%   1.000 Cr+PCr                                              
 1.44E-09  44%  16.328 Glu+Gln                                             
   6 lines in following misc. output table
  FWHM = 0.123 ppm    S/N =   4                                            
  Data shift = 0.414 ppm                                                   
  Ph: -46 deg     -74.1 deg/ppm                                            
  alphaB,S = 6.9E-01,   6.4E+00                                            
   11 spline knots.   Ns = 5(1)                                            
  (12) 6 infls.   (11) 3 extrs.                                            
  363 points on ppm-axis = NY
      4.250000     4.238821     4.227641     4.216462     4.205282     4.194103     4.182923     4.171744     4.160564     4.149385
      4.138206     4.127026     4.115847     4.104667     4.093488     4.082308     4.071129     4.059949     4.048770     4.037591
      4.026411     4.015232     4.004052     3.992873     3.981693     3.970514     3.959334     3.948155     3.936975     3.925796
      3.914617     3.903437     3.892258     3.881078     3.869899     3.858719     3.847540     3.836360     3.825181     3.814002
      3.802822     3.791643     3.780463     3.769284     3.758104     3.746925     3.735745     3.724566     3.713387     3.702207
      3.691028     3.679848     3.668669     3.657489     3.646310     3.635130     3.623951     3.612772     3.601592     3.590413
      3.579233     3.568054     3.556874     3.545695     3.534515     3.523336     3.512156     3.500977     3.489798     3.478618
      3.467439     3.456259     3.445080     3.433900     3.422721     3.411541     3.400362     3.389183     3.378003     3.366824
      3.355644     3.344465     3.333285     3.322106     3.310926     3.299747     3.288568     3.277388     3.266209     3.255029
      3.243850     3.232670     3.221491     3.210311     3.199132     3.187953     3.176773     3.165594     3.154414     3.143235
      3.132055     3.120876     3.109696     3.098517     3.087337     3.076158     3.064979     3.053799     3.042620     3.031440
      3.020261     3.009081     2.997902     2.986722     2.975543     2.964364     2.953184     2.942005     2.930825     2.919646
      2.908466     2.897287     2.886107     2.874928     2.863749     2.852569     2.841390     2.830210     2.819031     2.807851
      2.796672     2.785492     2.774313     2.763134     2.751954     2.740775     2.729595     2.718416     2.707236     2.696057
      2.684877     2.673698     2.662519     2.651339     2.640160     2.628980     2.617801     2.606621     2.595442     2.584262
      2.573083     2.561903     2.550724     2.539545     2.528365     2.517186     2.506006     2.494827     2.483647     2.472468
      2.461288     2.450109     2.438930     2.427750     2.416571     2.405391     2.394212     2.383032     2.371853     2.360673
      2.349494     2.338315     2.327135     2.315956     2.304776     2.293597     2.282417     2.271238     2.260058     2.248879
      2.237700     2.226520     2.215341     2.204161     2.192982     2.181802     2.170623     2.159443     2.148264     2.137084
      2.125905     2.114726     2.103546     2.092367     2.081187     2.070008     2.058828     2.047649     2.036469     2.025290
      2.014111     2.002931     1.991752     1.980572     1.969393     1.958213     1.947034     1.935854     1.924675     1.913496
      1.902316     1.891137     1.879957     1.868778     1.857598     1.846419     1.835239     1.824060     1.812881     1.801701
      1.790522     1.779342     1.768163     1.756983     1.745804     1.734624     1.723445     1.712265     1.701086     1.689907
      1.678727     1.667548     1.656368     1.645189     1.634009     1.622830     1.611650     1.600471     1.589292     1.578112
      1.566933     1.555753     1.544574     1.533394     1.522215     1.511035     1.499856     1.488677     1.477497     1.466318
      1.455138     1.443959     1.432779     1.421600     1.410420     1.399241     1.388062     1.376882     1.365703     1.354523
      1.343344     1.332164     1.320985     1.309805     1.298626     1.287446     1.276267     1.265088     1.253908     1.242729
      1.231549     1.220370     1.209190     1.198011     1.186831     1.175652     1.164473     1.153293     1.142114     1.130934
      1.119755     1.108575     1.097396     1.086216     1.075037     1.063858     1.052678     1.041499     1.030319     1.019140
      1.007960     0.996781     0.985601     0.974422     0.963243     0.952063     0.940884     0.929704     0.918525     0.907345
      0.896166     0.884986     0.873807     0.862628     0.851448     0.840269     0.829089     0.817910     0.806730     0.795551
      0.784371     0.773192     0.762012     0.750833     0.739654     0.728474     0.717295     0.706115     0.694936     0.683756
      0.672577     0.661397     0.650218     0.639039     0.627859     0.616680     0.605500     0.594321     0.583141     0.571962
      0.560782     0.549603     0.538424     0.527244     0.516065     0.504885     0.493706     0.482526     0.471347     0.460167
      0.448988     0.437809     0.426629     0.415450     0.404270     0.393091     0.381911     0.370732     0.359552     0.348373
      0.337193     0.326014     0.314835     0.303655     0.292476     0.281296     0.270117     0.258937     0.247758     0.236578
      0.225399     0.214220     0.203040
 NY phased data points follow
   1.18416E-08  1.02413E-08  1.05326E-08  9.62367E-09  1.07423E-08  1.00360E-08  1.08530E-08  9.88075E-09  1.11246E-08  1.12997E-08
   1.18984E-08  1.17791E-08  1.14576E-08  1.15671E-08  1.20620E-08  1.08727E-08  1.11890E-08  1.04417E-08  1.08454E-08  1.12238E-08
   1.17341E-08  1.06135E-08  1.11404E-08  1.04709E-08  1.06737E-08  1.08899E-08  1.20883E-08  1.28184E-08  1.37021E-08  1.39423E-08
   1.36402E-08  1.30563E-08  1.32616E-08  1.22021E-08  1.23544E-08  1.19409E-08  1.20303E-08  1.17369E-08  1.20626E-08  1.15041E-08
   1.13637E-08  1.02073E-08  1.04093E-08  9.80252E-09  9.97343E-09  9.54896E-09  9.39053E-09  8.64053E-09  9.21007E-09  8.62221E-09
   8.73902E-09  6.99007E-09  6.94709E-09  6.40061E-09  6.73239E-09  6.13784E-09  6.33796E-09  7.87803E-09  9.99810E-09  1.05798E-08
   1.18182E-08  1.19855E-08  1.17522E-08  1.12540E-08  1.14170E-08  1.07673E-08  1.02024E-08  9.28374E-09  8.14838E-09  6.96783E-09
   6.30910E-09  5.06378E-09  5.24179E-09  6.26061E-09  7.97110E-09  1.05665E-08  1.23874E-08  1.33639E-08  1.29763E-08  1.36867E-08
   1.35375E-08  1.40052E-08  1.35330E-08  1.35434E-08  1.43206E-08  1.35629E-08  1.41058E-08  1.40868E-08  1.39156E-08  1.30158E-08
   1.32844E-08  1.26540E-08  1.24981E-08  1.19617E-08  1.14349E-08  1.11485E-08  1.08165E-08  1.08663E-08  1.10578E-08  1.08063E-08
   1.08414E-08  1.09797E-08  1.07881E-08  1.07782E-08  9.92804E-09  9.35358E-09  9.20030E-09  9.04700E-09  8.37132E-09  8.75329E-09
   8.43543E-09  8.87806E-09  8.86073E-09  9.03574E-09  8.38823E-09  8.91942E-09  8.61052E-09  8.95773E-09  8.49202E-09  7.99486E-09
   6.67501E-09  7.04284E-09  6.69112E-09  6.75155E-09  6.19044E-09  6.77911E-09  6.58773E-09  6.52716E-09  6.48511E-09  7.07898E-09
   7.06327E-09  6.89146E-09  6.24598E-09  6.90577E-09  5.73143E-09  7.87183E-09  8.02899E-09  8.56363E-09  8.31368E-09  8.72343E-09
   9.01955E-09  1.01636E-08  9.90394E-09  1.03265E-08  1.07287E-08  1.10900E-08  1.11195E-08  1.17186E-08  1.11292E-08  1.10889E-08
   1.13398E-08  1.16718E-08  1.15836E-08  1.18040E-08  1.18203E-08  1.22098E-08  1.20061E-08  1.28627E-08  1.18481E-08  1.23165E-08
   1.11989E-08  1.25708E-08  1.07977E-08  1.03746E-08  9.45782E-09  1.21362E-08  1.55859E-08  1.95263E-08  2.15056E-08  2.36891E-08
   2.40535E-08  2.65504E-08  2.64113E-08  2.73451E-08  2.64323E-08  2.68602E-08  2.59511E-08  2.57376E-08  2.38952E-08  2.30285E-08
   2.03204E-08  1.83851E-08  1.49867E-08  1.26842E-08  9.03762E-09  6.07212E-09  2.49711E-09  1.35076E-10 -2.99094E-09 -4.79104E-09
  -6.72212E-09 -7.88074E-09 -8.95460E-09 -8.77905E-09 -8.72637E-09 -7.54117E-09 -7.14389E-09 -5.77373E-09 -5.53545E-09 -3.51644E-09
  -3.87052E-09 -2.75663E-09 -3.38786E-09 -1.95508E-09 -2.71217E-09 -1.38026E-09 -1.63609E-09 -1.24511E-09 -1.31157E-09 -7.15178E-10
  -9.69238E-10 -6.70544E-10 -1.24455E-09 -1.33614E-09 -1.76698E-09 -1.13926E-09 -1.77217E-09 -8.35709E-10 -1.10542E-09 -4.15925E-10
  -4.65100E-10 -4.83591E-10 -1.00962E-09 -6.60836E-10 -1.47493E-09 -9.07834E-10 -1.67295E-09 -1.05097E-09 -1.33045E-09 -4.28054E-10
  -1.54479E-09 -7.56458E-10 -1.09515E-09 -4.45888E-10 -8.46141E-10 -6.77184E-10 -9.38530E-10 -9.27892E-10 -1.26753E-09 -1.00541E-09
  -1.78161E-09 -9.68519E-10 -1.56703E-09 -9.00731E-10 -2.06313E-09 -1.16620E-09 -1.23490E-09 -1.09234E-09 -1.39276E-09 -9.96712E-10
  -1.05118E-09 -7.38955E-10 -1.46788E-09 -7.27724E-10 -8.57888E-10 -9.16312E-10 -5.41586E-10 -4.85154E-10 -1.26889E-09 -1.09044E-09
  -1.34774E-09 -1.31744E-09 -2.56227E-09 -1.47225E-09 -2.54944E-09 -1.96229E-09 -1.89410E-09 -1.86395E-09 -1.93843E-09 -1.74837E-09
  -1.68255E-09 -9.32916E-10 -4.98568E-10 -5.90364E-10 -6.88856E-10 -3.05866E-10 -8.60714E-10 -6.36640E-10 -1.91592E-10 -5.30539E-10
  -8.98552E-10 -8.24000E-10 -3.67916E-10 -4.54138E-10 -4.15247E-10 -8.57904E-10 -7.00008E-10 -5.41763E-10 -6.34462E-10 -1.22665E-09
  -1.18140E-09 -9.60024E-10 -6.62500E-10 -7.57102E-10 -8.29145E-10 -1.25764E-09 -8.37579E-10 -1.30119E-09 -1.46543E-09 -9.66911E-10
  -1.55615E-09 -1.27656E-09 -8.20871E-10 -8.45061E-10 -1.56933E-09 -1.18314E-09 -1.33840E-09 -1.56255E-09 -1.43984E-09 -1.69882E-09
  -1.72291E-09 -1.21382E-09 -1.39442E-09 -1.58215E-09 -1.38751E-09 -1.98532E-09 -1.72656E-09 -1.65589E-09 -1.78530E-09 -1.47300E-09
  -2.09887E-09 -1.96895E-09 -1.78316E-09 -2.10648E-09 -2.22129E-09 -1.95501E-09 -2.02773E-09 -1.75715E-09 -2.46865E-09 -1.89255E-09
  -2.37393E-09 -1.82321E-09 -1.95969E-09 -2.07433E-09 -2.49356E-09 -2.47261E-09 -2.63931E-09 -2.03884E-09 -2.58253E-09 -2.31677E-09
  -2.42822E-09 -2.61477E-09 -3.15674E-09 -2.73205E-09 -2.51201E-09 -2.92981E-09 -2.82456E-09 -3.01553E-09 -3.18386E-09 -2.98060E-09
  -3.27251E-09 -3.30877E-09 -3.21389E-09 -3.73418E-09 -3.61516E-09 -3.27367E-09 -3.59586E-09 -3.73127E-09 -3.98828E-09 -3.55479E-09
  -3.93781E-09 -3.56999E-09 -3.65386E-09
 NY points of the fit to the data follow
   3.65543E-09  8.25763E-09  1.34900E-08  1.28542E-08  1.05431E-08  1.11500E-08  1.28463E-08  1.24733E-08  1.12679E-08  1.25268E-08
   1.13260E-08  1.03909E-08  1.07056E-08  1.06247E-08  1.00441E-08  1.14102E-08  1.07762E-08  9.88557E-09  1.29865E-08  1.36088E-08
   1.17257E-08  1.09432E-08  1.10710E-08  1.06578E-08  1.01191E-08  1.08755E-08  1.17507E-08  1.19311E-08  1.41501E-08  1.35947E-08
   1.30510E-08  1.35247E-08  1.38718E-08  1.35620E-08  1.33203E-08  1.32179E-08  1.27734E-08  1.19248E-08  1.12663E-08  1.08459E-08
   1.05197E-08  1.02466E-08  1.01553E-08  9.75157E-09  9.39882E-09  9.09415E-09  8.84491E-09  8.65070E-09  8.45519E-09  8.33755E-09
   8.21947E-09  8.13005E-09  7.89798E-09  7.72042E-09  7.79054E-09  8.04107E-09  7.87910E-09  8.39201E-09  9.01929E-09  9.10717E-09
   9.17399E-09  9.72076E-09  9.91862E-09  9.88443E-09  1.03315E-08  1.05500E-08  9.98244E-09  1.02540E-08  1.00555E-08  9.36927E-09
   9.04993E-09  9.35800E-09  9.33647E-09  8.96787E-09  9.18167E-09  9.65273E-09  1.09475E-08  1.17253E-08  1.25359E-08  1.33469E-08
   1.37645E-08  1.44063E-08  1.44267E-08  1.45087E-08  1.52540E-08  1.52359E-08  1.57360E-08  1.44785E-08  1.34616E-08  1.27498E-08
   1.22435E-08  1.18812E-08  1.16127E-08  1.13854E-08  1.11882E-08  1.10099E-08  1.08542E-08  1.07125E-08  1.06059E-08  1.04876E-08
   1.03610E-08  1.02621E-08  1.01886E-08  1.01012E-08  1.00193E-08  9.94435E-09  9.87420E-09  9.80926E-09  9.74733E-09  9.68809E-09
   9.63116E-09  9.57616E-09  9.52279E-09  9.47071E-09  9.41965E-09  9.36940E-09  9.31977E-09  9.27053E-09  9.22152E-09  9.17261E-09
   9.12365E-09  9.07451E-09  9.02510E-09  8.97527E-09  8.92499E-09  8.87412E-09  8.82260E-09  8.77036E-09  8.71733E-09  8.66342E-09
   8.60862E-09  8.55286E-09  8.49611E-09  8.43831E-09  8.37944E-09  8.31951E-09  8.25844E-09  8.19627E-09  8.13305E-09  8.06885E-09
   8.00371E-09  7.93775E-09  7.87105E-09  7.80372E-09  7.73591E-09  7.66776E-09  7.59947E-09  7.53123E-09  7.46333E-09  7.39605E-09
   7.32980E-09  7.26499E-09  7.20224E-09  7.14226E-09  7.08598E-09  7.03466E-09  6.98992E-09  6.95407E-09  6.93038E-09  6.92369E-09
   6.94162E-09  6.99670E-09  7.11162E-09  7.33201E-09  7.76629E-09  8.74873E-09  1.18486E-08  1.97925E-08  2.50105E-08  2.47280E-08
   2.60890E-08  2.73166E-08  2.62416E-08  2.56685E-08  2.73814E-08  2.81563E-08  2.65985E-08  2.55477E-08  1.69359E-08  6.99019E-09
   4.72935E-09  3.95702E-09  3.57189E-09  3.32817E-09  3.14746E-09  2.99862E-09  2.86738E-09  2.74649E-09  2.63206E-09  2.52184E-09
   2.41450E-09  2.30923E-09  2.20557E-09  2.10318E-09  2.00190E-09  1.90163E-09  1.80233E-09  1.70398E-09  1.60660E-09  1.51020E-09
   1.41483E-09  1.32053E-09  1.22735E-09  1.13536E-09  1.04459E-09  9.55088E-10  8.66923E-10  7.80148E-10  6.94814E-10  6.10971E-10
   5.28678E-10  4.47979E-10  3.68907E-10  2.91509E-10  2.15857E-10  1.41969E-10  6.98889E-11 -3.54439E-13 -6.87138E-11 -1.35146E-10
  -1.99652E-10 -2.62166E-10 -3.22674E-10 -3.81168E-10 -4.37617E-10 -4.91961E-10 -5.44244E-10 -5.94425E-10 -6.42517E-10 -6.88571E-10
  -7.32631E-10 -7.74736E-10 -8.14933E-10 -8.53266E-10 -8.89773E-10 -9.24507E-10 -9.57505E-10 -9.88817E-10 -1.01848E-09 -1.04655E-09
  -1.07306E-09 -1.09807E-09 -1.12161E-09 -1.14373E-09 -1.16448E-09 -1.18390E-09 -1.20204E-09 -1.21894E-09 -1.23464E-09 -1.24920E-09
  -1.26265E-09 -1.27504E-09 -1.28642E-09 -1.29682E-09 -1.30629E-09 -1.31486E-09 -1.32260E-09 -1.32954E-09 -1.33570E-09 -1.34116E-09
  -1.34593E-09 -1.35006E-09 -1.35358E-09 -1.35656E-09 -1.35900E-09 -1.36096E-09 -1.36247E-09 -1.36358E-09 -1.36430E-09 -1.36468E-09
  -1.36476E-09 -1.36456E-09 -1.36413E-09 -1.36348E-09 -1.36264E-09 -1.36164E-09 -1.36050E-09 -1.35924E-09 -1.35789E-09 -1.35646E-09
  -1.35499E-09 -1.35349E-09 -1.35199E-09 -1.35050E-09 -1.34906E-09 -1.34767E-09 -1.34637E-09 -1.34518E-09 -1.34411E-09 -1.34318E-09
  -1.34242E-09 -1.34185E-09 -1.34148E-09 -1.34134E-09 -1.34144E-09 -1.34180E-09 -1.34245E-09 -1.34340E-09 -1.34466E-09 -1.34626E-09
  -1.34821E-09 -1.35053E-09 -1.35324E-09 -1.35635E-09 -1.35987E-09 -1.36383E-09 -1.36824E-09 -1.37310E-09 -1.37845E-09 -1.38428E-09
  -1.39061E-09 -1.39746E-09 -1.40484E-09 -1.41275E-09 -1.42122E-09 -1.43025E-09 -1.43985E-09 -1.45004E-09 -1.46081E-09 -1.47219E-09
  -1.48418E-09 -1.49679E-09 -1.51002E-09 -1.52389E-09 -1.53840E-09 -1.55356E-09 -1.56936E-09 -1.58583E-09 -1.60296E-09 -1.62075E-09
  -1.63922E-09 -1.65836E-09 -1.67817E-09 -1.69866E-09 -1.71983E-09 -1.74168E-09 -1.76421E-09 -1.78743E-09 -1.81132E-09 -1.83589E-09
  -1.86114E-09 -1.88707E-09 -1.91366E-09 -1.94093E-09 -1.96886E-09 -1.99746E-09 -2.02671E-09 -2.05662E-09 -2.08717E-09 -2.11836E-09
  -2.15018E-09 -2.18263E-09 -2.21570E-09 -2.24938E-09 -2.28366E-09 -2.31853E-09 -2.35399E-09 -2.39002E-09 -2.42661E-09 -2.46375E-09
  -2.50143E-09 -2.53964E-09 -2.57837E-09
 NY background values follow
    -1.082E-09   -9.636E-10   -8.456E-10   -7.280E-10   -6.108E-10   -4.941E-10   -3.779E-10   -2.621E-10   -1.469E-10   -3.216E-11
     8.206E-11    1.957E-10    3.089E-10    4.215E-10    5.335E-10    6.449E-10    7.558E-10    8.660E-10    9.757E-10    1.085E-09
     1.193E-09    1.301E-09    1.408E-09    1.514E-09    1.620E-09    1.725E-09    1.829E-09    1.933E-09    2.036E-09    2.138E-09
     2.239E-09    2.340E-09    2.440E-09    2.539E-09    2.637E-09    2.735E-09    2.831E-09    2.927E-09    3.022E-09    3.116E-09
     3.210E-09    3.302E-09    3.394E-09    3.485E-09    3.575E-09    3.663E-09    3.752E-09    3.839E-09    3.925E-09    4.010E-09
     4.094E-09    4.178E-09    4.260E-09    4.342E-09    4.422E-09    4.502E-09    4.580E-09    4.658E-09    4.735E-09    4.810E-09
     4.885E-09    4.958E-09    5.031E-09    5.103E-09    5.173E-09    5.243E-09    5.311E-09    5.379E-09    5.445E-09    5.511E-09
     5.575E-09    5.638E-09    5.701E-09    5.762E-09    5.822E-09    5.881E-09    5.939E-09    5.997E-09    6.053E-09    6.108E-09
     6.162E-09    6.214E-09    6.266E-09    6.317E-09    6.367E-09    6.415E-09    6.463E-09    6.510E-09    6.555E-09    6.600E-09
     6.643E-09    6.686E-09    6.727E-09    6.767E-09    6.806E-09    6.845E-09    6.881E-09    6.917E-09    6.952E-09    6.985E-09
     7.017E-09    7.048E-09    7.078E-09    7.106E-09    7.133E-09    7.158E-09    7.182E-09    7.205E-09    7.226E-09    7.246E-09
     7.264E-09    7.281E-09    7.296E-09    7.309E-09    7.321E-09    7.331E-09    7.339E-09    7.346E-09    7.351E-09    7.354E-09
     7.355E-09    7.355E-09    7.352E-09    7.348E-09    7.342E-09    7.333E-09    7.323E-09    7.311E-09    7.296E-09    7.280E-09
     7.261E-09    7.241E-09    7.218E-09    7.192E-09    7.165E-09    7.136E-09    7.104E-09    7.070E-09    7.033E-09    6.995E-09
     6.954E-09    6.911E-09    6.866E-09    6.818E-09    6.769E-09    6.718E-09    6.664E-09    6.609E-09    6.552E-09    6.493E-09
     6.432E-09    6.370E-09    6.305E-09    6.239E-09    6.172E-09    6.102E-09    6.031E-09    5.959E-09    5.885E-09    5.810E-09
     5.733E-09    5.656E-09    5.576E-09    5.496E-09    5.414E-09    5.332E-09    5.248E-09    5.163E-09    5.078E-09    4.991E-09
     4.904E-09    4.815E-09    4.726E-09    4.637E-09    4.547E-09    4.456E-09    4.364E-09    4.272E-09    4.180E-09    4.088E-09
     3.995E-09    3.901E-09    3.808E-09    3.714E-09    3.621E-09    3.527E-09    3.434E-09    3.340E-09    3.247E-09    3.154E-09
     3.062E-09    2.970E-09    2.878E-09    2.787E-09    2.697E-09    2.607E-09    2.518E-09    2.430E-09    2.342E-09    2.256E-09
     2.171E-09    2.086E-09    2.003E-09    1.921E-09    1.840E-09    1.761E-09    1.683E-09    1.606E-09    1.530E-09    1.456E-09
     1.384E-09    1.313E-09    1.244E-09    1.176E-09    1.110E-09    1.046E-09    9.832E-10    9.225E-10    8.637E-10    8.066E-10
     7.515E-10    6.983E-10    6.470E-10    5.977E-10    5.503E-10    5.050E-10    4.616E-10    4.203E-10    3.810E-10    3.437E-10
     3.082E-10    2.747E-10    2.429E-10    2.130E-10    1.848E-10    1.582E-10    1.334E-10    1.101E-10    8.836E-11    6.816E-11
     4.941E-11    3.208E-11    1.613E-11    1.502E-12   -1.184E-11   -2.395E-11   -3.486E-11   -4.463E-11   -5.329E-11   -6.089E-11
    -6.749E-11   -7.311E-11   -7.781E-11   -8.163E-11   -8.460E-11   -8.678E-11   -8.821E-11   -8.893E-11   -8.898E-11   -8.840E-11
    -8.723E-11   -8.551E-11   -8.328E-11   -8.059E-11   -7.746E-11   -7.393E-11   -7.005E-11   -6.586E-11   -6.137E-11   -5.664E-11
    -5.168E-11   -4.655E-11   -4.127E-11   -3.586E-11   -3.036E-11   -2.478E-11   -1.915E-11   -1.349E-11   -7.826E-12   -2.179E-12
     3.428E-12    8.974E-12    1.444E-11    1.979E-11    2.502E-11    3.010E-11    3.501E-11    3.973E-11    4.424E-11    4.851E-11
     5.253E-11    5.629E-11    5.975E-11    6.290E-11    6.572E-11    6.819E-11    7.029E-11    7.201E-11    7.333E-11    7.424E-11
     7.470E-11    7.471E-11    7.426E-11    7.332E-11    7.188E-11    6.993E-11    6.745E-11    6.442E-11    6.084E-11    5.669E-11
     5.196E-11    4.663E-11    4.069E-11    3.413E-11    2.694E-11    1.911E-11    1.063E-11    1.492E-12   -8.321E-12   -1.881E-11
    -3.000E-11   -4.187E-11   -5.445E-11   -6.775E-11   -8.175E-11   -9.649E-11   -1.119E-10   -1.281E-10   -1.451E-10   -1.627E-10
    -1.812E-10   -2.003E-10   -2.202E-10   -2.409E-10   -2.623E-10   -2.845E-10   -3.074E-10   -3.311E-10   -3.555E-10   -3.807E-10
    -4.067E-10   -4.334E-10   -4.608E-10   -4.889E-10   -5.178E-10   -5.475E-10   -5.778E-10   -6.089E-10   -6.407E-10   -6.732E-10
    -7.065E-10   -7.404E-10   -7.750E-10   -8.102E-10   -8.462E-10   -8.828E-10   -9.200E-10   -9.579E-10   -9.964E-10   -1.036E-09
    -1.075E-09   -1.116E-09   -1.157E-09
 Gln      Conc. = 1.44E-09
  -2.33011E-09 -2.27183E-09 -1.95396E-09 -1.55167E-09 -1.20729E-09 -9.19360E-10 -5.80031E-10  5.92729E-11  3.33682E-11  5.02769E-10
   9.47057E-10  7.76430E-10  1.11495E-09  1.08237E-09  1.04267E-09  1.03685E-09  1.05495E-09  1.08867E-09  1.13369E-09  1.18701E-09
   1.24620E-09  1.30955E-09  1.37632E-09  1.44543E-09  1.51558E-09  1.58794E-09  1.66090E-09  1.73422E-09  1.80811E-09  1.88199E-09
   1.95558E-09  2.02869E-09  2.10108E-09  2.17259E-09  2.24303E-09  2.31222E-09  2.37997E-09  2.44605E-09  2.51015E-09  2.57227E-09
   2.63196E-09  2.68905E-09  2.74343E-09  2.79452E-09  2.84157E-09  2.88473E-09  2.92271E-09  2.95344E-09  2.97935E-09  2.99839E-09
   3.00447E-09  3.00297E-09  2.99724E-09  3.01277E-09  3.30101E-09  3.68367E-09  3.63057E-09  4.17333E-09  4.90808E-09  5.12890E-09
   5.41181E-09  6.06219E-09  6.49248E-09  6.64245E-09  7.13162E-09  7.41129E-09  6.94559E-09  7.32782E-09  7.25886E-09  6.65830E-09
   6.34641E-09  6.52914E-09  6.46483E-09  6.23690E-09  6.63341E-09  7.02838E-09  7.09455E-09  7.46583E-09  7.96416E-09  8.20534E-09
   8.34965E-09  8.92788E-09  9.03613E-09  8.81694E-09  9.26193E-09  9.07598E-09  8.72180E-09  8.74724E-09  8.52174E-09  8.32200E-09
   8.18299E-09  8.08096E-09  8.00569E-09  7.95142E-09  7.90851E-09  7.87457E-09  7.84921E-09  7.82941E-09  7.81408E-09  7.80290E-09
   7.79473E-09  7.78859E-09  7.78420E-09  7.78083E-09  7.77862E-09  7.77717E-09  7.77612E-09  7.77524E-09  7.77435E-09  7.77328E-09
   7.77187E-09  7.76998E-09  7.76751E-09  7.76432E-09  7.76032E-09  7.75540E-09  7.74951E-09  7.74254E-09  7.73440E-09  7.72503E-09
   7.71437E-09  7.70235E-09  7.68891E-09  7.67398E-09  7.65755E-09  7.63951E-09  7.61984E-09  7.59849E-09  7.57542E-09  7.55055E-09
   7.52388E-09  7.49535E-09  7.46494E-09  7.43259E-09  7.39827E-09  7.36198E-09  7.32363E-09  7.28324E-09  7.24083E-09  7.19643E-09
   7.15005E-09  7.10176E-09  7.05157E-09  6.99951E-09  6.94564E-09  6.89000E-09  6.83264E-09  6.77362E-09  6.71298E-09  6.65081E-09
   6.58717E-09  6.52214E-09  6.45583E-09  6.38835E-09  6.31983E-09  6.25046E-09  6.18046E-09  6.11013E-09  6.03989E-09  5.97032E-09
   5.90244E-09  5.83781E-09  5.77942E-09  5.73355E-09  5.71615E-09  5.78116E-09  6.21388E-09  7.25092E-09  7.10973E-09  7.03236E-09
   7.23002E-09  7.11922E-09  6.84847E-09  6.84875E-09  7.03946E-09  6.84100E-09  6.57445E-09  6.42992E-09  4.66036E-09  4.23216E-09
   4.04384E-09  3.91133E-09  3.79783E-09  3.69243E-09  3.59104E-09  3.49186E-09  3.39406E-09  3.29717E-09  3.20103E-09  3.10549E-09
   3.01055E-09  2.91617E-09  2.82242E-09  2.72929E-09  2.63685E-09  2.54514E-09  2.45422E-09  2.36414E-09  2.27497E-09  2.18674E-09
   2.09953E-09  2.01339E-09  1.92837E-09  1.84453E-09  1.76193E-09  1.68061E-09  1.60063E-09  1.52204E-09  1.44488E-09  1.36921E-09
   1.29507E-09  1.22251E-09  1.15156E-09  1.08226E-09  1.01468E-09  9.48830E-10  8.84754E-10  8.22477E-10  7.62044E-10  7.03496E-10
   6.46825E-10  5.92098E-10  5.39325E-10  4.88513E-10  4.39691E-10  3.92915E-10  3.48143E-10  3.05411E-10  2.64705E-10  2.25973E-10
   1.89171E-10  1.54256E-10  1.21183E-10  8.99054E-11  6.03839E-11  3.25653E-11  6.41144E-12 -1.81277E-11 -4.10953E-11 -6.25312E-11
  -8.24912E-11 -1.01020E-10 -1.18157E-10 -1.33950E-10 -1.48448E-10 -1.61690E-10 -1.73728E-10 -1.84603E-10 -1.94359E-10 -2.03044E-10
  -2.10702E-10 -2.17374E-10 -2.23110E-10 -2.27947E-10 -2.31934E-10 -2.35104E-10 -2.37513E-10 -2.39197E-10 -2.40193E-10 -2.40551E-10
  -2.40303E-10 -2.39494E-10 -2.38160E-10 -2.36348E-10 -2.34086E-10 -2.31418E-10 -2.28378E-10 -2.25009E-10 -2.21334E-10 -2.17401E-10
  -2.13235E-10 -2.08876E-10 -2.04353E-10 -1.99696E-10 -1.94927E-10 -1.90071E-10 -1.85150E-10 -1.80188E-10 -1.75207E-10 -1.70231E-10
  -1.65281E-10 -1.60381E-10 -1.55552E-10 -1.50816E-10 -1.46196E-10 -1.41712E-10 -1.37385E-10 -1.33238E-10 -1.29290E-10 -1.25562E-10
  -1.22073E-10 -1.18845E-10 -1.15896E-10 -1.13245E-10 -1.10912E-10 -1.08916E-10 -1.07273E-10 -1.06004E-10 -1.05124E-10 -1.04651E-10
  -1.04602E-10 -1.04994E-10 -1.05843E-10 -1.07165E-10 -1.08974E-10 -1.11287E-10 -1.14117E-10 -1.17479E-10 -1.21386E-10 -1.25853E-10
  -1.30891E-10 -1.36514E-10 -1.42734E-10 -1.49562E-10 -1.57010E-10 -1.65089E-10 -1.73808E-10 -1.83177E-10 -1.93208E-10 -2.03907E-10
  -2.15284E-10 -2.27347E-10 -2.40103E-10 -2.53559E-10 -2.67722E-10 -2.82597E-10 -2.98190E-10 -3.14507E-10 -3.31551E-10 -3.49326E-10
  -3.67836E-10 -3.87083E-10 -4.07071E-10 -4.27800E-10 -4.49272E-10 -4.71488E-10 -4.94447E-10 -5.18151E-10 -5.42597E-10 -5.67785E-10
  -5.93713E-10 -6.20378E-10 -6.47777E-10 -6.75908E-10 -7.04767E-10 -7.34347E-10 -7.64646E-10 -7.95657E-10 -8.27374E-10 -8.59791E-10
  -8.92902E-10 -9.26698E-10 -9.61172E-10 -9.96314E-10 -1.03212E-09 -1.06857E-09 -1.10567E-09 -1.14339E-09 -1.18174E-09 -1.22069E-09
  -1.26024E-09 -1.30038E-09 -1.34108E-09
 Ins      Conc. = 2.32E-09
  -4.32290E-09 -4.40910E-09 -4.76178E-09 -5.55898E-09 -6.26268E-09 -5.49747E-09 -5.93209E-09 -7.23600E-09 -5.91769E-09 -3.75004E-09
  -2.91493E-09 -1.68285E-09 -8.88466E-11  1.26452E-09  2.00217E-09  4.61725E-09  5.28755E-09  5.78967E-09  8.41743E-09  9.22764E-09
   7.96875E-09  6.98013E-09  6.86053E-09  6.54163E-09  5.80754E-09  5.77014E-09  5.70979E-09  5.51040E-09  5.65902E-09  5.83660E-09
   5.82568E-09  6.19185E-09  6.53855E-09  6.28275E-09  6.22512E-09  6.55936E-09  6.42984E-09  6.26430E-09  6.12955E-09  6.04938E-09
   5.99631E-09  5.95047E-09  5.91585E-09  5.89255E-09  5.87854E-09  5.87253E-09  5.87320E-09  5.87952E-09  5.89070E-09  5.90605E-09
   5.92501E-09  5.94708E-09  5.97184E-09  5.99895E-09  6.02808E-09  6.05896E-09  6.09135E-09  6.12504E-09  6.15985E-09  6.19560E-09
   6.23214E-09  6.26935E-09  6.30709E-09  6.34526E-09  6.38375E-09  6.42247E-09  6.46135E-09  6.50030E-09  6.53927E-09  6.57817E-09
   6.61696E-09  6.65558E-09  6.69397E-09  6.73210E-09  6.76992E-09  6.80739E-09  6.84448E-09  6.88115E-09  6.91737E-09  6.95310E-09
   6.98834E-09  7.02304E-09  7.05718E-09  7.09076E-09  7.12372E-09  7.15607E-09  7.18779E-09  7.21887E-09  7.24928E-09  7.27901E-09
   7.30805E-09  7.33639E-09  7.36399E-09  7.39085E-09  7.41690E-09  7.44214E-09  7.46652E-09  7.49000E-09  7.51254E-09  7.53414E-09
   7.55473E-09  7.57430E-09  7.59280E-09  7.61020E-09  7.62647E-09  7.64157E-09  7.65547E-09  7.66813E-09  7.67953E-09  7.68963E-09
   7.69838E-09  7.70575E-09  7.71174E-09  7.71627E-09  7.71932E-09  7.72087E-09  7.72090E-09  7.71935E-09  7.71617E-09  7.71136E-09
   7.70488E-09  7.69669E-09  7.68677E-09  7.67506E-09  7.66159E-09  7.64626E-09  7.62908E-09  7.61001E-09  7.58903E-09  7.56608E-09
   7.54117E-09  7.51426E-09  7.48534E-09  7.45435E-09  7.42128E-09  7.38615E-09  7.34888E-09  7.30948E-09  7.26800E-09  7.22448E-09
   7.17894E-09  7.13144E-09  7.08202E-09  7.03072E-09  6.97761E-09  6.92274E-09  6.86619E-09  6.80800E-09  6.74827E-09  6.68709E-09
   6.62456E-09  6.56078E-09  6.49591E-09  6.43010E-09  6.36355E-09  6.29654E-09  6.22941E-09  6.16262E-09  6.09683E-09  6.03300E-09
   5.97272E-09  5.91856E-09  5.87538E-09  5.85344E-09  5.87871E-09  6.03869E-09  6.78762E-09  8.48149E-09  8.32248E-09  8.25603E-09
   8.62056E-09  8.49900E-09  8.12480E-09  8.17906E-09  8.53253E-09  8.27127E-09  7.90114E-09  7.70516E-09  4.95666E-09  4.31584E-09
   4.06688E-09  3.90983E-09  3.78422E-09  3.67203E-09  3.56646E-09  3.46452E-09  3.36477E-09  3.26644E-09  3.16914E-09  3.07265E-09
   2.97689E-09  2.88177E-09  2.78733E-09  2.69355E-09  2.60047E-09  2.50814E-09  2.41661E-09  2.32592E-09  2.23614E-09  2.14730E-09
   2.05948E-09  1.97272E-09  1.88708E-09  1.80263E-09  1.71940E-09  1.63745E-09  1.55683E-09  1.47760E-09  1.39980E-09  1.32349E-09
   1.24871E-09  1.17551E-09  1.10391E-09  1.03397E-09  9.65740E-10  8.99243E-10  8.34521E-10  7.71599E-10  7.10520E-10  6.51327E-10
   5.94015E-10  5.38647E-10  4.85236E-10  4.33788E-10  3.84332E-10  3.36925E-10  2.91524E-10  2.48166E-10  2.06839E-10  1.67489E-10
   1.30072E-10  9.45473E-11  6.08679E-11  2.89879E-11 -1.13222E-12 -2.95446E-11 -5.62881E-11 -8.14121E-11 -1.04959E-10 -1.26971E-10
