 LCModel (Version 6.3-1R) Copyright: S.W. Provencher.          Ref.: Magn. Reson. Med. 30:672-679 (1993).                
 onepulse 22x7_ftSpec_smooth_lcm
 26 lines in following concentration table = NCONC+1
    Conc.  %SD /Cr+PCr  Metabolite                                         
    0.000 999%   0.000 Ala                                                 
 8.90E-10  79%   1.708 Asp                                                 
    0.000 999%   0.000 Cr                                                  
 1.97E-10 420%   0.379 GABA                                                
 5.74E-10 144%   1.102 Glc                                                 
 3.16E-09  23%   6.058 Gln                                                 
    0.000 999%   0.000 Glu                                                 
    0.000 999%   0.000 Glyc                                                
    0.000 999%   0.000 GPC                                                 
 1.13E-10 462%   0.217 GSH                                                 
 1.29E-09  36%   2.475 Ins                                                 
    0.000 999%   0.000 Lac                                                 
 3.38E-10 111%   0.650 NAAG                                                
 1.68E-10 334%   0.323 NAA                                                 
    0.000 999%   0.000 PCh                                                 
 5.21E-10  66%   1.000 PCr                                                 
 1.86E-09  44%   3.574 PE                                                  
 9.73E-11 291%   0.187 Scyllo                                              
    0.000 999%   0.000 Ser                                                 
 4.51E-10 251%   0.867 Tau                                                 
    0.000 999%   0.000 GPC+PCh                                             
 5.07E-10  65%   0.973 NAA+NAAG                                            
 1.29E-09  36%   2.475 Ins+Glyc                                            
 5.21E-10  66%   1.000 Cr+PCr                                              
 3.16E-09  23%   6.058 Glu+Gln                                             
   6 lines in following misc. output table
  FWHM = 0.112 ppm    S/N =   3                                            
  Data shift = 0.380 ppm                                                   
  Ph: -27 deg     -45.6 deg/ppm                                            
  alphaB,S = 1.8E-01,   2.3E+01                                            
   12 spline knots.   Ns = 5(1)                                            
  ( 9) 4 infls.   ( 5) 3 extrs.                                            
  363 points on ppm-axis = NY
      4.250000     4.238821     4.227641     4.216462     4.205282     4.194103     4.182923     4.171744     4.160564     4.149385
      4.138206     4.127026     4.115847     4.104667     4.093488     4.082308     4.071129     4.059949     4.048770     4.037591
      4.026411     4.015232     4.004052     3.992873     3.981693     3.970514     3.959334     3.948155     3.936975     3.925796
      3.914617     3.903437     3.892258     3.881078     3.869899     3.858719     3.847540     3.836360     3.825181     3.814002
      3.802822     3.791643     3.780463     3.769284     3.758104     3.746925     3.735745     3.724566     3.713387     3.702207
      3.691028     3.679848     3.668669     3.657489     3.646310     3.635130     3.623951     3.612772     3.601592     3.590413
      3.579233     3.568054     3.556874     3.545695     3.534515     3.523336     3.512156     3.500977     3.489798     3.478618
      3.467439     3.456259     3.445080     3.433900     3.422721     3.411541     3.400362     3.389183     3.378003     3.366824
      3.355644     3.344465     3.333285     3.322106     3.310926     3.299747     3.288568     3.277388     3.266209     3.255029
      3.243850     3.232670     3.221491     3.210311     3.199132     3.187953     3.176773     3.165594     3.154414     3.143235
      3.132055     3.120876     3.109696     3.098517     3.087337     3.076158     3.064979     3.053799     3.042620     3.031440
      3.020261     3.009081     2.997902     2.986722     2.975543     2.964364     2.953184     2.942005     2.930825     2.919646
      2.908466     2.897287     2.886107     2.874928     2.863749     2.852569     2.841390     2.830210     2.819031     2.807851
      2.796672     2.785492     2.774313     2.763134     2.751954     2.740775     2.729595     2.718416     2.707236     2.696057
      2.684877     2.673698     2.662519     2.651339     2.640160     2.628980     2.617801     2.606621     2.595442     2.584262
      2.573083     2.561903     2.550724     2.539545     2.528365     2.517186     2.506006     2.494827     2.483647     2.472468
      2.461288     2.450109     2.438930     2.427750     2.416571     2.405391     2.394212     2.383032     2.371853     2.360673
      2.349494     2.338315     2.327135     2.315956     2.304776     2.293597     2.282417     2.271238     2.260058     2.248879
      2.237700     2.226520     2.215341     2.204161     2.192982     2.181802     2.170623     2.159443     2.148264     2.137084
      2.125905     2.114726     2.103546     2.092367     2.081187     2.070008     2.058828     2.047649     2.036469     2.025290
      2.014111     2.002931     1.991752     1.980572     1.969393     1.958213     1.947034     1.935854     1.924675     1.913496
      1.902316     1.891137     1.879957     1.868778     1.857598     1.846419     1.835239     1.824060     1.812881     1.801701
      1.790522     1.779342     1.768163     1.756983     1.745804     1.734624     1.723445     1.712265     1.701086     1.689907
      1.678727     1.667548     1.656368     1.645189     1.634009     1.622830     1.611650     1.600471     1.589292     1.578112
      1.566933     1.555753     1.544574     1.533394     1.522215     1.511035     1.499856     1.488677     1.477497     1.466318
      1.455138     1.443959     1.432779     1.421600     1.410420     1.399241     1.388062     1.376882     1.365703     1.354523
      1.343344     1.332164     1.320985     1.309805     1.298626     1.287446     1.276267     1.265088     1.253908     1.242729
      1.231549     1.220370     1.209190     1.198011     1.186831     1.175652     1.164473     1.153293     1.142114     1.130934
      1.119755     1.108575     1.097396     1.086216     1.075037     1.063858     1.052678     1.041499     1.030319     1.019140
      1.007960     0.996781     0.985601     0.974422     0.963243     0.952063     0.940884     0.929704     0.918525     0.907345
      0.896166     0.884986     0.873807     0.862628     0.851448     0.840269     0.829089     0.817910     0.806730     0.795551
      0.784371     0.773192     0.762012     0.750833     0.739654     0.728474     0.717295     0.706115     0.694936     0.683756
      0.672577     0.661397     0.650218     0.639039     0.627859     0.616680     0.605500     0.594321     0.583141     0.571962
      0.560782     0.549603     0.538424     0.527244     0.516065     0.504885     0.493706     0.482526     0.471347     0.460167
      0.448988     0.437809     0.426629     0.415450     0.404270     0.393091     0.381911     0.370732     0.359552     0.348373
      0.337193     0.326014     0.314835     0.303655     0.292476     0.281296     0.270117     0.258937     0.247758     0.236578
      0.225399     0.214220     0.203040
 NY phased data points follow
   1.13340E-08  1.12878E-08  1.00763E-08  1.05710E-08  9.46818E-09  1.05314E-08  1.02606E-08  1.16392E-08  1.07191E-08  1.17975E-08
   1.11044E-08  1.27486E-08  1.14808E-08  1.22910E-08  1.07398E-08  1.11322E-08  1.08832E-08  1.08364E-08  9.98451E-09  1.09618E-08
   1.03093E-08  1.13516E-08  1.09675E-08  1.12433E-08  1.02380E-08  1.12917E-08  1.05182E-08  1.20277E-08  1.20091E-08  1.31392E-08
   1.24337E-08  1.23919E-08  1.10570E-08  1.04525E-08  9.77497E-09  9.41041E-09  8.53427E-09  8.96893E-09  8.43862E-09  8.77968E-09
   8.25367E-09  8.37429E-09  7.52193E-09  7.40170E-09  6.86412E-09  7.59575E-09  7.09319E-09  7.67007E-09  7.24168E-09  7.13160E-09
   6.98965E-09  7.88378E-09  7.09550E-09  7.01146E-09  6.18324E-09  7.99218E-09  7.80401E-09  9.28434E-09  9.26341E-09  1.16796E-08
   1.30505E-08  1.39555E-08  1.28090E-08  1.33364E-08  1.13786E-08  1.10003E-08  9.84539E-09  9.91571E-09  8.66590E-09  8.53425E-09
   7.01736E-09  7.22981E-09  7.12468E-09  8.05904E-09  8.09178E-09  1.08758E-08  1.24108E-08  1.54238E-08  1.62348E-08  1.66265E-08
   1.52289E-08  1.45997E-08  1.40989E-08  1.36200E-08  1.30388E-08  1.24018E-08  1.23803E-08  1.24186E-08  1.09469E-08  1.16853E-08
   1.05709E-08  1.04081E-08  9.01870E-09  9.91393E-09  8.33673E-09  8.69773E-09  7.60835E-09  8.05811E-09  7.34652E-09  8.10112E-09
   7.64748E-09  8.23099E-09  7.26382E-09  7.97556E-09  6.92227E-09  7.64430E-09  6.57880E-09  6.38022E-09  5.60061E-09  6.26525E-09
   5.64237E-09  6.52555E-09  6.01567E-09  6.74680E-09  6.78750E-09  7.36688E-09  6.57303E-09  7.05980E-09  6.91515E-09  6.88606E-09
   6.41632E-09  6.38765E-09  5.18115E-09  5.27033E-09  5.30008E-09  5.72427E-09  5.46920E-09  5.88389E-09  6.01359E-09  6.28238E-09
   5.80929E-09  6.82004E-09  6.62255E-09  7.14139E-09  6.13570E-09  7.05721E-09  6.90906E-09  7.34190E-09  9.08643E-09  9.14903E-09
   9.24724E-09  9.26558E-09  9.51265E-09  1.02537E-08  1.02925E-08  1.01127E-08  1.04796E-08  1.07245E-08  9.99391E-09  1.04648E-08
   1.00974E-08  9.71161E-09  9.24493E-09  1.00958E-08  9.59802E-09  9.79519E-09  9.19782E-09  9.84083E-09  9.25398E-09  9.82066E-09
   9.33548E-09  9.06972E-09  8.76616E-09  8.58293E-09  9.16069E-09  7.98773E-09  8.03519E-09  9.20453E-09  1.31393E-08  1.67856E-08
   1.89649E-08  1.99806E-08  2.01284E-08  1.95927E-08  2.01997E-08  1.88510E-08  1.79000E-08  1.63263E-08  1.55497E-08  1.42209E-08
   1.26021E-08  1.09634E-08  9.27984E-09  6.55524E-09  4.48048E-09  1.76276E-09 -5.31571E-10 -3.49243E-09 -5.54764E-09 -7.99101E-09
  -9.60785E-09 -1.16762E-08 -1.25856E-08 -1.32091E-08 -1.38638E-08 -1.43780E-08 -1.38302E-08 -1.30362E-08 -1.23895E-08 -1.11201E-08
  -1.02973E-08 -9.15340E-09 -7.47748E-09 -7.41500E-09 -6.14892E-09 -5.73207E-09 -4.42052E-09 -4.34638E-09 -3.09478E-09 -3.39679E-09
  -2.91052E-09 -2.97485E-09 -2.89346E-09 -3.06035E-09 -2.97261E-09 -3.35419E-09 -3.22990E-09 -2.98358E-09 -2.55553E-09 -2.74607E-09
  -2.07772E-09 -2.41797E-09 -1.91458E-09 -2.05205E-09 -2.52550E-09 -2.55115E-09 -2.41587E-09 -2.48030E-09 -2.23098E-09 -2.55199E-09
  -2.03086E-09 -2.07390E-09 -1.51277E-09 -2.38710E-09 -1.91070E-09 -2.13239E-09 -1.66173E-09 -2.31700E-09 -2.06521E-09 -2.13873E-09
  -2.19041E-09 -2.05665E-09 -2.25235E-09 -2.51933E-09 -1.98972E-09 -2.17844E-09 -1.91646E-09 -2.51281E-09 -1.75780E-09 -1.74695E-09
  -1.84259E-09 -1.98430E-09 -1.43755E-09 -1.36206E-09 -1.45386E-09 -1.96453E-09 -1.13563E-09 -1.34242E-09 -1.80371E-09 -1.61964E-09
  -1.64763E-09 -2.29574E-09 -2.01564E-09 -2.34007E-09 -2.40032E-09 -3.20507E-09 -2.25057E-09 -3.36246E-09 -2.59287E-09 -2.73851E-09
  -2.45585E-09 -2.50430E-09 -2.23337E-09 -1.93388E-09 -1.28353E-09 -7.90097E-10 -9.23232E-10 -9.10169E-10 -7.86972E-10 -1.18562E-09
  -9.71437E-10 -4.63582E-10 -7.94546E-10 -1.26954E-09 -1.12551E-09 -7.61485E-10 -7.22758E-10 -6.94758E-10 -1.04328E-09 -1.17648E-09
  -7.92262E-10 -1.08499E-09 -1.52192E-09 -1.38838E-09 -1.17078E-09 -1.18251E-09 -1.19877E-09 -1.19403E-09 -1.64033E-09 -1.30804E-09
  -1.75998E-09 -1.76776E-09 -1.27454E-09 -1.80190E-09 -1.62612E-09 -1.33064E-09 -1.18144E-09 -1.83810E-09 -1.63001E-09 -1.71638E-09
  -1.88797E-09 -1.82905E-09 -1.96860E-09 -2.08577E-09 -1.34034E-09 -1.79213E-09 -1.85201E-09 -1.64094E-09 -2.30170E-09 -2.01397E-09
  -1.64218E-09 -2.25192E-09 -1.71637E-09 -2.38400E-09 -2.15915E-09 -2.20616E-09 -2.18098E-09 -2.31882E-09 -2.05977E-09 -2.27974E-09
  -1.81039E-09 -2.52710E-09 -1.87715E-09 -2.49447E-09 -1.87273E-09 -2.01971E-09 -2.27088E-09 -2.64557E-09 -2.19703E-09 -2.69323E-09
  -2.06980E-09 -2.65751E-09 -2.17079E-09 -2.17750E-09 -2.19004E-09 -3.00135E-09 -2.52700E-09 -2.35817E-09 -2.46026E-09 -2.51218E-09
  -2.55434E-09 -2.81490E-09 -2.48012E-09 -2.94252E-09 -2.75583E-09 -3.00525E-09 -3.13330E-09 -2.97038E-09 -2.60363E-09 -3.12157E-09
  -2.95125E-09 -3.46893E-09 -2.72360E-09
 NY points of the fit to the data follow
   1.15046E-08  1.10013E-08  1.04022E-08  1.02263E-08  1.03549E-08  1.06756E-08  1.08613E-08  1.09082E-08  1.09998E-08  1.14080E-08
   1.14870E-08  1.12476E-08  1.13613E-08  1.13813E-08  1.14980E-08  1.14178E-08  1.14596E-08  1.17177E-08  1.12685E-08  1.01501E-08
   9.63264E-09  9.90069E-09  1.03468E-08  1.08130E-08  1.11591E-08  1.14957E-08  1.20012E-08  1.22661E-08  1.23040E-08  1.22330E-08
   1.21228E-08  1.17280E-08  1.12041E-08  1.08616E-08  1.04112E-08  9.75303E-09  9.03905E-09  8.58140E-09  8.48715E-09  8.50416E-09
   8.43690E-09  8.03162E-09  7.03859E-09  6.19473E-09  6.13177E-09  6.25807E-09  6.36029E-09  6.38729E-09  6.51015E-09  6.69019E-09
   6.98373E-09  7.30024E-09  7.58801E-09  7.77545E-09  8.02910E-09  8.52147E-09  9.11552E-09  9.95634E-09  1.08878E-08  1.15837E-08
   1.21545E-08  1.26033E-08  1.29109E-08  1.30373E-08  1.28065E-08  1.20985E-08  1.12872E-08  1.08531E-08  9.92170E-09  8.86234E-09
   8.65257E-09  8.79160E-09  8.88891E-09  9.32080E-09  9.97152E-09  1.08627E-08  1.19547E-08  1.32099E-08  1.43167E-08  1.50414E-08
   1.54244E-08  1.54586E-08  1.49261E-08  1.44732E-08  1.42216E-08  1.32287E-08  1.16699E-08  1.04347E-08  9.33711E-09  8.66379E-09
   8.30293E-09  8.09181E-09  7.96216E-09  7.83920E-09  7.72063E-09  7.66765E-09  7.60837E-09  7.53960E-09  7.50578E-09  7.47011E-09
   7.44840E-09  7.44558E-09  7.44434E-09  7.44532E-09  7.45304E-09  7.46576E-09  7.48151E-09  7.49949E-09  7.51874E-09  7.53907E-09
   7.56015E-09  7.58166E-09  7.60338E-09  7.62513E-09  7.64674E-09  7.66810E-09  7.68907E-09  7.70955E-09  7.72942E-09  7.74861E-09
   7.76704E-09  7.78465E-09  7.80132E-09  7.81682E-09  7.83095E-09  7.84349E-09  7.85424E-09  7.86298E-09  7.86951E-09  7.87364E-09
   7.87517E-09  7.87389E-09  7.86962E-09  7.86218E-09  7.85135E-09  7.83696E-09  7.81885E-09  7.79679E-09  7.77063E-09  7.74019E-09
   7.70530E-09  7.66579E-09  7.62150E-09  7.57226E-09  7.51793E-09  7.45837E-09  7.39343E-09  7.32300E-09  7.24700E-09  7.16531E-09
   7.07788E-09  6.98471E-09  6.88581E-09  6.78126E-09  6.67126E-09  6.55609E-09  6.43625E-09  6.31247E-09  6.18590E-09  6.05835E-09
   5.93280E-09  5.81407E-09  5.71108E-09  5.64140E-09  5.64348E-09  5.82239E-09  6.60086E-09  9.50581E-09  1.34914E-08  1.70786E-08
   1.93824E-08  2.03116E-08  2.03903E-08  2.02981E-08  2.04589E-08  2.05309E-08  1.92583E-08  1.45666E-08  6.88958E-09  3.46428E-09
   2.26925E-09  1.59789E-09  1.11478E-09  7.19830E-10  3.73646E-10  5.79078E-11 -2.36860E-10 -5.15898E-10 -7.82246E-10 -1.03766E-09
  -1.28318E-09 -1.51935E-09 -1.74643E-09 -1.96449E-09 -2.17340E-09 -2.37298E-09 -2.56299E-09 -2.74308E-09 -2.91290E-09 -3.07210E-09
  -3.22021E-09 -3.35686E-09 -3.48165E-09 -3.59484E-09 -3.69677E-09 -3.78783E-09 -3.86839E-09 -3.93883E-09 -3.99950E-09 -4.05076E-09
  -4.09296E-09 -4.12647E-09 -4.15162E-09 -4.16878E-09 -4.17829E-09 -4.18050E-09 -4.17574E-09 -4.16438E-09 -4.14676E-09 -4.12320E-09
  -4.09408E-09 -4.05972E-09 -4.02046E-09 -3.97666E-09 -3.92864E-09 -3.87677E-09 -3.82135E-09 -3.76277E-09 -3.70134E-09 -3.63739E-09
  -3.57129E-09 -3.50337E-09 -3.43397E-09 -3.36341E-09 -3.29207E-09 -3.22024E-09 -3.14832E-09 -3.07657E-09 -3.00541E-09 -2.93513E-09
  -2.86609E-09 -2.79861E-09 -2.73303E-09 -2.66946E-09 -2.60787E-09 -2.54824E-09 -2.49054E-09 -2.43473E-09 -2.38081E-09 -2.32873E-09
  -2.27847E-09 -2.23002E-09 -2.18332E-09 -2.13838E-09 -2.09514E-09 -2.05362E-09 -2.01374E-09 -1.97550E-09 -1.93888E-09 -1.90382E-09
  -1.87035E-09 -1.83839E-09 -1.80793E-09 -1.77896E-09 -1.75144E-09 -1.72533E-09 -1.70062E-09 -1.67729E-09 -1.65530E-09 -1.63463E-09
  -1.61524E-09 -1.59711E-09 -1.58023E-09 -1.56456E-09 -1.55007E-09 -1.53672E-09 -1.52452E-09 -1.51340E-09 -1.50337E-09 -1.49438E-09
  -1.48642E-09 -1.47945E-09 -1.47345E-09 -1.46840E-09 -1.46428E-09 -1.46109E-09 -1.45881E-09 -1.45743E-09 -1.45693E-09 -1.45731E-09
  -1.45856E-09 -1.46065E-09 -1.46358E-09 -1.46733E-09 -1.47191E-09 -1.47728E-09 -1.48344E-09 -1.49038E-09 -1.49808E-09 -1.50654E-09
  -1.51574E-09 -1.52566E-09 -1.53630E-09 -1.54765E-09 -1.55969E-09 -1.57240E-09 -1.58579E-09 -1.59983E-09 -1.61451E-09 -1.62983E-09
  -1.64576E-09 -1.66229E-09 -1.67943E-09 -1.69714E-09 -1.71542E-09 -1.73427E-09 -1.75366E-09 -1.77357E-09 -1.79401E-09 -1.81496E-09
  -1.83641E-09 -1.85833E-09 -1.88074E-09 -1.90360E-09 -1.92690E-09 -1.95064E-09 -1.97479E-09 -1.99934E-09 -2.02427E-09 -2.04958E-09
  -2.07525E-09 -2.10125E-09 -2.12759E-09 -2.15423E-09 -2.18118E-09 -2.20841E-09 -2.23591E-09 -2.26366E-09 -2.29165E-09 -2.31987E-09
  -2.34829E-09 -2.37692E-09 -2.40572E-09 -2.43469E-09 -2.46381E-09 -2.49307E-09 -2.52245E-09 -2.55194E-09 -2.58152E-09 -2.61119E-09
  -2.64091E-09 -2.67069E-09 -2.70050E-09 -2.73033E-09 -2.76017E-09 -2.78999E-09 -2.81979E-09 -2.84956E-09 -2.87927E-09 -2.90891E-09
  -2.93847E-09 -2.96794E-09 -2.99729E-09
 NY background values follow
     1.392E-10    2.003E-10    2.613E-10    3.221E-10    3.828E-10    4.434E-10    5.039E-10    5.643E-10    6.246E-10    6.847E-10
     7.449E-10    8.049E-10    8.649E-10    9.248E-10    9.847E-10    1.045E-09    1.104E-09    1.164E-09    1.224E-09    1.284E-09
     1.344E-09    1.403E-09    1.463E-09    1.523E-09    1.583E-09    1.643E-09    1.703E-09    1.763E-09    1.823E-09    1.883E-09
     1.944E-09    2.004E-09    2.065E-09    2.125E-09    2.186E-09    2.247E-09    2.308E-09    2.370E-09    2.431E-09    2.492E-09
     2.554E-09    2.616E-09    2.678E-09    2.741E-09    2.803E-09    2.866E-09    2.928E-09    2.991E-09    3.054E-09    3.117E-09
     3.180E-09    3.243E-09    3.306E-09    3.369E-09    3.432E-09    3.495E-09    3.558E-09    3.621E-09    3.684E-09    3.747E-09
     3.810E-09    3.873E-09    3.935E-09    3.998E-09    4.060E-09    4.122E-09    4.184E-09    4.246E-09    4.308E-09    4.369E-09
     4.430E-09    4.491E-09    4.552E-09    4.612E-09    4.672E-09    4.732E-09    4.791E-09    4.851E-09    4.909E-09    4.968E-09
     5.026E-09    5.083E-09    5.141E-09    5.197E-09    5.254E-09    5.309E-09    5.365E-09    5.420E-09    5.474E-09    5.527E-09
     5.581E-09    5.633E-09    5.685E-09    5.736E-09    5.786E-09    5.836E-09    5.885E-09    5.934E-09    5.981E-09    6.028E-09
     6.074E-09    6.119E-09    6.163E-09    6.206E-09    6.248E-09    6.290E-09    6.330E-09    6.370E-09    6.408E-09    6.446E-09
     6.482E-09    6.518E-09    6.552E-09    6.585E-09    6.617E-09    6.648E-09    6.678E-09    6.706E-09    6.733E-09    6.759E-09
     6.784E-09    6.807E-09    6.829E-09    6.850E-09    6.868E-09    6.885E-09    6.900E-09    6.912E-09    6.922E-09    6.929E-09
     6.934E-09    6.935E-09    6.933E-09    6.927E-09    6.918E-09    6.905E-09    6.889E-09    6.868E-09    6.842E-09    6.812E-09
     6.778E-09    6.738E-09    6.693E-09    6.643E-09    6.588E-09    6.527E-09    6.460E-09    6.387E-09    6.308E-09    6.222E-09
     6.130E-09    6.031E-09    5.925E-09    5.811E-09    5.691E-09    5.563E-09    5.427E-09    5.283E-09    5.131E-09    4.971E-09
     4.803E-09    4.625E-09    4.439E-09    4.245E-09    4.043E-09    3.834E-09    3.618E-09    3.396E-09    3.168E-09    2.935E-09
     2.697E-09    2.455E-09    2.210E-09    1.961E-09    1.709E-09    1.455E-09    1.200E-09    9.434E-10    6.862E-10    4.288E-10
     1.718E-10   -8.432E-11   -3.391E-10   -5.920E-10   -8.425E-10   -1.090E-09   -1.334E-09   -1.574E-09   -1.810E-09   -2.041E-09
    -2.267E-09   -2.486E-09   -2.699E-09   -2.906E-09   -3.104E-09   -3.295E-09   -3.477E-09   -3.651E-09   -3.814E-09   -3.968E-09
    -4.111E-09   -4.244E-09   -4.364E-09   -4.474E-09   -4.573E-09   -4.661E-09   -4.738E-09   -4.806E-09   -4.865E-09   -4.914E-09
    -4.954E-09   -4.985E-09   -5.009E-09   -5.024E-09   -5.032E-09   -5.033E-09   -5.026E-09   -5.014E-09   -4.995E-09   -4.970E-09
    -4.940E-09   -4.904E-09   -4.864E-09   -4.819E-09   -4.770E-09   -4.717E-09   -4.661E-09   -4.601E-09   -4.539E-09   -4.474E-09
    -4.407E-09   -4.339E-09   -4.269E-09   -4.197E-09   -4.125E-09   -4.053E-09   -3.980E-09   -3.908E-09   -3.836E-09   -3.765E-09
    -3.695E-09   -3.627E-09   -3.561E-09   -3.497E-09   -3.435E-09   -3.375E-09   -3.316E-09   -3.260E-09   -3.206E-09   -3.153E-09
    -3.102E-09   -3.053E-09   -3.006E-09   -2.961E-09   -2.917E-09   -2.875E-09   -2.835E-09   -2.796E-09   -2.759E-09   -2.723E-09
    -2.689E-09   -2.657E-09   -2.626E-09   -2.597E-09   -2.569E-09   -2.542E-09   -2.517E-09   -2.493E-09   -2.471E-09   -2.450E-09
    -2.430E-09   -2.412E-09   -2.394E-09   -2.378E-09   -2.363E-09   -2.350E-09   -2.337E-09   -2.326E-09   -2.315E-09   -2.306E-09
    -2.298E-09   -2.290E-09   -2.284E-09   -2.278E-09   -2.274E-09   -2.270E-09   -2.268E-09   -2.266E-09   -2.265E-09   -2.265E-09
    -2.266E-09   -2.268E-09   -2.270E-09   -2.274E-09   -2.278E-09   -2.283E-09   -2.289E-09   -2.295E-09   -2.303E-09   -2.311E-09
    -2.320E-09   -2.329E-09   -2.340E-09   -2.351E-09   -2.362E-09   -2.375E-09   -2.388E-09   -2.401E-09   -2.416E-09   -2.431E-09
    -2.446E-09   -2.462E-09   -2.479E-09   -2.497E-09   -2.515E-09   -2.533E-09   -2.552E-09   -2.572E-09   -2.592E-09   -2.612E-09
    -2.633E-09   -2.655E-09   -2.677E-09   -2.700E-09   -2.723E-09   -2.746E-09   -2.770E-09   -2.794E-09   -2.818E-09   -2.843E-09
    -2.869E-09   -2.894E-09   -2.920E-09   -2.947E-09   -2.973E-09   -3.000E-09   -3.027E-09   -3.055E-09   -3.082E-09   -3.110E-09
    -3.138E-09   -3.166E-09   -3.195E-09   -3.223E-09   -3.252E-09   -3.281E-09   -3.310E-09   -3.339E-09   -3.368E-09   -3.398E-09
    -3.427E-09   -3.456E-09   -3.486E-09   -3.515E-09   -3.545E-09   -3.574E-09   -3.603E-09   -3.633E-09   -3.662E-09   -3.691E-09
    -3.721E-09   -3.750E-09   -3.778E-09
 Asp      Conc. = 8.90E-10
   1.18602E-09  1.09637E-09  1.05063E-09  9.83559E-10  9.62696E-10  8.91575E-10  8.22190E-10  7.66677E-10  7.74989E-10  8.06476E-10
   8.48609E-10  8.96718E-10  9.49145E-10  1.00505E-09  1.06189E-09  1.11930E-09  1.17739E-09  1.23609E-09  1.29532E-09  1.35503E-09
   1.41519E-09  1.47578E-09  1.53681E-09  1.59831E-09  1.66031E-09  1.72289E-09  1.78611E-09  1.85011E-09  1.91504E-09  1.98112E-09
   2.04869E-09  2.11821E-09  2.19042E-09  2.26658E-09  2.34907E-09  2.44326E-09  2.56228E-09  2.68876E-09  2.82495E-09  2.94186E-09
   3.03251E-09  3.10873E-09  3.20667E-09  3.36470E-09  3.58953E-09  3.87154E-09  4.08500E-09  4.19096E-09  4.30990E-09  4.42289E-09
   4.61232E-09  4.79891E-09  4.91421E-09  4.87398E-09  4.68767E-09  4.45647E-09  4.29743E-09  4.39030E-09  4.42289E-09  4.30428E-09
   4.27876E-09  4.28088E-09  4.26950E-09  4.32155E-09  4.40821E-09  4.45176E-09  4.43395E-09  4.45005E-09  4.48247E-09  4.52326E-09
   4.56897E-09  4.61782E-09  4.66877E-09  4.72118E-09  4.77461E-09  4.82875E-09  4.88336E-09  4.93830E-09  4.99341E-09  5.04860E-09
   5.10378E-09  5.15887E-09  5.21381E-09  5.26855E-09  5.32302E-09  5.37718E-09  5.43099E-09  5.48441E-09  5.53738E-09  5.58990E-09
   5.64191E-09  5.69338E-09  5.74428E-09  5.79460E-09  5.84428E-09  5.89331E-09  5.94166E-09  5.98930E-09  6.03621E-09  6.08236E-09
   6.12771E-09  6.17226E-09  6.21597E-09  6.25882E-09  6.30078E-09  6.34183E-09  6.38194E-09  6.42109E-09  6.45926E-09  6.49643E-09
   6.53256E-09  6.56764E-09  6.60164E-09  6.63454E-09  6.66631E-09  6.69693E-09  6.72638E-09  6.75465E-09  6.78168E-09  6.80749E-09
   6.83201E-09  6.85526E-09  6.87714E-09  6.89746E-09  6.91604E-09  6.93270E-09  6.94725E-09  6.95950E-09  6.96926E-09  6.97635E-09
   6.98058E-09  6.98177E-09  6.97972E-09  6.97426E-09  6.96520E-09  6.95234E-09  6.93551E-09  6.91452E-09  6.88917E-09  6.85930E-09
   6.82471E-09  6.78522E-09  6.74064E-09  6.69079E-09  6.63548E-09  6.57454E-09  6.50779E-09  6.43502E-09  6.35610E-09  6.27081E-09
   6.17898E-09  6.08046E-09  5.97507E-09  5.86265E-09  5.74304E-09  5.61611E-09  5.48175E-09  5.33982E-09  5.19028E-09  5.03314E-09
   4.86854E-09  4.69675E-09  4.51867E-09  4.33648E-09  4.15476E-09  3.98574E-09  3.88096E-09  3.99303E-09  4.16886E-09  4.27870E-09
   4.25255E-09  4.09725E-09  3.87137E-09  3.63903E-09  3.43265E-09  3.20413E-09  2.81799E-09  2.07535E-09  1.09979E-09  6.46396E-10
   3.21779E-10  3.30095E-11 -2.40572E-10 -5.05520E-10 -7.64311E-10 -1.01791E-09 -1.26662E-09 -1.51039E-09 -1.74903E-09 -1.98221E-09
  -2.20956E-09 -2.43066E-09 -2.64507E-09 -2.85235E-09 -3.05201E-09 -3.24356E-09 -3.42656E-09 -3.60046E-09 -3.76481E-09 -3.91912E-09
  -4.06285E-09 -4.19554E-09 -4.31675E-09 -4.42667E-09 -4.52561E-09 -4.61394E-09 -4.69197E-09 -4.76008E-09 -4.81858E-09 -4.86783E-09
  -4.90815E-09 -4.93989E-09 -4.96339E-09 -4.97900E-09 -4.98703E-09 -4.98786E-09 -4.98179E-09 -4.96919E-09 -4.95038E-09 -4.92570E-09
  -4.89549E-09 -4.86011E-09 -4.81987E-09 -4.77512E-09 -4.72619E-09 -4.67345E-09 -4.61719E-09 -4.55780E-09 -4.49559E-09 -4.43088E-09
  -4.36405E-09 -4.29542E-09 -4.22533E-09 -4.15411E-09 -4.08211E-09 -4.00966E-09 -3.93712E-09 -3.86477E-09 -3.79302E-09 -3.72217E-09
  -3.65258E-09 -3.58455E-09 -3.51844E-09 -3.45434E-09 -3.39224E-09 -3.33210E-09 -3.27391E-09 -3.21762E-09 -3.16322E-09 -3.11067E-09
  -3.05995E-09 -3.01105E-09 -2.96391E-09 -2.91852E-09 -2.87485E-09 -2.83290E-09 -2.79260E-09 -2.75394E-09 -2.71691E-09 -2.68144E-09
  -2.64757E-09 -2.61521E-09 -2.58436E-09 -2.55500E-09 -2.52709E-09 -2.50060E-09 -2.47551E-09 -2.45181E-09 -2.42944E-09 -2.40840E-09
  -2.38865E-09 -2.37016E-09 -2.35291E-09 -2.33688E-09 -2.32204E-09 -2.30833E-09 -2.29578E-09 -2.28431E-09 -2.27393E-09 -2.26459E-09
  -2.25630E-09 -2.24897E-09 -2.24264E-09 -2.23725E-09 -2.23279E-09 -2.22926E-09 -2.22664E-09 -2.22493E-09 -2.22410E-09 -2.22415E-09
  -2.22506E-09 -2.22682E-09 -2.22942E-09 -2.23284E-09 -2.23708E-09 -2.24213E-09 -2.24796E-09 -2.25457E-09 -2.26195E-09 -2.27008E-09
  -2.27895E-09 -2.28855E-09 -2.29886E-09 -2.30988E-09 -2.32160E-09 -2.33398E-09 -2.34704E-09 -2.36075E-09 -2.37511E-09 -2.39010E-09
  -2.40571E-09 -2.42191E-09 -2.43872E-09 -2.45611E-09 -2.47406E-09 -2.49258E-09 -2.51164E-09 -2.53122E-09 -2.55133E-09 -2.57196E-09
  -2.59307E-09 -2.61466E-09 -2.63673E-09 -2.65926E-09 -2.68223E-09 -2.70563E-09 -2.72945E-09 -2.75366E-09 -2.77826E-09 -2.80323E-09
  -2.82856E-09 -2.85422E-09 -2.88022E-09 -2.90652E-09 -2.93312E-09 -2.96001E-09 -2.98716E-09 -3.01457E-09 -3.04221E-09 -3.07008E-09
  -3.09816E-09 -3.12643E-09 -3.15488E-09 -3.18349E-09 -3.21226E-09 -3.24116E-09 -3.27019E-09 -3.29932E-09 -3.32854E-09 -3.35784E-09
  -3.38720E-09 -3.41660E-09 -3.44604E-09 -3.47551E-09 -3.50497E-09 -3.53442E-09 -3.56385E-09 -3.59323E-09 -3.62257E-09 -3.65183E-09
  -3.68101E-09 -3.71009E-09 -3.73905E-09
 GABA     Conc. = 1.97E-10
   1.59778E-10  2.21165E-10  2.82421E-10  3.43558E-10  4.04588E-10  4.65520E-10  5.26368E-10  5.87143E-10  6.47857E-10  7.08526E-10
   7.69169E-10  8.29794E-10  8.90424E-10  9.51078E-10  1.01178E-09  1.07256E-09  1.13343E-09  1.19443E-09  1.25562E-09  1.31703E-09
   1.37874E-09  1.44087E-09  1.50351E-09  1.56689E-09  1.63129E-09  1.69717E-09  1.76541E-09  1.83773E-09  1.91839E-09  2.01853E-09
   2.11850E-09  2.21341E-09  2.33092E-09  2.45341E-09  2.56216E-09  2.66802E-09  2.76690E-09  2.85136E-09  2.91242E-09  2.94264E-09
   2.95944E-09  3.01471E-09  3.01767E-09  2.96778E-09  3.00237E-09  3.04488E-09  3.04405E-09  3.07418E-09  3.12132E-09  3.17555E-09
   3.23350E-09  3.29371E-09  3.35549E-09  3.41851E-09  3.48262E-09  3.54777E-09  3.61410E-09  3.68193E-09  3.75190E-09  3.82530E-09
   3.90488E-09  3.99848E-09  4.10712E-09  4.21049E-09  4.31829E-09  4.43817E-09  4.54764E-09  4.64266E-09  4.72818E-09  4.80217E-09
   4.85909E-09  4.89047E-09  4.89622E-09  4.91208E-09  4.94450E-09  4.91783E-09  4.90795E-09  4.96399E-09  5.00254E-09  5.03678E-09
   5.09642E-09  5.15954E-09  5.22735E-09  5.31175E-09  5.39602E-09  5.47645E-09  5.56283E-09  5.64900E-09  5.73188E-09  5.80564E-09
   5.85975E-09  5.91554E-09  5.98246E-09  6.00462E-09  6.01158E-09  6.06241E-09  6.08506E-09  6.08436E-09  6.11398E-09  6.14415E-09
   6.16828E-09  6.19859E-09  6.23242E-09  6.26803E-09  6.30446E-09  6.34112E-09  6.37768E-09  6.41392E-09  6.44967E-09  6.48483E-09
   6.51927E-09  6.55288E-09  6.58559E-09  6.61735E-09  6.64813E-09  6.67789E-09  6.70659E-09  6.73418E-09  6.76061E-09  6.78587E-09
   6.80990E-09  6.83270E-09  6.85417E-09  6.87411E-09  6.89235E-09  6.90870E-09  6.92295E-09  6.93492E-09  6.94442E-09  6.95127E-09
   6.95527E-09  6.95624E-09  6.95398E-09  6.94832E-09  6.93905E-09  6.92599E-09  6.90898E-09  6.88779E-09  6.86224E-09  6.83217E-09
   6.79738E-09  6.75767E-09  6.71287E-09  6.66279E-09  6.60723E-09  6.54602E-09  6.47896E-09  6.40587E-09  6.32659E-09  6.24089E-09
   6.14861E-09  6.04956E-09  5.94357E-09  5.83045E-09  5.71001E-09  5.58208E-09  5.44651E-09  5.30309E-09  5.15169E-09  4.99214E-09
   4.82438E-09  4.64826E-09  4.46399E-09  4.27239E-09  4.07489E-09  3.87468E-09  3.68424E-09  3.53693E-09  3.39854E-09  3.24096E-09
   3.04944E-09  2.82623E-09  2.58484E-09  2.33984E-09  2.09848E-09  1.85004E-09  1.56425E-09  1.19799E-09  7.82811E-10  4.83601E-10
   2.11894E-10 -5.14219E-11 -3.10370E-10 -5.65958E-10 -8.18324E-10 -1.06729E-09 -1.31251E-09 -1.55360E-09 -1.79011E-09 -2.02158E-09
  -2.24751E-09 -2.46745E-09 -2.68087E-09 -2.88731E-09 -3.08625E-09 -3.27717E-09 -3.45962E-09 -3.63304E-09 -3.79696E-09 -3.95090E-09
  -4.09429E-09 -4.22667E-09 -4.34760E-09 -4.45728E-09 -4.55600E-09 -4.64411E-09 -4.72196E-09 -4.78989E-09 -4.84823E-09 -4.89733E-09
  -4.93751E-09 -4.96913E-09 -4.99251E-09 -5.00801E-09 -5.01594E-09 -5.01666E-09 -5.01051E-09 -4.99781E-09 -4.97893E-09 -4.95417E-09
  -4.92389E-09 -4.88843E-09 -4.84813E-09 -4.80332E-09 -4.75434E-09 -4.70154E-09 -4.64522E-09 -4.58578E-09 -4.52352E-09 -4.45877E-09
  -4.39189E-09 -4.32321E-09 -4.25309E-09 -4.18182E-09 -4.10979E-09 -4.03729E-09 -3.96472E-09 -3.89234E-09 -3.82055E-09 -3.74967E-09
