 LCModel (Version 6.3-1R) Copyright: S.W. Provencher.          Ref.: Magn. Reson. Med. 30:672-679 (1993).                
 onepulse 22x8_ftSpec_smooth_lcm
 26 lines in following concentration table = NCONC+1
    Conc.  %SD /Cr+PCr  Metabolite                                         
    0.000 999%   0.000 Ala                                                 
    0.000 999%   0.000 Asp                                                 
    0.000 999%   0.000 Cr                                                  
    0.000 999%   0.000 GABA                                                
 3.90E-10 236%   1.025 Glc                                                 
 2.48E-09  30%   6.533 Gln                                                 
    0.000 999%   0.000 Glu                                                 
    0.000 999%   0.000 Glyc                                                
    0.000 999%   0.000 GPC                                                 
 1.16E-10 386%   0.305 GSH                                                 
 1.69E-09  33%   4.437 Ins                                                 
    0.000 999%   0.000 Lac                                                 
 3.38E-10 104%   0.891 NAAG                                                
 2.31E-10 220%   0.607 NAA                                                 
    0.000 999%   0.000 PCh                                                 
 3.80E-10  94%   1.000 PCr                                                 
 1.93E-09  31%   5.079 PE                                                  
 2.18E-10 108%   0.575 Scyllo                                              
 2.29E-09  42%   6.016 Ser                                                 
    0.000 999%   0.000 Tau                                                 
    0.000 999%   0.000 GPC+PCh                                             
 5.69E-10  54%   1.498 NAA+NAAG                                            
 1.69E-09  33%   4.437 Ins+Glyc                                            
 3.80E-10  94%   1.000 Cr+PCr                                              
 2.48E-09  30%   6.533 Glu+Gln                                             
   6 lines in following misc. output table
  FWHM = 0.112 ppm    S/N =   3                                            
  Data shift = 0.402 ppm                                                   
  Ph:   1 deg     -36.1 deg/ppm                                            
  alphaB,S = 3.9E-01,   4.0E+01                                            
   11 spline knots.   Ns = 5(1)                                            
  (10) 3 infls.   ( 9) 3 extrs.                                            
  363 points on ppm-axis = NY
      4.250000     4.238821     4.227641     4.216462     4.205282     4.194103     4.182923     4.171744     4.160564     4.149385
      4.138206     4.127026     4.115847     4.104667     4.093488     4.082308     4.071129     4.059949     4.048770     4.037591
      4.026411     4.015232     4.004052     3.992873     3.981693     3.970514     3.959334     3.948155     3.936975     3.925796
      3.914617     3.903437     3.892258     3.881078     3.869899     3.858719     3.847540     3.836360     3.825181     3.814002
      3.802822     3.791643     3.780463     3.769284     3.758104     3.746925     3.735745     3.724566     3.713387     3.702207
      3.691028     3.679848     3.668669     3.657489     3.646310     3.635130     3.623951     3.612772     3.601592     3.590413
      3.579233     3.568054     3.556874     3.545695     3.534515     3.523336     3.512156     3.500977     3.489798     3.478618
      3.467439     3.456259     3.445080     3.433900     3.422721     3.411541     3.400362     3.389183     3.378003     3.366824
      3.355644     3.344465     3.333285     3.322106     3.310926     3.299747     3.288568     3.277388     3.266209     3.255029
      3.243850     3.232670     3.221491     3.210311     3.199132     3.187953     3.176773     3.165594     3.154414     3.143235
      3.132055     3.120876     3.109696     3.098517     3.087337     3.076158     3.064979     3.053799     3.042620     3.031440
      3.020261     3.009081     2.997902     2.986722     2.975543     2.964364     2.953184     2.942005     2.930825     2.919646
      2.908466     2.897287     2.886107     2.874928     2.863749     2.852569     2.841390     2.830210     2.819031     2.807851
      2.796672     2.785492     2.774313     2.763134     2.751954     2.740775     2.729595     2.718416     2.707236     2.696057
      2.684877     2.673698     2.662519     2.651339     2.640160     2.628980     2.617801     2.606621     2.595442     2.584262
      2.573083     2.561903     2.550724     2.539545     2.528365     2.517186     2.506006     2.494827     2.483647     2.472468
      2.461288     2.450109     2.438930     2.427750     2.416571     2.405391     2.394212     2.383032     2.371853     2.360673
      2.349494     2.338315     2.327135     2.315956     2.304776     2.293597     2.282417     2.271238     2.260058     2.248879
      2.237700     2.226520     2.215341     2.204161     2.192982     2.181802     2.170623     2.159443     2.148264     2.137084
      2.125905     2.114726     2.103546     2.092367     2.081187     2.070008     2.058828     2.047649     2.036469     2.025290
      2.014111     2.002931     1.991752     1.980572     1.969393     1.958213     1.947034     1.935854     1.924675     1.913496
      1.902316     1.891137     1.879957     1.868778     1.857598     1.846419     1.835239     1.824060     1.812881     1.801701
      1.790522     1.779342     1.768163     1.756983     1.745804     1.734624     1.723445     1.712265     1.701086     1.689907
      1.678727     1.667548     1.656368     1.645189     1.634009     1.622830     1.611650     1.600471     1.589292     1.578112
      1.566933     1.555753     1.544574     1.533394     1.522215     1.511035     1.499856     1.488677     1.477497     1.466318
      1.455138     1.443959     1.432779     1.421600     1.410420     1.399241     1.388062     1.376882     1.365703     1.354523
      1.343344     1.332164     1.320985     1.309805     1.298626     1.287446     1.276267     1.265088     1.253908     1.242729
      1.231549     1.220370     1.209190     1.198011     1.186831     1.175652     1.164473     1.153293     1.142114     1.130934
      1.119755     1.108575     1.097396     1.086216     1.075037     1.063858     1.052678     1.041499     1.030319     1.019140
      1.007960     0.996781     0.985601     0.974422     0.963243     0.952063     0.940884     0.929704     0.918525     0.907345
      0.896166     0.884986     0.873807     0.862628     0.851448     0.840269     0.829089     0.817910     0.806730     0.795551
      0.784371     0.773192     0.762012     0.750833     0.739654     0.728474     0.717295     0.706115     0.694936     0.683756
      0.672577     0.661397     0.650218     0.639039     0.627859     0.616680     0.605500     0.594321     0.583141     0.571962
      0.560782     0.549603     0.538424     0.527244     0.516065     0.504885     0.493706     0.482526     0.471347     0.460167
      0.448988     0.437809     0.426629     0.415450     0.404270     0.393091     0.381911     0.370732     0.359552     0.348373
      0.337193     0.326014     0.314835     0.303655     0.292476     0.281296     0.270117     0.258937     0.247758     0.236578
      0.225399     0.214220     0.203040
 NY phased data points follow
   7.07116E-09  6.62598E-09  6.47653E-09  5.69651E-09  5.48767E-09  5.32329E-09  5.78634E-09  5.67671E-09  6.05785E-09  6.23485E-09
   7.20878E-09  7.34710E-09  8.35628E-09  7.37115E-09  7.98625E-09  7.87859E-09  7.57605E-09  7.41766E-09  7.78781E-09  7.53697E-09
   7.80329E-09  8.03143E-09  8.22840E-09  7.72880E-09  7.84683E-09  7.31856E-09  8.43242E-09  8.83468E-09  1.05383E-08  1.08497E-08
   1.17803E-08  1.13157E-08  1.16808E-08  1.12747E-08  1.08762E-08  1.03258E-08  1.01680E-08  1.00893E-08  1.00970E-08  9.97517E-09
   9.85901E-09  9.24247E-09  8.66042E-09  8.20493E-09  8.14932E-09  7.77111E-09  8.04064E-09  7.70029E-09  6.64169E-09  6.96818E-09
   6.94061E-09  6.41772E-09  4.56932E-09  4.52843E-09  4.45978E-09  4.21879E-09  4.02416E-09  4.41634E-09  6.40327E-09  8.73757E-09
   9.51261E-09  1.07812E-08  1.12501E-08  1.06958E-08  1.04358E-08  9.86180E-09  9.62135E-09  9.20970E-09  8.13275E-09  6.51394E-09
   5.65611E-09  5.21877E-09  3.97067E-09  3.93470E-09  5.07414E-09  7.11510E-09  1.02664E-08  1.20046E-08  1.34780E-08  1.32633E-08
   1.37466E-08  1.37870E-08  1.37545E-08  1.35666E-08  1.33704E-08  1.44030E-08  1.33086E-08  1.36125E-08  1.33102E-08  1.37636E-08
   1.24785E-08  1.28102E-08  1.24638E-08  1.17618E-08  1.14006E-08  1.09417E-08  1.05706E-08  1.05787E-08  1.05875E-08  1.07538E-08
   1.03229E-08  1.03967E-08  9.98067E-09  9.86680E-09  1.01202E-08  9.11137E-09  8.56191E-09  8.00107E-09  7.62735E-09  7.91135E-09
   7.80327E-09  7.42855E-09  8.14383E-09  8.51238E-09  8.41321E-09  8.16488E-09  8.75243E-09  8.48493E-09  8.31052E-09  8.15167E-09
   7.58029E-09  6.76088E-09  6.51032E-09  6.45832E-09  6.42686E-09  6.21785E-09  6.31596E-09  6.44438E-09  5.93662E-09  6.37462E-09
   6.32067E-09  6.57765E-09  5.87615E-09  5.89154E-09  6.35389E-09  5.76453E-09  7.56054E-09  7.80906E-09  8.52230E-09  8.25256E-09
   8.66267E-09  9.30197E-09  9.75032E-09  9.30337E-09  1.02124E-08  1.05564E-08  9.78551E-09  1.00959E-08  1.01950E-08  9.79574E-09
   9.18380E-09  9.74364E-09  9.66218E-09  9.49738E-09  9.04966E-09  9.29062E-09  9.04770E-09  9.18942E-09  9.10118E-09  8.47194E-09
   8.52885E-09  7.88240E-09  8.24282E-09  7.12134E-09  6.94406E-09  7.19666E-09  1.06809E-08  1.46120E-08  1.76493E-08  1.92730E-08
   2.04046E-08  1.98772E-08  2.10400E-08  2.03045E-08  1.96343E-08  1.84954E-08  1.80433E-08  1.74249E-08  1.59792E-08  1.51467E-08
   1.39057E-08  1.16537E-08  1.00119E-08  7.71369E-09  5.55323E-09  2.64425E-09  7.43830E-10 -2.07685E-09 -4.13652E-09 -6.77827E-09
  -8.25318E-09 -9.53892E-09 -1.08370E-08 -1.24959E-08 -1.26946E-08 -1.27583E-08 -1.29522E-08 -1.19246E-08 -1.16456E-08 -1.06218E-08
  -9.14246E-09 -8.89274E-09 -7.43861E-09 -6.45398E-09 -5.32548E-09 -4.66240E-09 -3.61089E-09 -3.65300E-09 -2.97772E-09 -2.99627E-09
  -3.22925E-09 -3.28211E-09 -3.33510E-09 -3.62361E-09 -3.22241E-09 -3.07477E-09 -2.80649E-09 -2.83702E-09 -2.30555E-09 -2.73847E-09
  -2.11586E-09 -2.36880E-09 -2.79975E-09 -2.76637E-09 -2.83711E-09 -2.53075E-09 -2.61289E-09 -2.67631E-09 -2.19267E-09 -2.21480E-09
  -1.78298E-09 -2.53930E-09 -2.20635E-09 -2.41426E-09 -2.22021E-09 -2.92457E-09 -2.39733E-09 -2.57648E-09 -2.40402E-09 -2.32402E-09
  -2.70018E-09 -2.56216E-09 -2.38809E-09 -2.18104E-09 -2.19534E-09 -2.21077E-09 -1.99569E-09 -1.89977E-09 -2.24258E-09 -2.02358E-09
  -1.57846E-09 -1.63178E-09 -2.12218E-09 -2.17769E-09 -1.51302E-09 -1.98450E-09 -2.64734E-09 -2.50622E-09 -2.61055E-09 -2.90715E-09
  -2.65805E-09 -3.04326E-09 -3.07082E-09 -3.21866E-09 -2.74838E-09 -3.48772E-09 -2.42685E-09 -2.78404E-09 -2.13504E-09 -2.27052E-09
  -1.60688E-09 -1.39275E-09 -7.41619E-10 -8.35925E-10 -1.01386E-09 -1.09196E-09 -1.18656E-09 -1.52890E-09 -1.34326E-09 -1.06129E-09
  -1.75597E-09 -2.04018E-09 -1.67472E-09 -1.60151E-09 -1.65171E-09 -1.85980E-09 -2.37418E-09 -2.29757E-09 -2.04899E-09 -2.74881E-09
  -2.55595E-09 -2.50330E-09 -2.46558E-09 -2.78724E-09 -2.66215E-09 -3.02980E-09 -3.13881E-09 -2.86087E-09 -3.34298E-09 -2.75187E-09
  -2.97974E-09 -3.40194E-09 -3.16194E-09 -2.97651E-09 -3.24900E-09 -3.58338E-09 -3.42418E-09 -3.42560E-09 -3.73689E-09 -3.39287E-09
  -3.62821E-09 -3.27795E-09 -3.20632E-09 -4.01562E-09 -3.59515E-09 -3.69496E-09 -4.17953E-09 -3.17986E-09 -3.87624E-09 -4.05647E-09
  -3.85212E-09 -4.08657E-09 -3.95827E-09 -3.88988E-09 -3.78071E-09 -3.91952E-09 -4.06628E-09 -3.78737E-09 -3.77777E-09 -3.93980E-09
  -3.88305E-09 -4.26784E-09 -3.70132E-09 -4.31682E-09 -4.53713E-09 -3.87295E-09 -4.01317E-09 -4.21515E-09 -4.00601E-09 -4.21386E-09
  -3.67855E-09 -4.08632E-09 -4.44197E-09 -4.50335E-09 -3.77328E-09 -4.15536E-09 -4.07947E-09 -4.34283E-09 -4.28192E-09 -4.21407E-09
  -4.36818E-09 -4.42280E-09 -4.27075E-09 -4.52509E-09 -3.81497E-09 -3.76581E-09 -4.18846E-09 -4.33151E-09 -4.17669E-09 -4.03588E-09
  -3.69493E-09 -4.22813E-09 -3.75344E-09
 NY points of the fit to the data follow
   6.61644E-09  7.29619E-09  6.99607E-09  6.43412E-09  6.14356E-09  6.30788E-09  6.25881E-09  5.74658E-09  5.36775E-09  5.69115E-09
   6.33084E-09  6.72345E-09  7.07709E-09  7.40710E-09  7.90485E-09  8.20346E-09  8.12890E-09  8.31829E-09  8.74229E-09  8.40636E-09
   7.57918E-09  6.97598E-09  6.98019E-09  7.19679E-09  7.58733E-09  8.17531E-09  9.15081E-09  1.01875E-08  1.07678E-08  1.07450E-08
   1.09260E-08  1.10873E-08  1.13019E-08  1.13822E-08  1.14678E-08  1.12127E-08  1.07318E-08  1.00944E-08  9.70747E-09  9.52994E-09
   9.47806E-09  9.36336E-09  8.89611E-09  8.10736E-09  7.59065E-09  7.17308E-09  6.83105E-09  6.50893E-09  6.21253E-09  5.98542E-09
   5.79566E-09  5.63881E-09  5.47800E-09  5.30947E-09  5.30037E-09  5.68626E-09  6.09867E-09  6.54856E-09  7.36135E-09  8.27695E-09
   8.95965E-09  9.57092E-09  1.01325E-08  1.05957E-08  1.07837E-08  1.06033E-08  1.02867E-08  1.00301E-08  9.37134E-09  8.56122E-09
   8.06978E-09  7.87503E-09  7.84498E-09  7.90448E-09  8.07500E-09  8.59183E-09  9.55837E-09  1.08952E-08  1.23331E-08  1.35441E-08
   1.44424E-08  1.50174E-08  1.51876E-08  1.53478E-08  1.55839E-08  1.53529E-08  1.46070E-08  1.35810E-08  1.25309E-08  1.17301E-08
   1.12025E-08  1.08148E-08  1.05149E-08  1.02744E-08  1.00699E-08  9.89377E-09  9.74641E-09  9.62102E-09  9.50683E-09  9.39812E-09
   9.30504E-09  9.22872E-09  9.15893E-09  9.09125E-09  9.03033E-09  8.97559E-09  8.92570E-09  8.87972E-09  8.83666E-09  8.79601E-09
   8.75726E-09  8.71996E-09  8.68372E-09  8.64812E-09  8.61285E-09  8.57758E-09  8.54205E-09  8.50596E-09  8.46907E-09  8.43116E-09
   8.39200E-09  8.35137E-09  8.30910E-09  8.26496E-09  8.21881E-09  8.17045E-09  8.11972E-09  8.06645E-09  8.01049E-09  7.95167E-09
   7.88985E-09  7.82490E-09  7.75667E-09  7.68501E-09  7.60978E-09  7.53090E-09  7.44818E-09  7.36157E-09  7.27115E-09  7.17699E-09
   7.07915E-09  6.97773E-09  6.87283E-09  6.76452E-09  6.65292E-09  6.53815E-09  6.42032E-09  6.29955E-09  6.17599E-09  6.04979E-09
   5.92114E-09  5.79023E-09  5.65729E-09  5.52262E-09  5.38657E-09  5.24960E-09  5.11233E-09  4.97559E-09  4.84062E-09  4.70927E-09
   4.58461E-09  4.47175E-09  4.38029E-09  4.33008E-09  4.36881E-09  4.64176E-09  5.80941E-09  1.08180E-08  1.62184E-08  1.96331E-08
   2.09754E-08  2.11327E-08  2.09889E-08  2.09212E-08  2.09208E-08  2.04208E-08  1.81564E-08  1.29536E-08  6.31862E-09  3.91622E-09
   2.98526E-09  2.44757E-09  2.06707E-09  1.76558E-09  1.50984E-09  1.28331E-09  1.07687E-09  8.85019E-10  7.04323E-10  5.32470E-10
   3.67923E-10  2.09539E-10  5.65726E-11 -9.16007E-11 -2.35396E-10 -3.75144E-10 -5.11076E-10 -6.43390E-10 -7.72220E-10 -8.97681E-10
  -1.01984E-09 -1.13876E-09 -1.25449E-09 -1.36704E-09 -1.47644E-09 -1.58270E-09 -1.68583E-09 -1.78581E-09 -1.88264E-09 -1.97631E-09
  -2.06679E-09 -2.15408E-09 -2.23818E-09 -2.31905E-09 -2.39665E-09 -2.47099E-09 -2.54204E-09 -2.60978E-09 -2.67418E-09 -2.73521E-09
  -2.79290E-09 -2.84716E-09 -2.89800E-09 -2.94542E-09 -2.98940E-09 -3.02987E-09 -3.06688E-09 -3.10040E-09 -3.13050E-09 -3.15734E-09
  -3.18104E-09 -3.20175E-09 -3.21959E-09 -3.23471E-09 -3.24724E-09 -3.25730E-09 -3.26503E-09 -3.27056E-09 -3.27403E-09 -3.27555E-09
  -3.27526E-09 -3.27328E-09 -3.26974E-09 -3.26477E-09 -3.25848E-09 -3.25100E-09 -3.24245E-09 -3.23294E-09 -3.22260E-09 -3.21153E-09
  -3.19986E-09 -3.18770E-09 -3.17515E-09 -3.16233E-09 -3.14934E-09 -3.13628E-09 -3.12327E-09 -3.11040E-09 -3.09777E-09 -3.08547E-09
  -3.07361E-09 -3.06228E-09 -3.05156E-09 -3.04154E-09 -3.03231E-09 -3.02395E-09 -3.01655E-09 -3.01017E-09 -3.00491E-09 -3.00082E-09
  -2.99798E-09 -2.99646E-09 -2.99633E-09 -2.99757E-09 -3.00014E-09 -3.00397E-09 -3.00902E-09 -3.01522E-09 -3.02250E-09 -3.03082E-09
  -3.04013E-09 -3.05034E-09 -3.06143E-09 -3.07332E-09 -3.08596E-09 -3.09929E-09 -3.11326E-09 -3.12780E-09 -3.14288E-09 -3.15842E-09
  -3.17439E-09 -3.19071E-09 -3.20734E-09 -3.22424E-09 -3.24133E-09 -3.25857E-09 -3.27592E-09 -3.29332E-09 -3.31071E-09 -3.32806E-09
  -3.34531E-09 -3.36240E-09 -3.37930E-09 -3.39596E-09 -3.41233E-09 -3.42836E-09 -3.44401E-09 -3.45924E-09 -3.47399E-09 -3.48824E-09
  -3.50193E-09 -3.51502E-09 -3.52748E-09 -3.53927E-09 -3.55034E-09 -3.56065E-09 -3.57018E-09 -3.57887E-09 -3.58671E-09 -3.59367E-09
  -3.59972E-09 -3.60483E-09 -3.60898E-09 -3.61216E-09 -3.61433E-09 -3.61547E-09 -3.61557E-09 -3.61459E-09 -3.61253E-09 -3.60935E-09
  -3.60505E-09 -3.59959E-09 -3.59296E-09 -3.58514E-09 -3.57612E-09 -3.56587E-09 -3.55438E-09 -3.54164E-09 -3.52762E-09 -3.51232E-09
  -3.49571E-09 -3.47779E-09 -3.45854E-09 -3.43794E-09 -3.41599E-09 -3.39267E-09 -3.36798E-09 -3.34189E-09 -3.31441E-09 -3.28551E-09
  -3.25521E-09 -3.22347E-09 -3.19031E-09 -3.15570E-09 -3.11965E-09 -3.08215E-09 -3.04319E-09 -3.00277E-09 -2.96088E-09 -2.91753E-09
  -2.87271E-09 -2.82642E-09 -2.77865E-09
 NY background values follow
     9.063E-10    9.442E-10    9.825E-10    1.021E-09    1.060E-09    1.100E-09    1.140E-09    1.181E-09    1.222E-09    1.263E-09
     1.305E-09    1.347E-09    1.390E-09    1.433E-09    1.476E-09    1.520E-09    1.565E-09    1.609E-09    1.654E-09    1.700E-09
     1.746E-09    1.792E-09    1.838E-09    1.885E-09    1.933E-09    1.980E-09    2.029E-09    2.077E-09    2.126E-09    2.175E-09
     2.224E-09    2.274E-09    2.324E-09    2.375E-09    2.426E-09    2.477E-09    2.528E-09    2.580E-09    2.632E-09    2.684E-09
     2.737E-09    2.790E-09    2.843E-09    2.896E-09    2.950E-09    3.004E-09    3.059E-09    3.113E-09    3.168E-09    3.223E-09
     3.278E-09    3.334E-09    3.390E-09    3.445E-09    3.502E-09    3.558E-09    3.614E-09    3.671E-09    3.727E-09    3.784E-09
     3.841E-09    3.898E-09    3.956E-09    4.013E-09    4.070E-09    4.127E-09    4.185E-09    4.242E-09    4.300E-09    4.357E-09
     4.414E-09    4.472E-09    4.529E-09    4.586E-09    4.643E-09    4.700E-09    4.757E-09    4.814E-09    4.871E-09    4.928E-09
     4.984E-09    5.040E-09    5.096E-09    5.152E-09    5.208E-09    5.263E-09    5.318E-09    5.373E-09    5.427E-09    5.482E-09
     5.535E-09    5.589E-09    5.642E-09    5.695E-09    5.747E-09    5.798E-09    5.849E-09    5.899E-09    5.948E-09    5.997E-09
     6.044E-09    6.090E-09    6.135E-09    6.178E-09    6.220E-09    6.261E-09    6.300E-09    6.338E-09    6.373E-09    6.407E-09
     6.439E-09    6.469E-09    6.497E-09    6.523E-09    6.546E-09    6.567E-09    6.585E-09    6.601E-09    6.614E-09    6.624E-09
     6.631E-09    6.636E-09    6.637E-09    6.635E-09    6.629E-09    6.621E-09    6.608E-09    6.593E-09    6.573E-09    6.550E-09
     6.522E-09    6.491E-09    6.456E-09    6.416E-09    6.372E-09    6.324E-09    6.271E-09    6.214E-09    6.152E-09    6.086E-09
     6.016E-09    5.941E-09    5.863E-09    5.780E-09    5.694E-09    5.604E-09    5.511E-09    5.414E-09    5.313E-09    5.209E-09
     5.103E-09    4.993E-09    4.880E-09    4.764E-09    4.646E-09    4.526E-09    4.403E-09    4.278E-09    4.150E-09    4.021E-09
     3.890E-09    3.757E-09    3.622E-09    3.486E-09    3.349E-09    3.211E-09    3.072E-09    2.931E-09    2.790E-09    2.649E-09
     2.507E-09    2.365E-09    2.222E-09    2.080E-09    1.937E-09    1.795E-09    1.654E-09    1.513E-09    1.372E-09    1.233E-09
     1.094E-09    9.565E-10    8.202E-10    6.854E-10    5.519E-10    4.198E-10    2.893E-10    1.604E-10    3.315E-11   -9.243E-11
    -2.162E-10   -3.382E-10   -4.583E-10   -5.764E-10   -6.926E-10   -8.066E-10   -9.186E-10   -1.028E-09   -1.136E-09   -1.241E-09
    -1.344E-09   -1.445E-09   -1.543E-09   -1.639E-09   -1.732E-09   -1.822E-09   -1.910E-09   -1.995E-09   -2.078E-09   -2.158E-09
    -2.235E-09   -2.309E-09   -2.380E-09   -2.448E-09   -2.513E-09   -2.576E-09   -2.635E-09   -2.691E-09   -2.744E-09   -2.794E-09
    -2.841E-09   -2.884E-09   -2.924E-09   -2.961E-09   -2.995E-09   -3.026E-09   -3.053E-09   -3.076E-09   -3.097E-09   -3.114E-09
    -3.129E-09   -3.140E-09   -3.149E-09   -3.155E-09   -3.159E-09   -3.160E-09   -3.159E-09   -3.156E-09   -3.151E-09   -3.144E-09
    -3.136E-09   -3.126E-09   -3.114E-09   -3.101E-09   -3.087E-09   -3.072E-09   -3.056E-09   -3.039E-09   -3.021E-09   -3.002E-09
    -2.983E-09   -2.964E-09   -2.944E-09   -2.924E-09   -2.904E-09   -2.884E-09   -2.865E-09   -2.845E-09   -2.826E-09   -2.807E-09
    -2.788E-09   -2.770E-09   -2.753E-09   -2.737E-09   -2.721E-09   -2.707E-09   -2.693E-09   -2.680E-09   -2.669E-09   -2.659E-09
    -2.650E-09   -2.643E-09   -2.637E-09   -2.632E-09   -2.629E-09   -2.627E-09   -2.627E-09   -2.627E-09   -2.629E-09   -2.632E-09
    -2.636E-09   -2.641E-09   -2.647E-09   -2.653E-09   -2.661E-09   -2.669E-09   -2.678E-09   -2.687E-09   -2.697E-09   -2.708E-09
    -2.719E-09   -2.730E-09   -2.742E-09   -2.754E-09   -2.767E-09   -2.779E-09   -2.792E-09   -2.805E-09   -2.817E-09   -2.830E-09
    -2.843E-09   -2.856E-09   -2.868E-09   -2.880E-09   -2.893E-09   -2.904E-09   -2.916E-09   -2.927E-09   -2.937E-09   -2.948E-09
    -2.957E-09   -2.966E-09   -2.975E-09   -2.983E-09   -2.990E-09   -2.996E-09   -3.002E-09   -3.007E-09   -3.011E-09   -3.014E-09
    -3.016E-09   -3.018E-09   -3.018E-09   -3.018E-09   -3.017E-09   -3.014E-09   -3.011E-09   -3.007E-09   -3.001E-09   -2.995E-09
    -2.987E-09   -2.978E-09   -2.968E-09   -2.957E-09   -2.945E-09   -2.932E-09   -2.917E-09   -2.901E-09   -2.884E-09   -2.866E-09
    -2.846E-09   -2.825E-09   -2.803E-09   -2.780E-09   -2.755E-09   -2.729E-09   -2.701E-09   -2.672E-09   -2.642E-09   -2.611E-09
    -2.578E-09   -2.543E-09   -2.507E-09   -2.470E-09   -2.432E-09   -2.392E-09   -2.350E-09   -2.307E-09   -2.263E-09   -2.217E-09
    -2.170E-09   -2.121E-09   -2.071E-09
 Glc      Conc. = 3.90E-10
   5.53057E-10  7.22164E-10  8.65995E-10  1.01337E-09  1.15401E-09  1.29751E-09  1.40585E-09  1.49237E-09  1.52896E-09  1.48869E-09
   1.44796E-09  1.41850E-09  1.39262E-09  1.40896E-09  1.52853E-09  1.73096E-09  1.96367E-09  2.19879E-09  2.39371E-09  2.55056E-09
   2.71727E-09  2.88728E-09  3.03778E-09  3.16932E-09  3.22183E-09  3.16208E-09  3.08665E-09  3.04918E-09  3.05072E-09  3.07751E-09
   3.09703E-09  3.10727E-09  3.13071E-09  3.15101E-09  3.15173E-09  3.15911E-09  3.17753E-09  3.18940E-09  3.19778E-09  3.21352E-09
   3.23544E-09  3.26165E-09  3.29134E-09  3.32382E-09  3.35863E-09  3.39544E-09  3.43400E-09  3.47408E-09  3.51551E-09  3.55813E-09
   3.60183E-09  3.64650E-09  3.69205E-09  3.73841E-09  3.78550E-09  3.83327E-09  3.88165E-09  3.93059E-09  3.98006E-09  4.03000E-09
   4.08038E-09  4.13116E-09  4.18231E-09  4.23379E-09  4.28558E-09  4.33764E-09  4.38995E-09  4.44248E-09  4.49520E-09  4.54809E-09
   4.60112E-09  4.65428E-09  4.70753E-09  4.76086E-09  4.81424E-09  4.86766E-09  4.92108E-09  4.97450E-09  5.02788E-09  5.08121E-09
   5.13447E-09  5.18764E-09  5.24070E-09  5.29362E-09  5.34640E-09  5.39900E-09  5.45141E-09  5.50362E-09  5.55559E-09  5.60732E-09
   5.65879E-09  5.70996E-09  5.76080E-09  5.81124E-09  5.86117E-09  5.91054E-09  5.95926E-09  6.00724E-09  6.05439E-09  6.10065E-09
   6.14591E-09  6.19009E-09  6.23311E-09  6.27486E-09  6.31527E-09  6.35424E-09  6.39168E-09  6.42749E-09  6.46159E-09  6.49388E-09
   6.52426E-09  6.55263E-09  6.57891E-09  6.60300E-09  6.62478E-09  6.64417E-09  6.66109E-09  6.67541E-09  6.68704E-09  6.69589E-09
   6.70185E-09  6.70482E-09  6.70470E-09  6.70139E-09  6.69481E-09  6.68483E-09  6.67136E-09  6.65432E-09  6.63358E-09  6.60904E-09
   6.58062E-09  6.54821E-09  6.51172E-09  6.47104E-09  6.42607E-09  6.37673E-09  6.32290E-09  6.26455E-09  6.20176E-09  6.13465E-09
   6.06328E-09  5.98779E-09  5.90826E-09  5.82480E-09  5.73753E-09  5.64655E-09  5.55198E-09  5.45393E-09  5.35253E-09  5.24788E-09
   5.14012E-09  5.02936E-09  4.91575E-09  4.79939E-09  4.68043E-09  4.55901E-09  4.43528E-09  4.30939E-09  4.18152E-09  4.05184E-09
   3.92065E-09  3.78821E-09  3.65506E-09  3.52216E-09  3.39167E-09  3.27031E-09  3.19117E-09  3.26539E-09  3.33736E-09  3.32541E-09
   3.23441E-09  3.10131E-09  2.95949E-09  2.82167E-09  2.68564E-09  2.52635E-09  2.29225E-09  1.94263E-09  1.55457E-09  1.34231E-09
   1.17571E-09  1.02332E-09  8.77675E-10  7.36204E-10  5.97788E-10  4.61888E-10  3.28242E-10  1.96673E-10  6.71417E-11 -6.04089E-11
  -1.85954E-10 -3.09516E-10 -4.31024E-10 -5.50484E-10 -6.67841E-10 -7.83062E-10 -8.96088E-10 -1.00689E-09 -1.11540E-09 -1.22160E-09
  -1.32543E-09 -1.42683E-09 -1.52576E-09 -1.62217E-09 -1.71602E-09 -1.80728E-09 -1.89588E-09 -1.98178E-09 -2.06495E-09 -2.14532E-09
  -2.22287E-09 -2.29755E-09 -2.36934E-09 -2.43819E-09 -2.50403E-09 -2.56687E-09 -2.62664E-09 -2.68334E-09 -2.73692E-09 -2.78732E-09
  -2.83457E-09 -2.87858E-09 -2.91934E-09 -2.95685E-09 -2.99108E-09 -3.02195E-09 -3.04952E-09 -3.07374E-09 -3.09467E-09 -3.11248E-09
  -3.12728E-09 -3.13920E-09 -3.14839E-09 -3.15497E-09 -3.15906E-09 -3.16080E-09 -3.16032E-09 -3.15774E-09 -3.15320E-09 -3.14681E-09
  -3.13871E-09 -3.12901E-09 -3.11785E-09 -3.10533E-09 -3.09159E-09 -3.07675E-09 -3.06091E-09 -3.04421E-09 -3.02675E-09 -3.00864E-09
  -2.99001E-09 -2.97096E-09 -2.95160E-09 -2.93204E-09 -2.91238E-09 -2.89272E-09 -2.87318E-09 -2.85385E-09 -2.83483E-09 -2.81620E-09
  -2.79808E-09 -2.78054E-09 -2.76369E-09 -2.74759E-09 -2.73235E-09 -2.71804E-09 -2.70474E-09 -2.69253E-09 -2.68149E-09 -2.67168E-09
  -2.66318E-09 -2.65605E-09 -2.65036E-09 -2.64609E-09 -2.64322E-09 -2.64165E-09 -2.64136E-09 -2.64227E-09 -2.64431E-09 -2.64744E-09
  -2.65161E-09 -2.65673E-09 -2.66277E-09 -2.66967E-09 -2.67736E-09 -2.68579E-09 -2.69490E-09 -2.70464E-09 -2.71495E-09 -2.72578E-09
  -2.73707E-09 -2.74876E-09 -2.76081E-09 -2.77316E-09 -2.78576E-09 -2.79855E-09 -2.81148E-09 -2.82451E-09 -2.83757E-09 -2.85063E-09
  -2.86362E-09 -2.87651E-09 -2.88925E-09 -2.90178E-09 -2.91405E-09 -2.92604E-09 -2.93768E-09 -2.94893E-09 -2.95975E-09 -2.97011E-09
  -2.97994E-09 -2.98921E-09 -2.99789E-09 -3.00593E-09 -3.01329E-09 -3.01993E-09 -3.02582E-09 -3.03091E-09 -3.03519E-09 -3.03861E-09
  -3.04117E-09 -3.04282E-09 -3.04355E-09 -3.04333E-09 -3.04215E-09 -3.03997E-09 -3.03678E-09 -3.03255E-09 -3.02726E-09 -3.02090E-09
  -3.01343E-09 -3.00485E-09 -2.99513E-09 -2.98426E-09 -2.97221E-09 -2.95897E-09 -2.94452E-09 -2.92885E-09 -2.91194E-09 -2.89377E-09
  -2.87432E-09 -2.85360E-09 -2.83157E-09 -2.80823E-09 -2.78357E-09 -2.75757E-09 -2.73022E-09 -2.70152E-09 -2.67145E-09 -2.63999E-09
  -2.60715E-09 -2.57292E-09 -2.53728E-09 -2.50024E-09 -2.46178E-09 -2.42189E-09 -2.38058E-09 -2.33784E-09 -2.29365E-09 -2.24804E-09
  -2.20098E-09 -2.15247E-09 -2.10252E-09
 Gln      Conc. = 2.48E-09
  -1.06974E-09 -6.98871E-10 -2.06116E-10  3.85115E-10  9.98932E-10  1.59188E-09  2.11965E-09  2.53497E-09  2.83120E-09  3.16891E-09
   3.27850E-09  3.06405E-09  2.98808E-09  2.71864E-09  2.47941E-09  2.31246E-09  2.19281E-09  2.10445E-09  2.03804E-09  1.98775E-09
   1.94968E-09  1.92106E-09  1.89979E-09  1.88437E-09  1.87397E-09  1.86806E-09  1.86537E-09  1.86544E-09  1.86810E-09  1.87257E-09
   1.87842E-09  1.88532E-09  1.89297E-09  1.90110E-09  1.90942E-09  1.91769E-09  1.92564E-09  1.93297E-09  1.93935E-09  1.94444E-09
   1.94803E-09  1.94968E-09  1.94923E-09  1.94632E-09  1.94021E-09  1.93040E-09  1.91630E-09  1.89582E-09  1.86904E-09  1.83721E-09
   1.79663E-09  1.74710E-09  1.69402E-09  1.65893E-09  1.77431E-09  2.25255E-09  2.72994E-09  3.20889E-09  4.04997E-09  5.04646E-09
   5.87129E-09  6.64843E-09  7.36379E-09  7.92876E-09  8.21360E-09  8.13776E-09  7.90853E-09  7.77057E-09  7.22592E-09  6.47893E-09
   5.98925E-09  5.75614E-09  5.67605E-09  5.73305E-09  5.97738E-09  6.56010E-09  7.18275E-09  7.81285E-09  8.45524E-09  9.05407E-09
   9.58956E-09  9.98084E-09  1.00357E-08  1.00189E-08  1.00122E-08  9.66084E-09  9.22834E-09  8.97976E-09  8.61816E-09  8.28418E-09
   8.04615E-09  7.87093E-09  7.73984E-09  7.63993E-09  7.56068E-09  7.49802E-09  7.44895E-09  7.41030E-09  7.38032E-09  7.35768E-09
   7.34071E-09  7.32800E-09  7.31880E-09  7.31248E-09  7.30860E-09  7.30666E-09  7.30605E-09  7.30637E-09  7.30726E-09  7.30841E-09
   7.30950E-09  7.31029E-09  7.31052E-09  7.30995E-09  7.30838E-09  7.30559E-09  7.30142E-09  7.29565E-09  7.28812E-09  7.27867E-09
   7.26713E-09  7.25335E-09  7.23718E-09  7.21845E-09  7.19707E-09  7.17285E-09  7.14568E-09  7.11543E-09  7.08197E-09  7.04514E-09
   7.00486E-09  6.96099E-09  6.91341E-09  6.86199E-09  6.80663E-09  6.74722E-09  6.68362E-09  6.61579E-09  6.54382E-09  6.46777E-09
   6.38774E-09  6.30383E-09  6.21612E-09  6.12472E-09  6.02973E-09  5.93127E-09  5.82944E-09  5.72435E-09  5.61613E-09  5.50491E-09
   5.39082E-09  5.27399E-09  5.15459E-09  5.03277E-09  4.90872E-09  4.78267E-09  4.65486E-09  4.52561E-09  4.39532E-09  4.26454E-09
   4.13419E-09  4.00556E-09  3.88111E-09  3.76565E-09  3.67032E-09  3.62766E-09  3.77657E-09  4.84088E-09  6.06872E-09  6.83441E-09
   7.08379E-09  7.02511E-09  6.87954E-09  6.74845E-09  6.63692E-09  6.41727E-09  5.78906E-09  4.44870E-09  2.70096E-09  1.94015E-09
   1.59374E-09  1.35380E-09  1.15579E-09  9.78997E-10  8.14809E-10  6.59024E-10  5.09384E-10  3.64528E-10  2.23670E-10  8.62609E-11
  -4.80134E-11 -1.79416E-10 -3.08050E-10 -4.34055E-10 -5.57476E-10 -6.78354E-10 -7.96693E-10 -9.12508E-10 -1.02578E-09 -1.13652E-09
  -1.24468E-09 -1.35024E-09 -1.45317E-09 -1.55344E-09 -1.65102E-09 -1.74589E-09 -1.83799E-09 -1.92730E-09 -2.01378E-09 -2.09738E-09
  -2.17808E-09 -2.25583E-09 -2.33062E-09 -2.40241E-09 -2.47114E-09 -2.53679E-09 -2.59933E-09 -2.65874E-09 -2.71498E-09 -2.76799E-09
  -2.81781E-09 -2.86434E-09 -2.90759E-09 -2.94755E-09 -2.98418E-09 -3.01742E-09 -3.04732E-09 -3.07383E-09 -3.09703E-09 -3.11707E-09
  -3.13407E-09 -3.14816E-09 -3.15949E-09 -3.16817E-09 -3.17435E-09 -3.17815E-09 -3.17970E-09 -3.17912E-09 -3.17656E-09 -3.17212E-09
