 LCModel (Version 6.3-1R) Copyright: S.W. Provencher.          Ref.: Magn. Reson. Med. 30:672-679 (1993).                
 onepulse 22x9_ftSpec_smooth_lcm
 26 lines in following concentration table = NCONC+1
    Conc.  %SD   /Cr    Metabolite                                         
    0.000 999%   0.000 Ala                                                 
 3.61E-10 175%   0.000 Asp                                                 
    0.000 999%   0.000 Cr                                                  
 2.16E-10 235%   0.000 GABA                                                
    0.000 999%   0.000 Glc                                                 
 2.55E-09  23%   0.000 Gln                                                 
    0.000 999%   0.000 Glu                                                 
    0.000 999%   0.000 Glyc                                                
    0.000 999%   0.000 GPC                                                 
 1.40E-09  36%   0.000 GSH                                                 
 2.23E-09  18%   0.000 Ins                                                 
    0.000 999%   0.000 Lac                                                 
 4.73E-10  42%   0.000 NAAG                                                
    0.000 999%   0.000 NAA                                                 
    0.000 999%   0.000 PCh                                                 
    0.000 999%   0.000 PCr                                                 
 2.37E-09  36%   0.000 PE                                                  
 2.67E-10  94%   0.000 Scyllo                                              
 1.10E-10 792%   0.000 Ser                                                 
 5.25E-10 173%   0.000 Tau                                                 
    0.000 999%   0.000 GPC+PCh                                             
 4.73E-10  42%   0.000 NAA+NAAG                                            
 2.23E-09  18%   0.000 Ins+Glyc                                            
    0.000 999%   0.000 Cr+PCr                                              
 2.55E-09  23%   0.000 Glu+Gln                                             
   6 lines in following misc. output table
  FWHM = 0.123 ppm    S/N =   3                                            
  Data shift = 0.414 ppm                                                   
  Ph: -16 deg     -41.7 deg/ppm                                            
  alphaB,S = 3.7E-01,   1.4E+01                                            
   10 spline knots.   Ns = 5(1)                                            
  (12) 6 infls.   ( 9) 5 extrs.                                            
  363 points on ppm-axis = NY
      4.250000     4.238821     4.227641     4.216462     4.205282     4.194103     4.182923     4.171744     4.160564     4.149385
      4.138206     4.127026     4.115847     4.104667     4.093488     4.082308     4.071129     4.059949     4.048770     4.037591
      4.026411     4.015232     4.004052     3.992873     3.981693     3.970514     3.959334     3.948155     3.936975     3.925796
      3.914617     3.903437     3.892258     3.881078     3.869899     3.858719     3.847540     3.836360     3.825181     3.814002
      3.802822     3.791643     3.780463     3.769284     3.758104     3.746925     3.735745     3.724566     3.713387     3.702207
      3.691028     3.679848     3.668669     3.657489     3.646310     3.635130     3.623951     3.612772     3.601592     3.590413
      3.579233     3.568054     3.556874     3.545695     3.534515     3.523336     3.512156     3.500977     3.489798     3.478618
      3.467439     3.456259     3.445080     3.433900     3.422721     3.411541     3.400362     3.389183     3.378003     3.366824
      3.355644     3.344465     3.333285     3.322106     3.310926     3.299747     3.288568     3.277388     3.266209     3.255029
      3.243850     3.232670     3.221491     3.210311     3.199132     3.187953     3.176773     3.165594     3.154414     3.143235
      3.132055     3.120876     3.109696     3.098517     3.087337     3.076158     3.064979     3.053799     3.042620     3.031440
      3.020261     3.009081     2.997902     2.986722     2.975543     2.964364     2.953184     2.942005     2.930825     2.919646
      2.908466     2.897287     2.886107     2.874928     2.863749     2.852569     2.841390     2.830210     2.819031     2.807851
      2.796672     2.785492     2.774313     2.763134     2.751954     2.740775     2.729595     2.718416     2.707236     2.696057
      2.684877     2.673698     2.662519     2.651339     2.640160     2.628980     2.617801     2.606621     2.595442     2.584262
      2.573083     2.561903     2.550724     2.539545     2.528365     2.517186     2.506006     2.494827     2.483647     2.472468
      2.461288     2.450109     2.438930     2.427750     2.416571     2.405391     2.394212     2.383032     2.371853     2.360673
      2.349494     2.338315     2.327135     2.315956     2.304776     2.293597     2.282417     2.271238     2.260058     2.248879
      2.237700     2.226520     2.215341     2.204161     2.192982     2.181802     2.170623     2.159443     2.148264     2.137084
      2.125905     2.114726     2.103546     2.092367     2.081187     2.070008     2.058828     2.047649     2.036469     2.025290
      2.014111     2.002931     1.991752     1.980572     1.969393     1.958213     1.947034     1.935854     1.924675     1.913496
      1.902316     1.891137     1.879957     1.868778     1.857598     1.846419     1.835239     1.824060     1.812881     1.801701
      1.790522     1.779342     1.768163     1.756983     1.745804     1.734624     1.723445     1.712265     1.701086     1.689907
      1.678727     1.667548     1.656368     1.645189     1.634009     1.622830     1.611650     1.600471     1.589292     1.578112
      1.566933     1.555753     1.544574     1.533394     1.522215     1.511035     1.499856     1.488677     1.477497     1.466318
      1.455138     1.443959     1.432779     1.421600     1.410420     1.399241     1.388062     1.376882     1.365703     1.354523
      1.343344     1.332164     1.320985     1.309805     1.298626     1.287446     1.276267     1.265088     1.253908     1.242729
      1.231549     1.220370     1.209190     1.198011     1.186831     1.175652     1.164473     1.153293     1.142114     1.130934
      1.119755     1.108575     1.097396     1.086216     1.075037     1.063858     1.052678     1.041499     1.030319     1.019140
      1.007960     0.996781     0.985601     0.974422     0.963243     0.952063     0.940884     0.929704     0.918525     0.907345
      0.896166     0.884986     0.873807     0.862628     0.851448     0.840269     0.829089     0.817910     0.806730     0.795551
      0.784371     0.773192     0.762012     0.750833     0.739654     0.728474     0.717295     0.706115     0.694936     0.683756
      0.672577     0.661397     0.650218     0.639039     0.627859     0.616680     0.605500     0.594321     0.583141     0.571962
      0.560782     0.549603     0.538424     0.527244     0.516065     0.504885     0.493706     0.482526     0.471347     0.460167
      0.448988     0.437809     0.426629     0.415450     0.404270     0.393091     0.381911     0.370732     0.359552     0.348373
      0.337193     0.326014     0.314835     0.303655     0.292476     0.281296     0.270117     0.258937     0.247758     0.236578
      0.225399     0.214220     0.203040
 NY phased data points follow
   1.22586E-08  1.14201E-08  1.18481E-08  1.15941E-08  1.23509E-08  1.25733E-08  1.29778E-08  1.30249E-08  1.34431E-08  1.32711E-08
   1.35073E-08  1.24966E-08  1.22662E-08  1.23966E-08  1.15789E-08  1.19151E-08  1.21997E-08  1.21540E-08  1.20013E-08  1.19382E-08
   1.23270E-08  1.19405E-08  1.18356E-08  1.18927E-08  1.25516E-08  1.35708E-08  1.37947E-08  1.40613E-08  1.31521E-08  1.26915E-08
   1.15089E-08  1.13558E-08  9.91463E-09  9.89163E-09  9.17295E-09  9.49485E-09  9.19870E-09  9.09964E-09  8.59675E-09  8.25346E-09
   7.56345E-09  7.54698E-09  7.33362E-09  7.84841E-09  7.44373E-09  8.12266E-09  6.84277E-09  7.15534E-09  7.36854E-09  7.36184E-09
   6.12307E-09  6.28829E-09  7.50676E-09  8.02581E-09  8.45814E-09  9.58213E-09  1.14066E-08  1.36544E-08  1.42090E-08  1.39512E-08
   1.37798E-08  1.24211E-08  1.11402E-08  1.03023E-08  9.41233E-09  9.34926E-09  8.46006E-09  7.61090E-09  6.73575E-09  7.32991E-09
   7.50064E-09  7.77180E-09  9.73975E-09  1.21713E-08  1.47843E-08  1.66107E-08  1.65386E-08  1.63994E-08  1.50345E-08  1.49144E-08
   1.39354E-08  1.34727E-08  1.27530E-08  1.30465E-08  1.26389E-08  1.16460E-08  1.14398E-08  1.11668E-08  1.11642E-08  9.69977E-09
   1.01683E-08  9.37832E-09  8.86627E-09  8.57782E-09  8.17959E-09  8.17940E-09  8.37869E-09  8.43421E-09  8.28308E-09  7.83536E-09
   7.87136E-09  7.47423E-09  7.41313E-09  7.36535E-09  6.06709E-09  6.20904E-09  5.47316E-09  5.81454E-09  6.40428E-09  6.32778E-09
   6.18670E-09  7.26263E-09  7.32196E-09  7.08268E-09  6.88401E-09  7.40396E-09  6.95107E-09  6.67310E-09  6.23694E-09  6.03769E-09
   5.23802E-09  5.09629E-09  5.29050E-09  5.41602E-09  5.24546E-09  5.53262E-09  5.65207E-09  5.44790E-09  5.84538E-09  5.50762E-09
   5.88418E-09  5.12697E-09  5.71080E-09  5.92115E-09  6.13704E-09  7.60457E-09  7.57617E-09  8.40903E-09  7.79930E-09  8.39677E-09
   8.87193E-09  9.00533E-09  8.46512E-09  9.70553E-09  9.30222E-09  8.53745E-09  8.80515E-09  8.78030E-09  8.33211E-09  7.83828E-09
   8.16951E-09  8.15324E-09  7.78542E-09  7.49869E-09  7.61656E-09  7.34180E-09  7.56056E-09  7.34476E-09  6.85590E-09  7.01101E-09
   6.62808E-09  6.51351E-09  5.95748E-09  6.30139E-09  6.89079E-09  1.04350E-08  1.45964E-08  1.73634E-08  1.85727E-08  1.94484E-08
   1.85731E-08  1.94559E-08  1.87442E-08  1.80536E-08  1.70780E-08  1.68770E-08  1.66260E-08  1.53242E-08  1.49466E-08  1.40484E-08
   1.24373E-08  1.13001E-08  9.63366E-09  8.05323E-09  5.87689E-09  4.49878E-09  2.08851E-09  1.21942E-10 -2.34579E-09 -3.77202E-09
  -5.37953E-09 -6.66746E-09 -8.65884E-09 -9.51084E-09 -1.02253E-08 -1.10116E-08 -1.04990E-08 -1.08764E-08 -1.05080E-08 -9.45196E-09
  -9.29859E-09 -8.06835E-09 -6.85956E-09 -6.12442E-09 -5.17252E-09 -4.13959E-09 -3.80543E-09 -2.82022E-09 -2.42123E-09 -2.69212E-09
  -2.48975E-09 -2.58579E-09 -2.95161E-09 -2.43491E-09 -2.63489E-09 -2.48013E-09 -2.50857E-09 -1.86540E-09 -2.21232E-09 -1.48646E-09
  -1.40931E-09 -1.70194E-09 -1.80634E-09 -2.23438E-09 -1.88122E-09 -1.93622E-09 -2.19786E-09 -1.57345E-09 -1.80050E-09 -1.08622E-09
  -1.59086E-09 -1.26041E-09 -1.49226E-09 -1.46328E-09 -2.00295E-09 -1.70683E-09 -1.69349E-09 -1.74792E-09 -1.62338E-09 -2.06677E-09
  -1.74577E-09 -2.05497E-09 -1.58532E-09 -1.62748E-09 -1.27209E-09 -1.63453E-09 -1.35400E-09 -1.56213E-09 -1.53326E-09 -1.07947E-09
  -8.68902E-10 -1.11595E-09 -1.43981E-09 -8.30468E-10 -6.65225E-10 -1.12336E-09 -1.74886E-09 -1.39767E-09 -1.89474E-09 -1.67070E-09
  -2.18045E-09 -2.13994E-09 -2.46366E-09 -2.21363E-09 -2.98055E-09 -2.43813E-09 -2.56821E-09 -2.45333E-09 -2.40713E-09 -2.07947E-09
  -1.78987E-09 -1.14405E-09 -7.30705E-10 -9.50761E-10 -6.34336E-10 -5.34754E-10 -5.86732E-10 -9.62694E-10 -3.02373E-10 -4.64554E-10
  -9.57959E-10 -8.19695E-10 -6.52211E-10 -5.06203E-10 -3.87916E-10 -7.74800E-10 -1.10053E-09 -5.27580E-10 -1.13766E-09 -1.08164E-09
  -1.00334E-09 -9.70180E-10 -1.09271E-09 -1.08403E-09 -1.18271E-09 -1.76763E-09 -1.20555E-09 -1.71098E-09 -1.34913E-09 -1.15528E-09
  -1.66670E-09 -1.80161E-09 -1.61206E-09 -1.60956E-09 -1.77953E-09 -1.98120E-09 -1.54673E-09 -2.15526E-09 -2.03867E-09 -1.82013E-09
  -2.07831E-09 -1.40381E-09 -2.05231E-09 -2.46902E-09 -1.87417E-09 -2.58809E-09 -2.01748E-09 -1.68058E-09 -2.35854E-09 -2.38099E-09
  -2.32890E-09 -2.52962E-09 -2.62824E-09 -2.22829E-09 -2.41546E-09 -2.69730E-09 -2.85037E-09 -2.45821E-09 -2.40285E-09 -2.34404E-09
  -2.74879E-09 -2.72058E-09 -2.25220E-09 -3.36355E-09 -2.90279E-09 -2.49344E-09 -2.94394E-09 -2.81670E-09 -3.03898E-09 -2.84171E-09
  -2.60723E-09 -2.86551E-09 -3.26265E-09 -3.00162E-09 -2.84996E-09 -2.89575E-09 -2.98542E-09 -3.19340E-09 -2.91408E-09 -3.14728E-09
  -3.27539E-09 -3.16214E-09 -3.72969E-09 -3.77794E-09 -3.01654E-09 -2.96460E-09 -3.18570E-09 -3.45204E-09 -3.64717E-09 -3.39043E-09
  -3.38733E-09 -3.47096E-09 -3.41494E-09
 NY points of the fit to the data follow
   1.23141E-08  1.21589E-08  1.22509E-08  1.17478E-08  1.15081E-08  1.24432E-08  1.28591E-08  1.28587E-08  1.41455E-08  1.38150E-08
   1.31277E-08  1.28974E-08  1.19841E-08  1.20584E-08  1.26113E-08  1.23559E-08  1.13260E-08  1.20214E-08  1.33638E-08  1.23952E-08
   1.07399E-08  1.08946E-08  1.20261E-08  1.27715E-08  1.27604E-08  1.34427E-08  1.40994E-08  1.40080E-08  1.31337E-08  1.21250E-08
   1.19164E-08  1.15133E-08  1.04532E-08  9.65845E-09  9.51001E-09  9.20963E-09  8.58109E-09  8.41903E-09  8.29206E-09  8.10693E-09
   7.97224E-09  7.96654E-09  8.07443E-09  8.02337E-09  7.66135E-09  7.08458E-09  7.04126E-09  6.38205E-09  6.23802E-09  6.44905E-09
   6.97356E-09  7.49507E-09  7.88185E-09  8.84971E-09  1.01354E-08  1.03925E-08  1.09132E-08  1.21288E-08  1.26831E-08  1.23958E-08
   1.24183E-08  1.21949E-08  1.20294E-08  1.18308E-08  1.08123E-08  9.95350E-09  1.01625E-08  9.60410E-09  8.64819E-09  8.81366E-09
   9.69622E-09  1.01261E-08  1.07351E-08  1.15041E-08  1.25892E-08  1.37093E-08  1.49470E-08  1.55113E-08  1.56212E-08  1.56093E-08
   1.53147E-08  1.45639E-08  1.38248E-08  1.32373E-08  1.26516E-08  1.18385E-08  1.07437E-08  9.26038E-09  8.57698E-09  8.22561E-09
   7.95283E-09  7.78169E-09  7.69862E-09  7.60178E-09  7.46247E-09  7.41756E-09  7.36884E-09  7.28981E-09  7.26143E-09  7.21456E-09
   7.18028E-09  7.17570E-09  7.16965E-09  7.16179E-09  7.16119E-09  7.16561E-09  7.17292E-09  7.18244E-09  7.19263E-09  7.20337E-09
   7.21431E-09  7.22506E-09  7.23537E-09  7.24497E-09  7.25366E-09  7.26130E-09  7.26769E-09  7.27267E-09  7.27612E-09  7.27788E-09
   7.27786E-09  7.27594E-09  7.27202E-09  7.26600E-09  7.25778E-09  7.24729E-09  7.23441E-09  7.21908E-09  7.20122E-09  7.18075E-09
   7.15758E-09  7.13166E-09  7.10291E-09  7.07126E-09  7.03666E-09  6.99903E-09  6.95833E-09  6.91449E-09  6.86747E-09  6.81721E-09
   6.76367E-09  6.70682E-09  6.64662E-09  6.58305E-09  6.51609E-09  6.44574E-09  6.37202E-09  6.29495E-09  6.21458E-09  6.13100E-09
   6.04433E-09  5.95475E-09  5.86252E-09  5.76798E-09  5.67163E-09  5.57416E-09  5.47664E-09  5.38075E-09  5.28903E-09  5.20531E-09
   5.13574E-09  5.09088E-09  5.09071E-09  5.17789E-09  5.46162E-09  6.31472E-09  9.68406E-09  1.68291E-08  2.00612E-08  2.01125E-08
   1.97160E-08  1.95303E-08  1.89470E-08  1.80436E-08  1.75027E-08  1.78878E-08  1.82321E-08  1.47340E-08  6.95619E-09  3.79869E-09
   2.73276E-09  2.16551E-09  1.77729E-09  1.47243E-09  1.21305E-09  9.81448E-10  7.68279E-10  5.68240E-10  3.78206E-10  1.96173E-10
   2.08703E-11 -1.48491E-10 -3.12477E-10 -4.71359E-10 -6.25389E-10 -7.74635E-10 -9.19136E-10 -1.05885E-09 -1.19374E-09 -1.32371E-09
  -1.44863E-09 -1.56839E-09 -1.68283E-09 -1.79181E-09 -1.89517E-09 -1.99273E-09 -2.08430E-09 -2.16975E-09 -2.24893E-09 -2.32199E-09
  -2.38911E-09 -2.45046E-09 -2.50619E-09 -2.55648E-09 -2.60148E-09 -2.64137E-09 -2.67629E-09 -2.70640E-09 -2.73188E-09 -2.75288E-09
  -2.76955E-09 -2.78204E-09 -2.79053E-09 -2.79516E-09 -2.79610E-09 -2.79349E-09 -2.78747E-09 -2.77824E-09 -2.76594E-09 -2.75070E-09
  -2.73269E-09 -2.71207E-09 -2.68898E-09 -2.66360E-09 -2.63605E-09 -2.60652E-09 -2.57514E-09 -2.54206E-09 -2.50745E-09 -2.47146E-09
  -2.43423E-09 -2.39593E-09 -2.35670E-09 -2.31670E-09 -2.27609E-09 -2.23501E-09 -2.19363E-09 -2.15210E-09 -2.11054E-09 -2.06913E-09
  -2.02803E-09 -1.98740E-09 -1.94736E-09 -1.90808E-09 -1.86973E-09 -1.83243E-09 -1.79636E-09 -1.76165E-09 -1.72848E-09 -1.69699E-09
  -1.66724E-09 -1.63922E-09 -1.61290E-09 -1.58827E-09 -1.56529E-09 -1.54394E-09 -1.52419E-09 -1.50603E-09 -1.48941E-09 -1.47433E-09
  -1.46076E-09 -1.44866E-09 -1.43802E-09 -1.42881E-09 -1.42099E-09 -1.41457E-09 -1.40949E-09 -1.40574E-09 -1.40329E-09 -1.40213E-09
  -1.40221E-09 -1.40353E-09 -1.40604E-09 -1.40973E-09 -1.41458E-09 -1.42056E-09 -1.42763E-09 -1.43578E-09 -1.44499E-09 -1.45523E-09
  -1.46646E-09 -1.47867E-09 -1.49183E-09 -1.50592E-09 -1.52090E-09 -1.53678E-09 -1.55349E-09 -1.57103E-09 -1.58936E-09 -1.60848E-09
  -1.62836E-09 -1.64893E-09 -1.67023E-09 -1.69218E-09 -1.71479E-09 -1.73803E-09 -1.76187E-09 -1.78626E-09 -1.81123E-09 -1.83670E-09
  -1.86268E-09 -1.88914E-09 -1.91605E-09 -1.94340E-09 -1.97117E-09 -1.99937E-09 -2.02797E-09 -2.05696E-09 -2.08634E-09 -2.11608E-09
  -2.14617E-09 -2.17661E-09 -2.20737E-09 -2.23845E-09 -2.26983E-09 -2.30150E-09 -2.33345E-09 -2.36566E-09 -2.39813E-09 -2.43083E-09
  -2.46377E-09 -2.49691E-09 -2.53025E-09 -2.56379E-09 -2.59750E-09 -2.63137E-09 -2.66539E-09 -2.69955E-09 -2.73383E-09 -2.76822E-09
  -2.80272E-09 -2.83729E-09 -2.87195E-09 -2.90666E-09 -2.94142E-09 -2.97621E-09 -3.01103E-09 -3.04585E-09 -3.08068E-09 -3.11548E-09
  -3.15026E-09 -3.18499E-09 -3.21968E-09 -3.25429E-09 -3.28882E-09 -3.32326E-09 -3.35760E-09 -3.39181E-09 -3.42590E-09 -3.45984E-09
  -3.49363E-09 -3.52725E-09 -3.56068E-09
 NY background values follow
    -2.282E-09   -2.187E-09   -2.092E-09   -1.997E-09   -1.902E-09   -1.807E-09   -1.711E-09   -1.616E-09   -1.521E-09   -1.426E-09
    -1.331E-09   -1.236E-09   -1.140E-09   -1.045E-09   -9.505E-10   -8.556E-10   -7.608E-10   -6.662E-10   -5.716E-10   -4.772E-10
    -3.829E-10   -2.887E-10   -1.947E-10   -1.009E-10   -7.226E-12    8.624E-11    1.795E-10    2.725E-10    3.654E-10    4.579E-10
     5.503E-10    6.424E-10    7.342E-10    8.257E-10    9.170E-10    1.008E-09    1.099E-09    1.189E-09    1.279E-09    1.368E-09
     1.458E-09    1.547E-09    1.635E-09    1.723E-09    1.811E-09    1.898E-09    1.985E-09    2.072E-09    2.158E-09    2.243E-09
     2.328E-09    2.413E-09    2.497E-09    2.581E-09    2.664E-09    2.746E-09    2.828E-09    2.910E-09    2.991E-09    3.071E-09
     3.151E-09    3.230E-09    3.308E-09    3.386E-09    3.463E-09    3.539E-09    3.615E-09    3.689E-09    3.764E-09    3.837E-09
     3.909E-09    3.981E-09    4.052E-09    4.122E-09    4.192E-09    4.260E-09    4.328E-09    4.394E-09    4.460E-09    4.525E-09
     4.589E-09    4.652E-09    4.714E-09    4.775E-09    4.835E-09    4.893E-09    4.951E-09    5.008E-09    5.064E-09    5.119E-09
     5.172E-09    5.225E-09    5.276E-09    5.326E-09    5.375E-09    5.423E-09    5.469E-09    5.515E-09    5.559E-09    5.602E-09
     5.643E-09    5.684E-09    5.723E-09    5.760E-09    5.797E-09    5.832E-09    5.865E-09    5.897E-09    5.928E-09    5.957E-09
     5.984E-09    6.009E-09    6.033E-09    6.054E-09    6.074E-09    6.092E-09    6.107E-09    6.121E-09    6.132E-09    6.141E-09
     6.148E-09    6.152E-09    6.154E-09    6.153E-09    6.150E-09    6.144E-09    6.135E-09    6.124E-09    6.109E-09    6.092E-09
     6.072E-09    6.048E-09    6.022E-09    5.992E-09    5.960E-09    5.923E-09    5.884E-09    5.841E-09    5.795E-09    5.745E-09
     5.691E-09    5.634E-09    5.573E-09    5.508E-09    5.439E-09    5.367E-09    5.290E-09    5.209E-09    5.125E-09    5.036E-09
     4.942E-09    4.845E-09    4.743E-09    4.636E-09    4.525E-09    4.410E-09    4.290E-09    4.165E-09    4.036E-09    3.903E-09
     3.766E-09    3.626E-09    3.482E-09    3.335E-09    3.185E-09    3.032E-09    2.876E-09    2.718E-09    2.558E-09    2.396E-09
     2.232E-09    2.067E-09    1.900E-09    1.732E-09    1.563E-09    1.394E-09    1.224E-09    1.053E-09    8.828E-10    7.125E-10
     5.424E-10    3.729E-10    2.041E-10    3.623E-11   -1.305E-10   -2.958E-10   -4.596E-10   -6.216E-10   -7.816E-10   -9.395E-10
    -1.095E-09   -1.248E-09   -1.398E-09   -1.545E-09   -1.688E-09   -1.829E-09   -1.965E-09   -2.098E-09   -2.227E-09   -2.351E-09
    -2.471E-09   -2.587E-09   -2.697E-09   -2.802E-09   -2.902E-09   -2.997E-09   -3.085E-09   -3.168E-09   -3.245E-09   -3.316E-09
    -3.381E-09   -3.440E-09   -3.494E-09   -3.542E-09   -3.586E-09   -3.624E-09   -3.657E-09   -3.686E-09   -3.710E-09   -3.730E-09
    -3.745E-09   -3.756E-09   -3.764E-09   -3.767E-09   -3.767E-09   -3.764E-09   -3.757E-09   -3.746E-09   -3.733E-09   -3.717E-09
    -3.698E-09   -3.677E-09   -3.653E-09   -3.627E-09   -3.598E-09   -3.568E-09   -3.536E-09   -3.502E-09   -3.467E-09   -3.430E-09
    -3.392E-09   -3.353E-09   -3.314E-09   -3.273E-09   -3.232E-09   -3.190E-09   -3.148E-09   -3.106E-09   -3.064E-09   -3.022E-09
    -2.980E-09   -2.939E-09   -2.899E-09   -2.859E-09   -2.820E-09   -2.782E-09   -2.746E-09   -2.710E-09   -2.677E-09   -2.645E-09
    -2.615E-09   -2.586E-09   -2.559E-09   -2.534E-09   -2.511E-09   -2.489E-09   -2.469E-09   -2.450E-09   -2.433E-09   -2.418E-09
    -2.404E-09   -2.391E-09   -2.380E-09   -2.370E-09   -2.362E-09   -2.355E-09   -2.350E-09   -2.346E-09   -2.343E-09   -2.341E-09
    -2.341E-09   -2.342E-09   -2.344E-09   -2.347E-09   -2.352E-09   -2.357E-09   -2.364E-09   -2.372E-09   -2.381E-09   -2.391E-09
    -2.401E-09   -2.413E-09   -2.426E-09   -2.440E-09   -2.454E-09   -2.470E-09   -2.486E-09   -2.503E-09   -2.521E-09   -2.540E-09
    -2.560E-09   -2.580E-09   -2.601E-09   -2.622E-09   -2.644E-09   -2.667E-09   -2.691E-09   -2.715E-09   -2.739E-09   -2.764E-09
    -2.790E-09   -2.816E-09   -2.843E-09   -2.870E-09   -2.897E-09   -2.925E-09   -2.953E-09   -2.982E-09   -3.011E-09   -3.040E-09
    -3.070E-09   -3.100E-09   -3.130E-09   -3.161E-09   -3.192E-09   -3.223E-09   -3.255E-09   -3.287E-09   -3.319E-09   -3.351E-09
    -3.384E-09   -3.416E-09   -3.449E-09   -3.482E-09   -3.516E-09   -3.549E-09   -3.583E-09   -3.617E-09   -3.651E-09   -3.685E-09
    -3.719E-09   -3.753E-09   -3.787E-09   -3.821E-09   -3.856E-09   -3.890E-09   -3.924E-09   -3.959E-09   -3.993E-09   -4.028E-09
    -4.062E-09   -4.096E-09   -4.131E-09   -4.165E-09   -4.199E-09   -4.233E-09   -4.267E-09   -4.301E-09   -4.334E-09   -4.368E-09
    -4.401E-09   -4.434E-09   -4.467E-09
 Asp      Conc. = 3.61E-10
  -1.89587E-09 -1.86804E-09 -1.80600E-09 -1.76750E-09 -1.69051E-09 -1.63385E-09 -1.58565E-09 -1.53716E-09 -1.46225E-09 -1.37800E-09
  -1.28964E-09 -1.19916E-09 -1.10719E-09 -1.01360E-09 -9.19745E-10 -8.25744E-10 -7.31575E-10 -6.37245E-10 -5.42830E-10 -4.48331E-10
  -3.53794E-10 -2.59228E-10 -1.64627E-10 -7.00036E-11  2.46358E-11  1.19333E-10  2.14104E-10  3.09008E-10  4.04103E-10  4.99515E-10
   5.95423E-10  6.92049E-10  7.89896E-10  8.89780E-10  9.93477E-10  1.10555E-09  1.23680E-09  1.34640E-09  1.46489E-09  1.55376E-09
   1.63633E-09  1.73019E-09  1.86190E-09  2.02692E-09  2.22034E-09  2.42362E-09  2.50587E-09  2.53715E-09  2.67781E-09  2.77225E-09
   2.86219E-09  2.97511E-09  3.08004E-09  3.12967E-09  3.13968E-09  3.12847E-09  3.10410E-09  3.20202E-09  3.29314E-09  3.28796E-09
   3.33471E-09  3.39542E-09  3.43144E-09  3.49647E-09  3.58784E-09  3.66721E-09  3.71117E-09  3.76834E-09  3.83128E-09  3.89680E-09
   3.96350E-09  4.03070E-09  4.09798E-09  4.16509E-09  4.23185E-09  4.29813E-09  4.36384E-09  4.42890E-09  4.49326E-09  4.55685E-09
   4.61964E-09  4.68158E-09  4.74266E-09  4.80283E-09  4.86207E-09  4.92035E-09  4.97764E-09  5.03393E-09  5.08920E-09  5.14341E-09
   5.19655E-09  5.24860E-09  5.29955E-09  5.34936E-09  5.39803E-09  5.44553E-09  5.49185E-09  5.53697E-09  5.58086E-09  5.62352E-09
   5.66492E-09  5.70506E-09  5.74390E-09  5.78143E-09  5.81765E-09  5.85249E-09  5.88590E-09  5.91781E-09  5.94816E-09  5.97689E-09
   6.00392E-09  6.02920E-09  6.05266E-09  6.07423E-09  6.09386E-09  6.11147E-09  6.12701E-09  6.14040E-09  6.15159E-09  6.16051E-09
   6.16710E-09  6.17129E-09  6.17301E-09  6.17221E-09  6.16882E-09  6.16278E-09  6.15401E-09  6.14246E-09  6.12807E-09  6.11077E-09
   6.09049E-09  6.06717E-09  6.04076E-09  6.01117E-09  5.97835E-09  5.94224E-09  5.90278E-09  5.85989E-09  5.81352E-09  5.76360E-09
   5.71007E-09  5.65287E-09  5.59193E-09  5.52719E-09  5.45859E-09  5.38606E-09  5.30955E-09  5.22899E-09  5.14433E-09  5.05550E-09
   4.96244E-09  4.86511E-09  4.76345E-09  4.65739E-09  4.54691E-09  4.43195E-09  4.31254E-09  4.18884E-09  4.06115E-09  3.92979E-09
   3.79518E-09  3.65784E-09  3.51864E-09  3.37915E-09  3.24307E-09  3.12209E-09  3.07515E-09  3.21916E-09  3.16696E-09  2.99965E-09
   2.82535E-09  2.66278E-09  2.48087E-09  2.28470E-09  2.10105E-09  1.95384E-09  1.81529E-09  1.53941E-09  1.04746E-09  7.96417E-10
   5.99566E-10  4.17439E-10  2.41503E-10  6.91306E-11 -1.00683E-10 -2.68240E-10 -4.33683E-10 -5.96997E-10 -7.58036E-10 -9.16689E-10
  -1.07281E-09 -1.22619E-09 -1.37669E-09 -1.52406E-09 -1.66817E-09 -1.80878E-09 -1.94571E-09 -2.07873E-09 -2.20769E-09 -2.33233E-09
  -2.45247E-09 -2.56790E-09 -2.67842E-09 -2.78382E-09 -2.88389E-09 -2.97843E-09 -3.06721E-09 -3.15007E-09 -3.22685E-09 -3.29768E-09
  -3.36271E-09 -3.42209E-09 -3.47598E-09 -3.52453E-09 -3.56790E-09 -3.60623E-09 -3.63968E-09 -3.66840E-09 -3.69255E-09 -3.71229E-09
  -3.72774E-09 -3.73908E-09 -3.74646E-09 -3.75003E-09 -3.74994E-09 -3.74634E-09 -3.73938E-09 -3.72923E-09 -3.71605E-09 -3.69996E-09
  -3.68111E-09 -3.65970E-09 -3.63583E-09 -3.60968E-09 -3.58140E-09 -3.55115E-09 -3.51908E-09 -3.48532E-09 -3.45005E-09 -3.41341E-09
  -3.37555E-09 -3.33662E-09 -3.29679E-09 -3.25621E-09 -3.21501E-09 -3.17336E-09 -3.13142E-09 -3.08934E-09 -3.04724E-09 -3.00530E-09
  -2.96368E-09 -2.92253E-09 -2.88199E-09 -2.84221E-09 -2.80337E-09 -2.76558E-09 -2.72903E-09 -2.69385E-09 -2.66021E-09 -2.62827E-09
  -2.59806E-09 -2.56959E-09 -2.54283E-09 -2.51775E-09 -2.49434E-09 -2.47256E-09 -2.45238E-09 -2.43379E-09 -2.41676E-09 -2.40126E-09
  -2.38727E-09 -2.37476E-09 -2.36372E-09 -2.35410E-09 -2.34588E-09 -2.33906E-09 -2.33358E-09 -2.32944E-09 -2.32660E-09 -2.32505E-09
  -2.32474E-09 -2.32568E-09 -2.32780E-09 -2.33111E-09 -2.33558E-09 -2.34118E-09 -2.34787E-09 -2.35564E-09 -2.36447E-09 -2.37434E-09
  -2.38520E-09 -2.39704E-09 -2.40982E-09 -2.42355E-09 -2.43816E-09 -2.45366E-09 -2.47001E-09 -2.48717E-09 -2.50514E-09 -2.52390E-09
  -2.54340E-09 -2.56361E-09 -2.58454E-09 -2.60613E-09 -2.62837E-09 -2.65125E-09 -2.67472E-09 -2.69875E-09 -2.72335E-09 -2.74845E-09
  -2.77407E-09 -2.80017E-09 -2.82671E-09 -2.85369E-09 -2.88110E-09 -2.90893E-09 -2.93716E-09 -2.96579E-09 -2.99479E-09 -3.02416E-09
  -3.05388E-09 -3.08395E-09 -3.11434E-09 -3.14504E-09 -3.17605E-09 -3.20735E-09 -3.23893E-09 -3.27076E-09 -3.30285E-09 -3.33518E-09
  -3.36773E-09 -3.40050E-09 -3.43346E-09 -3.46661E-09 -3.49994E-09 -3.53342E-09 -3.56706E-09 -3.60083E-09 -3.63472E-09 -3.66872E-09
  -3.70282E-09 -3.73701E-09 -3.77127E-09 -3.80558E-09 -3.83994E-09 -3.87433E-09 -3.90875E-09 -3.94317E-09 -3.97759E-09 -4.01199E-09
  -4.04636E-09 -4.08068E-09 -4.11495E-09 -4.14915E-09 -4.18326E-09 -4.21728E-09 -4.25120E-09 -4.28499E-09 -4.31865E-09 -4.35216E-09
  -4.38552E-09 -4.41870E-09 -4.45170E-09
 GABA     Conc. = 2.16E-10
  -2.25961E-09 -2.16435E-09 -2.06900E-09 -1.97357E-09 -1.87807E-09 -1.78252E-09 -1.68691E-09 -1.59125E-09 -1.49556E-09 -1.39981E-09
  -1.30404E-09 -1.20823E-09 -1.11237E-09 -1.01650E-09 -9.20556E-10 -8.24560E-10 -7.28558E-10 -6.32396E-10 -5.36100E-10 -4.39658E-10
  -3.42938E-10 -2.45816E-10 -1.48127E-10 -4.95916E-11  5.02383E-11  1.52110E-10  2.57645E-10  3.70369E-10  5.00019E-10  6.72118E-10
   7.79340E-10  8.83380E-10  1.10244E-09  1.25158E-09  1.32438E-09  1.45746E-09  1.58769E-09  1.68740E-09  1.76449E-09  1.81131E-09
   1.82724E-09  1.93509E-09  1.99945E-09  1.94147E-09  1.99921E-09  2.09437E-09  2.11166E-09  2.16166E-09  2.23073E-09  2.30717E-09
   2.38728E-09  2.46924E-09  2.55238E-09  2.63647E-09  2.72139E-09  2.80712E-09  2.89397E-09  2.98253E-09  3.07391E-09  3.17072E-09
   3.27895E-09  3.41739E-09  3.56293E-09  3.64571E-09  3.78068E-09  3.95120E-09  4.02947E-09  4.09148E-09  4.18384E-09  4.26757E-09
   4.33232E-09  4.37465E-09  4.37992E-09  4.39869E-09  4.47839E-09  4.46536E-09  4.43884E-09  4.51206E-09  4.56407E-09  4.61296E-09
   4.69365E-09  4.74182E-09  4.81772E-09  4.94983E-09  5.02129E-09  5.08317E-09  5.19343E-09  5.27749E-09  5.34435E-09  5.41806E-09
   5.46305E-09  5.50196E-09  5.58151E-09  5.60633E-09  5.58715E-09  5.64753E-09  5.68187E-09  5.66644E-09  5.69306E-09  5.72386E-09
   5.74253E-09  5.76738E-09  5.79563E-09  5.82536E-09  5.85560E-09  5.88566E-09  5.91516E-09  5.94383E-09  5.97146E-09  5.99791E-09
   6.02301E-09  6.04659E-09  6.06856E-09  6.08880E-09  6.10724E-09  6.12381E-09  6.13843E-09  6.15100E-09  6.16144E-09  6.16968E-09
   6.17563E-09  6.17925E-09  6.18046E-09  6.17918E-09  6.17535E-09  6.16890E-09  6.15976E-09  6.14786E-09  6.13314E-09  6.11553E-09
   6.09496E-09  6.07137E-09  6.04471E-09  6.01488E-09  5.98184E-09  5.94551E-09  5.90584E-09  5.86276E-09  5.81620E-09  5.76610E-09
   5.71240E-09  5.65502E-09  5.59392E-09  5.52902E-09  5.46026E-09  5.38756E-09  5.31089E-09  5.23017E-09  5.14533E-09  5.05632E-09
   4.96308E-09  4.86554E-09  4.76366E-09  4.65737E-09  4.54661E-09  4.43134E-09  4.31156E-09  4.18741E-09  4.05917E-09  3.92710E-09
   3.79154E-09  3.65289E-09  3.51174E-09  3.36910E-09  3.22722E-09  3.09304E-09  3.00072E-09  3.02483E-09  2.93053E-09  2.76540E-09
   2.59504E-09  2.43133E-09  2.25554E-09  2.07056E-09  1.89250E-09  1.73604E-09  1.58556E-09  1.35404E-09  9.89294E-10  7.69712E-10
   5.83453E-10  4.06334E-10  2.33238E-10  6.26643E-11 -1.05925E-10 -2.72606E-10 -4.37396E-10 -6.00209E-10 -7.60856E-10 -9.19195E-10
  -1.07506E-09 -1.22823E-09 -1.37856E-09 -1.52578E-09 -1.66976E-09 -1.81027E-09 -1.94711E-09 -2.08006E-09 -2.20894E-09 -2.33352E-09
  -2.45361E-09 -2.56900E-09 -2.67947E-09 -2.78484E-09 -2.88488E-09 -2.97939E-09 -3.06815E-09 -3.15099E-09 -3.22774E-09 -3.29856E-09
  -3.36357E-09 -3.42294E-09 -3.47681E-09 -3.52536E-09 -3.56871E-09 -3.60704E-09 -3.64048E-09 -3.66919E-09 -3.69334E-09 -3.71306E-09
  -3.72851E-09 -3.73985E-09 -3.74723E-09 -3.75079E-09 -3.75070E-09 -3.74710E-09 -3.74013E-09 -3.72999E-09 -3.71680E-09 -3.70070E-09
  -3.68186E-09 -3.66044E-09 -3.63657E-09 -3.61043E-09 -3.58215E-09 -3.55190E-09 -3.51982E-09 -3.48607E-09 -3.45079E-09 -3.41415E-09
