 LCModel (Version 6.3-1R) Copyright: S.W. Provencher.          Ref.: Magn. Reson. Med. 30:672-679 (1993).                
 onepulse 23x11_ftSpec_smooth_lcm
 26 lines in following concentration table = NCONC+1
    Conc.  %SD /Cr+PCr  Metabolite                                         
    0.000 999%   0.000 Ala                                                 
    0.000 999%   0.000 Asp                                                 
 2.97E-10 127%   1.000 Cr                                                  
 5.94E-10 186%   2.002 GABA                                                
 2.72E-10 317%   0.916 Glc                                                 
 1.82E-09  44%   6.123 Gln                                                 
 1.26E-10 839%   0.423 Glu                                                 
    0.000 999%   0.000 Glyc                                                
 1.80E-10  69%   0.607 GPC                                                 
    0.000 999%   0.000 GSH                                                 
 9.47E-10  42%   3.190 Ins                                                 
    0.000 999%   0.000 Lac                                                 
    0.000 999%   0.000 NAAG                                                
 7.34E-10  39%   2.472 NAA                                                 
    0.000 999%   0.000 PCh                                                 
    0.000 999%   0.000 PCr                                                 
    0.000 999%   0.000 PE                                                  
 1.16E-10 201%   0.389 Scyllo                                              
 2.28E-09  38%   7.690 Ser                                                 
 5.30E-10 179%   1.787 Tau                                                 
 1.80E-10  69%   0.607 GPC+PCh                                             
 7.34E-10  39%   2.472 NAA+NAAG                                            
 9.47E-10  42%   3.190 Ins+Glyc                                            
 2.97E-10 127%   1.000 Cr+PCr                                              
 1.94E-09  36%   6.546 Glu+Gln                                             
   6 lines in following misc. output table
  FWHM = 0.089 ppm    S/N =   3                                            
  Data shift = 0.358 ppm                                                   
  Ph:  -1 deg     -15.5 deg/ppm                                            
  alphaB,S = 2.8E-01,   4.7E+01                                            
   10 spline knots.   Ns = 5(1)                                            
  ( 9) 4 infls.   ( 7) 1 extrs.                                            
  363 points on ppm-axis = NY
      4.250000     4.238821     4.227641     4.216462     4.205282     4.194103     4.182923     4.171744     4.160564     4.149385
      4.138206     4.127026     4.115847     4.104667     4.093488     4.082308     4.071129     4.059949     4.048770     4.037591
      4.026411     4.015232     4.004052     3.992873     3.981693     3.970514     3.959334     3.948155     3.936975     3.925796
      3.914617     3.903437     3.892258     3.881078     3.869899     3.858719     3.847540     3.836360     3.825181     3.814002
      3.802822     3.791643     3.780463     3.769284     3.758104     3.746925     3.735745     3.724566     3.713387     3.702207
      3.691028     3.679848     3.668669     3.657489     3.646310     3.635130     3.623951     3.612772     3.601592     3.590413
      3.579233     3.568054     3.556874     3.545695     3.534515     3.523336     3.512156     3.500977     3.489798     3.478618
      3.467439     3.456259     3.445080     3.433900     3.422721     3.411541     3.400362     3.389183     3.378003     3.366824
      3.355644     3.344465     3.333285     3.322106     3.310926     3.299747     3.288568     3.277388     3.266209     3.255029
      3.243850     3.232670     3.221491     3.210311     3.199132     3.187953     3.176773     3.165594     3.154414     3.143235
      3.132055     3.120876     3.109696     3.098517     3.087337     3.076158     3.064979     3.053799     3.042620     3.031440
      3.020261     3.009081     2.997902     2.986722     2.975543     2.964364     2.953184     2.942005     2.930825     2.919646
      2.908466     2.897287     2.886107     2.874928     2.863749     2.852569     2.841390     2.830210     2.819031     2.807851
      2.796672     2.785492     2.774313     2.763134     2.751954     2.740775     2.729595     2.718416     2.707236     2.696057
      2.684877     2.673698     2.662519     2.651339     2.640160     2.628980     2.617801     2.606621     2.595442     2.584262
      2.573083     2.561903     2.550724     2.539545     2.528365     2.517186     2.506006     2.494827     2.483647     2.472468
      2.461288     2.450109     2.438930     2.427750     2.416571     2.405391     2.394212     2.383032     2.371853     2.360673
      2.349494     2.338315     2.327135     2.315956     2.304776     2.293597     2.282417     2.271238     2.260058     2.248879
      2.237700     2.226520     2.215341     2.204161     2.192982     2.181802     2.170623     2.159443     2.148264     2.137084
      2.125905     2.114726     2.103546     2.092367     2.081187     2.070008     2.058828     2.047649     2.036469     2.025290
      2.014111     2.002931     1.991752     1.980572     1.969393     1.958213     1.947034     1.935854     1.924675     1.913496
      1.902316     1.891137     1.879957     1.868778     1.857598     1.846419     1.835239     1.824060     1.812881     1.801701
      1.790522     1.779342     1.768163     1.756983     1.745804     1.734624     1.723445     1.712265     1.701086     1.689907
      1.678727     1.667548     1.656368     1.645189     1.634009     1.622830     1.611650     1.600471     1.589292     1.578112
      1.566933     1.555753     1.544574     1.533394     1.522215     1.511035     1.499856     1.488677     1.477497     1.466318
      1.455138     1.443959     1.432779     1.421600     1.410420     1.399241     1.388062     1.376882     1.365703     1.354523
      1.343344     1.332164     1.320985     1.309805     1.298626     1.287446     1.276267     1.265088     1.253908     1.242729
      1.231549     1.220370     1.209190     1.198011     1.186831     1.175652     1.164473     1.153293     1.142114     1.130934
      1.119755     1.108575     1.097396     1.086216     1.075037     1.063858     1.052678     1.041499     1.030319     1.019140
      1.007960     0.996781     0.985601     0.974422     0.963243     0.952063     0.940884     0.929704     0.918525     0.907345
      0.896166     0.884986     0.873807     0.862628     0.851448     0.840269     0.829089     0.817910     0.806730     0.795551
      0.784371     0.773192     0.762012     0.750833     0.739654     0.728474     0.717295     0.706115     0.694936     0.683756
      0.672577     0.661397     0.650218     0.639039     0.627859     0.616680     0.605500     0.594321     0.583141     0.571962
      0.560782     0.549603     0.538424     0.527244     0.516065     0.504885     0.493706     0.482526     0.471347     0.460167
      0.448988     0.437809     0.426629     0.415450     0.404270     0.393091     0.381911     0.370732     0.359552     0.348373
      0.337193     0.326014     0.314835     0.303655     0.292476     0.281296     0.270117     0.258937     0.247758     0.236578
      0.225399     0.214220     0.203040
 NY phased data points follow
   6.39170E-09  8.94789E-09  8.39110E-09  8.44102E-09  7.74580E-09  7.69729E-09  6.40323E-09  7.03928E-09  6.22992E-09  6.23190E-09
   5.71407E-09  6.94279E-09  6.50229E-09  7.81923E-09  7.41700E-09  9.01844E-09  8.14911E-09  8.81751E-09  8.80519E-09  8.34318E-09
   7.64639E-09  8.79324E-09  7.39209E-09  8.98235E-09  8.71119E-09  9.44851E-09  8.89325E-09  9.10144E-09  8.20100E-09  8.57986E-09
   9.25297E-09  1.12970E-08  1.17466E-08  1.28272E-08  1.29590E-08  1.27837E-08  1.17781E-08  1.14962E-08  1.04721E-08  1.07150E-08
   9.97683E-09  9.89224E-09  9.49510E-09  9.97157E-09  8.98494E-09  9.03913E-09  7.84589E-09  7.67834E-09  7.19434E-09  7.30470E-09
   7.50299E-09  7.42201E-09  6.16119E-09  7.17728E-09  5.96349E-09  5.89948E-09  3.89359E-09  4.73819E-09  4.07771E-09  4.83031E-09
   3.96860E-09  6.13829E-09  8.69513E-09  1.20644E-08  1.26042E-08  1.33688E-08  1.27916E-08  1.22330E-08  1.04681E-08  9.72392E-09
   9.48765E-09  8.68877E-09  7.80173E-09  6.82595E-09  5.71470E-09  5.85252E-09  4.63957E-09  5.21000E-09  7.17769E-09  1.16219E-08
   1.43927E-08  1.55630E-08  1.44097E-08  1.51372E-08  1.45092E-08  1.44328E-08  1.32185E-08  1.35295E-08  1.30563E-08  1.32952E-08
   1.23156E-08  1.21684E-08  1.15591E-08  1.24071E-08  1.04993E-08  1.10546E-08  1.02235E-08  1.04075E-08  9.21388E-09  8.89711E-09
   8.23668E-09  9.37146E-09  8.81936E-09  8.84192E-09  8.02611E-09  8.66231E-09  8.41225E-09  7.91059E-09  7.26382E-09  6.47788E-09
   5.96199E-09  5.55120E-09  5.40648E-09  6.70971E-09  6.22815E-09  6.19055E-09  6.61934E-09  7.53707E-09  6.74949E-09  7.02428E-09
   6.89432E-09  7.39801E-09  6.17468E-09  6.23345E-09  5.62644E-09  5.35680E-09  4.14317E-09  5.23184E-09  4.71665E-09  5.17085E-09
   4.82862E-09  5.53424E-09  5.05844E-09  5.48582E-09  4.49387E-09  5.27004E-09  4.32474E-09  4.89492E-09  4.38894E-09  6.11307E-09
   6.54034E-09  7.07380E-09  6.65902E-09  6.74396E-09  6.69498E-09  7.90063E-09  7.12971E-09  7.86829E-09  7.58195E-09  7.36676E-09
   6.68666E-09  7.11864E-09  6.33114E-09  6.54565E-09  5.96852E-09  6.21217E-09  5.75034E-09  5.78370E-09  5.40386E-09  5.65325E-09
   5.22349E-09  5.91774E-09  5.16049E-09  5.12502E-09  4.50168E-09  4.82083E-09  5.05386E-09  5.74352E-09  5.81985E-09  7.97931E-09
   1.31374E-08  1.79714E-08  1.74333E-08  1.66980E-08  1.45755E-08  1.33409E-08  1.21934E-08  1.14038E-08  9.53593E-09  8.81139E-09
   7.67337E-09  6.98254E-09  4.68204E-09  4.20856E-09  2.62653E-09  1.16922E-09 -6.43442E-10 -1.98810E-09 -3.97169E-09 -5.22204E-09
  -6.84760E-09 -8.36361E-09 -1.09551E-08 -1.17916E-08 -1.34141E-08 -1.41047E-08 -1.49208E-08 -1.53965E-08 -1.59442E-08 -1.55385E-08
  -1.52025E-08 -1.40686E-08 -1.40743E-08 -1.19974E-08 -1.11204E-08 -9.37372E-09 -7.68416E-09 -6.25513E-09 -5.86877E-09 -4.01696E-09
  -3.63399E-09 -2.44101E-09 -1.81512E-09 -1.70014E-09 -1.90414E-09 -1.48048E-09 -2.51130E-09 -1.98977E-09 -2.61342E-09 -2.43415E-09
  -2.30766E-09 -1.56758E-09 -1.39048E-09 -1.15520E-09 -1.23017E-09 -1.32369E-09 -1.65567E-09 -1.79490E-09 -2.18230E-09 -1.00240E-09
  -1.91796E-09 -1.02967E-09 -1.88460E-09 -1.19916E-09 -1.02076E-09 -9.25535E-10 -8.56108E-10 -1.49367E-09 -1.43641E-09 -1.08912E-09
  -1.12333E-09 -1.13295E-09 -1.73343E-09 -1.41356E-09 -1.05741E-09 -8.42836E-10 -9.42067E-10 -7.20890E-10 -6.94951E-10 -2.12073E-10
  -9.91124E-10 -3.95428E-11 -4.98062E-10  3.07987E-11 -7.56514E-10  1.46429E-10 -1.27456E-09 -5.25144E-10 -1.08246E-09 -5.92188E-10
  -1.96324E-09 -1.37956E-09 -1.35190E-09 -1.41877E-09 -1.43431E-09 -8.23832E-10 -9.38567E-10 -4.65300E-10 -7.59977E-10  5.49872E-11
   1.46640E-10  5.42861E-10  3.00494E-10  9.23800E-10  8.65307E-10  1.25470E-09  7.36397E-10  4.57164E-10 -1.56526E-11  7.16657E-10
  -4.50273E-11 -1.00013E-10 -4.91569E-10  5.70496E-12 -8.69125E-10 -3.67013E-10 -7.33717E-10 -3.70884E-10 -7.07639E-10 -6.73835E-10
  -1.28306E-09 -5.27490E-10 -1.00515E-09 -8.91554E-10 -9.89303E-10 -8.10649E-10 -1.01714E-09 -6.49819E-10 -9.52554E-10 -1.06592E-09
  -7.08097E-10 -7.46174E-10 -8.40632E-10 -6.96157E-10 -8.44536E-10 -7.16046E-10 -6.67680E-10 -4.56125E-10 -7.44890E-10 -2.14821E-10
  -2.65446E-10 -6.13332E-10 -5.45115E-10  1.39841E-10 -7.48379E-10 -2.78601E-10 -3.61032E-10 -5.75734E-10  1.74607E-10  1.06980E-10
   2.97144E-10 -1.87521E-10 -2.59454E-10  7.91073E-11 -9.15227E-11  2.76337E-10  1.73762E-10  7.04166E-10 -2.09348E-10  4.55493E-10
   5.50806E-10  4.74802E-10  6.25243E-10  7.33395E-10  6.53925E-10  6.25338E-10  7.72036E-10  5.23738E-10  1.06519E-09  1.19607E-09
   4.63105E-10  1.16216E-09  8.25325E-10  1.37325E-09  8.57527E-10  1.37551E-09  1.43766E-09  1.57736E-09  1.14309E-09  1.34217E-09
   1.26871E-09  1.74272E-09  1.69018E-09  1.56296E-09  1.69862E-09  2.00423E-09  1.39128E-09  2.38210E-09  2.46548E-09  2.31077E-09
   1.76777E-09  1.87252E-09  1.94578E-09
 NY points of the fit to the data follow
   6.77385E-09  7.39880E-09  7.43634E-09  7.29066E-09  7.42512E-09  7.55669E-09  7.41442E-09  7.11650E-09  6.83615E-09  6.72980E-09
   6.80302E-09  6.89104E-09  7.24403E-09  7.64981E-09  8.03468E-09  8.24438E-09  8.33176E-09  8.54187E-09  8.66103E-09  8.40194E-09
   8.07779E-09  7.89725E-09  7.77371E-09  7.61585E-09  7.62098E-09  7.89588E-09  8.52629E-09  9.31866E-09  1.00374E-08  1.05541E-08
   1.10253E-08  1.12677E-08  1.13969E-08  1.13049E-08  1.09520E-08  1.04889E-08  1.03950E-08  1.04528E-08  1.05298E-08  1.05583E-08
   1.04902E-08  1.02776E-08  9.74419E-09  8.93656E-09  8.41962E-09  8.07970E-09  7.75299E-09  7.46378E-09  7.21209E-09  6.98680E-09
   6.78350E-09  6.60978E-09  6.47002E-09  6.34440E-09  6.24233E-09  6.26678E-09  6.41205E-09  6.67395E-09  7.12438E-09  7.71774E-09
   8.35000E-09  9.02185E-09  9.69583E-09  1.02657E-08  1.06862E-08  1.09187E-08  1.09383E-08  1.08481E-08  1.05076E-08  9.91948E-09
   9.49494E-09  9.13113E-09  8.67701E-09  8.29530E-09  8.09636E-09  7.98098E-09  7.96301E-09  8.42014E-09  9.31844E-09  1.05452E-08
   1.20197E-08  1.34509E-08  1.44877E-08  1.51614E-08  1.55621E-08  1.55225E-08  1.50253E-08  1.41041E-08  1.26799E-08  1.16696E-08
   1.10966E-08  1.07138E-08  1.04442E-08  1.01640E-08  9.87972E-09  9.67924E-09  9.46044E-09  9.20923E-09  9.01353E-09  8.83848E-09
   8.66528E-09  8.51274E-09  8.37779E-09  8.25647E-09  8.14589E-09  8.04396E-09  7.94896E-09  7.85965E-09  7.77507E-09  7.69443E-09
   7.61702E-09  7.54221E-09  7.46952E-09  7.39854E-09  7.32893E-09  7.26037E-09  7.19255E-09  7.12517E-09  7.05799E-09  6.99078E-09
   6.92333E-09  6.85547E-09  6.78700E-09  6.71775E-09  6.64755E-09  6.57628E-09  6.50374E-09  6.42983E-09  6.35441E-09  6.27734E-09
   6.19850E-09  6.11777E-09  6.03505E-09  5.95019E-09  5.86311E-09  5.77369E-09  5.68183E-09  5.58742E-09  5.49037E-09  5.39058E-09
   5.28794E-09  5.18237E-09  5.07378E-09  4.96208E-09  4.84715E-09  4.72895E-09  4.60738E-09  4.48237E-09  4.35383E-09  4.22174E-09
   4.08597E-09  3.94654E-09  3.80341E-09  3.65655E-09  3.50600E-09  3.35181E-09  3.19425E-09  3.03369E-09  2.87092E-09  2.70697E-09
   2.54341E-09  2.38277E-09  2.22952E-09  2.09240E-09  1.99110E-09  1.98123E-09  2.29553E-09  3.91407E-09  6.68455E-09  1.01427E-08
   1.36606E-08  1.64151E-08  1.78706E-08  1.80774E-08  1.72983E-08  1.55434E-08  1.24561E-08  7.90096E-09  3.18532E-09  1.19912E-09
   3.62631E-10 -1.55933E-10 -5.42563E-10 -8.60235E-10 -1.13638E-09 -1.38478E-09 -1.61322E-09 -1.82633E-09 -2.02695E-09 -2.21700E-09
  -2.39772E-09 -2.56990E-09 -2.73414E-09 -2.89073E-09 -3.03995E-09 -3.18188E-09 -3.31659E-09 -3.44404E-09 -3.56423E-09 -3.67703E-09
  -3.78236E-09 -3.88010E-09 -3.97010E-09 -4.05223E-09 -4.12632E-09 -4.19223E-09 -4.24974E-09 -4.29876E-09 -4.33916E-09 -4.37119E-09
  -4.39514E-09 -4.41126E-09 -4.41982E-09 -4.42111E-09 -4.41537E-09 -4.40289E-09 -4.38391E-09 -4.35871E-09 -4.32754E-09 -4.29068E-09
  -4.24837E-09 -4.20088E-09 -4.14848E-09 -4.09141E-09 -4.02994E-09 -3.96431E-09 -3.89479E-09 -3.82164E-09 -3.74511E-09 -3.66543E-09
  -3.58287E-09 -3.49769E-09 -3.41011E-09 -3.32040E-09 -3.22879E-09 -3.13554E-09 -3.04088E-09 -2.94504E-09 -2.84828E-09 -2.75082E-09
  -2.65289E-09 -2.55473E-09 -2.45657E-09 -2.35863E-09 -2.26113E-09 -2.16430E-09 -2.06836E-09 -1.97353E-09 -1.87999E-09 -1.78798E-09
  -1.69770E-09 -1.60937E-09 -1.52316E-09 -1.43927E-09 -1.35792E-09 -1.27926E-09 -1.20351E-09 -1.13084E-09 -1.06142E-09 -9.95448E-10
  -9.32930E-10 -8.73769E-10 -8.17854E-10 -7.65051E-10 -7.15246E-10 -6.68326E-10 -6.24166E-10 -5.82658E-10 -5.43677E-10 -5.07114E-10
  -4.72860E-10 -4.40792E-10 -4.10812E-10 -3.82793E-10 -3.56630E-10 -3.32231E-10 -3.09472E-10 -2.88257E-10 -2.68469E-10 -2.50029E-10
  -2.32812E-10 -2.16743E-10 -2.01694E-10 -1.87586E-10 -1.74336E-10 -1.61839E-10 -1.49993E-10 -1.38722E-10 -1.27944E-10 -1.17571E-10
  -1.07509E-10 -9.76747E-11 -8.79933E-11 -7.84057E-11 -6.88055E-11 -5.91479E-11 -4.93360E-11 -3.93147E-11 -2.90111E-11 -1.83739E-11
  -7.33505E-12  4.18954E-12  1.62162E-11  2.88342E-11  4.20825E-11  5.59992E-11  7.06464E-11  8.60838E-11  1.02314E-10  1.19419E-10
   1.37406E-10  1.56301E-10  1.76102E-10  1.96721E-10  2.18089E-10  2.40138E-10  2.62801E-10  2.86012E-10  3.09704E-10  3.33814E-10
   3.58279E-10  3.83033E-10  4.08017E-10  4.33168E-10  4.58428E-10  4.83736E-10  5.09035E-10  5.34268E-10  5.59379E-10  5.84313E-10
   6.09016E-10  6.33436E-10  6.57520E-10  6.81219E-10  7.04482E-10  7.27263E-10  7.49514E-10  7.71189E-10  7.92243E-10  8.12633E-10
   8.32317E-10  8.51254E-10  8.69404E-10  8.86730E-10  9.03193E-10  9.18758E-10  9.33390E-10  9.47057E-10  9.59727E-10  9.71369E-10
   9.81955E-10  9.91456E-10  9.99846E-10  1.00710E-09  1.01320E-09  1.01811E-09  1.02182E-09  1.02431E-09  1.02556E-09  1.02556E-09
   1.02429E-09  1.02173E-09  1.01787E-09
 NY background values follow
     2.875E-09    2.931E-09    2.987E-09    3.042E-09    3.096E-09    3.149E-09    3.202E-09    3.253E-09    3.304E-09    3.354E-09
     3.404E-09    3.452E-09    3.500E-09    3.547E-09    3.593E-09    3.638E-09    3.683E-09    3.726E-09    3.769E-09    3.812E-09
     3.853E-09    3.894E-09    3.934E-09    3.974E-09    4.012E-09    4.050E-09    4.087E-09    4.124E-09    4.160E-09    4.195E-09
     4.230E-09    4.264E-09    4.297E-09    4.330E-09    4.362E-09    4.394E-09    4.425E-09    4.456E-09    4.486E-09    4.515E-09
     4.544E-09    4.573E-09    4.601E-09    4.629E-09    4.656E-09    4.683E-09    4.710E-09    4.736E-09    4.762E-09    4.787E-09
     4.812E-09    4.837E-09    4.862E-09    4.886E-09    4.910E-09    4.934E-09    4.958E-09    4.981E-09    5.004E-09    5.027E-09
     5.050E-09    5.072E-09    5.094E-09    5.116E-09    5.138E-09    5.159E-09    5.179E-09    5.200E-09    5.220E-09    5.240E-09
     5.259E-09    5.279E-09    5.297E-09    5.316E-09    5.333E-09    5.351E-09    5.368E-09    5.385E-09    5.401E-09    5.417E-09
     5.432E-09    5.447E-09    5.461E-09    5.474E-09    5.488E-09    5.500E-09    5.512E-09    5.523E-09    5.534E-09    5.544E-09
     5.554E-09    5.563E-09    5.571E-09    5.578E-09    5.585E-09    5.591E-09    5.596E-09    5.600E-09    5.604E-09    5.606E-09
     5.608E-09    5.609E-09    5.609E-09    5.608E-09    5.606E-09    5.604E-09    5.600E-09    5.595E-09    5.589E-09    5.581E-09
     5.573E-09    5.563E-09    5.552E-09    5.539E-09    5.524E-09    5.508E-09    5.491E-09    5.471E-09    5.450E-09    5.427E-09
     5.402E-09    5.375E-09    5.346E-09    5.315E-09    5.281E-09    5.246E-09    5.207E-09    5.167E-09    5.124E-09    5.079E-09
     5.030E-09    4.980E-09    4.926E-09    4.869E-09    4.810E-09    4.748E-09    4.682E-09    4.614E-09    4.542E-09    4.467E-09
     4.389E-09    4.308E-09    4.222E-09    4.134E-09    4.042E-09    3.946E-09    3.846E-09    3.743E-09    3.636E-09    3.525E-09
     3.410E-09    3.290E-09    3.167E-09    3.040E-09    2.908E-09    2.772E-09    2.632E-09    2.487E-09    2.339E-09    2.187E-09
     2.031E-09    1.872E-09    1.710E-09    1.546E-09    1.379E-09    1.210E-09    1.038E-09    8.653E-10    6.908E-10    5.150E-10
     3.383E-10    1.608E-10   -1.717E-11   -1.954E-10   -3.735E-10   -5.514E-10   -7.288E-10   -9.053E-10   -1.081E-09   -1.255E-09
    -1.428E-09   -1.598E-09   -1.767E-09   -1.933E-09   -2.097E-09   -2.258E-09   -2.416E-09   -2.570E-09   -2.721E-09   -2.868E-09
    -3.010E-09   -3.149E-09   -3.283E-09   -3.412E-09   -3.535E-09   -3.654E-09   -3.767E-09   -3.874E-09   -3.975E-09   -4.070E-09
    -4.158E-09   -4.239E-09   -4.314E-09   -4.381E-09   -4.440E-09   -4.493E-09   -4.537E-09   -4.573E-09   -4.601E-09   -4.621E-09
    -4.633E-09   -4.638E-09   -4.635E-09   -4.626E-09   -4.610E-09   -4.587E-09   -4.558E-09   -4.523E-09   -4.482E-09   -4.436E-09
    -4.384E-09   -4.328E-09   -4.267E-09   -4.201E-09   -4.131E-09   -4.057E-09   -3.979E-09   -3.898E-09   -3.813E-09   -3.726E-09
    -3.636E-09   -3.543E-09   -3.448E-09   -3.351E-09   -3.252E-09   -3.151E-09   -3.050E-09   -2.947E-09   -2.843E-09   -2.739E-09
    -2.634E-09   -2.530E-09   -2.425E-09   -2.321E-09   -2.217E-09   -2.114E-09   -2.011E-09   -1.910E-09   -1.811E-09   -1.713E-09
    -1.617E-09   -1.522E-09   -1.430E-09   -1.341E-09   -1.254E-09   -1.170E-09   -1.088E-09   -1.010E-09   -9.352E-10   -8.639E-10
    -7.961E-10   -7.317E-10   -6.705E-10   -6.126E-10   -5.577E-10   -5.057E-10   -4.566E-10   -4.102E-10   -3.663E-10   -3.249E-10
    -2.858E-10   -2.490E-10   -2.143E-10   -1.817E-10   -1.509E-10   -1.219E-10   -9.467E-11   -6.897E-11   -4.476E-11   -2.192E-11
    -3.578E-13    2.002E-11    3.934E-11    5.767E-11    7.511E-11    9.176E-11    1.077E-10    1.231E-10    1.379E-10    1.522E-10
     1.663E-10    1.800E-10    1.936E-10    2.070E-10    2.205E-10    2.339E-10    2.475E-10    2.612E-10    2.752E-10    2.895E-10
     3.041E-10    3.192E-10    3.348E-10    3.509E-10    3.677E-10    3.850E-10    4.031E-10    4.219E-10    4.415E-10    4.620E-10
     4.833E-10    5.054E-10    5.285E-10    5.523E-10    5.769E-10    6.021E-10    6.279E-10    6.542E-10    6.809E-10    7.081E-10
     7.356E-10    7.633E-10    7.913E-10    8.194E-10    8.475E-10    8.757E-10    9.039E-10    9.319E-10    9.598E-10    9.876E-10
     1.015E-09    1.042E-09    1.069E-09    1.095E-09    1.121E-09    1.147E-09    1.171E-09    1.196E-09    1.219E-09    1.242E-09
     1.264E-09    1.286E-09    1.306E-09    1.326E-09    1.345E-09    1.363E-09    1.380E-09    1.396E-09    1.411E-09    1.425E-09
     1.438E-09    1.450E-09    1.460E-09    1.470E-09    1.478E-09    1.485E-09    1.491E-09    1.496E-09    1.499E-09    1.501E-09
     1.502E-09    1.501E-09    1.499E-09
 Cr       Conc. = 2.97E-10
   3.68674E-09  3.86804E-09  3.89278E-09  3.72396E-09  3.58159E-09  3.51619E-09  3.48716E-09  3.47786E-09  3.48042E-09  3.49055E-09
   3.50568E-09  3.52414E-09  3.54477E-09  3.56676E-09  3.58947E-09  3.61239E-09  3.63511E-09  3.65723E-09  3.67842E-09  3.69828E-09
   3.71646E-09  3.73251E-09  3.74591E-09  3.75603E-09  3.76204E-09  3.76279E-09  3.75672E-09  3.74146E-09  3.71337E-09  3.66640E-09
   3.59101E-09  3.49986E-09  3.53672E-09  3.72943E-09  4.07984E-09  4.55253E-09  5.05876E-09  5.51292E-09  5.88712E-09  6.18728E-09
   6.39601E-09  6.43016E-09  6.18982E-09  5.76681E-09  5.55463E-09  5.43625E-09  5.36284E-09  5.31500E-09  5.28331E-09  5.26257E-09
   5.24961E-09  5.24241E-09  5.23959E-09  5.24020E-09  5.24351E-09  5.24897E-09  5.25616E-09  5.26477E-09  5.27453E-09  5.28523E-09
   5.29672E-09  5.30883E-09  5.32145E-09  5.33448E-09  5.34784E-09  5.36143E-09  5.37521E-09  5.38911E-09  5.40307E-09  5.41706E-09
   5.43101E-09  5.44491E-09  5.45869E-09  5.47235E-09  5.48583E-09  5.49910E-09  5.51216E-09  5.52495E-09  5.53744E-09  5.54963E-09
   5.56148E-09  5.57298E-09  5.58406E-09  5.59475E-09  5.60501E-09  5.61479E-09  5.62410E-09  5.63289E-09  5.64116E-09  5.64888E-09
   5.65601E-09  5.66257E-09  5.66847E-09  5.67375E-09  5.67837E-09  5.68227E-09  5.68546E-09  5.68792E-09  5.68963E-09  5.69054E-09
   5.69068E-09  5.68994E-09  5.68836E-09  5.68593E-09  5.68255E-09  5.67824E-09  5.67294E-09  5.66656E-09  5.65906E-09  5.65036E-09
   5.64040E-09  5.62913E-09  5.61648E-09  5.60237E-09  5.58675E-09  5.56954E-09  5.55069E-09  5.53013E-09  5.50778E-09  5.48359E-09
   5.45747E-09  5.42937E-09  5.39922E-09  5.36694E-09  5.33247E-09  5.29574E-09  5.25667E-09  5.21521E-09  5.17126E-09  5.12478E-09
   5.07568E-09  5.02391E-09  4.96938E-09  4.91202E-09  4.85178E-09  4.78857E-09  4.72232E-09  4.65297E-09  4.58046E-09  4.50471E-09
   4.42564E-09  4.34318E-09  4.25728E-09  4.16788E-09  4.07487E-09  3.97821E-09  3.87783E-09  3.77367E-09  3.66565E-09  3.55373E-09
   3.43780E-09  3.31784E-09  3.19379E-09  3.06554E-09  2.93307E-09  2.79629E-09  2.65525E-09  2.51003E-09  2.36093E-09  2.20820E-09
   2.05213E-09  1.89304E-09  1.73135E-09  1.56764E-09  1.40300E-09  1.24032E-09  1.09215E-09  9.97649E-10  9.42296E-10  9.08352E-10
   8.70581E-10  7.97586E-10  6.72807E-10  5.02081E-10  2.95464E-10  5.06763E-11 -2.47265E-10 -5.97815E-10 -9.36846E-10 -1.16120E-09
  -1.35514E-09 -1.53796E-09 -1.71453E-09 -1.88648E-09 -2.05449E-09 -2.21872E-09 -2.37923E-09 -2.53596E-09 -2.68871E-09 -2.83734E-09
  -2.98166E-09 -3.12144E-09 -3.25649E-09 -3.38654E-09 -3.51141E-09 -3.63086E-09 -3.74465E-09 -3.85254E-09 -3.95434E-09 -4.04978E-09
  -4.13865E-09 -4.22073E-09 -4.29579E-09 -4.36361E-09 -4.42397E-09 -4.47666E-09 -4.52144E-09 -4.55815E-09 -4.58665E-09 -4.60716E-09
  -4.61990E-09 -4.62515E-09 -4.62313E-09 -4.61410E-09 -4.59831E-09 -4.57600E-09 -4.54744E-09 -4.51286E-09 -4.47252E-09 -4.42667E-09
  -4.37556E-09 -4.31944E-09 -4.25857E-09 -4.19319E-09 -4.12356E-09 -4.04992E-09 -3.97251E-09 -3.89161E-09 -3.80746E-09 -3.72028E-09
  -3.63034E-09 -3.53788E-09 -3.44314E-09 -3.34638E-09 -3.24782E-09 -3.14771E-09 -3.04629E-09 -2.94378E-09 -2.84044E-09 -2.73649E-09
  -2.63216E-09 -2.52768E-09 -2.42328E-09 -2.31917E-09 -2.21559E-09 -2.11275E-09 -2.01088E-09 -1.91017E-09 -1.81084E-09 -1.71310E-09
  -1.61716E-09 -1.52322E-09 -1.43148E-09 -1.34212E-09 -1.25535E-09 -1.17134E-09 -1.09030E-09 -1.01239E-09 -9.37797E-10 -8.66697E-10
  -7.99109E-10 -7.34931E-10 -6.74051E-10 -6.16335E-10 -5.61667E-10 -5.09934E-10 -4.61011E-10 -4.14787E-10 -3.71136E-10 -3.29952E-10
  -2.91122E-10 -2.54523E-10 -2.20057E-10 -1.87597E-10 -1.57035E-10 -1.28280E-10 -1.01207E-10 -7.57190E-11 -5.17004E-11 -2.90686E-11
  -7.69963E-12  1.24808E-11  3.16040E-11  4.97465E-11  6.69939E-11  8.34510E-11  9.92206E-11  1.14378E-10  1.29007E-10  1.43195E-10
   1.57038E-10  1.70617E-10  1.84009E-10  1.97273E-10  2.10516E-10  2.23784E-10  2.37173E-10  2.50738E-10  2.64554E-10  2.78672E-10
   2.93159E-10  3.08101E-10  3.23514E-10  3.39488E-10  3.56062E-10  3.73274E-10  3.91187E-10  4.09860E-10  4.29298E-10  4.49580E-10
   4.70716E-10  4.92732E-10  5.15625E-10  5.39309E-10  5.63713E-10  5.88771E-10  6.14416E-10  6.40582E-10  6.67203E-10  6.94214E-10
   7.21554E-10  7.49158E-10  7.76964E-10  8.04913E-10  8.32944E-10  8.60998E-10  8.89019E-10  9.16948E-10  9.44730E-10  9.72310E-10
   9.99636E-10  1.02665E-09  1.05331E-09  1.07956E-09  1.10535E-09  1.13063E-09  1.15536E-09  1.17949E-09  1.20298E-09  1.22578E-09
   1.24785E-09  1.26915E-09  1.28964E-09  1.30928E-09  1.32804E-09  1.34588E-09  1.36277E-09  1.37866E-09  1.39354E-09  1.40737E-09
   1.42012E-09  1.43176E-09  1.44227E-09  1.45163E-09  1.45980E-09  1.46677E-09  1.47252E-09  1.47703E-09  1.48028E-09  1.48225E-09
   1.48293E-09  1.48230E-09  1.48036E-09
 GABA     Conc. = 5.94E-10
   2.60155E-09  2.65334E-09  2.70410E-09  2.75381E-09  2.80246E-09  2.85002E-09  2.89647E-09  2.94178E-09  2.98591E-09  3.02884E-09
   3.07053E-09  3.11093E-09  3.14999E-09  3.18766E-09  3.22388E-09  3.25858E-09  3.29167E-09  3.32302E-09  3.35251E-09  3.37995E-09
   3.40513E-09  3.42783E-09  3.44771E-09  3.46437E-09  3.47739E-09  3.48615E-09  3.49007E-09  3.48889E-09  3.48525E-09  3.50675E-09
   3.56048E-09  3.62722E-09  3.74632E-09  3.93093E-09  4.14890E-09  4.40609E-09  4.69329E-09  4.97249E-09  5.20899E-09  5.37902E-09
   5.48548E-09  5.58078E-09  5.59267E-09  5.46566E-09  5.37595E-09  5.32427E-09  5.21417E-09  5.11336E-09  5.04589E-09  4.99879E-09
   4.96461E-09  4.93908E-09  4.91943E-09  4.90388E-09  4.89112E-09  4.88002E-09  4.86984E-09  4.86000E-09  4.85022E-09  4.84090E-09
   4.83453E-09  4.84525E-09  4.90715E-09  5.00069E-09  5.12659E-09  5.32336E-09  5.55452E-09  5.79181E-09  6.03412E-09  6.24892E-09
   6.40016E-09  6.46753E-09  6.45193E-09  6.39926E-09  6.35079E-09  6.19173E-09  6.00162E-09  5.92770E-09  5.84791E-09  5.74588E-09
   5.69335E-09  5.66455E-09  5.65020E-09  5.68084E-09  5.73747E-09  5.80544E-09  5.90807E-09  6.03309E-09  6.16175E-09  6.28497E-09
   6.37957E-09  6.46173E-09  6.54409E-09  6.54550E-09  6.49442E-09  6.49201E-09  6.44502E-09  6.34457E-09  6.28278E-09  6.22777E-09
   6.16327E-09  6.11009E-09  6.06650E-09  6.02961E-09  5.99736E-09  5.96839E-09  5.94171E-09  5.91660E-09  5.89255E-09  5.86914E-09
   5.84598E-09  5.82273E-09  5.79915E-09  5.77504E-09  5.75025E-09  5.72462E-09  5.69800E-09  5.67022E-09  5.64115E-09  5.61068E-09
   5.57868E-09  5.54507E-09  5.50973E-09  5.47258E-09  5.43349E-09  5.39241E-09  5.34921E-09  5.30382E-09  5.25615E-09  5.20612E-09
   5.15364E-09  5.09863E-09  5.04102E-09  4.98071E-09  4.91763E-09  4.85170E-09  4.78285E-09  4.71099E-09  4.63606E-09  4.55798E-09
   4.47666E-09  4.39203E-09  4.30404E-09  4.21260E-09  4.11762E-09  4.01905E-09  3.91682E-09  3.81085E-09  3.70108E-09  3.58745E-09
   3.46986E-09  3.34827E-09  3.22263E-09  3.09283E-09  2.95886E-09  2.82061E-09  2.67815E-09  2.53156E-09  2.38116E-09  2.22723E-09
   2.07010E-09  1.91018E-09  1.74806E-09  1.58468E-09  1.42206E-09  1.26592E-09  1.14283E-09  1.12848E-09  1.19284E-09  1.29999E-09
   1.39889E-09  1.42715E-09  1.35273E-09  1.18751E-09  9.50754E-10  6.36778E-10  2.15667E-10 -3.08840E-10 -8.04710E-10 -1.07658E-09
  -1.29149E-09 -1.48643E-09 -1.67105E-09 -1.84884E-09 -2.02133E-09 -2.18914E-09 -2.35261E-09 -2.51184E-09 -2.66675E-09 -2.81727E-09
  -2.96328E-09 -3.10457E-09 -3.24100E-09 -3.37231E-09 -3.49835E-09 -3.61887E-09 -3.73367E-09 -3.84251E-09 -3.94520E-09 -4.04148E-09
  -4.13115E-09 -4.21399E-09 -4.28976E-09 -4.35828E-09 -4.41930E-09 -4.47263E-09 -4.51802E-09 -4.55532E-09 -4.58439E-09 -4.60544E-09
  -4.61872E-09 -4.62448E-09 -4.62295E-09 -4.61441E-09 -4.59908E-09 -4.57724E-09 -4.54911E-09 -4.51496E-09 -4.47504E-09 -4.42960E-09
  -4.37888E-09 -4.32315E-09 -4.26266E-09 -4.19765E-09 -4.12837E-09 -4.05508E-09 -3.97802E-09 -3.89745E-09 -3.81363E-09 -3.72678E-09
