 LCModel (Version 6.3-1R) Copyright: S.W. Provencher.          Ref.: Magn. Reson. Med. 30:672-679 (1993).                
 onepulse 23x19_ftSpec_smooth_lcm
 26 lines in following concentration table = NCONC+1
    Conc.  %SD   /Cr    Metabolite                                         
 7.50E-11 265%   0.000 Ala                                                 
 5.31E-10  76%   0.000 Asp                                                 
    0.000 999%   0.000 Cr                                                  
 2.84E-09  14%   0.000 GABA                                                
 1.62E-09  20%   0.000 Glc                                                 
    0.000 999%   0.000 Gln                                                 
 4.52E-10  94%   0.000 Glu                                                 
    0.000 999%   0.000 Glyc                                                
    0.000 999%   0.000 GPC                                                 
 5.33E-11 422%   0.000 GSH                                                 
 1.69E-10 134%   0.000 Ins                                                 
    0.000 999%   0.000 Lac                                                 
    0.000 999%   0.000 NAAG                                                
 1.02E-09  18%   0.000 NAA                                                 
 1.24E-10  45%   0.000 PCh                                                 
    0.000 999%   0.000 PCr                                                 
    0.000 999%   0.000 PE                                                  
    0.000 999%   0.000 Scyllo                                              
    0.000 999%   0.000 Ser                                                 
    0.000 999%   0.000 Tau                                                 
 1.24E-10  45%   0.000 GPC+PCh                                             
 1.02E-09  18%   0.000 NAA+NAAG                                            
 1.69E-10 134%   0.000 Ins+Glyc                                            
    0.000 999%   0.000 Cr+PCr                                              
 4.52E-10  94%   0.000 Glu+Gln                                             
   6 lines in following misc. output table
  FWHM = 0.078 ppm    S/N =   4                                            
  Data shift = 0.324 ppm                                                   
  Ph:  45 deg      27.8 deg/ppm                                            
  alphaB,S = 1.7E-01,   8.0E+01                                            
   16 spline knots.   Ns = 5(1)                                            
  (11) 2 infls.   ( 5) 1 extrs.                                            
  363 points on ppm-axis = NY
      4.250000     4.238821     4.227641     4.216462     4.205282     4.194103     4.182923     4.171744     4.160564     4.149385
      4.138206     4.127026     4.115847     4.104667     4.093488     4.082308     4.071129     4.059949     4.048770     4.037591
      4.026411     4.015232     4.004052     3.992873     3.981693     3.970514     3.959334     3.948155     3.936975     3.925796
      3.914617     3.903437     3.892258     3.881078     3.869899     3.858719     3.847540     3.836360     3.825181     3.814002
      3.802822     3.791643     3.780463     3.769284     3.758104     3.746925     3.735745     3.724566     3.713387     3.702207
      3.691028     3.679848     3.668669     3.657489     3.646310     3.635130     3.623951     3.612772     3.601592     3.590413
      3.579233     3.568054     3.556874     3.545695     3.534515     3.523336     3.512156     3.500977     3.489798     3.478618
      3.467439     3.456259     3.445080     3.433900     3.422721     3.411541     3.400362     3.389183     3.378003     3.366824
      3.355644     3.344465     3.333285     3.322106     3.310926     3.299747     3.288568     3.277388     3.266209     3.255029
      3.243850     3.232670     3.221491     3.210311     3.199132     3.187953     3.176773     3.165594     3.154414     3.143235
      3.132055     3.120876     3.109696     3.098517     3.087337     3.076158     3.064979     3.053799     3.042620     3.031440
      3.020261     3.009081     2.997902     2.986722     2.975543     2.964364     2.953184     2.942005     2.930825     2.919646
      2.908466     2.897287     2.886107     2.874928     2.863749     2.852569     2.841390     2.830210     2.819031     2.807851
      2.796672     2.785492     2.774313     2.763134     2.751954     2.740775     2.729595     2.718416     2.707236     2.696057
      2.684877     2.673698     2.662519     2.651339     2.640160     2.628980     2.617801     2.606621     2.595442     2.584262
      2.573083     2.561903     2.550724     2.539545     2.528365     2.517186     2.506006     2.494827     2.483647     2.472468
      2.461288     2.450109     2.438930     2.427750     2.416571     2.405391     2.394212     2.383032     2.371853     2.360673
      2.349494     2.338315     2.327135     2.315956     2.304776     2.293597     2.282417     2.271238     2.260058     2.248879
      2.237700     2.226520     2.215341     2.204161     2.192982     2.181802     2.170623     2.159443     2.148264     2.137084
      2.125905     2.114726     2.103546     2.092367     2.081187     2.070008     2.058828     2.047649     2.036469     2.025290
      2.014111     2.002931     1.991752     1.980572     1.969393     1.958213     1.947034     1.935854     1.924675     1.913496
      1.902316     1.891137     1.879957     1.868778     1.857598     1.846419     1.835239     1.824060     1.812881     1.801701
      1.790522     1.779342     1.768163     1.756983     1.745804     1.734624     1.723445     1.712265     1.701086     1.689907
      1.678727     1.667548     1.656368     1.645189     1.634009     1.622830     1.611650     1.600471     1.589292     1.578112
      1.566933     1.555753     1.544574     1.533394     1.522215     1.511035     1.499856     1.488677     1.477497     1.466318
      1.455138     1.443959     1.432779     1.421600     1.410420     1.399241     1.388062     1.376882     1.365703     1.354523
      1.343344     1.332164     1.320985     1.309805     1.298626     1.287446     1.276267     1.265088     1.253908     1.242729
      1.231549     1.220370     1.209190     1.198011     1.186831     1.175652     1.164473     1.153293     1.142114     1.130934
      1.119755     1.108575     1.097396     1.086216     1.075037     1.063858     1.052678     1.041499     1.030319     1.019140
      1.007960     0.996781     0.985601     0.974422     0.963243     0.952063     0.940884     0.929704     0.918525     0.907345
      0.896166     0.884986     0.873807     0.862628     0.851448     0.840269     0.829089     0.817910     0.806730     0.795551
      0.784371     0.773192     0.762012     0.750833     0.739654     0.728474     0.717295     0.706115     0.694936     0.683756
      0.672577     0.661397     0.650218     0.639039     0.627859     0.616680     0.605500     0.594321     0.583141     0.571962
      0.560782     0.549603     0.538424     0.527244     0.516065     0.504885     0.493706     0.482526     0.471347     0.460167
      0.448988     0.437809     0.426629     0.415450     0.404270     0.393091     0.381911     0.370732     0.359552     0.348373
      0.337193     0.326014     0.314835     0.303655     0.292476     0.281296     0.270117     0.258937     0.247758     0.236578
      0.225399     0.214220     0.203040
 NY phased data points follow
   3.68664E-09  5.18773E-09  7.33918E-09  9.76321E-09  1.04768E-08  1.06796E-08  8.81504E-09  8.68821E-09  7.24023E-09  6.39245E-09
   6.45321E-09  5.71032E-09  5.49903E-09  6.17337E-09  6.36085E-09  7.07876E-09  6.67574E-09  8.13863E-09  7.52697E-09  7.92784E-09
   7.82001E-09  7.80778E-09  7.29296E-09  7.98878E-09  6.42057E-09  6.96657E-09  6.90221E-09  8.00632E-09  8.62778E-09  8.26347E-09
   7.54198E-09  7.61713E-09  6.95404E-09  8.44918E-09  9.49929E-09  1.13068E-08  1.11493E-08  1.07429E-08  9.15798E-09  8.15097E-09
   6.82767E-09  6.78212E-09  6.21703E-09  5.59963E-09  5.57021E-09  5.48848E-09  4.96660E-09  4.99253E-09  5.13078E-09  4.49152E-09
   3.52672E-09  3.46846E-09  4.56813E-09  4.20508E-09  5.09356E-09  5.02690E-09  3.98185E-09  3.85773E-09  3.76825E-09  3.60682E-09
   3.36158E-09  4.08657E-09  4.52573E-09  5.51272E-09  6.80515E-09  9.24971E-09  1.22477E-08  1.31382E-08  1.13356E-08  9.84160E-09
   7.75628E-09  6.42029E-09  5.90997E-09  5.02981E-09  4.07275E-09  4.18792E-09  3.42242E-09  3.34770E-09  3.61063E-09  4.63182E-09
   5.41815E-09  8.64548E-09  1.13554E-08  1.41421E-08  1.32799E-08  1.10447E-08  9.67270E-09  8.38509E-09  8.25972E-09  7.60485E-09
   6.83724E-09  7.10633E-09  5.64975E-09  5.79972E-09  5.31737E-09  5.17376E-09  4.83105E-09  3.92033E-09  4.41652E-09  3.72604E-09
   3.58100E-09  3.54368E-09  3.29786E-09  4.17274E-09  3.36638E-09  4.24969E-09  3.20216E-09  3.73567E-09  3.58501E-09  3.50314E-09
   3.37492E-09  2.72197E-09  2.11761E-09  2.17404E-09  2.39998E-09  3.01753E-09  3.59751E-09  3.16928E-09  3.32802E-09  4.04877E-09
   3.81880E-09  4.45725E-09  3.96183E-09  3.62756E-09  3.44965E-09  3.15933E-09  1.76631E-09  2.56825E-09  1.18328E-09  1.71790E-09
   1.78550E-09  3.55376E-09  2.41774E-09  2.34688E-09  2.81759E-09  3.20621E-09  2.15760E-09  2.35154E-09  1.94856E-09  2.33767E-09
   1.89912E-09  3.03656E-09  3.35792E-09  3.94752E-09  4.39229E-09  4.19025E-09  3.28154E-09  4.16982E-09  4.30165E-09  4.39737E-09
   4.59276E-09  4.86625E-09  3.55603E-09  4.34815E-09  4.35180E-09  3.80662E-09  4.26665E-09  4.21594E-09  4.37200E-09  4.99404E-09
   4.97303E-09  5.56742E-09  5.02885E-09  5.53716E-09  5.47403E-09  5.38453E-09  5.73519E-09  6.75055E-09  6.80287E-09  8.12854E-09
   1.04378E-08  1.24988E-08  1.42316E-08  1.63020E-08  1.61929E-08  1.39337E-08  1.04477E-08  7.50677E-09  5.58445E-09  4.21875E-09
   4.45168E-09  3.32359E-09  2.99149E-09  1.80161E-09  1.65509E-09  1.25469E-09  2.68276E-10  5.26193E-10 -7.66755E-10 -4.93501E-10
  -1.16614E-09 -1.83335E-09 -2.61119E-09 -2.61514E-09 -4.36419E-09 -3.84828E-09 -6.14968E-09 -6.05561E-09 -7.92041E-09 -8.35978E-09
  -9.49919E-09 -1.00370E-08 -1.10944E-08 -1.15940E-08 -1.22784E-08 -1.21282E-08 -1.25695E-08 -1.22133E-08 -1.15887E-08 -1.16597E-08
  -1.05836E-08 -9.42781E-09 -8.22627E-09 -6.32747E-09 -6.19449E-09 -4.27079E-09 -3.57185E-09 -2.00511E-09 -1.81061E-09 -8.82249E-10
  -1.00207E-09 -6.16342E-10 -1.31246E-09 -1.09752E-09 -1.33122E-09 -2.27566E-09 -2.51837E-09 -1.34057E-09 -1.91215E-09 -1.29943E-09
  -1.42756E-09 -1.39628E-09 -1.37708E-09 -1.72285E-09 -1.12475E-09 -1.98044E-09 -2.10381E-09 -2.15136E-09 -1.99706E-09 -1.28534E-09
  -1.55321E-09 -1.49428E-09 -1.12184E-09 -9.09041E-10 -1.49901E-09 -1.44975E-09 -1.39660E-09 -2.16854E-09 -1.88976E-09 -1.82987E-09
  -1.65290E-09 -1.16963E-09 -1.25318E-09 -8.30723E-10 -1.13614E-09 -1.21716E-09 -6.60738E-10 -1.04595E-09 -1.12844E-09 -1.60188E-09
  -1.32650E-09 -1.72392E-09 -1.33471E-09 -2.46883E-09 -2.15068E-09 -2.12131E-09 -1.31027E-09 -1.27900E-09 -1.24535E-09 -9.63553E-10
  -3.86765E-10 -3.35780E-10 -4.90348E-10 -1.68923E-10 -7.82631E-10 -9.37232E-10 -2.83205E-10 -1.12357E-09 -1.07965E-09 -1.48423E-09
  -1.54050E-09 -1.57398E-09 -1.64181E-09 -1.71585E-09 -1.22931E-09 -2.10835E-09 -1.50325E-09 -1.60318E-09 -9.23371E-10 -1.29300E-09
  -8.81681E-10 -5.22006E-10 -1.37502E-09 -1.01413E-09 -9.38398E-10 -8.78974E-10 -1.44566E-09 -7.61248E-10 -1.15810E-09 -1.61526E-09
  -1.67233E-09 -7.32555E-10 -1.47787E-09 -1.05268E-09 -9.57141E-10 -1.00814E-09 -1.01147E-09 -1.31783E-09 -8.32329E-10 -6.87637E-10
  -9.50728E-10 -9.41189E-10 -1.24310E-09 -8.49382E-10 -4.82917E-10 -8.24877E-10 -4.82041E-10 -1.32041E-09 -5.94229E-10 -1.22314E-09
  -5.29232E-10 -9.67911E-10 -1.30591E-09 -3.22587E-10 -8.07624E-10 -3.84644E-10 -8.26281E-10 -1.11216E-09 -6.44153E-10 -1.28601E-09
  -6.67176E-10 -1.06777E-10 -1.42983E-09 -1.09004E-09 -6.79752E-10 -8.87344E-10 -5.30169E-10 -1.00546E-09 -1.21220E-09 -3.73564E-10
  -9.83203E-10 -6.69798E-10 -9.13091E-10 -1.88160E-10 -1.08127E-09 -8.88579E-10 -5.08935E-11 -1.23312E-09 -3.53871E-10 -9.27928E-10
  -5.62871E-10 -4.24944E-10 -8.80287E-10 -3.80815E-10 -4.38687E-10 -2.99402E-10 -4.20758E-10 -7.09579E-10 -6.02762E-10 -3.30479E-10
  -4.67694E-10 -9.74356E-10 -2.93068E-10
 NY points of the fit to the data follow
   6.43361E-09  7.02800E-09  7.64398E-09  8.20244E-09  8.55527E-09  8.58945E-09  8.29956E-09  7.75653E-09  7.16793E-09  6.56492E-09
   6.16456E-09  5.98415E-09  5.96195E-09  6.05274E-09  6.29632E-09  6.65561E-09  7.09300E-09  7.58622E-09  8.07140E-09  8.46709E-09
   8.74212E-09  8.73293E-09  8.35467E-09  7.78989E-09  7.18824E-09  6.67626E-09  6.49873E-09  6.80834E-09  7.37264E-09  7.99272E-09
   8.34237E-09  8.50587E-09  8.70807E-09  8.79229E-09  8.83180E-09  9.16204E-09  9.54045E-09  9.66254E-09  9.43625E-09  8.92548E-09
   8.26572E-09  7.48820E-09  6.41004E-09  5.51764E-09  5.01141E-09  4.47660E-09  4.03359E-09  3.90054E-09  3.93822E-09  4.03933E-09
   4.12996E-09  4.15412E-09  4.12318E-09  4.05483E-09  4.00384E-09  4.02660E-09  4.10514E-09  4.20548E-09  4.23712E-09  4.24958E-09
   4.39025E-09  4.81401E-09  5.45287E-09  6.21663E-09  7.27772E-09  8.32831E-09  9.12753E-09  9.73346E-09  1.00961E-08  1.00671E-08
   9.61743E-09  8.74297E-09  7.61765E-09  6.56859E-09  5.53328E-09  4.64493E-09  4.46459E-09  4.88119E-09  5.55400E-09  6.61599E-09
   7.91768E-09  9.29273E-09  1.06651E-08  1.16610E-08  1.18772E-08  1.13450E-08  1.01988E-08  8.69635E-09  7.35633E-09  6.86513E-09
   6.73038E-09  6.65203E-09  6.39528E-09  5.93602E-09  5.59276E-09  5.22006E-09  4.67850E-09  4.28004E-09  4.00885E-09  3.74312E-09
   3.56314E-09  3.45770E-09  3.40135E-09  3.39115E-09  3.40566E-09  3.42773E-09  3.44486E-09  3.44886E-09  3.43553E-09  3.40310E-09
   3.35537E-09  3.30744E-09  3.27333E-09  3.22783E-09  3.18993E-09  3.18510E-09  3.19140E-09  3.20248E-09  3.21603E-09  3.23094E-09
   3.24656E-09  3.26244E-09  3.27823E-09  3.29365E-09  3.30849E-09  3.32254E-09  3.33564E-09  3.34765E-09  3.35842E-09  3.36783E-09
   3.37575E-09  3.38207E-09  3.38668E-09  3.38946E-09  3.39033E-09  3.38916E-09  3.38588E-09  3.38038E-09  3.37260E-09  3.36243E-09
   3.34979E-09  3.33457E-09  3.31664E-09  3.29587E-09  3.27215E-09  3.24539E-09  3.21549E-09  3.18235E-09  3.14588E-09  3.10602E-09
   3.06273E-09  3.01599E-09  2.96582E-09  2.91227E-09  2.85547E-09  2.79563E-09  2.73306E-09  2.66830E-09  2.60214E-09  2.53580E-09
   2.47129E-09  2.41191E-09  2.36352E-09  2.33754E-09  2.35985E-09  2.50662E-09  3.11395E-09  4.54444E-09  6.53725E-09  8.83569E-09
   1.13777E-08  1.39527E-08  1.60451E-08  1.69668E-08  1.62005E-08  1.36841E-08  9.85141E-09  5.59169E-09  2.26684E-09  6.69489E-10
   7.52176E-13 -4.12235E-10 -7.27233E-10 -9.93384E-10 -1.23094E-09 -1.44966E-09 -1.65469E-09 -1.84888E-09 -2.03380E-09 -2.21035E-09
  -2.37895E-09 -2.53976E-09 -2.69272E-09 -2.83767E-09 -2.97436E-09 -3.10247E-09 -3.22177E-09 -3.33245E-09 -3.43478E-09 -3.52899E-09
  -3.61531E-09 -3.69395E-09 -3.76510E-09 -3.82898E-09 -3.88575E-09 -3.93562E-09 -3.97875E-09 -4.01532E-09 -4.04552E-09 -4.06950E-09
  -4.08744E-09 -4.09951E-09 -4.10587E-09 -4.10670E-09 -4.10214E-09 -4.09238E-09 -4.07756E-09 -4.05785E-09 -4.03343E-09 -4.00443E-09
  -3.97104E-09 -3.93339E-09 -3.89167E-09 -3.84603E-09 -3.79665E-09 -3.74377E-09 -3.68763E-09 -3.62846E-09 -3.56652E-09 -3.50204E-09
  -3.43527E-09 -3.36644E-09 -3.29581E-09 -3.22360E-09 -3.15005E-09 -3.07542E-09 -2.99993E-09 -2.92384E-09 -2.84736E-09 -2.77077E-09
  -2.69429E-09 -2.61816E-09 -2.54262E-09 -2.46791E-09 -2.39427E-09 -2.32195E-09 -2.25117E-09 -2.18218E-09 -2.11523E-09 -2.05056E-09
  -1.98839E-09 -1.92898E-09 -1.87242E-09 -1.81863E-09 -1.76755E-09 -1.71907E-09 -1.67312E-09 -1.62961E-09 -1.58845E-09 -1.54956E-09
  -1.51285E-09 -1.47823E-09 -1.44563E-09 -1.41495E-09 -1.38611E-09 -1.35902E-09 -1.33359E-09 -1.30976E-09 -1.28742E-09 -1.26649E-09
  -1.24687E-09 -1.22851E-09 -1.21129E-09 -1.19513E-09 -1.17997E-09 -1.16569E-09 -1.15223E-09 -1.13948E-09 -1.12739E-09 -1.11583E-09
  -1.10479E-09 -1.09422E-09 -1.08412E-09 -1.07445E-09 -1.06522E-09 -1.05637E-09 -1.04791E-09 -1.03981E-09 -1.03205E-09 -1.02461E-09
  -1.01747E-09 -1.01061E-09 -1.00401E-09 -9.97641E-10 -9.91496E-10 -9.85548E-10 -9.79779E-10 -9.74166E-10 -9.68697E-10 -9.63336E-10
  -9.58080E-10 -9.52897E-10 -9.47769E-10 -9.42683E-10 -9.37612E-10 -9.32535E-10 -9.27437E-10 -9.22290E-10 -9.17094E-10 -9.11844E-10
  -9.06539E-10 -9.01178E-10 -8.95760E-10 -8.90279E-10 -8.84737E-10 -8.79132E-10 -8.73462E-10 -8.67725E-10 -8.61920E-10 -8.56044E-10
  -8.50099E-10 -8.44077E-10 -8.37979E-10 -8.31809E-10 -8.25557E-10 -8.19228E-10 -8.12816E-10 -8.06319E-10 -7.99739E-10 -7.93075E-10
  -7.86318E-10 -7.79473E-10 -7.72535E-10 -7.65506E-10 -7.58383E-10 -7.51160E-10 -7.43845E-10 -7.36442E-10 -7.28952E-10 -7.21380E-10
  -7.13731E-10 -7.06006E-10 -6.98211E-10 -6.90349E-10 -6.82427E-10 -6.74442E-10 -6.66406E-10 -6.58318E-10 -6.50183E-10 -6.42005E-10
  -6.33785E-10 -6.25533E-10 -6.17247E-10 -6.08934E-10 -6.00597E-10 -5.92242E-10 -5.83869E-10 -5.75482E-10 -5.67087E-10 -5.58690E-10
  -5.50292E-10 -5.41898E-10 -5.33508E-10
 NY background values follow
     9.551E-10    9.537E-10    9.523E-10    9.508E-10    9.492E-10    9.476E-10    9.459E-10    9.442E-10    9.424E-10    9.406E-10
     9.387E-10    9.367E-10    9.346E-10    9.325E-10    9.304E-10    9.281E-10    9.258E-10    9.234E-10    9.210E-10    9.185E-10
     9.159E-10    9.132E-10    9.105E-10    9.077E-10    9.048E-10    9.018E-10    8.988E-10    8.957E-10    8.925E-10    8.892E-10
     8.859E-10    8.825E-10    8.792E-10    8.758E-10    8.725E-10    8.692E-10    8.660E-10    8.629E-10    8.599E-10    8.571E-10
     8.544E-10    8.520E-10    8.497E-10    8.477E-10    8.459E-10    8.444E-10    8.431E-10    8.422E-10    8.417E-10    8.415E-10
     8.417E-10    8.423E-10    8.433E-10    8.448E-10    8.467E-10    8.492E-10    8.521E-10    8.556E-10    8.597E-10    8.643E-10
     8.695E-10    8.754E-10    8.818E-10    8.890E-10    8.968E-10    9.054E-10    9.146E-10    9.247E-10    9.354E-10    9.470E-10
     9.594E-10    9.726E-10    9.866E-10    1.002E-09    1.017E-09    1.034E-09    1.052E-09    1.070E-09    1.090E-09    1.110E-09
     1.132E-09    1.155E-09    1.178E-09    1.203E-09    1.229E-09    1.256E-09    1.284E-09    1.313E-09    1.343E-09    1.373E-09
     1.405E-09    1.437E-09    1.470E-09    1.504E-09    1.538E-09    1.573E-09    1.608E-09    1.643E-09    1.679E-09    1.716E-09
     1.752E-09    1.789E-09    1.825E-09    1.862E-09    1.899E-09    1.936E-09    1.973E-09    2.009E-09    2.046E-09    2.082E-09
     2.118E-09    2.153E-09    2.188E-09    2.223E-09    2.257E-09    2.290E-09    2.323E-09    2.354E-09    2.385E-09    2.415E-09
     2.443E-09    2.471E-09    2.497E-09    2.522E-09    2.545E-09    2.567E-09    2.588E-09    2.606E-09    2.623E-09    2.638E-09
     2.651E-09    2.662E-09    2.671E-09    2.678E-09    2.683E-09    2.685E-09    2.684E-09    2.682E-09    2.676E-09    2.668E-09
     2.657E-09    2.644E-09    2.627E-09    2.607E-09    2.584E-09    2.557E-09    2.527E-09    2.493E-09    2.455E-09    2.413E-09
     2.367E-09    2.317E-09    2.262E-09    2.203E-09    2.139E-09    2.071E-09    1.997E-09    1.919E-09    1.835E-09    1.746E-09
     1.651E-09    1.551E-09    1.445E-09    1.334E-09    1.216E-09    1.092E-09    9.616E-10    8.249E-10    6.818E-10    5.326E-10
     3.778E-10    2.180E-10    5.377E-11   -1.145E-10   -2.861E-10   -4.607E-10   -6.377E-10   -8.165E-10   -9.966E-10   -1.178E-09
    -1.359E-09   -1.540E-09   -1.720E-09   -1.899E-09   -2.076E-09   -2.250E-09   -2.422E-09   -2.590E-09   -2.755E-09   -2.914E-09
    -3.069E-09   -3.218E-09   -3.362E-09   -3.498E-09   -3.628E-09   -3.749E-09   -3.863E-09   -3.969E-09   -4.067E-09   -4.157E-09
    -4.240E-09   -4.315E-09   -4.383E-09   -4.444E-09   -4.499E-09   -4.546E-09   -4.587E-09   -4.622E-09   -4.650E-09   -4.673E-09
    -4.689E-09   -4.699E-09   -4.704E-09   -4.704E-09   -4.698E-09   -4.687E-09   -4.671E-09   -4.650E-09   -4.625E-09   -4.595E-09
    -4.560E-09   -4.522E-09   -4.479E-09   -4.433E-09   -4.383E-09   -4.329E-09   -4.272E-09   -4.212E-09   -4.150E-09   -4.084E-09
    -4.017E-09   -3.947E-09   -3.876E-09   -3.803E-09   -3.729E-09   -3.654E-09   -3.578E-09   -3.501E-09   -3.424E-09   -3.347E-09
    -3.270E-09   -3.194E-09   -3.118E-09   -3.042E-09   -2.968E-09   -2.895E-09   -2.824E-09   -2.755E-09   -2.687E-09   -2.622E-09
    -2.560E-09   -2.500E-09   -2.443E-09   -2.389E-09   -2.337E-09   -2.288E-09   -2.242E-09   -2.198E-09   -2.157E-09   -2.117E-09
    -2.080E-09   -2.045E-09   -2.012E-09   -1.981E-09   -1.952E-09   -1.925E-09   -1.899E-09   -1.875E-09   -1.852E-09   -1.831E-09
    -1.811E-09   -1.792E-09   -1.775E-09   -1.758E-09   -1.743E-09   -1.728E-09   -1.714E-09   -1.701E-09   -1.689E-09   -1.677E-09
    -1.666E-09   -1.655E-09   -1.644E-09   -1.634E-09   -1.625E-09   -1.616E-09   -1.607E-09   -1.599E-09   -1.591E-09   -1.583E-09
    -1.575E-09   -1.568E-09   -1.561E-09   -1.555E-09   -1.548E-09   -1.542E-09   -1.536E-09   -1.530E-09   -1.524E-09   -1.519E-09
    -1.513E-09   -1.508E-09   -1.502E-09   -1.497E-09   -1.492E-09   -1.486E-09   -1.481E-09   -1.476E-09   -1.470E-09   -1.465E-09
    -1.459E-09   -1.453E-09   -1.448E-09   -1.442E-09   -1.436E-09   -1.430E-09   -1.424E-09   -1.418E-09   -1.412E-09   -1.406E-09
    -1.400E-09   -1.394E-09   -1.387E-09   -1.381E-09   -1.374E-09   -1.368E-09   -1.361E-09   -1.354E-09   -1.347E-09   -1.340E-09
    -1.333E-09   -1.326E-09   -1.319E-09   -1.312E-09   -1.304E-09   -1.297E-09   -1.289E-09   -1.282E-09   -1.274E-09   -1.266E-09
    -1.258E-09   -1.250E-09   -1.242E-09   -1.234E-09   -1.226E-09   -1.218E-09   -1.209E-09   -1.201E-09   -1.192E-09   -1.184E-09
    -1.175E-09   -1.167E-09   -1.158E-09   -1.150E-09   -1.141E-09   -1.133E-09   -1.124E-09   -1.115E-09   -1.107E-09   -1.098E-09
    -1.089E-09   -1.080E-09   -1.072E-09
 Ala      Conc. = 7.50E-11
   1.00575E-09  1.01092E-09  1.01446E-09  1.01644E-09  1.01657E-09  1.01494E-09  1.01067E-09  1.00286E-09  9.95538E-10  9.88627E-10
   9.77644E-10  9.67949E-10  9.61512E-10  9.54250E-10  9.47619E-10  9.42632E-10  9.38472E-10  9.34764E-10  9.31317E-10  9.28023E-10
   9.24816E-10  9.21652E-10  9.18505E-10  9.15350E-10  9.12171E-10  9.08962E-10  9.05709E-10  9.02404E-10  8.99044E-10  8.95630E-10
   8.92179E-10  8.88708E-10  8.85240E-10  8.81793E-10  8.78388E-10  8.75046E-10  8.71789E-10  8.68638E-10  8.65613E-10  8.62734E-10
   8.60027E-10  8.57508E-10  8.55204E-10  8.53132E-10  8.51319E-10  8.49780E-10  8.48541E-10  8.47626E-10  8.47050E-10  8.46840E-10
   8.47018E-10  8.47601E-10  8.48616E-10  8.50083E-10  8.52033E-10  8.54468E-10  8.57420E-10  8.60915E-10  8.64970E-10  8.69606E-10
   8.74845E-10  8.80707E-10  8.87213E-10  8.94383E-10  9.02239E-10  9.10803E-10  9.20094E-10  9.30134E-10  9.40945E-10  9.52546E-10
   9.64960E-10  9.78208E-10  9.92310E-10  1.00729E-09  1.02317E-09  1.03996E-09  1.05770E-09  1.07641E-09  1.09610E-09  1.11680E-09
   1.13852E-09  1.16131E-09  1.18517E-09  1.21015E-09  1.23624E-09  1.26346E-09  1.29175E-09  1.32107E-09  1.35138E-09  1.38263E-09
   1.41480E-09  1.44787E-09  1.48182E-09  1.51668E-09  1.55249E-09  1.58939E-09  1.62765E-09  1.66783E-09  1.71137E-09  1.76291E-09
   1.83095E-09  1.90153E-09  1.97682E-09  2.06914E-09  2.16598E-09  2.25565E-09  2.32902E-09  2.38041E-09  2.40757E-09  2.41023E-09
   2.39343E-09  2.37290E-09  2.36309E-09  2.33915E-09  2.32045E-09  2.33275E-09  2.35460E-09  2.37984E-09  2.40631E-09  2.43302E-09
   2.45943E-09  2.48519E-09  2.51005E-09  2.53385E-09  2.55641E-09  2.57761E-09  2.59733E-09  2.61547E-09  2.63191E-09  2.64657E-09
   2.65934E-09  2.67014E-09  2.67888E-09  2.68545E-09  2.68978E-09  2.69178E-09  2.69137E-09  2.68844E-09  2.68293E-09  2.67474E-09
   2.66378E-09  2.64993E-09  2.63306E-09  2.61304E-09  2.58971E-09  2.56296E-09  2.53264E-09  2.49861E-09  2.46075E-09  2.41891E-09
   2.37297E-09  2.32278E-09  2.26822E-09  2.20914E-09  2.14543E-09  2.07693E-09  2.00353E-09  1.92508E-09  1.84148E-09  1.75259E-09
   1.65830E-09  1.55851E-09  1.45316E-09  1.34219E-09  1.22577E-09  1.10446E-09  9.81274E-10  8.64095E-10  7.45364E-10  6.23599E-10
   4.99463E-10  3.71217E-10  2.33080E-10  7.70570E-11 -1.02517E-10 -3.05321E-10 -5.25422E-10 -7.52094E-10 -9.68897E-10 -1.16039E-09
  -1.34580E-09 -1.52896E-09 -1.71047E-09 -1.89022E-09 -2.06784E-09 -2.24292E-09 -2.41498E-09 -2.58354E-09 -2.74807E-09 -2.90808E-09
  -3.06303E-09 -3.21241E-09 -3.35571E-09 -3.49237E-09 -3.62189E-09 -3.74374E-09 -3.85753E-09 -3.96334E-09 -4.06131E-09 -4.15163E-09
  -4.23442E-09 -4.30986E-09 -4.37811E-09 -4.43932E-09 -4.49365E-09 -4.54125E-09 -4.58229E-09 -4.61692E-09 -4.64531E-09 -4.66759E-09
  -4.68395E-09 -4.69452E-09 -4.69948E-09 -4.69897E-09 -4.69316E-09 -4.68220E-09 -4.66624E-09 -4.64546E-09 -4.62000E-09 -4.59002E-09
  -4.55568E-09 -4.51713E-09 -4.47454E-09 -4.42806E-09 -4.37787E-09 -4.32421E-09 -4.26732E-09 -4.20743E-09 -4.14479E-09 -4.07963E-09
  -4.01220E-09 -3.94274E-09 -3.87148E-09 -3.79867E-09 -3.72453E-09 -3.64933E-09 -3.57328E-09 -3.49665E-09 -3.41964E-09 -3.34253E-09
  -3.26555E-09 -3.18891E-09 -3.11289E-09 -3.03771E-09 -2.96360E-09 -2.89082E-09 -2.81959E-09 -2.75017E-09 -2.68278E-09 -2.61769E-09
  -2.55509E-09 -2.49528E-09 -2.43831E-09 -2.38413E-09 -2.33265E-09 -2.28379E-09 -2.23746E-09 -2.19357E-09 -2.15204E-09 -2.11278E-09
  -2.07571E-09 -2.04074E-09 -2.00778E-09 -1.97675E-09 -1.94757E-09 -1.92014E-09 -1.89437E-09 -1.87021E-09 -1.84754E-09 -1.82628E-09
  -1.80634E-09 -1.78766E-09 -1.77012E-09 -1.75365E-09 -1.73818E-09 -1.72358E-09 -1.70981E-09 -1.69677E-09 -1.68437E-09 -1.67252E-09
  -1.66117E-09 -1.65031E-09 -1.63991E-09 -1.62995E-09 -1.62043E-09 -1.61129E-09 -1.60255E-09 -1.59416E-09 -1.58611E-09 -1.57839E-09
  -1.57097E-09 -1.56383E-09 -1.55695E-09 -1.55030E-09 -1.54388E-09 -1.53766E-09 -1.53162E-09 -1.52573E-09 -1.51999E-09 -1.51436E-09
  -1.50883E-09 -1.50338E-09 -1.49798E-09 -1.49263E-09 -1.48729E-09 -1.48194E-09 -1.47658E-09 -1.47117E-09 -1.46571E-09 -1.46019E-09
  -1.45462E-09 -1.44900E-09 -1.44331E-09 -1.43757E-09 -1.43177E-09 -1.42590E-09 -1.41996E-09 -1.41396E-09 -1.40790E-09 -1.40176E-09
  -1.39555E-09 -1.38927E-09 -1.38291E-09 -1.37647E-09 -1.36996E-09 -1.36337E-09 -1.35669E-09 -1.34993E-09 -1.34309E-09 -1.33616E-09
  -1.32914E-09 -1.32203E-09 -1.31483E-09 -1.30754E-09 -1.30015E-09 -1.29266E-09 -1.28508E-09 -1.27741E-09 -1.26965E-09 -1.26182E-09
  -1.25390E-09 -1.24590E-09 -1.23784E-09 -1.22971E-09 -1.22152E-09 -1.21326E-09 -1.20495E-09 -1.19659E-09 -1.18819E-09 -1.17973E-09
  -1.17124E-09 -1.16271E-09 -1.15415E-09 -1.14556E-09 -1.13694E-09 -1.12831E-09 -1.11966E-09 -1.11099E-09 -1.10231E-09 -1.09363E-09
  -1.08495E-09 -1.07627E-09 -1.06759E-09
 Asp      Conc. = 5.31E-10
   1.60996E-09  1.54157E-09  1.46770E-09  1.38306E-09  1.29523E-09  1.20010E-09  1.12323E-09  1.06312E-09  1.03280E-09  1.01449E-09
   1.00223E-09  9.93578E-10  9.87223E-10  9.82289E-10  9.77976E-10  9.74039E-10  9.70482E-10  9.67246E-10  9.64271E-10  9.61516E-10
   9.58955E-10  9.56570E-10  9.54360E-10  9.52323E-10  9.50475E-10  9.48845E-10  9.47467E-10  9.46393E-10  9.45701E-10  9.45504E-10
   9.45974E-10  9.47353E-10  9.50006E-10  9.54510E-10  9.61885E-10  9.74256E-10  9.96815E-10  1.02560E-09  1.06447E-09  1.10428E-09
   1.14135E-09  1.17348E-09  1.20140E-09  1.23329E-09  1.26705E-09  1.32705E-09  1.39538E-09  1.47948E-09  1.60572E-09  1.74116E-09
   1.84872E-09  1.88272E-09  1.83315E-09  1.71413E-09  1.56487E-09  1.44014E-09  1.34671E-09  1.30580E-09  1.24360E-09  1.17006E-09
   1.13577E-09  1.12583E-09  1.12054E-09  1.12118E-09  1.11679E-09  1.09467E-09  1.06286E-09  1.04771E-09  1.04182E-09  1.04135E-09
   1.04456E-09  1.05054E-09  1.05874E-09  1.06883E-09  1.08058E-09  1.09386E-09  1.10855E-09  1.12458E-09  1.14192E-09  1.16051E-09
   1.18035E-09  1.20141E-09  1.22369E-09  1.24719E-09  1.27190E-09  1.29781E-09  1.32484E-09  1.35292E-09  1.38198E-09  1.41198E-09
   1.44283E-09  1.47448E-09  1.50687E-09  1.53994E-09  1.57363E-09  1.60787E-09  1.64261E-09  1.67779E-09  1.71335E-09  1.74924E-09
   1.78539E-09  1.82174E-09  1.85825E-09  1.89485E-09  1.93148E-09  1.96809E-09  2.00463E-09  2.04102E-09  2.07723E-09  2.11318E-09
   2.14883E-09  2.18412E-09  2.21898E-09  2.25335E-09  2.28714E-09  2.32027E-09  2.35265E-09  2.38420E-09  2.41484E-09  2.44447E-09
   2.47303E-09  2.50041E-09  2.52653E-09  2.55133E-09  2.57469E-09  2.59656E-09  2.61683E-09  2.63543E-09  2.65227E-09  2.66728E-09
   2.68035E-09  2.69142E-09  2.70039E-09  2.70718E-09  2.71172E-09  2.71391E-09  2.71367E-09  2.71092E-09  2.70557E-09  2.69755E-09
   2.68676E-09  2.67309E-09  2.65640E-09  2.63656E-09  2.61344E-09  2.58690E-09  2.55681E-09  2.52305E-09  2.48547E-09  2.44395E-09
   2.39836E-09  2.34857E-09  2.29447E-09  2.23593E-09  2.17283E-09  2.10506E-09  2.03254E-09  1.95515E-09  1.87285E-09  1.78560E-09
   1.69340E-09  1.59637E-09  1.49480E-09  1.38929E-09  1.28139E-09  1.17526E-09  1.08741E-09  1.08127E-09  1.10799E-09  1.15015E-09
   1.20920E-09  1.27277E-09  1.29995E-09  1.23124E-09  1.01969E-09  6.59274E-10  1.84551E-10 -3.36338E-10 -7.95953E-10 -1.06688E-09
  -1.28064E-09 -1.47784E-09 -1.66755E-09 -1.85257E-09 -2.03383E-09 -2.21152E-09 -2.38554E-09 -2.55560E-09 -2.72131E-09 -2.88225E-09
  -3.03797E-09 -3.18799E-09 -3.33181E-09 -3.46892E-09 -3.59881E-09 -3.72099E-09 -3.83507E-09 -3.94112E-09 -4.03931E-09 -4.12981E-09
  -4.21278E-09 -4.28837E-09 -4.35675E-09 -4.41808E-09 -4.47252E-09 -4.52023E-09 -4.56136E-09 -4.59607E-09 -4.62453E-09 -4.64689E-09
  -4.66331E-09 -4.67394E-09 -4.67895E-09 -4.67850E-09 -4.67273E-09 -4.66182E-09 -4.64591E-09 -4.62516E-09 -4.59974E-09 -4.56979E-09
  -4.53548E-09 -4.49697E-09 -4.45441E-09 -4.40795E-09 -4.35780E-09 -4.30416E-09 -4.24730E-09 -4.18743E-09 -4.12481E-09 -4.05968E-09
