 LCModel (Version 6.3-1R) Copyright: S.W. Provencher.          Ref.: Magn. Reson. Med. 30:672-679 (1993).                
 onepulse 23x13_ftSpec_smooth_lcm
 26 lines in following concentration table = NCONC+1
    Conc.  %SD /Cr+PCr  Metabolite                                         
    0.000 999%   0.000 Ala                                                 
    0.000 999%   0.000 Asp                                                 
 1.73E-10 116%   1.000 Cr                                                  
    0.000 999%   0.000 GABA                                                
    0.000 999%   0.000 Glc                                                 
 2.48E-09  19%  14.393 Gln                                                 
    0.000 999%   0.000 Glu                                                 
 4.57E-10 307%   2.648 Glyc                                                
 1.86E-10  62%   1.077 GPC                                                 
    0.000 999%   0.000 GSH                                                 
 5.33E-10 226%   3.090 Ins                                                 
    0.000 999%   0.000 Lac                                                 
 1.18E-10 247%   0.681 NAAG                                                
 2.51E-10 150%   1.454 NAA                                                 
    0.000 999%   0.000 PCh                                                 
    0.000 999%   0.000 PCr                                                 
    0.000 999%   0.000 PE                                                  
 1.84E-10 115%   1.069 Scyllo                                              
 2.92E-09  24%  16.915 Ser                                                 
 3.56E-10 179%   2.063 Tau                                                 
 1.86E-10  62%   1.077 GPC+PCh                                             
 3.69E-10  63%   2.135 NAA+NAAG                                            
 9.90E-10  39%   5.738 Ins+Glyc                                            
 1.73E-10 116%   1.000 Cr+PCr                                              
 2.48E-09  19%  14.393 Glu+Gln                                             
   6 lines in following misc. output table
  FWHM = 0.078 ppm    S/N =   3                                            
  Data shift = 0.347 ppm                                                   
  Ph: -44 deg     -32.3 deg/ppm                                            
  alphaB,S = 1.0E+00,   2.8E+01                                            
    8 spline knots.   Ns = 5(1)                                            
  ( 7) 5 infls.   ( 5) 1 extrs.                                            
  363 points on ppm-axis = NY
      4.250000     4.238821     4.227641     4.216462     4.205282     4.194103     4.182923     4.171744     4.160564     4.149385
      4.138206     4.127026     4.115847     4.104667     4.093488     4.082308     4.071129     4.059949     4.048770     4.037591
      4.026411     4.015232     4.004052     3.992873     3.981693     3.970514     3.959334     3.948155     3.936975     3.925796
      3.914617     3.903437     3.892258     3.881078     3.869899     3.858719     3.847540     3.836360     3.825181     3.814002
      3.802822     3.791643     3.780463     3.769284     3.758104     3.746925     3.735745     3.724566     3.713387     3.702207
      3.691028     3.679848     3.668669     3.657489     3.646310     3.635130     3.623951     3.612772     3.601592     3.590413
      3.579233     3.568054     3.556874     3.545695     3.534515     3.523336     3.512156     3.500977     3.489798     3.478618
      3.467439     3.456259     3.445080     3.433900     3.422721     3.411541     3.400362     3.389183     3.378003     3.366824
      3.355644     3.344465     3.333285     3.322106     3.310926     3.299747     3.288568     3.277388     3.266209     3.255029
      3.243850     3.232670     3.221491     3.210311     3.199132     3.187953     3.176773     3.165594     3.154414     3.143235
      3.132055     3.120876     3.109696     3.098517     3.087337     3.076158     3.064979     3.053799     3.042620     3.031440
      3.020261     3.009081     2.997902     2.986722     2.975543     2.964364     2.953184     2.942005     2.930825     2.919646
      2.908466     2.897287     2.886107     2.874928     2.863749     2.852569     2.841390     2.830210     2.819031     2.807851
      2.796672     2.785492     2.774313     2.763134     2.751954     2.740775     2.729595     2.718416     2.707236     2.696057
      2.684877     2.673698     2.662519     2.651339     2.640160     2.628980     2.617801     2.606621     2.595442     2.584262
      2.573083     2.561903     2.550724     2.539545     2.528365     2.517186     2.506006     2.494827     2.483647     2.472468
      2.461288     2.450109     2.438930     2.427750     2.416571     2.405391     2.394212     2.383032     2.371853     2.360673
      2.349494     2.338315     2.327135     2.315956     2.304776     2.293597     2.282417     2.271238     2.260058     2.248879
      2.237700     2.226520     2.215341     2.204161     2.192982     2.181802     2.170623     2.159443     2.148264     2.137084
      2.125905     2.114726     2.103546     2.092367     2.081187     2.070008     2.058828     2.047649     2.036469     2.025290
      2.014111     2.002931     1.991752     1.980572     1.969393     1.958213     1.947034     1.935854     1.924675     1.913496
      1.902316     1.891137     1.879957     1.868778     1.857598     1.846419     1.835239     1.824060     1.812881     1.801701
      1.790522     1.779342     1.768163     1.756983     1.745804     1.734624     1.723445     1.712265     1.701086     1.689907
      1.678727     1.667548     1.656368     1.645189     1.634009     1.622830     1.611650     1.600471     1.589292     1.578112
      1.566933     1.555753     1.544574     1.533394     1.522215     1.511035     1.499856     1.488677     1.477497     1.466318
      1.455138     1.443959     1.432779     1.421600     1.410420     1.399241     1.388062     1.376882     1.365703     1.354523
      1.343344     1.332164     1.320985     1.309805     1.298626     1.287446     1.276267     1.265088     1.253908     1.242729
      1.231549     1.220370     1.209190     1.198011     1.186831     1.175652     1.164473     1.153293     1.142114     1.130934
      1.119755     1.108575     1.097396     1.086216     1.075037     1.063858     1.052678     1.041499     1.030319     1.019140
      1.007960     0.996781     0.985601     0.974422     0.963243     0.952063     0.940884     0.929704     0.918525     0.907345
      0.896166     0.884986     0.873807     0.862628     0.851448     0.840269     0.829089     0.817910     0.806730     0.795551
      0.784371     0.773192     0.762012     0.750833     0.739654     0.728474     0.717295     0.706115     0.694936     0.683756
      0.672577     0.661397     0.650218     0.639039     0.627859     0.616680     0.605500     0.594321     0.583141     0.571962
      0.560782     0.549603     0.538424     0.527244     0.516065     0.504885     0.493706     0.482526     0.471347     0.460167
      0.448988     0.437809     0.426629     0.415450     0.404270     0.393091     0.381911     0.370732     0.359552     0.348373
      0.337193     0.326014     0.314835     0.303655     0.292476     0.281296     0.270117     0.258937     0.247758     0.236578
      0.225399     0.214220     0.203040
 NY phased data points follow
   1.44840E-08  1.56836E-08  1.57594E-08  1.41701E-08  1.25568E-08  1.26716E-08  1.11513E-08  1.09807E-08  1.08674E-08  1.02924E-08
   1.00880E-08  1.05903E-08  1.09126E-08  1.08278E-08  1.13489E-08  1.20536E-08  1.22938E-08  1.16289E-08  1.18297E-08  1.14125E-08
   1.10205E-08  1.07658E-08  1.05679E-08  1.03043E-08  1.17035E-08  1.18410E-08  1.21177E-08  1.13108E-08  1.10746E-08  1.05689E-08
   1.13893E-08  1.24204E-08  1.43484E-08  1.40270E-08  1.42648E-08  1.34235E-08  1.24508E-08  1.09030E-08  1.02394E-08  9.75073E-09
   9.81661E-09  9.11930E-09  8.58747E-09  8.75417E-09  8.71917E-09  7.50925E-09  7.82406E-09  6.55142E-09  6.86866E-09  6.40695E-09
   6.38386E-09  7.39861E-09  6.52167E-09  6.36433E-09  6.80142E-09  5.47477E-09  5.31069E-09  5.16901E-09  5.39986E-09  5.62606E-09
   6.29613E-09  6.54608E-09  9.51290E-09  1.33292E-08  1.57240E-08  1.49216E-08  1.40949E-08  1.23542E-08  1.08847E-08  9.24613E-09
   8.51397E-09  8.33213E-09  7.14971E-09  6.59788E-09  5.84844E-09  5.85085E-09  5.56014E-09  5.87641E-09  6.88353E-09  1.04014E-08
   1.47363E-08  1.63461E-08  1.56860E-08  1.38444E-08  1.37637E-08  1.30014E-08  1.18708E-08  1.12024E-08  1.09317E-08  1.00530E-08
   1.02625E-08  9.90363E-09  8.77679E-09  9.02804E-09  8.63556E-09  7.60205E-09  7.90112E-09  7.21443E-09  7.32636E-09  6.66225E-09
   6.19814E-09  5.84502E-09  6.82789E-09  6.68805E-09  6.21907E-09  5.71727E-09  6.66166E-09  6.21831E-09  5.18308E-09  4.86500E-09
   4.58544E-09  3.82383E-09  3.75530E-09  4.53917E-09  4.97842E-09  4.87489E-09  4.87569E-09  5.27549E-09  5.97959E-09  5.39745E-09
   5.50922E-09  5.68470E-09  5.46776E-09  4.56977E-09  4.32025E-09  3.84368E-09  3.57005E-09  3.32385E-09  3.88665E-09  4.09840E-09
   4.11650E-09  4.04449E-09  4.36501E-09  4.09200E-09  3.75809E-09  3.52967E-09  3.64930E-09  3.74339E-09  3.30402E-09  3.32092E-09
   5.19484E-09  5.89298E-09  5.84414E-09  4.88029E-09  5.26152E-09  5.23498E-09  6.31448E-09  5.84490E-09  6.79070E-09  6.05651E-09
   5.58294E-09  6.04776E-09  5.53523E-09  5.02371E-09  4.99693E-09  4.95218E-09  4.76718E-09  4.66624E-09  4.85971E-09  4.80451E-09
   5.10876E-09  4.85090E-09  4.96616E-09  4.84386E-09  4.28104E-09  3.94879E-09  4.32156E-09  5.70819E-09  6.41417E-09  6.57048E-09
   8.92487E-09  1.49663E-08  1.86221E-08  1.73865E-08  1.55661E-08  1.32021E-08  1.23224E-08  1.11034E-08  1.01727E-08  8.56971E-09
   8.21386E-09  7.08582E-09  6.51563E-09  5.23257E-09  4.50421E-09  3.78111E-09  2.74959E-09  1.72414E-09  7.82805E-10 -9.87098E-10
  -1.78676E-09 -2.76398E-09 -3.84535E-09 -6.10407E-09 -6.67997E-09 -8.90768E-09 -9.47340E-09 -1.09250E-08 -1.17751E-08 -1.27339E-08
  -1.29600E-08 -1.37481E-08 -1.33892E-08 -1.36076E-08 -1.22712E-08 -1.21328E-08 -1.07513E-08 -9.63001E-09 -8.62963E-09 -7.43769E-09
  -5.95195E-09 -4.93607E-09 -3.61579E-09 -2.57478E-09 -2.03507E-09 -1.53892E-09 -1.64566E-09 -1.51355E-09 -1.50558E-09 -1.97556E-09
  -2.22238E-09 -2.09805E-09 -1.28725E-09 -1.27281E-09 -1.07281E-09 -1.38746E-09 -1.36243E-09 -1.21796E-09 -9.75355E-10 -1.43123E-09
  -6.36267E-10 -1.25809E-09 -1.03190E-09 -1.93659E-09 -1.41226E-09 -9.90185E-10 -9.56912E-10 -8.23800E-10 -1.08085E-09 -8.18765E-10
  -2.03984E-10 -8.48607E-10 -6.49475E-10 -1.64146E-09 -1.34056E-09 -1.11940E-09 -9.37465E-10 -9.87956E-10 -1.23765E-09 -8.90449E-10
  -1.63877E-10 -5.38050E-10  1.02366E-10 -2.33284E-11  3.08661E-10 -6.38876E-10  6.36716E-10 -1.01528E-09 -6.63930E-10 -9.54580E-10
  -5.41147E-10 -1.42422E-09 -1.62850E-09 -1.52303E-09 -1.37351E-09 -1.27432E-09 -5.99481E-10 -1.42036E-09 -6.73694E-10 -7.41117E-10
  -2.32211E-10 -1.78225E-10  3.34650E-10  1.49230E-10  6.20003E-10  8.33726E-10  6.06993E-10  5.21165E-10  2.36723E-10 -1.57780E-12
   2.44600E-10  1.28729E-10  2.38654E-10 -5.36341E-10 -1.00814E-11 -7.14736E-10 -2.92040E-10 -8.53241E-10 -5.19016E-10 -3.53954E-10
  -7.92068E-10 -1.22702E-09 -5.09349E-10 -8.55321E-10 -6.71009E-10 -1.01083E-09 -5.32363E-10 -7.18011E-10 -7.86518E-10 -1.24251E-09
  -6.68149E-10 -9.75075E-10 -1.18799E-09 -9.90785E-10 -1.19966E-09 -3.95095E-10 -1.08674E-09 -9.68922E-10 -5.63722E-10 -1.76059E-09
  -6.85746E-10 -7.09720E-10 -7.93091E-10 -1.07044E-09 -5.45256E-10 -1.24765E-09 -7.01808E-10 -8.00530E-10 -7.24742E-10 -5.13631E-10
  -7.40747E-10 -5.90897E-10 -5.92590E-10 -7.50728E-10 -2.30311E-10 -9.04514E-10 -6.64801E-10 -6.87029E-10 -2.05769E-10 -1.28015E-09
  -3.76435E-10 -3.28599E-11 -5.42626E-10 -5.95951E-10 -2.31716E-10 -2.34422E-10 -6.68209E-11 -9.09384E-10 -2.95561E-10 -6.86867E-10
   1.59936E-10 -8.06893E-10 -2.40988E-10 -7.49635E-10  3.04876E-10 -6.36929E-10 -6.79049E-11 -1.26814E-10  3.85239E-12 -2.79542E-10
  -1.75303E-10 -3.55762E-11  1.65479E-10 -3.72201E-10 -4.73785E-12  2.86139E-11  1.17843E-10 -4.26887E-10  1.91833E-10  5.03924E-10
   5.04486E-10 -1.16060E-10 -1.19563E-10
 NY points of the fit to the data follow
   1.33087E-08  1.37284E-08  1.31661E-08  1.28863E-08  1.31194E-08  1.31962E-08  1.26882E-08  1.19824E-08  1.14893E-08  1.12183E-08
   1.11013E-08  1.07346E-08  1.09525E-08  1.14078E-08  1.18228E-08  1.19344E-08  1.18342E-08  1.18620E-08  1.17708E-08  1.10031E-08
   1.00994E-08  9.79350E-09  9.85064E-09  9.99972E-09  1.02093E-08  1.04656E-08  1.09664E-08  1.16595E-08  1.22932E-08  1.26098E-08
   1.30260E-08  1.32450E-08  1.33225E-08  1.30405E-08  1.22124E-08  1.10337E-08  1.04649E-08  1.01795E-08  9.97185E-09  9.78380E-09
   9.60813E-09  9.37841E-09  8.96928E-09  8.43601E-09  8.10673E-09  7.86824E-09  7.67794E-09  7.51448E-09  7.36330E-09  7.21676E-09
   7.06875E-09  6.92360E-09  6.79325E-09  6.67686E-09  6.60183E-09  6.66303E-09  6.80703E-09  7.06178E-09  7.62326E-09  8.39756E-09
   9.19586E-09  1.00704E-08  1.10367E-08  1.19028E-08  1.23897E-08  1.23420E-08  1.19343E-08  1.16027E-08  1.09014E-08  9.68282E-09
   8.89815E-09  8.44522E-09  7.96455E-09  7.68173E-09  7.62867E-09  7.88838E-09  8.37746E-09  9.04217E-09  9.86899E-09  1.08602E-08
   1.19982E-08  1.31039E-08  1.37380E-08  1.39942E-08  1.41285E-08  1.37395E-08  1.27942E-08  1.18135E-08  1.06422E-08  9.71728E-09
   9.12628E-09  8.69685E-09  8.36127E-09  8.08698E-09  7.84909E-09  7.63877E-09  7.45407E-09  7.28918E-09  7.13675E-09  6.99265E-09
   6.86067E-09  6.73934E-09  6.62368E-09  6.51215E-09  6.40621E-09  6.30533E-09  6.20843E-09  6.11491E-09  6.02418E-09  5.93586E-09
   5.84971E-09  5.76538E-09  5.68264E-09  5.60128E-09  5.52110E-09  5.44194E-09  5.36366E-09  5.28611E-09  5.20917E-09  5.13276E-09
   5.05673E-09  4.98105E-09  4.90560E-09  4.83034E-09  4.75518E-09  4.68006E-09  4.60491E-09  4.52974E-09  4.45445E-09  4.37901E-09
   4.30340E-09  4.22755E-09  4.15147E-09  4.07512E-09  3.99846E-09  3.92145E-09  3.84415E-09  3.76647E-09  3.68844E-09  3.61001E-09
   3.53123E-09  3.45209E-09  3.37259E-09  3.29272E-09  3.21255E-09  3.13209E-09  3.05139E-09  2.97056E-09  2.88973E-09  2.80903E-09
   2.72864E-09  2.64876E-09  2.56961E-09  2.49149E-09  2.41475E-09  2.33984E-09  2.26735E-09  2.19804E-09  2.13296E-09  2.07359E-09
   2.02205E-09  1.98170E-09  1.95793E-09  1.96044E-09  2.00898E-09  2.15360E-09  2.58197E-09  3.87051E-09  5.61442E-09  7.93939E-09
   1.12428E-08  1.50273E-08  1.78213E-08  1.87193E-08  1.81330E-08  1.66559E-08  1.39232E-08  9.07848E-09  3.36179E-09  1.13763E-09
   4.50399E-10  1.12045E-10 -1.03646E-10 -2.63491E-10 -3.93662E-10 -5.06285E-10 -6.07635E-10 -7.01220E-10 -7.89188E-10 -8.72819E-10
  -9.52931E-10 -1.03012E-09 -1.10472E-09 -1.17700E-09 -1.24711E-09 -1.31517E-09 -1.38129E-09 -1.44544E-09 -1.50770E-09 -1.56807E-09
  -1.62655E-09 -1.68313E-09 -1.73779E-09 -1.79052E-09 -1.84130E-09 -1.89008E-09 -1.93686E-09 -1.98160E-09 -2.02429E-09 -2.06486E-09
  -2.10334E-09 -2.13964E-09 -2.17376E-09 -2.20567E-09 -2.23536E-09 -2.26276E-09 -2.28787E-09 -2.31067E-09 -2.33110E-09 -2.34923E-09
  -2.36510E-09 -2.37876E-09 -2.39025E-09 -2.39964E-09 -2.40697E-09 -2.41231E-09 -2.41568E-09 -2.41716E-09 -2.41679E-09 -2.41462E-09
  -2.41070E-09 -2.40509E-09 -2.39784E-09 -2.38900E-09 -2.37862E-09 -2.36675E-09 -2.35344E-09 -2.33875E-09 -2.32273E-09 -2.30542E-09
  -2.28687E-09 -2.26715E-09 -2.24629E-09 -2.22435E-09 -2.20138E-09 -2.17742E-09 -2.15253E-09 -2.12676E-09 -2.10015E-09 -2.07274E-09
  -2.04461E-09 -2.01577E-09 -1.98630E-09 -1.95622E-09 -1.92558E-09 -1.89446E-09 -1.86286E-09 -1.83085E-09 -1.79847E-09 -1.76576E-09
  -1.73276E-09 -1.69953E-09 -1.66611E-09 -1.63253E-09 -1.59883E-09 -1.56506E-09 -1.53126E-09 -1.49746E-09 -1.46371E-09 -1.43005E-09
  -1.39651E-09 -1.36312E-09 -1.32994E-09 -1.29698E-09 -1.26430E-09 -1.23191E-09 -1.19986E-09 -1.16818E-09 -1.13689E-09 -1.10603E-09
  -1.07564E-09 -1.04575E-09 -1.01637E-09 -9.87536E-10 -9.59282E-10 -9.31630E-10 -9.04610E-10 -8.78230E-10 -8.52535E-10 -8.27539E-10
  -8.03257E-10 -7.79709E-10 -7.56871E-10 -7.34732E-10 -7.13273E-10 -6.92488E-10 -6.72350E-10 -6.52854E-10 -6.33981E-10 -6.15719E-10
  -5.98054E-10 -5.80970E-10 -5.64458E-10 -5.48500E-10 -5.33082E-10 -5.18193E-10 -5.03822E-10 -4.89955E-10 -4.76577E-10 -4.63676E-10
  -4.51243E-10 -4.39262E-10 -4.27727E-10 -4.16619E-10 -4.05933E-10 -3.95654E-10 -3.85775E-10 -3.76280E-10 -3.67163E-10 -3.58414E-10
  -3.50023E-10 -3.41972E-10 -3.34265E-10 -3.26886E-10 -3.19825E-10 -3.13072E-10 -3.06628E-10 -3.00476E-10 -2.94614E-10 -2.89028E-10
  -2.83717E-10 -2.78671E-10 -2.73881E-10 -2.69343E-10 -2.65055E-10 -2.61005E-10 -2.57192E-10 -2.53606E-10 -2.50250E-10 -2.47106E-10
  -2.44185E-10 -2.41471E-10 -2.38970E-10 -2.36674E-10 -2.34573E-10 -2.32680E-10 -2.30980E-10 -2.29478E-10 -2.28165E-10 -2.27047E-10
  -2.26119E-10 -2.25380E-10 -2.24831E-10 -2.24470E-10 -2.24301E-10 -2.24319E-10 -2.24533E-10 -2.24936E-10 -2.25533E-10 -2.26328E-10
  -2.27318E-10 -2.28511E-10 -2.29909E-10
 NY background values follow
     4.941E-09    4.976E-09    5.011E-09    5.045E-09    5.078E-09    5.110E-09    5.141E-09    5.171E-09    5.200E-09    5.228E-09
     5.255E-09    5.282E-09    5.307E-09    5.332E-09    5.356E-09    5.378E-09    5.400E-09    5.421E-09    5.441E-09    5.461E-09
     5.479E-09    5.496E-09    5.513E-09    5.529E-09    5.544E-09    5.558E-09    5.571E-09    5.584E-09    5.595E-09    5.606E-09
     5.616E-09    5.625E-09    5.633E-09    5.641E-09    5.647E-09    5.653E-09    5.659E-09    5.663E-09    5.667E-09    5.670E-09
     5.672E-09    5.673E-09    5.674E-09    5.674E-09    5.673E-09    5.671E-09    5.669E-09    5.666E-09    5.663E-09    5.658E-09
     5.653E-09    5.648E-09    5.642E-09    5.635E-09    5.627E-09    5.619E-09    5.610E-09    5.601E-09    5.591E-09    5.581E-09
     5.570E-09    5.558E-09    5.546E-09    5.533E-09    5.520E-09    5.506E-09    5.491E-09    5.476E-09    5.461E-09    5.445E-09
     5.429E-09    5.412E-09    5.395E-09    5.377E-09    5.359E-09    5.340E-09    5.321E-09    5.302E-09    5.282E-09    5.261E-09
     5.240E-09    5.219E-09    5.197E-09    5.174E-09    5.151E-09    5.128E-09    5.104E-09    5.079E-09    5.054E-09    5.029E-09
     5.003E-09    4.976E-09    4.949E-09    4.921E-09    4.892E-09    4.863E-09    4.834E-09    4.803E-09    4.773E-09    4.741E-09
     4.709E-09    4.676E-09    4.643E-09    4.609E-09    4.574E-09    4.539E-09    4.502E-09    4.466E-09    4.428E-09    4.390E-09
     4.351E-09    4.311E-09    4.271E-09    4.229E-09    4.187E-09    4.144E-09    4.101E-09    4.056E-09    4.011E-09    3.965E-09
     3.918E-09    3.871E-09    3.822E-09    3.773E-09    3.722E-09    3.671E-09    3.619E-09    3.566E-09    3.512E-09    3.457E-09
     3.402E-09    3.345E-09    3.287E-09    3.229E-09    3.169E-09    3.109E-09    3.047E-09    2.985E-09    2.922E-09    2.857E-09
     2.792E-09    2.725E-09    2.658E-09    2.589E-09    2.519E-09    2.449E-09    2.377E-09    2.304E-09    2.230E-09    2.156E-09
     2.080E-09    2.004E-09    1.927E-09    1.850E-09    1.771E-09    1.692E-09    1.613E-09    1.533E-09    1.453E-09    1.372E-09
     1.291E-09    1.209E-09    1.128E-09    1.046E-09    9.640E-10    8.820E-10    8.000E-10    7.181E-10    6.363E-10    5.546E-10
     4.731E-10    3.918E-10    3.109E-10    2.303E-10    1.501E-10    7.038E-11   -8.828E-12   -8.746E-11   -1.655E-10   -2.428E-10
    -3.195E-10   -3.953E-10   -4.703E-10   -5.445E-10   -6.177E-10   -6.900E-10   -7.613E-10   -8.314E-10   -9.005E-10   -9.683E-10
    -1.035E-09   -1.100E-09   -1.164E-09   -1.227E-09   -1.289E-09   -1.348E-09   -1.407E-09   -1.464E-09   -1.519E-09   -1.573E-09
    -1.625E-09   -1.675E-09   -1.723E-09   -1.770E-09   -1.815E-09   -1.858E-09   -1.899E-09   -1.938E-09   -1.976E-09   -2.011E-09
    -2.044E-09   -2.075E-09   -2.104E-09   -2.131E-09   -2.156E-09   -2.178E-09   -2.198E-09   -2.216E-09   -2.232E-09   -2.245E-09
    -2.256E-09   -2.265E-09   -2.272E-09   -2.277E-09   -2.280E-09   -2.280E-09   -2.279E-09   -2.276E-09   -2.272E-09   -2.265E-09
    -2.257E-09   -2.247E-09   -2.236E-09   -2.222E-09   -2.208E-09   -2.192E-09   -2.175E-09   -2.156E-09   -2.136E-09   -2.114E-09
    -2.092E-09   -2.068E-09   -2.044E-09   -2.018E-09   -1.991E-09   -1.963E-09   -1.935E-09   -1.905E-09   -1.875E-09   -1.844E-09
    -1.812E-09   -1.780E-09   -1.747E-09   -1.713E-09   -1.679E-09   -1.644E-09   -1.609E-09   -1.574E-09   -1.538E-09   -1.502E-09
    -1.466E-09   -1.429E-09   -1.392E-09   -1.355E-09   -1.319E-09   -1.282E-09   -1.245E-09   -1.208E-09   -1.171E-09   -1.134E-09
    -1.097E-09   -1.061E-09   -1.025E-09   -9.889E-10   -9.532E-10   -9.179E-10   -8.829E-10   -8.484E-10   -8.142E-10   -7.805E-10
    -7.473E-10   -7.146E-10   -6.825E-10   -6.509E-10   -6.199E-10   -5.896E-10   -5.599E-10   -5.308E-10   -5.025E-10   -4.749E-10
    -4.480E-10   -4.219E-10   -3.965E-10   -3.718E-10   -3.479E-10   -3.246E-10   -3.020E-10   -2.801E-10   -2.588E-10   -2.381E-10
    -2.181E-10   -1.986E-10   -1.798E-10   -1.615E-10   -1.438E-10   -1.266E-10   -1.100E-10   -9.386E-11   -7.826E-11   -6.316E-11
    -4.854E-11   -3.440E-11   -2.072E-11   -7.485E-12    5.308E-12    1.767E-11    2.962E-11    4.117E-11    5.232E-11    6.308E-11
     7.347E-11    8.350E-11    9.317E-11    1.025E-10    1.115E-10    1.201E-10    1.285E-10    1.365E-10    1.442E-10    1.516E-10
     1.588E-10    1.656E-10    1.722E-10    1.785E-10    1.845E-10    1.903E-10    1.959E-10    2.012E-10    2.062E-10    2.110E-10
     2.156E-10    2.199E-10    2.241E-10    2.280E-10    2.316E-10    2.351E-10    2.384E-10    2.414E-10    2.443E-10    2.469E-10
     2.493E-10    2.515E-10    2.535E-10    2.553E-10    2.569E-10    2.583E-10    2.595E-10    2.605E-10    2.613E-10    2.618E-10
     2.622E-10    2.623E-10    2.622E-10
 Cr       Conc. = 1.73E-10
   5.50962E-09  5.63964E-09  5.65745E-09  5.49968E-09  5.39055E-09  5.34280E-09  5.32142E-09  5.31351E-09  5.31332E-09  5.31779E-09
   5.32517E-09  5.33436E-09  5.34459E-09  5.35535E-09  5.36624E-09  5.37696E-09  5.38726E-09  5.39694E-09  5.40581E-09  5.41369E-09
   5.42038E-09  5.42568E-09  5.42938E-09  5.43119E-09  5.43075E-09  5.42764E-09  5.42122E-09  5.41063E-09  5.39456E-09  5.37105E-09
   5.33775E-09  5.30731E-09  5.32975E-09  5.37941E-09  5.48222E-09  5.69274E-09  6.00404E-09  6.31915E-09  6.55716E-09  6.72405E-09
   6.84618E-09  6.87365E-09  6.68824E-09  6.34703E-09  6.18540E-09  6.09184E-09  6.02859E-09  5.98158E-09  5.94434E-09  5.91343E-09
   5.88675E-09  5.86305E-09  5.84143E-09  5.82131E-09  5.80230E-09  5.78400E-09  5.76624E-09  5.74886E-09  5.73161E-09  5.71449E-09
   5.69739E-09  5.68019E-09  5.66291E-09  5.64544E-09  5.62781E-09  5.60993E-09  5.59182E-09  5.57341E-09  5.55474E-09  5.53579E-09
   5.51652E-09  5.49694E-09  5.47708E-09  5.45688E-09  5.43637E-09  5.41552E-09  5.39432E-09  5.37277E-09  5.35083E-09  5.32851E-09
   5.30578E-09  5.28264E-09  5.25907E-09  5.23507E-09  5.21063E-09  5.18573E-09  5.16035E-09  5.13451E-09  5.10818E-09  5.08134E-09
   5.05399E-09  5.02614E-09  4.99774E-09  4.96883E-09  4.93934E-09  4.90930E-09  4.87869E-09  4.84750E-09  4.81572E-09  4.78334E-09
   4.75034E-09  4.71673E-09  4.68248E-09  4.64760E-09  4.61205E-09  4.57585E-09  4.53897E-09  4.50143E-09  4.46318E-09  4.42420E-09
   4.38455E-09  4.34415E-09  4.30301E-09  4.26112E-09  4.21848E-09  4.17507E-09  4.13089E-09  4.08592E-09  4.04015E-09  3.99359E-09
   3.94618E-09  3.89797E-09  3.84890E-09  3.79899E-09  3.74823E-09  3.69659E-09  3.64405E-09  3.59066E-09  3.53636E-09  3.48114E-09
   3.42502E-09  3.36795E-09  3.30996E-09  3.25103E-09  3.19114E-09  3.13026E-09  3.06846E-09  3.00565E-09  2.94186E-09  2.87706E-09
   2.81126E-09  2.74446E-09  2.67664E-09  2.60777E-09  2.53788E-09  2.46696E-09  2.39500E-09  2.32205E-09  2.24818E-09  2.17342E-09
   2.09784E-09  2.02148E-09  1.94441E-09  1.86667E-09  1.78833E-09  1.70945E-09  1.63010E-09  1.55033E-09  1.47023E-09  1.38989E-09
   1.30939E-09  1.22889E-09  1.14855E-09  1.06868E-09  9.89867E-10  9.13567E-10  8.45837E-10  7.99359E-10  7.60917E-10  7.38152E-10
   7.38821E-10  7.45227E-10  7.21420E-10  6.53154E-10  5.55598E-10  4.39773E-10  2.91507E-10  9.37839E-11 -1.06273E-10 -2.13180E-10
  -3.00160E-10 -3.81020E-10 -4.58954E-10 -5.34970E-10 -6.09500E-10 -6.82723E-10 -7.54705E-10 -8.25447E-10 -8.94993E-10 -9.63300E-10
  -1.03032E-09 -1.09605E-09 -1.16044E-09 -1.22346E-09 -1.28504E-09 -1.34516E-09 -1.40380E-09 -1.46086E-09 -1.51634E-09 -1.57020E-09
  -1.62238E-09 -1.67286E-09 -1.72157E-09 -1.76849E-09 -1.81360E-09 -1.85682E-09 -1.89813E-09 -1.93750E-09 -1.97491E-09 -2.01026E-09
  -2.04360E-09 -2.07483E-09 -2.10395E-09 -2.13091E-09 -2.15571E-09 -2.17827E-09 -2.19859E-09 -2.21665E-09 -2.23240E-09 -2.24590E-09
  -2.25717E-09 -2.26628E-09 -2.27328E-09 -2.27821E-09 -2.28112E-09 -2.28207E-09 -2.28112E-09 -2.27829E-09 -2.27366E-09 -2.26727E-09
  -2.25917E-09 -2.24942E-09 -2.23806E-09 -2.22514E-09 -2.21073E-09 -2.19486E-09 -2.17759E-09 -2.15896E-09 -2.13904E-09 -2.11786E-09
  -2.09548E-09 -2.07196E-09 -2.04734E-09 -2.02167E-09 -1.99499E-09 -1.96736E-09 -1.93883E-09 -1.90945E-09 -1.87926E-09 -1.84831E-09
  -1.81666E-09 -1.78433E-09 -1.75140E-09 -1.71789E-09 -1.68386E-09 -1.64936E-09 -1.61442E-09 -1.57909E-09 -1.54342E-09 -1.50745E-09
  -1.47122E-09 -1.43479E-09 -1.39818E-09 -1.36145E-09 -1.32462E-09 -1.28775E-09 -1.25088E-09 -1.21403E-09 -1.17726E-09 -1.14060E-09
  -1.10408E-09 -1.06775E-09 -1.03164E-09 -9.95783E-10 -9.60225E-10 -9.24985E-10 -8.90106E-10 -8.55623E-10 -8.21555E-10 -7.87943E-10
  -7.54820E-10 -7.22210E-10 -6.90146E-10 -6.58646E-10 -6.27748E-10 -5.97475E-10 -5.67855E-10 -5.38898E-10 -5.10647E-10 -4.83116E-10
  -4.56321E-10 -4.30281E-10 -4.04972E-10 -3.80383E-10 -3.56495E-10 -3.33300E-10 -3.10774E-10 -2.88910E-10 -2.67690E-10 -2.47100E-10
  -2.27127E-10 -2.07755E-10 -1.88975E-10 -1.70768E-10 -1.53120E-10 -1.36020E-10 -1.19458E-10 -1.03420E-10 -8.78882E-11 -7.28529E-11
  -5.83041E-11 -4.42256E-11 -3.06121E-11 -1.74438E-11 -4.71570E-12  7.58715E-12  1.94723E-11  3.09556E-11  4.20427E-11  5.27446E-11
   6.30710E-11  7.30389E-11  8.26466E-11  9.19082E-11  1.00835E-10  1.09437E-10  1.17712E-10  1.25678E-10  1.33338E-10  1.40706E-10
   1.47782E-10  1.54576E-10  1.61098E-10  1.67351E-10  1.73338E-10  1.79070E-10  1.84549E-10  1.89785E-10  1.94775E-10  1.99538E-10
   2.04061E-10  2.08361E-10  2.12432E-10  2.16284E-10  2.19924E-10  2.23342E-10  2.26551E-10  2.29546E-10  2.32337E-10  2.34918E-10
   2.37293E-10  2.39464E-10  2.41430E-10  2.43193E-10  2.44749E-10  2.46102E-10  2.47245E-10  2.48185E-10  2.48915E-10  2.49433E-10
   2.49740E-10  2.49831E-10  2.49701E-10
 Gln      Conc. = 2.48E-09
   3.23297E-09  3.44877E-09  3.78560E-09  4.30041E-09  5.00243E-09  5.80065E-09  6.56827E-09  7.20623E-09  7.64127E-09  7.95073E-09
   8.02199E-09  7.57873E-09  7.36902E-09  7.03650E-09  6.66931E-09  6.42021E-09  6.24253E-09  6.10862E-09  6.00340E-09  5.91806E-09
   5.84706E-09  5.78660E-09  5.73400E-09  5.68740E-09  5.64574E-09  5.60851E-09  5.57429E-09  5.54225E-09  5.51240E-09  5.48381E-09
   5.45602E-09  5.42869E-09  5.40154E-09  5.37436E-09  5.34690E-09  5.31900E-09  5.29040E-09  5.26095E-09  5.23048E-09  5.19873E-09
   5.16560E-09  5.13079E-09  5.09421E-09  5.05564E-09  5.01496E-09  4.97199E-09  4.92668E-09  4.87845E-09  4.82721E-09  4.77330E-09
   4.71585E-09  4.65529E-09  4.59469E-09  4.54056E-09  4.51865E-09  4.61154E-09  4.78412E-09  5.07043E-09  5.67861E-09  6.51950E-09
   7.38950E-09  8.33239E-09  9.36901E-09  1.02987E-08  1.08258E-08  1.08149E-08  1.04518E-08  1.01909E-08  9.54907E-09  8.37919E-09
   7.61169E-09  7.16898E-09  6.70671E-09  6.45885E-09  6.43294E-09  6.71389E-09  7.19783E-09  7.77984E-09  8.44838E-09  9.17085E-09
   9.87105E-09  1.04355E-08  1.05931E-08  1.05188E-08  1.04715E-08  1.00514E-08  9.32116E-09  8.88007E-09  8.37506E-09  7.84466E-09
   7.46120E-09  7.16761E-09  6.93239E-09  6.73763E-09  6.56921E-09  6.42060E-09  6.28839E-09  6.16874E-09  6.05892E-09  5.95753E-09
   5.86288E-09  5.77337E-09  5.68819E-09  5.60673E-09  5.52853E-09  5.45329E-09  5.38030E-09  5.30924E-09  5.23980E-09  5.17169E-09
   5.10478E-09  5.03880E-09  4.97362E-09  4.90908E-09  4.84505E-09  4.78141E-09  4.71808E-09  4.65494E-09  4.59190E-09  4.52892E-09
   4.46586E-09  4.40274E-09  4.33943E-09  4.27592E-09  4.21215E-09  4.14807E-09  4.08360E-09  4.01879E-09  3.95353E-09  3.88781E-09
   3.82160E-09  3.75485E-09  3.68758E-09  3.61973E-09  3.55128E-09  3.48218E-09  3.41250E-09  3.34213E-09  3.27111E-09  3.19937E-09
   3.12696E-09  3.05383E-09  2.98001E-09  2.90544E-09  2.83016E-09  2.75416E-09  2.67747E-09  2.60013E-09  2.52222E-09  2.44382E-09
   2.36501E-09  2.28590E-09  2.20656E-09  2.12715E-09  2.04780E-09  1.96867E-09  1.88999E-09  1.81202E-09  1.73510E-09  1.65971E-09
   1.58648E-09  1.51640E-09  1.45097E-09  1.39274E-09  1.34654E-09  1.32316E-09  1.35498E-09  1.59564E-09  2.05100E-09  2.64522E-09
   3.51021E-09  4.62696E-09  5.61856E-09  6.07593E-09  5.97931E-09  5.54800E-09  4.80110E-09  3.46896E-09  1.58799E-09  3.51922E-10
  -6.74816E-12 -1.91910E-10 -3.22033E-10 -4.28437E-10 -5.22532E-10 -6.09325E-10 -6.91289E-10 -7.69738E-10 -8.45486E-10 -9.18959E-10
  -9.90411E-10 -1.06005E-09 -1.12795E-09 -1.19418E-09 -1.25874E-09 -1.32166E-09 -1.38296E-09 -1.44257E-09 -1.50049E-09 -1.55671E-09
  -1.61120E-09 -1.66391E-09 -1.71482E-09 -1.76389E-09 -1.81110E-09 -1.85638E-09 -1.89974E-09 -1.94112E-09 -1.98050E-09 -2.01781E-09
  -2.05308E-09 -2.08622E-09 -2.11721E-09 -2.14604E-09 -2.17268E-09 -2.19706E-09 -2.21919E-09 -2.23904E-09 -2.25656E-09 -2.27180E-09
  -2.28480E-09 -2.29563E-09 -2.30432E-09 -2.31093E-09 -2.31551E-09 -2.31811E-09 -2.31878E-09 -2.31758E-09 -2.31455E-09 -2.30975E-09
