 LCModel (Version 6.3-1R) Copyright: S.W. Provencher.          Ref.: Magn. Reson. Med. 30:672-679 (1993).                
 onepulse 23x17_ftSpec_smooth_lcm
 26 lines in following concentration table = NCONC+1
    Conc.  %SD   /Cr    Metabolite                                         
 9.86E-11 186%   0.000 Ala                                                 
 5.28E-10  70%   0.000 Asp                                                 
    0.000 999%   0.000 Cr                                                  
 2.89E-09  13%   0.000 GABA                                                
 1.42E-09  21%   0.000 Glc                                                 
    0.000 999%   0.000 Gln                                                 
 4.16E-10  93%   0.000 Glu                                                 
    0.000 999%   0.000 Glyc                                                
    0.000 999%   0.000 GPC                                                 
    0.000 999%   0.000 GSH                                                 
 1.23E-10 169%   0.000 Ins                                                 
    0.000 999%   0.000 Lac                                                 
    0.000 999%   0.000 NAAG                                                
 1.03E-09  17%   0.000 NAA                                                 
 1.19E-10  44%   0.000 PCh                                                 
    0.000 999%   0.000 PCr                                                 
    0.000 999%   0.000 PE                                                  
    0.000 999%   0.000 Scyllo                                              
    0.000 999%   0.000 Ser                                                 
    0.000 999%   0.000 Tau                                                 
 1.19E-10  44%   0.000 GPC+PCh                                             
 1.03E-09  17%   0.000 NAA+NAAG                                            
 1.23E-10 169%   0.000 Ins+Glyc                                            
    0.000 999%   0.000 Cr+PCr                                              
 4.16E-10  93%   0.000 Glu+Gln                                             
   6 lines in following misc. output table
  FWHM = 0.067 ppm    S/N =   4                                            
  Data shift = 0.324 ppm                                                   
  Ph:  54 deg      30.5 deg/ppm                                            
  alphaB,S = 1.6E-01,   3.9E+01                                            
   16 spline knots.   Ns = 5(1)                                            
  ( 9) 2 infls.   ( 5) 1 extrs.                                            
  363 points on ppm-axis = NY
      4.250000     4.238821     4.227641     4.216462     4.205282     4.194103     4.182923     4.171744     4.160564     4.149385
      4.138206     4.127026     4.115847     4.104667     4.093488     4.082308     4.071129     4.059949     4.048770     4.037591
      4.026411     4.015232     4.004052     3.992873     3.981693     3.970514     3.959334     3.948155     3.936975     3.925796
      3.914617     3.903437     3.892258     3.881078     3.869899     3.858719     3.847540     3.836360     3.825181     3.814002
      3.802822     3.791643     3.780463     3.769284     3.758104     3.746925     3.735745     3.724566     3.713387     3.702207
      3.691028     3.679848     3.668669     3.657489     3.646310     3.635130     3.623951     3.612772     3.601592     3.590413
      3.579233     3.568054     3.556874     3.545695     3.534515     3.523336     3.512156     3.500977     3.489798     3.478618
      3.467439     3.456259     3.445080     3.433900     3.422721     3.411541     3.400362     3.389183     3.378003     3.366824
      3.355644     3.344465     3.333285     3.322106     3.310926     3.299747     3.288568     3.277388     3.266209     3.255029
      3.243850     3.232670     3.221491     3.210311     3.199132     3.187953     3.176773     3.165594     3.154414     3.143235
      3.132055     3.120876     3.109696     3.098517     3.087337     3.076158     3.064979     3.053799     3.042620     3.031440
      3.020261     3.009081     2.997902     2.986722     2.975543     2.964364     2.953184     2.942005     2.930825     2.919646
      2.908466     2.897287     2.886107     2.874928     2.863749     2.852569     2.841390     2.830210     2.819031     2.807851
      2.796672     2.785492     2.774313     2.763134     2.751954     2.740775     2.729595     2.718416     2.707236     2.696057
      2.684877     2.673698     2.662519     2.651339     2.640160     2.628980     2.617801     2.606621     2.595442     2.584262
      2.573083     2.561903     2.550724     2.539545     2.528365     2.517186     2.506006     2.494827     2.483647     2.472468
      2.461288     2.450109     2.438930     2.427750     2.416571     2.405391     2.394212     2.383032     2.371853     2.360673
      2.349494     2.338315     2.327135     2.315956     2.304776     2.293597     2.282417     2.271238     2.260058     2.248879
      2.237700     2.226520     2.215341     2.204161     2.192982     2.181802     2.170623     2.159443     2.148264     2.137084
      2.125905     2.114726     2.103546     2.092367     2.081187     2.070008     2.058828     2.047649     2.036469     2.025290
      2.014111     2.002931     1.991752     1.980572     1.969393     1.958213     1.947034     1.935854     1.924675     1.913496
      1.902316     1.891137     1.879957     1.868778     1.857598     1.846419     1.835239     1.824060     1.812881     1.801701
      1.790522     1.779342     1.768163     1.756983     1.745804     1.734624     1.723445     1.712265     1.701086     1.689907
      1.678727     1.667548     1.656368     1.645189     1.634009     1.622830     1.611650     1.600471     1.589292     1.578112
      1.566933     1.555753     1.544574     1.533394     1.522215     1.511035     1.499856     1.488677     1.477497     1.466318
      1.455138     1.443959     1.432779     1.421600     1.410420     1.399241     1.388062     1.376882     1.365703     1.354523
      1.343344     1.332164     1.320985     1.309805     1.298626     1.287446     1.276267     1.265088     1.253908     1.242729
      1.231549     1.220370     1.209190     1.198011     1.186831     1.175652     1.164473     1.153293     1.142114     1.130934
      1.119755     1.108575     1.097396     1.086216     1.075037     1.063858     1.052678     1.041499     1.030319     1.019140
      1.007960     0.996781     0.985601     0.974422     0.963243     0.952063     0.940884     0.929704     0.918525     0.907345
      0.896166     0.884986     0.873807     0.862628     0.851448     0.840269     0.829089     0.817910     0.806730     0.795551
      0.784371     0.773192     0.762012     0.750833     0.739654     0.728474     0.717295     0.706115     0.694936     0.683756
      0.672577     0.661397     0.650218     0.639039     0.627859     0.616680     0.605500     0.594321     0.583141     0.571962
      0.560782     0.549603     0.538424     0.527244     0.516065     0.504885     0.493706     0.482526     0.471347     0.460167
      0.448988     0.437809     0.426629     0.415450     0.404270     0.393091     0.381911     0.370732     0.359552     0.348373
      0.337193     0.326014     0.314835     0.303655     0.292476     0.281296     0.270117     0.258937     0.247758     0.236578
      0.225399     0.214220     0.203040
 NY phased data points follow
   2.65996E-09  3.74293E-09  6.83224E-09  8.46557E-09  9.71353E-09  8.78633E-09  7.72902E-09  7.06793E-09  6.15645E-09  5.20151E-09
   5.46959E-09  4.67345E-09  5.14802E-09  4.58721E-09  5.75072E-09  6.26155E-09  5.92892E-09  7.07814E-09  7.05966E-09  6.34505E-09
   7.15500E-09  6.51033E-09  7.44121E-09  6.67264E-09  5.46318E-09  5.92335E-09  7.03720E-09  7.40816E-09  8.32745E-09  7.59317E-09
   7.35408E-09  6.70605E-09  7.13143E-09  7.70887E-09  1.03094E-08  1.06958E-08  1.09000E-08  9.31167E-09  9.38800E-09  7.43992E-09
   6.83663E-09  6.25499E-09  6.63056E-09  5.37514E-09  5.29152E-09  5.57340E-09  5.11333E-09  3.80539E-09  5.44479E-09  4.26571E-09
   3.82854E-09  3.41171E-09  4.18492E-09  3.96932E-09  5.08153E-09  4.32024E-09  4.28279E-09  3.00012E-09  3.47904E-09  3.84712E-09
   3.36471E-09  2.95485E-09  4.58414E-09  5.26311E-09  7.29814E-09  9.68736E-09  1.37387E-08  1.27119E-08  1.11212E-08  8.75038E-09
   7.49038E-09  6.37049E-09  6.10948E-09  5.06931E-09  4.47089E-09  3.69964E-09  3.88316E-09  3.43871E-09  3.60658E-09  4.35239E-09
   5.98056E-09  8.77643E-09  1.18953E-08  1.35723E-08  1.33170E-08  1.08703E-08  9.72149E-09  8.16962E-09  8.79175E-09  7.52030E-09
   7.06223E-09  6.69382E-09  6.11580E-09  5.77965E-09  5.44859E-09  4.74738E-09  5.06457E-09  4.15028E-09  4.44902E-09  3.42280E-09
   4.00120E-09  3.32857E-09  3.85992E-09  4.08567E-09  3.48548E-09  4.55758E-09  3.62192E-09  3.30023E-09  4.09123E-09  3.45709E-09
   3.73006E-09  2.50644E-09  2.38392E-09  2.44727E-09  2.68345E-09  2.80870E-09  3.73952E-09  3.45591E-09  3.65826E-09  3.73599E-09
   3.93757E-09  4.40730E-09  4.30674E-09  3.40625E-09  3.64060E-09  3.27687E-09  1.93611E-09  2.38100E-09  1.60846E-09  1.95608E-09
   2.82962E-09  3.58077E-09  2.70331E-09  2.41399E-09  2.94108E-09  2.90623E-09  2.33301E-09  2.27063E-09  2.33427E-09  2.14402E-09
   2.20838E-09  2.87820E-09  3.61789E-09  4.12755E-09  4.28452E-09  3.67251E-09  3.56893E-09  3.87803E-09  4.83066E-09  4.32125E-09
   4.95268E-09  4.35239E-09  3.94845E-09  4.25905E-09  4.35492E-09  3.52503E-09  4.34940E-09  3.79079E-09  4.41924E-09  4.60059E-09
   4.60801E-09  4.95204E-09  5.11776E-09  5.10870E-09  5.17745E-09  4.48534E-09  5.22676E-09  6.02147E-09  6.61558E-09  7.86603E-09
   9.87823E-09  1.15902E-08  1.37028E-08  1.62328E-08  1.57581E-08  1.27516E-08  9.36154E-09  6.57219E-09  5.44037E-09  3.82179E-09
   4.06389E-09  2.75480E-09  2.39713E-09  1.08857E-09  1.57710E-09  7.69582E-10 -6.87304E-11 -2.46046E-10 -1.07356E-09 -1.02806E-09
  -1.64467E-09 -2.49878E-09 -3.09607E-09 -3.40131E-09 -4.78447E-09 -5.04796E-09 -6.38822E-09 -7.05088E-09 -8.27610E-09 -8.50932E-09
  -1.02108E-08 -1.03517E-08 -1.05255E-08 -1.11490E-08 -1.12740E-08 -1.14233E-08 -1.09766E-08 -1.11007E-08 -1.01126E-08 -1.03264E-08
  -9.17289E-09 -7.63202E-09 -7.18534E-09 -4.99838E-09 -5.34189E-09 -3.68341E-09 -2.54192E-09 -1.72123E-09 -2.03394E-09 -9.66765E-10
  -1.79511E-09 -7.94409E-10 -1.92866E-09 -1.73008E-09 -1.65060E-09 -2.84548E-09 -2.17920E-09 -1.30698E-09 -1.70996E-09 -1.43441E-09
  -1.43612E-09 -1.76902E-09 -1.39924E-09 -1.99040E-09 -1.52567E-09 -2.23056E-09 -1.88606E-09 -2.27405E-09 -1.68298E-09 -1.23773E-09
  -1.35467E-09 -1.56891E-09 -1.28729E-09 -1.40679E-09 -1.34674E-09 -1.47348E-09 -1.67102E-09 -2.15199E-09 -1.85532E-09 -1.59085E-09
  -1.70891E-09 -1.01330E-09 -1.29926E-09 -8.16483E-10 -1.06071E-09 -9.75192E-10 -1.00306E-09 -7.62124E-10 -1.17583E-09 -1.73557E-09
  -1.66777E-09 -2.03775E-09 -1.39597E-09 -2.44819E-09 -2.19576E-09 -1.87741E-09 -1.14959E-09 -1.52581E-09 -7.85021E-10 -9.55476E-10
  -2.40447E-10 -8.75370E-11 -6.43452E-10 -5.06227E-10 -7.57063E-10 -5.74015E-10 -1.45629E-10 -1.48242E-09 -9.28526E-10 -1.17782E-09
  -1.55165E-09 -1.45800E-09 -1.92973E-09 -1.57178E-09 -1.57827E-09 -1.68074E-09 -1.28372E-09 -1.65835E-09 -9.12839E-10 -1.25726E-09
  -9.54151E-10 -6.54320E-10 -1.29341E-09 -1.34247E-09 -1.01632E-09 -8.48858E-10 -9.06317E-10 -8.63732E-10 -9.38789E-10 -1.67651E-09
  -1.37279E-09 -7.57096E-10 -1.07834E-09 -1.24563E-09 -8.34369E-10 -1.03339E-09 -9.36438E-10 -1.23587E-09 -1.19248E-09 -5.11406E-10
  -9.50990E-10 -1.25932E-09 -1.06794E-09 -7.30674E-10 -6.60264E-10 -7.63413E-10 -2.37182E-10 -1.40366E-09 -1.69777E-10 -1.33423E-09
  -9.85532E-11 -7.92026E-10 -9.29731E-10 -2.05945E-10 -7.73844E-10 -3.34293E-10 -4.09268E-10 -9.21170E-10 -5.64862E-10 -9.94232E-10
  -3.15800E-10 -1.21695E-10 -1.21669E-09 -9.20734E-10 -4.99007E-10 -1.03422E-09 -6.09300E-10 -7.20380E-10 -8.28559E-10 -5.15672E-10
  -3.05355E-10 -4.75497E-10 -5.04509E-10 -3.28799E-10 -8.49288E-10 -2.50832E-10 -1.89731E-10 -1.04064E-09 -2.43929E-10 -1.04473E-09
  -4.87174E-10 -3.79845E-10 -5.35823E-10 -1.07746E-10 -3.53571E-10 -2.98008E-11  1.19378E-10 -3.71267E-10 -3.69764E-10 -1.91182E-10
   2.46879E-10 -9.55944E-10  1.22761E-10
 NY points of the fit to the data follow
   5.59583E-09  6.07552E-09  6.56803E-09  7.00140E-09  7.27572E-09  7.28885E-09  7.01508E-09  6.53423E-09  6.07233E-09  5.58530E-09
   5.26563E-09  5.13688E-09  5.14045E-09  5.22542E-09  5.47689E-09  5.81098E-09  6.16500E-09  6.58655E-09  7.04179E-09  7.44027E-09
   7.76045E-09  7.79125E-09  7.43221E-09  6.92368E-09  6.40014E-09  5.97047E-09  5.85692E-09  6.23342E-09  6.89090E-09  7.58986E-09
   7.92912E-09  8.10076E-09  8.35665E-09  8.49595E-09  8.58132E-09  8.91872E-09  9.26455E-09  9.42571E-09  9.23336E-09  8.60709E-09
   7.83660E-09  7.14284E-09  6.09474E-09  5.14575E-09  4.67680E-09  4.19587E-09  3.76473E-09  3.67516E-09  3.77777E-09  3.92188E-09
   4.03218E-09  4.04594E-09  3.99600E-09  3.91313E-09  3.87920E-09  3.93912E-09  4.03020E-09  4.14074E-09  4.18418E-09  4.18212E-09
   4.33263E-09  4.82187E-09  5.47443E-09  6.21980E-09  7.33733E-09  8.35992E-09  9.13432E-09  9.76881E-09  1.01220E-08  1.00948E-08
   9.70362E-09  8.80559E-09  7.53360E-09  6.50229E-09  5.56077E-09  4.59633E-09  4.42310E-09  4.95137E-09  5.53774E-09  6.48665E-09
   7.70087E-09  9.10011E-09  1.07025E-08  1.18900E-08  1.20595E-08  1.13584E-08  1.01225E-08  8.67839E-09  7.33362E-09  6.87275E-09
   6.68896E-09  6.64855E-09  6.46753E-09  5.95020E-09  5.58058E-09  5.25731E-09  4.70238E-09  4.28987E-09  4.03378E-09  3.77702E-09
   3.61247E-09  3.51702E-09  3.47577E-09  3.49161E-09  3.53118E-09  3.57840E-09  3.61167E-09  3.61857E-09  3.60636E-09  3.57756E-09
   3.51902E-09  3.44361E-09  3.39820E-09  3.34118E-09  3.28543E-09  3.27553E-09  3.28017E-09  3.29064E-09  3.30391E-09  3.31859E-09
   3.33388E-09  3.34929E-09  3.36442E-09  3.37897E-09  3.39272E-09  3.40548E-09  3.41706E-09  3.42732E-09  3.43614E-09  3.44338E-09
   3.44892E-09  3.45267E-09  3.45450E-09  3.45432E-09  3.45202E-09  3.44752E-09  3.44071E-09  3.43152E-09  3.41987E-09  3.40568E-09
   3.38886E-09  3.36932E-09  3.34693E-09  3.32160E-09  3.29324E-09  3.26177E-09  3.22709E-09  3.18915E-09  3.14786E-09  3.10319E-09
   3.05512E-09  3.00366E-09  2.94883E-09  2.89075E-09  2.82954E-09  2.76545E-09  2.69886E-09  2.63032E-09  2.56068E-09  2.49126E-09
   2.42413E-09  2.36277E-09  2.31330E-09  2.28776E-09  2.31386E-09  2.47574E-09  3.15224E-09  4.56407E-09  6.26145E-09  8.18469E-09
   1.04848E-08  1.30806E-08  1.54364E-08  1.65516E-08  1.56476E-08  1.29020E-08  9.14953E-09  5.11739E-09  1.89742E-09  3.74884E-10
  -2.57160E-10 -6.50703E-10 -9.52792E-10 -1.20932E-09 -1.43912E-09 -1.65123E-09 -1.85033E-09 -2.03898E-09 -2.21859E-09 -2.38989E-09
  -2.55322E-09 -2.70865E-09 -2.85607E-09 -2.99526E-09 -3.12592E-09 -3.24772E-09 -3.36039E-09 -3.46415E-09 -3.55927E-09 -3.64602E-09
  -3.72463E-09 -3.79536E-09 -3.85842E-09 -3.91404E-09 -3.96245E-09 -4.00384E-09 -4.03843E-09 -4.06644E-09 -4.08805E-09 -4.10348E-09
  -4.11293E-09 -4.11660E-09 -4.11467E-09 -4.10737E-09 -4.09487E-09 -4.07738E-09 -4.05509E-09 -4.02820E-09 -3.99691E-09 -3.96140E-09
  -3.92187E-09 -3.87851E-09 -3.83152E-09 -3.78110E-09 -3.72744E-09 -3.67077E-09 -3.61130E-09 -3.54925E-09 -3.48486E-09 -3.41834E-09
  -3.34991E-09 -3.27979E-09 -3.20821E-09 -3.13539E-09 -3.06153E-09 -2.98688E-09 -2.91165E-09 -2.83607E-09 -2.76033E-09 -2.68468E-09
  -2.60935E-09 -2.53452E-09 -2.46045E-09 -2.38735E-09 -2.31543E-09 -2.24491E-09 -2.17603E-09 -2.10899E-09 -2.04402E-09 -1.98135E-09
  -1.92118E-09 -1.86375E-09 -1.80914E-09 -1.75727E-09 -1.70806E-09 -1.66143E-09 -1.61727E-09 -1.57551E-09 -1.53606E-09 -1.49883E-09
  -1.46374E-09 -1.43069E-09 -1.39960E-09 -1.37037E-09 -1.34293E-09 -1.31719E-09 -1.29304E-09 -1.27042E-09 -1.24924E-09 -1.22939E-09
  -1.21080E-09 -1.19338E-09 -1.17704E-09 -1.16169E-09 -1.14725E-09 -1.13362E-09 -1.12073E-09 -1.10847E-09 -1.09678E-09 -1.08555E-09
  -1.07473E-09 -1.06431E-09 -1.05426E-09 -1.04456E-09 -1.03520E-09 -1.02613E-09 -1.01736E-09 -1.00886E-09 -1.00059E-09 -9.92557E-10
  -9.84721E-10 -9.77066E-10 -9.69571E-10 -9.62214E-10 -9.54976E-10 -9.47832E-10 -9.40765E-10 -9.33749E-10 -9.26771E-10 -9.19796E-10
  -9.12818E-10 -9.05805E-10 -8.98738E-10 -8.91603E-10 -8.84371E-10 -8.77022E-10 -8.69537E-10 -8.61891E-10 -8.54083E-10 -8.46114E-10
  -8.37985E-10 -8.29699E-10 -8.21260E-10 -8.12665E-10 -8.03921E-10 -7.95028E-10 -7.85988E-10 -7.76803E-10 -7.67479E-10 -7.58011E-10
  -7.48409E-10 -7.38668E-10 -7.28792E-10 -7.18790E-10 -7.08654E-10 -6.98394E-10 -6.88009E-10 -6.77498E-10 -6.66869E-10 -6.56124E-10
  -6.45258E-10 -6.34280E-10 -6.23189E-10 -6.11989E-10 -6.00683E-10 -5.89268E-10 -5.77752E-10 -5.66138E-10 -5.54426E-10 -5.42622E-10
  -5.30728E-10 -5.18746E-10 -5.06681E-10 -4.94534E-10 -4.82313E-10 -4.70013E-10 -4.57646E-10 -4.45210E-10 -4.32710E-10 -4.20147E-10
  -4.07524E-10 -3.94849E-10 -3.82120E-10 -3.69342E-10 -3.56518E-10 -3.43653E-10 -3.30747E-10 -3.17803E-10 -3.04827E-10 -2.91822E-10
  -2.78789E-10 -2.65735E-10 -2.52655E-10
 NY background values follow
     4.912E-10    5.012E-10    5.113E-10    5.212E-10    5.311E-10    5.410E-10    5.508E-10    5.604E-10    5.700E-10    5.795E-10
     5.889E-10    5.982E-10    6.073E-10    6.163E-10    6.251E-10    6.338E-10    6.423E-10    6.506E-10    6.588E-10    6.668E-10
     6.745E-10    6.821E-10    6.894E-10    6.965E-10    7.034E-10    7.100E-10    7.164E-10    7.225E-10    7.283E-10    7.339E-10
     7.392E-10    7.443E-10    7.492E-10    7.539E-10    7.585E-10    7.630E-10    7.674E-10    7.717E-10    7.761E-10    7.804E-10
     7.847E-10    7.892E-10    7.937E-10    7.983E-10    8.030E-10    8.079E-10    8.131E-10    8.184E-10    8.240E-10    8.299E-10
     8.361E-10    8.426E-10    8.495E-10    8.568E-10    8.645E-10    8.726E-10    8.813E-10    8.904E-10    9.000E-10    9.102E-10
     9.209E-10    9.322E-10    9.441E-10    9.566E-10    9.698E-10    9.835E-10    9.980E-10    1.013E-09    1.029E-09    1.045E-09
     1.063E-09    1.081E-09    1.099E-09    1.119E-09    1.139E-09    1.160E-09    1.182E-09    1.205E-09    1.229E-09    1.253E-09
     1.279E-09    1.305E-09    1.333E-09    1.361E-09    1.390E-09    1.421E-09    1.452E-09    1.484E-09    1.517E-09    1.550E-09
     1.584E-09    1.619E-09    1.654E-09    1.690E-09    1.726E-09    1.763E-09    1.800E-09    1.837E-09    1.874E-09    1.912E-09
     1.950E-09    1.987E-09    2.025E-09    2.062E-09    2.099E-09    2.137E-09    2.173E-09    2.210E-09    2.246E-09    2.282E-09
     2.317E-09    2.351E-09    2.385E-09    2.418E-09    2.451E-09    2.482E-09    2.513E-09    2.542E-09    2.571E-09    2.598E-09
     2.624E-09    2.649E-09    2.672E-09    2.694E-09    2.714E-09    2.732E-09    2.749E-09    2.764E-09    2.776E-09    2.787E-09
     2.796E-09    2.802E-09    2.807E-09    2.809E-09    2.808E-09    2.805E-09    2.799E-09    2.791E-09    2.780E-09    2.766E-09
     2.749E-09    2.730E-09    2.707E-09    2.680E-09    2.651E-09    2.618E-09    2.581E-09    2.540E-09    2.496E-09    2.447E-09
     2.395E-09    2.338E-09    2.276E-09    2.211E-09    2.140E-09    2.065E-09    1.985E-09    1.900E-09    1.810E-09    1.715E-09
     1.614E-09    1.508E-09    1.396E-09    1.279E-09    1.156E-09    1.026E-09    8.911E-10    7.496E-10    6.018E-10    4.481E-10
     2.892E-10    1.255E-10   -4.245E-11   -2.141E-10   -3.889E-10   -5.663E-10   -7.458E-10   -9.269E-10   -1.109E-09   -1.292E-09
    -1.474E-09   -1.656E-09   -1.837E-09   -2.016E-09   -2.193E-09   -2.367E-09   -2.538E-09   -2.705E-09   -2.868E-09   -3.025E-09
    -3.178E-09   -3.324E-09   -3.464E-09   -3.597E-09   -3.723E-09   -3.840E-09   -3.949E-09   -4.049E-09   -4.141E-09   -4.225E-09
    -4.302E-09   -4.370E-09   -4.431E-09   -4.485E-09   -4.532E-09   -4.572E-09   -4.606E-09   -4.633E-09   -4.653E-09   -4.668E-09
    -4.677E-09   -4.679E-09   -4.677E-09   -4.669E-09   -4.656E-09   -4.638E-09   -4.615E-09   -4.588E-09   -4.556E-09   -4.520E-09
    -4.480E-09   -4.436E-09   -4.389E-09   -4.338E-09   -4.284E-09   -4.227E-09   -4.168E-09   -4.105E-09   -4.041E-09   -3.974E-09
    -3.905E-09   -3.835E-09   -3.763E-09   -3.690E-09   -3.616E-09   -3.541E-09   -3.466E-09   -3.390E-09   -3.314E-09   -3.238E-09
    -3.163E-09   -3.088E-09   -3.014E-09   -2.940E-09   -2.868E-09   -2.798E-09   -2.729E-09   -2.661E-09   -2.596E-09   -2.534E-09
    -2.473E-09   -2.416E-09   -2.361E-09   -2.309E-09   -2.260E-09   -2.213E-09   -2.169E-09   -2.127E-09   -2.087E-09   -2.050E-09
    -2.015E-09   -1.981E-09   -1.950E-09   -1.921E-09   -1.893E-09   -1.868E-09   -1.843E-09   -1.821E-09   -1.799E-09   -1.779E-09
    -1.761E-09   -1.743E-09   -1.727E-09   -1.711E-09   -1.697E-09   -1.683E-09   -1.670E-09   -1.657E-09   -1.646E-09   -1.634E-09
    -1.623E-09   -1.613E-09   -1.603E-09   -1.593E-09   -1.583E-09   -1.574E-09   -1.565E-09   -1.557E-09   -1.548E-09   -1.540E-09
    -1.532E-09   -1.524E-09   -1.517E-09   -1.509E-09   -1.502E-09   -1.495E-09   -1.487E-09   -1.480E-09   -1.473E-09   -1.466E-09
    -1.459E-09   -1.452E-09   -1.445E-09   -1.437E-09   -1.430E-09   -1.423E-09   -1.415E-09   -1.407E-09   -1.399E-09   -1.391E-09
    -1.383E-09   -1.374E-09   -1.366E-09   -1.357E-09   -1.348E-09   -1.339E-09   -1.330E-09   -1.321E-09   -1.311E-09   -1.301E-09
    -1.292E-09   -1.282E-09   -1.272E-09   -1.262E-09   -1.251E-09   -1.241E-09   -1.230E-09   -1.220E-09   -1.209E-09   -1.198E-09
    -1.187E-09   -1.176E-09   -1.164E-09   -1.153E-09   -1.142E-09   -1.130E-09   -1.118E-09   -1.106E-09   -1.095E-09   -1.083E-09
    -1.070E-09   -1.058E-09   -1.046E-09   -1.034E-09   -1.021E-09   -1.009E-09   -9.962E-10   -9.836E-10   -9.709E-10   -9.581E-10
    -9.453E-10   -9.324E-10   -9.194E-10   -9.064E-10   -8.934E-10   -8.803E-10   -8.672E-10   -8.540E-10   -8.408E-10   -8.276E-10
    -8.143E-10   -8.010E-10   -7.877E-10
 Ala      Conc. = 9.86E-11
   5.60634E-10  5.78418E-10  5.95253E-10  6.09548E-10  6.20055E-10  6.29539E-10  6.37140E-10  6.37690E-10  6.38299E-10  6.42197E-10
   6.39746E-10  6.37951E-10  6.41483E-10  6.43829E-10  6.46837E-10  6.52038E-10  6.58264E-10  6.64992E-10  6.71959E-10  6.79017E-10
   6.86071E-10  6.93058E-10  6.99933E-10  7.06662E-10  7.13217E-10  7.19577E-10  7.25722E-10  7.31636E-10  7.37304E-10  7.42722E-10
   7.47912E-10  7.52896E-10  7.57701E-10  7.62354E-10  7.66880E-10  7.71305E-10  7.75658E-10  7.79964E-10  7.84251E-10  7.88545E-10
   7.92875E-10  7.97267E-10  8.01750E-10  8.06350E-10  8.11097E-10  8.16014E-10  8.21134E-10  8.26482E-10  8.32085E-10  8.37973E-10
   8.44173E-10  8.50712E-10  8.57618E-10  8.64920E-10  8.72650E-10  8.80825E-10  8.89478E-10  8.98638E-10  9.08318E-10  9.18538E-10
   9.29315E-10  9.40667E-10  9.52613E-10  9.65168E-10  9.78353E-10  9.92185E-10  1.00668E-09  1.02186E-09  1.03774E-09  1.05434E-09
   1.07167E-09  1.08977E-09  1.10863E-09  1.12829E-09  1.14876E-09  1.17007E-09  1.19222E-09  1.21525E-09  1.23916E-09  1.26399E-09
   1.28974E-09  1.31645E-09  1.34413E-09  1.37282E-09  1.40252E-09  1.43324E-09  1.46493E-09  1.49755E-09  1.53105E-09  1.56541E-09
   1.60059E-09  1.63660E-09  1.67344E-09  1.71114E-09  1.74982E-09  1.78966E-09  1.83105E-09  1.87481E-09  1.92295E-09  1.98206E-09
   2.06207E-09  2.13717E-09  2.22160E-09  2.33402E-09  2.45015E-09  2.55938E-09  2.64351E-09  2.69268E-09  2.71617E-09  2.71791E-09
   2.68604E-09  2.63399E-09  2.60899E-09  2.56984E-09  2.52977E-09  2.53365E-09  2.55062E-09  2.57217E-09  2.59541E-09  2.61904E-09
   2.64240E-09  2.66505E-09  2.68672E-09  2.70718E-09  2.72628E-09  2.74388E-09  2.75984E-09  2.77405E-09  2.78643E-09  2.79685E-09
   2.80523E-09  2.81148E-09  2.81550E-09  2.81722E-09  2.81653E-09  2.81336E-09  2.80761E-09  2.79922E-09  2.78808E-09  2.77412E-09
   2.75724E-09  2.73735E-09  2.71431E-09  2.68801E-09  2.65831E-09  2.62511E-09  2.58827E-09  2.54768E-09  2.50321E-09  2.45474E-09
   2.40215E-09  2.34531E-09  2.28412E-09  2.21845E-09  2.14817E-09  2.07318E-09  1.99336E-09  1.90859E-09  1.81877E-09  1.72379E-09
   1.62355E-09  1.51799E-09  1.40708E-09  1.29082E-09  1.16949E-09  1.04398E-09  9.18737E-10  8.04042E-10  6.83754E-10  5.61297E-10
   4.40157E-10  3.19936E-10  1.93634E-10  4.42480E-11 -1.42393E-10 -3.62072E-10 -5.97836E-10 -8.38963E-10 -1.07289E-09 -1.26989E-09
  -1.45796E-09 -1.64274E-09 -1.82525E-09 -2.00550E-09 -2.18319E-09 -2.35794E-09 -2.52927E-09 -2.69669E-09 -2.85968E-09 -3.01773E-09
  -3.17032E-09 -3.31693E-09 -3.45702E-09 -3.59004E-09 -3.71548E-09 -3.83281E-09 -3.94163E-09 -4.04205E-09 -4.13425E-09 -4.21844E-09
  -4.29479E-09 -4.36351E-09 -4.42479E-09 -4.47882E-09 -4.52579E-09 -4.56589E-09 -4.59932E-09 -4.62626E-09 -4.64691E-09 -4.66146E-09
  -4.67011E-09 -4.67303E-09 -4.67042E-09 -4.66249E-09 -4.64941E-09 -4.63138E-09 -4.60859E-09 -4.58124E-09 -4.54950E-09 -4.51359E-09
  -4.47368E-09 -4.42996E-09 -4.38264E-09 -4.33189E-09 -4.27794E-09 -4.22098E-09 -4.16124E-09 -4.09894E-09 -4.03430E-09 -3.96755E-09
  -3.89890E-09 -3.82857E-09 -3.75679E-09 -3.68377E-09 -3.60973E-09 -3.53490E-09 -3.45950E-09 -3.38375E-09 -3.30784E-09 -3.23205E-09
  -3.15656E-09 -3.08158E-09 -3.00737E-09 -2.93413E-09 -2.86207E-09 -2.79142E-09 -2.72240E-09 -2.65523E-09 -2.59014E-09 -2.52735E-09
  -2.46705E-09 -2.40951E-09 -2.35478E-09 -2.30279E-09 -2.25346E-09 -2.20672E-09 -2.16245E-09 -2.12058E-09 -2.08102E-09 -2.04368E-09
  -2.00847E-09 -1.97531E-09 -1.94411E-09 -1.91478E-09 -1.88723E-09 -1.86138E-09 -1.83712E-09 -1.81439E-09 -1.79310E-09 -1.77315E-09
  -1.75445E-09 -1.73692E-09 -1.72047E-09 -1.70501E-09 -1.69047E-09 -1.67672E-09 -1.66372E-09 -1.65136E-09 -1.63955E-09 -1.62821E-09
  -1.61728E-09 -1.60675E-09 -1.59659E-09 -1.58677E-09 -1.57729E-09 -1.56811E-09 -1.55922E-09 -1.55060E-09 -1.54222E-09 -1.53406E-09
  -1.52611E-09 -1.51833E-09 -1.51071E-09 -1.50323E-09 -1.49587E-09 -1.48860E-09 -1.48141E-09 -1.47427E-09 -1.46716E-09 -1.46006E-09
  -1.45295E-09 -1.44581E-09 -1.43861E-09 -1.43134E-09 -1.42397E-09 -1.41649E-09 -1.40886E-09 -1.40108E-09 -1.39313E-09 -1.38502E-09
  -1.37675E-09 -1.36832E-09 -1.35974E-09 -1.35099E-09 -1.34210E-09 -1.33306E-09 -1.32387E-09 -1.31453E-09 -1.30505E-09 -1.29543E-09
  -1.28567E-09 -1.27577E-09 -1.26574E-09 -1.25558E-09 -1.24528E-09 -1.23485E-09 -1.22430E-09 -1.21363E-09 -1.20283E-09 -1.19191E-09
  -1.18087E-09 -1.16972E-09 -1.15846E-09 -1.14708E-09 -1.13559E-09 -1.12400E-09 -1.11230E-09 -1.10050E-09 -1.08861E-09 -1.07661E-09
  -1.06453E-09 -1.05236E-09 -1.04010E-09 -1.02776E-09 -1.01534E-09 -1.00284E-09 -9.90277E-10 -9.77640E-10 -9.64936E-10 -9.52167E-10
  -9.39337E-10 -9.26452E-10 -9.13511E-10 -9.00520E-10 -8.87481E-10 -8.74398E-10 -8.61272E-10 -8.48107E-10 -8.34906E-10 -8.21675E-10
  -8.08415E-10 -7.95130E-10 -7.81818E-10
 Asp      Conc. = 5.28E-10
   1.14066E-09  1.08343E-09  1.02107E-09  9.41973E-10  8.64060E-10  7.78768E-10  7.16353E-10  6.68157E-10  6.51000E-10  6.45794E-10
   6.46476E-10  6.50475E-10  6.56455E-10  6.63674E-10  6.71313E-10  6.79141E-10  6.87182E-10  6.95383E-10  7.03689E-10  7.12062E-10
   7.20472E-10  7.28905E-10  7.37352E-10  7.45814E-10  7.54305E-10  7.62845E-10  7.71471E-10  7.80232E-10  7.89205E-10  7.98502E-10
   8.08310E-10  8.18888E-10  8.30617E-10  8.44100E-10  8.60393E-10  8.81698E-10  9.13273E-10  9.47959E-10  9.93155E-10  1.03691E-09
   1.08084E-09  1.12429E-09  1.16575E-09  1.20902E-09  1.24551E-09  1.30422E-09  1.35935E-09  1.43994E-09  1.58435E-09  1.73388E-09
   1.85250E-09  1.88676E-09  1.82605E-09  1.70208E-09  1.56732E-09  1.46155E-09  1.36064E-09  1.32235E-09  1.26832E-09  1.19259E-09
   1.16380E-09  1.16743E-09  1.17019E-09  1.17290E-09  1.17322E-09  1.15970E-09  1.13249E-09  1.12287E-09  1.12268E-09  1.12787E-09
   1.13662E-09  1.14802E-09  1.16150E-09  1.17674E-09  1.19351E-09  1.21167E-09  1.23111E-09  1.25177E-09  1.27359E-09  1.29655E-09
   1.32061E-09  1.34577E-09  1.37200E-09  1.39933E-09  1.42773E-09  1.45719E-09  1.48762E-09  1.51897E-09  1.55116E-09  1.58413E-09
   1.61781E-09  1.65214E-09  1.68705E-09  1.72249E-09  1.75839E-09  1.79469E-09  1.83133E-09  1.86824E-09  1.90536E-09  1.94265E-09
   1.98002E-09  2.01743E-09  2.05482E-09  2.09211E-09  2.12926E-09  2.16621E-09  2.20289E-09  2.23925E-09  2.27522E-09  2.31075E-09
   2.34578E-09  2.38024E-09  2.41408E-09  2.44723E-09  2.47960E-09  2.51111E-09  2.54168E-09  2.57123E-09  2.59967E-09  2.62692E-09
   2.65289E-09  2.67752E-09  2.70071E-09  2.72238E-09  2.74245E-09  2.76084E-09  2.77747E-09  2.79225E-09  2.80510E-09  2.81595E-09
   2.82470E-09  2.83128E-09  2.83560E-09  2.83759E-09  2.83715E-09  2.83422E-09  2.82871E-09  2.82053E-09  2.80962E-09  2.79587E-09
   2.77921E-09  2.75954E-09  2.73674E-09  2.71067E-09  2.68123E-09  2.64830E-09  2.61175E-09  2.57146E-09  2.52733E-09  2.47924E-09
   2.42706E-09  2.37070E-09  2.31003E-09  2.24496E-09  2.17538E-09  2.10120E-09  2.02233E-09  1.93871E-09  1.85027E-09  1.75701E-09
   1.65896E-09  1.55624E-09  1.44919E-09  1.33844E-09  1.22563E-09  1.11523E-09  1.02532E-09  1.02292E-09  1.02207E-09  1.03201E-09
   1.07061E-09  1.13672E-09  1.19703E-09  1.16145E-09  9.43720E-10  5.52252E-10  7.46842E-11 -4.29734E-10 -9.09264E-10 -1.18543E-09
  -1.40064E-09 -1.59845E-09 -1.78839E-09 -1.97333E-09 -2.15419E-09 -2.33117E-09 -2.50413E-09 -2.67278E-09 -2.83672E-09 -2.99552E-09
  -3.14870E-09 -3.29579E-09 -3.43627E-09 -3.56961E-09 -3.69532E-09 -3.81288E-09 -3.92189E-09 -4.02246E-09 -4.11480E-09 -4.19911E-09
  -4.27557E-09 -4.34438E-09 -4.40574E-09 -4.45983E-09 -4.50686E-09 -4.54701E-09 -4.58048E-09 -4.60747E-09 -4.62815E-09 -4.64273E-09
  -4.65140E-09 -4.65435E-09 -4.65177E-09 -4.64385E-09 -4.63079E-09 -4.61278E-09 -4.59000E-09 -4.56266E-09 -4.53093E-09 -4.49503E-09
  -4.45512E-09 -4.41142E-09 -4.36410E-09 -4.31336E-09 -4.25941E-09 -4.20246E-09 -4.14273E-09 -4.08043E-09 -4.01580E-09 -3.94905E-09
