 LCModel (Version 6.3-1R) Copyright: S.W. Provencher.          Ref.: Magn. Reson. Med. 30:672-679 (1993).                
 onepulse 23x15_ftSpec_smooth_lcm
 26 lines in following concentration table = NCONC+1
    Conc.  %SD /Cr+PCr  Metabolite                                         
    0.000 999%   0.000 Ala                                                 
    0.000 999%   0.000 Asp                                                 
    0.000 999%   0.000 Cr                                                  
 2.37E-09  31%  31.667 GABA                                                
 1.40E-09  28%  18.699 Glc                                                 
    0.000 999%   0.000 Gln                                                 
 4.53E-10 137%   6.049 Glu                                                 
    0.000 999%   0.000 Glyc                                                
 1.11E-10 494%   1.485 GPC                                                 
    0.000 999%   0.000 GSH                                                 
 2.07E-10 134%   2.768 Ins                                                 
    0.000 999%   0.000 Lac                                                 
    0.000 999%   0.000 NAAG                                                
 9.90E-10  20%  13.206 NAA                                                 
 1.91E-11 999%   0.255 PCh                                                 
 7.50E-11 353%   1.000 PCr                                                 
    0.000 999%   0.000 PE                                                  
    0.000 999%   0.000 Scyllo                                              
 1.40E-09  40%  18.691 Ser                                                 
    0.000 999%   0.000 Tau                                                 
 1.30E-10  45%   1.741 GPC+PCh                                             
 9.90E-10  20%  13.206 NAA+NAAG                                            
 2.07E-10 134%   2.768 Ins+Glyc                                            
 7.50E-11 353%   1.000 Cr+PCr                                              
 4.53E-10 137%   6.049 Glu+Gln                                             
   6 lines in following misc. output table
  FWHM = 0.078 ppm    S/N =   4                                            
  Data shift = 0.335 ppm                                                   
  Ph:  48 deg      20.7 deg/ppm                                            
  alphaB,S = 1.7E-01,   6.4E+01                                            
   16 spline knots.   Ns = 5(1)                                            
  ( 7) 4 infls.   ( 3) 1 extrs.                                            
  363 points on ppm-axis = NY
      4.250000     4.238821     4.227641     4.216462     4.205282     4.194103     4.182923     4.171744     4.160564     4.149385
      4.138206     4.127026     4.115847     4.104667     4.093488     4.082308     4.071129     4.059949     4.048770     4.037591
      4.026411     4.015232     4.004052     3.992873     3.981693     3.970514     3.959334     3.948155     3.936975     3.925796
      3.914617     3.903437     3.892258     3.881078     3.869899     3.858719     3.847540     3.836360     3.825181     3.814002
      3.802822     3.791643     3.780463     3.769284     3.758104     3.746925     3.735745     3.724566     3.713387     3.702207
      3.691028     3.679848     3.668669     3.657489     3.646310     3.635130     3.623951     3.612772     3.601592     3.590413
      3.579233     3.568054     3.556874     3.545695     3.534515     3.523336     3.512156     3.500977     3.489798     3.478618
      3.467439     3.456259     3.445080     3.433900     3.422721     3.411541     3.400362     3.389183     3.378003     3.366824
      3.355644     3.344465     3.333285     3.322106     3.310926     3.299747     3.288568     3.277388     3.266209     3.255029
      3.243850     3.232670     3.221491     3.210311     3.199132     3.187953     3.176773     3.165594     3.154414     3.143235
      3.132055     3.120876     3.109696     3.098517     3.087337     3.076158     3.064979     3.053799     3.042620     3.031440
      3.020261     3.009081     2.997902     2.986722     2.975543     2.964364     2.953184     2.942005     2.930825     2.919646
      2.908466     2.897287     2.886107     2.874928     2.863749     2.852569     2.841390     2.830210     2.819031     2.807851
      2.796672     2.785492     2.774313     2.763134     2.751954     2.740775     2.729595     2.718416     2.707236     2.696057
      2.684877     2.673698     2.662519     2.651339     2.640160     2.628980     2.617801     2.606621     2.595442     2.584262
      2.573083     2.561903     2.550724     2.539545     2.528365     2.517186     2.506006     2.494827     2.483647     2.472468
      2.461288     2.450109     2.438930     2.427750     2.416571     2.405391     2.394212     2.383032     2.371853     2.360673
      2.349494     2.338315     2.327135     2.315956     2.304776     2.293597     2.282417     2.271238     2.260058     2.248879
      2.237700     2.226520     2.215341     2.204161     2.192982     2.181802     2.170623     2.159443     2.148264     2.137084
      2.125905     2.114726     2.103546     2.092367     2.081187     2.070008     2.058828     2.047649     2.036469     2.025290
      2.014111     2.002931     1.991752     1.980572     1.969393     1.958213     1.947034     1.935854     1.924675     1.913496
      1.902316     1.891137     1.879957     1.868778     1.857598     1.846419     1.835239     1.824060     1.812881     1.801701
      1.790522     1.779342     1.768163     1.756983     1.745804     1.734624     1.723445     1.712265     1.701086     1.689907
      1.678727     1.667548     1.656368     1.645189     1.634009     1.622830     1.611650     1.600471     1.589292     1.578112
      1.566933     1.555753     1.544574     1.533394     1.522215     1.511035     1.499856     1.488677     1.477497     1.466318
      1.455138     1.443959     1.432779     1.421600     1.410420     1.399241     1.388062     1.376882     1.365703     1.354523
      1.343344     1.332164     1.320985     1.309805     1.298626     1.287446     1.276267     1.265088     1.253908     1.242729
      1.231549     1.220370     1.209190     1.198011     1.186831     1.175652     1.164473     1.153293     1.142114     1.130934
      1.119755     1.108575     1.097396     1.086216     1.075037     1.063858     1.052678     1.041499     1.030319     1.019140
      1.007960     0.996781     0.985601     0.974422     0.963243     0.952063     0.940884     0.929704     0.918525     0.907345
      0.896166     0.884986     0.873807     0.862628     0.851448     0.840269     0.829089     0.817910     0.806730     0.795551
      0.784371     0.773192     0.762012     0.750833     0.739654     0.728474     0.717295     0.706115     0.694936     0.683756
      0.672577     0.661397     0.650218     0.639039     0.627859     0.616680     0.605500     0.594321     0.583141     0.571962
      0.560782     0.549603     0.538424     0.527244     0.516065     0.504885     0.493706     0.482526     0.471347     0.460167
      0.448988     0.437809     0.426629     0.415450     0.404270     0.393091     0.381911     0.370732     0.359552     0.348373
      0.337193     0.326014     0.314835     0.303655     0.292476     0.281296     0.270117     0.258937     0.247758     0.236578
      0.225399     0.214220     0.203040
 NY phased data points follow
   1.50128E-08  1.62160E-08  1.68253E-08  1.57634E-08  1.35924E-08  1.19471E-08  1.16845E-08  1.02958E-08  1.03070E-08  9.83850E-09
   9.81751E-09  9.96232E-09  1.01942E-08  1.07426E-08  1.06916E-08  1.06919E-08  1.20565E-08  1.09679E-08  1.08393E-08  1.06075E-08
   1.03519E-08  1.08385E-08  9.54541E-09  8.96579E-09  1.01749E-08  1.09879E-08  1.11411E-08  1.11859E-08  1.05411E-08  9.72801E-09
   9.71199E-09  1.06143E-08  1.14489E-08  1.35658E-08  1.26221E-08  1.19127E-08  1.02444E-08  9.82245E-09  7.67466E-09  7.30958E-09
   7.21379E-09  7.17091E-09  6.13914E-09  6.19575E-09  6.80981E-09  5.80144E-09  4.86657E-09  6.28073E-09  4.70553E-09  5.45121E-09
   4.81714E-09  5.16459E-09  6.12848E-09  5.70794E-09  5.26559E-09  5.65597E-09  4.06865E-09  4.76674E-09  5.71132E-09  5.03579E-09
   5.57926E-09  6.85842E-09  7.71243E-09  1.06226E-08  1.40144E-08  1.57989E-08  1.32054E-08  1.12134E-08  8.52929E-09  7.57262E-09
   6.59891E-09  6.10315E-09  5.69878E-09  4.98750E-09  4.39067E-09  4.86522E-09  4.56799E-09  4.61227E-09  5.81375E-09  7.85752E-09
   1.14124E-08  1.45292E-08  1.45284E-08  1.32329E-08  1.09330E-08  9.91386E-09  8.79971E-09  8.31277E-09  7.52086E-09  6.88923E-09
   6.22842E-09  6.69562E-09  6.05990E-09  5.04407E-09  5.10997E-09  4.82162E-09  4.20034E-09  4.28241E-09  3.68751E-09  4.24920E-09
   3.64232E-09  3.79498E-09  3.47244E-09  3.67388E-09  4.54112E-09  3.64348E-09  3.23138E-09  4.32982E-09  3.59398E-09  3.20010E-09
   2.59266E-09  2.62275E-09  2.05305E-09  2.54102E-09  3.00394E-09  3.34815E-09  3.47359E-09  3.74938E-09  3.75407E-09  4.12599E-09
   3.89175E-09  4.08650E-09  3.74723E-09  3.33920E-09  2.91414E-09  1.99164E-09  2.12795E-09  1.90000E-09  2.10161E-09  2.88058E-09
   3.28785E-09  2.77299E-09  2.54577E-09  3.04003E-09  2.65802E-09  2.21864E-09  2.36867E-09  2.34100E-09  2.43408E-09  2.17602E-09
   2.75845E-09  4.22163E-09  4.67060E-09  4.23458E-09  3.29196E-09  3.89383E-09  3.87451E-09  5.15586E-09  4.38478E-09  5.18943E-09
   4.35167E-09  4.22002E-09  4.74935E-09  3.99174E-09  3.56632E-09  3.92302E-09  3.63475E-09  3.76680E-09  3.84848E-09  4.20895E-09
   4.21214E-09  4.65410E-09  4.44981E-09  4.48729E-09  3.87603E-09  3.91886E-09  4.45601E-09  5.32101E-09  6.84139E-09  7.74152E-09
   8.75590E-09  1.19197E-08  1.65067E-08  1.75335E-08  1.44988E-08  1.15294E-08  8.98550E-09  8.23889E-09  6.77619E-09  5.97965E-09
   4.74070E-09  4.21506E-09  3.17449E-09  3.05018E-09  2.57511E-09  1.67485E-09  1.16977E-09  5.08747E-10 -8.51923E-11 -8.59785E-10
  -2.01046E-09 -2.57389E-09 -3.06138E-09 -4.09395E-09 -5.42603E-09 -5.66310E-09 -7.43266E-09 -7.90772E-09 -9.05162E-09 -1.01350E-08
  -1.06188E-08 -1.06742E-08 -1.16532E-08 -1.12541E-08 -1.14892E-08 -1.04237E-08 -1.07636E-08 -9.50327E-09 -8.98843E-09 -8.71235E-09
  -6.87464E-09 -6.47320E-09 -4.58566E-09 -4.16564E-09 -3.41271E-09 -2.30295E-09 -1.44443E-09 -2.04127E-09 -8.46699E-10 -1.38120E-09
  -1.37592E-09 -1.50558E-09 -1.91360E-09 -9.81166E-10 -1.88835E-09 -1.58330E-09 -1.40010E-09 -1.12902E-09 -1.14243E-09 -5.83047E-10
  -1.29585E-09 -6.47448E-10 -1.24684E-09 -1.18786E-09 -1.88666E-09 -1.33047E-09 -1.39297E-09 -1.19101E-09 -1.01633E-09 -8.28591E-10
  -4.31024E-10 -3.70914E-10 -1.06037E-09 -8.09929E-10 -1.31717E-09 -1.24629E-09 -1.08422E-09 -1.22204E-09 -1.18403E-09 -1.29257E-09
  -6.07711E-10 -3.96969E-10 -4.77182E-10 -5.56944E-11 -1.77488E-10 -8.33049E-11 -4.61490E-10  1.03083E-10 -1.27631E-09 -7.60798E-10
  -1.14235E-09 -8.50851E-10 -1.35980E-09 -1.85505E-09 -1.45403E-09 -9.58240E-10 -1.17462E-09 -7.32880E-10 -1.34374E-09 -6.37536E-10
   1.19188E-10  4.36969E-12  1.99135E-11  4.37530E-11  1.84922E-10  9.31155E-10  2.88908E-10 -2.95703E-11  3.67828E-10 -3.61686E-10
  -9.44103E-11 -6.25301E-10 -4.24613E-10 -5.92519E-10 -1.07279E-09 -5.17056E-10 -1.14081E-09 -6.13422E-10 -1.00009E-09 -7.79076E-10
  -4.09011E-10 -8.61146E-10 -1.10172E-09 -6.91600E-10 -8.88451E-10 -4.41175E-10 -5.27213E-10 -1.42860E-10 -5.94118E-10 -8.52710E-10
  -1.10111E-09 -1.93487E-10 -1.02511E-09 -1.03634E-09 -5.37077E-10 -6.74357E-10 -2.18895E-10 -1.22860E-09 -7.38027E-10 -3.47777E-10
  -1.72620E-09 -4.97671E-10 -7.64450E-10 -5.99453E-10 -8.77916E-10 -1.75509E-10 -9.73255E-10 -1.18396E-10 -6.50025E-10 -3.26197E-10
  -2.09898E-10 -9.56594E-10 -3.10533E-10 -4.32743E-10 -3.42213E-10 -1.20857E-11 -4.96466E-10 -3.81767E-10 -4.32262E-10 -2.75596E-10
  -2.99511E-10  1.09655E-10 -1.50987E-10 -3.01223E-10 -1.74374E-10 -2.86532E-10 -2.91352E-11 -6.02825E-11 -8.60782E-10 -1.22860E-10
  -3.01140E-10  2.27108E-10 -2.11583E-10 -1.71085E-10 -3.88280E-10  5.30404E-10 -4.43902E-10 -1.02236E-10 -9.45641E-11 -2.65654E-10
   5.26939E-11 -1.98190E-10  1.47772E-10  3.81270E-11 -5.10160E-10  9.65248E-11  2.65891E-10 -1.15199E-10 -1.93074E-10  6.10548E-10
   2.82829E-10  2.37799E-10  4.87707E-11
 NY points of the fit to the data follow
   1.63959E-08  1.55476E-08  1.47785E-08  1.41511E-08  1.34060E-08  1.24574E-08  1.14626E-08  1.07332E-08  1.02683E-08  1.00072E-08
   9.98392E-09  1.00507E-08  1.01535E-08  1.03258E-08  1.05582E-08  1.08277E-08  1.11503E-08  1.14598E-08  1.15989E-08  1.15197E-08
   1.12378E-08  1.07219E-08  1.01091E-08  9.69534E-09  9.49792E-09  9.54174E-09  9.89566E-09  1.04233E-08  1.08870E-08  1.10916E-08
   1.09858E-08  1.08859E-08  1.08754E-08  1.07509E-08  1.05944E-08  1.06929E-08  1.06670E-08  1.02650E-08  9.50474E-09  8.60791E-09
   7.77881E-09  6.90034E-09  5.95438E-09  5.46946E-09  5.29988E-09  5.07860E-09  4.99177E-09  5.05945E-09  5.15242E-09  5.23148E-09
   5.31883E-09  5.42801E-09  5.58064E-09  5.75184E-09  5.92955E-09  6.09739E-09  6.25974E-09  6.38479E-09  6.51763E-09  6.72231E-09
   7.08102E-09  7.64953E-09  8.32830E-09  9.02752E-09  9.87265E-09  1.05558E-08  1.09048E-08  1.09785E-08  1.07718E-08  1.02337E-08
   9.39883E-09  8.34419E-09  7.33724E-09  6.67345E-09  6.05970E-09  5.66200E-09  6.00854E-09  6.86413E-09  7.90855E-09  9.23945E-09
   1.06148E-08  1.17798E-08  1.24860E-08  1.23883E-08  1.15029E-08  1.02685E-08  8.93375E-09  7.55738E-09  6.42161E-09  6.18320E-09
   6.09141E-09  6.01326E-09  5.71218E-09  5.26128E-09  4.99763E-09  4.69179E-09  4.26188E-09  4.00711E-09  3.84235E-09  3.67079E-09
   3.56198E-09  3.50120E-09  3.46651E-09  3.44739E-09  3.43802E-09  3.43506E-09  3.43647E-09  3.44078E-09  3.44697E-09  3.45431E-09
   3.46217E-09  3.47035E-09  3.47866E-09  3.48690E-09  3.49488E-09  3.50242E-09  3.50924E-09  3.51523E-09  3.52030E-09  3.52435E-09
   3.52732E-09  3.52910E-09  3.52961E-09  3.52876E-09  3.52646E-09  3.52265E-09  3.51725E-09  3.51020E-09  3.50143E-09  3.49087E-09
   3.47845E-09  3.46412E-09  3.44780E-09  3.42941E-09  3.40892E-09  3.38624E-09  3.36132E-09  3.33409E-09  3.30451E-09  3.27250E-09
   3.23800E-09  3.20097E-09  3.16137E-09  3.11914E-09  3.07426E-09  3.02670E-09  2.97641E-09  2.92340E-09  2.86763E-09  2.80912E-09
   2.74789E-09  2.68399E-09  2.61749E-09  2.54852E-09  2.47725E-09  2.40393E-09  2.32895E-09  2.25287E-09  2.17651E-09  2.10114E-09
   2.02875E-09  1.96264E-09  1.90865E-09  1.87804E-09  1.89619E-09  2.03694E-09  2.61857E-09  4.02921E-09  6.20624E-09  8.87379E-09
   1.18217E-08  1.46079E-08  1.64752E-08  1.67457E-08  1.53192E-08  1.26470E-08  9.23783E-09  5.51363E-09  2.39452E-09  7.31603E-10
   6.36435E-11 -3.39724E-10 -6.39379E-10 -8.86391E-10 -1.10215E-09 -1.29716E-09 -1.47709E-09 -1.64520E-09 -1.80339E-09 -1.95282E-09
  -2.09414E-09 -2.22773E-09 -2.35372E-09 -2.47212E-09 -2.58285E-09 -2.68576E-09 -2.78073E-09 -2.86802E-09 -2.94787E-09 -3.02055E-09
  -3.08629E-09 -3.14529E-09 -3.19778E-09 -3.24394E-09 -3.28397E-09 -3.31805E-09 -3.34636E-09 -3.36909E-09 -3.38640E-09 -3.39846E-09
  -3.40544E-09 -3.40752E-09 -3.40484E-09 -3.39759E-09 -3.38592E-09 -3.37000E-09 -3.34997E-09 -3.32601E-09 -3.29828E-09 -3.26692E-09
  -3.23211E-09 -3.19398E-09 -3.15271E-09 -3.10845E-09 -3.06137E-09 -3.01164E-09 -2.95947E-09 -2.90503E-09 -2.84851E-09 -2.79011E-09
  -2.73001E-09 -2.66838E-09 -2.60543E-09 -2.54133E-09 -2.47626E-09 -2.41042E-09 -2.34397E-09 -2.27712E-09 -2.21001E-09 -2.14286E-09
  -2.07583E-09 -2.00911E-09 -1.94286E-09 -1.87728E-09 -1.81252E-09 -1.74878E-09 -1.68622E-09 -1.62502E-09 -1.56535E-09 -1.50739E-09
  -1.45129E-09 -1.39725E-09 -1.34532E-09 -1.29548E-09 -1.24767E-09 -1.20185E-09 -1.15796E-09 -1.11598E-09 -1.07583E-09 -1.03748E-09
  -1.00089E-09 -9.65986E-10 -9.32747E-10 -9.01112E-10 -8.71042E-10 -8.42485E-10 -8.15382E-10 -7.89715E-10 -7.65422E-10 -7.42449E-10
  -7.20754E-10 -7.00301E-10 -6.81028E-10 -6.62897E-10 -6.45871E-10 -6.29882E-10 -6.14909E-10 -6.00892E-10 -5.87794E-10 -5.75559E-10
  -5.64152E-10 -5.53532E-10 -5.43653E-10 -5.34471E-10 -5.25955E-10 -5.18054E-10 -5.10735E-10 -5.03950E-10 -4.97661E-10 -4.91832E-10
  -4.86418E-10 -4.81381E-10 -4.76681E-10 -4.72279E-10 -4.68137E-10 -4.64213E-10 -4.60473E-10 -4.56875E-10 -4.53387E-10 -4.49959E-10
  -4.46569E-10 -4.43168E-10 -4.39723E-10 -4.36203E-10 -4.32565E-10 -4.28773E-10 -4.24797E-10 -4.20595E-10 -4.16165E-10 -4.11510E-10
  -4.06633E-10 -4.01541E-10 -3.96238E-10 -3.90727E-10 -3.85015E-10 -3.79106E-10 -3.73005E-10 -3.66716E-10 -3.60245E-10 -3.53594E-10
  -3.46772E-10 -3.39779E-10 -3.32621E-10 -3.25307E-10 -3.17835E-10 -3.10216E-10 -3.02450E-10 -2.94542E-10 -2.86498E-10 -2.78325E-10
  -2.70021E-10 -2.61596E-10 -2.53051E-10 -2.44394E-10 -2.35629E-10 -2.26756E-10 -2.17787E-10 -2.08727E-10 -1.99584E-10 -1.90364E-10
  -1.81075E-10 -1.71722E-10 -1.62314E-10 -1.52857E-10 -1.43361E-10 -1.33826E-10 -1.24266E-10 -1.14683E-10 -1.05087E-10 -9.54807E-11
  -8.58715E-11 -7.62689E-11 -6.66762E-11 -5.71012E-11 -4.75489E-11 -3.80276E-11 -2.85411E-11 -1.90949E-11 -9.69669E-12 -3.53662E-13
   8.92991E-12  1.81477E-11  2.72979E-11
 NY background values follow
     5.871E-09    5.837E-09    5.802E-09    5.767E-09    5.732E-09    5.696E-09    5.660E-09    5.624E-09    5.588E-09    5.551E-09
     5.514E-09    5.477E-09    5.440E-09    5.402E-09    5.365E-09    5.327E-09    5.289E-09    5.250E-09    5.212E-09    5.173E-09
     5.134E-09    5.095E-09    5.056E-09    5.017E-09    4.978E-09    4.938E-09    4.899E-09    4.859E-09    4.819E-09    4.779E-09
     4.739E-09    4.699E-09    4.660E-09    4.620E-09    4.580E-09    4.540E-09    4.501E-09    4.462E-09    4.423E-09    4.384E-09
     4.346E-09    4.307E-09    4.270E-09    4.233E-09    4.196E-09    4.159E-09    4.124E-09    4.088E-09    4.054E-09    4.020E-09
     3.987E-09    3.954E-09    3.922E-09    3.891E-09    3.861E-09    3.832E-09    3.804E-09    3.776E-09    3.750E-09    3.724E-09
     3.700E-09    3.676E-09    3.653E-09    3.631E-09    3.610E-09    3.590E-09    3.570E-09    3.551E-09    3.534E-09    3.516E-09
     3.500E-09    3.485E-09    3.470E-09    3.456E-09    3.442E-09    3.429E-09    3.417E-09    3.406E-09    3.395E-09    3.385E-09
     3.375E-09    3.366E-09    3.358E-09    3.350E-09    3.342E-09    3.336E-09    3.329E-09    3.323E-09    3.318E-09    3.313E-09
     3.308E-09    3.304E-09    3.299E-09    3.296E-09    3.292E-09    3.289E-09    3.285E-09    3.282E-09    3.279E-09    3.276E-09
     3.273E-09    3.271E-09    3.268E-09    3.265E-09    3.262E-09    3.258E-09    3.255E-09    3.252E-09    3.248E-09    3.244E-09
     3.240E-09    3.235E-09    3.230E-09    3.225E-09    3.219E-09    3.213E-09    3.206E-09    3.198E-09    3.189E-09    3.180E-09
     3.170E-09    3.159E-09    3.146E-09    3.133E-09    3.118E-09    3.102E-09    3.085E-09    3.066E-09    3.046E-09    3.024E-09
     3.000E-09    2.975E-09    2.948E-09    2.919E-09    2.888E-09    2.856E-09    2.821E-09    2.783E-09    2.744E-09    2.702E-09
     2.658E-09    2.612E-09    2.562E-09    2.511E-09    2.456E-09    2.399E-09    2.339E-09    2.277E-09    2.211E-09    2.142E-09
     2.070E-09    1.996E-09    1.918E-09    1.836E-09    1.751E-09    1.663E-09    1.572E-09    1.477E-09    1.378E-09    1.276E-09
     1.170E-09    1.060E-09    9.463E-10    8.287E-10    7.071E-10    5.815E-10    4.518E-10    3.180E-10    1.800E-10    3.810E-11
    -1.072E-10   -2.555E-10   -4.065E-10   -5.596E-10   -7.146E-10   -8.709E-10   -1.028E-09   -1.186E-09   -1.344E-09   -1.502E-09
    -1.659E-09   -1.815E-09   -1.970E-09   -2.122E-09   -2.272E-09   -2.420E-09   -2.565E-09   -2.705E-09   -2.842E-09   -2.975E-09
    -3.103E-09   -3.226E-09   -3.343E-09   -3.454E-09   -3.559E-09   -3.657E-09   -3.748E-09   -3.832E-09   -3.910E-09   -3.980E-09
    -4.044E-09   -4.102E-09   -4.153E-09   -4.199E-09   -4.238E-09   -4.272E-09   -4.300E-09   -4.323E-09   -4.340E-09   -4.353E-09
    -4.360E-09   -4.363E-09   -4.360E-09   -4.354E-09   -4.343E-09   -4.327E-09   -4.308E-09   -4.285E-09   -4.258E-09   -4.227E-09
    -4.193E-09   -4.155E-09   -4.115E-09   -4.071E-09   -4.025E-09   -3.976E-09   -3.925E-09   -3.871E-09   -3.815E-09   -3.757E-09
    -3.698E-09   -3.637E-09   -3.575E-09   -3.511E-09   -3.447E-09   -3.382E-09   -3.316E-09   -3.249E-09   -3.183E-09   -3.116E-09
    -3.050E-09   -2.984E-09   -2.918E-09   -2.853E-09   -2.788E-09   -2.725E-09   -2.663E-09   -2.602E-09   -2.543E-09   -2.485E-09
    -2.429E-09   -2.375E-09   -2.324E-09   -2.274E-09   -2.226E-09   -2.181E-09   -2.137E-09   -2.095E-09   -2.055E-09   -2.017E-09
    -1.980E-09   -1.945E-09   -1.912E-09   -1.880E-09   -1.850E-09   -1.821E-09   -1.794E-09   -1.768E-09   -1.744E-09   -1.721E-09
    -1.699E-09   -1.678E-09   -1.659E-09   -1.640E-09   -1.623E-09   -1.606E-09   -1.591E-09   -1.577E-09   -1.563E-09   -1.550E-09
    -1.539E-09   -1.527E-09   -1.517E-09   -1.507E-09   -1.498E-09   -1.490E-09   -1.482E-09   -1.474E-09   -1.467E-09   -1.461E-09
    -1.455E-09   -1.449E-09   -1.444E-09   -1.438E-09   -1.434E-09   -1.429E-09   -1.424E-09   -1.420E-09   -1.415E-09   -1.411E-09
    -1.407E-09   -1.402E-09   -1.398E-09   -1.393E-09   -1.389E-09   -1.384E-09   -1.379E-09   -1.374E-09   -1.368E-09   -1.362E-09
    -1.356E-09   -1.350E-09   -1.344E-09   -1.337E-09   -1.330E-09   -1.323E-09   -1.315E-09   -1.308E-09   -1.300E-09   -1.292E-09
    -1.284E-09   -1.276E-09   -1.267E-09   -1.258E-09   -1.249E-09   -1.240E-09   -1.231E-09   -1.222E-09   -1.212E-09   -1.202E-09
    -1.193E-09   -1.183E-09   -1.173E-09   -1.162E-09   -1.152E-09   -1.141E-09   -1.131E-09   -1.120E-09   -1.109E-09   -1.098E-09
    -1.087E-09   -1.076E-09   -1.065E-09   -1.054E-09   -1.042E-09   -1.031E-09   -1.020E-09   -1.008E-09   -9.968E-10   -9.853E-10
    -9.737E-10   -9.622E-10   -9.507E-10   -9.392E-10   -9.276E-10   -9.161E-10   -9.046E-10   -8.931E-10   -8.817E-10   -8.703E-10
    -8.589E-10   -8.476E-10   -8.364E-10
 GABA     Conc. = 2.37E-09
   6.78598E-09  6.76562E-09  6.74570E-09  6.72629E-09  6.70748E-09  6.68938E-09  6.67205E-09  6.65566E-09  6.64034E-09  6.62624E-09
   6.61356E-09  6.60257E-09  6.59350E-09  6.58667E-09  6.58247E-09  6.58124E-09  6.58356E-09  6.59010E-09  6.60161E-09  6.61916E-09
   6.64421E-09  6.67864E-09  6.72505E-09  6.78710E-09  6.86994E-09  6.98190E-09  7.13653E-09  7.35913E-09  7.70217E-09  8.12928E-09
   8.57807E-09  9.16462E-09  9.81778E-09  1.03133E-08  1.06374E-08  1.08017E-08  1.07254E-08  1.03189E-08  9.59223E-09  8.72032E-09
   7.90616E-09  7.02511E-09  6.03046E-09  5.40845E-09  5.06455E-09  4.67405E-09  4.44103E-09  4.39492E-09  4.40183E-09  4.42938E-09
   4.46743E-09  4.51237E-09  4.56379E-09  4.62261E-09  4.69074E-09  4.77125E-09  4.86886E-09  4.99063E-09  5.14788E-09  5.36012E-09
   5.66700E-09  6.12933E-09  6.63192E-09  7.17854E-09  7.88793E-09  8.52000E-09  8.90110E-09  9.06347E-09  8.99006E-09  8.62628E-09
   7.93191E-09  7.01854E-09  6.15353E-09  5.50557E-09  4.74381E-09  4.08444E-09  3.94887E-09  3.83104E-09  3.69084E-09  3.78323E-09
   3.95273E-09  4.15117E-09  4.48491E-09  4.87820E-09  5.23257E-09  5.61828E-09  6.01718E-09  6.34540E-09  6.54596E-09  6.56734E-09
   6.49658E-09  6.39129E-09  6.05443E-09  5.56761E-09  5.26687E-09  4.92663E-09  4.46531E-09  4.18032E-09  3.98706E-09  3.78874E-09
   3.65478E-09  3.57029E-09  3.51325E-09  3.47300E-09  3.44366E-09  3.42177E-09  3.40519E-09  3.39238E-09  3.38222E-09  3.37396E-09
   3.36687E-09  3.36073E-09  3.35528E-09  3.35030E-09  3.34557E-09  3.34084E-09  3.33583E-09  3.33039E-09  3.32442E-09  3.31779E-09
   3.31041E-09  3.30217E-09  3.29295E-09  3.28266E-09  3.27119E-09  3.25846E-09  3.24438E-09  3.22888E-09  3.21188E-09  3.19329E-09
   3.17305E-09  3.15107E-09  3.12727E-09  3.10158E-09  3.07394E-09  3.04425E-09  3.01246E-09  2.97849E-09  2.94228E-09  2.90375E-09
   2.86281E-09  2.81944E-09  2.77355E-09  2.72509E-09  2.67401E-09  2.62025E-09  2.56377E-09  2.50452E-09  2.44245E-09  2.37753E-09
   2.30972E-09  2.23902E-09  2.16542E-09  2.08894E-09  2.00962E-09  1.92753E-09  1.84282E-09  1.75570E-09  1.66651E-09  1.57580E-09
   1.48447E-09  1.39406E-09  1.30741E-09  1.23021E-09  1.17620E-09  1.18939E-09  1.47801E-09  2.05729E-09  2.81116E-09  3.68741E-09
   4.58853E-09  5.27790E-09  5.46955E-09  5.04413E-09  4.13459E-09  2.94326E-09  1.58808E-09  2.43320E-10 -5.61327E-10 -9.22448E-10
  -1.17367E-09 -1.38290E-09 -1.57101E-09 -1.74636E-09 -1.91277E-09 -2.07217E-09 -2.22552E-09 -2.37328E-09 -2.51557E-09 -2.65238E-09
  -2.78358E-09 -2.90897E-09 -3.02827E-09 -3.14118E-09 -3.24738E-09 -3.34656E-09 -3.43845E-09 -3.52319E-09 -3.60095E-09 -3.67192E-09
  -3.73626E-09 -3.79414E-09 -3.84574E-09 -3.89121E-09 -3.93072E-09 -3.96443E-09 -3.99250E-09 -4.01509E-09 -4.03236E-09 -4.04446E-09
  -4.05156E-09 -4.05381E-09 -4.05136E-09 -4.04439E-09 -4.03302E-09 -4.01744E-09 -3.99779E-09 -3.97423E-09 -3.94690E-09 -3.91598E-09
  -3.88160E-09 -3.84392E-09 -3.80311E-09 -3.75931E-09 -3.71269E-09 -3.66343E-09 -3.61172E-09 -3.55774E-09 -3.50168E-09 -3.44373E-09
  -3.38407E-09 -3.32288E-09 -3.26035E-09 -3.19667E-09 -3.13201E-09 -3.06656E-09 -3.00050E-09 -2.93402E-09 -2.86728E-09 -2.80047E-09
  -2.73379E-09 -2.66738E-09 -2.60144E-09 -2.53615E-09 -2.47167E-09 -2.40819E-09 -2.34588E-09 -2.28491E-09 -2.22546E-09 -2.16770E-09
  -2.11179E-09 -2.05792E-09 -2.00615E-09 -1.95644E-09 -1.90875E-09 -1.86303E-09 -1.81924E-09 -1.77732E-09 -1.73723E-09 -1.69892E-09
  -1.66235E-09 -1.62745E-09 -1.59420E-09 -1.56254E-09 -1.53242E-09 -1.50380E-09 -1.47662E-09 -1.45086E-09 -1.42645E-09 -1.40335E-09
  -1.38151E-09 -1.36089E-09 -1.34144E-09 -1.32311E-09 -1.30588E-09 -1.28966E-09 -1.27444E-09 -1.26016E-09 -1.24678E-09 -1.23425E-09
  -1.22254E-09 -1.21159E-09 -1.20137E-09 -1.19183E-09 -1.18294E-09 -1.17464E-09 -1.16692E-09 -1.15971E-09 -1.15298E-09 -1.14669E-09
  -1.14081E-09 -1.13528E-09 -1.13008E-09 -1.12516E-09 -1.12049E-09 -1.11601E-09 -1.11171E-09 -1.10753E-09 -1.10345E-09 -1.09941E-09
  -1.09539E-09 -1.09135E-09 -1.08725E-09 -1.08306E-09 -1.07874E-09 -1.07424E-09 -1.06955E-09 -1.06462E-09 -1.05945E-09 -1.05403E-09
  -1.04838E-09 -1.04250E-09 -1.03639E-09 -1.03007E-09 -1.02352E-09 -1.01677E-09 -1.00981E-09 -1.00264E-09 -9.95284E-10 -9.87731E-10
  -9.79994E-10 -9.72071E-10 -9.63969E-10 -9.55698E-10 -9.47255E-10 -9.38652E-10 -9.29888E-10 -9.20968E-10 -9.11899E-10 -9.02688E-10
  -8.93332E-10 -8.83842E-10 -8.74220E-10 -8.64472E-10 -8.54602E-10 -8.44613E-10 -8.34513E-10 -8.24311E-10 -8.14012E-10 -8.03623E-10
  -7.93153E-10 -7.82607E-10 -7.71993E-10 -7.61318E-10 -7.50590E-10 -7.39811E-10 -7.28996E-10 -7.18145E-10 -7.07268E-10 -6.96369E-10
  -6.85455E-10 -6.74536E-10 -6.63614E-10 -6.52699E-10 -6.41794E-10 -6.30909E-10 -6.20047E-10 -6.09213E-10 -5.98416E-10 -5.87662E-10
  -5.76957E-10 -5.66305E-10 -5.55711E-10
 Glc      Conc. = 1.40E-09
   1.04618E-08  1.06257E-08  1.06638E-08  1.05447E-08  1.01845E-08  9.65079E-09  9.03136E-09  8.48428E-09  8.04268E-09  7.74852E-09
   7.70473E-09  7.77921E-09  7.93155E-09  8.19623E-09  8.56895E-09  8.98967E-09  9.41447E-09  9.78311E-09  9.95963E-09  9.85112E-09
   9.43064E-09  8.68883E-09  7.76792E-09  6.85663E-09  6.04818E-09  5.43483E-09  5.11991E-09  5.02449E-09  4.98368E-09  4.91850E-09
   4.78981E-09  4.63710E-09  4.50634E-09  4.35918E-09  4.19454E-09  4.06914E-09  3.98454E-09  3.90166E-09  3.83493E-09  3.80449E-09
   3.78655E-09  3.77197E-09  3.75854E-09  3.74528E-09  3.73176E-09  3.71784E-09  3.70347E-09  3.68868E-09  3.67347E-09  3.65798E-09
   3.64228E-09  3.62643E-09  3.61057E-09  3.59476E-09  3.57915E-09  3.56371E-09  3.54857E-09  3.53383E-09  3.51948E-09  3.50555E-09
   3.49206E-09  3.47903E-09  3.46646E-09  3.45436E-09  3.44275E-09  3.43163E-09  3.42100E-09  3.41087E-09  3.40124E-09  3.39211E-09
   3.38348E-09  3.37535E-09  3.36771E-09  3.36056E-09  3.35389E-09  3.34772E-09  3.34201E-09  3.33676E-09  3.33198E-09  3.32765E-09
   3.32374E-09  3.32028E-09  3.31721E-09  3.31458E-09  3.31232E-09  3.31045E-09  3.30894E-09  3.30775E-09  3.30687E-09  3.30626E-09
   3.30591E-09  3.30577E-09  3.30583E-09  3.30606E-09  3.30644E-09  3.30691E-09  3.30747E-09  3.30809E-09  3.30873E-09  3.30938E-09
   3.30998E-09  3.31052E-09  3.31096E-09  3.31128E-09  3.31144E-09  3.31141E-09  3.31118E-09  3.31068E-09  3.30991E-09  3.30882E-09
   3.30740E-09  3.30560E-09  3.30337E-09  3.30069E-09  3.29748E-09  3.29366E-09  3.28917E-09  3.28393E-09  3.27788E-09  3.27092E-09
   3.26301E-09  3.25407E-09  3.24401E-09  3.23278E-09  3.22030E-09  3.20649E-09  3.19129E-09  3.17462E-09  3.15642E-09  3.13660E-09
   3.11509E-09  3.09182E-09  3.06673E-09  3.03972E-09  3.01075E-09  2.97972E-09  2.94657E-09  2.91124E-09  2.87364E-09  2.83371E-09
   2.79136E-09  2.74654E-09  2.69919E-09  2.64925E-09  2.59663E-09  2.54130E-09  2.48318E-09  2.42222E-09  2.35835E-09  2.29152E-09
   2.22169E-09  2.14880E-09  2.07281E-09  1.99368E-09  1.91139E-09  1.82591E-09  1.73727E-09  1.64548E-09  1.55063E-09  1.45284E-09
   1.35234E-09  1.24956E-09  1.14522E-09  1.04065E-09  9.38599E-10  8.45518E-10  7.81140E-10  8.37991E-10  1.08723E-09  1.45204E-09
   1.89565E-09  2.37583E-09  2.77429E-09  2.91807E-09  2.69950E-09  2.16194E-09  1.42964E-09  5.85848E-10 -2.89360E-10 -9.42827E-10
  -1.24936E-09 -1.47234E-09 -1.66441E-09 -1.84076E-09 -2.00720E-09 -2.16632E-09 -2.31933E-09 -2.46676E-09 -2.60879E-09 -2.74540E-09
  -2.87647E-09 -3.00177E-09 -3.12103E-09 -3.23394E-09 -3.34018E-09 -3.43940E-09 -3.53138E-09 -3.61621E-09 -3.69408E-09 -3.76517E-09
  -3.82964E-09 -3.88766E-09 -3.93940E-09 -3.98502E-09 -4.02468E-09 -4.05854E-09 -4.08676E-09 -4.10950E-09 -4.12692E-09 -4.13917E-09
  -4.14642E-09 -4.14881E-09 -4.14650E-09 -4.13967E-09 -4.12844E-09 -4.11299E-09 -4.09347E-09 -4.07003E-09 -4.04283E-09 -4.01202E-09
  -3.97776E-09 -3.94020E-09 -3.89949E-09 -3.85580E-09 -3.80928E-09 -3.76011E-09 -3.70849E-09 -3.65460E-09 -3.59863E-09 -3.54076E-09
