 LCModel (Version 6.3-1R) Copyright: S.W. Provencher.          Ref.: Magn. Reson. Med. 30:672-679 (1993).                
 onepulse 23x16_ftSpec_smooth_lcm
 26 lines in following concentration table = NCONC+1
    Conc.  %SD   /Cr    Metabolite                                         
 9.34E-11 197%   0.000 Ala                                                 
 4.24E-10  84%   0.000 Asp                                                 
    0.000 999%   0.000 Cr                                                  
 2.91E-09  13%   0.000 GABA                                                
 1.44E-09  21%   0.000 Glc                                                 
    0.000 999%   0.000 Gln                                                 
 4.11E-10  92%   0.000 Glu                                                 
    0.000 999%   0.000 Glyc                                                
    0.000 999%   0.000 GPC                                                 
    0.000 999%   0.000 GSH                                                 
 1.26E-10 150%   0.000 Ins                                                 
    0.000 999%   0.000 Lac                                                 
    0.000 999%   0.000 NAAG                                                
 1.05E-09  16%   0.000 NAA                                                 
 1.26E-10  41%   0.000 PCh                                                 
    0.000 999%   0.000 PCr                                                 
    0.000 999%   0.000 PE                                                  
    0.000 999%   0.000 Scyllo                                              
    0.000 999%   0.000 Ser                                                 
    0.000 999%   0.000 Tau                                                 
 1.26E-10  41%   0.000 GPC+PCh                                             
 1.05E-09  16%   0.000 NAA+NAAG                                            
 1.26E-10 150%   0.000 Ins+Glyc                                            
    0.000 999%   0.000 Cr+PCr                                              
 4.11E-10  92%   0.000 Glu+Gln                                             
   6 lines in following misc. output table
  FWHM = 0.067 ppm    S/N =   4                                            
  Data shift = 0.324 ppm                                                   
  Ph:  54 deg      28.5 deg/ppm                                            
  alphaB,S = 1.6E-01,   3.8E+01                                            
   16 spline knots.   Ns = 5(1)                                            
  ( 7) 2 infls.   ( 5) 1 extrs.                                            
  363 points on ppm-axis = NY
      4.250000     4.238821     4.227641     4.216462     4.205282     4.194103     4.182923     4.171744     4.160564     4.149385
      4.138206     4.127026     4.115847     4.104667     4.093488     4.082308     4.071129     4.059949     4.048770     4.037591
      4.026411     4.015232     4.004052     3.992873     3.981693     3.970514     3.959334     3.948155     3.936975     3.925796
      3.914617     3.903437     3.892258     3.881078     3.869899     3.858719     3.847540     3.836360     3.825181     3.814002
      3.802822     3.791643     3.780463     3.769284     3.758104     3.746925     3.735745     3.724566     3.713387     3.702207
      3.691028     3.679848     3.668669     3.657489     3.646310     3.635130     3.623951     3.612772     3.601592     3.590413
      3.579233     3.568054     3.556874     3.545695     3.534515     3.523336     3.512156     3.500977     3.489798     3.478618
      3.467439     3.456259     3.445080     3.433900     3.422721     3.411541     3.400362     3.389183     3.378003     3.366824
      3.355644     3.344465     3.333285     3.322106     3.310926     3.299747     3.288568     3.277388     3.266209     3.255029
      3.243850     3.232670     3.221491     3.210311     3.199132     3.187953     3.176773     3.165594     3.154414     3.143235
      3.132055     3.120876     3.109696     3.098517     3.087337     3.076158     3.064979     3.053799     3.042620     3.031440
      3.020261     3.009081     2.997902     2.986722     2.975543     2.964364     2.953184     2.942005     2.930825     2.919646
      2.908466     2.897287     2.886107     2.874928     2.863749     2.852569     2.841390     2.830210     2.819031     2.807851
      2.796672     2.785492     2.774313     2.763134     2.751954     2.740775     2.729595     2.718416     2.707236     2.696057
      2.684877     2.673698     2.662519     2.651339     2.640160     2.628980     2.617801     2.606621     2.595442     2.584262
      2.573083     2.561903     2.550724     2.539545     2.528365     2.517186     2.506006     2.494827     2.483647     2.472468
      2.461288     2.450109     2.438930     2.427750     2.416571     2.405391     2.394212     2.383032     2.371853     2.360673
      2.349494     2.338315     2.327135     2.315956     2.304776     2.293597     2.282417     2.271238     2.260058     2.248879
      2.237700     2.226520     2.215341     2.204161     2.192982     2.181802     2.170623     2.159443     2.148264     2.137084
      2.125905     2.114726     2.103546     2.092367     2.081187     2.070008     2.058828     2.047649     2.036469     2.025290
      2.014111     2.002931     1.991752     1.980572     1.969393     1.958213     1.947034     1.935854     1.924675     1.913496
      1.902316     1.891137     1.879957     1.868778     1.857598     1.846419     1.835239     1.824060     1.812881     1.801701
      1.790522     1.779342     1.768163     1.756983     1.745804     1.734624     1.723445     1.712265     1.701086     1.689907
      1.678727     1.667548     1.656368     1.645189     1.634009     1.622830     1.611650     1.600471     1.589292     1.578112
      1.566933     1.555753     1.544574     1.533394     1.522215     1.511035     1.499856     1.488677     1.477497     1.466318
      1.455138     1.443959     1.432779     1.421600     1.410420     1.399241     1.388062     1.376882     1.365703     1.354523
      1.343344     1.332164     1.320985     1.309805     1.298626     1.287446     1.276267     1.265088     1.253908     1.242729
      1.231549     1.220370     1.209190     1.198011     1.186831     1.175652     1.164473     1.153293     1.142114     1.130934
      1.119755     1.108575     1.097396     1.086216     1.075037     1.063858     1.052678     1.041499     1.030319     1.019140
      1.007960     0.996781     0.985601     0.974422     0.963243     0.952063     0.940884     0.929704     0.918525     0.907345
      0.896166     0.884986     0.873807     0.862628     0.851448     0.840269     0.829089     0.817910     0.806730     0.795551
      0.784371     0.773192     0.762012     0.750833     0.739654     0.728474     0.717295     0.706115     0.694936     0.683756
      0.672577     0.661397     0.650218     0.639039     0.627859     0.616680     0.605500     0.594321     0.583141     0.571962
      0.560782     0.549603     0.538424     0.527244     0.516065     0.504885     0.493706     0.482526     0.471347     0.460167
      0.448988     0.437809     0.426629     0.415450     0.404270     0.393091     0.381911     0.370732     0.359552     0.348373
      0.337193     0.326014     0.314835     0.303655     0.292476     0.281296     0.270117     0.258937     0.247758     0.236578
      0.225399     0.214220     0.203040
 NY phased data points follow
   1.66392E-09  3.16206E-09  6.21366E-09  7.91815E-09  9.52305E-09  8.43620E-09  7.52805E-09  6.83094E-09  6.17102E-09  5.19617E-09
   5.36008E-09  4.54891E-09  5.19782E-09  4.50940E-09  5.65016E-09  5.94398E-09  5.75941E-09  6.97288E-09  7.23195E-09  6.32219E-09
   7.20557E-09  6.31645E-09  7.72282E-09  6.60306E-09  5.54086E-09  5.84391E-09  7.35071E-09  7.43804E-09  8.44959E-09  7.81519E-09
   7.56233E-09  6.60891E-09  7.58362E-09  7.66886E-09  1.07793E-08  1.09889E-08  1.13498E-08  9.65279E-09  1.00786E-08  7.98044E-09
   7.34045E-09  6.77461E-09  7.24282E-09  5.88431E-09  5.70296E-09  6.18086E-09  5.80314E-09  3.95871E-09  5.86570E-09  4.47229E-09
   4.47496E-09  3.91411E-09  4.16457E-09  4.48454E-09  5.20413E-09  4.29276E-09  4.74952E-09  3.08802E-09  3.27868E-09  4.11744E-09
   3.51065E-09  2.90723E-09  4.45580E-09  4.91433E-09  7.22685E-09  1.01789E-08  1.42838E-08  1.30974E-08  1.17063E-08  9.16520E-09
   8.04058E-09  7.04917E-09  6.55505E-09  5.74170E-09  5.10944E-09  4.05718E-09  4.41739E-09  3.81041E-09  3.61020E-09  4.23140E-09
   5.97880E-09  8.91251E-09  1.25388E-08  1.38214E-08  1.37301E-08  1.15774E-08  1.04866E-08  9.07056E-09  9.31337E-09  8.25354E-09
   7.66285E-09  7.05849E-09  7.10528E-09  6.60781E-09  5.95026E-09  5.42640E-09  5.58554E-09  4.75728E-09  4.88671E-09  3.96486E-09
   4.60392E-09  3.88817E-09  4.30499E-09  4.16761E-09  3.79409E-09  4.90759E-09  4.12303E-09  3.47675E-09  4.57721E-09  3.89089E-09
   3.93923E-09  2.88180E-09  2.83339E-09  2.55071E-09  2.84662E-09  3.02433E-09  3.73022E-09  3.69046E-09  3.94744E-09  3.84428E-09
   4.15716E-09  4.33148E-09  4.46601E-09  3.75152E-09  3.66382E-09  3.33311E-09  2.10942E-09  2.37591E-09  1.95841E-09  2.08996E-09
   3.04828E-09  3.52277E-09  2.88303E-09  2.52619E-09  3.07212E-09  2.78308E-09  2.33621E-09  2.33581E-09  2.38871E-09  2.22303E-09
   2.24840E-09  2.79918E-09  3.89116E-09  4.32831E-09  4.19199E-09  3.38024E-09  3.74087E-09  3.78653E-09  5.01056E-09  4.23089E-09
   5.01835E-09  4.22505E-09  4.04679E-09  4.39155E-09  4.07824E-09  3.42865E-09  4.11253E-09  3.56102E-09  4.05765E-09  4.12401E-09
   4.33678E-09  4.44277E-09  4.87527E-09  4.66355E-09  4.72086E-09  3.94409E-09  4.51897E-09  5.25311E-09  6.09272E-09  7.41144E-09
   8.83654E-09  1.03346E-08  1.30415E-08  1.61921E-08  1.59167E-08  1.24266E-08  9.12866E-09  6.46262E-09  5.62789E-09  3.92938E-09
   3.67527E-09  2.35220E-09  1.90683E-09  7.30365E-10  1.04598E-09  3.56956E-10 -5.71489E-10 -9.66436E-10 -1.66328E-09 -2.01577E-09
  -2.73425E-09 -3.65638E-09 -4.22485E-09 -4.64205E-09 -5.83570E-09 -6.61175E-09 -7.28067E-09 -8.53786E-09 -9.20513E-09 -9.84824E-09
  -1.11458E-08 -1.11980E-08 -1.11106E-08 -1.17764E-08 -1.13773E-08 -1.14723E-08 -1.04679E-08 -1.07559E-08 -9.26816E-09 -9.28846E-09
  -8.29355E-09 -6.58610E-09 -6.16378E-09 -4.04629E-09 -4.28439E-09 -3.00010E-09 -1.82502E-09 -1.27408E-09 -1.83640E-09 -5.87901E-10
  -1.65472E-09 -9.06342E-10 -1.78395E-09 -1.78111E-09 -1.36650E-09 -2.46637E-09 -1.78380E-09 -1.23389E-09 -1.37087E-09 -1.25288E-09
  -1.06290E-09 -1.62152E-09 -1.09863E-09 -1.83930E-09 -1.50023E-09 -2.13895E-09 -1.55741E-09 -1.90583E-09 -1.32539E-09 -1.12928E-09
  -9.54848E-10 -1.02720E-09 -1.09006E-09 -1.45934E-09 -1.15990E-09 -1.53859E-09 -1.46818E-09 -1.69110E-09 -1.57338E-09 -1.36284E-09
  -1.33303E-09 -6.55350E-10 -8.97401E-10 -6.27949E-10 -6.21909E-10 -6.92440E-10 -8.43146E-10 -7.18150E-10 -9.24591E-10 -1.79116E-09
  -1.35074E-09 -1.79807E-09 -1.25067E-09 -2.09002E-09 -1.96972E-09 -1.39611E-09 -9.00484E-10 -1.29007E-09 -5.72049E-10 -9.54277E-10
   7.24773E-11  2.40425E-10 -2.81309E-10 -3.00505E-10 -3.64927E-10 -1.03417E-10  2.16737E-10 -1.12273E-09 -5.97168E-10 -7.84737E-10
  -1.28454E-09 -1.14361E-09 -1.67771E-09 -1.15647E-09 -1.51543E-09 -1.33414E-09 -1.05090E-09 -1.45108E-09 -7.50792E-10 -1.16447E-09
  -7.93351E-10 -6.04970E-10 -1.16311E-09 -1.11971E-09 -7.84681E-10 -6.40213E-10 -4.51769E-10 -5.42640E-10 -6.15716E-10 -1.30461E-09
  -1.08281E-09 -6.89523E-10 -5.39474E-10 -1.24589E-09 -6.10445E-10 -6.27850E-10 -5.98643E-10 -8.47600E-10 -1.20927E-09 -2.08318E-10
  -8.57368E-10 -1.11403E-09 -3.64001E-10 -5.21922E-10 -3.84915E-10 -4.28084E-10  2.52344E-11 -8.99053E-10  2.56731E-10 -9.08552E-10
   2.89892E-10 -5.51940E-10 -4.89829E-10  8.19376E-11 -3.45128E-10  4.72468E-12 -9.69908E-12 -4.50849E-10 -1.38386E-10 -4.22224E-10
   1.13314E-10  1.72418E-10 -3.44878E-10 -4.53399E-10 -5.37716E-11 -4.28607E-10 -2.38368E-10 -7.46479E-11 -4.10499E-10 -2.78422E-10
   2.54857E-10 -2.92483E-12  1.35526E-10 -1.38054E-10 -1.95607E-10  1.57208E-10  2.63619E-10 -6.59280E-10  2.93710E-10 -4.69559E-10
   1.10192E-10  5.45179E-11  2.96151E-11  2.88542E-10 -2.25953E-11  1.81071E-10  6.62791E-10  1.41094E-10  5.74834E-11  4.06733E-10
   7.75856E-10 -3.20607E-10  4.87568E-10
 NY points of the fit to the data follow
   4.89294E-09  5.42829E-09  5.98732E-09  6.52104E-09  6.92167E-09  7.06510E-09  6.90181E-09  6.48193E-09  6.05287E-09  5.56019E-09
   5.20841E-09  5.05234E-09  5.03137E-09  5.08319E-09  5.30820E-09  5.62099E-09  5.96864E-09  6.40559E-09  6.90421E-09  7.36589E-09
   7.77815E-09  7.91548E-09  7.63141E-09  7.12271E-09  6.58825E-09  6.12507E-09  5.94179E-09  6.27384E-09  6.92384E-09  7.68927E-09
   8.11539E-09  8.26646E-09  8.49765E-09  8.68442E-09  8.78286E-09  9.10534E-09  9.50242E-09  9.78965E-09  9.75059E-09  9.20975E-09
   8.43977E-09  7.85451E-09  6.85038E-09  5.75353E-09  5.23571E-09  4.73022E-09  4.18755E-09  4.02273E-09  4.06029E-09  4.15735E-09
   4.23553E-09  4.23282E-09  4.17824E-09  4.10585E-09  4.08690E-09  4.15927E-09  4.25051E-09  4.36502E-09  4.40529E-09  4.37876E-09
   4.47309E-09  4.88892E-09  5.51547E-09  6.23885E-09  7.30330E-09  8.37274E-09  9.25731E-09  9.98750E-09  1.04541E-08  1.05556E-08
   1.03062E-08  9.51328E-09  8.23934E-09  7.16428E-09  6.23271E-09  5.15553E-09  4.82189E-09  5.22842E-09  5.73890E-09  6.63179E-09
   7.84759E-09  9.29353E-09  1.09920E-08  1.23657E-08  1.27150E-08  1.20800E-08  1.08732E-08  9.43676E-09  8.00526E-09  7.46859E-09
   7.25418E-09  7.21470E-09  7.10131E-09  6.58977E-09  6.17147E-09  5.87484E-09  5.31333E-09  4.84059E-09  4.55958E-09  4.27681E-09
   4.07322E-09  3.94875E-09  3.88182E-09  3.87128E-09  3.89071E-09  3.92359E-09  3.94406E-09  3.93909E-09  3.91830E-09  3.88433E-09
   3.81889E-09  3.73188E-09  3.67810E-09  3.61288E-09  3.54421E-09  3.52151E-09  3.51376E-09  3.51207E-09  3.51336E-09  3.51616E-09
   3.51966E-09  3.52333E-09  3.52676E-09  3.52962E-09  3.53168E-09  3.53273E-09  3.53258E-09  3.53107E-09  3.52807E-09  3.52343E-09
   3.51702E-09  3.50874E-09  3.49848E-09  3.48612E-09  3.47155E-09  3.45467E-09  3.43539E-09  3.41362E-09  3.38929E-09  3.36230E-09
   3.33256E-09  3.30001E-09  3.26454E-09  3.22609E-09  3.18459E-09  3.13998E-09  3.09222E-09  3.04125E-09  2.98704E-09  2.92956E-09
   2.86884E-09  2.80489E-09  2.73780E-09  2.66767E-09  2.59467E-09  2.51907E-09  2.44126E-09  2.36180E-09  2.28154E-09  2.20175E-09
   2.12443E-09  2.05282E-09  1.99260E-09  1.95461E-09  1.96312E-09  2.08858E-09  2.63921E-09  3.90742E-09  5.53363E-09  7.43586E-09
   9.72407E-09  1.23753E-08  1.49123E-08  1.62500E-08  1.54819E-08  1.27753E-08  9.05230E-09  4.98839E-09  1.57195E-09 -3.87769E-11
  -6.85650E-10 -1.07866E-09 -1.37642E-09 -1.62721E-09 -1.85051E-09 -2.05553E-09 -2.24702E-09 -2.42754E-09 -2.59846E-09 -2.76052E-09
  -2.91401E-09 -3.05900E-09 -3.19537E-09 -3.32285E-09 -3.44117E-09 -3.54996E-09 -3.64896E-09 -3.73842E-09 -3.81868E-09 -3.89004E-09
  -3.95280E-09 -4.00725E-09 -4.05367E-09 -4.09233E-09 -4.12351E-09 -4.14746E-09 -4.16446E-09 -4.17476E-09 -4.17861E-09 -4.17627E-09
  -4.16801E-09 -4.15407E-09 -4.13469E-09 -4.11015E-09 -4.08068E-09 -4.04654E-09 -4.00797E-09 -3.96522E-09 -3.91855E-09 -3.86819E-09
  -3.81441E-09 -3.75743E-09 -3.69752E-09 -3.63492E-09 -3.56986E-09 -3.50254E-09 -3.43316E-09 -3.36190E-09 -3.28897E-09 -3.21455E-09
  -3.13885E-09 -3.06206E-09 -2.98437E-09 -2.90598E-09 -2.82707E-09 -2.74785E-09 -2.66851E-09 -2.58925E-09 -2.51024E-09 -2.43171E-09
  -2.35383E-09 -2.27679E-09 -2.20080E-09 -2.12605E-09 -2.05272E-09 -1.98102E-09 -1.91113E-09 -1.84325E-09 -1.77759E-09 -1.71432E-09
  -1.65363E-09 -1.59574E-09 -1.54071E-09 -1.48845E-09 -1.43887E-09 -1.39191E-09 -1.34744E-09 -1.30540E-09 -1.26568E-09 -1.22819E-09
  -1.19286E-09 -1.15958E-09 -1.12827E-09 -1.09884E-09 -1.07119E-09 -1.04524E-09 -1.02088E-09 -9.98052E-10 -9.76649E-10 -9.56574E-10
  -9.37740E-10 -9.20069E-10 -9.03453E-10 -8.87810E-10 -8.73060E-10 -8.59088E-10 -8.45831E-10 -8.33183E-10 -8.21061E-10 -8.09367E-10
  -7.98053E-10 -7.87092E-10 -7.76456E-10 -7.66119E-10 -7.56064E-10 -7.46255E-10 -7.36676E-10 -7.27296E-10 -7.18090E-10 -7.09038E-10
  -7.00109E-10 -6.91282E-10 -6.82528E-10 -6.73825E-10 -6.65147E-10 -6.56468E-10 -6.47764E-10 -6.39009E-10 -6.30182E-10 -6.21248E-10
  -6.12193E-10 -6.02985E-10 -5.93599E-10 -5.84017E-10 -5.74207E-10 -5.64144E-10 -5.53807E-10 -5.43167E-10 -5.32227E-10 -5.20994E-10
  -5.09480E-10 -4.97694E-10 -4.85648E-10 -4.73349E-10 -4.60810E-10 -4.48040E-10 -4.35049E-10 -4.21847E-10 -4.08446E-10 -3.94853E-10
  -3.81083E-10 -3.67141E-10 -3.53039E-10 -3.38790E-10 -3.24399E-10 -3.09881E-10 -2.95244E-10 -2.80497E-10 -2.65652E-10 -2.50722E-10
  -2.35709E-10 -2.20630E-10 -2.05492E-10 -1.90308E-10 -1.75087E-10 -1.59835E-10 -1.44558E-10 -1.29255E-10 -1.13926E-10 -9.85691E-11
  -8.31859E-11 -6.77744E-11 -5.23352E-11 -3.68675E-11 -2.13733E-11 -5.84766E-12  9.70390E-12  2.52854E-11  4.08959E-11  5.65365E-11
   7.22082E-11  8.79083E-11  1.03640E-10  1.19401E-10  1.35194E-10  1.51018E-10  1.66873E-10  1.82762E-10  1.98682E-10  2.14633E-10
   2.30617E-10  2.46633E-10  2.62685E-10
 NY background values follow
     5.068E-10    5.245E-10    5.421E-10    5.597E-10    5.773E-10    5.947E-10    6.121E-10    6.294E-10    6.465E-10    6.635E-10
     6.804E-10    6.971E-10    7.137E-10    7.300E-10    7.462E-10    7.621E-10    7.779E-10    7.933E-10    8.086E-10    8.235E-10
     8.382E-10    8.526E-10    8.667E-10    8.804E-10    8.938E-10    9.069E-10    9.196E-10    9.319E-10    9.439E-10    9.554E-10
     9.666E-10    9.774E-10    9.879E-10    9.981E-10    1.008E-09    1.018E-09    1.027E-09    1.037E-09    1.046E-09    1.055E-09
     1.064E-09    1.072E-09    1.081E-09    1.090E-09    1.098E-09    1.107E-09    1.116E-09    1.125E-09    1.134E-09    1.143E-09
     1.152E-09    1.161E-09    1.171E-09    1.181E-09    1.191E-09    1.201E-09    1.212E-09    1.223E-09    1.234E-09    1.245E-09
     1.258E-09    1.270E-09    1.283E-09    1.296E-09    1.310E-09    1.324E-09    1.339E-09    1.354E-09    1.370E-09    1.386E-09
     1.403E-09    1.420E-09    1.438E-09    1.457E-09    1.476E-09    1.496E-09    1.517E-09    1.538E-09    1.561E-09    1.583E-09
     1.607E-09    1.631E-09    1.656E-09    1.682E-09    1.709E-09    1.737E-09    1.765E-09    1.794E-09    1.823E-09    1.854E-09
     1.884E-09    1.915E-09    1.947E-09    1.979E-09    2.011E-09    2.044E-09    2.076E-09    2.109E-09    2.141E-09    2.174E-09
     2.207E-09    2.239E-09    2.272E-09    2.304E-09    2.335E-09    2.367E-09    2.398E-09    2.428E-09    2.458E-09    2.488E-09
     2.516E-09    2.544E-09    2.572E-09    2.598E-09    2.623E-09    2.648E-09    2.671E-09    2.693E-09    2.714E-09    2.734E-09
     2.752E-09    2.768E-09    2.783E-09    2.797E-09    2.808E-09    2.818E-09    2.826E-09    2.831E-09    2.835E-09    2.836E-09
     2.836E-09    2.832E-09    2.827E-09    2.819E-09    2.808E-09    2.795E-09    2.778E-09    2.759E-09    2.737E-09    2.712E-09
     2.684E-09    2.653E-09    2.618E-09    2.581E-09    2.539E-09    2.494E-09    2.445E-09    2.393E-09    2.337E-09    2.277E-09
     2.212E-09    2.144E-09    2.071E-09    1.994E-09    1.913E-09    1.827E-09    1.737E-09    1.642E-09    1.542E-09    1.437E-09
     1.327E-09    1.212E-09    1.092E-09    9.673E-10    8.367E-10    7.006E-10    5.591E-10    4.119E-10    2.590E-10    1.010E-10
    -6.176E-11   -2.287E-10   -3.992E-10   -5.727E-10   -7.488E-10   -9.269E-10   -1.106E-09   -1.287E-09   -1.468E-09   -1.648E-09
    -1.828E-09   -2.007E-09   -2.184E-09   -2.358E-09   -2.530E-09   -2.698E-09   -2.862E-09   -3.022E-09   -3.177E-09   -3.326E-09
    -3.469E-09   -3.605E-09   -3.734E-09   -3.856E-09   -3.969E-09   -4.073E-09   -4.168E-09   -4.254E-09   -4.332E-09   -4.400E-09
    -4.461E-09   -4.513E-09   -4.557E-09   -4.594E-09   -4.624E-09   -4.646E-09   -4.662E-09   -4.671E-09   -4.673E-09   -4.670E-09
    -4.661E-09   -4.646E-09   -4.625E-09   -4.600E-09   -4.570E-09   -4.535E-09   -4.495E-09   -4.452E-09   -4.405E-09   -4.354E-09
    -4.299E-09   -4.242E-09   -4.181E-09   -4.118E-09   -4.052E-09   -3.984E-09   -3.914E-09   -3.843E-09   -3.769E-09   -3.694E-09
    -3.618E-09   -3.541E-09   -3.463E-09   -3.384E-09   -3.305E-09   -3.225E-09   -3.145E-09   -3.066E-09   -2.986E-09   -2.907E-09
    -2.829E-09   -2.752E-09   -2.675E-09   -2.600E-09   -2.527E-09   -2.455E-09   -2.384E-09   -2.316E-09   -2.250E-09   -2.186E-09
    -2.125E-09   -2.067E-09   -2.012E-09   -1.959E-09   -1.909E-09   -1.862E-09   -1.817E-09   -1.775E-09   -1.735E-09   -1.697E-09
    -1.662E-09   -1.628E-09   -1.597E-09   -1.567E-09   -1.539E-09   -1.513E-09   -1.488E-09   -1.465E-09   -1.443E-09   -1.423E-09
    -1.404E-09   -1.386E-09   -1.369E-09   -1.353E-09   -1.338E-09   -1.324E-09   -1.311E-09   -1.298E-09   -1.285E-09   -1.273E-09
    -1.262E-09   -1.251E-09   -1.240E-09   -1.229E-09   -1.219E-09   -1.209E-09   -1.199E-09   -1.189E-09   -1.180E-09   -1.171E-09
    -1.162E-09   -1.153E-09   -1.144E-09   -1.135E-09   -1.126E-09   -1.117E-09   -1.108E-09   -1.099E-09   -1.090E-09   -1.081E-09
    -1.072E-09   -1.062E-09   -1.053E-09   -1.043E-09   -1.033E-09   -1.022E-09   -1.012E-09   -1.001E-09   -9.899E-10   -9.785E-10
    -9.668E-10   -9.548E-10   -9.426E-10   -9.301E-10   -9.173E-10   -9.043E-10   -8.911E-10   -8.777E-10   -8.641E-10   -8.504E-10
    -8.364E-10   -8.222E-10   -8.079E-10   -7.935E-10   -7.789E-10   -7.642E-10   -7.494E-10   -7.344E-10   -7.194E-10   -7.042E-10
    -6.890E-10   -6.738E-10   -6.584E-10   -6.430E-10   -6.276E-10   -6.122E-10   -5.967E-10   -5.812E-10   -5.657E-10   -5.501E-10
    -5.345E-10   -5.189E-10   -5.033E-10   -4.876E-10   -4.719E-10   -4.562E-10   -4.405E-10   -4.247E-10   -4.089E-10   -3.930E-10
    -3.771E-10   -3.612E-10   -3.453E-10   -3.294E-10   -3.134E-10   -2.973E-10   -2.813E-10   -2.652E-10   -2.491E-10   -2.329E-10
    -2.167E-10   -2.005E-10   -1.842E-10
 Ala      Conc. = 9.34E-11
   5.65856E-10  5.91861E-10  6.17385E-10  6.40351E-10  6.59394E-10  6.77741E-10  6.95145E-10  7.04745E-10  7.13161E-10  7.26160E-10
   7.32512E-10  7.37838E-10  7.48949E-10  7.58958E-10  7.69038E-10  7.81222E-10  7.94398E-10  8.08043E-10  8.21884E-10  8.35764E-10
   8.49580E-10  8.63261E-10  8.76754E-10  8.90019E-10  9.03021E-10  9.15733E-10  9.28130E-10  9.40190E-10  9.51892E-10  9.63228E-10
   9.74216E-10  9.84878E-10  9.95236E-10  1.00532E-09  1.01514E-09  1.02473E-09  1.03412E-09  1.04333E-09  1.05238E-09  1.06130E-09
   1.07012E-09  1.07885E-09  1.08753E-09  1.09618E-09  1.10483E-09  1.11349E-09  1.12221E-09  1.13100E-09  1.13989E-09  1.14890E-09
   1.15806E-09  1.16740E-09  1.17695E-09  1.18672E-09  1.19675E-09  1.20706E-09  1.21767E-09  1.22861E-09  1.23990E-09  1.25156E-09
   1.26361E-09  1.27605E-09  1.28893E-09  1.30224E-09  1.31601E-09  1.33026E-09  1.34501E-09  1.36027E-09  1.37607E-09  1.39243E-09
   1.40935E-09  1.42687E-09  1.44499E-09  1.46375E-09  1.48315E-09  1.50323E-09  1.52400E-09  1.54547E-09  1.56767E-09  1.59062E-09
   1.61434E-09  1.63885E-09  1.66418E-09  1.69034E-09  1.71737E-09  1.74524E-09  1.77392E-09  1.80336E-09  1.83352E-09  1.86435E-09
   1.89583E-09  1.92794E-09  1.96068E-09  1.99408E-09  2.02821E-09  2.06322E-09  2.09944E-09  2.13753E-09  2.17918E-09  2.22989E-09
   2.29929E-09  2.36748E-09  2.44396E-09  2.54480E-09  2.65346E-09  2.75950E-09  2.84074E-09  2.88695E-09  2.90991E-09  2.91381E-09
   2.88179E-09  2.82441E-09  2.79688E-09  2.75498E-09  2.70711E-09  2.70297E-09  2.71206E-09  2.72571E-09  2.74098E-09  2.75657E-09
   2.77177E-09  2.78615E-09  2.79941E-09  2.81133E-09  2.82175E-09  2.83051E-09  2.83750E-09  2.84258E-09  2.84567E-09  2.84664E-09
   2.84542E-09  2.84189E-09  2.83598E-09  2.82758E-09  2.81662E-09  2.80300E-09  2.78664E-09  2.76744E-09  2.74533E-09  2.72022E-09
   2.69202E-09  2.66064E-09  2.62598E-09  2.58796E-09  2.54647E-09  2.50143E-09  2.45273E-09  2.40030E-09  2.34402E-09  2.28381E-09
   2.21958E-09  2.15123E-09  2.07867E-09  2.00181E-09  1.92057E-09  1.83484E-09  1.74455E-09  1.64961E-09  1.54994E-09  1.44545E-09
   1.33609E-09  1.22181E-09  1.10259E-09  9.78476E-10  8.49699E-10  7.17049E-10  5.84249E-10  4.60234E-10  3.33105E-10  2.05015E-10
   7.83251E-11 -4.62975E-11 -1.74704E-10 -3.25004E-10 -5.12091E-10 -7.31178E-10 -9.64081E-10 -1.20199E-09 -1.43444E-09 -1.62914E-09
  -1.81433E-09 -1.99565E-09 -2.17408E-09 -2.34963E-09 -2.52196E-09 -2.69069E-09 -2.85533E-09 -3.01538E-09 -3.17032E-09 -3.31963E-09
  -3.46279E-09 -3.59927E-09 -3.72853E-09 -3.85002E-09 -3.96322E-09 -4.06759E-09 -4.16275E-09 -4.24885E-09 -4.32614E-09 -4.39485E-09
  -4.45525E-09 -4.50756E-09 -4.55205E-09 -4.58895E-09 -4.61852E-09 -4.64099E-09 -4.65662E-09 -4.66565E-09 -4.66832E-09 -4.66488E-09
  -4.65558E-09 -4.64067E-09 -4.62038E-09 -4.59496E-09 -4.56467E-09 -4.52974E-09 -4.49043E-09 -4.44697E-09 -4.39961E-09 -4.34860E-09
  -4.29418E-09 -4.23660E-09 -4.17610E-09 -4.11293E-09 -4.04733E-09 -3.97948E-09 -3.90958E-09 -3.83783E-09 -3.76441E-09 -3.68953E-09
  -3.61337E-09 -3.53613E-09 -3.45800E-09 -3.37919E-09 -3.29986E-09 -3.22024E-09 -3.14050E-09 -3.06084E-09 -2.98145E-09 -2.90254E-09
  -2.82429E-09 -2.74689E-09 -2.67054E-09 -2.59545E-09 -2.52177E-09 -2.44973E-09 -2.37951E-09 -2.31131E-09 -2.24531E-09 -2.18173E-09
  -2.12073E-09 -2.06253E-09 -2.00719E-09 -1.95462E-09 -1.90476E-09 -1.85749E-09 -1.81274E-09 -1.77041E-09 -1.73040E-09 -1.69264E-09
  -1.65703E-09 -1.62348E-09 -1.59190E-09 -1.56219E-09 -1.53428E-09 -1.50806E-09 -1.48344E-09 -1.46036E-09 -1.43870E-09 -1.41837E-09
  -1.39929E-09 -1.38136E-09 -1.36450E-09 -1.34861E-09 -1.33362E-09 -1.31941E-09 -1.30591E-09 -1.29303E-09 -1.28067E-09 -1.26874E-09
  -1.25719E-09 -1.24600E-09 -1.23514E-09 -1.22457E-09 -1.21429E-09 -1.20426E-09 -1.19446E-09 -1.18485E-09 -1.17543E-09 -1.16615E-09
  -1.15701E-09 -1.14796E-09 -1.13899E-09 -1.13008E-09 -1.12118E-09 -1.11229E-09 -1.10338E-09 -1.09441E-09 -1.08537E-09 -1.07623E-09
  -1.06697E-09 -1.05755E-09 -1.04796E-09 -1.03817E-09 -1.02816E-09 -1.01789E-09 -1.00735E-09 -9.96508E-10 -9.85366E-10 -9.73931E-10
  -9.62216E-10 -9.50230E-10 -9.37984E-10 -9.25485E-10 -9.12747E-10 -8.99778E-10 -8.86589E-10 -8.73190E-10 -8.59591E-10 -8.45801E-10
  -8.31834E-10 -8.17696E-10 -8.03397E-10 -7.88952E-10 -7.74365E-10 -7.59653E-10 -7.44820E-10 -7.29877E-10 -7.14837E-10 -6.99712E-10
  -6.84504E-10 -6.69230E-10 -6.53897E-10 -6.38518E-10 -6.23102E-10 -6.07655E-10 -5.92183E-10 -5.76685E-10 -5.61160E-10 -5.45608E-10
  -5.30029E-10 -5.14422E-10 -4.98787E-10 -4.83123E-10 -4.67432E-10 -4.51710E-10 -4.35962E-10 -4.20183E-10 -4.04375E-10 -3.88536E-10
  -3.72666E-10 -3.56767E-10 -3.40836E-10 -3.24875E-10 -3.08881E-10 -2.92857E-10 -2.76800E-10 -2.60710E-10 -2.44587E-10 -2.28433E-10
  -2.12245E-10 -1.96025E-10 -1.79767E-10
 Asp      Conc. = 4.24E-10
   1.03877E-09  1.01049E-09  9.75284E-10  9.25227E-10  8.73599E-10  8.12681E-10  7.69689E-10  7.34597E-10  7.25847E-10  7.27737E-10
   7.35009E-10  7.45363E-10  7.57586E-10  7.71024E-10  7.84938E-10  7.99042E-10  8.13325E-10  8.27716E-10  8.42149E-10  8.56571E-10
   8.70942E-10  8.85230E-10  8.99414E-10  9.13480E-10  9.27423E-10  9.41245E-10  9.54959E-10  9.68589E-10  9.82178E-10  9.95799E-10
   1.00959E-09  1.02373E-09  1.03851E-09  1.05435E-09  1.07204E-09  1.09319E-09  1.12179E-09  1.15380E-09  1.19409E-09  1.23484E-09
   1.27660E-09  1.31823E-09  1.35729E-09  1.39617E-09  1.42779E-09  1.47485E-09  1.52271E-09  1.59291E-09  1.71487E-09  1.84693E-09
   1.96238E-09  2.00888E-09  1.97491E-09  1.88670E-09  1.78706E-09  1.70674E-09  1.62258E-09  1.59570E-09  1.55756E-09  1.49648E-09
   1.47299E-09  1.47892E-09  1.48393E-09  1.48808E-09  1.49210E-09  1.48538E-09  1.46488E-09  1.45853E-09  1.46002E-09  1.46603E-09
   1.47507E-09  1.48633E-09  1.49937E-09  1.51389E-09  1.52971E-09  1.54671E-09  1.56481E-09  1.58392E-09  1.60403E-09  1.62510E-09
   1.64712E-09  1.67006E-09  1.69393E-09  1.71874E-09  1.74446E-09  1.77108E-09  1.79854E-09  1.82675E-09  1.85566E-09  1.88520E-09
   1.91530E-09  1.94591E-09  1.97695E-09  2.00837E-09  2.04010E-09  2.07209E-09  2.10426E-09  2.13657E-09  2.16894E-09  2.20133E-09
   2.23366E-09  2.26589E-09  2.29794E-09  2.32976E-09  2.36129E-09  2.39247E-09  2.42325E-09  2.45355E-09  2.48333E-09  2.51252E-09
   2.54106E-09  2.56890E-09  2.59597E-09  2.62221E-09  2.64752E-09  2.67183E-09  2.69505E-09  2.71710E-09  2.73788E-09  2.75733E-09
   2.77535E-09  2.79186E-09  2.80678E-09  2.82002E-09  2.83151E-09  2.84115E-09  2.84886E-09  2.85457E-09  2.85818E-09  2.85962E-09
   2.85879E-09  2.85562E-09  2.85003E-09  2.84192E-09  2.83122E-09  2.81785E-09  2.80172E-09  2.78274E-09  2.76085E-09  2.73594E-09
   2.70794E-09  2.67677E-09  2.64232E-09  2.60452E-09  2.56326E-09  2.51845E-09  2.47001E-09  2.41784E-09  2.36185E-09  2.30196E-09
   2.23808E-09  2.17012E-09  2.09801E-09  2.02165E-09  1.94098E-09  1.85592E-09  1.76642E-09  1.67241E-09  1.57386E-09  1.47076E-09
   1.36314E-09  1.25111E-09  1.13492E-09  1.01507E-09  8.92780E-10  7.71358E-10  6.63898E-10  6.18330E-10  5.81171E-10  5.56629E-10
   5.53887E-10  5.75967E-10  6.00399E-10  5.46056E-10  3.36362E-10 -1.89881E-11 -4.38876E-10 -8.80751E-10 -1.31152E-09 -1.56873E-09
  -1.77477E-09 -1.96590E-09 -2.14982E-09 -2.32877E-09 -2.50337E-09 -2.67367E-09 -2.83945E-09 -3.00034E-09 -3.15592E-09 -3.30573E-09
  -3.44928E-09 -3.58607E-09 -3.71558E-09 -3.83727E-09 -3.95063E-09 -4.05514E-09 -4.15042E-09 -4.23661E-09 -4.31398E-09 -4.38276E-09
  -4.44321E-09 -4.49558E-09 -4.54011E-09 -4.57704E-09 -4.60664E-09 -4.62914E-09 -4.64479E-09 -4.65384E-09 -4.65653E-09 -4.65311E-09
  -4.64382E-09 -4.62892E-09 -4.60864E-09 -4.58324E-09 -4.55295E-09 -4.51803E-09 -4.47872E-09 -4.43527E-09 -4.38791E-09 -4.33691E-09
  -4.28249E-09 -4.22492E-09 -4.16442E-09 -4.10126E-09 -4.03566E-09 -3.96781E-09 -3.89792E-09 -3.82616E-09 -3.75275E-09 -3.67787E-09
