 LCModel (Version 6.3-1R) Copyright: S.W. Provencher.          Ref.: Magn. Reson. Med. 30:672-679 (1993).                
 onepulse 23x12_ftSpec_smooth_lcm
 26 lines in following concentration table = NCONC+1
    Conc.  %SD /Cr+PCr  Metabolite                                         
 5.09E-10  70%   0.865 Ala                                                 
 2.88E-09  32%   4.892 Asp                                                 
    0.000 999%   0.000 Cr                                                  
 6.23E-10 112%   1.059 GABA                                                
 2.47E-10 401%   0.420 Glc                                                 
    0.000 999%   0.000 Gln                                                 
    0.000 999%   0.000 Glu                                                 
    0.000 999%   0.000 Glyc                                                
    0.000 999%   0.000 GPC                                                 
    0.000 999%   0.000 GSH                                                 
 1.32E-09  45%   2.237 Ins                                                 
 2.88E-10 120%   0.490 Lac                                                 
    0.000 999%   0.000 NAAG                                                
    0.000 999%   0.000 NAA                                                 
    0.000 999%   0.000 PCh                                                 
 5.88E-10  61%   1.000 PCr                                                 
    0.000 999%   0.000 PE                                                  
 6.94E-11 314%   0.118 Scyllo                                              
 3.86E-09  46%   6.566 Ser                                                 
    0.000 999%   0.000 Tau                                                 
    0.000 999%   0.000 GPC+PCh                                             
    0.000 999%   0.000 NAA+NAAG                                            
 1.32E-09  45%   2.237 Ins+Glyc                                            
 5.88E-10  61%   1.000 Cr+PCr                                              
    0.000 999%   0.000 Glu+Gln                                             
   6 lines in following misc. output table
  FWHM = 0.123 ppm    S/N =   3                                            
  Data shift = 0.447 ppm                                                   
  Ph: -72 deg      82.7 deg/ppm                                            
  alphaB,S = 5.6E-01,   2.4E+01                                            
    9 spline knots.   Ns = 5(1)                                            
  (10) 6 infls.   ( 9) 5 extrs.                                            
  363 points on ppm-axis = NY
      4.250000     4.238821     4.227641     4.216462     4.205282     4.194103     4.182923     4.171744     4.160564     4.149385
      4.138206     4.127026     4.115847     4.104667     4.093488     4.082308     4.071129     4.059949     4.048770     4.037591
      4.026411     4.015232     4.004052     3.992873     3.981693     3.970514     3.959334     3.948155     3.936975     3.925796
      3.914617     3.903437     3.892258     3.881078     3.869899     3.858719     3.847540     3.836360     3.825181     3.814002
      3.802822     3.791643     3.780463     3.769284     3.758104     3.746925     3.735745     3.724566     3.713387     3.702207
      3.691028     3.679848     3.668669     3.657489     3.646310     3.635130     3.623951     3.612772     3.601592     3.590413
      3.579233     3.568054     3.556874     3.545695     3.534515     3.523336     3.512156     3.500977     3.489798     3.478618
      3.467439     3.456259     3.445080     3.433900     3.422721     3.411541     3.400362     3.389183     3.378003     3.366824
      3.355644     3.344465     3.333285     3.322106     3.310926     3.299747     3.288568     3.277388     3.266209     3.255029
      3.243850     3.232670     3.221491     3.210311     3.199132     3.187953     3.176773     3.165594     3.154414     3.143235
      3.132055     3.120876     3.109696     3.098517     3.087337     3.076158     3.064979     3.053799     3.042620     3.031440
      3.020261     3.009081     2.997902     2.986722     2.975543     2.964364     2.953184     2.942005     2.930825     2.919646
      2.908466     2.897287     2.886107     2.874928     2.863749     2.852569     2.841390     2.830210     2.819031     2.807851
      2.796672     2.785492     2.774313     2.763134     2.751954     2.740775     2.729595     2.718416     2.707236     2.696057
      2.684877     2.673698     2.662519     2.651339     2.640160     2.628980     2.617801     2.606621     2.595442     2.584262
      2.573083     2.561903     2.550724     2.539545     2.528365     2.517186     2.506006     2.494827     2.483647     2.472468
      2.461288     2.450109     2.438930     2.427750     2.416571     2.405391     2.394212     2.383032     2.371853     2.360673
      2.349494     2.338315     2.327135     2.315956     2.304776     2.293597     2.282417     2.271238     2.260058     2.248879
      2.237700     2.226520     2.215341     2.204161     2.192982     2.181802     2.170623     2.159443     2.148264     2.137084
      2.125905     2.114726     2.103546     2.092367     2.081187     2.070008     2.058828     2.047649     2.036469     2.025290
      2.014111     2.002931     1.991752     1.980572     1.969393     1.958213     1.947034     1.935854     1.924675     1.913496
      1.902316     1.891137     1.879957     1.868778     1.857598     1.846419     1.835239     1.824060     1.812881     1.801701
      1.790522     1.779342     1.768163     1.756983     1.745804     1.734624     1.723445     1.712265     1.701086     1.689907
      1.678727     1.667548     1.656368     1.645189     1.634009     1.622830     1.611650     1.600471     1.589292     1.578112
      1.566933     1.555753     1.544574     1.533394     1.522215     1.511035     1.499856     1.488677     1.477497     1.466318
      1.455138     1.443959     1.432779     1.421600     1.410420     1.399241     1.388062     1.376882     1.365703     1.354523
      1.343344     1.332164     1.320985     1.309805     1.298626     1.287446     1.276267     1.265088     1.253908     1.242729
      1.231549     1.220370     1.209190     1.198011     1.186831     1.175652     1.164473     1.153293     1.142114     1.130934
      1.119755     1.108575     1.097396     1.086216     1.075037     1.063858     1.052678     1.041499     1.030319     1.019140
      1.007960     0.996781     0.985601     0.974422     0.963243     0.952063     0.940884     0.929704     0.918525     0.907345
      0.896166     0.884986     0.873807     0.862628     0.851448     0.840269     0.829089     0.817910     0.806730     0.795551
      0.784371     0.773192     0.762012     0.750833     0.739654     0.728474     0.717295     0.706115     0.694936     0.683756
      0.672577     0.661397     0.650218     0.639039     0.627859     0.616680     0.605500     0.594321     0.583141     0.571962
      0.560782     0.549603     0.538424     0.527244     0.516065     0.504885     0.493706     0.482526     0.471347     0.460167
      0.448988     0.437809     0.426629     0.415450     0.404270     0.393091     0.381911     0.370732     0.359552     0.348373
      0.337193     0.326014     0.314835     0.303655     0.292476     0.281296     0.270117     0.258937     0.247758     0.236578
      0.225399     0.214220     0.203040
 NY phased data points follow
  -1.06731E-08 -1.04166E-08 -1.09333E-08 -1.14721E-08 -1.15390E-08 -1.22176E-08 -1.25708E-08 -1.31310E-08 -1.23298E-08 -1.26806E-08
  -1.23729E-08 -1.14150E-08 -1.17389E-08 -1.16934E-08 -1.12980E-08 -1.27023E-08 -1.25995E-08 -1.26389E-08 -1.19757E-08 -1.17721E-08
  -1.15159E-08 -1.22323E-08 -1.36315E-08 -1.46964E-08 -1.43514E-08 -1.42230E-08 -1.33831E-08 -1.18337E-08 -1.07057E-08 -9.81411E-09
  -9.45927E-09 -9.28347E-09 -8.73109E-09 -8.04959E-09 -8.41049E-09 -7.88422E-09 -7.18620E-09 -6.82053E-09 -6.11635E-09 -6.16841E-09
  -6.17576E-09 -6.25298E-09 -7.01707E-09 -5.67601E-09 -6.25963E-09 -6.06401E-09 -5.44669E-09 -5.12334E-09 -5.36582E-09 -6.22300E-09
  -6.95687E-09 -7.72993E-09 -8.97712E-09 -1.21204E-08 -1.45158E-08 -1.44184E-08 -1.25103E-08 -1.08310E-08 -8.87173E-09 -7.00302E-09
  -5.62484E-09 -5.40477E-09 -5.27942E-09 -4.16031E-09 -4.40679E-09 -3.71580E-09 -4.94542E-09 -5.09954E-09 -6.59877E-09 -8.47771E-09
  -1.25488E-08 -1.39112E-08 -1.30903E-08 -9.66479E-09 -8.22387E-09 -7.29134E-09 -6.01635E-09 -4.41898E-09 -4.14984E-09 -3.37647E-09
  -3.03747E-09 -2.30326E-09 -1.78268E-09 -8.40941E-10 -1.48610E-09  4.12554E-11  1.20315E-10  3.21791E-10  5.58779E-10  1.10580E-09
   1.45419E-09  1.75391E-09  7.82644E-10  7.25036E-10  1.38735E-09  1.88623E-09  1.60073E-09  1.55923E-09  2.47589E-09  3.17515E-09
   2.89353E-09  3.31126E-09  2.67629E-09  2.47442E-09  9.97167E-10  1.54383E-09  1.53969E-09  1.77881E-09  7.45344E-10  1.86662E-09
   1.97020E-09  2.38368E-09  2.11893E-09  3.42167E-09  3.35945E-09  3.62522E-09  3.32514E-09  3.75691E-09  2.63702E-09  2.50883E-09
   2.25433E-09  2.55321E-09  2.05359E-09  2.61364E-09  2.43135E-09  2.99611E-09  2.26230E-09  2.43034E-09  1.98313E-09  2.15426E-09
   6.29655E-10  6.54945E-10  1.26549E-09  2.48002E-09  2.32378E-09  2.61955E-09  1.96765E-09  2.92640E-09  2.99923E-09  3.61289E-09
   4.50449E-09  4.54902E-09  4.42415E-09  5.07839E-09  4.78834E-09  4.93187E-09  4.72278E-09  4.96559E-09  4.60457E-09  4.87847E-09
   4.38975E-09  4.82895E-09  4.38607E-09  4.69603E-09  4.59568E-09  4.59202E-09  3.53614E-09  2.79270E-09  2.01524E-09  2.44529E-09
   1.14916E-09 -1.41333E-11  1.48551E-09  8.55120E-09  1.24629E-08  1.52837E-08  1.56738E-08  1.64771E-08  1.64709E-08  1.75431E-08
   1.69002E-08  1.72943E-08  1.70432E-08  1.76990E-08  1.69900E-08  1.67606E-08  1.65689E-08  1.64465E-08  1.54162E-08  1.52896E-08
   1.36742E-08  1.30265E-08  1.16479E-08  1.13644E-08  8.69094E-09  7.44340E-09  4.97505E-09  3.24817E-09  1.10774E-09 -4.97875E-10
  -2.94117E-09 -4.28254E-09 -6.33293E-09 -6.98211E-09 -8.91923E-09 -8.98860E-09 -9.63036E-09 -9.52114E-09 -9.11356E-09 -8.17378E-09
  -8.16773E-09 -6.82022E-09 -6.16496E-09 -5.05547E-09 -3.77684E-09 -2.82782E-09 -2.59577E-09 -1.77967E-09 -2.22361E-09 -1.78385E-09
  -2.26695E-09 -2.49942E-09 -2.77783E-09 -1.99380E-09 -1.80080E-09 -1.18973E-09 -1.43956E-09 -1.26131E-09 -1.57414E-09 -1.19241E-09
  -2.11341E-09 -8.89138E-10 -1.67060E-09 -1.07511E-09 -1.88673E-09 -1.76106E-09 -1.27515E-09 -1.12136E-09 -9.24780E-10 -1.21474E-09
  -1.51097E-09 -6.81732E-10 -1.14591E-09 -7.30962E-10 -1.82782E-09 -1.61730E-09 -1.52335E-09 -1.14200E-09 -1.31082E-09 -1.20710E-09
  -1.37440E-09 -3.72757E-10 -1.13247E-09 -1.99039E-10 -5.02928E-10  1.42130E-10 -9.43329E-10  4.92923E-10 -1.02999E-09 -6.70145E-10
  -1.11222E-09 -5.13955E-10 -1.68118E-09 -1.71009E-09 -1.65840E-09 -1.66584E-09 -1.74005E-09 -9.68861E-10 -1.49637E-09 -7.71665E-10
  -1.13888E-09 -4.08236E-10 -3.65785E-10  2.78054E-10 -6.16879E-12  5.37271E-10  6.86954E-10  8.39658E-10  5.38334E-10  3.80056E-10
  -1.39624E-10  4.85814E-10  8.84931E-11  1.08515E-10 -5.09444E-10  2.54242E-11 -7.81299E-10 -3.21616E-10 -7.99351E-10 -4.26333E-10
  -5.48290E-10 -7.68195E-10 -1.24058E-09 -4.86033E-10 -8.53478E-10 -7.44436E-10 -9.99806E-10 -6.04947E-10 -8.81983E-10 -6.84268E-10
  -9.36298E-10 -7.45344E-10 -7.54820E-10 -7.90412E-10 -8.02396E-10 -7.05177E-10 -3.25288E-10 -7.18519E-10 -3.71624E-10 -4.04312E-10
  -8.11541E-10  5.27303E-11 -6.36922E-11 -3.51700E-10 -2.83178E-10  1.87658E-10 -5.55427E-10  7.98541E-11  3.12931E-11  1.17436E-11
   5.24303E-10  3.54501E-10  6.36870E-10  1.25059E-10  3.83296E-10  5.45743E-10  3.05331E-10  6.51105E-10  7.91589E-10  9.30237E-10
   1.54241E-10  1.26832E-09  1.18426E-09  8.26308E-10  1.18938E-09  1.25392E-09  1.37410E-09  1.07559E-09  1.18191E-09  1.20091E-09
   1.60387E-09  1.57318E-09  1.06484E-09  1.75026E-09  1.58250E-09  2.07755E-09  1.44971E-09  2.28692E-09  2.05793E-09  2.12179E-09
   1.75093E-09  2.13637E-09  2.18535E-09  2.37938E-09  2.21087E-09  2.35156E-09  2.50753E-09  2.43650E-09  2.23613E-09  3.13511E-09
   3.01195E-09  2.57641E-09  2.26838E-09  2.47288E-09  2.80509E-09  3.19376E-09  2.95548E-09  3.00499E-09  2.91480E-09  2.95878E-09
   3.05467E-09  3.44080E-09  2.87114E-09
 NY points of the fit to the data follow
  -6.24453E-09 -9.60327E-09 -1.14542E-08 -1.17287E-08 -1.20936E-08 -1.30063E-08 -1.39179E-08 -1.36475E-08 -1.25913E-08 -1.17311E-08
  -1.16868E-08 -1.17695E-08 -1.16127E-08 -1.14111E-08 -1.15328E-08 -1.18795E-08 -1.19134E-08 -1.19582E-08 -1.26787E-08 -1.35625E-08
  -1.37136E-08 -1.32987E-08 -1.30915E-08 -1.30155E-08 -1.27534E-08 -1.23570E-08 -1.19712E-08 -1.16910E-08 -1.14189E-08 -1.08406E-08
  -1.01524E-08 -8.89117E-09 -7.75964E-09 -7.41752E-09 -7.52862E-09 -7.50285E-09 -7.36401E-09 -7.18552E-09 -7.14280E-09 -7.25066E-09
  -7.47164E-09 -7.82022E-09 -8.24527E-09 -8.18505E-09 -7.05670E-09 -6.80418E-09 -7.29133E-09 -7.40440E-09 -6.99370E-09 -6.58706E-09
  -6.26569E-09 -6.06133E-09 -6.32691E-09 -7.02419E-09 -7.43514E-09 -7.87124E-09 -7.51351E-09 -7.23999E-09 -7.33271E-09 -7.43813E-09
  -7.22292E-09 -6.93987E-09 -6.65321E-09 -6.31092E-09 -5.91844E-09 -5.76523E-09 -5.72065E-09 -5.60964E-09 -5.43066E-09 -5.27165E-09
  -5.16471E-09 -5.11384E-09 -5.08471E-09 -4.97959E-09 -4.88209E-09 -4.91102E-09 -4.78605E-09 -4.55107E-09 -4.38694E-09 -4.15808E-09
  -3.88028E-09 -3.67100E-09 -3.37750E-09 -2.99951E-09 -2.76069E-09 -2.52103E-09 -2.19954E-09 -1.94076E-09 -1.72277E-09 -1.52226E-09
  -1.35851E-09 -1.17385E-09 -9.85865E-10 -9.08475E-10 -8.04744E-10 -5.93362E-10 -4.60802E-10 -3.17578E-10 -2.80074E-11  4.28973E-10
   9.93537E-10  1.20139E-09  1.43602E-09  1.92810E-09  2.26951E-09  2.46870E-09  2.71347E-09  3.03663E-09  3.12057E-09  3.12725E-09
   3.06919E-09  2.98297E-09  3.03444E-09  2.80071E-09  2.50259E-09  2.45526E-09  2.40539E-09  2.29037E-09  2.20317E-09  2.22726E-09
   2.10146E-09  1.99801E-09  2.02695E-09  2.08499E-09  2.15055E-09  2.21720E-09  2.28243E-09  2.34511E-09  2.40469E-09  2.46091E-09
   2.51362E-09  2.56277E-09  2.60837E-09  2.65043E-09  2.68900E-09  2.72413E-09  2.75589E-09  2.78433E-09  2.80954E-09  2.83160E-09
   2.85060E-09  2.86665E-09  2.87983E-09  2.89023E-09  2.89801E-09  2.90329E-09  2.90619E-09  2.90689E-09  2.90559E-09  2.90247E-09
   2.89781E-09  2.89194E-09  2.88523E-09  2.87815E-09  2.87141E-09  2.86585E-09  2.86263E-09  2.86349E-09  2.87098E-09  2.88899E-09
   2.92404E-09  2.98739E-09  3.10082E-09  3.31151E-09  3.74254E-09  4.82430E-09  8.83919E-09  1.60583E-08  1.95005E-08  1.95730E-08
   1.85405E-08  1.76780E-08  1.73204E-08  1.75771E-08  1.82369E-08  1.84585E-08  1.64906E-08  1.09917E-08  5.01993E-09  3.36536E-09
   2.69271E-09  2.31796E-09  2.06862E-09  1.88304E-09  1.73395E-09  1.60753E-09  1.49606E-09  1.39491E-09  1.30117E-09  1.21290E-09
   1.12878E-09  1.04791E-09  9.69612E-10  8.93425E-10  8.18990E-10  7.46039E-10  6.74390E-10  6.03892E-10  5.34436E-10  4.65949E-10
   3.98372E-10  3.31660E-10  2.65794E-10  2.00763E-10  1.36554E-10  7.31724E-11  1.06242E-11 -5.10644E-11 -1.11895E-10 -1.71843E-10
  -2.30881E-10 -2.88980E-10 -3.46119E-10 -4.02266E-10 -4.57401E-10 -5.11483E-10 -5.64476E-10 -6.16354E-10 -6.67088E-10 -7.16634E-10
  -7.64955E-10 -8.12021E-10 -8.57798E-10 -9.02252E-10 -9.45351E-10 -9.87037E-10 -1.02730E-09 -1.06610E-09 -1.10338E-09 -1.13911E-09
  -1.17328E-09 -1.20582E-09 -1.23672E-09 -1.26593E-09 -1.29342E-09 -1.31914E-09 -1.34308E-09 -1.36519E-09 -1.38544E-09 -1.40378E-09
  -1.42020E-09 -1.43464E-09 -1.44709E-09 -1.45755E-09 -1.46605E-09 -1.47264E-09 -1.47735E-09 -1.48021E-09 -1.48125E-09 -1.48052E-09
  -1.47805E-09 -1.47388E-09 -1.46804E-09 -1.46056E-09 -1.45148E-09 -1.44084E-09 -1.42867E-09 -1.41501E-09 -1.39989E-09 -1.38335E-09
  -1.36543E-09 -1.34615E-09 -1.32556E-09 -1.30368E-09 -1.28056E-09 -1.25622E-09 -1.23071E-09 -1.20406E-09 -1.17630E-09 -1.14747E-09
  -1.11760E-09 -1.08673E-09 -1.05489E-09 -1.02212E-09 -9.88446E-10 -9.53907E-10 -9.18537E-10 -8.82369E-10 -8.45436E-10 -8.07775E-10
  -7.69417E-10 -7.30400E-10 -6.90752E-10 -6.50507E-10 -6.09701E-10 -5.68367E-10 -5.26534E-10 -4.84239E-10 -4.41515E-10 -3.98394E-10
  -3.54905E-10 -3.11079E-10 -2.66955E-10 -2.22563E-10 -1.77931E-10 -1.33097E-10 -8.80859E-11 -4.29307E-11  2.33769E-12  4.76884E-11
   9.30861E-11  1.38503E-10  1.83914E-10  2.29294E-10  2.74638E-10  3.19947E-10  3.65220E-10  4.10449E-10  4.55640E-10  5.00780E-10
   5.45873E-10  5.90915E-10  6.35906E-10  6.80838E-10  7.25714E-10  7.70530E-10  8.15285E-10  8.59971E-10  9.04593E-10  9.49140E-10
   9.93618E-10  1.03802E-09  1.08234E-09  1.12658E-09  1.17074E-09  1.21482E-09  1.25881E-09  1.30270E-09  1.34650E-09  1.39021E-09
   1.43382E-09  1.47732E-09  1.52072E-09  1.56402E-09  1.60720E-09  1.65028E-09  1.69324E-09  1.73609E-09  1.77881E-09  1.82142E-09
   1.86389E-09  1.90624E-09  1.94846E-09  1.99055E-09  2.03250E-09  2.07431E-09  2.11599E-09  2.15752E-09  2.19890E-09  2.24014E-09
   2.28122E-09  2.32214E-09  2.36291E-09  2.40352E-09  2.44398E-09  2.48426E-09  2.52437E-09  2.56432E-09  2.60409E-09  2.64368E-09
   2.68310E-09  2.72233E-09  2.76138E-09
 NY background values follow
    -1.755E-08   -1.741E-08   -1.728E-08   -1.714E-08   -1.700E-08   -1.686E-08   -1.672E-08   -1.658E-08   -1.644E-08   -1.630E-08
    -1.615E-08   -1.601E-08   -1.586E-08   -1.571E-08   -1.557E-08   -1.542E-08   -1.527E-08   -1.512E-08   -1.496E-08   -1.481E-08
    -1.466E-08   -1.450E-08   -1.435E-08   -1.419E-08   -1.403E-08   -1.387E-08   -1.371E-08   -1.355E-08   -1.339E-08   -1.323E-08
    -1.307E-08   -1.291E-08   -1.274E-08   -1.258E-08   -1.241E-08   -1.224E-08   -1.208E-08   -1.191E-08   -1.174E-08   -1.157E-08
    -1.140E-08   -1.123E-08   -1.106E-08   -1.089E-08   -1.071E-08   -1.054E-08   -1.037E-08   -1.019E-08   -1.002E-08   -9.839E-09
    -9.662E-09   -9.485E-09   -9.307E-09   -9.129E-09   -8.950E-09   -8.770E-09   -8.590E-09   -8.410E-09   -8.228E-09   -8.047E-09
    -7.865E-09   -7.682E-09   -7.499E-09   -7.316E-09   -7.133E-09   -6.949E-09   -6.765E-09   -6.581E-09   -6.397E-09   -6.213E-09
    -6.029E-09   -5.846E-09   -5.663E-09   -5.480E-09   -5.297E-09   -5.115E-09   -4.934E-09   -4.753E-09   -4.573E-09   -4.394E-09
    -4.216E-09   -4.039E-09   -3.862E-09   -3.687E-09   -3.513E-09   -3.340E-09   -3.169E-09   -2.999E-09   -2.831E-09   -2.664E-09
    -2.498E-09   -2.335E-09   -2.173E-09   -2.013E-09   -1.855E-09   -1.699E-09   -1.546E-09   -1.394E-09   -1.245E-09   -1.097E-09
    -9.528E-10   -8.107E-10   -6.711E-10   -5.342E-10   -3.999E-10   -2.685E-10   -1.399E-10   -1.436E-11    1.082E-10    2.276E-10
     3.439E-10    4.569E-10    5.666E-10    6.729E-10    7.756E-10    8.748E-10    9.703E-10    1.062E-09    1.150E-09    1.234E-09
     1.314E-09    1.391E-09    1.463E-09    1.531E-09    1.595E-09    1.655E-09    1.711E-09    1.764E-09    1.813E-09    1.858E-09
     1.899E-09    1.937E-09    1.971E-09    2.002E-09    2.030E-09    2.054E-09    2.075E-09    2.092E-09    2.106E-09    2.118E-09
     2.126E-09    2.131E-09    2.133E-09    2.132E-09    2.129E-09    2.122E-09    2.113E-09    2.101E-09    2.087E-09    2.070E-09
     2.051E-09    2.029E-09    2.005E-09    1.978E-09    1.950E-09    1.919E-09    1.886E-09    1.851E-09    1.814E-09    1.775E-09
     1.735E-09    1.692E-09    1.648E-09    1.602E-09    1.555E-09    1.506E-09    1.455E-09    1.404E-09    1.350E-09    1.296E-09
     1.240E-09    1.184E-09    1.126E-09    1.067E-09    1.007E-09    9.466E-10    8.851E-10    8.229E-10    7.600E-10    6.965E-10
     6.325E-10    5.679E-10    5.030E-10    4.377E-10    3.720E-10    3.061E-10    2.399E-10    1.736E-10    1.070E-10    4.040E-11
    -2.631E-11   -9.303E-11   -1.597E-10   -2.264E-10   -2.929E-10   -3.593E-10   -4.255E-10   -4.915E-10   -5.572E-10   -6.225E-10
    -6.875E-10   -7.521E-10   -8.163E-10   -8.799E-10   -9.430E-10   -1.006E-09   -1.067E-09   -1.129E-09   -1.189E-09   -1.249E-09
    -1.308E-09   -1.366E-09   -1.424E-09   -1.480E-09   -1.535E-09   -1.590E-09   -1.643E-09   -1.696E-09   -1.747E-09   -1.797E-09
    -1.846E-09   -1.894E-09   -1.940E-09   -1.985E-09   -2.029E-09   -2.071E-09   -2.112E-09   -2.151E-09   -2.189E-09   -2.225E-09
    -2.260E-09   -2.293E-09   -2.325E-09   -2.355E-09   -2.383E-09   -2.409E-09   -2.433E-09   -2.456E-09   -2.477E-09   -2.495E-09
    -2.512E-09   -2.527E-09   -2.540E-09   -2.551E-09   -2.560E-09   -2.566E-09   -2.571E-09   -2.575E-09   -2.576E-09   -2.575E-09
    -2.573E-09   -2.569E-09   -2.563E-09   -2.556E-09   -2.547E-09   -2.537E-09   -2.524E-09   -2.511E-09   -2.496E-09   -2.479E-09
    -2.461E-09   -2.442E-09   -2.421E-09   -2.399E-09   -2.376E-09   -2.351E-09   -2.326E-09   -2.299E-09   -2.271E-09   -2.242E-09
    -2.212E-09   -2.180E-09   -2.148E-09   -2.115E-09   -2.081E-09   -2.046E-09   -2.010E-09   -1.974E-09   -1.936E-09   -1.898E-09
    -1.859E-09   -1.819E-09   -1.779E-09   -1.738E-09   -1.697E-09   -1.655E-09   -1.612E-09   -1.569E-09   -1.526E-09   -1.482E-09
    -1.438E-09   -1.393E-09   -1.348E-09   -1.303E-09   -1.257E-09   -1.211E-09   -1.166E-09   -1.119E-09   -1.073E-09   -1.027E-09
    -9.804E-10   -9.339E-10   -8.874E-10   -8.409E-10   -7.945E-10   -7.480E-10   -7.016E-10   -6.551E-10   -6.087E-10   -5.624E-10
    -5.160E-10   -4.697E-10   -4.234E-10   -3.771E-10   -3.309E-10   -2.847E-10   -2.386E-10   -1.925E-10   -1.464E-10   -1.004E-10
    -5.444E-11   -8.534E-12    3.731E-11    8.310E-11    1.288E-10    1.745E-10    2.201E-10    2.656E-10    3.110E-10    3.564E-10
     4.017E-10    4.469E-10    4.921E-10    5.371E-10    5.821E-10    6.269E-10    6.717E-10    7.164E-10    7.610E-10    8.054E-10
     8.498E-10    8.941E-10    9.382E-10    9.823E-10    1.026E-09    1.070E-09    1.114E-09    1.157E-09    1.201E-09    1.244E-09
     1.287E-09    1.330E-09    1.373E-09    1.416E-09    1.458E-09    1.501E-09    1.543E-09    1.585E-09    1.627E-09    1.669E-09
     1.711E-09    1.752E-09    1.794E-09
 Ala      Conc. = 5.09E-10
  -1.70735E-08 -1.69691E-08 -1.68528E-08 -1.67337E-08 -1.66222E-08 -1.65107E-08 -1.64280E-08 -1.63593E-08 -1.62233E-08 -1.61070E-08
  -1.60477E-08 -1.59216E-08 -1.57766E-08 -1.56598E-08 -1.55271E-08 -1.53824E-08 -1.52328E-08 -1.50807E-08 -1.49269E-08 -1.47719E-08
  -1.46158E-08 -1.44588E-08 -1.43009E-08 -1.41422E-08 -1.39827E-08 -1.38224E-08 -1.36612E-08 -1.34993E-08 -1.33366E-08 -1.31732E-08
  -1.30090E-08 -1.28440E-08 -1.26782E-08 -1.25118E-08 -1.23446E-08 -1.21766E-08 -1.20080E-08 -1.18386E-08 -1.16685E-08 -1.14977E-08
  -1.13262E-08 -1.11541E-08 -1.09812E-08 -1.08077E-08 -1.06335E-08 -1.04588E-08 -1.02833E-08 -1.01072E-08 -9.93048E-09 -9.75317E-09
  -9.57524E-09 -9.39667E-09 -9.21757E-09 -9.03790E-09 -8.85760E-09 -8.67672E-09 -8.49531E-09 -8.31340E-09 -8.13089E-09 -7.94797E-09
  -7.76445E-09 -7.58041E-09 -7.39590E-09 -7.21101E-09 -7.02576E-09 -6.84025E-09 -6.65452E-09 -6.46865E-09 -6.28270E-09 -6.09671E-09
  -5.91078E-09 -5.72495E-09 -5.53929E-09 -5.35383E-09 -5.16867E-09 -4.98384E-09 -4.79937E-09 -4.61538E-09 -4.43181E-09 -4.24880E-09
  -4.06631E-09 -3.88440E-09 -3.70305E-09 -3.52232E-09 -3.34218E-09 -3.16252E-09 -2.98338E-09 -2.80458E-09 -2.62597E-09 -2.44734E-09
  -2.26829E-09 -2.08839E-09 -1.90677E-09 -1.72224E-09 -1.53284E-09 -1.33522E-09 -1.12312E-09 -8.83333E-10 -5.82021E-10 -1.05818E-10
   4.81026E-10  6.87373E-10  9.04665E-10  1.36487E-09  1.65509E-09  1.76647E-09  1.82303E-09  1.87544E-09  1.88456E-09  1.77097E-09
   1.52119E-09  1.35665E-09  1.42078E-09  1.21821E-09  9.45414E-10  9.39507E-10  9.95621E-10  1.06996E-09  1.14985E-09  1.23036E-09
   1.30949E-09  1.38589E-09  1.45901E-09  1.52854E-09  1.59436E-09  1.65639E-09  1.71462E-09  1.76905E-09  1.81970E-09  1.86661E-09
   1.90983E-09  1.94940E-09  1.98538E-09  2.01782E-09  2.04679E-09  2.07233E-09  2.09451E-09  2.11339E-09  2.12903E-09  2.14149E-09
   2.15082E-09  2.15711E-09  2.16041E-09  2.16075E-09  2.15825E-09  2.15296E-09  2.14493E-09  2.13422E-09  2.12094E-09  2.10510E-09
   2.08680E-09  2.06613E-09  2.04315E-09  2.01792E-09  1.99058E-09  1.96121E-09  1.92989E-09  1.89679E-09  1.86208E-09  1.82596E-09
   1.78884E-09  1.75120E-09  1.71409E-09  1.67956E-09  1.65283E-09  1.65119E-09  1.76446E-09  2.09730E-09  2.24351E-09  2.20552E-09
   2.10165E-09  2.00299E-09  1.92737E-09  1.88209E-09  1.85938E-09  1.82383E-09  1.69077E-09  1.37727E-09  9.86448E-10  8.37342E-10
   7.41223E-10  6.60522E-10  5.86003E-10  5.14466E-10  4.44511E-10  3.75466E-10  3.06968E-10  2.38816E-10  1.70902E-10  1.03168E-10
   3.55801E-11 -3.18577E-11 -9.91488E-11 -1.66265E-10 -2.33193E-10 -2.99908E-10 -3.66369E-10 -4.32546E-10 -4.98409E-10 -5.63914E-10
  -6.29026E-10 -6.93713E-10 -7.57930E-10 -8.21633E-10 -8.84790E-10 -9.47358E-10 -1.00930E-09 -1.07056E-09 -1.13111E-09 -1.19092E-09
  -1.24993E-09 -1.30810E-09 -1.36540E-09 -1.42178E-09 -1.47722E-09 -1.53165E-09 -1.58504E-09 -1.63736E-09 -1.68857E-09 -1.73861E-09
  -1.78745E-09 -1.83506E-09 -1.88139E-09 -1.92640E-09 -1.97007E-09 -2.01233E-09 -2.05316E-09 -2.09253E-09 -2.13038E-09 -2.16668E-09
  -2.20140E-09 -2.23449E-09 -2.26592E-09 -2.29565E-09 -2.32365E-09 -2.34987E-09 -2.37429E-09 -2.39686E-09 -2.41756E-09 -2.43633E-09
  -2.45315E-09 -2.46799E-09 -2.48081E-09 -2.49162E-09 -2.50046E-09 -2.50736E-09 -2.51236E-09 -2.51548E-09 -2.51677E-09 -2.51627E-09
  -2.51400E-09 -2.51000E-09 -2.50431E-09 -2.49697E-09 -2.48800E-09 -2.47745E-09 -2.46534E-09 -2.45172E-09 -2.43661E-09 -2.42006E-09
  -2.40210E-09 -2.38277E-09 -2.36209E-09 -2.34011E-09 -2.31686E-09 -2.29237E-09 -2.26668E-09 -2.23983E-09 -2.21185E-09 -2.18276E-09
  -2.15262E-09 -2.12145E-09 -2.08929E-09 -2.05617E-09 -2.02212E-09 -1.98719E-09 -1.95140E-09 -1.91479E-09 -1.87739E-09 -1.83924E-09
  -1.80037E-09 -1.76082E-09 -1.72061E-09 -1.67978E-09 -1.63837E-09 -1.59640E-09 -1.55392E-09 -1.51094E-09 -1.46752E-09 -1.42368E-09
  -1.37944E-09 -1.33485E-09 -1.28993E-09 -1.24472E-09 -1.19925E-09 -1.15356E-09 -1.10766E-09 -1.06160E-09 -1.01541E-09 -9.69108E-10
  -9.22739E-10 -8.76328E-10 -8.29902E-10 -7.83484E-10 -7.37080E-10 -6.90689E-10 -6.44312E-10 -5.97958E-10 -5.51622E-10 -5.05314E-10
  -4.59032E-10 -4.12779E-10 -3.66556E-10 -3.20372E-10 -2.74222E-10 -2.28112E-10 -1.82042E-10 -1.36019E-10 -9.00415E-11 -4.41172E-11
   1.75791E-12  4.75782E-11  9.33385E-11  1.39037E-10  1.84673E-10  2.30247E-10  2.75754E-10  3.21188E-10  3.66544E-10  4.11832E-10
   4.57035E-10  5.02152E-10  5.47195E-10  5.92147E-10  6.37002E-10  6.81773E-10  7.26452E-10  7.71025E-10  8.15499E-10  8.59875E-10
   9.04136E-10  9.48299E-10  9.92342E-10  1.03627E-09  1.08009E-09  1.12378E-09  1.16735E-09  1.21080E-09  1.25412E-09  1.29731E-09
   1.34036E-09  1.38328E-09  1.42605E-09  1.46869E-09  1.51118E-09  1.55353E-09  1.59572E-09  1.63776E-09  1.67964E-09  1.72136E-09
   1.76292E-09  1.80431E-09  1.84555E-09
 Asp      Conc. = 2.88E-09
  -1.57163E-08 -1.60439E-08 -1.61778E-08 -1.63099E-08 -1.65005E-08 -1.65856E-08 -1.67638E-08 -1.66568E-08 -1.64861E-08 -1.63010E-08
  -1.61122E-08 -1.59218E-08 -1.57297E-08 -1.55387E-08 -1.53515E-08 -1.51654E-08 -1.49794E-08 -1.47932E-08 -1.46065E-08 -1.44188E-08
  -1.42298E-08 -1.40392E-08 -1.38465E-08 -1.36513E-08 -1.34532E-08 -1.32515E-08 -1.30454E-08 -1.28340E-08 -1.26163E-08 -1.23904E-08
  -1.21541E-08 -1.19039E-08 -1.16344E-08 -1.13362E-08 -1.09904E-08 -1.05570E-08 -1.01341E-08 -9.76368E-09 -9.56385E-09 -9.45444E-09
  -9.25418E-09 -8.81965E-09 -7.94785E-09 -7.20166E-09 -6.12516E-09 -5.91550E-09 -6.35032E-09 -6.51593E-09 -6.18265E-09 -5.85706E-09
  -5.61569E-09 -5.48880E-09 -5.82986E-09 -6.60157E-09 -7.08673E-09 -7.59805E-09 -7.31851E-09 -7.12886E-09 -7.31566E-09 -7.53372E-09
  -7.46722E-09 -7.41051E-09 -7.30124E-09 -7.01202E-09 -6.82241E-09 -6.85197E-09 -6.78547E-09 -6.65089E-09 -6.48946E-09 -6.31521E-09
  -6.13410E-09 -5.94914E-09 -5.76201E-09 -5.57369E-09 -5.38489E-09 -5.19605E-09 -5.00745E-09 -4.81942E-09 -4.63202E-09 -4.44552E-09
  -4.25998E-09 -4.07552E-09 -3.89223E-09 -3.71024E-09 -3.52963E-09 -3.35041E-09 -3.17275E-09 -2.99665E-09 -2.82222E-09 -2.64954E-09
  -2.47864E-09 -2.30967E-09 -2.14264E-09 -1.97762E-09 -1.81470E-09 -1.65394E-09 -1.49542E-09 -1.33921E-09 -1.18538E-09 -1.03404E-09
  -8.85189E-10 -7.38947E-10 -5.95388E-10 -4.54554E-10 -3.16549E-10 -1.81446E-10 -4.92760E-11  7.98227E-11  2.05792E-10  3.28611E-10
   4.48132E-10  5.64375E-10  6.77157E-10  7.86503E-10  8.92255E-10  9.94389E-10  1.09281E-09  1.18744E-09  1.27822E-09  1.36498E-09
   1.44789E-09  1.52667E-09  1.60135E-09  1.67198E-09  1.73860E-09  1.80128E-09  1.86008E-09  1.91505E-09  1.96624E-09  2.01371E-09
   2.05752E-09  2.09773E-09  2.13440E-09  2.16758E-09  2.19735E-09  2.22375E-09  2.24687E-09  2.26675E-09  2.28345E-09  2.29706E-09
   2.30763E-09  2.31524E-09  2.31996E-09  2.32184E-09  2.32100E-09  2.31752E-09  2.31146E-09  2.30291E-09  2.29201E-09  2.27883E-09
   2.26350E-09  2.24619E-09  2.22705E-09  2.20626E-09  2.18412E-09  2.16093E-09  2.13708E-09  2.11321E-09  2.09018E-09  2.06926E-09
   2.05268E-09  2.04414E-09  2.05100E-09  2.08942E-09  2.20320E-09  2.55534E-09  4.04939E-09  5.74679E-09  6.34586E-09  6.19708E-09
   5.86760E-09  5.61545E-09  5.51402E-09  5.57326E-09  5.70532E-09  5.60841E-09  4.77123E-09  3.00147E-09  1.70049E-09  1.30506E-09
   1.10378E-09  9.66869E-10  8.58189E-10  7.64124E-10  6.78453E-10  5.97986E-10  5.20929E-10  4.46205E-10  3.73148E-10  3.01327E-10
   2.30450E-10  1.60339E-10  9.08569E-11  2.19329E-11 -4.64931E-11 -1.14457E-10 -1.81962E-10 -2.49014E-10 -3.15609E-10 -3.81727E-10
  -4.47351E-10 -5.12465E-10 -5.77037E-10 -6.41033E-10 -7.04430E-10 -7.67192E-10 -8.29288E-10 -8.90668E-10 -9.51314E-10 -1.01118E-09
  -1.07024E-09 -1.12844E-09 -1.18574E-09 -1.24212E-09 -1.29753E-09 -1.35193E-09 -1.40529E-09 -1.45756E-09 -1.50871E-09 -1.55869E-09
  -1.60747E-09 -1.65501E-09 -1.70126E-09 -1.74621E-09 -1.78980E-09 -1.83198E-09 -1.87274E-09 -1.91203E-09 -1.94980E-09 -1.98603E-09
