 LCModel (Version 6.3-1R) Copyright: S.W. Provencher.          Ref.: Magn. Reson. Med. 30:672-679 (1993).                
 onepulse 23x14_ftSpec_smooth_lcm
 26 lines in following concentration table = NCONC+1
    Conc.  %SD   /Cr    Metabolite                                         
    0.000 999%   0.000 Ala                                                 
    0.000 999%   0.000 Asp                                                 
    0.000 999%   0.000 Cr                                                  
 1.11E-09  43%   0.000 GABA                                                
 3.81E-10 157%   0.000 Glc                                                 
    0.000 999%   0.000 Gln                                                 
 1.57E-09  29%   0.000 Glu                                                 
    0.000 999%   0.000 Glyc                                                
 5.69E-11 152%   0.000 GPC                                                 
 3.49E-11 931%   0.000 GSH                                                 
 1.77E-11 999%   0.000 Ins                                                 
    0.000 999%   0.000 Lac                                                 
    0.000 999%   0.000 NAAG                                                
    0.000 999%   0.000 NAA                                                 
    0.000 999%   0.000 PCh                                                 
    0.000 999%   0.000 PCr                                                 
    0.000 999%   0.000 PE                                                  
 3.05E-11 484%   0.000 Scyllo                                              
    0.000 999%   0.000 Ser                                                 
    0.000 999%   0.000 Tau                                                 
 5.69E-11 152%   0.000 GPC+PCh                                             
    0.000 999%   0.000 NAA+NAAG                                            
 1.77E-11 999%   0.000 Ins+Glyc                                            
    0.000 999%   0.000 Cr+PCr                                              
 1.57E-09  29%   0.000 Glu+Gln                                             
   6 lines in following misc. output table
  FWHM = 0.045 ppm    S/N =   1                                            
  Data shift = 0.224 ppm                                                   
  Ph: -69 deg      -3.9 deg/ppm                                            
  alphaB,S = 2.3E-01,   1.3E+01                                            
   10 spline knots.   Ns = 5(1)                                            
  ( 9) 3 infls.   ( 9) 3 extrs.                                            
  363 points on ppm-axis = NY
      4.250000     4.238821     4.227641     4.216462     4.205282     4.194103     4.182923     4.171744     4.160564     4.149385
      4.138206     4.127026     4.115847     4.104667     4.093488     4.082308     4.071129     4.059949     4.048770     4.037591
      4.026411     4.015232     4.004052     3.992873     3.981693     3.970514     3.959334     3.948155     3.936975     3.925796
      3.914617     3.903437     3.892258     3.881078     3.869899     3.858719     3.847540     3.836360     3.825181     3.814002
      3.802822     3.791643     3.780463     3.769284     3.758104     3.746925     3.735745     3.724566     3.713387     3.702207
      3.691028     3.679848     3.668669     3.657489     3.646310     3.635130     3.623951     3.612772     3.601592     3.590413
      3.579233     3.568054     3.556874     3.545695     3.534515     3.523336     3.512156     3.500977     3.489798     3.478618
      3.467439     3.456259     3.445080     3.433900     3.422721     3.411541     3.400362     3.389183     3.378003     3.366824
      3.355644     3.344465     3.333285     3.322106     3.310926     3.299747     3.288568     3.277388     3.266209     3.255029
      3.243850     3.232670     3.221491     3.210311     3.199132     3.187953     3.176773     3.165594     3.154414     3.143235
      3.132055     3.120876     3.109696     3.098517     3.087337     3.076158     3.064979     3.053799     3.042620     3.031440
      3.020261     3.009081     2.997902     2.986722     2.975543     2.964364     2.953184     2.942005     2.930825     2.919646
      2.908466     2.897287     2.886107     2.874928     2.863749     2.852569     2.841390     2.830210     2.819031     2.807851
      2.796672     2.785492     2.774313     2.763134     2.751954     2.740775     2.729595     2.718416     2.707236     2.696057
      2.684877     2.673698     2.662519     2.651339     2.640160     2.628980     2.617801     2.606621     2.595442     2.584262
      2.573083     2.561903     2.550724     2.539545     2.528365     2.517186     2.506006     2.494827     2.483647     2.472468
      2.461288     2.450109     2.438930     2.427750     2.416571     2.405391     2.394212     2.383032     2.371853     2.360673
      2.349494     2.338315     2.327135     2.315956     2.304776     2.293597     2.282417     2.271238     2.260058     2.248879
      2.237700     2.226520     2.215341     2.204161     2.192982     2.181802     2.170623     2.159443     2.148264     2.137084
      2.125905     2.114726     2.103546     2.092367     2.081187     2.070008     2.058828     2.047649     2.036469     2.025290
      2.014111     2.002931     1.991752     1.980572     1.969393     1.958213     1.947034     1.935854     1.924675     1.913496
      1.902316     1.891137     1.879957     1.868778     1.857598     1.846419     1.835239     1.824060     1.812881     1.801701
      1.790522     1.779342     1.768163     1.756983     1.745804     1.734624     1.723445     1.712265     1.701086     1.689907
      1.678727     1.667548     1.656368     1.645189     1.634009     1.622830     1.611650     1.600471     1.589292     1.578112
      1.566933     1.555753     1.544574     1.533394     1.522215     1.511035     1.499856     1.488677     1.477497     1.466318
      1.455138     1.443959     1.432779     1.421600     1.410420     1.399241     1.388062     1.376882     1.365703     1.354523
      1.343344     1.332164     1.320985     1.309805     1.298626     1.287446     1.276267     1.265088     1.253908     1.242729
      1.231549     1.220370     1.209190     1.198011     1.186831     1.175652     1.164473     1.153293     1.142114     1.130934
      1.119755     1.108575     1.097396     1.086216     1.075037     1.063858     1.052678     1.041499     1.030319     1.019140
      1.007960     0.996781     0.985601     0.974422     0.963243     0.952063     0.940884     0.929704     0.918525     0.907345
      0.896166     0.884986     0.873807     0.862628     0.851448     0.840269     0.829089     0.817910     0.806730     0.795551
      0.784371     0.773192     0.762012     0.750833     0.739654     0.728474     0.717295     0.706115     0.694936     0.683756
      0.672577     0.661397     0.650218     0.639039     0.627859     0.616680     0.605500     0.594321     0.583141     0.571962
      0.560782     0.549603     0.538424     0.527244     0.516065     0.504885     0.493706     0.482526     0.471347     0.460167
      0.448988     0.437809     0.426629     0.415450     0.404270     0.393091     0.381911     0.370732     0.359552     0.348373
      0.337193     0.326014     0.314835     0.303655     0.292476     0.281296     0.270117     0.258937     0.247758     0.236578
      0.225399     0.214220     0.203040
 NY phased data points follow
   1.03821E-08  9.64311E-09  9.41140E-09  9.12825E-09  1.04226E-08  1.01650E-08  1.17095E-08  1.22925E-08  1.42208E-08  1.52644E-08
   1.63735E-08  1.50343E-08  1.38882E-08  1.08190E-08  8.76889E-09  7.82710E-09  8.03984E-09  6.66476E-09  7.82582E-09  6.89769E-09
   7.66721E-09  7.51480E-09  8.51665E-09  7.89393E-09  8.30914E-09  8.26913E-09  8.84901E-09  6.99508E-09  7.42229E-09  6.41401E-09
   6.85226E-09  6.08781E-09  6.00559E-09  5.82579E-09  7.41919E-09  7.10100E-09  7.16660E-09  6.01183E-09  5.73612E-09  5.02807E-09
   6.18454E-09  6.45838E-09  7.66653E-09  6.89816E-09  5.17827E-09  3.67979E-09  2.39297E-09  1.20781E-09  4.45251E-10  7.58376E-10
   1.14875E-09  7.88405E-10  6.55225E-10  8.80024E-10  1.46842E-09  1.29806E-10  8.01817E-10  9.33908E-10  5.62493E-10  1.59824E-09
   1.11733E-09  2.34590E-09  2.57237E-09  1.52471E-09  2.39915E-09  1.92068E-09  1.64605E-09  3.05311E-09  3.64645E-09  3.84273E-09
   5.37371E-09  6.00708E-09  7.77980E-09  1.00882E-08  1.05711E-08  7.31983E-09  3.66044E-09  1.40388E-09 -2.77139E-10 -5.76599E-10
  -8.69040E-10 -3.79360E-10 -3.71309E-10 -5.38518E-10  1.71832E-10  9.42259E-10  1.66608E-09  2.66938E-09  4.75514E-09  6.80636E-09
   9.45445E-09  8.28133E-09  5.19902E-09  1.85784E-09  2.74798E-10 -3.76423E-10 -1.36408E-09 -2.03579E-09 -2.05933E-09 -2.68616E-09
  -2.51461E-09 -2.23736E-09 -3.27448E-09 -3.53231E-09 -2.85802E-09 -3.81634E-09 -3.32978E-09 -3.43804E-09 -3.25884E-09 -3.13769E-09
  -3.36511E-09 -3.28341E-09 -2.81529E-09 -2.26517E-09 -2.54561E-09 -3.38725E-09 -2.59019E-09 -2.44356E-09 -3.53277E-09 -3.67684E-09
  -3.29578E-09 -3.36196E-09 -3.14500E-09 -2.02124E-09 -1.59391E-09 -1.74919E-09 -1.55019E-09 -1.57565E-09 -1.28686E-09 -1.67357E-09
  -2.12994E-09 -1.98529E-09 -2.45868E-09 -3.05167E-09 -3.27861E-09 -3.25918E-09 -2.83108E-09 -2.62701E-09 -1.87862E-09 -1.51887E-09
  -1.57162E-09 -2.06428E-09 -1.65266E-09 -1.72229E-09 -2.06385E-09 -2.03077E-09 -1.52166E-09 -1.44931E-09 -1.06799E-09 -1.27300E-09
   4.80011E-10  7.45706E-10  1.20362E-10 -1.31826E-09 -9.78960E-10 -6.42891E-10 -1.68390E-10 -2.77683E-10 -8.84613E-10 -7.74186E-10
  -2.09699E-09 -1.34839E-09 -1.74696E-09 -2.52798E-09 -2.13424E-09 -1.99677E-09 -1.90817E-09 -1.91689E-09 -1.43169E-09 -1.39487E-09
  -1.24928E-09 -1.28225E-09 -1.44263E-09 -1.37700E-09 -1.48746E-09 -1.05039E-09 -2.39012E-11  1.20553E-09  2.12403E-09  1.83044E-09
   3.13371E-09  5.48720E-09  5.44206E-09 -3.67848E-10 -5.16116E-09 -8.18044E-09 -9.07738E-09 -9.76069E-09 -1.05984E-08 -1.14882E-08
  -1.17270E-08 -1.20531E-08 -1.24453E-08 -1.26313E-08 -1.31208E-08 -1.34747E-08 -1.36550E-08 -1.42725E-08 -1.43398E-08 -1.51999E-08
  -1.51421E-08 -1.50517E-08 -1.49359E-08 -1.58143E-08 -1.51575E-08 -1.51230E-08 -1.49316E-08 -1.38712E-08 -1.36186E-08 -1.23143E-08
  -1.09783E-08 -9.92728E-09 -8.50753E-09 -6.67430E-09 -5.12232E-09 -3.43120E-09 -2.63090E-09 -4.88061E-10 -2.96357E-10  1.23108E-09
   1.99947E-09  2.52968E-09  2.93404E-09  2.77489E-09  2.57651E-09  2.43563E-09  1.60996E-09  1.06482E-09  1.18234E-09 -6.77108E-12
   2.33972E-10 -1.77583E-10  6.46366E-10  3.03241E-10  4.64591E-11 -5.10630E-12  1.07506E-10  6.70580E-11  3.80060E-10 -2.07979E-10
  -1.17640E-10 -2.12352E-10 -6.05419E-10 -7.30416E-10 -5.33573E-10  2.80706E-10  5.70766E-12  9.88512E-11  7.10776E-11  9.99103E-11
   4.38350E-10 -4.46887E-10 -5.78998E-10 -6.40834E-10 -7.05748E-10  1.17166E-11  7.86743E-12 -4.84852E-11 -1.01291E-11  2.05583E-10
   9.71304E-10  2.92883E-10  5.36074E-10  1.82110E-10  2.04810E-10 -5.78759E-10 -1.77965E-10 -7.41670E-10 -1.21800E-09 -2.98170E-10
  -6.48555E-10 -4.18975E-10 -9.29161E-10 -1.83439E-10  3.37290E-10  4.07062E-10  6.78340E-10  3.56765E-10  4.24536E-10  1.36192E-09
   9.97055E-10  1.01393E-09  8.36875E-10  8.05858E-10  7.30709E-10  7.19217E-10 -1.97144E-10 -9.78925E-11 -3.29243E-10 -5.46346E-10
  -2.20543E-10 -5.87833E-10 -1.84742E-10 -9.36932E-10 -3.79996E-10 -4.89187E-10 -3.91519E-10 -2.41689E-10 -3.59882E-10  2.20488E-10
  -2.02958E-10 -5.13563E-10  2.35141E-10  1.36929E-10  1.47047E-10  2.36376E-10  2.90601E-10  3.11963E-10 -8.65676E-11 -2.26052E-10
   3.01923E-10  4.92624E-10 -2.82153E-10  6.55031E-10  4.27566E-10  7.39055E-10  5.32585E-10 -1.60301E-10  1.14912E-09 -1.59341E-10
   6.65725E-10  1.25909E-09  6.98476E-10  7.16550E-10  9.97633E-10  8.30589E-10  9.02423E-10  1.25480E-09  7.65118E-10  1.24594E-09
   6.44237E-10  9.02773E-10  1.24859E-09  9.66230E-10  1.32708E-09  8.50532E-10  8.44258E-10  1.09399E-09  1.30937E-09  9.55971E-10
   1.27495E-09  1.70043E-09  9.45521E-10  9.54899E-10  1.37186E-09  1.14636E-09  1.38889E-09  5.36542E-10  1.17926E-09  1.35465E-09
   1.49145E-09  1.30835E-09  1.07211E-09  1.28528E-09  1.57819E-09  1.50562E-09  8.70585E-10  1.75944E-09  1.11108E-09  1.55997E-09
   1.24499E-09  1.55865E-09  1.46942E-09
 NY points of the fit to the data follow
   1.03782E-08  1.04705E-08  1.05167E-08  1.06554E-08  1.08738E-08  1.11978E-08  1.15131E-08  1.17520E-08  1.16986E-08  1.14200E-08
   1.11809E-08  1.06208E-08  1.01842E-08  9.75819E-09  9.27397E-09  8.89693E-09  8.57002E-09  8.32732E-09  8.14839E-09  8.01212E-09
   7.94423E-09  7.91630E-09  7.87477E-09  7.86859E-09  7.74164E-09  7.44700E-09  7.18524E-09  6.90852E-09  6.63003E-09  6.55232E-09
   6.68416E-09  6.84839E-09  7.10703E-09  7.07510E-09  6.56345E-09  6.27327E-09  6.30515E-09  6.39331E-09  6.39903E-09  6.27197E-09
   6.13425E-09  6.23137E-09  5.93353E-09  5.10437E-09  4.74201E-09  4.47868E-09  3.84514E-09  3.32171E-09  2.95454E-09  2.67147E-09
   2.43578E-09  2.23033E-09  2.04222E-09  1.87138E-09  1.71822E-09  1.57809E-09  1.45676E-09  1.36405E-09  1.32504E-09  1.42618E-09
   1.61628E-09  1.79145E-09  2.18791E-09  2.60526E-09  2.96322E-09  3.56779E-09  4.22856E-09  4.87458E-09  5.49729E-09  5.96438E-09
   6.20758E-09  6.35281E-09  6.04430E-09  5.11913E-09  4.50156E-09  3.56604E-09  2.39997E-09  2.16650E-09  2.07561E-09  1.96387E-09
   2.14034E-09  2.35873E-09  2.57086E-09  2.83599E-09  2.78946E-09  2.63358E-09  2.44243E-09  2.21170E-09  1.93410E-09  1.65400E-09
   1.41685E-09  1.22319E-09  1.25132E-09  9.62699E-10  5.61642E-10  5.58993E-10  3.38215E-10 -1.22984E-10 -3.37933E-10 -5.28715E-10
  -7.80848E-10 -9.79907E-10 -1.13897E-09 -1.27141E-09 -1.38532E-09 -1.48623E-09 -1.57701E-09 -1.65949E-09 -1.73494E-09 -1.80439E-09
  -1.86887E-09 -1.92954E-09 -1.98684E-09 -2.04117E-09 -2.09278E-09 -2.14180E-09 -2.18860E-09 -2.23354E-09 -2.27686E-09 -2.31875E-09
  -2.35936E-09 -2.39881E-09 -2.43725E-09 -2.47482E-09 -2.51166E-09 -2.54787E-09 -2.58358E-09 -2.61890E-09 -2.65391E-09 -2.68871E-09
  -2.72340E-09 -2.75807E-09 -2.79280E-09 -2.82766E-09 -2.86273E-09 -2.89810E-09 -2.93385E-09 -2.97005E-09 -3.00678E-09 -3.04410E-09
  -3.08208E-09 -3.12076E-09 -3.16023E-09 -3.20057E-09 -3.24183E-09 -3.28405E-09 -3.32730E-09 -3.37160E-09 -3.41702E-09 -3.46359E-09
  -3.51135E-09 -3.56031E-09 -3.61049E-09 -3.66187E-09 -3.71441E-09 -3.76806E-09 -3.82268E-09 -3.87791E-09 -3.93325E-09 -3.98801E-09
  -4.04118E-09 -4.09122E-09 -4.13549E-09 -4.16888E-09 -4.17989E-09 -4.13519E-09 -3.88985E-09 -2.91239E-09 -1.91883E-09 -1.49815E-09
  -1.58121E-09 -1.69311E-09 -1.32718E-09 -2.25659E-10  1.50010E-09  3.12304E-09  3.32236E-09  1.09385E-09 -2.64141E-09 -4.38669E-09
  -4.91079E-09 -5.16257E-09 -5.31993E-09 -5.43400E-09 -5.52432E-09 -5.59978E-09 -5.66488E-09 -5.72208E-09 -5.77284E-09 -5.81799E-09
  -5.85805E-09 -5.89332E-09 -5.92396E-09 -5.95007E-09 -5.97165E-09 -5.98868E-09 -6.00112E-09 -6.00888E-09 -6.01188E-09 -6.01002E-09
  -6.00318E-09 -5.99125E-09 -5.97411E-09 -5.95162E-09 -5.92367E-09 -5.89011E-09 -5.85082E-09 -5.80565E-09 -5.75456E-09 -5.69773E-09
  -5.63537E-09 -5.56770E-09 -5.49493E-09 -5.41727E-09 -5.33493E-09 -5.24813E-09 -5.15708E-09 -5.06200E-09 -4.96307E-09 -4.86052E-09
  -4.75457E-09 -4.64542E-09 -4.53327E-09 -4.41834E-09 -4.30083E-09 -4.18095E-09 -4.05893E-09 -3.93494E-09 -3.80921E-09 -3.68194E-09
  -3.55335E-09 -3.42364E-09 -3.29300E-09 -3.16166E-09 -3.02981E-09 -2.89765E-09 -2.76540E-09 -2.63326E-09 -2.50143E-09 -2.37012E-09
  -2.23952E-09 -2.10985E-09 -1.98130E-09 -1.85407E-09 -1.72837E-09 -1.60440E-09 -1.48236E-09 -1.36242E-09 -1.24483E-09 -1.12977E-09
  -1.01742E-09 -9.07994E-10 -8.01691E-10 -6.98701E-10 -5.99211E-10 -5.03428E-10 -4.11549E-10 -3.23768E-10 -2.40260E-10 -1.61236E-10
  -8.67334E-11 -1.66443E-11  4.91449E-11  1.10772E-10  1.68354E-10  2.22009E-10  2.71865E-10  3.18037E-10  3.60658E-10  3.99841E-10
   4.35701E-10  4.68376E-10  4.97968E-10  5.24618E-10  5.48443E-10  5.69544E-10  5.88064E-10  6.04109E-10  6.17817E-10  6.29279E-10
   6.38643E-10  6.45996E-10  6.51500E-10  6.55248E-10  6.57344E-10  6.57923E-10  6.57117E-10  6.55024E-10  6.51755E-10  6.47430E-10
   6.42179E-10  6.36119E-10  6.29361E-10  6.21995E-10  6.14177E-10  6.05983E-10  5.97563E-10  5.89010E-10  5.80448E-10  5.71969E-10
   5.63695E-10  5.55771E-10  5.48251E-10  5.41296E-10  5.34996E-10  5.29444E-10  5.24771E-10  5.21107E-10  5.18502E-10  5.17126E-10
   5.17043E-10  5.18347E-10  5.21095E-10  5.25211E-10  5.30651E-10  5.37369E-10  5.45320E-10  5.54458E-10  5.64739E-10  5.76117E-10
   5.88551E-10  6.01988E-10  6.16390E-10  6.31711E-10  6.47905E-10  6.64930E-10  6.82741E-10  7.01294E-10  7.20545E-10  7.40450E-10
   7.60968E-10  7.82054E-10  8.03662E-10  8.25755E-10  8.48286E-10  8.71213E-10  8.94497E-10  9.18092E-10  9.41957E-10  9.66049E-10
   9.90329E-10  1.01475E-09  1.03928E-09  1.06387E-09  1.08849E-09  1.11308E-09  1.13762E-09  1.16205E-09  1.18635E-09  1.21046E-09
   1.23436E-09  1.25800E-09  1.28135E-09  1.30435E-09  1.32698E-09  1.34920E-09  1.37097E-09  1.39224E-09  1.41299E-09  1.43317E-09
   1.45275E-09  1.47169E-09  1.48996E-09
 NY background values follow
     9.719E-09    9.562E-09    9.403E-09    9.244E-09    9.084E-09    8.923E-09    8.762E-09    8.599E-09    8.436E-09    8.273E-09
     8.108E-09    7.944E-09    7.779E-09    7.613E-09    7.448E-09    7.282E-09    7.116E-09    6.950E-09    6.784E-09    6.618E-09
     6.452E-09    6.286E-09    6.120E-09    5.955E-09    5.790E-09    5.625E-09    5.461E-09    5.297E-09    5.134E-09    4.972E-09
     4.811E-09    4.650E-09    4.490E-09    4.331E-09    4.173E-09    4.016E-09    3.860E-09    3.706E-09    3.552E-09    3.400E-09
     3.250E-09    3.101E-09    2.953E-09    2.807E-09    2.663E-09    2.520E-09    2.379E-09    2.240E-09    2.104E-09    1.969E-09
     1.836E-09    1.705E-09    1.576E-09    1.450E-09    1.326E-09    1.205E-09    1.085E-09    9.676E-10    8.524E-10    7.394E-10
     6.286E-10    5.198E-10    4.132E-10    3.086E-10    2.061E-10    1.057E-10    7.282E-12   -8.912E-11   -1.835E-10   -2.759E-10
    -3.664E-10   -4.549E-10   -5.416E-10   -6.263E-10   -7.092E-10   -7.902E-10   -8.693E-10   -9.467E-10   -1.022E-09   -1.096E-09
    -1.168E-09   -1.238E-09   -1.307E-09   -1.374E-09   -1.439E-09   -1.503E-09   -1.565E-09   -1.625E-09   -1.684E-09   -1.741E-09
    -1.797E-09   -1.851E-09   -1.904E-09   -1.955E-09   -2.005E-09   -2.054E-09   -2.101E-09   -2.146E-09   -2.191E-09   -2.234E-09
    -2.275E-09   -2.316E-09   -2.355E-09   -2.393E-09   -2.430E-09   -2.465E-09   -2.500E-09   -2.533E-09   -2.566E-09   -2.598E-09
    -2.628E-09   -2.658E-09   -2.687E-09   -2.716E-09   -2.744E-09   -2.771E-09   -2.798E-09   -2.824E-09   -2.850E-09   -2.875E-09
    -2.901E-09   -2.926E-09   -2.951E-09   -2.975E-09   -3.000E-09   -3.025E-09   -3.050E-09   -3.075E-09   -3.100E-09   -3.126E-09
    -3.151E-09   -3.178E-09   -3.204E-09   -3.232E-09   -3.259E-09   -3.288E-09   -3.317E-09   -3.347E-09   -3.377E-09   -3.409E-09
    -3.441E-09   -3.475E-09   -3.509E-09   -3.545E-09   -3.581E-09   -3.620E-09   -3.659E-09   -3.700E-09   -3.742E-09   -3.785E-09
    -3.830E-09   -3.877E-09   -3.926E-09   -3.976E-09   -4.028E-09   -4.081E-09   -4.137E-09   -4.195E-09   -4.254E-09   -4.314E-09
    -4.376E-09   -4.439E-09   -4.503E-09   -4.568E-09   -4.634E-09   -4.700E-09   -4.767E-09   -4.834E-09   -4.901E-09   -4.968E-09
    -5.035E-09   -5.101E-09   -5.167E-09   -5.232E-09   -5.297E-09   -5.361E-09   -5.423E-09   -5.484E-09   -5.544E-09   -5.602E-09
    -5.658E-09   -5.713E-09   -5.765E-09   -5.816E-09   -5.864E-09   -5.909E-09   -5.952E-09   -5.992E-09   -6.029E-09   -6.063E-09
    -6.094E-09   -6.122E-09   -6.145E-09   -6.166E-09   -6.182E-09   -6.194E-09   -6.202E-09   -6.206E-09   -6.206E-09   -6.200E-09
    -6.190E-09   -6.176E-09   -6.156E-09   -6.131E-09   -6.100E-09   -6.064E-09   -6.023E-09   -5.975E-09   -5.922E-09   -5.863E-09
    -5.799E-09   -5.730E-09   -5.655E-09   -5.576E-09   -5.492E-09   -5.403E-09   -5.311E-09   -5.214E-09   -5.114E-09   -5.010E-09
    -4.902E-09   -4.792E-09   -4.678E-09   -4.562E-09   -4.443E-09   -4.322E-09   -4.198E-09   -4.073E-09   -3.946E-09   -3.818E-09
    -3.688E-09   -3.557E-09   -3.425E-09   -3.293E-09   -3.160E-09   -3.027E-09   -2.893E-09   -2.760E-09   -2.627E-09   -2.495E-09
    -2.363E-09   -2.233E-09   -2.103E-09   -1.975E-09   -1.848E-09   -1.724E-09   -1.601E-09   -1.480E-09   -1.361E-09   -1.245E-09
    -1.132E-09   -1.022E-09   -9.146E-10   -8.108E-10   -7.105E-10   -6.139E-10   -5.212E-10   -4.326E-10   -3.483E-10   -2.685E-10
    -1.932E-10   -1.224E-10   -5.584E-11    6.535E-12    6.486E-11    1.192E-10    1.698E-10    2.167E-10    2.600E-10    2.999E-10
     3.365E-10    3.698E-10    4.001E-10    4.274E-10    4.519E-10    4.737E-10    4.928E-10    5.095E-10    5.239E-10    5.360E-10
     5.459E-10    5.539E-10    5.600E-10    5.644E-10    5.671E-10    5.683E-10    5.680E-10    5.665E-10    5.638E-10    5.601E-10
     5.554E-10    5.499E-10    5.437E-10    5.369E-10    5.296E-10    5.220E-10    5.141E-10    5.061E-10    4.980E-10    4.901E-10
     4.823E-10    4.749E-10    4.679E-10    4.615E-10    4.557E-10    4.506E-10    4.464E-10    4.433E-10    4.411E-10    4.403E-10
     4.406E-10    4.424E-10    4.456E-10    4.502E-10    4.561E-10    4.633E-10    4.717E-10    4.813E-10    4.920E-10    5.039E-10
     5.167E-10    5.306E-10    5.454E-10    5.612E-10    5.778E-10    5.953E-10    6.135E-10    6.325E-10    6.521E-10    6.725E-10
     6.934E-10    7.149E-10    7.369E-10    7.594E-10    7.823E-10    8.056E-10    8.293E-10    8.533E-10    8.776E-10    9.020E-10
     9.267E-10    9.515E-10    9.764E-10    1.001E-09    1.026E-09    1.051E-09    1.076E-09    1.101E-09    1.126E-09    1.150E-09
     1.174E-09    1.198E-09    1.222E-09    1.245E-09    1.268E-09    1.291E-09    1.313E-09    1.335E-09    1.356E-09    1.376E-09
     1.396E-09    1.416E-09    1.434E-09
 GABA     Conc. = 1.11E-09
   9.57523E-09  9.41574E-09  9.25518E-09  9.09360E-09  8.93101E-09  8.76752E-09  8.60315E-09  8.43795E-09  8.27199E-09  8.10531E-09
   7.93799E-09  7.77005E-09  7.60159E-09  7.43261E-09  7.26325E-09  7.09354E-09  6.92349E-09  6.75319E-09  6.58288E-09  6.41248E-09
   6.24223E-09  6.07237E-09  5.90304E-09  5.73469E-09  5.56817E-09  5.40453E-09  5.24688E-09  5.10174E-09  4.98907E-09  4.98721E-09
   4.95816E-09  4.84525E-09  4.90556E-09  5.04669E-09  5.11296E-09  5.23653E-09  5.44385E-09  5.66478E-09  5.76872E-09  5.70849E-09
   5.61568E-09  5.74025E-09  5.45931E-09  4.64947E-09  4.32132E-09  4.10293E-09  3.50279E-09  3.02845E-09  2.70257E-09  2.44576E-09
   2.22738E-09  2.03334E-09  1.85630E-09  1.69249E-09  1.53942E-09  1.39523E-09  1.25942E-09  1.13234E-09  1.01591E-09  9.15280E-10
   8.42687E-10  8.42047E-10  9.40731E-10  9.47262E-10  9.53052E-10  1.12290E-09  1.26678E-09  1.37565E-09  1.56278E-09  1.81405E-09
   2.01567E-09  2.02024E-09  1.82876E-09  1.65975E-09  1.57137E-09  9.15648E-10  2.20286E-10  1.16025E-10 -1.15028E-10 -4.70830E-10
  -6.23117E-10 -7.55068E-10 -8.62901E-10 -8.20674E-10 -7.87894E-10 -8.02711E-10 -7.33994E-10 -6.14716E-10 -4.85145E-10 -3.84814E-10
  -3.66214E-10 -2.71574E-10 -6.83364E-11 -2.04159E-10 -4.77090E-10 -3.96126E-10 -5.37601E-10 -9.25830E-10 -1.08347E-09 -1.22620E-09
  -1.43659E-09 -1.59921E-09 -1.72640E-09 -1.83096E-09 -1.92027E-09 -1.99888E-09 -2.06941E-09 -2.13340E-09 -2.19191E-09 -2.24576E-09
  -2.29584E-09 -2.34314E-09 -2.38801E-09 -2.43074E-09 -2.47150E-09 -2.51034E-09 -2.54757E-09 -2.58349E-09 -2.61830E-09 -2.65213E-09
  -2.68512E-09 -2.71733E-09 -2.74890E-09 -2.77994E-09 -2.81055E-09 -2.84082E-09 -2.87087E-09 -2.90078E-09 -2.93061E-09 -2.96047E-09
  -2.99043E-09 -3.02056E-09 -3.05095E-09 -3.08165E-09 -3.11274E-09 -3.14430E-09 -3.17639E-09 -3.20911E-09 -3.24250E-09 -3.27663E-09
  -3.31157E-09 -3.34736E-09 -3.38409E-09 -3.42183E-09 -3.46065E-09 -3.50059E-09 -3.54172E-09 -3.58408E-09 -3.62773E-09 -3.67274E-09
  -3.71917E-09 -3.76705E-09 -3.81643E-09 -3.86735E-09 -3.91982E-09 -3.97388E-09 -4.02950E-09 -4.08649E-09 -4.14456E-09 -4.20337E-09
  -4.26246E-09 -4.32112E-09 -4.37826E-09 -4.43172E-09 -4.47661E-09 -4.49810E-09 -4.42647E-09 -4.05680E-09 -3.77873E-09 -3.73002E-09
  -3.83721E-09 -3.90612E-09 -3.76579E-09 -3.35150E-09 -2.73888E-09 -2.24510E-09 -2.37671E-09 -3.42014E-09 -4.83096E-09 -5.24736E-09
  -5.42286E-09 -5.53315E-09 -5.61708E-09 -5.68726E-09 -5.74880E-09 -5.80412E-09 -5.85440E-09 -5.90027E-09 -5.94208E-09 -5.97998E-09
  -6.01402E-09 -6.04420E-09 -6.07047E-09 -6.09276E-09 -6.11096E-09 -6.12498E-09 -6.13469E-09 -6.13998E-09 -6.14069E-09 -6.13672E-09
  -6.12793E-09 -6.11416E-09 -6.09530E-09 -6.07118E-09 -6.04168E-09 -6.00665E-09 -5.96596E-09 -5.91944E-09 -5.86707E-09 -5.80899E-09
  -5.74543E-09 -5.67660E-09 -5.60271E-09 -5.52396E-09 -5.44058E-09 -5.35275E-09 -5.26070E-09 -5.16464E-09 -5.06476E-09 -4.96129E-09
  -4.85443E-09 -4.74438E-09 -4.63137E-09 -4.51558E-09 -4.39724E-09 -4.27655E-09 -4.15372E-09 -4.02894E-09 -3.90244E-09 -3.77442E-09
  -3.64508E-09 -3.51463E-09 -3.38328E-09 -3.25122E-09 -3.11867E-09 -2.98583E-09 -2.85290E-09 -2.72009E-09 -2.58760E-09 -2.45564E-09
  -2.32440E-09 -2.19410E-09 -2.06492E-09 -1.93708E-09 -1.81078E-09 -1.68621E-09 -1.56357E-09 -1.44305E-09 -1.32489E-09 -1.20926E-09
  -1.09635E-09 -9.86363E-10 -8.79512E-10 -7.75981E-10 -6.75955E-10 -5.79643E-10 -4.87241E-10 -3.98943E-10 -3.14924E-10 -2.35394E-10
  -1.60392E-10 -8.98083E-11 -2.35300E-11  3.85810E-11  9.66420E-11  1.50770E-10  2.01095E-10  2.47731E-10  2.90810E-10  3.30447E-10
   3.66758E-10  3.99878E-10  4.29910E-10  4.56996E-10  4.81253E-10  5.02782E-10  5.21725E-10  5.38190E-10  5.52313E-10  5.64187E-10
   5.73959E-10  5.81716E-10  5.87621E-10  5.91764E-10  5.94254E-10  5.95222E-10  5.94801E-10  5.93090E-10  5.90201E-10  5.86251E-10
   5.81372E-10  5.75681E-10  5.69289E-10  5.62286E-10  5.54827E-10  5.46990E-10  5.38923E-10  5.30721E-10  5.22505E-10  5.14371E-10
   5.06439E-10  4.98854E-10  4.91670E-10  4.85049E-10  4.79080E-10  4.73855E-10  4.69507E-10  4.66166E-10  4.63881E-10  4.62823E-10
   4.63055E-10  4.64672E-10  4.67730E-10  4.72155E-10  4.77899E-10  4.84921E-10  4.93173E-10  5.02610E-10  5.13188E-10  5.24860E-10
   5.37586E-10  5.51314E-10  5.66003E-10  5.81609E-10  5.98088E-10  6.15395E-10  6.33485E-10  6.52316E-10  6.71843E-10  6.92021E-10
   7.12812E-10  7.34168E-10  7.56043E-10  7.78404E-10  8.01199E-10  8.24389E-10  8.47934E-10  8.71788E-10  8.95910E-10  9.20258E-10
   9.44793E-10  9.69470E-10  9.94250E-10  1.01909E-09  1.04395E-09  1.06879E-09  1.09357E-09  1.11825E-09  1.14279E-09  1.16714E-09
   1.19128E-09  1.21516E-09  1.23874E-09  1.26198E-09  1.28484E-09  1.30729E-09  1.32928E-09  1.35079E-09  1.37176E-09  1.39217E-09
   1.41198E-09  1.43114E-09  1.44963E-09
 Glc      Conc. = 3.81E-10
   1.02179E-08  1.00818E-08  9.97628E-09  9.94602E-09  9.94007E-09  9.92436E-09  9.82935E-09  9.69751E-09  9.41442E-09  9.07290E-09
   8.80027E-09  8.56641E-09  8.37176E-09  8.26827E-09  8.22076E-09  8.15095E-09  8.04796E-09  7.93578E-09  7.80958E-09  7.73126E-09
   7.73231E-09  7.77407E-09  7.77612E-09  7.66406E-09  7.31029E-09  6.79444E-09  6.39950E-09  6.11359E-09  5.90139E-09  5.71531E-09
   5.50513E-09  5.30245E-09  5.12639E-09  4.92428E-09  4.69343E-09  4.50213E-09  4.31577E-09  4.10392E-09  3.90068E-09  3.71479E-09
   3.53902E-09  3.36944E-09  3.20498E-09  3.04459E-09  2.88772E-09  2.73414E-09  2.58355E-09  2.43585E-09  2.29095E-09  2.14880E-09
   2.00926E-09  1.87241E-09  1.73823E-09  1.60673E-09  1.47785E-09  1.35151E-09  1.22768E-09  1.10629E-09  9.87315E-10  8.70708E-10
   7.56447E-10  6.44485E-10  5.34785E-10  4.27330E-10  3.22098E-10  2.19023E-10  1.18109E-10  1.93096E-11 -7.73855E-11 -1.72006E-10
  -2.64587E-10 -3.55147E-10 -4.43714E-10 -5.30314E-10 -6.14966E-10 -6.97703E-10 -7.78534E-10 -8.57486E-10 -9.34629E-10 -1.00992E-09
  -1.08341E-09 -1.15512E-09 -1.22511E-09 -1.29334E-09 -1.35986E-09 -1.42472E-09 -1.48791E-09 -1.54949E-09 -1.60945E-09 -1.66781E-09
  -1.72463E-09 -1.77989E-09 -1.83367E-09 -1.88593E-09 -1.93673E-09 -1.98611E-09 -2.03407E-09 -2.08064E-09 -2.12583E-09 -2.16969E-09
  -2.21219E-09 -2.25346E-09 -2.29344E-09 -2.33216E-09 -2.36971E-09 -2.40605E-09 -2.44128E-09 -2.47545E-09 -2.50862E-09 -2.54085E-09
  -2.57220E-09 -2.60273E-09 -2.63250E-09 -2.66156E-09 -2.68997E-09 -2.71780E-09 -2.74511E-09 -2.77195E-09 -2.79838E-09 -2.82446E-09
  -2.85027E-09 -2.87584E-09 -2.90125E-09 -2.92655E-09 -2.95180E-09 -2.97707E-09 -3.00242E-09 -3.02789E-09 -3.05357E-09 -3.07950E-09
  -3.10575E-09 -3.13238E-09 -3.15944E-09 -3.18700E-09 -3.21512E-09 -3.24386E-09 -3.27329E-09 -3.30345E-09 -3.33442E-09 -3.36624E-09
  -3.39899E-09 -3.43273E-09 -3.46751E-09 -3.50339E-09 -3.54043E-09 -3.57870E-09 -3.61825E-09 -3.65914E-09 -3.70143E-09 -3.74518E-09
  -3.79044E-09 -3.83728E-09 -3.88573E-09 -3.93586E-09 -3.98772E-09 -4.04134E-09 -4.09675E-09 -4.15382E-09 -4.21235E-09 -4.27211E-09
  -4.33285E-09 -4.39423E-09 -4.45577E-09 -4.51662E-09 -4.57501E-09 -4.62573E-09 -4.64461E-09 -4.56121E-09 -4.50956E-09 -4.53677E-09
  -4.61741E-09 -4.68455E-09 -4.67934E-09 -4.57949E-09 -4.41098E-09 -4.28291E-09 -4.36940E-09 -4.76861E-09 -5.29264E-09 -5.47347E-09
  -5.57067E-09 -5.64427E-09 -5.70750E-09 -5.76458E-09 -5.81716E-09 -5.86599E-09 -5.91134E-09 -5.95335E-09 -5.99203E-09 -6.02734E-09
  -6.05920E-09 -6.08750E-09 -6.11212E-09 -6.13297E-09 -6.14987E-09 -6.16272E-09 -6.17136E-09 -6.17567E-09 -6.17548E-09 -6.17067E-09
  -6.16109E-09 -6.14658E-09 -6.12702E-09 -6.10225E-09 -6.07212E-09 -6.03650E-09 -5.99524E-09 -5.94817E-09 -5.89527E-09 -5.83670E-09
  -5.77265E-09 -5.70336E-09 -5.62901E-09 -5.54983E-09 -5.46602E-09 -5.37778E-09 -5.28534E-09 -5.18889E-09 -5.08864E-09 -4.98479E-09
  -4.87758E-09 -4.76719E-09 -4.65383E-09 -4.53772E-09 -4.41905E-09 -4.29804E-09 -4.17491E-09 -4.04983E-09 -3.92303E-09 -3.79472E-09
