 LCModel (Version 6.3-1R) Copyright: S.W. Provencher.          Ref.: Magn. Reson. Med. 30:672-679 (1993).                
 onepulse 23x10_ftSpec_smooth_lcm
 26 lines in following concentration table = NCONC+1
    Conc.  %SD   /Cr    Metabolite                                         
 4.55E-10  58%   0.000 Ala                                                 
 1.79E-09  35%   0.000 Asp                                                 
    0.000 999%   0.000 Cr                                                  
 1.28E-09  37%   0.000 GABA                                                
 2.36E-09  30%   0.000 Glc                                                 
 4.46E-10 149%   0.000 Gln                                                 
    0.000 999%   0.000 Glu                                                 
    0.000 999%   0.000 Glyc                                                
    0.000 999%   0.000 GPC                                                 
 4.44E-10  83%   0.000 GSH                                                 
 9.39E-10  42%   0.000 Ins                                                 
    0.000 999%   0.000 Lac                                                 
 9.96E-10  31%   0.000 NAAG                                                
 1.04E-11 999%   0.000 NAA                                                 
    0.000 999%   0.000 PCh                                                 
    0.000 999%   0.000 PCr                                                 
 2.71E-09  22%   0.000 PE                                                  
    0.000 999%   0.000 Scyllo                                              
    0.000 999%   0.000 Ser                                                 
    0.000 999%   0.000 Tau                                                 
    0.000 999%   0.000 GPC+PCh                                             
 1.01E-09  30%   0.000 NAA+NAAG                                            
 9.39E-10  42%   0.000 Ins+Glyc                                            
    0.000 999%   0.000 Cr+PCr                                              
 4.46E-10 149%   0.000 Glu+Gln                                             
   6 lines in following misc. output table
  FWHM = 0.123 ppm    S/N =   4                                            
  Data shift = 0.481 ppm                                                   
  Ph:  58 deg     -27.4 deg/ppm                                            
  alphaB,S = 7.3E-01,   5.8E+00                                            
   10 spline knots.   Ns = 5(1)                                            
  (10) 8 infls.   (11) 5 extrs.                                            
  363 points on ppm-axis = NY
      4.250000     4.238821     4.227641     4.216462     4.205282     4.194103     4.182923     4.171744     4.160564     4.149385
      4.138206     4.127026     4.115847     4.104667     4.093488     4.082308     4.071129     4.059949     4.048770     4.037591
      4.026411     4.015232     4.004052     3.992873     3.981693     3.970514     3.959334     3.948155     3.936975     3.925796
      3.914617     3.903437     3.892258     3.881078     3.869899     3.858719     3.847540     3.836360     3.825181     3.814002
      3.802822     3.791643     3.780463     3.769284     3.758104     3.746925     3.735745     3.724566     3.713387     3.702207
      3.691028     3.679848     3.668669     3.657489     3.646310     3.635130     3.623951     3.612772     3.601592     3.590413
      3.579233     3.568054     3.556874     3.545695     3.534515     3.523336     3.512156     3.500977     3.489798     3.478618
      3.467439     3.456259     3.445080     3.433900     3.422721     3.411541     3.400362     3.389183     3.378003     3.366824
      3.355644     3.344465     3.333285     3.322106     3.310926     3.299747     3.288568     3.277388     3.266209     3.255029
      3.243850     3.232670     3.221491     3.210311     3.199132     3.187953     3.176773     3.165594     3.154414     3.143235
      3.132055     3.120876     3.109696     3.098517     3.087337     3.076158     3.064979     3.053799     3.042620     3.031440
      3.020261     3.009081     2.997902     2.986722     2.975543     2.964364     2.953184     2.942005     2.930825     2.919646
      2.908466     2.897287     2.886107     2.874928     2.863749     2.852569     2.841390     2.830210     2.819031     2.807851
      2.796672     2.785492     2.774313     2.763134     2.751954     2.740775     2.729595     2.718416     2.707236     2.696057
      2.684877     2.673698     2.662519     2.651339     2.640160     2.628980     2.617801     2.606621     2.595442     2.584262
      2.573083     2.561903     2.550724     2.539545     2.528365     2.517186     2.506006     2.494827     2.483647     2.472468
      2.461288     2.450109     2.438930     2.427750     2.416571     2.405391     2.394212     2.383032     2.371853     2.360673
      2.349494     2.338315     2.327135     2.315956     2.304776     2.293597     2.282417     2.271238     2.260058     2.248879
      2.237700     2.226520     2.215341     2.204161     2.192982     2.181802     2.170623     2.159443     2.148264     2.137084
      2.125905     2.114726     2.103546     2.092367     2.081187     2.070008     2.058828     2.047649     2.036469     2.025290
      2.014111     2.002931     1.991752     1.980572     1.969393     1.958213     1.947034     1.935854     1.924675     1.913496
      1.902316     1.891137     1.879957     1.868778     1.857598     1.846419     1.835239     1.824060     1.812881     1.801701
      1.790522     1.779342     1.768163     1.756983     1.745804     1.734624     1.723445     1.712265     1.701086     1.689907
      1.678727     1.667548     1.656368     1.645189     1.634009     1.622830     1.611650     1.600471     1.589292     1.578112
      1.566933     1.555753     1.544574     1.533394     1.522215     1.511035     1.499856     1.488677     1.477497     1.466318
      1.455138     1.443959     1.432779     1.421600     1.410420     1.399241     1.388062     1.376882     1.365703     1.354523
      1.343344     1.332164     1.320985     1.309805     1.298626     1.287446     1.276267     1.265088     1.253908     1.242729
      1.231549     1.220370     1.209190     1.198011     1.186831     1.175652     1.164473     1.153293     1.142114     1.130934
      1.119755     1.108575     1.097396     1.086216     1.075037     1.063858     1.052678     1.041499     1.030319     1.019140
      1.007960     0.996781     0.985601     0.974422     0.963243     0.952063     0.940884     0.929704     0.918525     0.907345
      0.896166     0.884986     0.873807     0.862628     0.851448     0.840269     0.829089     0.817910     0.806730     0.795551
      0.784371     0.773192     0.762012     0.750833     0.739654     0.728474     0.717295     0.706115     0.694936     0.683756
      0.672577     0.661397     0.650218     0.639039     0.627859     0.616680     0.605500     0.594321     0.583141     0.571962
      0.560782     0.549603     0.538424     0.527244     0.516065     0.504885     0.493706     0.482526     0.471347     0.460167
      0.448988     0.437809     0.426629     0.415450     0.404270     0.393091     0.381911     0.370732     0.359552     0.348373
      0.337193     0.326014     0.314835     0.303655     0.292476     0.281296     0.270117     0.258937     0.247758     0.236578
      0.225399     0.214220     0.203040
 NY phased data points follow
   9.02717E-09  8.92446E-09  9.89209E-09  9.53360E-09  1.06715E-08  9.87482E-09  1.01278E-08  1.01051E-08  9.67203E-09  8.94587E-09
   9.85208E-09  8.73500E-09  9.85441E-09  9.43229E-09  1.00449E-08  9.66830E-09  9.70571E-09  8.79604E-09  9.04044E-09  9.56656E-09
   1.12935E-08  1.20269E-08  1.28262E-08  1.29589E-08  1.26806E-08  1.19864E-08  1.16856E-08  1.07420E-08  1.07205E-08  9.90615E-09
   1.00197E-08  9.62059E-09  9.96284E-09  9.05343E-09  9.08078E-09  7.85393E-09  7.67008E-09  7.08685E-09  7.29023E-09  7.19680E-09
   7.47999E-09  5.69652E-09  6.76850E-09  5.68189E-09  5.74576E-09  3.17121E-09  3.91805E-09  3.09079E-09  3.60673E-09  2.32801E-09
   3.61227E-09  5.33111E-09  8.77479E-09  9.54034E-09  1.09082E-08  1.07657E-08  1.06956E-08  9.28259E-09  8.69463E-09  8.27658E-09
   8.05371E-09  6.83349E-09  6.06652E-09  4.26764E-09  4.38641E-09  2.22506E-09  2.02329E-09  2.37446E-09  6.00108E-09  8.96382E-09
   1.13401E-08  1.12360E-08  1.22403E-08  1.18990E-08  1.26014E-08  1.15213E-08  1.20208E-08  1.16008E-08  1.26184E-08  1.14711E-08
   1.19706E-08  1.07764E-08  1.24464E-08  1.07949E-08  1.11111E-08  1.06379E-08  1.07057E-08  9.82134E-09  9.52516E-09  8.65954E-09
   9.38059E-09  9.11948E-09  9.46356E-09  8.55200E-09  8.92281E-09  8.93142E-09  8.94040E-09  8.71436E-09  8.07763E-09  7.10172E-09
   6.86955E-09  5.49743E-09  6.63314E-09  6.21538E-09  6.02236E-09  5.97497E-09  7.31322E-09  6.65088E-09  6.98382E-09  6.70939E-09
   7.78778E-09  6.91751E-09  7.23336E-09  6.50200E-09  6.77300E-09  4.84054E-09  5.56393E-09  4.90152E-09  5.22076E-09  4.48806E-09
   5.15577E-09  4.43651E-09  5.32530E-09  4.32437E-09  4.93517E-09  3.85838E-09  3.82573E-09  3.24075E-09  3.40378E-09  4.24831E-09
   4.92647E-09  5.18189E-09  5.23628E-09  4.76170E-09  6.09100E-09  6.12073E-09  6.24389E-09  6.60994E-09  7.51918E-09  6.60677E-09
   7.12497E-09  6.95780E-09  7.12204E-09  6.66058E-09  6.88421E-09  6.72153E-09  6.73679E-09  6.19292E-09  6.34168E-09  5.68493E-09
   6.30129E-09  6.09783E-09  5.69390E-09  5.09093E-09  4.60054E-09  4.12301E-09  3.42736E-09  1.95517E-09  3.36389E-10  9.91757E-10
   6.38303E-09  1.06176E-08  1.33259E-08  1.52785E-08  1.58189E-08  1.65999E-08  1.78600E-08  1.81388E-08  1.86137E-08  1.86285E-08
   2.00698E-08  1.96439E-08  1.99542E-08  2.05380E-08  2.03482E-08  2.00916E-08  1.96782E-08  1.91882E-08  1.82300E-08  1.74338E-08
   1.65290E-08  1.46119E-08  1.26398E-08  1.09075E-08  9.03196E-09  7.24676E-09  5.41752E-09  3.02601E-09  1.44476E-09 -7.31378E-10
  -1.42168E-09 -2.96278E-09 -4.16936E-09 -4.49054E-09 -5.20385E-09 -5.29759E-09 -4.30689E-09 -4.37257E-09 -3.98253E-09 -3.29344E-09
  -2.98981E-09 -2.26761E-09 -1.39230E-09 -1.42854E-09 -7.96592E-10 -7.09154E-10 -1.12723E-09 -7.99419E-10 -1.16428E-09 -1.20397E-09
  -1.42583E-09 -9.88146E-10 -9.39779E-10 -7.58814E-10 -1.39760E-10 -2.87404E-10 -2.18693E-11 -9.55585E-10 -8.54185E-10 -6.13609E-10
  -9.39890E-10 -4.59743E-10 -1.16342E-09 -4.87548E-10 -6.92428E-10 -2.47809E-10 -7.75348E-11 -3.96354E-10 -6.51130E-10 -8.11469E-10
  -4.18971E-10 -6.65319E-10 -7.32532E-10 -1.29252E-09 -7.81291E-10 -1.16741E-09 -8.94001E-10 -1.16199E-09 -5.64348E-10 -7.74285E-10
  -9.48798E-10 -8.09117E-10 -8.58557E-10 -4.38907E-10 -4.12844E-10 -2.42519E-11 -7.55303E-10 -7.35726E-11 -1.15189E-10  4.19341E-10
  -8.33289E-10 -3.26532E-10 -6.55391E-10 -6.45738E-10 -1.22682E-09 -1.22494E-09 -1.44529E-09 -1.51801E-09 -2.13257E-09 -1.97785E-09
  -1.91713E-09 -1.92934E-09 -2.11649E-09 -1.96303E-09 -1.87346E-09 -1.00784E-09 -6.38591E-10 -6.83656E-10 -8.30182E-10 -2.82701E-11
  -1.51409E-10 -2.19459E-10 -2.66908E-10  3.20156E-10 -3.56302E-10 -1.04520E-10 -3.50490E-10  8.47861E-11 -5.53968E-11  3.28196E-10
  -4.57420E-10  3.00726E-10 -2.67422E-10 -1.93865E-10 -2.35603E-10 -1.63497E-10 -5.18203E-10 -1.37113E-11 -2.74919E-10 -7.34453E-10
  -5.09786E-10 -5.72812E-10 -5.29467E-10 -2.28037E-10 -7.21808E-10 -6.63380E-10 -9.79251E-10 -6.94324E-10 -1.01049E-09 -9.23067E-10
  -6.71461E-10 -1.00996E-09 -1.38773E-09 -6.14210E-10 -1.07641E-09 -6.27878E-10 -8.50204E-10 -1.56730E-09 -1.24969E-09 -1.42136E-09
  -1.02436E-09 -8.77780E-10 -1.30379E-09 -1.25944E-09 -1.39560E-09 -1.40718E-09 -1.89975E-09 -1.09998E-09 -1.50218E-09 -1.62279E-09
  -1.73773E-09 -1.66367E-09 -1.75672E-09 -1.47947E-09 -1.73978E-09 -1.78467E-09 -1.40777E-09 -2.27263E-09 -2.10777E-09 -1.58423E-09
  -1.95839E-09 -1.73546E-09 -2.21159E-09 -1.81406E-09 -1.95092E-09 -2.10720E-09 -2.26711E-09 -2.00028E-09 -1.91240E-09 -1.97673E-09
  -2.31434E-09 -2.41711E-09 -2.04764E-09 -2.25828E-09 -2.55603E-09 -2.02003E-09 -2.91926E-09 -2.93105E-09 -2.65743E-09 -2.16884E-09
  -2.37040E-09 -2.47819E-09 -2.86848E-09 -2.43169E-09 -2.67193E-09 -2.55570E-09 -2.65462E-09 -2.75282E-09 -3.03844E-09 -2.81256E-09
  -3.05495E-09 -2.58435E-09 -2.92259E-09
 NY points of the fit to the data follow
   1.12793E-08  1.07040E-08  1.04448E-08  9.23197E-09  9.93861E-09  1.02679E-08  9.96415E-09  9.79333E-09  1.14746E-08  9.74891E-09
   8.10090E-09  8.07484E-09  8.11035E-09  8.33147E-09  9.95254E-09  1.07670E-08  1.00670E-08  1.04143E-08  1.06736E-08  9.83488E-09
   1.06885E-08  1.16334E-08  1.18475E-08  1.23864E-08  1.30155E-08  1.30582E-08  1.12083E-08  1.08552E-08  1.07014E-08  1.10610E-08
   1.11747E-08  1.05406E-08  1.04315E-08  9.49349E-09  8.52698E-09  8.23189E-09  7.43648E-09  6.96474E-09  6.86181E-09  6.73256E-09
   6.01359E-09  6.14983E-09  7.17455E-09  6.33115E-09  6.43777E-09  6.73244E-09  6.18474E-09  5.51799E-09  6.32038E-09  5.98776E-09
   6.23846E-09  6.51502E-09  6.52024E-09  6.50004E-09  7.12414E-09  6.71101E-09  6.30208E-09  6.61554E-09  7.05321E-09  6.32326E-09
   6.73712E-09  7.00724E-09  6.85148E-09  6.79513E-09  7.78887E-09  8.16398E-09  7.72707E-09  7.85065E-09  8.17564E-09  8.33725E-09
   9.01279E-09  9.68019E-09  9.47729E-09  8.88824E-09  1.00557E-08  1.20646E-08  1.28963E-08  1.18485E-08  1.20529E-08  1.23178E-08
   1.22025E-08  1.19270E-08  1.17067E-08  1.17271E-08  1.12577E-08  1.19466E-08  1.16729E-08  8.47305E-09  7.74438E-09  7.79785E-09
   7.46140E-09  7.04289E-09  7.27034E-09  7.39131E-09  6.63074E-09  6.66757E-09  6.82133E-09  6.35616E-09  6.36993E-09  6.59159E-09
   6.93484E-09  6.40821E-09  6.56801E-09  7.26838E-09  7.03415E-09  6.98744E-09  7.10447E-09  7.08946E-09  7.06330E-09  7.19322E-09
   7.20176E-09  6.33082E-09  6.43615E-09  6.67113E-09  6.00616E-09  5.79254E-09  5.70572E-09  5.66204E-09  5.63747E-09  5.62272E-09
   5.61333E-09  5.60711E-09  5.60267E-09  5.59915E-09  5.59595E-09  5.59270E-09  5.58913E-09  5.58496E-09  5.58007E-09  5.57433E-09
   5.56760E-09  5.55982E-09  5.55093E-09  5.54086E-09  5.52956E-09  5.51698E-09  5.50310E-09  5.48789E-09  5.47133E-09  5.45342E-09
   5.43413E-09  5.41348E-09  5.39148E-09  5.36815E-09  5.34350E-09  5.31758E-09  5.29044E-09  5.26218E-09  5.23290E-09  5.20274E-09
   5.17186E-09  5.14053E-09  5.10905E-09  5.07786E-09  5.04758E-09  5.01903E-09  4.99343E-09  4.97261E-09  4.95937E-09  4.95812E-09
   4.97625E-09  5.02710E-09  5.13735E-09  5.36822E-09  5.89286E-09  7.39669E-09  1.35522E-08  2.03315E-08  1.90831E-08  1.81288E-08
   1.91372E-08  1.96635E-08  2.01090E-08  2.06969E-08  2.05252E-08  2.01763E-08  2.19158E-08  2.01692E-08  1.11308E-08  6.20736E-09
   4.77581E-09  4.14297E-09  3.77100E-09  3.51334E-09  3.31511E-09  3.15148E-09  3.00960E-09  2.88224E-09  2.76508E-09  2.65536E-09
   2.55126E-09  2.45155E-09  2.35537E-09  2.26213E-09  2.17137E-09  2.08279E-09  1.99616E-09  1.91133E-09  1.82816E-09  1.74659E-09
   1.66656E-09  1.58805E-09  1.51104E-09  1.43553E-09  1.36152E-09  1.28904E-09  1.21814E-09  1.14880E-09  1.08109E-09  1.01494E-09
   9.50332E-10  8.87218E-10  8.25572E-10  7.65358E-10  7.06549E-10  6.49108E-10  5.93020E-10  5.38255E-10  4.84784E-10  4.32581E-10
   3.81638E-10  3.31915E-10  2.83396E-10  2.36060E-10  1.89883E-10  1.44846E-10  1.00938E-10  5.81167E-11  1.63678E-11 -2.43102E-11
  -6.39467E-11 -1.02569E-10 -1.40184E-10 -1.76824E-10 -2.12497E-10 -2.47234E-10 -2.81047E-10 -3.13946E-10 -3.45961E-10 -3.77105E-10
  -4.07395E-10 -4.36851E-10 -4.65494E-10 -4.93341E-10 -5.20405E-10 -5.46708E-10 -5.72274E-10 -5.97123E-10 -6.21248E-10 -6.44679E-10
  -6.67447E-10 -6.89565E-10 -7.11041E-10 -7.31889E-10 -7.52156E-10 -7.71823E-10 -7.90930E-10 -8.09482E-10 -8.27511E-10 -8.45030E-10
  -8.62046E-10 -8.78584E-10 -8.94663E-10 -9.10302E-10 -9.25518E-10 -9.40329E-10 -9.54755E-10 -9.68813E-10 -9.82520E-10 -9.95897E-10
  -1.00896E-09 -1.02173E-09 -1.03422E-09 -1.04645E-09 -1.05845E-09 -1.07022E-09 -1.08178E-09 -1.09316E-09 -1.10437E-09 -1.11544E-09
  -1.12637E-09 -1.13719E-09 -1.14791E-09 -1.15856E-09 -1.16914E-09 -1.17969E-09 -1.19021E-09 -1.20073E-09 -1.21127E-09 -1.22183E-09
  -1.23245E-09 -1.24313E-09 -1.25390E-09 -1.26477E-09 -1.27576E-09 -1.28690E-09 -1.29819E-09 -1.30966E-09 -1.32133E-09 -1.33320E-09
  -1.34531E-09 -1.35767E-09 -1.37029E-09 -1.38320E-09 -1.39641E-09 -1.40995E-09 -1.42382E-09 -1.43805E-09 -1.45265E-09 -1.46765E-09
  -1.48306E-09 -1.49889E-09 -1.51516E-09 -1.53184E-09 -1.54893E-09 -1.56641E-09 -1.58427E-09 -1.60251E-09 -1.62111E-09 -1.64006E-09
  -1.65936E-09 -1.67898E-09 -1.69893E-09 -1.71918E-09 -1.73973E-09 -1.76057E-09 -1.78169E-09 -1.80307E-09 -1.82470E-09 -1.84658E-09
  -1.86870E-09 -1.89104E-09 -1.91358E-09 -1.93634E-09 -1.95928E-09 -1.98240E-09 -2.00569E-09 -2.02915E-09 -2.05274E-09 -2.07648E-09
  -2.10034E-09 -2.12432E-09 -2.14840E-09 -2.17258E-09 -2.19684E-09 -2.22117E-09 -2.24556E-09 -2.27001E-09 -2.29450E-09 -2.31901E-09
  -2.34354E-09 -2.36809E-09 -2.39263E-09 -2.41715E-09 -2.44165E-09 -2.46612E-09 -2.49055E-09 -2.51491E-09 -2.53921E-09 -2.56343E-09
  -2.58756E-09 -2.61160E-09 -2.63552E-09
 NY background values follow
    -3.774E-09   -3.685E-09   -3.595E-09   -3.505E-09   -3.415E-09   -3.325E-09   -3.234E-09   -3.144E-09   -3.054E-09   -2.964E-09
    -2.874E-09   -2.784E-09   -2.694E-09   -2.603E-09   -2.513E-09   -2.423E-09   -2.333E-09   -2.244E-09   -2.154E-09   -2.064E-09
    -1.975E-09   -1.885E-09   -1.796E-09   -1.707E-09   -1.618E-09   -1.529E-09   -1.440E-09   -1.352E-09   -1.263E-09   -1.175E-09
    -1.088E-09   -9.999E-10   -9.124E-10   -8.253E-10   -7.383E-10   -6.517E-10   -5.653E-10   -4.792E-10   -3.934E-10   -3.080E-10
    -2.228E-10   -1.380E-10   -5.348E-11    3.065E-11    1.144E-10    1.978E-10    2.809E-10    3.635E-10    4.458E-10    5.276E-10
     6.090E-10    6.899E-10    7.705E-10    8.505E-10    9.301E-10    1.009E-09    1.088E-09    1.166E-09    1.243E-09    1.321E-09
     1.397E-09    1.473E-09    1.548E-09    1.623E-09    1.697E-09    1.770E-09    1.843E-09    1.915E-09    1.986E-09    2.057E-09
     2.127E-09    2.196E-09    2.265E-09    2.333E-09    2.400E-09    2.466E-09    2.531E-09    2.596E-09    2.660E-09    2.722E-09
     2.784E-09    2.846E-09    2.906E-09    2.965E-09    3.024E-09    3.081E-09    3.137E-09    3.193E-09    3.248E-09    3.301E-09
     3.354E-09    3.405E-09    3.456E-09    3.505E-09    3.553E-09    3.600E-09    3.646E-09    3.691E-09    3.735E-09    3.778E-09
     3.819E-09    3.860E-09    3.899E-09    3.937E-09    3.973E-09    4.009E-09    4.043E-09    4.076E-09    4.108E-09    4.138E-09
     4.167E-09    4.194E-09    4.221E-09    4.246E-09    4.269E-09    4.291E-09    4.312E-09    4.331E-09    4.349E-09    4.365E-09
     4.380E-09    4.393E-09    4.405E-09    4.416E-09    4.424E-09    4.432E-09    4.437E-09    4.441E-09    4.444E-09    4.444E-09
     4.444E-09    4.441E-09    4.437E-09    4.431E-09    4.424E-09    4.414E-09    4.403E-09    4.391E-09    4.376E-09    4.360E-09
     4.342E-09    4.322E-09    4.300E-09    4.277E-09    4.251E-09    4.224E-09    4.195E-09    4.164E-09    4.131E-09    4.096E-09
     4.059E-09    4.020E-09    3.979E-09    3.936E-09    3.891E-09    3.844E-09    3.795E-09    3.744E-09    3.691E-09    3.637E-09
     3.580E-09    3.522E-09    3.462E-09    3.401E-09    3.338E-09    3.273E-09    3.207E-09    3.140E-09    3.071E-09    3.002E-09
     2.931E-09    2.859E-09    2.786E-09    2.712E-09    2.638E-09    2.562E-09    2.486E-09    2.409E-09    2.332E-09    2.254E-09
     2.175E-09    2.096E-09    2.017E-09    1.938E-09    1.858E-09    1.778E-09    1.698E-09    1.619E-09    1.539E-09    1.459E-09
     1.380E-09    1.300E-09    1.221E-09    1.143E-09    1.065E-09    9.875E-10    9.106E-10    8.344E-10    7.589E-10    6.841E-10
     6.103E-10    5.374E-10    4.654E-10    3.946E-10    3.248E-10    2.563E-10    1.890E-10    1.230E-10    5.844E-11   -4.785E-12
    -6.667E-11   -1.272E-10   -1.865E-10   -2.444E-10   -3.011E-10   -3.565E-10   -4.107E-10   -4.636E-10   -5.153E-10   -5.659E-10
    -6.152E-10   -6.634E-10   -7.105E-10   -7.564E-10   -8.013E-10   -8.450E-10   -8.877E-10   -9.293E-10   -9.699E-10   -1.009E-09
    -1.048E-09   -1.086E-09   -1.122E-09   -1.158E-09   -1.193E-09   -1.226E-09   -1.259E-09   -1.291E-09   -1.322E-09   -1.353E-09
    -1.382E-09   -1.411E-09   -1.439E-09   -1.466E-09   -1.492E-09   -1.518E-09   -1.543E-09   -1.567E-09   -1.590E-09   -1.613E-09
    -1.635E-09   -1.657E-09   -1.677E-09   -1.698E-09   -1.717E-09   -1.736E-09   -1.755E-09   -1.773E-09   -1.790E-09   -1.807E-09
    -1.824E-09   -1.839E-09   -1.855E-09   -1.870E-09   -1.885E-09   -1.899E-09   -1.913E-09   -1.926E-09   -1.940E-09   -1.952E-09
    -1.965E-09   -1.977E-09   -1.989E-09   -2.001E-09   -2.013E-09   -2.024E-09   -2.035E-09   -2.046E-09   -2.056E-09   -2.067E-09
    -2.078E-09   -2.088E-09   -2.098E-09   -2.108E-09   -2.118E-09   -2.128E-09   -2.139E-09   -2.149E-09   -2.159E-09   -2.169E-09
    -2.179E-09   -2.189E-09   -2.200E-09   -2.210E-09   -2.220E-09   -2.231E-09   -2.242E-09   -2.253E-09   -2.264E-09   -2.276E-09
    -2.287E-09   -2.299E-09   -2.311E-09   -2.324E-09   -2.337E-09   -2.350E-09   -2.363E-09   -2.377E-09   -2.391E-09   -2.406E-09
    -2.421E-09   -2.436E-09   -2.452E-09   -2.468E-09   -2.485E-09   -2.502E-09   -2.519E-09   -2.537E-09   -2.555E-09   -2.574E-09
    -2.593E-09   -2.612E-09   -2.631E-09   -2.651E-09   -2.671E-09   -2.692E-09   -2.712E-09   -2.733E-09   -2.755E-09   -2.776E-09
    -2.798E-09   -2.820E-09   -2.842E-09   -2.864E-09   -2.886E-09   -2.909E-09   -2.932E-09   -2.955E-09   -2.978E-09   -3.001E-09
    -3.025E-09   -3.048E-09   -3.072E-09   -3.096E-09   -3.120E-09   -3.143E-09   -3.167E-09   -3.191E-09   -3.215E-09   -3.239E-09
    -3.263E-09   -3.288E-09   -3.312E-09   -3.336E-09   -3.360E-09   -3.384E-09   -3.408E-09   -3.431E-09   -3.455E-09   -3.479E-09
    -3.503E-09   -3.526E-09   -3.550E-09
 Ala      Conc. = 4.55E-10
  -3.40180E-09 -3.38396E-09 -3.25640E-09 -3.11515E-09 -3.06071E-09 -3.00468E-09 -2.84484E-09 -2.80204E-09 -2.84137E-09 -2.66863E-09
  -2.59475E-09 -2.62852E-09 -2.53177E-09 -2.45157E-09 -2.39999E-09 -2.33143E-09 -2.25487E-09 -2.17411E-09 -2.09095E-09 -2.00626E-09
  -1.92059E-09 -1.83425E-09 -1.74746E-09 -1.66037E-09 -1.57311E-09 -1.48574E-09 -1.39833E-09 -1.31092E-09 -1.22357E-09 -1.13630E-09
  -1.04913E-09 -9.62130E-10 -8.75271E-10 -7.88601E-10 -7.02126E-10 -6.15882E-10 -5.29870E-10 -4.44089E-10 -3.58589E-10 -2.73390E-10
  -1.88446E-10 -1.03800E-10 -1.94946E-11  6.44771E-11  1.48123E-10  2.31403E-10  3.14335E-10  3.96883E-10  4.79037E-10  5.60774E-10
   6.42138E-10  7.23076E-10  8.03586E-10  8.83643E-10  9.63237E-10  1.04236E-09  1.12100E-09  1.19913E-09  1.27675E-09  1.35384E-09
   1.43037E-09  1.50635E-09  1.58175E-09  1.65656E-09  1.73076E-09  1.80436E-09  1.87731E-09  1.94963E-09  2.02129E-09  2.09228E-09
   2.16258E-09  2.23220E-09  2.30111E-09  2.36930E-09  2.43678E-09  2.50352E-09  2.56952E-09  2.63477E-09  2.69929E-09  2.76305E-09
   2.82606E-09  2.88833E-09  2.94988E-09  3.01071E-09  3.07084E-09  3.13034E-09  3.18923E-09  3.24761E-09  3.30558E-09  3.36329E-09
   3.42098E-09  3.47896E-09  3.53777E-09  3.59822E-09  3.66171E-09  3.73081E-09  3.81065E-09  3.91326E-09  4.07398E-09  4.43733E-09
   5.02629E-09  4.61727E-09  4.87185E-09  5.67228E-09  5.51521E-09  5.52801E-09  5.69429E-09  5.71856E-09  5.72698E-09  5.88678E-09
   5.92103E-09  5.07290E-09  5.19843E-09  5.45142E-09  4.80283E-09  4.60380E-09  4.53003E-09  4.49825E-09  4.48453E-09  4.47967E-09
   4.47942E-09  4.48155E-09  4.48478E-09  4.48831E-09  4.49163E-09  4.49438E-09  4.49631E-09  4.49725E-09  4.49704E-09  4.49559E-09
   4.49281E-09  4.48863E-09  4.48300E-09  4.47585E-09  4.46716E-09  4.45688E-09  4.44498E-09  4.43143E-09  4.41621E-09  4.39928E-09
   4.38062E-09  4.36022E-09  4.33805E-09  4.31409E-09  4.28832E-09  4.26073E-09  4.23130E-09  4.20002E-09  4.16686E-09  4.13182E-09
   4.09489E-09  4.05606E-09  4.01533E-09  3.97269E-09  3.92815E-09  3.88172E-09  3.83345E-09  3.78344E-09  3.73185E-09  3.67892E-09
   3.62497E-09  3.57055E-09  3.51669E-09  3.46556E-09  3.42301E-09  3.40982E-09  3.54258E-09  3.94467E-09  3.67438E-09  3.58020E-09
   3.58168E-09  3.52509E-09  3.46701E-09  3.43346E-09  3.35314E-09  3.25151E-09  3.23629E-09  3.24527E-09  2.60336E-09  2.38932E-09
   2.26741E-09  2.16869E-09  2.07845E-09  1.99208E-09  1.90770E-09  1.82454E-09  1.74215E-09  1.66030E-09  1.57895E-09  1.49801E-09
   1.41748E-09  1.33740E-09  1.25776E-09  1.17865E-09  1.10006E-09  1.02208E-09  9.44742E-10  8.68129E-10  7.92269E-10  7.17247E-10
   6.43116E-10  5.69936E-10  4.97775E-10  4.26691E-10  3.56750E-10  2.88011E-10  2.20564E-10  1.54428E-10  8.96912E-11  2.63211E-11
  -3.56913E-11 -9.63692E-11 -1.55725E-10 -2.13783E-10 -2.70556E-10 -3.26068E-10 -3.80327E-10 -4.33354E-10 -4.85173E-10 -5.35799E-10
  -5.85238E-10 -6.33521E-10 -6.80661E-10 -7.26674E-10 -7.71580E-10 -8.15395E-10 -8.58125E-10 -8.99810E-10 -9.40462E-10 -9.80080E-10
  -1.01869E-09 -1.05632E-09 -1.09297E-09 -1.12868E-09 -1.16344E-09 -1.19730E-09 -1.23025E-09 -1.26231E-09 -1.29351E-09 -1.32386E-09
  -1.35337E-09 -1.38207E-09 -1.40997E-09 -1.43709E-09 -1.46344E-09 -1.48905E-09 -1.51393E-09 -1.53811E-09 -1.56158E-09 -1.58436E-09
  -1.60650E-09 -1.62799E-09 -1.64885E-09 -1.66910E-09 -1.68877E-09 -1.70785E-09 -1.72638E-09 -1.74436E-09 -1.76183E-09 -1.77879E-09
  -1.79526E-09 -1.81126E-09 -1.82681E-09 -1.84192E-09 -1.85661E-09 -1.87091E-09 -1.88482E-09 -1.89837E-09 -1.91158E-09 -1.92446E-09
  -1.93703E-09 -1.94931E-09 -1.96132E-09 -1.97308E-09 -1.98459E-09 -1.99589E-09 -2.00699E-09 -2.01791E-09 -2.02866E-09 -2.03926E-09
  -2.04974E-09 -2.06010E-09 -2.07037E-09 -2.08057E-09 -2.09071E-09 -2.10082E-09 -2.11090E-09 -2.12098E-09 -2.13108E-09 -2.14120E-09
  -2.15139E-09 -2.16164E-09 -2.17197E-09 -2.18242E-09 -2.19298E-09 -2.20369E-09 -2.21456E-09 -2.22561E-09 -2.23685E-09 -2.24830E-09
  -2.25999E-09 -2.27192E-09 -2.28413E-09 -2.29662E-09 -2.30941E-09 -2.32252E-09 -2.33598E-09 -2.34979E-09 -2.36398E-09 -2.37856E-09
  -2.39355E-09 -2.40897E-09 -2.42482E-09 -2.44109E-09 -2.45775E-09 -2.47482E-09 -2.49227E-09 -2.51009E-09 -2.52827E-09 -2.54680E-09
  -2.56568E-09 -2.58489E-09 -2.60441E-09 -2.62425E-09 -2.64438E-09 -2.66480E-09 -2.68549E-09 -2.70645E-09 -2.72766E-09 -2.74912E-09
  -2.77081E-09 -2.79272E-09 -2.81484E-09 -2.83717E-09 -2.85968E-09 -2.88238E-09 -2.90524E-09 -2.92826E-09 -2.95142E-09 -2.97472E-09
  -2.99815E-09 -3.02169E-09 -3.04534E-09 -3.06907E-09 -3.09289E-09 -3.11678E-09 -3.14073E-09 -3.16473E-09 -3.18877E-09 -3.21283E-09
  -3.23692E-09 -3.26100E-09 -3.28509E-09 -3.30916E-09 -3.33320E-09 -3.35721E-09 -3.38117E-09 -3.40507E-09 -3.42890E-09 -3.45266E-09
  -3.47632E-09 -3.49988E-09 -3.52333E-09
 Asp      Conc. = 1.79E-09
  -1.75048E-09 -2.14927E-09 -2.04162E-09 -2.32618E-09 -2.35373E-09 -2.34861E-09 -2.54299E-09 -2.72193E-09 -2.74715E-09 -2.71806E-09
  -2.66447E-09 -2.59872E-09 -2.52778E-09 -2.44436E-09 -2.35983E-09 -2.27433E-09 -2.18753E-09 -2.09953E-09 -2.01053E-09 -1.92062E-09
  -1.82991E-09 -1.73842E-09 -1.64613E-09 -1.55302E-09 -1.45902E-09 -1.36394E-09 -1.26762E-09 -1.16972E-09 -1.06982E-09 -9.67280E-10
  -8.61092E-10 -7.49741E-10 -6.30467E-10 -4.98120E-10 -3.41120E-10 -1.27360E-10  1.90029E-10  2.31582E-10  4.90494E-10  4.65489E-10
   5.74021E-10  8.00900E-10  1.28145E-09  1.66257E-09  2.37771E-09  2.72434E-09  2.39939E-09  2.32702E-09  3.23224E-09  2.94374E-09
   3.02641E-09  3.49442E-09  3.58085E-09  3.35251E-09  3.54692E-09  3.24842E-09  2.42089E-09  2.47969E-09  2.96050E-09  2.42109E-09
   2.27522E-09  2.39413E-09  2.19420E-09  2.14176E-09  2.30911E-09  2.45297E-09  2.34849E-09  2.32348E-09  2.33459E-09  2.36350E-09
   2.40251E-09  2.44775E-09  2.49706E-09  2.54909E-09  2.60297E-09  2.65807E-09  2.71395E-09  2.77030E-09  2.82686E-09  2.88343E-09
   2.93986E-09  2.99602E-09  3.05181E-09  3.10712E-09  3.16189E-09  3.21607E-09  3.26957E-09  3.32237E-09  3.37440E-09  3.42563E-09
   3.47603E-09  3.52555E-09  3.57418E-09  3.62187E-09  3.66859E-09  3.71434E-09  3.75908E-09  3.80277E-09  3.84540E-09  3.88696E-09
   3.92740E-09  3.96674E-09  4.00493E-09  4.04195E-09  4.07781E-09  4.11245E-09  4.14588E-09  4.17807E-09  4.20900E-09  4.23866E-09
   4.26703E-09  4.29408E-09  4.31982E-09  4.34420E-09  4.36723E-09  4.38887E-09  4.40913E-09  4.42796E-09  4.44537E-09  4.46134E-09
   4.47584E-09  4.48886E-09  4.50039E-09  4.51041E-09  4.51890E-09  4.52585E-09  4.53125E-09  4.53507E-09  4.53729E-09  4.53792E-09
   4.53692E-09  4.53429E-09  4.53001E-09  4.52406E-09  4.51643E-09  4.50711E-09  4.49608E-09  4.48333E-09  4.46884E-09  4.45261E-09
   4.43462E-09  4.41485E-09  4.39331E-09  4.36998E-09  4.34485E-09  4.31791E-09  4.28917E-09  4.25861E-09  4.22625E-09  4.19209E-09
   4.15615E-09  4.11845E-09  4.07902E-09  4.03791E-09  3.99521E-09  3.95103E-09  3.90554E-09  3.85907E-09  3.81209E-09  3.76533E-09
   3.71999E-09  3.67815E-09  3.64391E-09  3.62648E-09  3.65099E-09  3.80966E-09  4.62762E-09  6.17758E-09  5.36759E-09  5.24116E-09
   5.43585E-09  5.42113E-09  5.41572E-09  5.48671E-09  5.38127E-09  5.22048E-09  5.42280E-09  5.46845E-09  3.31926E-09  2.74797E-09
   2.50565E-09  2.35049E-09  2.22843E-09  2.12195E-09  2.02389E-09  1.93088E-09  1.84112E-09  1.75358E-09  1.66771E-09  1.58312E-09
   1.49958E-09  1.41698E-09  1.33521E-09  1.25428E-09  1.17412E-09  1.09477E-09  1.01623E-09  9.38557E-10  8.61753E-10  7.85885E-10
   7.10993E-10  6.37126E-10  5.64342E-10  4.92688E-10  4.22228E-10  3.53012E-10  2.85123E-10  2.18582E-10  1.53469E-10  8.97492E-11
   2.74108E-11 -3.35713E-11 -9.32115E-11 -1.51537E-10 -2.08559E-10 -2.64307E-10 -3.18789E-10 -3.72026E-10 -4.24044E-10 -4.74859E-10
  -5.24477E-10 -5.72931E-10 -6.20234E-10 -6.66401E-10 -7.11456E-10 -7.55413E-10 -7.98278E-10 -8.40093E-10 -8.80871E-10 -9.20608E-10
