 LCModel (Version 6.3-1R) Copyright: S.W. Provencher.          Ref.: Magn. Reson. Med. 30:672-679 (1993).                
 onepulse 23x18_ftSpec_smooth_lcm
 26 lines in following concentration table = NCONC+1
    Conc.  %SD   /Cr    Metabolite                                         
 9.92E-11 191%   0.000 Ala                                                 
 5.62E-10  68%   0.000 Asp                                                 
    0.000 999%   0.000 Cr                                                  
 2.85E-09  13%   0.000 GABA                                                
 1.47E-09  21%   0.000 Glc                                                 
    0.000 999%   0.000 Gln                                                 
 4.19E-10  95%   0.000 Glu                                                 
    0.000 999%   0.000 Glyc                                                
    0.000 999%   0.000 GPC                                                 
 3.38E-11 604%   0.000 GSH                                                 
 1.52E-10 140%   0.000 Ins                                                 
    0.000 999%   0.000 Lac                                                 
    0.000 999%   0.000 NAAG                                                
 1.01E-09  17%   0.000 NAA                                                 
 1.17E-10  46%   0.000 PCh                                                 
    0.000 999%   0.000 PCr                                                 
    0.000 999%   0.000 PE                                                  
    0.000 999%   0.000 Scyllo                                              
    0.000 999%   0.000 Ser                                                 
    0.000 999%   0.000 Tau                                                 
 1.17E-10  46%   0.000 GPC+PCh                                             
 1.01E-09  17%   0.000 NAA+NAAG                                            
 1.52E-10 140%   0.000 Ins+Glyc                                            
    0.000 999%   0.000 Cr+PCr                                              
 4.19E-10  95%   0.000 Glu+Gln                                             
   6 lines in following misc. output table
  FWHM = 0.067 ppm    S/N =   4                                            
  Data shift = 0.324 ppm                                                   
  Ph:  51 deg      29.5 deg/ppm                                            
  alphaB,S = 1.7E-01,   3.9E+01                                            
   16 spline knots.   Ns = 5(1)                                            
  (11) 2 infls.   ( 5) 1 extrs.                                            
  363 points on ppm-axis = NY
      4.250000     4.238821     4.227641     4.216462     4.205282     4.194103     4.182923     4.171744     4.160564     4.149385
      4.138206     4.127026     4.115847     4.104667     4.093488     4.082308     4.071129     4.059949     4.048770     4.037591
      4.026411     4.015232     4.004052     3.992873     3.981693     3.970514     3.959334     3.948155     3.936975     3.925796
      3.914617     3.903437     3.892258     3.881078     3.869899     3.858719     3.847540     3.836360     3.825181     3.814002
      3.802822     3.791643     3.780463     3.769284     3.758104     3.746925     3.735745     3.724566     3.713387     3.702207
      3.691028     3.679848     3.668669     3.657489     3.646310     3.635130     3.623951     3.612772     3.601592     3.590413
      3.579233     3.568054     3.556874     3.545695     3.534515     3.523336     3.512156     3.500977     3.489798     3.478618
      3.467439     3.456259     3.445080     3.433900     3.422721     3.411541     3.400362     3.389183     3.378003     3.366824
      3.355644     3.344465     3.333285     3.322106     3.310926     3.299747     3.288568     3.277388     3.266209     3.255029
      3.243850     3.232670     3.221491     3.210311     3.199132     3.187953     3.176773     3.165594     3.154414     3.143235
      3.132055     3.120876     3.109696     3.098517     3.087337     3.076158     3.064979     3.053799     3.042620     3.031440
      3.020261     3.009081     2.997902     2.986722     2.975543     2.964364     2.953184     2.942005     2.930825     2.919646
      2.908466     2.897287     2.886107     2.874928     2.863749     2.852569     2.841390     2.830210     2.819031     2.807851
      2.796672     2.785492     2.774313     2.763134     2.751954     2.740775     2.729595     2.718416     2.707236     2.696057
      2.684877     2.673698     2.662519     2.651339     2.640160     2.628980     2.617801     2.606621     2.595442     2.584262
      2.573083     2.561903     2.550724     2.539545     2.528365     2.517186     2.506006     2.494827     2.483647     2.472468
      2.461288     2.450109     2.438930     2.427750     2.416571     2.405391     2.394212     2.383032     2.371853     2.360673
      2.349494     2.338315     2.327135     2.315956     2.304776     2.293597     2.282417     2.271238     2.260058     2.248879
      2.237700     2.226520     2.215341     2.204161     2.192982     2.181802     2.170623     2.159443     2.148264     2.137084
      2.125905     2.114726     2.103546     2.092367     2.081187     2.070008     2.058828     2.047649     2.036469     2.025290
      2.014111     2.002931     1.991752     1.980572     1.969393     1.958213     1.947034     1.935854     1.924675     1.913496
      1.902316     1.891137     1.879957     1.868778     1.857598     1.846419     1.835239     1.824060     1.812881     1.801701
      1.790522     1.779342     1.768163     1.756983     1.745804     1.734624     1.723445     1.712265     1.701086     1.689907
      1.678727     1.667548     1.656368     1.645189     1.634009     1.622830     1.611650     1.600471     1.589292     1.578112
      1.566933     1.555753     1.544574     1.533394     1.522215     1.511035     1.499856     1.488677     1.477497     1.466318
      1.455138     1.443959     1.432779     1.421600     1.410420     1.399241     1.388062     1.376882     1.365703     1.354523
      1.343344     1.332164     1.320985     1.309805     1.298626     1.287446     1.276267     1.265088     1.253908     1.242729
      1.231549     1.220370     1.209190     1.198011     1.186831     1.175652     1.164473     1.153293     1.142114     1.130934
      1.119755     1.108575     1.097396     1.086216     1.075037     1.063858     1.052678     1.041499     1.030319     1.019140
      1.007960     0.996781     0.985601     0.974422     0.963243     0.952063     0.940884     0.929704     0.918525     0.907345
      0.896166     0.884986     0.873807     0.862628     0.851448     0.840269     0.829089     0.817910     0.806730     0.795551
      0.784371     0.773192     0.762012     0.750833     0.739654     0.728474     0.717295     0.706115     0.694936     0.683756
      0.672577     0.661397     0.650218     0.639039     0.627859     0.616680     0.605500     0.594321     0.583141     0.571962
      0.560782     0.549603     0.538424     0.527244     0.516065     0.504885     0.493706     0.482526     0.471347     0.460167
      0.448988     0.437809     0.426629     0.415450     0.404270     0.393091     0.381911     0.370732     0.359552     0.348373
      0.337193     0.326014     0.314835     0.303655     0.292476     0.281296     0.270117     0.258937     0.247758     0.236578
      0.225399     0.214220     0.203040
 NY phased data points follow
   3.07761E-09  4.10278E-09  6.89168E-09  8.82842E-09  9.76187E-09  9.40726E-09  8.00039E-09  7.59253E-09  6.37783E-09  5.47238E-09
   5.76233E-09  4.94348E-09  5.07179E-09  5.04812E-09  5.85123E-09  6.47777E-09  6.09395E-09  7.30024E-09  7.01678E-09  6.79955E-09
   7.25566E-09  6.92149E-09  7.10922E-09  7.09002E-09  5.68186E-09  6.21058E-09  6.71205E-09  7.47917E-09  8.29195E-09  7.61872E-09
   7.28059E-09  6.99475E-09  6.77796E-09  7.90064E-09  9.76394E-09  1.07219E-08  1.08175E-08  9.74921E-09  9.04352E-09  7.55373E-09
   6.67060E-09  6.29159E-09  6.23093E-09  5.30083E-09  5.25854E-09  5.29571E-09  4.86170E-09  4.24741E-09  5.15779E-09  4.26900E-09
   3.47076E-09  3.24832E-09  4.34019E-09  3.86683E-09  5.01573E-09  4.58823E-09  3.97590E-09  3.28508E-09  3.64554E-09  3.57822E-09
   3.23966E-09  3.35462E-09  4.51361E-09  5.35000E-09  7.01781E-09  9.24874E-09  1.29454E-08  1.28015E-08  1.10538E-08  9.08582E-09
   7.45732E-09  6.15265E-09  5.92360E-09  4.84689E-09  4.13387E-09  3.77345E-09  3.49451E-09  3.27996E-09  3.61325E-09  4.45666E-09
   5.68328E-09  8.61572E-09  1.14413E-08  1.37161E-08  1.31931E-08  1.06930E-08  9.52659E-09  8.03490E-09  8.47167E-09  7.35664E-09
   6.90090E-09  6.79930E-09  5.64590E-09  5.58590E-09  5.30694E-09  4.75722E-09  4.87080E-09  3.89304E-09  4.37842E-09  3.41510E-09
   3.71677E-09  3.29031E-09  3.50644E-09  4.16627E-09  3.41012E-09  4.37363E-09  3.34425E-09  3.47012E-09  3.75879E-09  3.37646E-09
   3.55452E-09  2.47382E-09  2.16875E-09  2.31738E-09  2.56389E-09  2.83180E-09  3.69383E-09  3.23745E-09  3.43769E-09  3.86970E-09
   3.87967E-09  4.46641E-09  4.14346E-09  3.41531E-09  3.63193E-09  3.26438E-09  1.87186E-09  2.48516E-09  1.29054E-09  1.84218E-09
   2.36459E-09  3.63646E-09  2.55085E-09  2.35799E-09  2.87809E-09  3.08870E-09  2.27367E-09  2.27840E-09  2.18854E-09  2.23146E-09
   2.07472E-09  2.95454E-09  3.43233E-09  4.02508E-09  4.38774E-09  3.97499E-09  3.39070E-09  4.02003E-09  4.57738E-09  4.42764E-09
   4.81674E-09  4.60614E-09  3.79187E-09  4.25222E-09  4.45670E-09  3.66953E-09  4.38074E-09  4.04360E-09  4.51347E-09  4.92195E-09
   4.82752E-09  5.36430E-09  5.10401E-09  5.39381E-09  5.44052E-09  4.99657E-09  5.62995E-09  6.51712E-09  6.80395E-09  8.10611E-09
   1.04474E-08  1.22910E-08  1.40710E-08  1.63079E-08  1.58589E-08  1.33246E-08  9.86531E-09  6.96901E-09  5.38161E-09  3.94960E-09
   4.35934E-09  3.12101E-09  2.80070E-09  1.45420E-09  1.76427E-09  1.02018E-09  1.86667E-10  2.35290E-10 -8.24058E-10 -5.23152E-10
  -1.11857E-09 -1.94054E-09 -2.56944E-09 -2.74311E-09 -4.35921E-09 -4.11517E-09 -6.09205E-09 -6.21849E-09 -7.91386E-09 -8.04797E-09
  -9.64417E-09 -9.98786E-09 -1.06021E-08 -1.11229E-08 -1.16323E-08 -1.16518E-08 -1.17298E-08 -1.15402E-08 -1.09103E-08 -1.11399E-08
  -9.91808E-09 -8.56120E-09 -7.81246E-09 -5.71938E-09 -5.88841E-09 -4.07456E-09 -3.11919E-09 -1.90960E-09 -1.94005E-09 -1.07553E-09
  -1.51947E-09 -7.22820E-10 -1.75983E-09 -1.41654E-09 -1.61310E-09 -2.78801E-09 -2.42471E-09 -1.33402E-09 -1.86803E-09 -1.40856E-09
  -1.57355E-09 -1.69067E-09 -1.50657E-09 -1.89681E-09 -1.39985E-09 -2.16239E-09 -2.05294E-09 -2.34330E-09 -1.92494E-09 -1.25244E-09
  -1.58837E-09 -1.71885E-09 -1.25635E-09 -1.20105E-09 -1.47921E-09 -1.43499E-09 -1.62861E-09 -2.31495E-09 -1.94731E-09 -1.75999E-09
  -1.81257E-09 -1.16883E-09 -1.39143E-09 -8.45928E-10 -1.24893E-09 -1.15897E-09 -8.89664E-10 -8.99011E-10 -1.27430E-09 -1.67250E-09
  -1.62258E-09 -2.04016E-09 -1.37513E-09 -2.62659E-09 -2.21841E-09 -2.13142E-09 -1.25069E-09 -1.46910E-09 -1.02606E-09 -9.42504E-10
  -3.90485E-10 -3.18267E-10 -6.70339E-10 -4.20669E-10 -9.01835E-10 -8.74152E-10 -3.10412E-10 -1.48510E-09 -1.11822E-09 -1.44051E-09
  -1.63431E-09 -1.56408E-09 -1.85598E-09 -1.79122E-09 -1.45392E-09 -2.01196E-09 -1.45437E-09 -1.69804E-09 -9.59435E-10 -1.31633E-09
  -9.08547E-10 -6.18590E-10 -1.34620E-09 -1.28401E-09 -1.05552E-09 -9.76981E-10 -1.29269E-09 -9.86835E-10 -1.09744E-09 -1.75819E-09
  -1.60632E-09 -7.35450E-10 -1.43977E-09 -1.17705E-09 -9.01776E-10 -1.19033E-09 -1.08099E-09 -1.37181E-09 -1.00907E-09 -6.60847E-10
  -9.38641E-10 -1.17292E-09 -1.36829E-09 -8.31211E-10 -6.56244E-10 -8.69681E-10 -3.85198E-10 -1.54740E-09 -4.62244E-10 -1.43026E-09
  -3.89908E-10 -9.37268E-10 -1.20211E-09 -3.14306E-10 -9.02976E-10 -4.30476E-10 -7.01270E-10 -1.18908E-09 -7.28961E-10 -1.27144E-09
  -5.75719E-10 -2.58263E-10 -1.58788E-09 -1.14324E-09 -7.34146E-10 -1.18386E-09 -6.58079E-10 -1.05345E-09 -1.11778E-09 -5.15490E-10
  -7.54638E-10 -6.95832E-10 -8.65356E-10 -3.19321E-10 -1.19271E-09 -6.16407E-10 -2.61880E-10 -1.21199E-09 -4.27337E-10 -1.20337E-09
  -7.03007E-10 -5.65083E-10 -8.27537E-10 -3.28846E-10 -4.72670E-10 -2.03126E-10 -2.56363E-10 -6.96744E-10 -5.65181E-10 -4.79660E-10
  -2.04806E-10 -1.19101E-09 -1.53244E-10
 NY points of the fit to the data follow
   5.81019E-09  6.32140E-09  6.85045E-09  7.34764E-09  7.67683E-09  7.70555E-09  7.40432E-09  6.88530E-09  6.36841E-09  5.80585E-09
   5.46089E-09  5.32627E-09  5.33142E-09  5.43683E-09  5.70778E-09  6.02304E-09  6.36039E-09  6.78193E-09  7.23296E-09  7.62650E-09
   7.95405E-09  7.98289E-09  7.62000E-09  7.10206E-09  6.52082E-09  6.00713E-09  5.83845E-09  6.20466E-09  6.87172E-09  7.54043E-09
   7.88152E-09  8.11239E-09  8.36576E-09  8.45339E-09  8.47026E-09  8.78980E-09  9.17448E-09  9.34968E-09  9.11778E-09  8.50301E-09
   7.84486E-09  7.13512E-09  5.98224E-09  5.07921E-09  4.62898E-09  4.08641E-09  3.65949E-09  3.57268E-09  3.68576E-09  3.84240E-09
   3.97469E-09  4.01128E-09  3.97805E-09  3.90253E-09  3.86376E-09  3.91434E-09  4.00847E-09  4.13960E-09  4.18830E-09  4.17640E-09
   4.32300E-09  4.77773E-09  5.37215E-09  6.10410E-09  7.21798E-09  8.21795E-09  8.98006E-09  9.60176E-09  9.96403E-09  9.95942E-09
   9.56168E-09  8.64246E-09  7.41214E-09  6.46455E-09  5.46485E-09  4.45066E-09  4.35580E-09  4.86245E-09  5.36999E-09  6.28572E-09
   7.47869E-09  8.90539E-09  1.05248E-08  1.16749E-08  1.18737E-08  1.12981E-08  1.01485E-08  8.65841E-09  7.15166E-09  6.64625E-09
   6.47623E-09  6.48502E-09  6.25872E-09  5.69861E-09  5.40045E-09  5.07835E-09  4.48359E-09  4.10199E-09  3.86172E-09  3.60148E-09
   3.44288E-09  3.35369E-09  3.31916E-09  3.34051E-09  3.38538E-09  3.43716E-09  3.47646E-09  3.49330E-09  3.49142E-09  3.46667E-09
   3.40776E-09  3.33607E-09  3.29957E-09  3.24356E-09  3.18503E-09  3.17752E-09  3.18565E-09  3.19989E-09  3.21704E-09  3.23565E-09
   3.25493E-09  3.27437E-09  3.29359E-09  3.31230E-09  3.33029E-09  3.34738E-09  3.36340E-09  3.37824E-09  3.39176E-09  3.40383E-09
   3.41438E-09  3.42328E-09  3.43046E-09  3.43581E-09  3.43925E-09  3.44070E-09  3.44006E-09  3.43729E-09  3.43230E-09  3.42504E-09
   3.41543E-09  3.40337E-09  3.38873E-09  3.37140E-09  3.35129E-09  3.32830E-09  3.30236E-09  3.27338E-09  3.24130E-09  3.20608E-09
   3.16770E-09  3.12619E-09  3.08160E-09  3.03405E-09  2.98372E-09  2.93090E-09  2.87602E-09  2.81973E-09  2.76300E-09  2.70731E-09
   2.65496E-09  2.60974E-09  2.57831E-09  2.57350E-09  2.62471E-09  2.82136E-09  3.55140E-09  4.91644E-09  6.55140E-09  8.47306E-09
   1.08428E-08  1.35193E-08  1.58656E-08  1.69023E-08  1.60049E-08  1.33680E-08  9.59449E-09  5.29761E-09  1.92626E-09  3.82300E-10
  -2.27916E-10 -6.01387E-10 -8.86923E-10 -1.13008E-09 -1.34913E-09 -1.55263E-09 -1.74490E-09 -1.92824E-09 -2.10382E-09 -2.27225E-09
  -2.43372E-09 -2.58822E-09 -2.73558E-09 -2.87550E-09 -3.00765E-09 -3.13165E-09 -3.24721E-09 -3.35448E-09 -3.45368E-09 -3.54503E-09
  -3.62871E-09 -3.70493E-09 -3.77386E-09 -3.83568E-09 -3.89058E-09 -3.93871E-09 -3.98026E-09 -4.01539E-09 -4.04427E-09 -4.06707E-09
  -4.08395E-09 -4.09507E-09 -4.10059E-09 -4.10069E-09 -4.09552E-09 -4.08525E-09 -4.07003E-09 -4.05003E-09 -4.02541E-09 -3.99633E-09
  -3.96295E-09 -3.92543E-09 -3.88393E-09 -3.83862E-09 -3.78967E-09 -3.73733E-09 -3.68181E-09 -3.62337E-09 -3.56223E-09 -3.49864E-09
  -3.43283E-09 -3.36504E-09 -3.29551E-09 -3.22447E-09 -3.15215E-09 -3.07881E-09 -3.00466E-09 -2.92995E-09 -2.85491E-09 -2.77979E-09
  -2.70482E-09 -2.63023E-09 -2.55626E-09 -2.48316E-09 -2.41114E-09 -2.34046E-09 -2.27134E-09 -2.20403E-09 -2.13876E-09 -2.07578E-09
  -2.01529E-09 -1.95757E-09 -1.90269E-09 -1.85059E-09 -1.80117E-09 -1.75436E-09 -1.71004E-09 -1.66816E-09 -1.62861E-09 -1.59130E-09
  -1.55616E-09 -1.52308E-09 -1.49199E-09 -1.46279E-09 -1.43540E-09 -1.40973E-09 -1.38567E-09 -1.36317E-09 -1.34213E-09 -1.32245E-09
  -1.30404E-09 -1.28683E-09 -1.27071E-09 -1.25561E-09 -1.24144E-09 -1.22810E-09 -1.21551E-09 -1.20359E-09 -1.19224E-09 -1.18137E-09
  -1.17094E-09 -1.16093E-09 -1.15131E-09 -1.14207E-09 -1.13320E-09 -1.12466E-09 -1.11645E-09 -1.10854E-09 -1.10092E-09 -1.09356E-09
  -1.08646E-09 -1.07958E-09 -1.07291E-09 -1.06643E-09 -1.06013E-09 -1.05399E-09 -1.04798E-09 -1.04209E-09 -1.03630E-09 -1.03058E-09
  -1.02494E-09 -1.01933E-09 -1.01375E-09 -1.00818E-09 -1.00259E-09 -9.96970E-10 -9.91305E-10 -9.85567E-10 -9.79757E-10 -9.73870E-10
  -9.67903E-10 -9.61857E-10 -9.55730E-10 -9.49517E-10 -9.43219E-10 -9.36833E-10 -9.30358E-10 -9.23792E-10 -9.17135E-10 -9.10381E-10
  -9.03534E-10 -8.96586E-10 -8.89538E-10 -8.82393E-10 -8.75140E-10 -8.67786E-10 -8.60324E-10 -8.52752E-10 -8.45071E-10 -8.37282E-10
  -8.29375E-10 -8.21355E-10 -8.13215E-10 -8.04960E-10 -7.96584E-10 -7.88084E-10 -7.79466E-10 -7.70735E-10 -7.61894E-10 -7.52947E-10
  -7.43900E-10 -7.34756E-10 -7.25519E-10 -7.16194E-10 -7.06789E-10 -6.97300E-10 -6.87741E-10 -6.78111E-10 -6.68416E-10 -6.58660E-10
  -6.48845E-10 -6.38981E-10 -6.29067E-10 -6.19111E-10 -6.09116E-10 -5.99087E-10 -5.89028E-10 -5.78942E-10 -5.68835E-10 -5.58713E-10
  -5.48579E-10 -5.38439E-10 -5.28291E-10
 NY background values follow
     4.100E-10    4.196E-10    4.291E-10    4.386E-10    4.480E-10    4.574E-10    4.667E-10    4.759E-10    4.851E-10    4.941E-10
     5.030E-10    5.119E-10    5.206E-10    5.291E-10    5.375E-10    5.458E-10    5.539E-10    5.619E-10    5.697E-10    5.773E-10
     5.847E-10    5.919E-10    5.988E-10    6.056E-10    6.122E-10    6.185E-10    6.245E-10    6.303E-10    6.359E-10    6.412E-10
     6.462E-10    6.511E-10    6.557E-10    6.602E-10    6.646E-10    6.689E-10    6.731E-10    6.773E-10    6.815E-10    6.857E-10
     6.899E-10    6.943E-10    6.987E-10    7.032E-10    7.080E-10    7.129E-10    7.180E-10    7.234E-10    7.290E-10    7.350E-10
     7.412E-10    7.479E-10    7.549E-10    7.624E-10    7.703E-10    7.786E-10    7.875E-10    7.969E-10    8.068E-10    8.173E-10
     8.284E-10    8.401E-10    8.524E-10    8.653E-10    8.788E-10    8.931E-10    9.080E-10    9.236E-10    9.399E-10    9.570E-10
     9.748E-10    9.933E-10    1.013E-09    1.033E-09    1.054E-09    1.076E-09    1.098E-09    1.122E-09    1.146E-09    1.172E-09
     1.198E-09    1.225E-09    1.253E-09    1.282E-09    1.312E-09    1.343E-09    1.375E-09    1.408E-09    1.442E-09    1.476E-09
     1.511E-09    1.547E-09    1.583E-09    1.620E-09    1.657E-09    1.695E-09    1.733E-09    1.771E-09    1.810E-09    1.848E-09
     1.887E-09    1.926E-09    1.965E-09    2.003E-09    2.042E-09    2.080E-09    2.118E-09    2.156E-09    2.194E-09    2.231E-09
     2.267E-09    2.304E-09    2.339E-09    2.374E-09    2.408E-09    2.441E-09    2.474E-09    2.505E-09    2.536E-09    2.565E-09
     2.593E-09    2.620E-09    2.646E-09    2.670E-09    2.692E-09    2.713E-09    2.733E-09    2.751E-09    2.767E-09    2.781E-09
     2.793E-09    2.803E-09    2.811E-09    2.817E-09    2.821E-09    2.822E-09    2.821E-09    2.817E-09    2.811E-09    2.803E-09
     2.791E-09    2.777E-09    2.760E-09    2.740E-09    2.716E-09    2.689E-09    2.659E-09    2.625E-09    2.587E-09    2.545E-09
     2.499E-09    2.449E-09    2.395E-09    2.336E-09    2.272E-09    2.204E-09    2.131E-09    2.052E-09    1.969E-09    1.880E-09
     1.785E-09    1.685E-09    1.580E-09    1.468E-09    1.350E-09    1.226E-09    1.096E-09    9.596E-10    8.164E-10    6.671E-10
     5.123E-10    3.523E-10    1.878E-10    1.933E-11   -1.526E-10   -3.275E-10   -5.048E-10   -6.840E-10   -8.646E-10   -1.046E-09
    -1.228E-09   -1.409E-09   -1.590E-09   -1.769E-09   -1.947E-09   -2.122E-09   -2.294E-09   -2.463E-09   -2.628E-09   -2.788E-09
    -2.944E-09   -3.093E-09   -3.237E-09   -3.374E-09   -3.504E-09   -3.627E-09   -3.741E-09   -3.848E-09   -3.946E-09   -4.037E-09
    -4.120E-09   -4.196E-09   -4.265E-09   -4.327E-09   -4.382E-09   -4.430E-09   -4.472E-09   -4.507E-09   -4.537E-09   -4.560E-09
    -4.577E-09   -4.588E-09   -4.594E-09   -4.595E-09   -4.590E-09   -4.580E-09   -4.565E-09   -4.545E-09   -4.521E-09   -4.492E-09
    -4.459E-09   -4.422E-09   -4.381E-09   -4.336E-09   -4.287E-09   -4.235E-09   -4.180E-09   -4.122E-09   -4.061E-09   -3.998E-09
    -3.933E-09   -3.865E-09   -3.796E-09   -3.725E-09   -3.653E-09   -3.580E-09   -3.506E-09   -3.432E-09   -3.357E-09   -3.282E-09
    -3.207E-09   -3.133E-09   -3.059E-09   -2.986E-09   -2.915E-09   -2.844E-09   -2.775E-09   -2.708E-09   -2.643E-09   -2.580E-09
    -2.520E-09   -2.463E-09   -2.408E-09   -2.356E-09   -2.307E-09   -2.260E-09   -2.216E-09   -2.174E-09   -2.135E-09   -2.098E-09
    -2.063E-09   -2.030E-09   -1.999E-09   -1.970E-09   -1.943E-09   -1.917E-09   -1.893E-09   -1.871E-09   -1.850E-09   -1.830E-09
    -1.812E-09   -1.795E-09   -1.779E-09   -1.764E-09   -1.750E-09   -1.737E-09   -1.724E-09   -1.713E-09   -1.701E-09   -1.690E-09
    -1.680E-09   -1.670E-09   -1.661E-09   -1.652E-09   -1.643E-09   -1.634E-09   -1.626E-09   -1.618E-09   -1.611E-09   -1.604E-09
    -1.596E-09   -1.590E-09   -1.583E-09   -1.577E-09   -1.570E-09   -1.564E-09   -1.558E-09   -1.552E-09   -1.547E-09   -1.541E-09
    -1.535E-09   -1.530E-09   -1.524E-09   -1.519E-09   -1.513E-09   -1.508E-09   -1.502E-09   -1.496E-09   -1.490E-09   -1.485E-09
    -1.479E-09   -1.473E-09   -1.467E-09   -1.460E-09   -1.454E-09   -1.448E-09   -1.441E-09   -1.435E-09   -1.428E-09   -1.421E-09
    -1.414E-09   -1.407E-09   -1.400E-09   -1.393E-09   -1.386E-09   -1.378E-09   -1.371E-09   -1.363E-09   -1.356E-09   -1.348E-09
    -1.340E-09   -1.332E-09   -1.324E-09   -1.315E-09   -1.307E-09   -1.298E-09   -1.290E-09   -1.281E-09   -1.272E-09   -1.263E-09
    -1.254E-09   -1.245E-09   -1.235E-09   -1.226E-09   -1.216E-09   -1.207E-09   -1.197E-09   -1.188E-09   -1.178E-09   -1.168E-09
    -1.158E-09   -1.148E-09   -1.138E-09   -1.128E-09   -1.118E-09   -1.108E-09   -1.098E-09   -1.087E-09   -1.077E-09   -1.067E-09
    -1.057E-09   -1.047E-09   -1.036E-09
 Ala      Conc. = 9.92E-11
   4.79208E-10  4.96771E-10  5.13173E-10  5.26988E-10  5.37561E-10  5.47297E-10  5.54407E-10  5.53960E-10  5.54654E-10  5.58814E-10
   5.55073E-10  5.52339E-10  5.55739E-10  5.57420E-10  5.59659E-10  5.64295E-10  5.70044E-10  5.76341E-10  5.82907E-10  5.89582E-10
   5.96270E-10  6.02903E-10  6.09437E-10  6.15836E-10  6.22073E-10  6.28125E-10  6.33974E-10  6.39603E-10  6.44997E-10  6.50153E-10
   6.55092E-10  6.59839E-10  6.64419E-10  6.68861E-10  6.73190E-10  6.77433E-10  6.81619E-10  6.85774E-10  6.89926E-10  6.94103E-10
   6.98333E-10  7.02644E-10  7.07063E-10  7.11619E-10  7.16342E-10  7.21256E-10  7.26392E-10  7.31780E-10  7.37443E-10  7.43414E-10
   7.49721E-10  7.56390E-10  7.63451E-10  7.70932E-10  7.78867E-10  7.87273E-10  7.96185E-10  8.05628E-10  8.15620E-10  8.26176E-10
   8.37316E-10  8.49056E-10  8.61414E-10  8.74407E-10  8.88052E-10  9.02368E-10  9.17371E-10  9.33080E-10  9.49512E-10  9.66686E-10
   9.84617E-10  1.00333E-09  1.02283E-09  1.04315E-09  1.06430E-09  1.08630E-09  1.10917E-09  1.13293E-09  1.15760E-09  1.18320E-09
   1.20975E-09  1.23727E-09  1.26578E-09  1.29532E-09  1.32589E-09  1.35749E-09  1.39009E-09  1.42363E-09  1.45809E-09  1.49342E-09
   1.52961E-09  1.56666E-09  1.60456E-09  1.64337E-09  1.68318E-09  1.72419E-09  1.76677E-09  1.81172E-09  1.86094E-09  1.92061E-09
   1.99942E-09  2.07424E-09  2.15970E-09  2.27259E-09  2.38955E-09  2.49933E-09  2.58586E-09  2.64166E-09  2.67238E-09  2.67527E-09
   2.64038E-09  2.58954E-09  2.57111E-09  2.53077E-09  2.48581E-09  2.49006E-09  2.50859E-09  2.53206E-09  2.55739E-09  2.58323E-09
   2.60889E-09  2.63394E-09  2.65809E-09  2.68115E-09  2.70295E-09  2.72336E-09  2.74227E-09  2.75956E-09  2.77515E-09  2.78894E-09
   2.80084E-09  2.81077E-09  2.81865E-09  2.82439E-09  2.82792E-09  2.82915E-09  2.82801E-09  2.82442E-09  2.81830E-09  2.80958E-09
   2.79816E-09  2.78395E-09  2.76678E-09  2.74653E-09  2.72305E-09  2.69620E-09  2.66584E-09  2.63183E-09  2.59404E-09  2.55231E-09
   2.50653E-09  2.45653E-09  2.40220E-09  2.34338E-09  2.27996E-09  2.21178E-09  2.13872E-09  2.06064E-09  1.97743E-09  1.88896E-09
   1.79513E-09  1.69583E-09  1.59104E-09  1.48075E-09  1.36520E-09  1.24524E-09  1.12506E-09  1.01363E-09  8.96315E-10  7.77293E-10
   6.60408E-10  5.44866E-10  4.22265E-10  2.76146E-10  9.45809E-11 -1.18215E-10 -3.50175E-10 -5.93282E-10 -8.31011E-10 -1.02735E-09
  -1.21445E-09 -1.39854E-09 -1.58073E-09 -1.76106E-09 -1.93922E-09 -2.11484E-09 -2.28745E-09 -2.45655E-09 -2.62163E-09 -2.78219E-09
  -2.93771E-09 -3.08767E-09 -3.23155E-09 -3.36879E-09 -3.49889E-09 -3.62133E-09 -3.73571E-09 -3.84210E-09 -3.94066E-09 -4.03156E-09
  -4.11496E-09 -4.19102E-09 -4.25989E-09 -4.32174E-09 -4.37672E-09 -4.42501E-09 -4.46675E-09 -4.50211E-09 -4.53125E-09 -4.55433E-09
  -4.57151E-09 -4.58295E-09 -4.58880E-09 -4.58923E-09 -4.58441E-09 -4.57448E-09 -4.55961E-09 -4.53996E-09 -4.51569E-09 -4.48696E-09
  -4.45393E-09 -4.41675E-09 -4.37560E-09 -4.33062E-09 -4.28201E-09 -4.22999E-09 -4.17481E-09 -4.11668E-09 -4.05587E-09 -3.99259E-09
  -3.92709E-09 -3.85960E-09 -3.79037E-09 -3.71962E-09 -3.64759E-09 -3.57452E-09 -3.50065E-09 -3.42622E-09 -3.35144E-09 -3.27658E-09
  -3.20187E-09 -3.12753E-09 -3.05381E-09 -2.98094E-09 -2.90916E-09 -2.83871E-09 -2.76982E-09 -2.70273E-09 -2.63768E-09 -2.57490E-09
  -2.51462E-09 -2.45711E-09 -2.40243E-09 -2.35052E-09 -2.30129E-09 -2.25466E-09 -2.21053E-09 -2.16883E-09 -2.12945E-09 -2.09231E-09
  -2.05734E-09 -2.02442E-09 -1.99349E-09 -1.96444E-09 -1.93720E-09 -1.91167E-09 -1.88776E-09 -1.86540E-09 -1.84450E-09 -1.82494E-09
  -1.80666E-09 -1.78958E-09 -1.77358E-09 -1.75860E-09 -1.74455E-09 -1.73131E-09 -1.71884E-09 -1.70702E-09 -1.69577E-09 -1.68500E-09
  -1.67467E-09 -1.66475E-09 -1.65522E-09 -1.64607E-09 -1.63728E-09 -1.62882E-09 -1.62069E-09 -1.61285E-09 -1.60530E-09 -1.59801E-09
  -1.59097E-09 -1.58416E-09 -1.57755E-09 -1.57113E-09 -1.56489E-09 -1.55879E-09 -1.55283E-09 -1.54699E-09 -1.54124E-09 -1.53557E-09
  -1.52996E-09 -1.52439E-09 -1.51884E-09 -1.51330E-09 -1.50774E-09 -1.50214E-09 -1.49650E-09 -1.49078E-09 -1.48499E-09 -1.47912E-09
  -1.47316E-09 -1.46713E-09 -1.46101E-09 -1.45480E-09 -1.44850E-09 -1.44212E-09 -1.43564E-09 -1.42907E-09 -1.42240E-09 -1.41564E-09
  -1.40878E-09 -1.40181E-09 -1.39475E-09 -1.38758E-09 -1.38031E-09 -1.37293E-09 -1.36544E-09 -1.35784E-09 -1.35012E-09 -1.34230E-09
  -1.33436E-09 -1.32630E-09 -1.31811E-09 -1.30981E-09 -1.30139E-09 -1.29284E-09 -1.28417E-09 -1.27539E-09 -1.26649E-09 -1.25748E-09
  -1.24837E-09 -1.23916E-09 -1.22986E-09 -1.22047E-09 -1.21099E-09 -1.20143E-09 -1.19179E-09 -1.18208E-09 -1.17231E-09 -1.16247E-09
  -1.15257E-09 -1.14261E-09 -1.13261E-09 -1.12256E-09 -1.11247E-09 -1.10234E-09 -1.09218E-09 -1.08199E-09 -1.07177E-09 -1.06154E-09
  -1.05130E-09 -1.04104E-09 -1.03078E-09
 Asp      Conc. = 5.62E-10
   1.11006E-09  1.04658E-09  9.79639E-10  8.94904E-10  8.13537E-10  7.19951E-10  6.48922E-10  5.92207E-10  5.71518E-10  5.64420E-10
   5.63875E-10  5.67005E-10  5.72386E-10  5.79216E-10  5.86503E-10  5.93990E-10  6.01721E-10  6.09639E-10  6.17691E-10  6.25835E-10
   6.34042E-10  6.42295E-10  6.50587E-10  6.58923E-10  6.67314E-10  6.75786E-10  6.84377E-10  6.93141E-10  7.02157E-10  7.11546E-10
   7.21500E-10  7.32288E-10  7.44303E-10  7.58158E-10  7.74926E-10  7.96812E-10  8.28975E-10  8.64414E-10  9.10894E-10  9.57010E-10
   1.00461E-09  1.05215E-09  1.09734E-09  1.14253E-09  1.18015E-09  1.23768E-09  1.29197E-09  1.37408E-09  1.52455E-09  1.68125E-09
   1.81174E-09  1.85725E-09  1.80518E-09  1.68219E-09  1.53482E-09  1.40955E-09  1.29488E-09  1.26040E-09  1.20338E-09  1.11636E-09
   1.08379E-09  1.08484E-09  1.08399E-09  1.08875E-09  1.09363E-09  1.08030E-09  1.04835E-09  1.03669E-09  1.03565E-09  1.04054E-09
   1.04933E-09  1.06095E-09  1.07479E-09  1.09048E-09  1.10777E-09  1.12651E-09  1.14658E-09  1.16790E-09  1.19042E-09  1.21410E-09
   1.23891E-09  1.26484E-09  1.29187E-09  1.32001E-09  1.34924E-09  1.37954E-09  1.41084E-09  1.44307E-09  1.47616E-09  1.51005E-09
   1.54467E-09  1.57996E-09  1.61586E-09  1.65230E-09  1.68923E-09  1.72658E-09  1.76429E-09  1.80231E-09  1.84057E-09  1.87902E-09
   1.91758E-09  1.95621E-09  1.99485E-09  2.03344E-09  2.07191E-09  2.11021E-09  2.14829E-09  2.18607E-09  2.22351E-09  2.26055E-09
   2.29713E-09  2.33318E-09  2.36865E-09  2.40348E-09  2.43758E-09  2.47088E-09  2.50332E-09  2.53480E-09  2.56525E-09  2.59460E-09
   2.62278E-09  2.64970E-09  2.67530E-09  2.69949E-09  2.72220E-09  2.74337E-09  2.76290E-09  2.78073E-09  2.79678E-09  2.81097E-09
   2.82324E-09  2.83350E-09  2.84169E-09  2.84772E-09  2.85152E-09  2.85302E-09  2.85214E-09  2.84881E-09  2.84296E-09  2.83451E-09
   2.82337E-09  2.80945E-09  2.79258E-09  2.77265E-09  2.74951E-09  2.72303E-09  2.69307E-09  2.65949E-09  2.62217E-09  2.58097E-09
   2.53576E-09  2.48641E-09  2.43280E-09  2.37481E-09  2.31233E-09  2.24524E-09  2.17345E-09  2.09689E-09  2.01549E-09  1.92923E-09
   1.83815E-09  1.74240E-09  1.64231E-09  1.53860E-09  1.43296E-09  1.33000E-09  1.24794E-09  1.25038E-09  1.25312E-09  1.27125E-09
   1.32610E-09  1.41507E-09  1.49451E-09  1.47024E-09  1.26348E-09  8.86462E-10  4.05694E-10 -1.34989E-10 -6.63617E-10 -9.48555E-10
  -1.16430E-09 -1.36145E-09 -1.55073E-09 -1.73531E-09 -1.91621E-09 -2.09366E-09 -2.26753E-09 -2.43753E-09 -2.60327E-09 -2.76431E-09
  -2.92018E-09 -3.07040E-09 -3.21447E-09 -3.35185E-09 -3.48206E-09 -3.60456E-09 -3.71899E-09 -3.82541E-09 -3.92399E-09 -4.01490E-09
  -4.09830E-09 -4.17434E-09 -4.24320E-09 -4.30503E-09 -4.35999E-09 -4.40825E-09 -4.44997E-09 -4.48530E-09 -4.51441E-09 -4.53746E-09
  -4.55461E-09 -4.56601E-09 -4.57183E-09 -4.57224E-09 -4.56738E-09 -4.55742E-09 -4.54253E-09 -4.52284E-09 -4.49854E-09 -4.46978E-09
  -4.43672E-09 -4.39952E-09 -4.35834E-09 -4.31333E-09 -4.26470E-09 -4.21266E-09 -4.15744E-09 -4.09930E-09 -4.03845E-09 -3.97515E-09
