 LCModel (Version 6.3-1R) Copyright: S.W. Provencher.          Ref.: Magn. Reson. Med. 30:672-679 (1993).                
 onepulse 23x25_ftSpec_smooth_lcm
 26 lines in following concentration table = NCONC+1
    Conc.  %SD /Cr+PCr  Metabolite                                         
    0.000 999%   0.000 Ala                                                 
    0.000 999%   0.000 Asp                                                 
 3.13E-10  77%   1.000 Cr                                                  
    0.000 999%   0.000 GABA                                                
 5.03E-10 166%   1.608 Glc                                                 
 1.67E-09  53%   5.322 Gln                                                 
 7.60E-10  94%   2.427 Glu                                                 
 1.16E-09  39%   3.712 Glyc                                                
    0.000 999%   0.000 GPC                                                 
    0.000 999%   0.000 GSH                                                 
    0.000 999%   0.000 Ins                                                 
    0.000 999%   0.000 Lac                                                 
    0.000 999%   0.000 NAAG                                                
 7.62E-10  34%   2.435 NAA                                                 
    0.000 999%   0.000 PCh                                                 
    0.000 999%   0.000 PCr                                                 
 1.42E-09  33%   4.538 PE                                                  
 1.48E-10 121%   0.474 Scyllo                                              
 2.20E-09  35%   7.030 Ser                                                 
    0.000 999%   0.000 Tau                                                 
    0.000 999%   0.000 GPC+PCh                                             
 7.62E-10  34%   2.435 NAA+NAAG                                            
 1.16E-09  39%   3.712 Ins+Glyc                                            
 3.13E-10  77%   1.000 Cr+PCr                                              
 2.43E-09  24%   7.749 Glu+Gln                                             
   6 lines in following misc. output table
  FWHM = 0.078 ppm    S/N =   3                                            
  Data shift = 0.335 ppm                                                   
  Ph: -48 deg     -19.8 deg/ppm                                            
  alphaB,S = 1.7E-01,   7.4E+01                                            
   16 spline knots.   Ns = 5(1)                                            
  (11) 2 infls.   ( 5) 1 extrs.                                            
  363 points on ppm-axis = NY
      4.250000     4.238821     4.227641     4.216462     4.205282     4.194103     4.182923     4.171744     4.160564     4.149385
      4.138206     4.127026     4.115847     4.104667     4.093488     4.082308     4.071129     4.059949     4.048770     4.037591
      4.026411     4.015232     4.004052     3.992873     3.981693     3.970514     3.959334     3.948155     3.936975     3.925796
      3.914617     3.903437     3.892258     3.881078     3.869899     3.858719     3.847540     3.836360     3.825181     3.814002
      3.802822     3.791643     3.780463     3.769284     3.758104     3.746925     3.735745     3.724566     3.713387     3.702207
      3.691028     3.679848     3.668669     3.657489     3.646310     3.635130     3.623951     3.612772     3.601592     3.590413
      3.579233     3.568054     3.556874     3.545695     3.534515     3.523336     3.512156     3.500977     3.489798     3.478618
      3.467439     3.456259     3.445080     3.433900     3.422721     3.411541     3.400362     3.389183     3.378003     3.366824
      3.355644     3.344465     3.333285     3.322106     3.310926     3.299747     3.288568     3.277388     3.266209     3.255029
      3.243850     3.232670     3.221491     3.210311     3.199132     3.187953     3.176773     3.165594     3.154414     3.143235
      3.132055     3.120876     3.109696     3.098517     3.087337     3.076158     3.064979     3.053799     3.042620     3.031440
      3.020261     3.009081     2.997902     2.986722     2.975543     2.964364     2.953184     2.942005     2.930825     2.919646
      2.908466     2.897287     2.886107     2.874928     2.863749     2.852569     2.841390     2.830210     2.819031     2.807851
      2.796672     2.785492     2.774313     2.763134     2.751954     2.740775     2.729595     2.718416     2.707236     2.696057
      2.684877     2.673698     2.662519     2.651339     2.640160     2.628980     2.617801     2.606621     2.595442     2.584262
      2.573083     2.561903     2.550724     2.539545     2.528365     2.517186     2.506006     2.494827     2.483647     2.472468
      2.461288     2.450109     2.438930     2.427750     2.416571     2.405391     2.394212     2.383032     2.371853     2.360673
      2.349494     2.338315     2.327135     2.315956     2.304776     2.293597     2.282417     2.271238     2.260058     2.248879
      2.237700     2.226520     2.215341     2.204161     2.192982     2.181802     2.170623     2.159443     2.148264     2.137084
      2.125905     2.114726     2.103546     2.092367     2.081187     2.070008     2.058828     2.047649     2.036469     2.025290
      2.014111     2.002931     1.991752     1.980572     1.969393     1.958213     1.947034     1.935854     1.924675     1.913496
      1.902316     1.891137     1.879957     1.868778     1.857598     1.846419     1.835239     1.824060     1.812881     1.801701
      1.790522     1.779342     1.768163     1.756983     1.745804     1.734624     1.723445     1.712265     1.701086     1.689907
      1.678727     1.667548     1.656368     1.645189     1.634009     1.622830     1.611650     1.600471     1.589292     1.578112
      1.566933     1.555753     1.544574     1.533394     1.522215     1.511035     1.499856     1.488677     1.477497     1.466318
      1.455138     1.443959     1.432779     1.421600     1.410420     1.399241     1.388062     1.376882     1.365703     1.354523
      1.343344     1.332164     1.320985     1.309805     1.298626     1.287446     1.276267     1.265088     1.253908     1.242729
      1.231549     1.220370     1.209190     1.198011     1.186831     1.175652     1.164473     1.153293     1.142114     1.130934
      1.119755     1.108575     1.097396     1.086216     1.075037     1.063858     1.052678     1.041499     1.030319     1.019140
      1.007960     0.996781     0.985601     0.974422     0.963243     0.952063     0.940884     0.929704     0.918525     0.907345
      0.896166     0.884986     0.873807     0.862628     0.851448     0.840269     0.829089     0.817910     0.806730     0.795551
      0.784371     0.773192     0.762012     0.750833     0.739654     0.728474     0.717295     0.706115     0.694936     0.683756
      0.672577     0.661397     0.650218     0.639039     0.627859     0.616680     0.605500     0.594321     0.583141     0.571962
      0.560782     0.549603     0.538424     0.527244     0.516065     0.504885     0.493706     0.482526     0.471347     0.460167
      0.448988     0.437809     0.426629     0.415450     0.404270     0.393091     0.381911     0.370732     0.359552     0.348373
      0.337193     0.326014     0.314835     0.303655     0.292476     0.281296     0.270117     0.258937     0.247758     0.236578
      0.225399     0.214220     0.203040
 NY phased data points follow
   1.86734E-08  1.95682E-08  1.76065E-08  1.51806E-08  1.19707E-08  1.12338E-08  8.78454E-09  9.87031E-09  8.84219E-09  9.35916E-09
   9.02782E-09  1.01831E-08  9.96925E-09  1.06359E-08  1.03810E-08  1.10274E-08  9.95339E-09  1.00888E-08  9.04887E-09  9.14703E-09
   8.22145E-09  8.67144E-09  6.95309E-09  7.79850E-09  7.32087E-09  8.70179E-09  8.67347E-09  9.03636E-09  7.59545E-09  6.88197E-09
   6.58602E-09  7.89388E-09  8.58519E-09  9.42258E-09  9.09430E-09  8.40785E-09  5.58433E-09  4.99581E-09  3.68504E-09  3.45409E-09
   2.77039E-09  3.42563E-09  3.02262E-09  3.51225E-09  2.84572E-09  3.29428E-09  2.88650E-09  2.28989E-09  2.17414E-09  2.98207E-09
   2.72206E-09  3.85107E-09  3.65266E-09  4.62077E-09  4.22405E-09  3.44360E-09  3.12784E-09  3.69560E-09  4.11176E-09  5.15771E-09
   5.59753E-09  6.94950E-09  7.03980E-09  9.21118E-09  1.11399E-08  1.11135E-08  9.49110E-09  7.30992E-09  5.37350E-09  3.96419E-09
   3.18901E-09  3.78310E-09  2.99701E-09  2.90686E-09  3.23653E-09  3.92061E-09  3.57762E-09  4.77355E-09  5.36704E-09  8.34454E-09
   1.20168E-08  1.46439E-08  1.43658E-08  1.21938E-08  8.72964E-09  7.28142E-09  5.74249E-09  5.38583E-09  4.63313E-09  4.58563E-09
   4.26190E-09  3.89590E-09  3.07295E-09  2.96314E-09  2.27975E-09  2.09904E-09  1.84791E-09  1.02809E-09  1.55390E-09  1.57021E-09
   1.14003E-09  1.97193E-09  1.72824E-09  2.32851E-09  2.14758E-09  1.97542E-09  1.74165E-09  1.87314E-09  1.84485E-09  1.09249E-09
   3.95176E-10  7.65364E-10 -4.74304E-11  1.46079E-10  1.13624E-09  2.12701E-09  1.75796E-09  1.88458E-09  1.84263E-09  2.46325E-09
   2.15030E-09  1.96168E-09  1.80926E-09  1.73573E-09  1.09718E-09  8.48742E-10 -1.27349E-10  1.17728E-10  2.57037E-10  7.45155E-10
   1.25138E-09  1.70822E-09  9.66409E-10  1.26385E-09  1.40485E-09  1.84077E-09  1.61372E-09  1.41335E-09  1.19319E-09  1.30400E-09
   2.36765E-09  3.74524E-09  4.23332E-09  3.94848E-09  3.31318E-09  3.41515E-09  3.76093E-09  5.11824E-09  4.04258E-09  4.75335E-09
   4.49136E-09  4.34502E-09  3.92412E-09  4.47949E-09  3.88088E-09  3.78153E-09  3.61198E-09  4.49274E-09  3.98225E-09  4.16260E-09
   4.90011E-09  4.60254E-09  5.07143E-09  5.13987E-09  5.49521E-09  6.15581E-09  6.09752E-09  6.13890E-09  7.75695E-09  8.35261E-09
   1.02882E-08  1.38870E-08  1.79911E-08  2.04818E-08  1.83727E-08  1.47654E-08  1.21139E-08  1.00349E-08  8.50608E-09  8.05324E-09
   6.34882E-09  5.65814E-09  5.19792E-09  4.51131E-09  3.46264E-09  2.85721E-09  2.16025E-09  1.10279E-09  3.33404E-10 -6.32225E-10
  -9.58985E-10 -2.51785E-09 -3.67091E-09 -5.18271E-09 -6.60107E-09 -7.54810E-09 -9.38341E-09 -1.03964E-08 -1.19948E-08 -1.31239E-08
  -1.43279E-08 -1.56115E-08 -1.63489E-08 -1.65870E-08 -1.69816E-08 -1.66474E-08 -1.61716E-08 -1.55213E-08 -1.45468E-08 -1.29351E-08
  -1.14771E-08 -9.82410E-09 -8.55711E-09 -6.81785E-09 -5.04936E-09 -3.62843E-09 -2.55004E-09 -1.55006E-09 -1.23746E-09 -3.91253E-10
  -3.22701E-10 -9.11409E-10 -7.12573E-10 -1.19787E-09 -1.13783E-09 -1.31290E-09 -9.82425E-10 -1.59106E-09 -1.20092E-09 -8.80583E-10
  -6.12150E-10 -8.19903E-10 -5.26109E-10 -3.59382E-10 -6.30335E-10 -1.65736E-09 -1.38235E-09 -1.03935E-09 -1.16037E-09 -1.31974E-09
  -4.95735E-10 -2.75304E-10 -7.83173E-11 -1.83982E-10 -6.65467E-10 -7.45117E-10 -3.65188E-10 -1.19303E-09 -1.04229E-09 -8.45474E-10
  -1.15619E-09 -8.55793E-10 -2.23410E-10 -3.02372E-10  1.29672E-11 -9.58803E-12  4.93376E-10  1.96453E-10  3.50529E-10 -8.08854E-11
   1.66639E-10 -1.09307E-09 -5.99965E-10 -8.93612E-10 -1.21459E-09 -1.63612E-09 -1.13673E-09 -9.78068E-10 -1.40083E-09 -8.73412E-10
   2.20997E-10 -2.87980E-10  2.55512E-10 -1.38593E-10  7.16525E-10  7.24900E-10  9.35691E-10  5.84077E-10  5.63619E-10  5.89817E-10
   3.12386E-10  2.19465E-10  2.41134E-10 -3.11176E-10 -1.74213E-10 -5.98141E-10  2.13127E-10 -6.05603E-10 -4.94309E-10 -1.93837E-10
  -6.97744E-10 -2.93669E-10 -2.83606E-10 -8.08321E-10 -6.94064E-10 -2.53552E-10 -6.01730E-10 -6.98978E-10 -6.98259E-10 -3.37047E-10
  -3.98707E-10 -6.33335E-10 -5.64562E-10 -6.00274E-10 -4.24007E-10 -6.16871E-10 -2.34845E-10 -5.43038E-10 -2.32731E-10 -8.90761E-10
  -3.40397E-10 -1.01764E-09 -4.25111E-10 -6.10864E-10 -6.37494E-10 -7.39992E-10 -5.44595E-10 -7.35218E-10 -3.27245E-10 -6.67185E-10
  -7.40673E-10 -4.61160E-10 -2.26857E-10 -4.20809E-10 -5.09103E-10 -6.86828E-10 -3.18236E-10 -6.48409E-10 -4.37552E-10 -4.18780E-10
  -6.51554E-10 -8.64276E-10 -2.50882E-10 -6.20999E-10 -2.87581E-10 -4.44228E-10  4.38351E-11 -5.45788E-10 -6.23479E-10 -9.11255E-10
  -8.23508E-10 -2.83457E-10 -2.93279E-10 -7.32634E-10 -3.79647E-10 -4.80968E-10 -4.75616E-10 -4.14591E-10 -5.33401E-10 -6.65955E-10
  -1.30838E-11 -9.06693E-10 -8.48115E-10 -1.56408E-10 -7.64919E-10 -5.63306E-10 -6.33506E-10 -7.85891E-10 -5.42898E-10 -7.15666E-10
  -5.93915E-10 -2.73350E-10 -3.41102E-10
 NY points of the fit to the data follow
   1.89130E-08  1.71909E-08  1.56299E-08  1.45370E-08  1.36751E-08  1.25941E-08  1.12907E-08  1.01082E-08  9.26365E-09  8.97351E-09
   8.94419E-09  9.12727E-09  9.62041E-09  1.01066E-08  1.05302E-08  1.06497E-08  1.03876E-08  9.84027E-09  9.04601E-09  8.10294E-09
   7.49367E-09  7.53481E-09  7.73076E-09  7.92703E-09  8.09879E-09  8.24214E-09  8.43635E-09  8.52019E-09  8.43487E-09  8.31395E-09
   8.13314E-09  7.82708E-09  7.38000E-09  6.85685E-09  6.41733E-09  6.05240E-09  5.79076E-09  5.48089E-09  5.20916E-09  4.84907E-09
   4.38102E-09  3.82379E-09  3.29306E-09  3.05565E-09  3.02561E-09  3.05070E-09  3.09055E-09  3.13067E-09  3.17493E-09  3.21406E-09
   3.26252E-09  3.32392E-09  3.42225E-09  3.55734E-09  3.76810E-09  4.11070E-09  4.52448E-09  4.96879E-09  5.53705E-09  6.14691E-09
   6.68820E-09  7.19490E-09  7.66751E-09  7.94917E-09  7.98926E-09  7.72235E-09  7.23983E-09  6.67886E-09  5.92586E-09  5.12478E-09
   4.61568E-09  4.23247E-09  3.88226E-09  3.80962E-09  4.04628E-09  4.51886E-09  5.23755E-09  6.42937E-09  7.78281E-09  9.09596E-09
   1.02694E-08  1.11580E-08  1.15300E-08  1.13077E-08  1.05323E-08  9.18246E-09  7.45085E-09  5.62072E-09  3.93368E-09  3.19140E-09
   2.81969E-09  2.59656E-09  2.44337E-09  2.33030E-09  2.24853E-09  2.18481E-09  2.13384E-09  2.09525E-09  2.06561E-09  2.04289E-09
   2.02563E-09  2.01282E-09  2.00384E-09  1.99818E-09  1.99537E-09  1.99511E-09  1.99702E-09  2.00091E-09  2.00660E-09  2.01397E-09
   2.02289E-09  2.03326E-09  2.04500E-09  2.05797E-09  2.07197E-09  2.08681E-09  2.10234E-09  2.11836E-09  2.13473E-09  2.15129E-09
   2.16787E-09  2.18433E-09  2.20052E-09  2.21630E-09  2.23151E-09  2.24603E-09  2.25971E-09  2.27241E-09  2.28400E-09  2.29435E-09
   2.30332E-09  2.31078E-09  2.31659E-09  2.32065E-09  2.32280E-09  2.32294E-09  2.32094E-09  2.31667E-09  2.31003E-09  2.30088E-09
   2.28912E-09  2.27467E-09  2.25742E-09  2.23731E-09  2.21426E-09  2.18821E-09  2.15910E-09  2.12688E-09  2.09153E-09  2.05301E-09
   2.01136E-09  1.96659E-09  1.91880E-09  1.86810E-09  1.81471E-09  1.75892E-09  1.70118E-09  1.64216E-09  1.58283E-09  1.52469E-09
   1.47004E-09  1.42266E-09  1.38902E-09  1.38124E-09  1.42497E-09  1.58720E-09  2.12166E-09  3.87128E-09  6.63503E-09  9.80866E-09
   1.31689E-08  1.64233E-08  1.89642E-08  2.00754E-08  1.93644E-08  1.69143E-08  1.29834E-08  7.94913E-09  3.00890E-09  4.29439E-10
  -4.85399E-10 -9.94808E-10 -1.35379E-09 -1.64004E-09 -1.88493E-09 -2.10338E-09 -2.30326E-09 -2.48897E-09 -2.66305E-09 -2.82701E-09
  -2.98171E-09 -3.12760E-09 -3.26485E-09 -3.39348E-09 -3.51335E-09 -3.62426E-09 -3.72606E-09 -3.81901E-09 -3.90339E-09 -3.97949E-09
  -4.04755E-09 -4.10781E-09 -4.16048E-09 -4.20578E-09 -4.24391E-09 -4.27506E-09 -4.29944E-09 -4.31721E-09 -4.32856E-09 -4.33367E-09
  -4.33272E-09 -4.32587E-09 -4.31331E-09 -4.29520E-09 -4.27171E-09 -4.24301E-09 -4.20927E-09 -4.17065E-09 -4.12732E-09 -4.07944E-09
  -4.02717E-09 -3.97068E-09 -3.91014E-09 -3.84570E-09 -3.77755E-09 -3.70594E-09 -3.63110E-09 -3.55328E-09 -3.47272E-09 -3.38967E-09
  -3.30438E-09 -3.21707E-09 -3.12800E-09 -3.03741E-09 -2.94553E-09 -2.85263E-09 -2.75893E-09 -2.66469E-09 -2.57012E-09 -2.47550E-09
  -2.38106E-09 -2.28703E-09 -2.19366E-09 -2.10121E-09 -2.00988E-09 -1.91995E-09 -1.83165E-09 -1.74522E-09 -1.66090E-09 -1.57895E-09
  -1.49957E-09 -1.42305E-09 -1.34948E-09 -1.27882E-09 -1.21101E-09 -1.14600E-09 -1.08374E-09 -1.02416E-09 -9.67213E-10 -9.12842E-10
  -8.60996E-10 -8.11606E-10 -7.64630E-10 -7.20002E-10 -6.77676E-10 -6.37589E-10 -5.99672E-10 -5.63901E-10 -5.30203E-10 -4.98515E-10
  -4.68783E-10 -4.40965E-10 -4.14987E-10 -3.90800E-10 -3.68362E-10 -3.47587E-10 -3.28450E-10 -3.10878E-10 -2.94822E-10 -2.80217E-10
  -2.67018E-10 -2.55178E-10 -2.44646E-10 -2.35374E-10 -2.27319E-10 -2.20428E-10 -2.14658E-10 -2.09956E-10 -2.06277E-10 -2.03575E-10
  -2.01799E-10 -2.00902E-10 -2.00837E-10 -2.01556E-10 -2.03012E-10 -2.05154E-10 -2.07938E-10 -2.11314E-10 -2.15239E-10 -2.19654E-10
  -2.24525E-10 -2.29794E-10 -2.35415E-10 -2.41348E-10 -2.47537E-10 -2.53935E-10 -2.60499E-10 -2.67175E-10 -2.73948E-10 -2.80809E-10
  -2.87749E-10 -2.94761E-10 -3.01838E-10 -3.08971E-10 -3.16153E-10 -3.23376E-10 -3.30633E-10 -3.37916E-10 -3.45218E-10 -3.52529E-10
  -3.59845E-10 -3.67155E-10 -3.74453E-10 -3.81732E-10 -3.88982E-10 -3.96198E-10 -4.03371E-10 -4.10492E-10 -4.17555E-10 -4.24555E-10
  -4.31478E-10 -4.38322E-10 -4.45075E-10 -4.51733E-10 -4.58288E-10 -4.64730E-10 -4.71064E-10 -4.77295E-10 -4.83425E-10 -4.89461E-10
  -4.95408E-10 -5.01270E-10 -5.07053E-10 -5.12760E-10 -5.18398E-10 -5.23970E-10 -5.29483E-10 -5.34940E-10 -5.40347E-10 -5.45708E-10
  -5.51026E-10 -5.56310E-10 -5.61561E-10 -5.66787E-10 -5.71990E-10 -5.77178E-10 -5.82353E-10 -5.87520E-10 -5.92685E-10 -5.97854E-10
  -6.03031E-10 -6.08221E-10 -6.13425E-10
 NY background values follow
     3.016E-09    2.979E-09    2.942E-09    2.904E-09    2.867E-09    2.830E-09    2.792E-09    2.755E-09    2.718E-09    2.681E-09
     2.644E-09    2.607E-09    2.570E-09    2.533E-09    2.496E-09    2.460E-09    2.423E-09    2.387E-09    2.351E-09    2.315E-09
     2.279E-09    2.243E-09    2.208E-09    2.172E-09    2.137E-09    2.102E-09    2.067E-09    2.033E-09    1.999E-09    1.965E-09
     1.931E-09    1.897E-09    1.864E-09    1.831E-09    1.799E-09    1.767E-09    1.735E-09    1.704E-09    1.673E-09    1.642E-09
     1.612E-09    1.583E-09    1.554E-09    1.526E-09    1.498E-09    1.471E-09    1.444E-09    1.419E-09    1.393E-09    1.369E-09
     1.345E-09    1.322E-09    1.300E-09    1.278E-09    1.257E-09    1.238E-09    1.219E-09    1.200E-09    1.183E-09    1.167E-09
     1.151E-09    1.136E-09    1.122E-09    1.109E-09    1.096E-09    1.085E-09    1.074E-09    1.063E-09    1.054E-09    1.045E-09
     1.037E-09    1.030E-09    1.024E-09    1.018E-09    1.012E-09    1.008E-09    1.004E-09    1.001E-09    9.981E-10    9.961E-10
     9.947E-10    9.939E-10    9.937E-10    9.941E-10    9.950E-10    9.966E-10    9.986E-10    1.001E-09    1.005E-09    1.008E-09
     1.013E-09    1.018E-09    1.023E-09    1.030E-09    1.036E-09    1.044E-09    1.052E-09    1.061E-09    1.070E-09    1.080E-09
     1.090E-09    1.102E-09    1.113E-09    1.126E-09    1.139E-09    1.153E-09    1.168E-09    1.183E-09    1.199E-09    1.215E-09
     1.233E-09    1.251E-09    1.269E-09    1.289E-09    1.309E-09    1.329E-09    1.349E-09    1.370E-09    1.390E-09    1.411E-09
     1.431E-09    1.450E-09    1.470E-09    1.488E-09    1.506E-09    1.523E-09    1.539E-09    1.553E-09    1.567E-09    1.578E-09
     1.589E-09    1.598E-09    1.604E-09    1.609E-09    1.612E-09    1.613E-09    1.611E-09    1.607E-09    1.601E-09    1.591E-09
     1.579E-09    1.564E-09    1.546E-09    1.524E-09    1.500E-09    1.472E-09    1.440E-09    1.405E-09    1.366E-09    1.324E-09
     1.278E-09    1.227E-09    1.173E-09    1.114E-09    1.051E-09    9.833E-10    9.113E-10    8.347E-10    7.533E-10    6.671E-10
     5.759E-10    4.797E-10    3.783E-10    2.716E-10    1.596E-10    4.205E-11   -8.107E-11   -2.099E-10   -3.444E-10   -4.843E-10
    -6.290E-10   -7.780E-10   -9.309E-10   -1.087E-09   -1.246E-09   -1.408E-09   -1.571E-09   -1.735E-09   -1.901E-09   -2.066E-09
    -2.232E-09   -2.397E-09   -2.560E-09   -2.722E-09   -2.882E-09   -3.039E-09   -3.193E-09   -3.343E-09   -3.489E-09   -3.631E-09
    -3.767E-09   -3.897E-09   -4.022E-09   -4.139E-09   -4.250E-09   -4.352E-09   -4.447E-09   -4.533E-09   -4.612E-09   -4.683E-09
    -4.747E-09   -4.803E-09   -4.852E-09   -4.894E-09   -4.929E-09   -4.957E-09   -4.979E-09   -4.995E-09   -5.004E-09   -5.007E-09
    -5.004E-09   -4.996E-09   -4.981E-09   -4.962E-09   -4.937E-09   -4.907E-09   -4.872E-09   -4.832E-09   -4.787E-09   -4.738E-09
    -4.685E-09   -4.628E-09   -4.566E-09   -4.501E-09   -4.432E-09   -4.359E-09   -4.284E-09   -4.205E-09   -4.124E-09   -4.040E-09
    -3.954E-09   -3.866E-09   -3.776E-09   -3.685E-09   -3.593E-09   -3.499E-09   -3.405E-09   -3.310E-09   -3.215E-09   -3.120E-09
    -3.025E-09   -2.930E-09   -2.837E-09   -2.744E-09   -2.652E-09   -2.561E-09   -2.473E-09   -2.386E-09   -2.301E-09   -2.219E-09
    -2.139E-09   -2.062E-09   -1.988E-09   -1.917E-09   -1.849E-09   -1.783E-09   -1.721E-09   -1.661E-09   -1.604E-09   -1.549E-09
    -1.497E-09   -1.447E-09   -1.400E-09   -1.355E-09   -1.312E-09   -1.272E-09   -1.233E-09   -1.197E-09   -1.163E-09   -1.131E-09
    -1.101E-09   -1.073E-09   -1.047E-09   -1.022E-09   -9.995E-10   -9.784E-10   -9.590E-10   -9.411E-10   -9.248E-10   -9.099E-10
    -8.964E-10   -8.842E-10   -8.734E-10   -8.639E-10   -8.555E-10   -8.483E-10   -8.423E-10   -8.373E-10   -8.334E-10   -8.304E-10
    -8.283E-10   -8.271E-10   -8.268E-10   -8.272E-10   -8.284E-10   -8.303E-10   -8.328E-10   -8.359E-10   -8.396E-10   -8.437E-10
    -8.483E-10   -8.533E-10   -8.586E-10   -8.643E-10   -8.702E-10   -8.764E-10   -8.826E-10   -8.890E-10   -8.956E-10   -9.021E-10
    -9.088E-10   -9.156E-10   -9.224E-10   -9.292E-10   -9.361E-10   -9.431E-10   -9.501E-10   -9.571E-10   -9.641E-10   -9.711E-10
    -9.782E-10   -9.852E-10   -9.922E-10   -9.993E-10   -1.006E-09   -1.013E-09   -1.020E-09   -1.027E-09   -1.034E-09   -1.040E-09
    -1.047E-09   -1.054E-09   -1.060E-09   -1.066E-09   -1.073E-09   -1.079E-09   -1.085E-09   -1.091E-09   -1.097E-09   -1.102E-09
    -1.108E-09   -1.114E-09   -1.119E-09   -1.125E-09   -1.130E-09   -1.135E-09   -1.140E-09   -1.146E-09   -1.151E-09   -1.156E-09
    -1.161E-09   -1.166E-09   -1.171E-09   -1.176E-09   -1.181E-09   -1.185E-09   -1.190E-09   -1.195E-09   -1.200E-09   -1.205E-09
    -1.210E-09   -1.215E-09   -1.220E-09
 Cr       Conc. = 3.13E-10
   4.20585E-09  3.85846E-09  3.45444E-09  3.12414E-09  3.00523E-09  2.93462E-09  2.87960E-09  2.83156E-09  2.78726E-09  2.74519E-09
   2.70461E-09  2.66509E-09  2.62638E-09  2.58830E-09  2.55076E-09  2.51371E-09  2.47712E-09  2.44098E-09  2.40530E-09  2.37011E-09
   2.33547E-09  2.30144E-09  2.26816E-09  2.23578E-09  2.20456E-09  2.17492E-09  2.14753E-09  2.12360E-09  2.10564E-09  2.09968E-09
   2.12586E-09  2.28481E-09  2.55387E-09  2.86627E-09  3.19977E-09  3.52610E-09  3.78204E-09  3.89003E-09  3.80630E-09  3.53997E-09
   3.11850E-09  2.57542E-09  2.02559E-09  1.73899E-09  1.63386E-09  1.57179E-09  1.52585E-09  1.48786E-09  1.45448E-09  1.42417E-09
   1.39611E-09  1.36979E-09  1.34496E-09  1.32142E-09  1.29910E-09  1.27787E-09  1.25770E-09  1.23859E-09  1.22046E-09  1.20329E-09
   1.18704E-09  1.17169E-09  1.15720E-09  1.14356E-09  1.13075E-09  1.11876E-09  1.10756E-09  1.09714E-09  1.08749E-09  1.07859E-09
   1.07042E-09  1.06299E-09  1.05626E-09  1.05023E-09  1.04489E-09  1.04022E-09  1.03622E-09  1.03287E-09  1.03016E-09  1.02808E-09
   1.02661E-09  1.02575E-09  1.02547E-09  1.02579E-09  1.02667E-09  1.02813E-09  1.03015E-09  1.03275E-09  1.03594E-09  1.03971E-09
   1.04408E-09  1.04904E-09  1.05460E-09  1.06077E-09  1.06755E-09  1.07495E-09  1.08298E-09  1.09163E-09  1.10091E-09  1.11083E-09
   1.12139E-09  1.13261E-09  1.14447E-09  1.15700E-09  1.17018E-09  1.18404E-09  1.19857E-09  1.21378E-09  1.22967E-09  1.24625E-09
   1.26353E-09  1.28151E-09  1.30018E-09  1.31949E-09  1.33929E-09  1.35946E-09  1.37989E-09  1.40042E-09  1.42094E-09  1.44132E-09
   1.46144E-09  1.48115E-09  1.50034E-09  1.51887E-09  1.53663E-09  1.55347E-09  1.56928E-09  1.58391E-09  1.59726E-09  1.60918E-09
   1.61956E-09  1.62825E-09  1.63514E-09  1.64009E-09  1.64298E-09  1.64368E-09  1.64206E-09  1.63799E-09  1.63136E-09  1.62202E-09
   1.60984E-09  1.59473E-09  1.57658E-09  1.55528E-09  1.53073E-09  1.50281E-09  1.47144E-09  1.43650E-09  1.39789E-09  1.35551E-09
   1.30926E-09  1.25904E-09  1.20474E-09  1.14627E-09  1.08354E-09  1.01646E-09  9.44935E-10  8.68898E-10  7.88285E-10  7.03054E-10
   6.13201E-10  5.18790E-10  4.20024E-10  3.17385E-10  2.12159E-10  1.08418E-10  2.57718E-11 -1.18443E-11 -3.41512E-11 -5.25639E-11
  -7.26175E-11 -1.09955E-10 -1.90083E-10 -3.34288E-10 -5.46419E-10 -8.17346E-10 -1.13704E-09 -1.48215E-09 -1.78318E-09 -1.98674E-09
  -2.16822E-09 -2.34174E-09 -2.51081E-09 -2.67644E-09 -2.83885E-09 -2.99791E-09 -3.15333E-09 -3.30476E-09 -3.45176E-09 -3.59389E-09
  -3.73070E-09 -3.86172E-09 -3.98645E-09 -4.10442E-09 -4.21513E-09 -4.31810E-09 -4.41296E-09 -4.49980E-09 -4.57878E-09 -4.65006E-09
  -4.71380E-09 -4.77017E-09 -4.81933E-09 -4.86143E-09 -4.89665E-09 -4.92513E-09 -4.94705E-09 -4.96256E-09 -4.97182E-09 -4.97499E-09
  -4.97223E-09 -4.96370E-09 -4.94956E-09 -4.92997E-09 -4.90509E-09 -4.87509E-09 -4.84011E-09 -4.80032E-09 -4.75588E-09 -4.70695E-09
  -4.65368E-09 -4.59624E-09 -4.53479E-09 -4.46948E-09 -4.40051E-09 -4.32810E-09 -4.25250E-09 -4.17395E-09 -4.09268E-09 -4.00895E-09
  -3.92300E-09 -3.83505E-09 -3.74538E-09 -3.65419E-09 -3.56174E-09 -3.46828E-09 -3.37404E-09 -3.27927E-09 -3.18419E-09 -3.08907E-09
  -2.99414E-09 -2.89964E-09 -2.80581E-09 -2.71291E-09 -2.62114E-09 -2.53078E-09 -2.44205E-09 -2.35521E-09 -2.27048E-09 -2.18813E-09
  -2.10837E-09 -2.03146E-09 -1.95752E-09 -1.88648E-09 -1.81831E-09 -1.75295E-09 -1.69033E-09 -1.63040E-09 -1.57311E-09 -1.51840E-09
  -1.46622E-09 -1.41650E-09 -1.36920E-09 -1.32425E-09 -1.28160E-09 -1.24120E-09 -1.20297E-09 -1.16689E-09 -1.13289E-09 -1.10090E-09
  -1.07087E-09 -1.04275E-09 -1.01648E-09 -9.92002E-10 -9.69274E-10 -9.48211E-10 -9.28789E-10 -9.10933E-10 -8.94596E-10 -8.79710E-10
  -8.66233E-10 -8.54116E-10 -8.43309E-10 -8.33763E-10 -8.25436E-10 -8.18273E-10 -8.12233E-10 -8.07262E-10 -8.03314E-10 -8.00345E-10
  -7.98302E-10 -7.97141E-10 -7.96811E-10 -7.97265E-10 -7.98458E-10 -8.00338E-10 -8.02860E-10 -8.05975E-10 -8.09638E-10 -8.13793E-10
  -8.18404E-10 -8.23413E-10 -8.28775E-10 -8.34448E-10 -8.40378E-10 -8.46517E-10 -8.52822E-10 -8.59239E-10 -8.65754E-10 -8.72356E-10
  -8.79037E-10 -8.85790E-10 -8.92609E-10 -8.99482E-10 -9.06405E-10 -9.13369E-10 -9.20366E-10 -9.27389E-10 -9.34431E-10 -9.41481E-10
  -9.48536E-10 -9.55585E-10 -9.62620E-10 -9.69637E-10 -9.76624E-10 -9.83577E-10 -9.90486E-10 -9.97342E-10 -1.00414E-09 -1.01087E-09
  -1.01753E-09 -1.02411E-09 -1.03059E-09 -1.03698E-09 -1.04327E-09 -1.04944E-09 -1.05550E-09 -1.06146E-09 -1.06732E-09 -1.07308E-09
  -1.07875E-09 -1.08434E-09 -1.08984E-09 -1.09527E-09 -1.10063E-09 -1.10592E-09 -1.11116E-09 -1.11633E-09 -1.12145E-09 -1.12653E-09
  -1.13156E-09 -1.13656E-09 -1.14152E-09 -1.14645E-09 -1.15137E-09 -1.15626E-09 -1.16114E-09 -1.16601E-09 -1.17088E-09 -1.17575E-09
  -1.18063E-09 -1.18552E-09 -1.19042E-09
 Glc      Conc. = 5.03E-10
   4.38152E-09  4.47867E-09  4.55473E-09  4.57202E-09  4.50993E-09  4.37190E-09  4.18155E-09  3.98751E-09  3.78214E-09  3.64008E-09
   3.56578E-09  3.53407E-09  3.54591E-09  3.61798E-09  3.74371E-09  3.89955E-09  4.07187E-09  4.23247E-09  4.33874E-09  4.37235E-09
   4.29981E-09  4.11494E-09  3.84260E-09  3.52914E-09  3.20276E-09  2.93411E-09  2.79121E-09  2.70629E-09  2.64052E-09  2.56749E-09
   2.47865E-09  2.39337E-09  2.30913E-09  2.21131E-09  2.11313E-09  2.03691E-09  1.96250E-09  1.88751E-09  1.82874E-09  1.78071E-09
   1.73824E-09  1.69915E-09  1.66265E-09  1.62811E-09  1.59523E-09  1.56375E-09  1.53354E-09  1.50449E-09  1.47649E-09  1.44953E-09
   1.42356E-09  1.39856E-09  1.37452E-09  1.35143E-09  1.32932E-09  1.30813E-09  1.28789E-09  1.26863E-09  1.25031E-09  1.23290E-09
   1.21639E-09  1.20076E-09  1.18599E-09  1.17206E-09  1.15897E-09  1.14670E-09  1.13522E-09  1.12453E-09  1.11461E-09  1.10546E-09
   1.09704E-09  1.08937E-09  1.08241E-09  1.07616E-09  1.07060E-09  1.06572E-09  1.06152E-09  1.05798E-09  1.05508E-09  1.05282E-09
   1.05118E-09  1.05016E-09  1.04972E-09  1.04989E-09  1.05062E-09  1.05193E-09  1.05382E-09  1.05629E-09  1.05934E-09  1.06299E-09
   1.06724E-09  1.07208E-09  1.07754E-09  1.08360E-09  1.09028E-09  1.09758E-09  1.10551E-09  1.11406E-09  1.12326E-09  1.13309E-09
   1.14357E-09  1.15470E-09  1.16649E-09  1.17893E-09  1.19205E-09  1.20583E-09  1.22029E-09  1.23543E-09  1.25126E-09  1.26778E-09
   1.28500E-09  1.30292E-09  1.32154E-09  1.34078E-09  1.36054E-09  1.38066E-09  1.40103E-09  1.42152E-09  1.44199E-09  1.46233E-09
   1.48240E-09  1.50207E-09  1.52122E-09  1.53971E-09  1.55743E-09  1.57424E-09  1.59001E-09  1.60461E-09  1.61793E-09  1.62982E-09
   1.64017E-09  1.64884E-09  1.65570E-09  1.66063E-09  1.66350E-09  1.66418E-09  1.66255E-09  1.65847E-09  1.65182E-09  1.64248E-09
   1.63030E-09  1.61520E-09  1.59705E-09  1.57576E-09  1.55122E-09  1.52333E-09  1.49198E-09  1.45708E-09  1.41852E-09  1.37619E-09
   1.33002E-09  1.27988E-09  1.22569E-09  1.16736E-09  1.10479E-09  1.03791E-09  9.66640E-10  8.90922E-10  8.10718E-10  7.26017E-10
   6.36867E-10  5.43414E-10  4.46004E-10  3.45383E-10  2.43405E-10  1.45570E-10  7.64559E-11  9.05417E-11  1.37104E-10  1.94441E-10
   2.54650E-10  2.94609E-10  2.72686E-10  1.50364E-10 -8.28471E-11 -4.12733E-10 -8.23766E-10 -1.28576E-09 -1.69784E-09 -1.93335E-09
  -2.12685E-09 -2.30654E-09 -2.47930E-09 -2.64739E-09 -2.81152E-09 -2.97185E-09 -3.12825E-09 -3.28044E-09 -3.42804E-09 -3.57068E-09
  -3.70791E-09 -3.83927E-09 -3.96431E-09 -4.08253E-09 -4.19347E-09 -4.29664E-09 -4.39167E-09 -4.47866E-09 -4.55778E-09 -4.62919E-09
  -4.69304E-09 -4.74951E-09 -4.79877E-09 -4.84096E-09 -4.87625E-09 -4.90481E-09 -4.92680E-09 -4.94237E-09 -4.95169E-09 -4.95491E-09
  -4.95221E-09 -4.94373E-09 -4.92963E-09 -4.91009E-09 -4.88525E-09 -4.85529E-09 -4.82035E-09 -4.78059E-09 -4.73619E-09 -4.68729E-09
  -4.63405E-09 -4.57665E-09 -4.51522E-09 -4.44994E-09 -4.38100E-09 -4.30861E-09 -4.23304E-09 -4.15451E-09 -4.07327E-09 -3.98956E-09
