 LCModel (Version 6.3-1R) Copyright: S.W. Provencher.          Ref.: Magn. Reson. Med. 30:672-679 (1993).                
 onepulse 23x22_ftSpec_smooth_lcm
 26 lines in following concentration table = NCONC+1
    Conc.  %SD   /Cr    Metabolite                                         
 6.09E-11 419%   0.000 Ala                                                 
 4.63E-10 111%   0.000 Asp                                                 
    0.000 999%   0.000 Cr                                                  
 2.99E-09  14%   0.000 GABA                                                
 2.22E-09  18%   0.000 Glc                                                 
    0.000 999%   0.000 Gln                                                 
 1.73E-10 276%   0.000 Glu                                                 
    0.000 999%   0.000 Glyc                                                
 1.43E-10  48%   0.000 GPC                                                 
 1.92E-10 143%   0.000 GSH                                                 
 2.88E-10 101%   0.000 Ins                                                 
    0.000 999%   0.000 Lac                                                 
    0.000 999%   0.000 NAAG                                                
 1.19E-09  19%   0.000 NAA                                                 
    0.000 999%   0.000 PCh                                                 
    0.000 999%   0.000 PCr                                                 
    0.000 999%   0.000 PE                                                  
    0.000 999%   0.000 Scyllo                                              
    0.000 999%   0.000 Ser                                                 
    0.000 999%   0.000 Tau                                                 
 1.43E-10  48%   0.000 GPC+PCh                                             
 1.19E-09  19%   0.000 NAA+NAAG                                            
 2.88E-10 101%   0.000 Ins+Glyc                                            
    0.000 999%   0.000 Cr+PCr                                              
 1.73E-10 276%   0.000 Glu+Gln                                             
   6 lines in following misc. output table
  FWHM = 0.078 ppm    S/N =   3                                            
  Data shift = 0.324 ppm                                                   
  Ph:  40 deg      22.9 deg/ppm                                            
  alphaB,S = 1.7E-01,   8.2E+01                                            
   16 spline knots.   Ns = 5(1)                                            
  ( 9) 2 infls.   ( 5) 1 extrs.                                            
  363 points on ppm-axis = NY
      4.250000     4.238821     4.227641     4.216462     4.205282     4.194103     4.182923     4.171744     4.160564     4.149385
      4.138206     4.127026     4.115847     4.104667     4.093488     4.082308     4.071129     4.059949     4.048770     4.037591
      4.026411     4.015232     4.004052     3.992873     3.981693     3.970514     3.959334     3.948155     3.936975     3.925796
      3.914617     3.903437     3.892258     3.881078     3.869899     3.858719     3.847540     3.836360     3.825181     3.814002
      3.802822     3.791643     3.780463     3.769284     3.758104     3.746925     3.735745     3.724566     3.713387     3.702207
      3.691028     3.679848     3.668669     3.657489     3.646310     3.635130     3.623951     3.612772     3.601592     3.590413
      3.579233     3.568054     3.556874     3.545695     3.534515     3.523336     3.512156     3.500977     3.489798     3.478618
      3.467439     3.456259     3.445080     3.433900     3.422721     3.411541     3.400362     3.389183     3.378003     3.366824
      3.355644     3.344465     3.333285     3.322106     3.310926     3.299747     3.288568     3.277388     3.266209     3.255029
      3.243850     3.232670     3.221491     3.210311     3.199132     3.187953     3.176773     3.165594     3.154414     3.143235
      3.132055     3.120876     3.109696     3.098517     3.087337     3.076158     3.064979     3.053799     3.042620     3.031440
      3.020261     3.009081     2.997902     2.986722     2.975543     2.964364     2.953184     2.942005     2.930825     2.919646
      2.908466     2.897287     2.886107     2.874928     2.863749     2.852569     2.841390     2.830210     2.819031     2.807851
      2.796672     2.785492     2.774313     2.763134     2.751954     2.740775     2.729595     2.718416     2.707236     2.696057
      2.684877     2.673698     2.662519     2.651339     2.640160     2.628980     2.617801     2.606621     2.595442     2.584262
      2.573083     2.561903     2.550724     2.539545     2.528365     2.517186     2.506006     2.494827     2.483647     2.472468
      2.461288     2.450109     2.438930     2.427750     2.416571     2.405391     2.394212     2.383032     2.371853     2.360673
      2.349494     2.338315     2.327135     2.315956     2.304776     2.293597     2.282417     2.271238     2.260058     2.248879
      2.237700     2.226520     2.215341     2.204161     2.192982     2.181802     2.170623     2.159443     2.148264     2.137084
      2.125905     2.114726     2.103546     2.092367     2.081187     2.070008     2.058828     2.047649     2.036469     2.025290
      2.014111     2.002931     1.991752     1.980572     1.969393     1.958213     1.947034     1.935854     1.924675     1.913496
      1.902316     1.891137     1.879957     1.868778     1.857598     1.846419     1.835239     1.824060     1.812881     1.801701
      1.790522     1.779342     1.768163     1.756983     1.745804     1.734624     1.723445     1.712265     1.701086     1.689907
      1.678727     1.667548     1.656368     1.645189     1.634009     1.622830     1.611650     1.600471     1.589292     1.578112
      1.566933     1.555753     1.544574     1.533394     1.522215     1.511035     1.499856     1.488677     1.477497     1.466318
      1.455138     1.443959     1.432779     1.421600     1.410420     1.399241     1.388062     1.376882     1.365703     1.354523
      1.343344     1.332164     1.320985     1.309805     1.298626     1.287446     1.276267     1.265088     1.253908     1.242729
      1.231549     1.220370     1.209190     1.198011     1.186831     1.175652     1.164473     1.153293     1.142114     1.130934
      1.119755     1.108575     1.097396     1.086216     1.075037     1.063858     1.052678     1.041499     1.030319     1.019140
      1.007960     0.996781     0.985601     0.974422     0.963243     0.952063     0.940884     0.929704     0.918525     0.907345
      0.896166     0.884986     0.873807     0.862628     0.851448     0.840269     0.829089     0.817910     0.806730     0.795551
      0.784371     0.773192     0.762012     0.750833     0.739654     0.728474     0.717295     0.706115     0.694936     0.683756
      0.672577     0.661397     0.650218     0.639039     0.627859     0.616680     0.605500     0.594321     0.583141     0.571962
      0.560782     0.549603     0.538424     0.527244     0.516065     0.504885     0.493706     0.482526     0.471347     0.460167
      0.448988     0.437809     0.426629     0.415450     0.404270     0.393091     0.381911     0.370732     0.359552     0.348373
      0.337193     0.326014     0.314835     0.303655     0.292476     0.281296     0.270117     0.258937     0.247758     0.236578
      0.225399     0.214220     0.203040
 NY phased data points follow
   7.50756E-09  1.01415E-08  1.20490E-08  1.47912E-08  1.52262E-08  1.53359E-08  1.32683E-08  1.23152E-08  1.10408E-08  1.01728E-08
   9.22365E-09  9.70978E-09  8.83390E-09  9.95658E-09  9.64234E-09  1.04110E-08  1.02100E-08  1.17274E-08  1.11609E-08  1.19755E-08
   1.06048E-08  1.11101E-08  1.04941E-08  1.06886E-08  9.37788E-09  9.67385E-09  9.42582E-09  1.04780E-08  1.07731E-08  1.14493E-08
   9.61605E-09  9.49987E-09  9.07720E-09  1.02767E-08  1.04694E-08  1.33821E-08  1.28862E-08  1.26926E-08  1.08455E-08  9.88082E-09
   7.85828E-09  7.77985E-09  7.38456E-09  7.01273E-09  7.39391E-09  6.64960E-09  6.17903E-09  6.49487E-09  5.68456E-09  5.67687E-09
   4.78215E-09  4.57088E-09  5.18152E-09  5.38198E-09  5.79695E-09  6.06058E-09  5.00780E-09  5.27734E-09  4.30733E-09  4.46085E-09
   4.82228E-09  5.52814E-09  5.84346E-09  6.42938E-09  7.44760E-09  1.05075E-08  1.17897E-08  1.36005E-08  1.19475E-08  1.07543E-08
   7.95310E-09  7.43536E-09  6.28125E-09  5.89707E-09  4.30937E-09  5.18588E-09  4.47647E-09  4.01130E-09  4.14648E-09  5.03240E-09
   5.94858E-09  9.59079E-09  1.25276E-08  1.54632E-08  1.47621E-08  1.32888E-08  1.09922E-08  9.69289E-09  9.08122E-09  8.74309E-09
   7.60977E-09  7.89133E-09  6.80476E-09  6.59891E-09  6.13666E-09  5.79298E-09  5.17783E-09  4.67128E-09  4.21328E-09  4.60561E-09
   3.64049E-09  3.56002E-09  4.18486E-09  3.58402E-09  3.65581E-09  4.40096E-09  3.69872E-09  3.77992E-09  3.73076E-09  3.86166E-09
   2.87910E-09  3.37808E-09  2.16155E-09  2.06769E-09  1.59490E-09  2.72723E-09  3.48453E-09  3.20916E-09  3.27002E-09  3.45134E-09
   3.39212E-09  3.95755E-09  3.19661E-09  3.44132E-09  2.98666E-09  2.79794E-09  1.75652E-09  1.53786E-09  1.69215E-09  1.40204E-09
   8.72380E-10  2.46414E-09  2.19720E-09  2.22434E-09  2.28426E-09  2.63353E-09  2.43836E-09  2.50468E-09  1.75202E-09  1.94455E-09
   1.45486E-09  2.71994E-09  3.84587E-09  3.94738E-09  4.09944E-09  4.36732E-09  3.72649E-09  3.93238E-09  4.54700E-09  4.17320E-09
   4.52680E-09  4.86548E-09  3.76715E-09  4.43451E-09  4.57985E-09  4.24169E-09  4.12213E-09  4.16291E-09  4.42399E-09  4.55380E-09
   4.63875E-09  4.96443E-09  5.18144E-09  5.89041E-09  5.56338E-09  5.96790E-09  6.20594E-09  6.39064E-09  6.63829E-09  7.95738E-09
   9.49017E-09  1.16141E-08  1.42724E-08  1.64854E-08  1.80907E-08  1.62575E-08  1.25926E-08  9.41242E-09  7.64106E-09  5.94871E-09
   5.36261E-09  4.37511E-09  3.46393E-09  3.01920E-09  1.98887E-09  1.58686E-09  8.80147E-10  5.89471E-10 -5.74726E-10 -8.78076E-10
  -2.06428E-09 -2.23825E-09 -3.93691E-09 -4.17364E-09 -5.67239E-09 -6.00207E-09 -7.48876E-09 -8.48789E-09 -9.53709E-09 -1.12961E-08
  -1.18813E-08 -1.28232E-08 -1.39053E-08 -1.49205E-08 -1.52160E-08 -1.52614E-08 -1.52221E-08 -1.53657E-08 -1.42829E-08 -1.32725E-08
  -1.20987E-08 -1.10354E-08 -9.07955E-09 -7.77597E-09 -6.26429E-09 -4.26716E-09 -2.85251E-09 -1.89086E-09 -1.04440E-09 -6.92938E-11
   3.75371E-10  1.99137E-10  3.63063E-10 -7.24334E-10 -7.26672E-10 -3.14686E-10 -1.63411E-09 -1.42467E-09 -1.49250E-09 -1.19461E-09
  -4.15477E-10 -5.92767E-10 -4.45269E-10 -1.21397E-09 -1.24431E-10 -1.39659E-09 -2.21088E-09 -1.02506E-09 -1.22720E-09 -1.40262E-09
  -1.09683E-09 -5.28105E-10 -6.18984E-10 -2.51198E-10 -7.36844E-10 -1.23711E-09 -6.73794E-10 -1.40492E-09 -1.51398E-09 -1.16226E-09
  -9.70066E-10 -7.95831E-10 -7.93544E-10 -5.46173E-10 -4.89993E-10 -7.78079E-10 -2.44678E-10 -4.81562E-10 -2.01358E-10 -3.64525E-10
  -8.90434E-10 -6.04301E-10 -1.45616E-09 -1.32289E-09 -1.61002E-09 -1.41747E-09 -1.61773E-09 -7.06625E-10 -1.05630E-09 -7.15153E-10
  -5.67781E-11  2.27731E-10 -3.21248E-10  7.36026E-12  2.63772E-10  1.97342E-10 -1.11959E-10  1.49209E-10  1.09264E-10 -5.36488E-10
  -6.98073E-10 -5.30026E-10 -1.15304E-09 -1.04594E-09 -8.34497E-10 -8.08330E-10 -6.25670E-10 -8.59344E-10 -1.56821E-09 -5.20256E-10
  -8.81953E-10 -4.71940E-10 -7.78841E-10 -5.47915E-10 -5.88970E-10 -4.36628E-10 -6.95830E-10 -3.24495E-10 -3.12647E-10 -1.00401E-09
  -3.62725E-10 -1.03807E-09 -7.41715E-10 -5.33249E-10 -6.31508E-10 -4.73353E-10 -6.11371E-11 -5.31531E-10 -6.36334E-10 -9.80867E-11
  -8.78585E-10 -3.92678E-10 -3.82808E-10 -2.24050E-10 -1.70323E-10 -1.17741E-10 -5.80313E-10 -2.58028E-10 -2.18920E-11 -1.50103E-10
  -4.26769E-11 -4.84109E-10 -4.42202E-10 -4.08133E-10 -1.67008E-10 -2.47629E-10 -3.59129E-10  6.27105E-11  9.33255E-11 -2.14903E-10
  -6.07466E-10  2.57745E-10 -4.85745E-11 -3.02866E-10 -1.07014E-10  3.86969E-10  6.09412E-10 -1.31842E-10 -6.22512E-10  2.34773E-11
  -2.40856E-10  2.26640E-10 -6.77331E-11  2.10477E-10  3.32735E-10  1.14278E-10  4.60232E-10 -2.29369E-10 -1.39414E-10  1.93850E-10
   1.22859E-10  6.53307E-10 -1.02175E-10  5.58727E-10  1.31580E-11  1.73039E-10  4.21888E-10  1.11034E-10 -1.64489E-10  6.43022E-10
   2.79030E-11  6.21812E-10  2.53516E-10
 NY points of the fit to the data follow
   1.06578E-08  1.12857E-08  1.19263E-08  1.25558E-08  1.29705E-08  1.30031E-08  1.25701E-08  1.17777E-08  1.09189E-08  1.00524E-08
   9.56794E-09  9.41814E-09  9.41692E-09  9.54218E-09  9.80012E-09  1.01964E-08  1.06949E-08  1.12601E-08  1.17716E-08  1.21708E-08
   1.24675E-08  1.24246E-08  1.18988E-08  1.10939E-08  1.01513E-08  9.28175E-09  8.87395E-09  9.14789E-09  9.73483E-09  1.03828E-08
   1.06808E-08  1.06726E-08  1.06804E-08  1.05639E-08  1.04468E-08  1.07937E-08  1.12071E-08  1.13474E-08  1.11289E-08  1.06319E-08
   9.96961E-09  9.19316E-09  8.00120E-09  6.93492E-09  6.35033E-09  5.69186E-09  5.08827E-09  4.86689E-09  4.87532E-09  4.98474E-09
   5.10175E-09  5.16100E-09  5.16095E-09  5.12695E-09  5.12741E-09  5.21768E-09  5.37591E-09  5.53867E-09  5.58312E-09  5.54365E-09
   5.58219E-09  5.87406E-09  6.37872E-09  6.99895E-09  7.91317E-09  8.85468E-09  9.56057E-09  1.01048E-08  1.04980E-08  1.05635E-08
   1.02522E-08  9.50241E-09  8.47727E-09  7.49591E-09  6.47999E-09  5.54124E-09  5.35397E-09  5.82760E-09  6.52328E-09  7.56808E-09
   8.87572E-09  1.02910E-08  1.17527E-08  1.29164E-08  1.33119E-08  1.28232E-08  1.15304E-08  9.70277E-09  8.00950E-09  7.37269E-09
   7.23971E-09  7.18821E-09  6.96632E-09  6.48681E-09  6.10773E-09  5.74424E-09  5.15883E-09  4.69250E-09  4.39790E-09  4.10038E-09
   3.87754E-09  3.73946E-09  3.65447E-09  3.61491E-09  3.60057E-09  3.59634E-09  3.59181E-09  3.57877E-09  3.55200E-09  3.50987E-09
   3.45614E-09  3.40358E-09  3.36290E-09  3.30999E-09  3.26280E-09  3.24488E-09  3.23639E-09  3.23175E-09  3.22898E-09  3.22715E-09
   3.22571E-09  3.22428E-09  3.22255E-09  3.22027E-09  3.21725E-09  3.21332E-09  3.20832E-09  3.20213E-09  3.19463E-09  3.18568E-09
   3.17518E-09  3.16304E-09  3.14914E-09  3.13340E-09  3.11571E-09  3.09599E-09  3.07413E-09  3.05007E-09  3.02373E-09  2.99504E-09
   2.96389E-09  2.93024E-09  2.89398E-09  2.85504E-09  2.81337E-09  2.76891E-09  2.72161E-09  2.67142E-09  2.61831E-09  2.56224E-09
   2.50324E-09  2.44131E-09  2.37654E-09  2.30901E-09  2.23890E-09  2.16646E-09  2.09206E-09  2.01625E-09  1.93988E-09  1.86421E-09
   1.79127E-09  1.72436E-09  1.66935E-09  1.63742E-09  1.65364E-09  1.78944E-09  2.35432E-09  3.84045E-09  5.95809E-09  8.36023E-09
   1.10304E-08  1.38673E-08  1.64428E-08  1.80476E-08  1.79604E-08  1.58062E-08  1.17960E-08  6.83557E-09  2.59766E-09  5.06439E-10
  -3.09549E-10 -7.78229E-10 -1.11711E-09 -1.39230E-09 -1.63070E-09 -1.84522E-09 -2.04272E-09 -2.22707E-09 -2.40050E-09 -2.56436E-09
  -2.71939E-09 -2.86600E-09 -3.00434E-09 -3.13438E-09 -3.25603E-09 -3.36908E-09 -3.47339E-09 -3.56921E-09 -3.65683E-09 -3.73649E-09
  -3.80845E-09 -3.87293E-09 -3.93014E-09 -3.98030E-09 -4.02359E-09 -4.06021E-09 -4.09035E-09 -4.11418E-09 -4.13189E-09 -4.14365E-09
  -4.14963E-09 -4.15000E-09 -4.14493E-09 -4.13459E-09 -4.11915E-09 -4.09877E-09 -4.07361E-09 -4.04384E-09 -4.00963E-09 -3.97112E-09
  -3.92849E-09 -3.88189E-09 -3.83149E-09 -3.77745E-09 -3.71994E-09 -3.65918E-09 -3.59540E-09 -3.52882E-09 -3.45965E-09 -3.38812E-09
  -3.31446E-09 -3.23888E-09 -3.16161E-09 -3.08287E-09 -3.00286E-09 -2.92183E-09 -2.83999E-09 -2.75756E-09 -2.67475E-09 -2.59180E-09
  -2.50892E-09 -2.42633E-09 -2.34425E-09 -2.26291E-09 -2.18251E-09 -2.10329E-09 -2.02546E-09 -1.94923E-09 -1.87485E-09 -1.80252E-09
  -1.73244E-09 -1.66487E-09 -1.59989E-09 -1.53743E-09 -1.47746E-09 -1.41989E-09 -1.36466E-09 -1.31172E-09 -1.26099E-09 -1.21241E-09
  -1.16592E-09 -1.12145E-09 -1.07894E-09 -1.03833E-09 -9.99543E-10 -9.62525E-10 -9.27192E-10 -8.93515E-10 -8.61411E-10 -8.30808E-10
  -8.01644E-10 -7.73870E-10 -7.47401E-10 -7.22183E-10 -6.98161E-10 -6.75245E-10 -6.53400E-10 -6.32544E-10 -6.12621E-10 -5.93557E-10
  -5.75313E-10 -5.57856E-10 -5.41151E-10 -5.25165E-10 -5.09873E-10 -4.95235E-10 -4.81226E-10 -4.67807E-10 -4.54948E-10 -4.42623E-10
  -4.30793E-10 -4.19428E-10 -4.08496E-10 -3.97965E-10 -3.87805E-10 -3.77980E-10 -3.68462E-10 -3.59215E-10 -3.50214E-10 -3.41415E-10
  -3.32800E-10 -3.24327E-10 -3.15966E-10 -3.07692E-10 -2.99465E-10 -2.91255E-10 -2.83033E-10 -2.74761E-10 -2.66435E-10 -2.58052E-10
  -2.49609E-10 -2.41108E-10 -2.32547E-10 -2.23923E-10 -2.15239E-10 -2.06491E-10 -1.97679E-10 -1.88802E-10 -1.79861E-10 -1.70851E-10
  -1.61776E-10 -1.52631E-10 -1.43416E-10 -1.34134E-10 -1.24778E-10 -1.15354E-10 -1.05856E-10 -9.62824E-11 -8.66360E-11 -7.69171E-11
  -6.71182E-11 -5.72436E-11 -4.72902E-11 -3.72594E-11 -2.71499E-11 -1.69575E-11 -6.68848E-12  3.65286E-12  1.40651E-11  2.45433E-11
   3.50835E-11  4.56832E-11  5.63382E-11  6.70446E-11  7.77968E-11  8.85957E-11  9.94316E-11  1.10305E-10  1.21210E-10  1.32144E-10
   1.43104E-10  1.54084E-10  1.65082E-10  1.76093E-10  1.87115E-10  1.98142E-10  2.09172E-10  2.20202E-10  2.31226E-10  2.42241E-10
   2.53243E-10  2.64228E-10  2.75196E-10
 NY background values follow
     2.095E-09    2.084E-09    2.072E-09    2.061E-09    2.049E-09    2.038E-09    2.026E-09    2.015E-09    2.003E-09    1.992E-09
     1.980E-09    1.969E-09    1.957E-09    1.946E-09    1.935E-09    1.924E-09    1.913E-09    1.902E-09    1.891E-09    1.880E-09
     1.869E-09    1.859E-09    1.848E-09    1.838E-09    1.828E-09    1.818E-09    1.808E-09    1.798E-09    1.789E-09    1.780E-09
     1.771E-09    1.762E-09    1.753E-09    1.745E-09    1.736E-09    1.729E-09    1.721E-09    1.714E-09    1.706E-09    1.700E-09
     1.693E-09    1.687E-09    1.681E-09    1.676E-09    1.671E-09    1.666E-09    1.662E-09    1.658E-09    1.654E-09    1.651E-09
     1.649E-09    1.646E-09    1.645E-09    1.643E-09    1.642E-09    1.642E-09    1.642E-09    1.643E-09    1.644E-09    1.646E-09
     1.648E-09    1.651E-09    1.654E-09    1.658E-09    1.662E-09    1.666E-09    1.672E-09    1.677E-09    1.684E-09    1.690E-09
     1.697E-09    1.705E-09    1.713E-09    1.722E-09    1.731E-09    1.741E-09    1.751E-09    1.762E-09    1.773E-09    1.784E-09
     1.796E-09    1.809E-09    1.822E-09    1.836E-09    1.850E-09    1.864E-09    1.879E-09    1.894E-09    1.910E-09    1.926E-09
     1.942E-09    1.959E-09    1.976E-09    1.993E-09    2.010E-09    2.027E-09    2.044E-09    2.062E-09    2.079E-09    2.096E-09
     2.114E-09    2.131E-09    2.148E-09    2.165E-09    2.182E-09    2.198E-09    2.214E-09    2.230E-09    2.246E-09    2.261E-09
     2.276E-09    2.290E-09    2.304E-09    2.317E-09    2.330E-09    2.342E-09    2.353E-09    2.363E-09    2.373E-09    2.381E-09
     2.388E-09    2.394E-09    2.399E-09    2.403E-09    2.405E-09    2.406E-09    2.405E-09    2.402E-09    2.398E-09    2.392E-09
     2.384E-09    2.374E-09    2.362E-09    2.348E-09    2.331E-09    2.313E-09    2.292E-09    2.268E-09    2.242E-09    2.214E-09
     2.183E-09    2.149E-09    2.112E-09    2.072E-09    2.030E-09    1.984E-09    1.935E-09    1.882E-09    1.826E-09    1.767E-09
     1.704E-09    1.638E-09    1.568E-09    1.494E-09    1.416E-09    1.334E-09    1.248E-09    1.158E-09    1.064E-09    9.649E-10
     8.617E-10    7.540E-10    6.417E-10    5.246E-10    4.028E-10    2.761E-10    1.444E-10    7.690E-12   -1.341E-10   -2.806E-10
    -4.314E-10   -5.860E-10   -7.439E-10   -9.046E-10   -1.068E-09   -1.233E-09   -1.399E-09   -1.567E-09   -1.735E-09   -1.903E-09
    -2.070E-09   -2.237E-09   -2.403E-09   -2.566E-09   -2.727E-09   -2.886E-09   -3.041E-09   -3.193E-09   -3.340E-09   -3.483E-09
    -3.621E-09   -3.753E-09   -3.880E-09   -3.999E-09   -4.112E-09   -4.217E-09   -4.315E-09   -4.405E-09   -4.487E-09   -4.562E-09
    -4.630E-09   -4.691E-09   -4.745E-09   -4.792E-09   -4.833E-09   -4.867E-09   -4.895E-09   -4.916E-09   -4.932E-09   -4.942E-09
    -4.947E-09   -4.946E-09   -4.939E-09   -4.927E-09   -4.911E-09   -4.889E-09   -4.863E-09   -4.832E-09   -4.797E-09   -4.758E-09
    -4.714E-09   -4.667E-09   -4.616E-09   -4.561E-09   -4.503E-09   -4.442E-09   -4.377E-09   -4.310E-09   -4.240E-09   -4.168E-09
    -4.094E-09   -4.018E-09   -3.941E-09   -3.861E-09   -3.781E-09   -3.700E-09   -3.617E-09   -3.535E-09   -3.451E-09   -3.368E-09
    -3.285E-09   -3.202E-09   -3.120E-09   -3.038E-09   -2.957E-09   -2.878E-09   -2.800E-09   -2.723E-09   -2.648E-09   -2.576E-09
    -2.505E-09   -2.438E-09   -2.372E-09   -2.310E-09   -2.249E-09   -2.192E-09   -2.136E-09   -2.083E-09   -2.032E-09   -1.983E-09
    -1.937E-09   -1.892E-09   -1.849E-09   -1.808E-09   -1.769E-09   -1.732E-09   -1.696E-09   -1.663E-09   -1.630E-09   -1.599E-09
    -1.570E-09   -1.542E-09   -1.515E-09   -1.490E-09   -1.466E-09   -1.443E-09   -1.420E-09   -1.399E-09   -1.379E-09   -1.360E-09
    -1.342E-09   -1.324E-09   -1.307E-09   -1.291E-09   -1.275E-09   -1.260E-09   -1.246E-09   -1.232E-09   -1.219E-09   -1.207E-09
    -1.195E-09   -1.183E-09   -1.172E-09   -1.161E-09   -1.151E-09   -1.141E-09   -1.131E-09   -1.121E-09   -1.112E-09   -1.103E-09
    -1.094E-09   -1.086E-09   -1.077E-09   -1.068E-09   -1.060E-09   -1.051E-09   -1.043E-09   -1.034E-09   -1.026E-09   -1.017E-09
    -1.008E-09   -9.996E-10   -9.908E-10   -9.819E-10   -9.729E-10   -9.639E-10   -9.548E-10   -9.456E-10   -9.364E-10   -9.271E-10
    -9.177E-10   -9.082E-10   -8.987E-10   -8.891E-10   -8.795E-10   -8.697E-10   -8.599E-10   -8.500E-10   -8.400E-10   -8.300E-10
    -8.199E-10   -8.097E-10   -7.994E-10   -7.890E-10   -7.786E-10   -7.680E-10   -7.574E-10   -7.467E-10   -7.360E-10   -7.251E-10
    -7.142E-10   -7.033E-10   -6.922E-10   -6.812E-10   -6.700E-10   -6.589E-10   -6.477E-10   -6.364E-10   -6.251E-10   -6.138E-10
    -6.024E-10   -5.911E-10   -5.797E-10   -5.683E-10   -5.568E-10   -5.454E-10   -5.340E-10   -5.225E-10   -5.111E-10   -4.996E-10
    -4.882E-10   -4.768E-10   -4.654E-10
 Ala      Conc. = 6.09E-11
   2.13972E-09  2.13300E-09  2.12494E-09  2.11570E-09  2.10500E-09  2.09286E-09  2.07854E-09  2.06154E-09  2.04548E-09  2.02962E-09
   2.01030E-09  1.99271E-09  1.97796E-09  1.96241E-09  1.94763E-09  1.93441E-09  1.92199E-09  1.91009E-09  1.89853E-09  1.88724E-09
   1.87619E-09  1.86533E-09  1.85468E-09  1.84421E-09  1.83391E-09  1.82381E-09  1.81389E-09  1.80415E-09  1.79461E-09  1.78527E-09
   1.77614E-09  1.76722E-09  1.75854E-09  1.75009E-09  1.74189E-09  1.73396E-09  1.72630E-09  1.71892E-09  1.71184E-09  1.70506E-09
   1.69860E-09  1.69246E-09  1.68667E-09  1.68123E-09  1.67616E-09  1.67145E-09  1.66713E-09  1.66322E-09  1.65971E-09  1.65662E-09
   1.65397E-09  1.65176E-09  1.65000E-09  1.64871E-09  1.64792E-09  1.64760E-09  1.64778E-09  1.64848E-09  1.64969E-09  1.65140E-09
   1.65363E-09  1.65636E-09  1.65960E-09  1.66334E-09  1.66759E-09  1.67234E-09  1.67760E-09  1.68336E-09  1.68962E-09  1.69638E-09
   1.70365E-09  1.71141E-09  1.71967E-09  1.72844E-09  1.73770E-09  1.74747E-09  1.75773E-09  1.76849E-09  1.77976E-09  1.79152E-09
   1.80379E-09  1.81656E-09  1.82984E-09  1.84363E-09  1.85792E-09  1.87272E-09  1.88799E-09  1.90372E-09  1.91987E-09  1.93642E-09
   1.95338E-09  1.97072E-09  1.98846E-09  2.00663E-09  2.02528E-09  2.04454E-09  2.06464E-09  2.08607E-09  2.11001E-09  2.14021E-09
   2.18302E-09  2.22673E-09  2.27333E-09  2.33341E-09  2.39712E-09  2.45557E-09  2.50204E-09  2.53096E-09  2.53919E-09  2.52668E-09
   2.49857E-09  2.46832E-09  2.44706E-09  2.41100E-09  2.37843E-09  2.37320E-09  2.37597E-09  2.38138E-09  2.38758E-09  2.39376E-09
   2.39946E-09  2.40439E-09  2.40834E-09  2.41116E-09  2.41271E-09  2.41288E-09  2.41156E-09  2.40867E-09  2.40410E-09  2.39776E-09
   2.38958E-09  2.37946E-09  2.36732E-09  2.35307E-09  2.33664E-09  2.31794E-09  2.29690E-09  2.27344E-09  2.24746E-09  2.21890E-09
   2.18766E-09  2.15367E-09  2.11684E-09  2.07707E-09  2.03429E-09  1.98840E-09  1.93931E-09  1.88693E-09  1.83118E-09  1.77196E-09
   1.70920E-09  1.64280E-09  1.57267E-09  1.49873E-09  1.42090E-09  1.33907E-09  1.25318E-09  1.16314E-09  1.06886E-09  9.70276E-10
   8.67303E-10  7.59884E-10  6.47991E-10  5.31603E-10  4.10853E-10  2.86218E-10  1.60105E-10  3.88565E-11 -8.39523E-11 -2.09693E-10
  -3.37197E-10 -4.67011E-10 -6.02776E-10 -7.50408E-10 -9.15502E-10 -1.10009E-09 -1.30105E-09 -1.50958E-09 -1.71020E-09 -1.88762E-09
  -2.05895E-09 -2.22763E-09 -2.39421E-09 -2.55859E-09 -2.72043E-09 -2.87939E-09 -3.03504E-09 -3.18694E-09 -3.33463E-09 -3.47766E-09
  -3.61559E-09 -3.74795E-09 -3.87428E-09 -3.99409E-09 -4.10695E-09 -4.21239E-09 -4.31006E-09 -4.40005E-09 -4.48251E-09 -4.55759E-09
  -4.62547E-09 -4.68629E-09 -4.74020E-09 -4.78738E-09 -4.82797E-09 -4.86213E-09 -4.89003E-09 -4.91181E-09 -4.92762E-09 -4.93764E-09
  -4.94202E-09 -4.94091E-09 -4.93447E-09 -4.92286E-09 -4.90623E-09 -4.88474E-09 -4.85855E-09 -4.82781E-09 -4.79268E-09 -4.75332E-09
  -4.70989E-09 -4.66253E-09 -4.61141E-09 -4.55669E-09 -4.49854E-09 -4.43718E-09 -4.37282E-09 -4.30568E-09 -4.23599E-09 -4.16397E-09
  -4.08983E-09 -4.01379E-09 -3.93608E-09 -3.85692E-09 -3.77651E-09 -3.69509E-09 -3.61287E-09 -3.53008E-09 -3.44692E-09 -3.36363E-09
  -3.28043E-09 -3.19752E-09 -3.11513E-09 -3.03349E-09 -2.95280E-09 -2.87329E-09 -2.79518E-09 -2.71868E-09 -2.64403E-09 -2.57143E-09
  -2.50110E-09 -2.43328E-09 -2.36805E-09 -2.30535E-09 -2.24513E-09 -2.18732E-09 -2.13186E-09 -2.07869E-09 -2.02773E-09 -1.97892E-09
  -1.93221E-09 -1.88751E-09 -1.84478E-09 -1.80394E-09 -1.76494E-09 -1.72770E-09 -1.69215E-09 -1.65825E-09 -1.62593E-09 -1.59511E-09
  -1.56573E-09 -1.53774E-09 -1.51105E-09 -1.48562E-09 -1.46138E-09 -1.43824E-09 -1.41618E-09 -1.39511E-09 -1.37496E-09 -1.35568E-09
  -1.33721E-09 -1.31953E-09 -1.30261E-09 -1.28640E-09 -1.27088E-09 -1.25601E-09 -1.24178E-09 -1.22813E-09 -1.21504E-09 -1.20248E-09
  -1.19042E-09 -1.17882E-09 -1.16765E-09 -1.15688E-09 -1.14648E-09 -1.13641E-09 -1.12665E-09 -1.11716E-09 -1.10791E-09 -1.09886E-09
  -1.09000E-09 -1.08127E-09 -1.07266E-09 -1.06412E-09 -1.05564E-09 -1.04716E-09 -1.03868E-09 -1.03014E-09 -1.02155E-09 -1.01289E-09
  -1.00418E-09 -9.95399E-10 -9.86561E-10 -9.77656E-10 -9.68689E-10 -9.59655E-10 -9.50556E-10 -9.41388E-10 -9.32154E-10 -9.22848E-10
  -9.13476E-10 -9.04029E-10 -8.94511E-10 -8.84923E-10 -8.75259E-10 -8.65523E-10 -8.55710E-10 -8.45819E-10 -8.35852E-10 -8.25810E-10
  -8.15685E-10 -8.05482E-10 -7.95197E-10 -7.84831E-10 -7.74384E-10 -7.63851E-10 -7.53239E-10 -7.42551E-10 -7.31789E-10 -7.20957E-10
  -7.10061E-10 -6.99102E-10 -6.88085E-10 -6.77014E-10 -6.65894E-10 -6.54724E-10 -6.43513E-10 -6.32262E-10 -6.20976E-10 -6.09657E-10
  -5.98309E-10 -5.86938E-10 -5.75545E-10 -5.64135E-10 -5.52712E-10 -5.41280E-10 -5.29842E-10 -5.18400E-10 -5.06959E-10 -4.95526E-10
  -4.84101E-10 -4.72690E-10 -4.61292E-10
 Asp      Conc. = 4.63E-10
   2.65829E-09  2.58090E-09  2.50401E-09  2.41671E-09  2.32962E-09  2.23518E-09  2.15768E-09  2.09873E-09  2.06619E-09  2.04355E-09
   2.02575E-09  2.01080E-09  1.99768E-09  1.98566E-09  1.97404E-09  1.96274E-09  1.95179E-09  1.94119E-09  1.93091E-09  1.92093E-09
   1.91125E-09  1.90188E-09  1.89284E-09  1.88415E-09  1.87582E-09  1.86792E-09  1.86048E-09  1.85357E-09  1.84727E-09  1.84171E-09
   1.83704E-09  1.83347E-09  1.83136E-09  1.83121E-09  1.83395E-09  1.84149E-09  1.85822E-09  1.87955E-09  1.90892E-09  1.93830E-09
   1.96537E-09  1.98955E-09  2.01271E-09  2.03994E-09  2.06966E-09  2.11688E-09  2.16521E-09  2.22496E-09  2.32566E-09  2.43630E-09
   2.52699E-09  2.55444E-09  2.50569E-09  2.39087E-09  2.24953E-09  2.13343E-09  2.05316E-09  2.01892E-09  1.95903E-09  1.88674E-09
   1.85436E-09  1.84275E-09  1.83665E-09  1.83882E-09  1.83491E-09  1.81283E-09  1.78187E-09  1.76663E-09  1.75941E-09  1.75670E-09
   1.75691E-09  1.75922E-09  1.76314E-09  1.76838E-09  1.77471E-09  1.78201E-09  1.79018E-09  1.79913E-09  1.80880E-09  1.81917E-09
   1.83018E-09  1.84182E-09  1.85405E-09  1.86687E-09  1.88025E-09  1.89417E-09  1.90858E-09  1.92344E-09  1.93872E-09  1.95435E-09
   1.97032E-09  1.98658E-09  2.00308E-09  2.01980E-09  2.03669E-09  2.05372E-09  2.07084E-09  2.08803E-09  2.10525E-09  2.12246E-09
   2.13961E-09  2.15669E-09  2.17364E-09  2.19044E-09  2.20706E-09  2.22344E-09  2.23956E-09  2.25538E-09  2.27088E-09  2.28600E-09
   2.30073E-09  2.31501E-09  2.32881E-09  2.34207E-09  2.35473E-09  2.36668E-09  2.37787E-09  2.38820E-09  2.39759E-09  2.40598E-09
   2.41327E-09  2.41939E-09  2.42427E-09  2.42781E-09  2.42995E-09  2.43060E-09  2.42969E-09  2.42713E-09  2.42285E-09  2.41677E-09
   2.40881E-09  2.39889E-09  2.38693E-09  2.37285E-09  2.35658E-09  2.33803E-09  2.31713E-09  2.29380E-09  2.26796E-09  2.23954E-09
   2.20843E-09  2.17458E-09  2.13790E-09  2.09829E-09  2.05567E-09  2.00995E-09  1.96105E-09  1.90888E-09  1.85336E-09  1.79440E-09
   1.73192E-09  1.66584E-09  1.59608E-09  1.52257E-09  1.44523E-09  1.36399E-09  1.27881E-09  1.18961E-09  1.09639E-09  9.99122E-10
   8.97852E-10  7.92693E-10  6.83920E-10  5.72076E-10  4.58504E-10  3.46904E-10  2.52229E-10  2.29030E-10  2.30737E-10  2.41113E-10
   2.65732E-10  2.99338E-10  3.13241E-10  2.60124E-10  9.28161E-11 -2.10463E-10 -6.32888E-10 -1.11495E-09 -1.54682E-09 -1.79724E-09
  -1.99502E-09 -2.17693E-09 -2.35128E-09 -2.52070E-09 -2.68604E-09 -2.84752E-09 -3.00506E-09 -3.15843E-09 -3.30727E-09 -3.45124E-09
  -3.58992E-09 -3.72291E-09 -3.84976E-09 -3.97003E-09 -4.08327E-09 -4.18903E-09 -4.28699E-09 -4.37722E-09 -4.45990E-09 -4.53518E-09
  -4.60322E-09 -4.66419E-09 -4.71824E-09 -4.76554E-09 -4.80625E-09 -4.84051E-09 -4.86849E-09 -4.89035E-09 -4.90625E-09 -4.91634E-09
  -4.92078E-09 -4.91973E-09 -4.91334E-09 -4.90177E-09 -4.88519E-09 -4.86374E-09 -4.83759E-09 -4.80689E-09 -4.77180E-09 -4.73247E-09
  -4.68907E-09 -4.64174E-09 -4.59065E-09 -4.53595E-09 -4.47783E-09 -4.41648E-09 -4.35215E-09 -4.28503E-09 -4.21536E-09 -4.14335E-09
