 LCModel (Version 6.3-1R) Copyright: S.W. Provencher.          Ref.: Magn. Reson. Med. 30:672-679 (1993).                
 onepulse 23x21_ftSpec_smooth_lcm
 26 lines in following concentration table = NCONC+1
    Conc.  %SD   /Cr    Metabolite                                         
 1.38E-10 171%   0.000 Ala                                                 
 7.73E-10  62%   0.000 Asp                                                 
    0.000 999%   0.000 Cr                                                  
 3.12E-09  15%   0.000 GABA                                                
 1.88E-09  20%   0.000 Glc                                                 
    0.000 999%   0.000 Gln                                                 
 1.68E-10 288%   0.000 Glu                                                 
    0.000 999%   0.000 Glyc                                                
    0.000 999%   0.000 GPC                                                 
 5.10E-11 513%   0.000 GSH                                                 
 2.19E-10 124%   0.000 Ins                                                 
    0.000 999%   0.000 Lac                                                 
    0.000 999%   0.000 NAAG                                                
 1.17E-09  18%   0.000 NAA                                                 
 1.31E-10  51%   0.000 PCh                                                 
    0.000 999%   0.000 PCr                                                 
    0.000 999%   0.000 PE                                                  
    0.000 999%   0.000 Scyllo                                              
    0.000 999%   0.000 Ser                                                 
    0.000 999%   0.000 Tau                                                 
 1.31E-10  51%   0.000 GPC+PCh                                             
 1.17E-09  18%   0.000 NAA+NAAG                                            
 2.19E-10 124%   0.000 Ins+Glyc                                            
    0.000 999%   0.000 Cr+PCr                                              
 1.68E-10 288%   0.000 Glu+Gln                                             
   6 lines in following misc. output table
  FWHM = 0.078 ppm    S/N =   4                                            
  Data shift = 0.335 ppm                                                   
  Ph:  55 deg      27.3 deg/ppm                                            
  alphaB,S = 1.7E-01,   4.0E+01                                            
   16 spline knots.   Ns = 5(1)                                            
  ( 7) 2 infls.   ( 5) 1 extrs.                                            
  363 points on ppm-axis = NY
      4.250000     4.238821     4.227641     4.216462     4.205282     4.194103     4.182923     4.171744     4.160564     4.149385
      4.138206     4.127026     4.115847     4.104667     4.093488     4.082308     4.071129     4.059949     4.048770     4.037591
      4.026411     4.015232     4.004052     3.992873     3.981693     3.970514     3.959334     3.948155     3.936975     3.925796
      3.914617     3.903437     3.892258     3.881078     3.869899     3.858719     3.847540     3.836360     3.825181     3.814002
      3.802822     3.791643     3.780463     3.769284     3.758104     3.746925     3.735745     3.724566     3.713387     3.702207
      3.691028     3.679848     3.668669     3.657489     3.646310     3.635130     3.623951     3.612772     3.601592     3.590413
      3.579233     3.568054     3.556874     3.545695     3.534515     3.523336     3.512156     3.500977     3.489798     3.478618
      3.467439     3.456259     3.445080     3.433900     3.422721     3.411541     3.400362     3.389183     3.378003     3.366824
      3.355644     3.344465     3.333285     3.322106     3.310926     3.299747     3.288568     3.277388     3.266209     3.255029
      3.243850     3.232670     3.221491     3.210311     3.199132     3.187953     3.176773     3.165594     3.154414     3.143235
      3.132055     3.120876     3.109696     3.098517     3.087337     3.076158     3.064979     3.053799     3.042620     3.031440
      3.020261     3.009081     2.997902     2.986722     2.975543     2.964364     2.953184     2.942005     2.930825     2.919646
      2.908466     2.897287     2.886107     2.874928     2.863749     2.852569     2.841390     2.830210     2.819031     2.807851
      2.796672     2.785492     2.774313     2.763134     2.751954     2.740775     2.729595     2.718416     2.707236     2.696057
      2.684877     2.673698     2.662519     2.651339     2.640160     2.628980     2.617801     2.606621     2.595442     2.584262
      2.573083     2.561903     2.550724     2.539545     2.528365     2.517186     2.506006     2.494827     2.483647     2.472468
      2.461288     2.450109     2.438930     2.427750     2.416571     2.405391     2.394212     2.383032     2.371853     2.360673
      2.349494     2.338315     2.327135     2.315956     2.304776     2.293597     2.282417     2.271238     2.260058     2.248879
      2.237700     2.226520     2.215341     2.204161     2.192982     2.181802     2.170623     2.159443     2.148264     2.137084
      2.125905     2.114726     2.103546     2.092367     2.081187     2.070008     2.058828     2.047649     2.036469     2.025290
      2.014111     2.002931     1.991752     1.980572     1.969393     1.958213     1.947034     1.935854     1.924675     1.913496
      1.902316     1.891137     1.879957     1.868778     1.857598     1.846419     1.835239     1.824060     1.812881     1.801701
      1.790522     1.779342     1.768163     1.756983     1.745804     1.734624     1.723445     1.712265     1.701086     1.689907
      1.678727     1.667548     1.656368     1.645189     1.634009     1.622830     1.611650     1.600471     1.589292     1.578112
      1.566933     1.555753     1.544574     1.533394     1.522215     1.511035     1.499856     1.488677     1.477497     1.466318
      1.455138     1.443959     1.432779     1.421600     1.410420     1.399241     1.388062     1.376882     1.365703     1.354523
      1.343344     1.332164     1.320985     1.309805     1.298626     1.287446     1.276267     1.265088     1.253908     1.242729
      1.231549     1.220370     1.209190     1.198011     1.186831     1.175652     1.164473     1.153293     1.142114     1.130934
      1.119755     1.108575     1.097396     1.086216     1.075037     1.063858     1.052678     1.041499     1.030319     1.019140
      1.007960     0.996781     0.985601     0.974422     0.963243     0.952063     0.940884     0.929704     0.918525     0.907345
      0.896166     0.884986     0.873807     0.862628     0.851448     0.840269     0.829089     0.817910     0.806730     0.795551
      0.784371     0.773192     0.762012     0.750833     0.739654     0.728474     0.717295     0.706115     0.694936     0.683756
      0.672577     0.661397     0.650218     0.639039     0.627859     0.616680     0.605500     0.594321     0.583141     0.571962
      0.560782     0.549603     0.538424     0.527244     0.516065     0.504885     0.493706     0.482526     0.471347     0.460167
      0.448988     0.437809     0.426629     0.415450     0.404270     0.393091     0.381911     0.370732     0.359552     0.348373
      0.337193     0.326014     0.314835     0.303655     0.292476     0.281296     0.270117     0.258937     0.247758     0.236578
      0.225399     0.214220     0.203040
 NY phased data points follow
   5.25451E-09  6.81018E-09  1.00210E-08  1.10230E-08  1.21291E-08  1.00783E-08  9.93961E-09  8.59070E-09  7.78407E-09  6.94260E-09
   7.04542E-09  6.04121E-09  7.39515E-09  6.86741E-09  7.80856E-09  7.32548E-09  9.21757E-09  8.54392E-09  9.66509E-09  8.57955E-09
   9.18290E-09  8.27358E-09  9.12285E-09  7.66231E-09  7.94460E-09  7.45864E-09  8.69009E-09  9.06024E-09  9.83568E-09  8.23698E-09
   8.29820E-09  7.52272E-09  8.91548E-09  8.91750E-09  1.20975E-08  1.19248E-08  1.22525E-08  1.04415E-08  9.59636E-09  7.77164E-09
   7.69362E-09  7.15766E-09  6.60470E-09  6.86976E-09  6.42850E-09  5.73976E-09  6.13905E-09  5.53014E-09  5.33816E-09  4.31522E-09
   4.00834E-09  4.63500E-09  4.86757E-09  5.22377E-09  5.63755E-09  4.43218E-09  4.77506E-09  3.78886E-09  3.77566E-09  3.72162E-09
   4.60804E-09  4.52412E-09  5.21522E-09  6.02160E-09  8.98598E-09  1.08719E-08  1.31718E-08  1.20022E-08  1.12342E-08  8.59702E-09
   7.73912E-09  6.54395E-09  6.03113E-09  4.41928E-09  5.11656E-09  4.12385E-09  3.61164E-09  3.47979E-09  4.39739E-09  4.81694E-09
   8.13420E-09  1.10698E-08  1.46519E-08  1.43282E-08  1.30954E-08  1.11500E-08  1.00137E-08  9.30733E-09  9.20840E-09  7.84218E-09
   8.32020E-09  7.17578E-09  7.12821E-09  6.50591E-09  6.44389E-09  5.80897E-09  5.06949E-09  5.00594E-09  5.09664E-09  4.13357E-09
   4.28592E-09  4.29338E-09  4.23107E-09  3.95433E-09  4.71856E-09  3.93462E-09  4.25757E-09  4.18997E-09  4.24324E-09  3.50971E-09
   3.85778E-09  2.68277E-09  2.51503E-09  2.12875E-09  3.24155E-09  3.78250E-09  3.58779E-09  3.56425E-09  4.07692E-09  3.82784E-09
   4.55469E-09  3.87511E-09  4.12356E-09  3.49332E-09  3.34628E-09  2.09693E-09  2.37960E-09  1.98059E-09  1.82798E-09  1.14043E-09
   2.99804E-09  2.46124E-09  2.47450E-09  2.67672E-09  3.19900E-09  2.50348E-09  2.74162E-09  1.89772E-09  2.23960E-09  1.65343E-09
   2.81173E-09  3.71280E-09  3.88916E-09  4.27909E-09  4.57021E-09  3.70038E-09  4.23729E-09  4.45934E-09  4.34398E-09  4.53815E-09
   5.17898E-09  3.72377E-09  4.60822E-09  4.63385E-09  4.24067E-09  4.28782E-09  4.41171E-09  4.34445E-09  4.75501E-09  4.97461E-09
   5.35814E-09  5.34690E-09  5.97205E-09  5.64126E-09  5.99808E-09  6.04378E-09  6.58826E-09  6.81714E-09  7.88387E-09  9.68369E-09
   1.19143E-08  1.44223E-08  1.66133E-08  1.82137E-08  1.67539E-08  1.33897E-08  1.03456E-08  8.54191E-09  6.83358E-09  6.30287E-09
   5.39663E-09  4.61104E-09  4.05767E-09  3.00542E-09  2.94666E-09  1.92585E-09  2.09576E-09  7.98158E-10  5.59639E-10 -5.12370E-10
  -7.58286E-10 -2.16807E-09 -2.16756E-09 -3.78590E-09 -3.74797E-09 -5.55999E-09 -6.22638E-09 -7.51105E-09 -9.13737E-09 -9.76735E-09
  -1.05990E-08 -1.19155E-08 -1.30107E-08 -1.35706E-08 -1.36019E-08 -1.40203E-08 -1.42657E-08 -1.33062E-08 -1.27178E-08 -1.18826E-08
  -1.10760E-08 -9.28895E-09 -7.85568E-09 -6.88995E-09 -4.73500E-09 -3.77903E-09 -2.49074E-09 -1.73049E-09 -5.45248E-10 -1.82694E-10
  -1.79645E-10 -1.05927E-10 -8.76450E-10 -8.34009E-10 -7.13321E-10 -2.09942E-09 -1.42640E-09 -1.68175E-09 -1.31530E-09 -7.14718E-10
  -7.78447E-10 -6.25026E-10 -1.49393E-09 -2.96278E-10 -1.51509E-09 -2.11753E-09 -1.35443E-09 -1.54873E-09 -1.47547E-09 -1.18744E-09
  -8.13422E-10 -8.20601E-10 -3.33250E-10 -9.82665E-10 -1.33484E-09 -8.37997E-10 -1.61130E-09 -1.57444E-09 -1.45197E-09 -1.12533E-09
  -9.43728E-10 -8.91008E-10 -7.86089E-10 -6.61814E-10 -9.60605E-10 -3.39483E-10 -7.44896E-10 -3.76124E-10 -8.31403E-10 -1.00842E-09
  -7.19767E-10 -1.35594E-09 -1.59870E-09 -1.76689E-09 -1.70185E-09 -1.62233E-09 -8.91326E-10 -1.22045E-09 -9.09861E-10 -2.73299E-10
  -7.21557E-12 -3.48292E-10  8.92303E-11  6.12892E-11 -3.24380E-10 -1.29914E-10 -4.96280E-11 -2.64069E-10 -8.89428E-10 -9.18992E-10
  -1.02733E-09 -1.36593E-09 -1.20835E-09 -8.27034E-10 -1.24853E-09 -1.04266E-09 -1.19076E-09 -1.28595E-09 -7.43265E-10 -1.01481E-09
  -3.68458E-10 -1.17024E-09 -5.91832E-10 -6.34150E-10 -4.35763E-10 -1.04803E-09 -2.09531E-10 -6.73353E-10 -1.17276E-09 -9.26035E-10
  -1.06634E-09 -9.87649E-10 -6.33205E-10 -8.58527E-10 -5.16587E-10 -3.40249E-10 -8.38639E-10 -6.96516E-10 -3.20155E-10 -9.93773E-10
  -5.46820E-10 -5.78487E-10 -5.43152E-10 -1.69196E-10 -4.51933E-10 -6.29100E-10 -4.67288E-10 -3.40421E-10 -4.84743E-10 -2.95948E-10
  -6.92947E-10 -8.80997E-10 -4.87155E-10 -3.59873E-10 -2.72664E-10 -5.48289E-10 -3.14963E-10 -1.34375E-10 -7.13198E-10 -7.83630E-10
   3.23873E-10 -4.96456E-10 -6.20349E-10 -1.97556E-10  1.52842E-10  2.12072E-10 -4.40778E-10 -8.76494E-10 -8.02807E-11 -5.39146E-10
  -1.79627E-10 -4.19958E-10  1.09684E-10 -1.87780E-12 -4.55475E-10  4.31179E-10 -6.91024E-10 -2.65295E-10 -1.19252E-11 -2.41155E-11
   4.53267E-10 -4.03767E-10  1.50119E-10 -1.55266E-10  5.36298E-11  1.10455E-11 -1.47792E-10 -3.88291E-10  4.20977E-10 -2.71838E-10
   1.21330E-10 -6.25402E-11 -2.74051E-10
 NY points of the fit to the data follow
   7.88038E-09  8.46227E-09  8.96970E-09  9.37971E-09  9.55466E-09  9.39230E-09  8.90985E-09  8.26493E-09  7.73464E-09  7.16154E-09
   6.86192E-09  6.81688E-09  6.90304E-09  7.11431E-09  7.50353E-09  7.94897E-09  8.42705E-09  8.99949E-09  9.54770E-09  9.89815E-09
   1.00604E-08  9.83695E-09  9.23358E-09  8.59185E-09  7.99733E-09  7.45517E-09  7.25774E-09  7.64478E-09  8.28297E-09  8.87847E-09
   9.12222E-09  9.34285E-09  9.73299E-09  9.87564E-09  9.80236E-09  1.00586E-08  1.04308E-08  1.05051E-08  1.01273E-08  9.40892E-09
   8.68329E-09  7.99517E-09  6.77020E-09  5.73335E-09  5.34056E-09  4.89915E-09  4.49108E-09  4.43838E-09  4.58466E-09  4.73465E-09
   4.84728E-09  4.88209E-09  4.88625E-09  4.83840E-09  4.77262E-09  4.75847E-09  4.76186E-09  4.84250E-09  4.86505E-09  4.84414E-09
   5.02100E-09  5.51124E-09  6.08417E-09  6.74697E-09  7.87837E-09  8.87431E-09  9.52452E-09  1.00584E-08  1.03818E-08  1.03107E-08
   9.83037E-09  8.88190E-09  7.71304E-09  6.90553E-09  5.97671E-09  4.89163E-09  4.83223E-09  5.57001E-09  6.27584E-09  7.42575E-09
   8.95248E-09  1.05953E-08  1.21300E-08  1.28820E-08  1.26481E-08  1.19364E-08  1.09332E-08  9.50961E-09  7.84900E-09  7.33655E-09
   7.15930E-09  7.15875E-09  6.92699E-09  6.30052E-09  5.95047E-09  5.65220E-09  5.02602E-09  4.59439E-09  4.35532E-09  4.09551E-09
   3.93949E-09  3.85580E-09  3.83384E-09  3.88197E-09  3.94375E-09  3.99433E-09  4.02443E-09  4.03220E-09  4.01455E-09  3.95616E-09
   3.84805E-09  3.72967E-09  3.67426E-09  3.59266E-09  3.49840E-09  3.47156E-09  3.46515E-09  3.46666E-09  3.47193E-09  3.47911E-09
   3.48723E-09  3.49569E-09  3.50405E-09  3.51200E-09  3.51931E-09  3.52579E-09  3.53126E-09  3.53561E-09  3.53872E-09  3.54048E-09
   3.54077E-09  3.53953E-09  3.53666E-09  3.53207E-09  3.52570E-09  3.51747E-09  3.50731E-09  3.49516E-09  3.48097E-09  3.46468E-09
   3.44622E-09  3.42553E-09  3.40249E-09  3.37701E-09  3.34902E-09  3.31843E-09  3.28519E-09  3.24925E-09  3.21057E-09  3.16912E-09
   3.12493E-09  3.07804E-09  3.02855E-09  2.97663E-09  2.92250E-09  2.86653E-09  2.80923E-09  2.75139E-09  2.69414E-09  2.63921E-09
   2.58932E-09  2.54892E-09  2.52586E-09  2.53533E-09  2.61194E-09  2.85954E-09  3.73607E-09  5.49068E-09  7.63697E-09  1.01426E-08
   1.31051E-08  1.60329E-08  1.80090E-08  1.82717E-08  1.67643E-08  1.40031E-08  1.04079E-08  6.11867E-09  2.39054E-09  6.15113E-10
  -6.41424E-11 -4.65457E-10 -7.64000E-10 -1.01296E-09 -1.23369E-09 -1.43627E-09 -1.62591E-09 -1.80543E-09 -1.97637E-09 -2.13958E-09
  -2.29546E-09 -2.44415E-09 -2.58557E-09 -2.71955E-09 -2.84584E-09 -2.96414E-09 -3.07419E-09 -3.17619E-09 -3.27035E-09 -3.35690E-09
  -3.43602E-09 -3.50790E-09 -3.57274E-09 -3.63069E-09 -3.68194E-09 -3.72664E-09 -3.76497E-09 -3.79707E-09 -3.82311E-09 -3.84325E-09
  -3.85764E-09 -3.86643E-09 -3.86977E-09 -3.86783E-09 -3.86075E-09 -3.84868E-09 -3.83177E-09 -3.81017E-09 -3.78403E-09 -3.75350E-09
  -3.71873E-09 -3.67987E-09 -3.63706E-09 -3.59046E-09 -3.54024E-09 -3.48662E-09 -3.42983E-09 -3.37010E-09 -3.30767E-09 -3.24275E-09
  -3.17558E-09 -3.10639E-09 -3.03542E-09 -2.96288E-09 -2.88900E-09 -2.81402E-09 -2.73816E-09 -2.66167E-09 -2.58474E-09 -2.50764E-09
  -2.43058E-09 -2.35379E-09 -2.27750E-09 -2.20194E-09 -2.12733E-09 -2.05392E-09 -1.98191E-09 -1.91155E-09 -1.84307E-09 -1.77670E-09
  -1.71264E-09 -1.65116E-09 -1.59234E-09 -1.53611E-09 -1.48241E-09 -1.43116E-09 -1.38230E-09 -1.33574E-09 -1.29141E-09 -1.24924E-09
  -1.20916E-09 -1.17109E-09 -1.13496E-09 -1.10070E-09 -1.06822E-09 -1.03747E-09 -1.00835E-09 -9.80813E-10 -9.54776E-10 -9.30157E-10
  -9.06884E-10 -8.84898E-10 -8.64105E-10 -8.44443E-10 -8.25846E-10 -8.08216E-10 -7.91509E-10 -7.75633E-10 -7.60523E-10 -7.46096E-10
  -7.32310E-10 -7.19140E-10 -7.06553E-10 -6.94520E-10 -6.83023E-10 -6.72026E-10 -6.61508E-10 -6.51435E-10 -6.41783E-10 -6.32528E-10
  -6.23638E-10 -6.15087E-10 -6.06848E-10 -5.98894E-10 -5.91198E-10 -5.83730E-10 -5.76467E-10 -5.69378E-10 -5.62442E-10 -5.55619E-10
  -5.48896E-10 -5.42237E-10 -5.35615E-10 -5.29010E-10 -5.22387E-10 -5.15722E-10 -5.08988E-10 -5.02154E-10 -4.95218E-10 -4.88179E-10
  -4.81038E-10 -4.73798E-10 -4.66461E-10 -4.59025E-10 -4.51495E-10 -4.43872E-10 -4.36157E-10 -4.28352E-10 -4.20460E-10 -4.12478E-10
  -4.04415E-10 -3.96264E-10 -3.88032E-10 -3.79722E-10 -3.71330E-10 -3.62864E-10 -3.54321E-10 -3.45703E-10 -3.37014E-10 -3.28257E-10
  -3.19426E-10 -3.10530E-10 -3.01567E-10 -2.92542E-10 -2.83454E-10 -2.74304E-10 -2.65096E-10 -2.55835E-10 -2.46523E-10 -2.37165E-10
  -2.27763E-10 -2.18320E-10 -2.08842E-10 -1.99330E-10 -1.89790E-10 -1.80222E-10 -1.70635E-10 -1.61029E-10 -1.51408E-10 -1.41775E-10
  -1.32133E-10 -1.22489E-10 -1.12844E-10 -1.03201E-10 -9.35649E-11 -8.39398E-11 -7.43278E-11 -6.47315E-11 -5.51562E-11 -4.56069E-11
  -3.60855E-11 -2.65964E-11 -1.71393E-11
 NY background values follow
     8.435E-10    8.451E-10    8.466E-10    8.482E-10    8.497E-10    8.513E-10    8.529E-10    8.545E-10    8.561E-10    8.577E-10
     8.594E-10    8.611E-10    8.628E-10    8.645E-10    8.663E-10    8.681E-10    8.700E-10    8.720E-10    8.739E-10    8.760E-10
     8.781E-10    8.802E-10    8.825E-10    8.848E-10    8.871E-10    8.896E-10    8.921E-10    8.947E-10    8.975E-10    9.003E-10
     9.032E-10    9.062E-10    9.095E-10    9.129E-10    9.165E-10    9.203E-10    9.244E-10    9.287E-10    9.333E-10    9.383E-10
     9.436E-10    9.492E-10    9.552E-10    9.616E-10    9.684E-10    9.757E-10    9.834E-10    9.916E-10    1.000E-09    1.009E-09
     1.019E-09    1.030E-09    1.041E-09    1.052E-09    1.064E-09    1.077E-09    1.091E-09    1.105E-09    1.120E-09    1.135E-09
     1.151E-09    1.168E-09    1.186E-09    1.204E-09    1.223E-09    1.242E-09    1.262E-09    1.283E-09    1.304E-09    1.326E-09
     1.348E-09    1.371E-09    1.395E-09    1.419E-09    1.443E-09    1.468E-09    1.494E-09    1.520E-09    1.547E-09    1.574E-09
     1.602E-09    1.630E-09    1.659E-09    1.688E-09    1.718E-09    1.748E-09    1.778E-09    1.809E-09    1.840E-09    1.871E-09
     1.903E-09    1.935E-09    1.967E-09    1.999E-09    2.031E-09    2.063E-09    2.095E-09    2.127E-09    2.159E-09    2.190E-09
     2.222E-09    2.253E-09    2.284E-09    2.314E-09    2.344E-09    2.374E-09    2.403E-09    2.432E-09    2.460E-09    2.488E-09
     2.515E-09    2.541E-09    2.567E-09    2.592E-09    2.616E-09    2.639E-09    2.661E-09    2.682E-09    2.702E-09    2.720E-09
     2.738E-09    2.754E-09    2.769E-09    2.783E-09    2.795E-09    2.805E-09    2.814E-09    2.821E-09    2.826E-09    2.830E-09
     2.832E-09    2.832E-09    2.829E-09    2.825E-09    2.819E-09    2.810E-09    2.799E-09    2.786E-09    2.771E-09    2.753E-09
     2.733E-09    2.709E-09    2.684E-09    2.655E-09    2.623E-09    2.589E-09    2.551E-09    2.509E-09    2.465E-09    2.416E-09
     2.364E-09    2.308E-09    2.248E-09    2.184E-09    2.116E-09    2.044E-09    1.967E-09    1.885E-09    1.799E-09    1.708E-09
     1.612E-09    1.511E-09    1.404E-09    1.293E-09    1.176E-09    1.053E-09    9.245E-10    7.904E-10    6.504E-10    5.049E-10
     3.544E-10    1.995E-10    4.046E-11   -1.221E-10   -2.876E-10   -4.557E-10   -6.258E-10   -7.974E-10   -9.701E-10   -1.143E-09
    -1.317E-09   -1.490E-09   -1.662E-09   -1.832E-09   -2.001E-09   -2.167E-09   -2.331E-09   -2.491E-09   -2.647E-09   -2.799E-09
    -2.946E-09   -3.087E-09   -3.223E-09   -3.353E-09   -3.475E-09   -3.590E-09   -3.698E-09   -3.798E-09   -3.891E-09   -3.976E-09
    -4.054E-09   -4.125E-09   -4.189E-09   -4.246E-09   -4.297E-09   -4.341E-09   -4.379E-09   -4.411E-09   -4.437E-09   -4.457E-09
    -4.472E-09   -4.480E-09   -4.484E-09   -4.482E-09   -4.475E-09   -4.463E-09   -4.446E-09   -4.425E-09   -4.399E-09   -4.368E-09
    -4.334E-09   -4.295E-09   -4.253E-09   -4.206E-09   -4.156E-09   -4.103E-09   -4.046E-09   -3.987E-09   -3.924E-09   -3.860E-09
    -3.793E-09   -3.724E-09   -3.653E-09   -3.581E-09   -3.507E-09   -3.432E-09   -3.357E-09   -3.280E-09   -3.204E-09   -3.127E-09
    -3.050E-09   -2.973E-09   -2.897E-09   -2.822E-09   -2.747E-09   -2.674E-09   -2.602E-09   -2.532E-09   -2.464E-09   -2.398E-09
    -2.334E-09   -2.272E-09   -2.214E-09   -2.158E-09   -2.104E-09   -2.053E-09   -2.004E-09   -1.958E-09   -1.914E-09   -1.872E-09
    -1.832E-09   -1.794E-09   -1.758E-09   -1.724E-09   -1.691E-09   -1.661E-09   -1.632E-09   -1.604E-09   -1.578E-09   -1.554E-09
    -1.531E-09   -1.509E-09   -1.488E-09   -1.469E-09   -1.450E-09   -1.432E-09   -1.416E-09   -1.400E-09   -1.385E-09   -1.371E-09
    -1.357E-09   -1.344E-09   -1.331E-09   -1.319E-09   -1.308E-09   -1.297E-09   -1.286E-09   -1.276E-09   -1.267E-09   -1.258E-09
    -1.249E-09   -1.240E-09   -1.232E-09   -1.224E-09   -1.216E-09   -1.209E-09   -1.202E-09   -1.195E-09   -1.188E-09   -1.181E-09
    -1.174E-09   -1.167E-09   -1.161E-09   -1.154E-09   -1.148E-09   -1.141E-09   -1.134E-09   -1.127E-09   -1.120E-09   -1.113E-09
    -1.106E-09   -1.099E-09   -1.091E-09   -1.084E-09   -1.076E-09   -1.069E-09   -1.061E-09   -1.053E-09   -1.045E-09   -1.037E-09
    -1.029E-09   -1.021E-09   -1.012E-09   -1.004E-09   -9.956E-10   -9.871E-10   -9.785E-10   -9.698E-10   -9.610E-10   -9.521E-10
    -9.432E-10   -9.342E-10   -9.252E-10   -9.160E-10   -9.068E-10   -8.976E-10   -8.883E-10   -8.789E-10   -8.695E-10   -8.600E-10
    -8.505E-10   -8.409E-10   -8.313E-10   -8.216E-10   -8.120E-10   -8.023E-10   -7.925E-10   -7.828E-10   -7.730E-10   -7.632E-10
    -7.534E-10   -7.436E-10   -7.338E-10   -7.240E-10   -7.142E-10   -7.044E-10   -6.946E-10   -6.849E-10   -6.751E-10   -6.654E-10
    -6.557E-10   -6.460E-10   -6.363E-10
 Ala      Conc. = 1.38E-10
   9.45087E-10  9.57030E-10  9.65988E-10  9.72059E-10  9.74656E-10  9.75632E-10  9.72363E-10  9.58985E-10  9.48579E-10  9.44024E-10
   9.28046E-10  9.13741E-10  9.08896E-10  9.01873E-10  8.95627E-10  8.92770E-10  8.91613E-10  8.91432E-10  8.91876E-10  8.92754E-10
   8.93956E-10  8.95410E-10  8.97074E-10  8.98915E-10  9.00912E-10  9.03055E-10  9.05331E-10  9.07734E-10  9.10262E-10  9.12916E-10
   9.15712E-10  9.18665E-10  9.21796E-10  9.25124E-10  9.28667E-10  9.32446E-10  9.36482E-10  9.40795E-10  9.45404E-10  9.50330E-10
   9.55596E-10  9.61220E-10  9.67226E-10  9.73632E-10  9.80464E-10  9.87737E-10  9.95477E-10  1.00371E-09  1.01244E-09  1.02171E-09
   1.03153E-09  1.04191E-09  1.05290E-09  1.06450E-09  1.07675E-09  1.08964E-09  1.10322E-09  1.11749E-09  1.13245E-09  1.14808E-09
   1.16438E-09  1.18135E-09  1.19897E-09  1.21723E-09  1.23613E-09  1.25567E-09  1.27582E-09  1.29659E-09  1.31797E-09  1.33994E-09
   1.36251E-09  1.38566E-09  1.40939E-09  1.43370E-09  1.45856E-09  1.48399E-09  1.50998E-09  1.53651E-09  1.56358E-09  1.59120E-09
   1.61935E-09  1.64803E-09  1.67725E-09  1.70701E-09  1.73730E-09  1.76813E-09  1.79945E-09  1.83127E-09  1.86355E-09  1.89631E-09
   1.92954E-09  1.96329E-09  1.99761E-09  2.03262E-09  2.06852E-09  2.10563E-09  2.14460E-09  2.18670E-09  2.23498E-09  2.29919E-09
   2.39306E-09  2.48104E-09  2.58399E-09  2.72687E-09  2.86281E-09  2.97283E-09  3.05125E-09  3.09885E-09  3.11447E-09  3.08412E-09
   3.00020E-09  2.90271E-09  2.86535E-09  2.79938E-09  2.71863E-09  2.70342E-09  2.70724E-09  2.71778E-09  2.73100E-09  2.74518E-09
   2.75945E-09  2.77327E-09  2.78632E-09  2.79836E-09  2.80922E-09  2.81876E-09  2.82686E-09  2.83342E-09  2.83835E-09  2.84156E-09
   2.84297E-09  2.84250E-09  2.84009E-09  2.83566E-09  2.82915E-09  2.82047E-09  2.80957E-09  2.79638E-09  2.78083E-09  2.76286E-09
   2.74239E-09  2.71932E-09  2.69354E-09  2.66490E-09  2.63330E-09  2.59860E-09  2.56069E-09  2.51945E-09  2.47474E-09  2.42645E-09
   2.37446E-09  2.31865E-09  2.25889E-09  2.19508E-09  2.12708E-09  2.05479E-09  1.97810E-09  1.89689E-09  1.81107E-09  1.72054E-09
   1.62522E-09  1.52506E-09  1.42009E-09  1.31041E-09  1.19645E-09  1.07966E-09  9.66668E-10  8.71981E-10  7.73426E-10  6.76119E-10
   5.85326E-10  4.90752E-10  3.74320E-10  2.19639E-10  2.69565E-11 -1.90929E-10 -4.24054E-10 -6.73391E-10 -9.22826E-10 -1.11638E-09
  -1.29717E-09 -1.47380E-09 -1.64797E-09 -1.81996E-09 -1.98960E-09 -2.15658E-09 -2.32050E-09 -2.48092E-09 -2.63738E-09 -2.78942E-09
  -2.93656E-09 -3.07832E-09 -3.21421E-09 -3.34373E-09 -3.46642E-09 -3.58177E-09 -3.68943E-09 -3.78947E-09 -3.88202E-09 -3.96725E-09
  -4.04530E-09 -4.11632E-09 -4.18045E-09 -4.23784E-09 -4.28865E-09 -4.33301E-09 -4.37108E-09 -4.40300E-09 -4.42892E-09 -4.44899E-09
  -4.46335E-09 -4.47216E-09 -4.47555E-09 -4.47368E-09 -4.46670E-09 -4.45475E-09 -4.43798E-09 -4.41653E-09 -4.39056E-09 -4.36021E-09
  -4.32562E-09 -4.28695E-09 -4.24435E-09 -4.19795E-09 -4.14794E-09 -4.09453E-09 -4.03796E-09 -3.97844E-09 -3.91622E-09 -3.85152E-09
  -3.78457E-09 -3.71560E-09 -3.64484E-09 -3.57251E-09 -3.49884E-09 -3.42408E-09 -3.34843E-09 -3.27214E-09 -3.19542E-09 -3.11852E-09
  -3.04166E-09 -2.96506E-09 -2.88897E-09 -2.81360E-09 -2.73918E-09 -2.66594E-09 -2.59412E-09 -2.52394E-09 -2.45563E-09 -2.38943E-09
  -2.32554E-09 -2.26422E-09 -2.20556E-09 -2.14949E-09 -2.09594E-09 -2.04485E-09 -1.99613E-09 -1.94972E-09 -1.90553E-09 -1.86349E-09
  -1.82355E-09 -1.78560E-09 -1.74960E-09 -1.71546E-09 -1.68310E-09 -1.65247E-09 -1.62346E-09 -1.59603E-09 -1.57010E-09 -1.54558E-09
  -1.52240E-09 -1.50051E-09 -1.47981E-09 -1.46024E-09 -1.44172E-09 -1.42418E-09 -1.40755E-09 -1.39174E-09 -1.37670E-09 -1.36235E-09
  -1.34862E-09 -1.33551E-09 -1.32299E-09 -1.31101E-09 -1.29956E-09 -1.28861E-09 -1.27814E-09 -1.26811E-09 -1.25849E-09 -1.24927E-09
  -1.24042E-09 -1.23189E-09 -1.22368E-09 -1.21575E-09 -1.20807E-09 -1.20062E-09 -1.19337E-09 -1.18629E-09 -1.17936E-09 -1.17254E-09
  -1.16582E-09 -1.15916E-09 -1.15253E-09 -1.14592E-09 -1.13929E-09 -1.13260E-09 -1.12585E-09 -1.11900E-09 -1.11204E-09 -1.10497E-09
  -1.09780E-09 -1.09053E-09 -1.08316E-09 -1.07568E-09 -1.06811E-09 -1.06044E-09 -1.05268E-09 -1.04482E-09 -1.03688E-09 -1.02884E-09
  -1.02071E-09 -1.01250E-09 -1.00420E-09 -9.95821E-10 -9.87357E-10 -9.78816E-10 -9.70195E-10 -9.61496E-10 -9.52722E-10 -9.43878E-10
  -9.34957E-10 -9.25968E-10 -9.16908E-10 -9.07783E-10 -8.98594E-10 -8.89337E-10 -8.80021E-10 -8.70649E-10 -8.61222E-10 -8.51746E-10
  -8.42223E-10 -8.32657E-10 -8.23051E-10 -8.13409E-10 -8.03737E-10 -7.94033E-10 -7.84307E-10 -7.74558E-10 -7.64792E-10 -7.55011E-10
  -7.45217E-10 -7.35418E-10 -7.25614E-10 -7.15810E-10 -7.06010E-10 -6.96217E-10 -6.86434E-10 -6.76663E-10 -6.66911E-10 -6.57181E-10
  -6.47475E-10 -6.37799E-10 -6.28151E-10
 Asp      Conc. = 7.73E-10
   1.79086E-09  1.68094E-09  1.56288E-09  1.43233E-09  1.31645E-09  1.18792E-09  1.09117E-09  1.00509E-09  9.68321E-10  9.49869E-10
   9.40011E-10  9.34887E-10  9.32748E-10  9.32712E-10  9.33537E-10  9.34804E-10  9.36615E-10  9.38924E-10  9.41682E-10  9.44854E-10
   9.48422E-10  9.52385E-10  9.56757E-10  9.61561E-10  9.66834E-10  9.72637E-10  9.79040E-10  9.86144E-10  9.94082E-10  1.00304E-09
   1.01329E-09  1.02521E-09  1.03936E-09  1.05664E-09  1.07862E-09  1.10855E-09  1.15412E-09  1.20563E-09  1.27317E-09  1.33970E-09
   1.40282E-09  1.45962E-09  1.50766E-09  1.56139E-09  1.61589E-09  1.72283E-09  1.83598E-09  1.97249E-09  2.17654E-09  2.35235E-09
   2.46887E-09  2.48742E-09  2.41968E-09  2.27808E-09  2.08829E-09  1.91521E-09  1.74134E-09  1.69663E-09  1.63939E-09  1.54224E-09
   1.50702E-09  1.50722E-09  1.49558E-09  1.49199E-09  1.49969E-09  1.48808E-09  1.44643E-09  1.43096E-09  1.42937E-09  1.43528E-09
   1.44591E-09  1.45983E-09  1.47621E-09  1.49451E-09  1.51438E-09  1.53559E-09  1.55796E-09  1.58134E-09  1.60564E-09  1.63077E-09
   1.65667E-09  1.68330E-09  1.71059E-09  1.73852E-09  1.76705E-09  1.79614E-09  1.82574E-09  1.85577E-09  1.88620E-09  1.91696E-09
   1.94801E-09  1.97929E-09  2.01076E-09  2.04236E-09  2.07406E-09  2.10579E-09  2.13753E-09  2.16921E-09  2.20080E-09  2.23225E-09
   2.26350E-09  2.29453E-09  2.32528E-09  2.35571E-09  2.38578E-09  2.41543E-09  2.44464E-09  2.47334E-09  2.50151E-09  2.52909E-09
   2.55605E-09  2.58233E-09  2.60789E-09  2.63268E-09  2.65664E-09  2.67969E-09  2.70178E-09  2.72285E-09  2.74282E-09  2.76164E-09
   2.77923E-09  2.79555E-09  2.81052E-09  2.82407E-09  2.83615E-09  2.84670E-09  2.85564E-09  2.86292E-09  2.86848E-09  2.87224E-09
   2.87414E-09  2.87413E-09  2.87214E-09  2.86811E-09  2.86197E-09  2.85366E-09  2.84312E-09  2.83029E-09  2.81511E-09  2.79750E-09
   2.77741E-09  2.75474E-09  2.72937E-09  2.70117E-09  2.67003E-09  2.63584E-09  2.59847E-09  2.55781E-09  2.51374E-09  2.46616E-09
   2.41496E-09  2.36003E-09  2.30126E-09  2.23857E-09  2.17187E-09  2.10108E-09  2.02614E-09  1.94701E-09  1.86369E-09  1.77623E-09
   1.68477E-09  1.58958E-09  1.49126E-09  1.39093E-09  1.29117E-09  1.19884E-09  1.14040E-09  1.21670E-09  1.30650E-09  1.42143E-09
   1.59666E-09  1.78360E-09  1.88279E-09  1.79186E-09  1.49586E-09  1.05964E-09  5.45649E-10 -5.14476E-11 -6.84694E-10 -1.00440E-09
  -1.22510E-09 -1.41982E-09 -1.60382E-09 -1.78175E-09 -1.95523E-09 -2.12482E-09 -2.29056E-09 -2.45230E-09 -2.60973E-09 -2.76248E-09
  -2.91015E-09 -3.05232E-09 -3.18852E-09 -3.31828E-09 -3.44114E-09 -3.55663E-09 -3.66439E-09 -3.76449E-09 -3.85710E-09 -3.94236E-09
  -4.02043E-09 -4.09145E-09 -4.15558E-09 -4.21296E-09 -4.26375E-09 -4.30809E-09 -4.34614E-09 -4.37804E-09 -4.40393E-09 -4.42397E-09
  -4.43830E-09 -4.44707E-09 -4.45043E-09 -4.44853E-09 -4.44151E-09 -4.42953E-09 -4.41272E-09 -4.39124E-09 -4.36524E-09 -4.33485E-09
  -4.30023E-09 -4.26153E-09 -4.21889E-09 -4.17246E-09 -4.12242E-09 -4.06898E-09 -4.01237E-09 -3.95283E-09 -3.89058E-09 -3.82585E-09
