 LCModel (Version 6.3-1R) Copyright: S.W. Provencher.          Ref.: Magn. Reson. Med. 30:672-679 (1993).                
 onepulse 23x26_ftSpec_smooth_lcm
 26 lines in following concentration table = NCONC+1
    Conc.  %SD /Cr+PCr  Metabolite                                         
    0.000 999%   0.000 Ala                                                 
    0.000 999%   0.000 Asp                                                 
 4.37E-10  58%   1.000 Cr                                                  
    0.000 999%   0.000 GABA                                                
    0.000 999%   0.000 Glc                                                 
 1.93E-09  48%   4.423 Gln                                                 
 5.26E-10 142%   1.204 Glu                                                 
    0.000 999%   0.000 Glyc                                                
    0.000 999%   0.000 GPC                                                 
    0.000 999%   0.000 GSH                                                 
 1.46E-09  32%   3.338 Ins                                                 
    0.000 999%   0.000 Lac                                                 
    0.000 999%   0.000 NAAG                                                
 7.87E-10  35%   1.800 NAA                                                 
 1.84E-10  79%   0.420 PCh                                                 
    0.000 999%   0.000 PCr                                                 
    0.000 999%   0.000 PE                                                  
 2.77E-10 116%   0.634 Scyllo                                              
 3.42E-09  19%   7.820 Ser                                                 
 2.38E-10 422%   0.544 Tau                                                 
 1.84E-10  79%   0.420 GPC+PCh                                             
 7.87E-10  35%   1.800 NAA+NAAG                                            
 1.46E-09  32%   3.338 Ins+Glyc                                            
 4.37E-10  58%   1.000 Cr+PCr                                              
 2.46E-09  24%   5.626 Glu+Gln                                             
   6 lines in following misc. output table
  FWHM = 0.078 ppm    S/N =   3                                            
  Data shift = 0.335 ppm                                                   
  Ph: -53 deg     -24.7 deg/ppm                                            
  alphaB,S = 1.8E-01,   4.1E+01                                            
   16 spline knots.   Ns = 5(1)                                            
  (11) 4 infls.   ( 7) 1 extrs.                                            
  363 points on ppm-axis = NY
      4.250000     4.238821     4.227641     4.216462     4.205282     4.194103     4.182923     4.171744     4.160564     4.149385
      4.138206     4.127026     4.115847     4.104667     4.093488     4.082308     4.071129     4.059949     4.048770     4.037591
      4.026411     4.015232     4.004052     3.992873     3.981693     3.970514     3.959334     3.948155     3.936975     3.925796
      3.914617     3.903437     3.892258     3.881078     3.869899     3.858719     3.847540     3.836360     3.825181     3.814002
      3.802822     3.791643     3.780463     3.769284     3.758104     3.746925     3.735745     3.724566     3.713387     3.702207
      3.691028     3.679848     3.668669     3.657489     3.646310     3.635130     3.623951     3.612772     3.601592     3.590413
      3.579233     3.568054     3.556874     3.545695     3.534515     3.523336     3.512156     3.500977     3.489798     3.478618
      3.467439     3.456259     3.445080     3.433900     3.422721     3.411541     3.400362     3.389183     3.378003     3.366824
      3.355644     3.344465     3.333285     3.322106     3.310926     3.299747     3.288568     3.277388     3.266209     3.255029
      3.243850     3.232670     3.221491     3.210311     3.199132     3.187953     3.176773     3.165594     3.154414     3.143235
      3.132055     3.120876     3.109696     3.098517     3.087337     3.076158     3.064979     3.053799     3.042620     3.031440
      3.020261     3.009081     2.997902     2.986722     2.975543     2.964364     2.953184     2.942005     2.930825     2.919646
      2.908466     2.897287     2.886107     2.874928     2.863749     2.852569     2.841390     2.830210     2.819031     2.807851
      2.796672     2.785492     2.774313     2.763134     2.751954     2.740775     2.729595     2.718416     2.707236     2.696057
      2.684877     2.673698     2.662519     2.651339     2.640160     2.628980     2.617801     2.606621     2.595442     2.584262
      2.573083     2.561903     2.550724     2.539545     2.528365     2.517186     2.506006     2.494827     2.483647     2.472468
      2.461288     2.450109     2.438930     2.427750     2.416571     2.405391     2.394212     2.383032     2.371853     2.360673
      2.349494     2.338315     2.327135     2.315956     2.304776     2.293597     2.282417     2.271238     2.260058     2.248879
      2.237700     2.226520     2.215341     2.204161     2.192982     2.181802     2.170623     2.159443     2.148264     2.137084
      2.125905     2.114726     2.103546     2.092367     2.081187     2.070008     2.058828     2.047649     2.036469     2.025290
      2.014111     2.002931     1.991752     1.980572     1.969393     1.958213     1.947034     1.935854     1.924675     1.913496
      1.902316     1.891137     1.879957     1.868778     1.857598     1.846419     1.835239     1.824060     1.812881     1.801701
      1.790522     1.779342     1.768163     1.756983     1.745804     1.734624     1.723445     1.712265     1.701086     1.689907
      1.678727     1.667548     1.656368     1.645189     1.634009     1.622830     1.611650     1.600471     1.589292     1.578112
      1.566933     1.555753     1.544574     1.533394     1.522215     1.511035     1.499856     1.488677     1.477497     1.466318
      1.455138     1.443959     1.432779     1.421600     1.410420     1.399241     1.388062     1.376882     1.365703     1.354523
      1.343344     1.332164     1.320985     1.309805     1.298626     1.287446     1.276267     1.265088     1.253908     1.242729
      1.231549     1.220370     1.209190     1.198011     1.186831     1.175652     1.164473     1.153293     1.142114     1.130934
      1.119755     1.108575     1.097396     1.086216     1.075037     1.063858     1.052678     1.041499     1.030319     1.019140
      1.007960     0.996781     0.985601     0.974422     0.963243     0.952063     0.940884     0.929704     0.918525     0.907345
      0.896166     0.884986     0.873807     0.862628     0.851448     0.840269     0.829089     0.817910     0.806730     0.795551
      0.784371     0.773192     0.762012     0.750833     0.739654     0.728474     0.717295     0.706115     0.694936     0.683756
      0.672577     0.661397     0.650218     0.639039     0.627859     0.616680     0.605500     0.594321     0.583141     0.571962
      0.560782     0.549603     0.538424     0.527244     0.516065     0.504885     0.493706     0.482526     0.471347     0.460167
      0.448988     0.437809     0.426629     0.415450     0.404270     0.393091     0.381911     0.370732     0.359552     0.348373
      0.337193     0.326014     0.314835     0.303655     0.292476     0.281296     0.270117     0.258937     0.247758     0.236578
      0.225399     0.214220     0.203040
 NY phased data points follow
   1.91382E-08  2.04136E-08  1.80535E-08  1.59190E-08  1.24535E-08  1.20832E-08  9.76068E-09  1.07747E-08  9.90841E-09  1.03396E-08
   9.69250E-09  1.10378E-08  1.07377E-08  1.15690E-08  1.11578E-08  1.18339E-08  1.06980E-08  1.08173E-08  9.68698E-09  1.01556E-08
   8.82654E-09  9.54692E-09  7.62882E-09  8.62783E-09  7.93965E-09  9.34529E-09  9.50680E-09  9.67576E-09  8.33162E-09  7.84727E-09
   7.34118E-09  8.81037E-09  9.57751E-09  1.06619E-08  9.81931E-09  9.30444E-09  6.38039E-09  5.97398E-09  4.53180E-09  4.86008E-09
   3.79075E-09  4.34401E-09  3.83317E-09  4.24893E-09  3.78838E-09  4.15969E-09  3.77663E-09  3.02836E-09  2.54374E-09  3.68203E-09
   3.16020E-09  4.27133E-09  4.24590E-09  5.04721E-09  4.68868E-09  4.09772E-09  3.40420E-09  4.10789E-09  4.46769E-09  5.47445E-09
   5.69125E-09  7.03096E-09  7.11547E-09  9.44327E-09  1.11982E-08  1.17069E-08  9.60721E-09  8.03131E-09  6.10178E-09  4.93184E-09
   3.73167E-09  4.78256E-09  3.41008E-09  3.66827E-09  3.50303E-09  4.55560E-09  3.98290E-09  5.22694E-09  5.48099E-09  8.94707E-09
   1.24269E-08  1.54820E-08  1.52246E-08  1.31692E-08  9.48942E-09  8.55749E-09  6.95338E-09  6.47037E-09  5.65716E-09  5.49218E-09
   5.02218E-09  5.02793E-09  4.09719E-09  3.89038E-09  3.25587E-09  2.95432E-09  2.65090E-09  1.93063E-09  2.06312E-09  2.36707E-09
   1.91296E-09  2.49338E-09  2.26424E-09  3.19686E-09  2.65896E-09  2.71235E-09  2.39165E-09  2.63310E-09  2.36943E-09  1.95571E-09
   7.22199E-10  1.44763E-09  4.00458E-10  6.47478E-10  1.50836E-09  2.39405E-09  2.20400E-09  2.28666E-09  2.11133E-09  3.02297E-09
   2.52350E-09  2.53057E-09  2.22380E-09  2.14259E-09  1.29499E-09  1.29968E-09  2.49924E-10  2.47498E-10  5.04887E-10  1.09287E-09
   1.47574E-09  1.93389E-09  1.05594E-09  1.54170E-09  1.55572E-09  2.09336E-09  1.96309E-09  1.62420E-09  1.21756E-09  1.79926E-09
   2.52498E-09  4.11161E-09  4.74375E-09  4.47101E-09  3.61022E-09  3.84298E-09  4.23886E-09  5.68044E-09  4.60366E-09  5.17326E-09
   4.77640E-09  4.96934E-09  4.37657E-09  4.94000E-09  4.12663E-09  4.13707E-09  4.07779E-09  4.73003E-09  4.31443E-09  4.28685E-09
   5.15490E-09  4.81827E-09  5.22552E-09  5.29594E-09  5.65311E-09  6.01090E-09  6.10336E-09  6.37579E-09  7.73175E-09  8.02966E-09
   9.72644E-09  1.35101E-08  1.85119E-08  2.11756E-08  1.92333E-08  1.57298E-08  1.32485E-08  1.12509E-08  9.87937E-09  9.30982E-09
   7.51413E-09  6.68394E-09  6.18948E-09  5.43023E-09  4.34163E-09  3.50249E-09  2.71787E-09  1.81158E-09  5.29377E-10 -6.42504E-10
  -1.17303E-09 -2.54515E-09 -3.94893E-09 -5.49663E-09 -7.12738E-09 -8.47504E-09 -1.03483E-08 -1.16436E-08 -1.32153E-08 -1.46615E-08
  -1.56671E-08 -1.67723E-08 -1.74229E-08 -1.76636E-08 -1.77199E-08 -1.73653E-08 -1.64854E-08 -1.55456E-08 -1.42813E-08 -1.26043E-08
  -1.08723E-08 -9.24815E-09 -7.78403E-09 -6.25398E-09 -4.33930E-09 -3.10851E-09 -2.00483E-09 -1.36201E-09 -9.96960E-10 -7.18164E-10
  -4.87387E-10 -1.32760E-09 -8.59117E-10 -1.49817E-09 -1.35530E-09 -1.66222E-09 -9.97796E-10 -1.46992E-09 -1.16799E-09 -1.03717E-09
  -7.52434E-10 -9.07629E-10 -8.97216E-10 -5.81046E-10 -8.27440E-10 -1.68036E-09 -1.32957E-09 -1.14255E-09 -1.18668E-09 -1.44625E-09
  -5.35346E-10 -4.61435E-10 -1.64113E-10 -3.33435E-10 -7.88062E-10 -9.06878E-10 -5.81031E-10 -1.12331E-09 -1.14493E-09 -8.13538E-10
  -1.27506E-09 -9.41939E-10 -2.26470E-10 -4.51707E-10 -1.40191E-10 -9.55872E-12  3.80784E-10  2.23308E-10  1.97814E-10 -2.50868E-11
  -8.86725E-11 -1.04823E-09 -8.14643E-10 -7.22151E-10 -1.21203E-09 -1.69468E-09 -1.45373E-09 -1.21434E-09 -1.33753E-09 -1.19619E-09
  -1.69389E-10 -5.43109E-10  2.37010E-10 -1.31182E-10  5.75908E-10  6.92219E-10  1.12853E-09  5.72083E-10  4.16499E-10  6.91876E-10
   2.44632E-10  5.77060E-11  3.37563E-10 -2.41489E-10  2.19939E-12 -7.94105E-10 -1.17783E-10 -5.83557E-10 -6.05787E-10 -5.62071E-10
  -6.08745E-10 -4.85349E-10 -4.48263E-10 -1.08466E-09 -8.27618E-10 -4.05319E-10 -6.04506E-10 -8.58614E-10 -7.72081E-10 -5.80283E-10
  -6.72347E-10 -7.63291E-10 -7.61995E-10 -6.83545E-10 -5.97535E-10 -5.88253E-10 -7.12176E-10 -6.17783E-10 -4.39188E-10 -9.77663E-10
  -5.65693E-10 -1.15484E-09 -5.72897E-10 -8.05988E-10 -8.85656E-10 -1.19433E-09 -5.63813E-10 -9.08418E-10 -4.58791E-10 -8.58009E-10
  -1.08717E-09 -6.94645E-10 -5.17828E-10 -5.62080E-10 -8.20060E-10 -8.32762E-10 -3.91232E-10 -8.65410E-10 -6.21892E-10 -8.02212E-10
  -6.64415E-10 -1.11558E-09 -6.36299E-10 -9.26709E-10 -5.41299E-10 -7.92010E-10 -3.97963E-10 -7.23694E-10 -7.62591E-10 -1.04525E-09
  -1.19160E-09 -6.10035E-10 -5.26768E-10 -1.03063E-09 -6.10995E-10 -9.53076E-10 -6.74739E-10 -7.34893E-10 -8.34147E-10 -9.11691E-10
  -3.57219E-10 -1.05832E-09 -1.19287E-09 -4.86180E-10 -1.01098E-09 -8.02714E-10 -8.98289E-10 -1.11968E-09 -6.45786E-10 -1.03722E-09
  -7.94866E-10 -7.02977E-10 -6.42167E-10
 NY points of the fit to the data follow
   1.98916E-08  1.82627E-08  1.63219E-08  1.46837E-08  1.41228E-08  1.35372E-08  1.24416E-08  1.12769E-08  1.05672E-08  1.05105E-08
   1.05747E-08  1.05488E-08  1.08556E-08  1.12359E-08  1.15885E-08  1.13630E-08  1.06513E-08  1.03370E-08  9.94146E-09  8.96745E-09
   8.16416E-09  8.06281E-09  8.37985E-09  8.60202E-09  8.81881E-09  9.04796E-09  9.32445E-09  9.43167E-09  9.22845E-09  9.11986E-09
   9.11101E-09  8.96246E-09  8.60782E-09  7.98808E-09  7.26174E-09  6.54518E-09  6.43761E-09  6.39453E-09  6.20295E-09  5.87954E-09
   5.45716E-09  4.82545E-09  3.97078E-09  3.46288E-09  3.32856E-09  3.29571E-09  3.30255E-09  3.32966E-09  3.37323E-09  3.40902E-09
   3.45205E-09  3.50779E-09  3.60640E-09  3.73129E-09  3.93472E-09  4.29582E-09  4.71899E-09  5.18965E-09  5.84541E-09  6.51179E-09
   7.06518E-09  7.59411E-09  8.11936E-09  8.44395E-09  8.50500E-09  8.18473E-09  7.65658E-09  7.19892E-09  6.45394E-09  5.48473E-09
   4.97000E-09  4.70841E-09  4.37212E-09  4.23297E-09  4.42622E-09  4.88255E-09  5.55698E-09  6.76642E-09  8.03985E-09  9.25363E-09
   1.05050E-08  1.16734E-08  1.23032E-08  1.22514E-08  1.16765E-08  1.05753E-08  9.12163E-09  7.40304E-09  5.30855E-09  4.33970E-09
   3.86341E-09  3.57437E-09  3.37523E-09  3.22482E-09  3.11252E-09  3.02352E-09  2.94954E-09  2.89002E-09  2.84120E-09  2.80083E-09
   2.76709E-09  2.73863E-09  2.71470E-09  2.69471E-09  2.67811E-09  2.66458E-09  2.65360E-09  2.64492E-09  2.63834E-09  2.63367E-09
   2.63077E-09  2.62952E-09  2.62981E-09  2.63147E-09  2.63430E-09  2.63809E-09  2.64267E-09  2.64786E-09  2.65347E-09  2.65934E-09
   2.66532E-09  2.67125E-09  2.67697E-09  2.68233E-09  2.68720E-09  2.69143E-09  2.69487E-09  2.69739E-09  2.69886E-09  2.69914E-09
   2.69810E-09  2.69561E-09  2.69154E-09  2.68576E-09  2.67816E-09  2.66860E-09  2.65696E-09  2.64313E-09  2.62700E-09  2.60844E-09
   2.58734E-09  2.56362E-09  2.53719E-09  2.50799E-09  2.47593E-09  2.44095E-09  2.40299E-09  2.36202E-09  2.31799E-09  2.27088E-09
   2.22073E-09  2.16753E-09  2.11138E-09  2.05240E-09  1.99078E-09  1.92679E-09  1.86088E-09  1.79366E-09  1.72608E-09  1.65955E-09
   1.59630E-09  1.53992E-09  1.49667E-09  1.47824E-09  1.50966E-09  1.65703E-09  2.17567E-09  3.91148E-09  6.49798E-09  9.18456E-09
   1.22654E-08  1.57780E-08  1.88792E-08  2.03829E-08  1.98617E-08  1.79152E-08  1.49813E-08  1.05102E-08  4.71487E-09  1.00755E-09
  -1.75968E-10 -7.83128E-10 -1.19028E-09 -1.50493E-09 -1.76868E-09 -2.00076E-09 -2.21111E-09 -2.40526E-09 -2.58643E-09 -2.75652E-09
  -2.91666E-09 -3.06749E-09 -3.20931E-09 -3.34221E-09 -3.46615E-09 -3.58098E-09 -3.68660E-09 -3.78327E-09 -3.87133E-09 -3.95106E-09
  -4.02272E-09 -4.08655E-09 -4.14279E-09 -4.19165E-09 -4.23334E-09 -4.26805E-09 -4.29599E-09 -4.31734E-09 -4.33228E-09 -4.34099E-09
  -4.34366E-09 -4.34045E-09 -4.33153E-09 -4.31709E-09 -4.29729E-09 -4.27229E-09 -4.24227E-09 -4.20739E-09 -4.16781E-09 -4.12371E-09
  -4.07523E-09 -4.02255E-09 -3.96583E-09 -3.90523E-09 -3.84094E-09 -3.77319E-09 -3.70221E-09 -3.62824E-09 -3.55152E-09 -3.47229E-09
  -3.39077E-09 -3.30721E-09 -3.22185E-09 -3.13491E-09 -3.04662E-09 -2.95725E-09 -2.86700E-09 -2.77612E-09 -2.68483E-09 -2.59339E-09
  -2.50202E-09 -2.41095E-09 -2.32043E-09 -2.23069E-09 -2.14194E-09 -2.05443E-09 -1.96840E-09 -1.88408E-09 -1.80170E-09 -1.72151E-09
  -1.64371E-09 -1.56857E-09 -1.49618E-09 -1.42651E-09 -1.35952E-09 -1.29517E-09 -1.23340E-09 -1.17418E-09 -1.11744E-09 -1.06316E-09
  -1.01129E-09 -9.61763E-10 -9.14558E-10 -8.69615E-10 -8.26898E-10 -7.86357E-10 -7.47930E-10 -7.11605E-10 -6.77318E-10 -6.45017E-10
  -6.14658E-10 -5.86209E-10 -5.59605E-10 -5.34810E-10 -5.11789E-10 -4.90467E-10 -4.70831E-10 -4.52815E-10 -4.36384E-10 -4.21479E-10
  -4.08062E-10 -3.96085E-10 -3.85497E-10 -3.76248E-10 -3.68298E-10 -3.61589E-10 -3.56080E-10 -3.51717E-10 -3.48454E-10 -3.46246E-10
  -3.45040E-10 -3.44790E-10 -3.45448E-10 -3.46964E-10 -3.49293E-10 -3.52383E-10 -3.56189E-10 -3.60660E-10 -3.65754E-10 -3.71411E-10
  -3.77597E-10 -3.84253E-10 -3.91333E-10 -3.98798E-10 -4.06589E-10 -4.14662E-10 -4.22971E-10 -4.31463E-10 -4.40122E-10 -4.48934E-10
  -4.57889E-10 -4.66977E-10 -4.76188E-10 -4.85509E-10 -4.94933E-10 -5.04448E-10 -5.14044E-10 -5.23710E-10 -5.33437E-10 -5.43213E-10
  -5.53031E-10 -5.62875E-10 -5.72739E-10 -5.82613E-10 -5.92483E-10 -6.02342E-10 -6.12179E-10 -6.21982E-10 -6.31742E-10 -6.41451E-10
  -6.51093E-10 -6.60663E-10 -6.70147E-10 -6.79539E-10 -6.88826E-10 -6.97997E-10 -7.07057E-10 -7.16009E-10 -7.24857E-10 -7.33607E-10
  -7.42263E-10 -7.50830E-10 -7.59312E-10 -7.67714E-10 -7.76043E-10 -7.84299E-10 -7.92493E-10 -8.00624E-10 -8.08700E-10 -8.16724E-10
  -8.24700E-10 -8.32635E-10 -8.40532E-10 -8.48397E-10 -8.56233E-10 -8.64047E-10 -8.71841E-10 -8.79620E-10 -8.87390E-10 -8.95156E-10
  -9.02923E-10 -9.10695E-10 -9.18473E-10
 NY background values follow
     8.198E-10    8.296E-10    8.396E-10    8.496E-10    8.596E-10    8.698E-10    8.799E-10    8.901E-10    9.003E-10    9.105E-10
     9.207E-10    9.309E-10    9.410E-10    9.511E-10    9.612E-10    9.712E-10    9.811E-10    9.909E-10    1.001E-09    1.010E-09
     1.020E-09    1.029E-09    1.038E-09    1.047E-09    1.056E-09    1.065E-09    1.074E-09    1.082E-09    1.090E-09    1.098E-09
     1.106E-09    1.113E-09    1.121E-09    1.128E-09    1.135E-09    1.141E-09    1.148E-09    1.154E-09    1.161E-09    1.167E-09
     1.173E-09    1.178E-09    1.184E-09    1.190E-09    1.195E-09    1.200E-09    1.205E-09    1.211E-09    1.216E-09    1.220E-09
     1.225E-09    1.230E-09    1.235E-09    1.239E-09    1.244E-09    1.248E-09    1.253E-09    1.257E-09    1.261E-09    1.266E-09
     1.270E-09    1.274E-09    1.278E-09    1.283E-09    1.287E-09    1.291E-09    1.295E-09    1.299E-09    1.304E-09    1.308E-09
     1.312E-09    1.317E-09    1.321E-09    1.325E-09    1.330E-09    1.334E-09    1.339E-09    1.344E-09    1.348E-09    1.353E-09
     1.358E-09    1.363E-09    1.368E-09    1.373E-09    1.378E-09    1.383E-09    1.389E-09    1.394E-09    1.400E-09    1.406E-09
     1.412E-09    1.419E-09    1.425E-09    1.432E-09    1.439E-09    1.446E-09    1.454E-09    1.462E-09    1.470E-09    1.478E-09
     1.487E-09    1.496E-09    1.506E-09    1.516E-09    1.526E-09    1.537E-09    1.549E-09    1.560E-09    1.573E-09    1.585E-09
     1.599E-09    1.612E-09    1.627E-09    1.641E-09    1.656E-09    1.672E-09    1.687E-09    1.703E-09    1.718E-09    1.733E-09
     1.748E-09    1.762E-09    1.775E-09    1.788E-09    1.800E-09    1.811E-09    1.821E-09    1.829E-09    1.837E-09    1.842E-09
     1.847E-09    1.849E-09    1.850E-09    1.848E-09    1.845E-09    1.839E-09    1.832E-09    1.821E-09    1.808E-09    1.793E-09
     1.774E-09    1.753E-09    1.728E-09    1.701E-09    1.670E-09    1.636E-09    1.599E-09    1.558E-09    1.513E-09    1.465E-09
     1.413E-09    1.357E-09    1.297E-09    1.233E-09    1.164E-09    1.092E-09    1.015E-09    9.330E-10    8.468E-10    7.559E-10
     6.602E-10    5.596E-10    4.540E-10    3.432E-10    2.273E-10    1.060E-10   -2.064E-11   -1.528E-10   -2.905E-10   -4.334E-10
    -5.809E-10   -7.326E-10   -8.880E-10   -1.047E-09   -1.208E-09   -1.371E-09   -1.536E-09   -1.703E-09   -1.870E-09   -2.037E-09
    -2.205E-09   -2.371E-09   -2.536E-09   -2.699E-09   -2.861E-09   -3.019E-09   -3.174E-09   -3.326E-09   -3.473E-09   -3.616E-09
    -3.753E-09   -3.885E-09   -4.011E-09   -4.130E-09   -4.241E-09   -4.346E-09   -4.442E-09   -4.530E-09   -4.610E-09   -4.683E-09
    -4.749E-09   -4.807E-09   -4.858E-09   -4.902E-09   -4.939E-09   -4.970E-09   -4.994E-09   -5.011E-09   -5.023E-09   -5.028E-09
    -5.028E-09   -5.022E-09   -5.010E-09   -4.993E-09   -4.971E-09   -4.943E-09   -4.911E-09   -4.874E-09   -4.832E-09   -4.786E-09
    -4.735E-09   -4.681E-09   -4.622E-09   -4.560E-09   -4.494E-09   -4.424E-09   -4.352E-09   -4.276E-09   -4.198E-09   -4.117E-09
    -4.034E-09   -3.949E-09   -3.862E-09   -3.774E-09   -3.684E-09   -3.594E-09   -3.502E-09   -3.410E-09   -3.317E-09   -3.225E-09
    -3.132E-09   -3.040E-09   -2.948E-09   -2.857E-09   -2.768E-09   -2.679E-09   -2.592E-09   -2.506E-09   -2.423E-09   -2.342E-09
    -2.263E-09   -2.187E-09   -2.114E-09   -2.043E-09   -1.975E-09   -1.910E-09   -1.847E-09   -1.787E-09   -1.729E-09   -1.674E-09
    -1.621E-09   -1.571E-09   -1.523E-09   -1.477E-09   -1.434E-09   -1.392E-09   -1.353E-09   -1.316E-09   -1.281E-09   -1.248E-09
    -1.217E-09   -1.188E-09   -1.160E-09   -1.135E-09   -1.111E-09   -1.089E-09   -1.069E-09   -1.050E-09   -1.033E-09   -1.017E-09
    -1.003E-09   -9.904E-10   -9.792E-10   -9.693E-10   -9.607E-10   -9.533E-10   -9.472E-10   -9.422E-10   -9.383E-10   -9.354E-10
    -9.336E-10   -9.327E-10   -9.328E-10   -9.337E-10   -9.354E-10   -9.379E-10   -9.411E-10   -9.450E-10   -9.495E-10   -9.546E-10
    -9.602E-10   -9.663E-10   -9.728E-10   -9.798E-10   -9.870E-10   -9.945E-10   -1.002E-09   -1.010E-09   -1.018E-09   -1.027E-09
    -1.035E-09   -1.044E-09   -1.052E-09   -1.061E-09   -1.070E-09   -1.079E-09   -1.088E-09   -1.097E-09   -1.107E-09   -1.116E-09
    -1.125E-09   -1.134E-09   -1.144E-09   -1.153E-09   -1.163E-09   -1.172E-09   -1.181E-09   -1.191E-09   -1.200E-09   -1.209E-09
    -1.218E-09   -1.227E-09   -1.237E-09   -1.245E-09   -1.254E-09   -1.263E-09   -1.272E-09   -1.280E-09   -1.288E-09   -1.297E-09
    -1.305E-09   -1.313E-09   -1.321E-09   -1.329E-09   -1.337E-09   -1.345E-09   -1.353E-09   -1.360E-09   -1.368E-09   -1.376E-09
    -1.383E-09   -1.391E-09   -1.398E-09   -1.406E-09   -1.413E-09   -1.420E-09   -1.428E-09   -1.435E-09   -1.442E-09   -1.450E-09
    -1.457E-09   -1.464E-09   -1.472E-09
 Cr       Conc. = 4.37E-10
   2.62323E-09  2.35600E-09  1.87980E-09  1.33466E-09  1.16839E-09  1.10011E-09  1.06509E-09  1.04548E-09  1.03434E-09  1.02838E-09
   1.02584E-09  1.02565E-09  1.02715E-09  1.02988E-09  1.03355E-09  1.03793E-09  1.04284E-09  1.04818E-09  1.05383E-09  1.05975E-09
   1.06589E-09  1.07222E-09  1.07877E-09  1.08559E-09  1.09282E-09  1.10072E-09  1.10982E-09  1.12118E-09  1.13728E-09  1.16489E-09
   1.23000E-09  1.48539E-09  1.86457E-09  2.26292E-09  2.73039E-09  3.28289E-09  3.80286E-09  4.10897E-09  4.12597E-09  3.93944E-09
   3.61558E-09  3.05280E-09  2.23034E-09  1.72187E-09  1.56041E-09  1.48496E-09  1.44211E-09  1.41515E-09  1.39716E-09  1.38473E-09
   1.37599E-09  1.36982E-09  1.36550E-09  1.36257E-09  1.36071E-09  1.35966E-09  1.35928E-09  1.35943E-09  1.36001E-09  1.36097E-09
   1.36223E-09  1.36376E-09  1.36552E-09  1.36748E-09  1.36962E-09  1.37192E-09  1.37437E-09  1.37696E-09  1.37968E-09  1.38252E-09
   1.38547E-09  1.38854E-09  1.39173E-09  1.39502E-09  1.39842E-09  1.40193E-09  1.40555E-09  1.40927E-09  1.41311E-09  1.41707E-09
   1.42114E-09  1.42533E-09  1.42964E-09  1.43407E-09  1.43863E-09  1.44333E-09  1.44818E-09  1.45319E-09  1.45839E-09  1.46377E-09
   1.46937E-09  1.47518E-09  1.48124E-09  1.48755E-09  1.49413E-09  1.50098E-09  1.50814E-09  1.51561E-09  1.52341E-09  1.53156E-09
   1.54007E-09  1.54895E-09  1.55822E-09  1.56789E-09  1.57799E-09  1.58853E-09  1.59952E-09  1.61097E-09  1.62291E-09  1.63535E-09
   1.64831E-09  1.66179E-09  1.67582E-09  1.69032E-09  1.70518E-09  1.72027E-09  1.73548E-09  1.75068E-09  1.76575E-09  1.78057E-09
   1.79501E-09  1.80896E-09  1.82230E-09  1.83489E-09  1.84663E-09  1.85738E-09  1.86704E-09  1.87546E-09  1.88255E-09  1.88816E-09
   1.89219E-09  1.89450E-09  1.89499E-09  1.89352E-09  1.88997E-09  1.88423E-09  1.87617E-09  1.86567E-09  1.85262E-09  1.83688E-09
   1.81833E-09  1.79689E-09  1.77244E-09  1.74488E-09  1.71413E-09  1.68007E-09  1.64262E-09  1.60167E-09  1.55714E-09  1.50891E-09
   1.45691E-09  1.40103E-09  1.34118E-09  1.27729E-09  1.20925E-09  1.13700E-09  1.06046E-09  9.79569E-10  8.94292E-10  8.04610E-10
   7.10563E-10  6.12282E-10  5.10089E-10  4.04701E-10  2.97993E-10  1.95972E-10  1.28592E-10  1.24132E-10  1.18220E-10  1.18439E-10
   1.41974E-10  1.63991E-10  1.25161E-10 -1.64174E-11 -2.44246E-10 -5.20118E-10 -8.55442E-10 -1.28124E-09 -1.69000E-09 -1.92142E-09
  -2.11434E-09 -2.29437E-09 -2.46787E-09 -2.63688E-09 -2.80204E-09 -2.96347E-09 -3.12100E-09 -3.27436E-09 -3.42316E-09 -3.56703E-09
  -3.70551E-09 -3.83818E-09 -3.96456E-09 -4.08418E-09 -4.19657E-09 -4.30126E-09 -4.39789E-09 -4.48655E-09 -4.56741E-09 -4.64062E-09
  -4.70635E-09 -4.76476E-09 -4.81601E-09 -4.86026E-09 -4.89768E-09 -4.92842E-09 -4.95264E-09 -4.97050E-09 -4.98216E-09 -4.98778E-09
  -4.98752E-09 -4.98153E-09 -4.96998E-09 -4.95302E-09 -4.93081E-09 -4.90352E-09 -4.87130E-09 -4.83430E-09 -4.79269E-09 -4.74663E-09
  -4.69626E-09 -4.64176E-09 -4.58328E-09 -4.52097E-09 -4.45502E-09 -4.38567E-09 -4.31313E-09 -4.23765E-09 -4.15945E-09 -4.07878E-09
  -3.99587E-09 -3.91094E-09 -3.82425E-09 -3.73601E-09 -3.64645E-09 -3.55583E-09 -3.46437E-09 -3.37230E-09 -3.27984E-09 -3.18726E-09
  -3.09478E-09 -3.00261E-09 -2.91100E-09 -2.82020E-09 -2.73041E-09 -2.64189E-09 -2.55486E-09 -2.46955E-09 -2.38620E-09 -2.30505E-09
  -2.22631E-09 -2.15025E-09 -2.07695E-09 -2.00639E-09 -1.93851E-09 -1.87329E-09 -1.81066E-09 -1.75059E-09 -1.69302E-09 -1.63792E-09
  -1.58523E-09 -1.53490E-09 -1.48691E-09 -1.44118E-09 -1.39770E-09 -1.35639E-09 -1.31721E-09 -1.28014E-09 -1.24512E-09 -1.21210E-09
  -1.18102E-09 -1.15186E-09 -1.12456E-09 -1.09907E-09 -1.07536E-09 -1.05336E-09 -1.03305E-09 -1.01437E-09 -9.97285E-10 -9.81730E-10
  -9.67669E-10 -9.55056E-10 -9.43837E-10 -9.33964E-10 -9.25394E-10 -9.18073E-10 -9.11957E-10 -9.06993E-10 -9.03134E-10 -9.00336E-10
  -8.98545E-10 -8.97716E-10 -8.97798E-10 -8.98745E-10 -9.00509E-10 -9.03039E-10 -9.06289E-10 -9.10209E-10 -9.14757E-10 -9.19872E-10
  -9.25520E-10 -9.31643E-10 -9.38195E-10 -9.45135E-10 -9.52405E-10 -9.59961E-10 -9.67756E-10 -9.75739E-10 -9.83892E-10 -9.92202E-10
  -1.00066E-09 -1.00925E-09 -1.01797E-09 -1.02680E-09 -1.03574E-09 -1.04478E-09 -1.05389E-09 -1.06308E-09 -1.07234E-09 -1.08165E-09
  -1.09100E-09 -1.10038E-09 -1.10978E-09 -1.11919E-09 -1.12861E-09 -1.13802E-09 -1.14740E-09 -1.15676E-09 -1.16607E-09 -1.17534E-09
  -1.18454E-09 -1.19367E-09 -1.20272E-09 -1.21168E-09 -1.22053E-09 -1.22927E-09 -1.23791E-09 -1.24643E-09 -1.25486E-09 -1.26319E-09
  -1.27142E-09 -1.27957E-09 -1.28764E-09 -1.29562E-09 -1.30354E-09 -1.31138E-09 -1.31917E-09 -1.32689E-09 -1.33456E-09 -1.34218E-09
  -1.34975E-09 -1.35728E-09 -1.36478E-09 -1.37224E-09 -1.37968E-09 -1.38709E-09 -1.39449E-09 -1.40187E-09 -1.40925E-09 -1.41662E-09
  -1.42399E-09 -1.43137E-09 -1.43876E-09
 Gln      Conc. = 1.93E-09
   1.74230E-09  2.09869E-09  2.50292E-09  2.93191E-09  3.33741E-09  3.66965E-09  3.85076E-09  3.82793E-09  3.64576E-09  3.43053E-09
   3.02426E-09  2.48281E-09  2.21423E-09  1.87605E-09  1.65916E-09  1.54635E-09  1.47858E-09  1.43419E-09  1.40366E-09  1.38214E-09
   1.36684E-09  1.35606E-09  1.34863E-09  1.34383E-09  1.34136E-09  1.34094E-09  1.34171E-09  1.34354E-09  1.34648E-09  1.35001E-09
   1.35409E-09  1.35868E-09  1.36376E-09  1.36933E-09  1.37537E-09  1.38191E-09  1.38896E-09  1.39658E-09  1.40480E-09  1.41372E-09
   1.42348E-09  1.43418E-09  1.44613E-09  1.45958E-09  1.47481E-09  1.49234E-09  1.51276E-09  1.53648E-09  1.56500E-09  1.60036E-09
   1.64383E-09  1.69994E-09  1.77704E-09  1.89042E-09  2.07968E-09  2.40496E-09  2.75643E-09  3.17895E-09  3.82031E-09  4.49965E-09
   5.05299E-09  5.53778E-09  5.91545E-09  6.10007E-09  5.96655E-09  5.47858E-09  4.86745E-09  4.41996E-09  3.76655E-09  2.99208E-09
   2.63081E-09  2.52297E-09  2.46146E-09  2.57032E-09  2.82717E-09  3.27817E-09  3.76833E-09  4.25307E-09  4.70871E-09  5.08127E-09
   5.35761E-09  5.47036E-09  5.26559E-09  4.95655E-09  4.69022E-09  4.19634E-09  3.61635E-09  3.29210E-09  2.94233E-09  2.62995E-09
   2.43873E-09  2.30953E-09  2.21718E-09  2.14868E-09  2.09483E-09  2.05209E-09  2.01851E-09  1.99171E-09  1.97022E-09  1.95330E-09
   1.93999E-09  1.92950E-09  1.92152E-09  1.91580E-09  1.91215E-09  1.91044E-09  1.91032E-09  1.91165E-09  1.91434E-09  1.91830E-09
   1.92346E-09  1.92975E-09  1.93712E-09  1.94546E-09  1.95459E-09  1.96435E-09  1.97458E-09  1.98513E-09  1.99583E-09  2.00656E-09
   2.01716E-09  2.02749E-09  2.03741E-09  2.04678E-09  2.05548E-09  2.06336E-09  2.07029E-09  2.07614E-09  2.08079E-09  2.08409E-09
   2.08592E-09  2.08615E-09  2.08466E-09  2.08131E-09  2.07599E-09  2.06856E-09  2.05891E-09  2.04690E-09  2.03242E-09  2.01534E-09
   1.99554E-09  1.97292E-09  1.94737E-09  1.91881E-09  1.88714E-09  1.85225E-09  1.81407E-09  1.77249E-09  1.72744E-09  1.67881E-09
   1.62655E-09  1.57056E-09  1.51079E-09  1.44717E-09  1.37967E-09  1.30825E-09  1.23293E-09  1.15372E-09  1.07074E-09  9.84168E-10
   8.94335E-10  8.01820E-10  7.07672E-10  6.13829E-10  5.24361E-10  4.49139E-10  4.20043E-10  5.97473E-10  1.02113E-09  1.45583E-09
   1.94840E-09  2.55025E-09  3.12606E-09  3.41645E-09  3.27115E-09  2.78566E-09  2.10165E-09  1.13710E-09 -1.94869E-10 -1.29588E-09
  -1.71576E-09 -1.98728E-09 -2.20884E-09 -2.40704E-09 -2.59161E-09 -2.76678E-09 -2.93449E-09 -3.09567E-09 -3.25065E-09 -3.39951E-09
  -3.54212E-09 -3.67824E-09 -3.80757E-09 -3.92972E-09 -4.04433E-09 -4.15097E-09 -4.24934E-09 -4.33955E-09 -4.42181E-09 -4.49630E-09
  -4.56320E-09 -4.62268E-09 -4.67492E-09 -4.72009E-09 -4.75837E-09 -4.78991E-09 -4.81488E-09 -4.83345E-09 -4.84578E-09 -4.85204E-09
  -4.85238E-09 -4.84697E-09 -4.83597E-09 -4.81954E-09 -4.79784E-09 -4.77103E-09 -4.73927E-09 -4.70272E-09 -4.66155E-09 -4.61590E-09
  -4.56594E-09 -4.51183E-09 -4.45372E-09 -4.39178E-09 -4.32620E-09 -4.25719E-09 -4.18499E-09 -4.10983E-09 -4.03196E-09 -3.95160E-09
