 LCModel (Version 6.3-1R) Copyright: S.W. Provencher.          Ref.: Magn. Reson. Med. 30:672-679 (1993).                
 onepulse 23x27_ftSpec_smooth_lcm
 26 lines in following concentration table = NCONC+1
    Conc.  %SD /Cr+PCr  Metabolite                                         
    0.000 999%   0.000 Ala                                                 
    0.000 999%   0.000 Asp                                                 
    0.000 999%   0.000 Cr                                                  
    0.000 999%   0.000 GABA                                                
    0.000 999%   0.000 Glc                                                 
 1.81E-09  54%   3.807 Gln                                                 
 1.58E-10 553%   0.332 Glu                                                 
    0.000 999%   0.000 Glyc                                                
 1.15E-10 101%   0.243 GPC                                                 
    0.000 999%   0.000 GSH                                                 
 1.53E-09  24%   3.217 Ins                                                 
    0.000 999%   0.000 Lac                                                 
 7.19E-11 555%   0.151 NAAG                                                
 8.23E-10  63%   1.732 NAA                                                 
    0.000 999%   0.000 PCh                                                 
 4.75E-10  62%   1.000 PCr                                                 
    0.000 999%   0.000 PE                                                  
    0.000 999%   0.000 Scyllo                                              
 4.25E-09  22%   8.949 Ser                                                 
 1.16E-09  37%   2.442 Tau                                                 
 1.15E-10 101%   0.243 GPC+PCh                                             
 8.95E-10  35%   1.883 NAA+NAAG                                            
 1.53E-09  24%   3.217 Ins+Glyc                                            
 4.75E-10  62%   1.000 Cr+PCr                                              
 1.97E-09  34%   4.139 Glu+Gln                                             
   6 lines in following misc. output table
  FWHM = 0.089 ppm    S/N =   3                                            
  Data shift = 0.347 ppm                                                   
  Ph: -30 deg     -19.7 deg/ppm                                            
  alphaB,S = 1.8E-01,   6.1E+00                                            
   16 spline knots.   Ns = 5(1)                                            
  (11) 4 infls.   (11) 1 extrs.                                            
  363 points on ppm-axis = NY
      4.250000     4.238821     4.227641     4.216462     4.205282     4.194103     4.182923     4.171744     4.160564     4.149385
      4.138206     4.127026     4.115847     4.104667     4.093488     4.082308     4.071129     4.059949     4.048770     4.037591
      4.026411     4.015232     4.004052     3.992873     3.981693     3.970514     3.959334     3.948155     3.936975     3.925796
      3.914617     3.903437     3.892258     3.881078     3.869899     3.858719     3.847540     3.836360     3.825181     3.814002
      3.802822     3.791643     3.780463     3.769284     3.758104     3.746925     3.735745     3.724566     3.713387     3.702207
      3.691028     3.679848     3.668669     3.657489     3.646310     3.635130     3.623951     3.612772     3.601592     3.590413
      3.579233     3.568054     3.556874     3.545695     3.534515     3.523336     3.512156     3.500977     3.489798     3.478618
      3.467439     3.456259     3.445080     3.433900     3.422721     3.411541     3.400362     3.389183     3.378003     3.366824
      3.355644     3.344465     3.333285     3.322106     3.310926     3.299747     3.288568     3.277388     3.266209     3.255029
      3.243850     3.232670     3.221491     3.210311     3.199132     3.187953     3.176773     3.165594     3.154414     3.143235
      3.132055     3.120876     3.109696     3.098517     3.087337     3.076158     3.064979     3.053799     3.042620     3.031440
      3.020261     3.009081     2.997902     2.986722     2.975543     2.964364     2.953184     2.942005     2.930825     2.919646
      2.908466     2.897287     2.886107     2.874928     2.863749     2.852569     2.841390     2.830210     2.819031     2.807851
      2.796672     2.785492     2.774313     2.763134     2.751954     2.740775     2.729595     2.718416     2.707236     2.696057
      2.684877     2.673698     2.662519     2.651339     2.640160     2.628980     2.617801     2.606621     2.595442     2.584262
      2.573083     2.561903     2.550724     2.539545     2.528365     2.517186     2.506006     2.494827     2.483647     2.472468
      2.461288     2.450109     2.438930     2.427750     2.416571     2.405391     2.394212     2.383032     2.371853     2.360673
      2.349494     2.338315     2.327135     2.315956     2.304776     2.293597     2.282417     2.271238     2.260058     2.248879
      2.237700     2.226520     2.215341     2.204161     2.192982     2.181802     2.170623     2.159443     2.148264     2.137084
      2.125905     2.114726     2.103546     2.092367     2.081187     2.070008     2.058828     2.047649     2.036469     2.025290
      2.014111     2.002931     1.991752     1.980572     1.969393     1.958213     1.947034     1.935854     1.924675     1.913496
      1.902316     1.891137     1.879957     1.868778     1.857598     1.846419     1.835239     1.824060     1.812881     1.801701
      1.790522     1.779342     1.768163     1.756983     1.745804     1.734624     1.723445     1.712265     1.701086     1.689907
      1.678727     1.667548     1.656368     1.645189     1.634009     1.622830     1.611650     1.600471     1.589292     1.578112
      1.566933     1.555753     1.544574     1.533394     1.522215     1.511035     1.499856     1.488677     1.477497     1.466318
      1.455138     1.443959     1.432779     1.421600     1.410420     1.399241     1.388062     1.376882     1.365703     1.354523
      1.343344     1.332164     1.320985     1.309805     1.298626     1.287446     1.276267     1.265088     1.253908     1.242729
      1.231549     1.220370     1.209190     1.198011     1.186831     1.175652     1.164473     1.153293     1.142114     1.130934
      1.119755     1.108575     1.097396     1.086216     1.075037     1.063858     1.052678     1.041499     1.030319     1.019140
      1.007960     0.996781     0.985601     0.974422     0.963243     0.952063     0.940884     0.929704     0.918525     0.907345
      0.896166     0.884986     0.873807     0.862628     0.851448     0.840269     0.829089     0.817910     0.806730     0.795551
      0.784371     0.773192     0.762012     0.750833     0.739654     0.728474     0.717295     0.706115     0.694936     0.683756
      0.672577     0.661397     0.650218     0.639039     0.627859     0.616680     0.605500     0.594321     0.583141     0.571962
      0.560782     0.549603     0.538424     0.527244     0.516065     0.504885     0.493706     0.482526     0.471347     0.460167
      0.448988     0.437809     0.426629     0.415450     0.404270     0.393091     0.381911     0.370732     0.359552     0.348373
      0.337193     0.326014     0.314835     0.303655     0.292476     0.281296     0.270117     0.258937     0.247758     0.236578
      0.225399     0.214220     0.203040
 NY phased data points follow
   1.14348E-08  1.40142E-08  1.52221E-08  1.42182E-08  1.33443E-08  1.21789E-08  1.13877E-08  1.12678E-08  1.10234E-08  1.03249E-08
   1.02685E-08  1.05477E-08  1.10208E-08  1.14919E-08  1.22735E-08  1.26135E-08  1.30223E-08  1.23044E-08  1.28427E-08  1.23418E-08
   1.26438E-08  1.20009E-08  1.11971E-08  1.12408E-08  1.07778E-08  1.19897E-08  1.25622E-08  1.24464E-08  1.18123E-08  1.09068E-08
   1.07962E-08  1.14894E-08  1.35228E-08  1.46005E-08  1.55962E-08  1.46446E-08  1.36313E-08  1.25489E-08  1.18780E-08  1.16090E-08
   1.08137E-08  1.06436E-08  1.00049E-08  1.00715E-08  9.81059E-09  1.00282E-08  9.47792E-09  8.04610E-09  8.08181E-09  7.57684E-09
   7.47306E-09  7.72012E-09  8.02275E-09  8.20089E-09  7.95343E-09  6.81735E-09  6.28409E-09  6.07809E-09  6.53029E-09  6.35240E-09
   6.95753E-09  6.68046E-09  7.96869E-09  1.00655E-08  1.29016E-08  1.31204E-08  1.26270E-08  1.16110E-08  1.06611E-08  8.72307E-09
   9.08720E-09  8.11758E-09  7.18069E-09  6.42661E-09  6.53388E-09  5.85498E-09  5.57099E-09  4.76201E-09  5.88766E-09  9.55368E-09
   1.36584E-08  1.70170E-08  1.77244E-08  1.57626E-08  1.45672E-08  1.40183E-08  1.28722E-08  1.26093E-08  1.17236E-08  1.13901E-08
   1.12050E-08  1.09692E-08  1.01842E-08  9.97243E-09  9.22251E-09  8.95363E-09  8.06603E-09  7.49688E-09  7.59767E-09  7.01433E-09
   7.11978E-09  6.62711E-09  7.45366E-09  7.28979E-09  7.02249E-09  6.96439E-09  6.89719E-09  6.89833E-09  6.71172E-09  5.25824E-09
   5.37059E-09  4.54200E-09  3.83200E-09  4.47715E-09  4.86187E-09  5.12236E-09  5.09930E-09  4.75780E-09  5.45378E-09  5.50140E-09
   5.31364E-09  5.28723E-09  5.00320E-09  4.26755E-09  3.93973E-09  3.15970E-09  2.40272E-09  2.55994E-09  2.65446E-09  3.09254E-09
   3.41679E-09  2.70241E-09  2.80098E-09  2.82629E-09  3.05499E-09  3.43398E-09  2.83965E-09  2.03715E-09  2.55217E-09  3.05085E-09
   4.38293E-09  5.66176E-09  5.71082E-09  4.92653E-09  4.86354E-09  5.27969E-09  6.74211E-09  6.25220E-09  6.44027E-09  6.09520E-09
   6.26979E-09  6.01662E-09  6.29462E-09  5.65002E-09  5.31654E-09  5.50431E-09  5.69456E-09  5.81576E-09  5.10708E-09  6.09586E-09
   5.64383E-09  6.08615E-09  6.10435E-09  6.45813E-09  6.30603E-09  6.50430E-09  6.82643E-09  7.97315E-09  7.83221E-09  9.30497E-09
   1.27319E-08  1.84043E-08  2.16590E-08  2.04424E-08  1.73024E-08  1.50234E-08  1.30162E-08  1.17470E-08  1.09695E-08  9.06446E-09
   8.08861E-09  7.36307E-09  6.34666E-09  5.12408E-09  3.99169E-09  2.87348E-09  1.96025E-09  4.86791E-11 -1.60107E-09 -2.59009E-09
  -3.93328E-09 -5.85619E-09 -7.62105E-09 -9.40203E-09 -1.13477E-08 -1.33316E-08 -1.48399E-08 -1.64267E-08 -1.79980E-08 -1.87486E-08
  -1.93667E-08 -1.94530E-08 -1.94268E-08 -1.88172E-08 -1.78641E-08 -1.62784E-08 -1.45917E-08 -1.27034E-08 -1.05855E-08 -8.53736E-09
  -6.78183E-09 -5.16708E-09 -3.86491E-09 -2.18957E-09 -1.19611E-09 -4.24754E-10 -2.66483E-10 -1.44503E-10 -4.91233E-10 -6.04914E-10
  -1.33860E-09 -8.58202E-10 -1.57420E-09 -1.21579E-09 -1.50602E-09 -8.35777E-10 -1.24335E-09 -8.74160E-10 -1.04195E-09 -8.35588E-10
  -9.49459E-10 -1.21381E-09 -7.83057E-10 -1.14556E-09 -1.71504E-09 -1.00980E-09 -9.90646E-10 -1.12890E-09 -1.25951E-09 -3.49526E-10
  -5.60827E-10 -2.52506E-10 -6.37603E-10 -1.15781E-09 -9.74520E-10 -7.85941E-10 -1.04787E-09 -9.46343E-10 -6.69592E-10 -1.04946E-09
  -5.69136E-10 -9.64689E-11 -3.40962E-10 -2.03261E-10  1.60298E-10  1.45144E-10  1.04861E-10 -2.83575E-10 -2.04576E-10 -8.81651E-10
  -1.23833E-09 -1.04775E-09 -7.30795E-10 -1.50141E-09 -1.42613E-09 -1.41049E-09 -8.51394E-10 -7.20652E-10 -3.59599E-10  1.13362E-10
   2.10112E-10  7.38559E-10  4.69053E-10  1.00858E-09  1.01123E-09  1.06204E-09  2.96976E-10  1.41547E-10  3.67298E-10 -3.79129E-10
  -1.16291E-10 -2.06073E-10 -4.14259E-10 -5.05104E-10 -1.12708E-09 -5.75252E-10 -8.33179E-10 -8.47281E-10 -8.68336E-10 -5.57847E-10
  -5.57045E-10 -7.31723E-10 -1.06839E-09 -4.52564E-10 -2.38163E-10 -5.41590E-10 -5.36786E-10 -3.65349E-10 -4.25473E-10 -4.81239E-10
  -4.03602E-10 -3.79890E-10 -1.86478E-10 -3.04252E-10 -8.57412E-11 -7.18847E-10  1.59790E-10 -4.03872E-10 -3.17952E-10 -4.14580E-10
  -2.47062E-10  1.73656E-11 -3.05568E-10 -4.62216E-10 -2.59505E-10  2.68245E-10 -2.23131E-11  3.51864E-10 -2.05797E-10 -2.03271E-10
   3.13354E-10  1.74084E-10  3.18325E-10 -2.40245E-10  5.38378E-10  1.38216E-10  1.13047E-10  1.58846E-10  8.08005E-11  2.21920E-10
  -1.71174E-11  2.99650E-10  2.26047E-10  3.97714E-10  2.62388E-10  3.37796E-10  2.37899E-10  3.86115E-10 -4.45958E-11  2.33785E-10
   8.22051E-10  2.25496E-10  4.72228E-10  5.09961E-10  3.45462E-10  7.14179E-10  4.06855E-10  4.50624E-10  5.99452E-10  6.45702E-10
   2.81581E-10  7.17526E-10  8.99620E-10  2.39170E-10  1.04151E-09  3.81306E-10  8.33392E-10  7.60733E-10  6.60437E-10  7.71423E-10
   8.18923E-10  4.48993E-10  7.43627E-10
 NY points of the fit to the data follow
   1.09862E-08  1.36043E-08  1.58107E-08  1.36954E-08  1.23080E-08  1.24895E-08  1.23607E-08  1.17248E-08  1.12285E-08  1.09525E-08
   1.06661E-08  1.01387E-08  1.05041E-08  1.13782E-08  1.21406E-08  1.29420E-08  1.21072E-08  1.20667E-08  1.34524E-08  1.32760E-08
   1.21701E-08  1.15412E-08  1.11266E-08  1.06272E-08  1.07269E-08  1.08097E-08  1.11751E-08  1.18621E-08  1.23128E-08  1.26190E-08
   1.29785E-08  1.33930E-08  1.35181E-08  1.31170E-08  1.30633E-08  1.29243E-08  1.28248E-08  1.24356E-08  1.19211E-08  1.14189E-08
   1.09800E-08  1.12336E-08  1.09453E-08  9.80523E-09  9.13387E-09  8.72688E-09  8.40440E-09  8.16808E-09  7.97264E-09  7.77706E-09
   7.54487E-09  7.34074E-09  7.27127E-09  7.20874E-09  7.09880E-09  7.33618E-09  7.34158E-09  7.24877E-09  8.06569E-09  8.61530E-09
   8.86314E-09  9.47307E-09  1.02852E-08  1.05071E-08  1.05409E-08  1.08747E-08  1.05888E-08  9.96900E-09  1.03734E-08  9.42299E-09
   8.24203E-09  8.06030E-09  7.97785E-09  7.33472E-09  6.98128E-09  7.30527E-09  7.48262E-09  8.76740E-09  9.35531E-09  1.01887E-08
   1.16891E-08  1.37912E-08  1.53511E-08  1.52196E-08  1.48562E-08  1.48842E-08  1.41223E-08  1.48581E-08  1.28049E-08  1.09895E-08
   1.00388E-08  9.41619E-09  8.96524E-09  8.60826E-09  8.31350E-09  8.06267E-09  7.84235E-09  7.64957E-09  7.47960E-09  7.32005E-09
   7.17199E-09  7.03841E-09  6.91586E-09  6.79851E-09  6.68759E-09  6.58318E-09  6.48403E-09  6.38959E-09  6.29912E-09  6.21221E-09
   6.12851E-09  6.04767E-09  5.96940E-09  5.89345E-09  5.81951E-09  5.74728E-09  5.67655E-09  5.60705E-09  5.53857E-09  5.47092E-09
   5.40389E-09  5.33731E-09  5.27100E-09  5.20480E-09  5.13855E-09  5.07209E-09  5.00528E-09  4.93798E-09  4.87005E-09  4.80135E-09
   4.73175E-09  4.66113E-09  4.58938E-09  4.51634E-09  4.44195E-09  4.36605E-09  4.28855E-09  4.20936E-09  4.12836E-09  4.04546E-09
   3.96053E-09  3.87357E-09  3.78450E-09  3.69330E-09  3.59991E-09  3.50432E-09  3.40652E-09  3.30651E-09  3.20430E-09  3.09994E-09
   2.99352E-09  2.88511E-09  2.77490E-09  2.66309E-09  2.55001E-09  2.43608E-09  2.32194E-09  2.20847E-09  2.09700E-09  1.98952E-09
   1.88919E-09  1.80126E-09  1.73522E-09  1.70999E-09  1.77021E-09  2.05258E-09  3.20287E-09  6.78533E-09  8.59854E-09  9.74577E-09
   1.42494E-08  1.95383E-08  2.20087E-08  2.06432E-08  1.78375E-08  1.52897E-08  1.39614E-08  1.45926E-08  8.48500E-09  1.43577E-09
  -4.03971E-10 -1.19158E-09 -1.66859E-09 -2.01692E-09 -2.29940E-09 -2.54280E-09 -2.76012E-09 -2.95829E-09 -3.14119E-09 -3.31109E-09
  -3.46931E-09 -3.61659E-09 -3.75333E-09 -3.87965E-09 -3.99559E-09 -4.10101E-09 -4.19588E-09 -4.28055E-09 -4.35544E-09 -4.42091E-09
  -4.47733E-09 -4.52504E-09 -4.56435E-09 -4.59558E-09 -4.61903E-09 -4.63501E-09 -4.64379E-09 -4.64568E-09 -4.64095E-09 -4.62988E-09
  -4.61276E-09 -4.58985E-09 -4.56143E-09 -4.52778E-09 -4.48916E-09 -4.44584E-09 -4.39809E-09 -4.34616E-09 -4.29033E-09 -4.23086E-09
  -4.16800E-09 -4.10201E-09 -4.03314E-09 -3.96166E-09 -3.88780E-09 -3.81175E-09 -3.73370E-09 -3.65383E-09 -3.57233E-09 -3.48940E-09
  -3.40521E-09 -3.31994E-09 -3.23378E-09 -3.14689E-09 -3.05946E-09 -2.97166E-09 -2.88366E-09 -2.79564E-09 -2.70774E-09 -2.62016E-09
  -2.53305E-09 -2.44655E-09 -2.36084E-09 -2.27608E-09 -2.19240E-09 -2.10996E-09 -2.02891E-09 -1.94940E-09 -1.87155E-09 -1.79553E-09
  -1.72143E-09 -1.64944E-09 -1.57956E-09 -1.51177E-09 -1.44603E-09 -1.38228E-09 -1.32047E-09 -1.26055E-09 -1.20249E-09 -1.14621E-09
  -1.09170E-09 -1.03888E-09 -9.87723E-10 -9.38174E-10 -8.90192E-10 -8.43729E-10 -7.98729E-10 -7.55171E-10 -7.12997E-10 -6.72160E-10
  -6.32618E-10 -5.94337E-10 -5.57263E-10 -5.21360E-10 -4.86596E-10 -4.52911E-10 -4.20287E-10 -3.88672E-10 -3.58035E-10 -3.28331E-10
  -2.99534E-10 -2.71615E-10 -2.44547E-10 -2.18302E-10 -1.92857E-10 -1.68184E-10 -1.44261E-10 -1.21061E-10 -9.85610E-11 -7.67401E-11
  -5.55743E-11 -3.50423E-11 -1.51230E-11  4.20375E-12  2.29569E-11  4.11565E-11  5.88197E-11  7.59651E-11  9.26069E-11  1.08766E-10
   1.24452E-10  1.39683E-10  1.54472E-10  1.68830E-10  1.82771E-10  1.96307E-10  2.09446E-10  2.22199E-10  2.34561E-10  2.46519E-10
   2.58059E-10  2.69172E-10  2.79844E-10  2.90063E-10  2.99819E-10  3.09097E-10  3.17888E-10  3.26180E-10  3.33963E-10  3.41224E-10
   3.47952E-10  3.54138E-10  3.59770E-10  3.64840E-10  3.69334E-10  3.73245E-10  3.76562E-10  3.79275E-10  3.81374E-10  3.82852E-10
   3.83696E-10  3.83900E-10  3.83454E-10  3.82349E-10  3.80578E-10  3.78131E-10  3.75000E-10  3.71176E-10  3.66648E-10  3.61411E-10
   3.55455E-10  3.48771E-10  3.41352E-10  3.33191E-10  3.24281E-10  3.14615E-10  3.04188E-10  2.92992E-10  2.81021E-10  2.68273E-10
   2.54739E-10  2.40418E-10  2.25302E-10  2.09388E-10  1.92673E-10  1.75153E-10  1.56825E-10  1.37686E-10  1.17733E-10  9.69654E-11
   7.53799E-11  5.29759E-11  2.97521E-11
 NY background values follow
     3.181E-09    3.233E-09    3.283E-09    3.333E-09    3.382E-09    3.429E-09    3.476E-09    3.522E-09    3.567E-09    3.611E-09
     3.654E-09    3.696E-09    3.738E-09    3.778E-09    3.817E-09    3.855E-09    3.893E-09    3.929E-09    3.965E-09    3.999E-09
     4.033E-09    4.065E-09    4.097E-09    4.128E-09    4.158E-09    4.186E-09    4.214E-09    4.241E-09    4.267E-09    4.292E-09
     4.316E-09    4.339E-09    4.361E-09    4.383E-09    4.403E-09    4.423E-09    4.441E-09    4.459E-09    4.476E-09    4.492E-09
     4.507E-09    4.521E-09    4.535E-09    4.548E-09    4.560E-09    4.571E-09    4.581E-09    4.591E-09    4.600E-09    4.609E-09
     4.617E-09    4.624E-09    4.630E-09    4.636E-09    4.641E-09    4.646E-09    4.650E-09    4.654E-09    4.657E-09    4.660E-09
     4.662E-09    4.663E-09    4.665E-09    4.665E-09    4.665E-09    4.665E-09    4.664E-09    4.662E-09    4.660E-09    4.657E-09
     4.654E-09    4.651E-09    4.647E-09    4.642E-09    4.637E-09    4.631E-09    4.625E-09    4.618E-09    4.611E-09    4.603E-09
     4.595E-09    4.586E-09    4.577E-09    4.567E-09    4.556E-09    4.545E-09    4.534E-09    4.522E-09    4.509E-09    4.496E-09
     4.483E-09    4.469E-09    4.454E-09    4.439E-09    4.424E-09    4.408E-09    4.392E-09    4.375E-09    4.358E-09    4.340E-09
     4.322E-09    4.304E-09    4.285E-09    4.266E-09    4.247E-09    4.227E-09    4.207E-09    4.186E-09    4.166E-09    4.144E-09
     4.123E-09    4.101E-09    4.079E-09    4.057E-09    4.034E-09    4.011E-09    3.987E-09    3.963E-09    3.938E-09    3.912E-09
     3.885E-09    3.857E-09    3.828E-09    3.798E-09    3.767E-09    3.734E-09    3.700E-09    3.664E-09    3.627E-09    3.588E-09
     3.547E-09    3.504E-09    3.460E-09    3.413E-09    3.364E-09    3.313E-09    3.259E-09    3.204E-09    3.145E-09    3.084E-09
     3.020E-09    2.954E-09    2.884E-09    2.812E-09    2.736E-09    2.658E-09    2.577E-09    2.492E-09    2.404E-09    2.313E-09
     2.219E-09    2.121E-09    2.020E-09    1.916E-09    1.808E-09    1.696E-09    1.581E-09    1.462E-09    1.339E-09    1.213E-09
     1.083E-09    9.485E-10    8.105E-10    6.686E-10    5.228E-10    3.729E-10    2.189E-10    6.082E-11   -1.013E-10   -2.671E-10
    -4.361E-10   -6.078E-10   -7.817E-10   -9.573E-10   -1.134E-09   -1.311E-09   -1.489E-09   -1.666E-09   -1.843E-09   -2.018E-09
    -2.191E-09   -2.362E-09   -2.530E-09   -2.695E-09   -2.856E-09   -3.013E-09   -3.165E-09   -3.311E-09   -3.452E-09   -3.587E-09
    -3.715E-09   -3.836E-09   -3.949E-09   -4.054E-09   -4.150E-09   -4.238E-09   -4.316E-09   -4.385E-09   -4.445E-09   -4.496E-09
    -4.539E-09   -4.574E-09   -4.601E-09   -4.620E-09   -4.632E-09   -4.637E-09   -4.634E-09   -4.626E-09   -4.611E-09   -4.589E-09
    -4.562E-09   -4.530E-09   -4.492E-09   -4.449E-09   -4.401E-09   -4.349E-09   -4.292E-09   -4.231E-09   -4.167E-09   -4.099E-09
    -4.028E-09   -3.954E-09   -3.877E-09   -3.797E-09   -3.716E-09   -3.632E-09   -3.546E-09   -3.459E-09   -3.370E-09   -3.280E-09
    -3.188E-09   -3.096E-09   -3.002E-09   -2.909E-09   -2.814E-09   -2.719E-09   -2.625E-09   -2.530E-09   -2.435E-09   -2.341E-09
    -2.248E-09   -2.155E-09   -2.063E-09   -1.972E-09   -1.882E-09   -1.793E-09   -1.706E-09   -1.620E-09   -1.537E-09   -1.455E-09
    -1.375E-09   -1.297E-09   -1.221E-09   -1.148E-09   -1.076E-09   -1.007E-09   -9.398E-10   -8.744E-10   -8.109E-10   -7.493E-10
    -6.895E-10   -6.314E-10   -5.751E-10   -5.204E-10   -4.673E-10   -4.158E-10   -3.658E-10   -3.173E-10   -2.702E-10   -2.245E-10
    -1.801E-10   -1.371E-10   -9.527E-11   -5.469E-11   -1.529E-11    2.299E-11    6.016E-11    9.627E-11    1.314E-10    1.655E-10
     1.987E-10    2.309E-10    2.623E-10    2.928E-10    3.224E-10    3.513E-10    3.793E-10    4.066E-10    4.332E-10    4.590E-10
     4.842E-10    5.086E-10    5.324E-10    5.556E-10    5.782E-10    6.002E-10    6.216E-10    6.425E-10    6.628E-10    6.826E-10
     7.019E-10    7.207E-10    7.390E-10    7.569E-10    7.743E-10    7.912E-10    8.078E-10    8.239E-10    8.396E-10    8.548E-10
     8.696E-10    8.840E-10    8.979E-10    9.112E-10    9.241E-10    9.365E-10    9.484E-10    9.597E-10    9.705E-10    9.807E-10
     9.904E-10    9.995E-10    1.008E-09    1.016E-09    1.023E-09    1.030E-09    1.036E-09    1.041E-09    1.046E-09    1.050E-09
     1.054E-09    1.057E-09    1.059E-09    1.060E-09    1.061E-09    1.061E-09    1.060E-09    1.059E-09    1.057E-09    1.054E-09
     1.050E-09    1.046E-09    1.041E-09    1.035E-09    1.028E-09    1.021E-09    1.013E-09    1.003E-09    9.936E-10    9.830E-10
     9.715E-10    9.592E-10    9.461E-10    9.322E-10    9.175E-10    9.019E-10    8.855E-10    8.682E-10    8.501E-10    8.312E-10
     8.114E-10    7.907E-10    7.693E-10
 Gln      Conc. = 1.81E-09
   1.92698E-09  2.04033E-09  2.25599E-09  2.73476E-09  3.22815E-09  3.71390E-09  4.10037E-09  4.58588E-09  4.95658E-09  4.80114E-09
   5.49188E-09  5.08972E-09  4.95439E-09  5.00676E-09  4.76090E-09  4.59074E-09  4.47643E-09  4.39533E-09  4.33573E-09  4.29090E-09
   4.25663E-09  4.22992E-09  4.20885E-09  4.19223E-09  4.17812E-09  4.16670E-09  4.15792E-09  4.14945E-09  4.14227E-09  4.13574E-09
   4.12935E-09  4.12284E-09  4.11602E-09  4.10866E-09  4.10061E-09  4.09171E-09  4.08178E-09  4.07068E-09  4.05822E-09  4.04415E-09
   4.02861E-09  4.01093E-09  3.99143E-09  3.96964E-09  3.94532E-09  3.91834E-09  3.88877E-09  3.85502E-09  3.81780E-09  3.77817E-09
   3.73177E-09  3.68074E-09  3.63135E-09  3.59015E-09  3.60303E-09  3.86535E-09  3.90976E-09  3.97483E-09  4.84391E-09  5.46192E-09
   5.77970E-09  6.41559E-09  7.13441E-09  7.62355E-09  7.85395E-09  8.20709E-09  7.74390E-09  7.24124E-09  7.65777E-09  6.92830E-09
   5.97719E-09  5.91799E-09  5.82593E-09  5.48227E-09  5.36570E-09  5.84794E-09  6.08511E-09  6.38754E-09  6.91678E-09  7.43344E-09
   7.66123E-09  8.02070E-09  8.44946E-09  8.13573E-09  7.98259E-09  8.28688E-09  7.57273E-09  7.23605E-09  7.09997E-09  6.70441E-09
   6.41067E-09  6.18887E-09  6.01011E-09  5.86531E-09  5.74311E-09  5.63494E-09  5.53898E-09  5.45332E-09  5.37449E-09  5.30187E-09
   5.23506E-09  5.17246E-09  5.11334E-09  5.05722E-09  5.00334E-09  4.95207E-09  4.90279E-09  4.85517E-09  4.80904E-09  4.76420E-09
   4.72053E-09  4.67788E-09  4.63611E-09  4.59513E-09  4.55473E-09  4.51476E-09  4.47506E-09  4.43549E-09  4.39589E-09  4.35613E-09
   4.31609E-09  4.27562E-09  4.23462E-09  4.19295E-09  4.15048E-09  4.10713E-09  4.06274E-09  4.01723E-09  3.97048E-09  3.92237E-09
   3.87278E-09  3.82163E-09  3.76880E-09  3.71417E-09  3.65767E-09  3.59915E-09  3.53854E-09  3.47574E-09  3.41064E-09  3.34313E-09
   3.27310E-09  3.20052E-09  3.12531E-09  3.04742E-09  2.96677E-09  2.88332E-09  2.79701E-09  2.70779E-09  2.61562E-09  2.52044E-09
   2.42224E-09  2.32097E-09  2.21661E-09  2.10916E-09  1.99862E-09  1.88502E-09  1.76842E-09  1.64890E-09  1.52666E-09  1.40193E-09
   1.27518E-09  1.14714E-09  1.01918E-09  8.93827E-10  7.76794E-10  6.83300E-10  6.70226E-10  1.07496E-09  1.46775E-09  1.34206E-09
   1.87762E-09  2.71032E-09  3.18133E-09  2.91632E-09  2.27402E-09  1.66240E-09  1.17783E-09  1.19443E-09  4.26822E-10 -1.30924E-09
  -1.82669E-09 -2.11976E-09 -2.34752E-09 -2.54727E-09 -2.73123E-09 -2.90430E-09 -3.06860E-09 -3.22506E-09 -3.37401E-09 -3.51548E-09
  -3.64934E-09 -3.77535E-09 -3.89319E-09 -4.00249E-09 -4.10289E-09 -4.19401E-09 -4.27558E-09 -4.34779E-09 -4.41092E-09 -4.46526E-09
  -4.51106E-09 -4.54860E-09 -4.57815E-09 -4.59997E-09 -4.61433E-09 -4.62148E-09 -4.62171E-09 -4.61526E-09 -4.60241E-09 -4.58342E-09
  -4.55855E-09 -4.52806E-09 -4.49221E-09 -4.45127E-09 -4.40550E-09 -4.35516E-09 -4.30050E-09 -4.24179E-09 -4.17928E-09 -4.11322E-09
  -4.04388E-09 -3.97151E-09 -3.89635E-09 -3.81866E-09 -3.73867E-09 -3.65658E-09 -3.57256E-09 -3.48680E-09 -3.39949E-09 -3.31081E-09
  -3.22095E-09 -3.13006E-09 -3.03836E-09 -2.94600E-09 -2.85314E-09 -2.75999E-09 -2.66669E-09 -2.57343E-09 -2.48035E-09 -2.38765E-09
  -2.29546E-09 -2.20395E-09 -2.11328E-09 -2.02360E-09 -1.93506E-09 -1.84781E-09 -1.76200E-09 -1.67777E-09 -1.59526E-09 -1.51462E-09
  -1.43595E-09 -1.35943E-09 -1.28507E-09 -1.21285E-09 -1.14271E-09 -1.07461E-09 -1.00849E-09 -9.44307E-10 -8.82013E-10 -8.21559E-10
  -7.62899E-10 -7.05978E-10 -6.50758E-10 -5.97184E-10 -5.45216E-10 -4.94805E-10 -4.45895E-10 -3.98464E-10 -3.52455E-10 -3.07818E-10
  -2.64513E-10 -2.22505E-10 -1.81739E-10 -1.42181E-10 -1.03795E-10 -6.65233E-11 -3.03467E-11  4.78648E-12  3.89087E-11  7.20647E-11
   1.04281E-10  1.35587E-10  1.66009E-10  1.95577E-10  2.24313E-10  2.52245E-10  2.79396E-10  3.05793E-10  3.31460E-10  3.56416E-10
   3.80688E-10  4.04295E-10  4.27260E-10  4.49602E-10  4.71342E-10  4.92499E-10  5.13091E-10  5.33136E-10  5.52649E-10  5.71651E-10
   5.90151E-10  6.08169E-10  6.25718E-10  6.42807E-10  6.59453E-10  6.75666E-10  6.91455E-10  7.06832E-10  7.21791E-10  7.36319E-10
   7.50404E-10  7.64034E-10  7.77198E-10  7.89883E-10  8.02078E-10  8.13772E-10  8.24953E-10  8.35609E-10  8.45730E-10  8.55305E-10
   8.64323E-10  8.72773E-10  8.80646E-10  8.87931E-10  8.94617E-10  9.00695E-10  9.06155E-10  9.10987E-10  9.15182E-10  9.18731E-10
   9.21624E-10  9.23853E-10  9.25409E-10  9.26283E-10  9.26467E-10  9.25953E-10  9.24732E-10  9.22795E-10  9.20132E-10  9.16737E-10
   9.12600E-10  9.07713E-10  9.02069E-10  8.95661E-10  8.88482E-10  8.80525E-10  8.71784E-10  8.62254E-10  8.51927E-10  8.40800E-10
   8.28867E-10  8.16123E-10  8.02564E-10  7.88186E-10  7.72986E-10  7.56960E-10  7.40104E-10  7.22416E-10  7.03894E-10  6.84536E-10
   6.64340E-10  6.43305E-10  6.21429E-10
 Glu      Conc. = 1.58E-10
   3.05599E-09  3.10858E-09  3.18935E-09  3.27136E-09  3.35874E-09  3.44579E-09  3.52814E-09  3.61828E-09  3.67431E-09  3.71734E-09
   3.79909E-09  3.79689E-09  3.84746E-09  3.86574E-09  3.88124E-09  3.90290E-09  3.92793E-09  3.95483E-09  3.98256E-09  4.01054E-09
   4.03851E-09  4.06618E-09  4.09347E-09  4.12029E-09  4.14650E-09  4.17202E-09  4.19683E-09  4.22086E-09  4.24408E-09  4.26646E-09
   4.28800E-09  4.30867E-09  4.32847E-09  4.34740E-09  4.36544E-09  4.38261E-09  4.39889E-09  4.41430E-09  4.42882E-09  4.44245E-09
   4.45522E-09  4.46710E-09  4.47810E-09  4.48823E-09  4.49749E-09  4.50584E-09  4.51331E-09  4.51991E-09  4.52555E-09  4.53031E-09
   4.53410E-09  4.53693E-09  4.53878E-09  4.53960E-09  4.53935E-09  4.53804E-09  4.53593E-09  4.53383E-09  4.53884E-09  4.55926E-09
   4.55693E-09  4.57801E-09  4.66189E-09  4.69517E-09  4.74068E-09  4.82002E-09  4.88552E-09  4.93361E-09  4.96571E-09  4.99748E-09
   4.95094E-09  4.93079E-09  4.96055E-09  4.86553E-09  4.82599E-09  4.83514E-09  4.80229E-09  4.81977E-09  4.83054E-09  4.85301E-09
   4.88099E-09  4.89338E-09  4.90487E-09  4.91250E-09  4.87934E-09  4.86328E-09  4.82322E-09  4.80053E-09  4.74581E-09  4.70896E-09
   4.67418E-09  4.63567E-09  4.60876E-09  4.57774E-09  4.54860E-09  4.52511E-09  4.49964E-09  4.47490E-09  4.45102E-09  4.42763E-09
   4.40444E-09  4.38143E-09  4.35847E-09  4.33558E-09  4.31268E-09  4.28969E-09  4.26663E-09  4.24344E-09  4.22013E-09  4.19668E-09
   4.17310E-09  4.14935E-09  4.12542E-09  4.10130E-09  4.07688E-09  4.05205E-09  4.02676E-09  4.00089E-09  3.97436E-09  3.94708E-09
   3.91896E-09  3.88989E-09  3.85981E-09  3.82862E-09  3.79621E-09  3.76251E-09  3.72742E-09  3.69084E-09  3.65269E-09  3.61287E-09
   3.57128E-09  3.52784E-09  3.48244E-09  3.43500E-09  3.38543E-09  3.33361E-09  3.27947E-09  3.22292E-09  3.16385E-09  3.10218E-09
   3.03778E-09  2.97063E-09  2.90065E-09  2.82779E-09  2.75198E-09  2.67317E-09  2.59130E-09  2.50631E-09  2.41815E-09  2.32676E-09
   2.23209E-09  2.13409E-09  2.03271E-09  1.92790E-09  1.81961E-09  1.70779E-09  1.59243E-09  1.47346E-09  1.35088E-09  1.22466E-09
   1.09481E-09  9.61380E-10  8.24526E-10  6.84527E-10  5.42296E-10  4.00888E-10  2.76972E-10  1.99644E-10  2.53411E-11 -9.20236E-11
  -1.68890E-10 -2.61598E-10 -4.25128E-10 -6.42021E-10 -8.58884E-10 -1.07034E-09 -1.25086E-09 -1.40497E-09 -1.76528E-09 -1.98369E-09
  -2.17052E-09 -2.34769E-09 -2.51935E-09 -2.68643E-09 -2.84902E-09 -3.00691E-09 -3.15976E-09 -3.30717E-09 -3.44870E-09 -3.58390E-09
  -3.71232E-09 -3.83353E-09 -3.94705E-09 -4.05241E-09 -4.14919E-09 -4.23692E-09 -4.31532E-09 -4.38453E-09 -4.44481E-09 -4.49642E-09
  -4.53961E-09 -4.57463E-09 -4.60174E-09 -4.62120E-09 -4.63326E-09 -4.63819E-09 -4.63624E-09 -4.62767E-09 -4.61274E-09 -4.59172E-09
  -4.56486E-09 -4.53242E-09 -4.49465E-09 -4.45183E-09 -4.40421E-09 -4.35205E-09 -4.29560E-09 -4.23513E-09 -4.17088E-09 -4.10312E-09
  -4.03209E-09 -3.95805E-09 -3.88125E-09 -3.80195E-09 -3.72036E-09 -3.63669E-09 -3.55112E-09 -3.46382E-09 -3.37500E-09 -3.28482E-09
