 LCModel (Version 6.3-1R) Copyright: S.W. Provencher.          Ref.: Magn. Reson. Med. 30:672-679 (1993).                
 onepulse 23x20_ftSpec_smooth_lcm
 26 lines in following concentration table = NCONC+1
    Conc.  %SD   /Cr    Metabolite                                         
 7.50E-11 285%   0.000 Ala                                                 
 5.21E-10  83%   0.000 Asp                                                 
    0.000 999%   0.000 Cr                                                  
 2.87E-09  15%   0.000 GABA                                                
 1.78E-09  20%   0.000 Glc                                                 
    0.000 999%   0.000 Gln                                                 
 3.85E-10 118%   0.000 Glu                                                 
    0.000 999%   0.000 Glyc                                                
    0.000 999%   0.000 GPC                                                 
 1.08E-10 216%   0.000 GSH                                                 
 2.14E-10 113%   0.000 Ins                                                 
    0.000 999%   0.000 Lac                                                 
    0.000 999%   0.000 NAAG                                                
 1.04E-09  19%   0.000 NAA                                                 
 1.23E-10  49%   0.000 PCh                                                 
    0.000 999%   0.000 PCr                                                 
    0.000 999%   0.000 PE                                                  
    0.000 999%   0.000 Scyllo                                              
    0.000 999%   0.000 Ser                                                 
    0.000 999%   0.000 Tau                                                 
 1.23E-10  49%   0.000 GPC+PCh                                             
 1.04E-09  19%   0.000 NAA+NAAG                                            
 2.14E-10 113%   0.000 Ins+Glyc                                            
    0.000 999%   0.000 Cr+PCr                                              
 3.85E-10 118%   0.000 Glu+Gln                                             
   6 lines in following misc. output table
  FWHM = 0.067 ppm    S/N =   4                                            
  Data shift = 0.324 ppm                                                   
  Ph:  45 deg      26.0 deg/ppm                                            
  alphaB,S = 1.7E-01,   6.3E+01                                            
   16 spline knots.   Ns = 5(1)                                            
  ( 9) 2 infls.   ( 5) 1 extrs.                                            
  363 points on ppm-axis = NY
      4.250000     4.238821     4.227641     4.216462     4.205282     4.194103     4.182923     4.171744     4.160564     4.149385
      4.138206     4.127026     4.115847     4.104667     4.093488     4.082308     4.071129     4.059949     4.048770     4.037591
      4.026411     4.015232     4.004052     3.992873     3.981693     3.970514     3.959334     3.948155     3.936975     3.925796
      3.914617     3.903437     3.892258     3.881078     3.869899     3.858719     3.847540     3.836360     3.825181     3.814002
      3.802822     3.791643     3.780463     3.769284     3.758104     3.746925     3.735745     3.724566     3.713387     3.702207
      3.691028     3.679848     3.668669     3.657489     3.646310     3.635130     3.623951     3.612772     3.601592     3.590413
      3.579233     3.568054     3.556874     3.545695     3.534515     3.523336     3.512156     3.500977     3.489798     3.478618
      3.467439     3.456259     3.445080     3.433900     3.422721     3.411541     3.400362     3.389183     3.378003     3.366824
      3.355644     3.344465     3.333285     3.322106     3.310926     3.299747     3.288568     3.277388     3.266209     3.255029
      3.243850     3.232670     3.221491     3.210311     3.199132     3.187953     3.176773     3.165594     3.154414     3.143235
      3.132055     3.120876     3.109696     3.098517     3.087337     3.076158     3.064979     3.053799     3.042620     3.031440
      3.020261     3.009081     2.997902     2.986722     2.975543     2.964364     2.953184     2.942005     2.930825     2.919646
      2.908466     2.897287     2.886107     2.874928     2.863749     2.852569     2.841390     2.830210     2.819031     2.807851
      2.796672     2.785492     2.774313     2.763134     2.751954     2.740775     2.729595     2.718416     2.707236     2.696057
      2.684877     2.673698     2.662519     2.651339     2.640160     2.628980     2.617801     2.606621     2.595442     2.584262
      2.573083     2.561903     2.550724     2.539545     2.528365     2.517186     2.506006     2.494827     2.483647     2.472468
      2.461288     2.450109     2.438930     2.427750     2.416571     2.405391     2.394212     2.383032     2.371853     2.360673
      2.349494     2.338315     2.327135     2.315956     2.304776     2.293597     2.282417     2.271238     2.260058     2.248879
      2.237700     2.226520     2.215341     2.204161     2.192982     2.181802     2.170623     2.159443     2.148264     2.137084
      2.125905     2.114726     2.103546     2.092367     2.081187     2.070008     2.058828     2.047649     2.036469     2.025290
      2.014111     2.002931     1.991752     1.980572     1.969393     1.958213     1.947034     1.935854     1.924675     1.913496
      1.902316     1.891137     1.879957     1.868778     1.857598     1.846419     1.835239     1.824060     1.812881     1.801701
      1.790522     1.779342     1.768163     1.756983     1.745804     1.734624     1.723445     1.712265     1.701086     1.689907
      1.678727     1.667548     1.656368     1.645189     1.634009     1.622830     1.611650     1.600471     1.589292     1.578112
      1.566933     1.555753     1.544574     1.533394     1.522215     1.511035     1.499856     1.488677     1.477497     1.466318
      1.455138     1.443959     1.432779     1.421600     1.410420     1.399241     1.388062     1.376882     1.365703     1.354523
      1.343344     1.332164     1.320985     1.309805     1.298626     1.287446     1.276267     1.265088     1.253908     1.242729
      1.231549     1.220370     1.209190     1.198011     1.186831     1.175652     1.164473     1.153293     1.142114     1.130934
      1.119755     1.108575     1.097396     1.086216     1.075037     1.063858     1.052678     1.041499     1.030319     1.019140
      1.007960     0.996781     0.985601     0.974422     0.963243     0.952063     0.940884     0.929704     0.918525     0.907345
      0.896166     0.884986     0.873807     0.862628     0.851448     0.840269     0.829089     0.817910     0.806730     0.795551
      0.784371     0.773192     0.762012     0.750833     0.739654     0.728474     0.717295     0.706115     0.694936     0.683756
      0.672577     0.661397     0.650218     0.639039     0.627859     0.616680     0.605500     0.594321     0.583141     0.571962
      0.560782     0.549603     0.538424     0.527244     0.516065     0.504885     0.493706     0.482526     0.471347     0.460167
      0.448988     0.437809     0.426629     0.415450     0.404270     0.393091     0.381911     0.370732     0.359552     0.348373
      0.337193     0.326014     0.314835     0.303655     0.292476     0.281296     0.270117     0.258937     0.247758     0.236578
      0.225399     0.214220     0.203040
 NY phased data points follow
   5.05455E-09  7.14753E-09  8.82753E-09  1.15103E-08  1.21630E-08  1.25376E-08  1.03082E-08  1.02323E-08  8.71127E-09  7.84876E-09
   7.56777E-09  7.03798E-09  6.60601E-09  7.73490E-09  7.45067E-09  8.21836E-09  7.86613E-09  9.51635E-09  8.72282E-09  9.51306E-09
   8.83341E-09  9.09302E-09  8.21057E-09  9.14512E-09  7.56433E-09  8.01331E-09  7.68222E-09  8.94472E-09  9.37053E-09  9.42226E-09
   8.20526E-09  8.39850E-09  7.67467E-09  9.23310E-09  9.65649E-09  1.22408E-08  1.17589E-08  1.17407E-08  9.63565E-09  8.82781E-09
   7.19035E-09  7.33118E-09  6.57018E-09  6.10385E-09  6.18405E-09  5.93507E-09  5.33459E-09  5.68023E-09  5.32226E-09  4.88059E-09
   3.89966E-09  3.87784E-09  4.81126E-09  4.74041E-09  5.35583E-09  5.47360E-09  4.29648E-09  4.50976E-09  3.92740E-09  3.89428E-09
   3.81469E-09  4.82009E-09  4.82468E-09  5.78960E-09  6.89804E-09  9.61509E-09  1.19009E-08  1.34065E-08  1.17098E-08  1.05311E-08
   8.06626E-09  6.92070E-09  6.02925E-09  5.36480E-09  4.17090E-09  4.69765E-09  3.67614E-09  3.54195E-09  3.70080E-09  4.82596E-09
   5.43523E-09  8.83804E-09  1.15857E-08  1.46515E-08  1.36066E-08  1.17630E-08  1.00232E-08  8.89747E-09  8.34446E-09  8.06182E-09
   6.89443E-09  7.40574E-09  6.00414E-09  6.16062E-09  5.48543E-09  5.58747E-09  4.93436E-09  4.13834E-09  4.47918E-09  4.13306E-09
   3.53963E-09  3.78274E-09  3.42530E-09  4.00343E-09  3.42525E-09  4.19518E-09  3.26136E-09  3.86479E-09  3.64179E-09  3.64423E-09
   3.22806E-09  3.10162E-09  2.17716E-09  2.12066E-09  2.16214E-09  3.16406E-09  3.54982E-09  3.25054E-09  3.33142E-09  4.04425E-09
   3.72221E-09  4.39005E-09  3.77943E-09  3.80126E-09  3.23113E-09  3.00904E-09  1.69219E-09  2.45082E-09  1.40329E-09  1.61370E-09
   1.30613E-09  3.28102E-09  2.32382E-09  2.35369E-09  2.72202E-09  3.21182E-09  2.16600E-09  2.47511E-09  1.77759E-09  2.31166E-09
   1.74601E-09  3.02897E-09  3.47905E-09  3.87719E-09  4.34799E-09  4.35676E-09  3.36956E-09  4.25956E-09  4.21662E-09  4.29560E-09
   4.45477E-09  5.02055E-09  3.44809E-09  4.48401E-09  4.32523E-09  3.94363E-09  4.18247E-09  4.29958E-09  4.22503E-09  4.86611E-09
   5.02634E-09  5.53686E-09  5.14155E-09  5.70429E-09  5.47906E-09  5.70245E-09  5.79722E-09  6.73573E-09  6.81651E-09  8.02468E-09
   1.01037E-08  1.23409E-08  1.43376E-08  1.63225E-08  1.69411E-08  1.49080E-08  1.14312E-08  8.45669E-09  6.52470E-09  4.99843E-09
   4.86565E-09  3.85227E-09  3.38723E-09  2.50158E-09  1.83358E-09  1.77099E-09  6.72490E-10  1.01217E-09 -3.68865E-10 -3.59872E-10
  -1.20191E-09 -1.63425E-09 -2.68856E-09 -2.58921E-09 -4.31841E-09 -3.88840E-09 -6.08239E-09 -6.21469E-09 -7.86861E-09 -8.89542E-09
  -9.61808E-09 -1.02918E-08 -1.15932E-08 -1.23046E-08 -1.29461E-08 -1.27888E-08 -1.33380E-08 -1.31815E-08 -1.23176E-08 -1.20878E-08
  -1.12172E-08 -1.02883E-08 -8.69629E-09 -7.05094E-09 -6.52514E-09 -4.45398E-09 -3.82705E-09 -2.24525E-09 -1.76431E-09 -6.58840E-10
  -5.19689E-10 -4.19306E-10 -7.06319E-10 -9.50807E-10 -9.99498E-10 -1.47758E-09 -2.42699E-09 -1.36952E-09 -1.85414E-09 -1.27424E-09
  -1.08157E-09 -1.04316E-09 -1.02164E-09 -1.61467E-09 -7.00572E-10 -1.75387E-09 -2.07890E-09 -1.78729E-09 -1.85819E-09 -1.40182E-09
  -1.34253E-09 -1.14819E-09 -9.65696E-10 -5.81781E-10 -1.30537E-09 -1.43852E-09 -1.08953E-09 -1.87595E-09 -1.71931E-09 -1.72566E-09
  -1.37892E-09 -1.09556E-09 -1.04865E-09 -8.52481E-10 -8.58950E-10 -1.13211E-09 -4.51892E-10 -9.87529E-10 -7.40559E-10 -1.34622E-09
  -1.08265E-09 -1.17143E-09 -1.32491E-09 -2.02642E-09 -2.00193E-09 -1.96800E-09 -1.46481E-09 -1.07203E-09 -1.32472E-09 -9.96736E-10
  -3.51888E-10 -2.00975E-10 -3.55613E-10  6.74494E-11 -3.69390E-10 -7.42630E-10 -1.64548E-10 -5.18058E-10 -7.34587E-10 -1.24910E-09
  -1.24955E-09 -1.42384E-09 -1.47527E-09 -1.44996E-09 -9.66961E-10 -1.79332E-09 -1.38206E-09 -1.43835E-09 -1.01042E-09 -1.06692E-09
  -9.95190E-10 -3.94398E-10 -1.35888E-09 -7.32088E-10 -7.69220E-10 -6.02319E-10 -1.33680E-09 -3.82507E-10 -1.01049E-09 -1.36951E-09
  -1.45458E-09 -8.90386E-10 -1.25308E-09 -8.56037E-10 -9.81748E-10 -7.11862E-10 -7.16846E-10 -1.13191E-09 -7.53529E-10 -5.68932E-10
  -1.00716E-09 -7.16876E-10 -9.10395E-10 -7.81731E-10 -2.97751E-10 -6.97459E-10 -5.70396E-10 -8.73245E-10 -5.66045E-10 -8.52631E-10
  -5.03917E-10 -8.49096E-10 -1.23165E-09 -4.03151E-10 -6.02646E-10 -3.15606E-10 -7.42541E-10 -7.69547E-10 -4.15542E-10 -1.09422E-09
  -7.87505E-10  1.93328E-10 -9.71404E-10 -8.86193E-10 -4.46817E-10 -3.50979E-10 -2.48633E-10 -7.24178E-10 -1.13381E-09 -2.16766E-10
  -8.81341E-10 -5.05751E-10 -7.46124E-10 -4.91327E-11 -5.55196E-10 -9.00659E-10  2.31526E-10 -1.06799E-09 -3.26954E-10 -4.30821E-10
  -3.05845E-10  1.15856E-11 -7.37080E-10 -2.32221E-10 -3.34003E-10 -1.90673E-10 -3.36350E-10 -4.61124E-10 -5.78961E-10  5.29688E-11
  -4.72407E-10 -4.80693E-10 -2.66359E-10
 NY points of the fit to the data follow
   7.84890E-09  8.47075E-09  9.14469E-09  9.80465E-09  1.02562E-08  1.03321E-08  9.99675E-09  9.34467E-09  8.62425E-09  7.85323E-09
   7.37462E-09  7.19425E-09  7.19651E-09  7.33129E-09  7.62054E-09  7.97216E-09  8.37147E-09  8.83483E-09  9.30860E-09  9.72642E-09
   1.00787E-08  1.01309E-08  9.74979E-09  9.10530E-09  8.32642E-09  7.57973E-09  7.22601E-09  7.50452E-09  8.11389E-09  8.76448E-09
   9.12947E-09  9.33215E-09  9.51479E-09  9.49904E-09  9.43464E-09  9.75076E-09  1.01611E-08  1.03030E-08  1.00671E-08  9.55259E-09
   8.93328E-09  8.14120E-09  6.95232E-09  6.02905E-09  5.50205E-09  4.86698E-09  4.36454E-09  4.20820E-09  4.26097E-09  4.39063E-09
   4.51550E-09  4.56460E-09  4.54459E-09  4.47789E-09  4.43833E-09  4.49339E-09  4.61916E-09  4.76874E-09  4.81316E-09  4.79399E-09
   4.89358E-09  5.26241E-09  5.81119E-09  6.51018E-09  7.55764E-09  8.55951E-09  9.31390E-09  9.92756E-09  1.03429E-08  1.03767E-08
   9.98444E-09  9.12791E-09  8.01113E-09  7.01833E-09  5.92123E-09  4.93921E-09  4.83088E-09  5.24907E-09  5.77481E-09  6.70275E-09
   7.91792E-09  9.33431E-09  1.08668E-08  1.20186E-08  1.23720E-08  1.19494E-08  1.07853E-08  9.09568E-09  7.48572E-09  6.94817E-09
   6.82523E-09  6.80262E-09  6.53427E-09  6.02606E-09  5.73021E-09  5.36172E-09  4.76092E-09  4.36532E-09  4.09830E-09  3.81359E-09
   3.62490E-09  3.51284E-09  3.45265E-09  3.44122E-09  3.45504E-09  3.47740E-09  3.49698E-09  3.50533E-09  3.49650E-09  3.46577E-09
   3.41512E-09  3.36349E-09  3.33041E-09  3.27897E-09  3.23084E-09  3.22150E-09  3.22444E-09  3.23236E-09  3.24274E-09  3.25439E-09
   3.26667E-09  3.27915E-09  3.29148E-09  3.30340E-09  3.31471E-09  3.32523E-09  3.33480E-09  3.34332E-09  3.35065E-09  3.35666E-09
   3.36127E-09  3.36437E-09  3.36587E-09  3.36567E-09  3.36368E-09  3.35982E-09  3.35401E-09  3.34616E-09  3.33623E-09  3.32413E-09
   3.30978E-09  3.29310E-09  3.27395E-09  3.25221E-09  3.22780E-09  3.20062E-09  3.17059E-09  3.13761E-09  3.10163E-09  3.06259E-09
   3.02046E-09  2.97525E-09  2.92701E-09  2.87582E-09  2.82183E-09  2.76528E-09  2.70657E-09  2.64627E-09  2.58525E-09  2.52483E-09
   2.46713E-09  2.41559E-09  2.37629E-09  2.36093E-09  2.39598E-09  2.56030E-09  3.19957E-09  4.53592E-09  6.30252E-09  8.38214E-09
   1.08861E-08  1.36680E-08  1.61567E-08  1.75488E-08  1.72010E-08  1.49159E-08  1.09845E-08  6.27020E-09  2.49910E-09  6.72961E-10
  -4.03942E-11 -4.60701E-10 -7.72830E-10 -1.03270E-09 -1.26280E-09 -1.47377E-09 -1.67113E-09 -1.85789E-09 -2.03572E-09 -2.20553E-09
  -2.36779E-09 -2.52264E-09 -2.67006E-09 -2.80986E-09 -2.94183E-09 -3.06563E-09 -3.18105E-09 -3.28826E-09 -3.38749E-09 -3.47896E-09
  -3.56286E-09 -3.63938E-09 -3.70871E-09 -3.77101E-09 -3.82646E-09 -3.87521E-09 -3.91743E-09 -3.95328E-09 -3.98289E-09 -4.00644E-09
  -4.02407E-09 -4.03593E-09 -4.04217E-09 -4.04293E-09 -4.03836E-09 -4.02862E-09 -4.01383E-09 -3.99415E-09 -3.96972E-09 -3.94069E-09
  -3.90720E-09 -3.86938E-09 -3.82739E-09 -3.78137E-09 -3.73150E-09 -3.67800E-09 -3.62113E-09 -3.56112E-09 -3.49823E-09 -3.43270E-09
  -3.36477E-09 -3.29469E-09 -3.22270E-09 -3.14906E-09 -3.07399E-09 -2.99775E-09 -2.92057E-09 -2.84272E-09 -2.76442E-09 -2.68593E-09
  -2.60749E-09 -2.52933E-09 -2.45171E-09 -2.37488E-09 -2.29906E-09 -2.22452E-09 -2.15148E-09 -2.08020E-09 -2.01093E-09 -1.94390E-09
  -1.87935E-09 -1.81754E-09 -1.75857E-09 -1.70236E-09 -1.64884E-09 -1.59794E-09 -1.54955E-09 -1.50361E-09 -1.46003E-09 -1.41874E-09
  -1.37964E-09 -1.34266E-09 -1.30772E-09 -1.27473E-09 -1.24361E-09 -1.21429E-09 -1.18667E-09 -1.16069E-09 -1.13626E-09 -1.11328E-09
  -1.09169E-09 -1.07141E-09 -1.05234E-09 -1.03441E-09 -1.01755E-09 -1.00165E-09 -9.86658E-10 -9.72474E-10 -9.59026E-10 -9.46223E-10
  -9.34021E-10 -9.22396E-10 -9.11319E-10 -9.00763E-10 -8.90714E-10 -8.81135E-10 -8.72011E-10 -8.63309E-10 -8.55009E-10 -8.47087E-10
  -8.39516E-10 -8.32273E-10 -8.25331E-10 -8.18666E-10 -8.12255E-10 -8.06071E-10 -8.00091E-10 -7.94289E-10 -7.88646E-10 -7.83123E-10
  -7.77713E-10 -7.72378E-10 -7.67097E-10 -7.61852E-10 -7.56610E-10 -7.51348E-10 -7.46045E-10 -7.40670E-10 -7.35221E-10 -7.29696E-10
  -7.24093E-10 -7.18414E-10 -7.12658E-10 -7.06822E-10 -7.00910E-10 -6.94918E-10 -6.88848E-10 -6.82699E-10 -6.76472E-10 -6.70163E-10
  -6.63778E-10 -6.57309E-10 -6.50759E-10 -6.44132E-10 -6.37421E-10 -6.30631E-10 -6.23759E-10 -6.16803E-10 -6.09766E-10 -6.02650E-10
  -5.95447E-10 -5.88163E-10 -5.80794E-10 -5.73343E-10 -5.65810E-10 -5.58189E-10 -5.50488E-10 -5.42712E-10 -5.34862E-10 -5.26942E-10
  -5.18957E-10 -5.10909E-10 -5.02804E-10 -4.94644E-10 -4.86436E-10 -4.78177E-10 -4.69880E-10 -4.61543E-10 -4.53172E-10 -4.44769E-10
  -4.36337E-10 -4.27884E-10 -4.19411E-10 -4.10922E-10 -4.02421E-10 -3.93914E-10 -3.85401E-10 -3.76887E-10 -3.68376E-10 -3.59875E-10
  -3.51384E-10 -3.42910E-10 -3.34451E-10
 NY background values follow
     1.597E-09    1.588E-09    1.580E-09    1.572E-09    1.563E-09    1.555E-09    1.546E-09    1.537E-09    1.529E-09    1.520E-09
     1.512E-09    1.503E-09    1.494E-09    1.486E-09    1.477E-09    1.468E-09    1.460E-09    1.451E-09    1.442E-09    1.434E-09
     1.425E-09    1.416E-09    1.408E-09    1.399E-09    1.391E-09    1.382E-09    1.373E-09    1.365E-09    1.356E-09    1.348E-09
     1.339E-09    1.331E-09    1.323E-09    1.315E-09    1.307E-09    1.299E-09    1.291E-09    1.284E-09    1.276E-09    1.269E-09
     1.263E-09    1.256E-09    1.250E-09    1.245E-09    1.239E-09    1.234E-09    1.229E-09    1.225E-09    1.222E-09    1.218E-09
     1.216E-09    1.213E-09    1.212E-09    1.210E-09    1.210E-09    1.210E-09    1.211E-09    1.212E-09    1.214E-09    1.216E-09
     1.220E-09    1.224E-09    1.228E-09    1.234E-09    1.240E-09    1.247E-09    1.254E-09    1.262E-09    1.271E-09    1.281E-09
     1.292E-09    1.303E-09    1.315E-09    1.328E-09    1.342E-09    1.356E-09    1.371E-09    1.388E-09    1.405E-09    1.422E-09
     1.441E-09    1.461E-09    1.481E-09    1.502E-09    1.525E-09    1.548E-09    1.572E-09    1.596E-09    1.622E-09    1.648E-09
     1.675E-09    1.702E-09    1.730E-09    1.758E-09    1.787E-09    1.816E-09    1.845E-09    1.875E-09    1.905E-09    1.935E-09
     1.966E-09    1.996E-09    2.026E-09    2.057E-09    2.087E-09    2.117E-09    2.147E-09    2.177E-09    2.207E-09    2.236E-09
     2.265E-09    2.294E-09    2.322E-09    2.349E-09    2.376E-09    2.402E-09    2.428E-09    2.452E-09    2.476E-09    2.499E-09
     2.520E-09    2.541E-09    2.560E-09    2.579E-09    2.595E-09    2.611E-09    2.624E-09    2.637E-09    2.647E-09    2.656E-09
     2.663E-09    2.669E-09    2.672E-09    2.673E-09    2.672E-09    2.669E-09    2.664E-09    2.656E-09    2.646E-09    2.634E-09
     2.619E-09    2.601E-09    2.581E-09    2.557E-09    2.531E-09    2.501E-09    2.468E-09    2.432E-09    2.392E-09    2.348E-09
     2.300E-09    2.249E-09    2.193E-09    2.133E-09    2.068E-09    1.999E-09    1.925E-09    1.847E-09    1.763E-09    1.675E-09
     1.581E-09    1.482E-09    1.377E-09    1.267E-09    1.151E-09    1.029E-09    9.015E-10    7.675E-10    6.273E-10    4.812E-10
     3.298E-10    1.737E-10    1.316E-11   -1.511E-10   -3.187E-10   -4.891E-10   -6.617E-10   -8.361E-10   -1.012E-09   -1.188E-09
    -1.365E-09   -1.541E-09   -1.717E-09   -1.891E-09   -2.064E-09   -2.234E-09   -2.402E-09   -2.566E-09   -2.726E-09   -2.882E-09
    -3.034E-09   -3.180E-09   -3.320E-09   -3.453E-09   -3.580E-09   -3.700E-09   -3.811E-09   -3.915E-09   -4.012E-09   -4.101E-09
    -4.183E-09   -4.258E-09   -4.325E-09   -4.386E-09   -4.441E-09   -4.488E-09   -4.530E-09   -4.565E-09   -4.593E-09   -4.616E-09
    -4.633E-09   -4.645E-09   -4.650E-09   -4.651E-09   -4.646E-09   -4.636E-09   -4.620E-09   -4.601E-09   -4.576E-09   -4.547E-09
    -4.513E-09   -4.475E-09   -4.433E-09   -4.386E-09   -4.336E-09   -4.283E-09   -4.226E-09   -4.166E-09   -4.103E-09   -4.037E-09
    -3.969E-09   -3.899E-09   -3.827E-09   -3.753E-09   -3.678E-09   -3.602E-09   -3.524E-09   -3.446E-09   -3.368E-09   -3.290E-09
    -3.211E-09   -3.133E-09   -3.055E-09   -2.978E-09   -2.902E-09   -2.828E-09   -2.755E-09   -2.683E-09   -2.614E-09   -2.547E-09
    -2.483E-09   -2.421E-09   -2.362E-09   -2.305E-09   -2.252E-09   -2.201E-09   -2.153E-09   -2.107E-09   -2.063E-09   -2.022E-09
    -1.982E-09   -1.945E-09   -1.910E-09   -1.877E-09   -1.846E-09   -1.817E-09   -1.789E-09   -1.763E-09   -1.739E-09   -1.716E-09
    -1.694E-09   -1.674E-09   -1.655E-09   -1.637E-09   -1.620E-09   -1.604E-09   -1.589E-09   -1.574E-09   -1.561E-09   -1.548E-09
    -1.536E-09   -1.524E-09   -1.513E-09   -1.502E-09   -1.492E-09   -1.483E-09   -1.473E-09   -1.465E-09   -1.456E-09   -1.448E-09
    -1.441E-09   -1.433E-09   -1.426E-09   -1.419E-09   -1.413E-09   -1.407E-09   -1.401E-09   -1.395E-09   -1.389E-09   -1.383E-09
    -1.378E-09   -1.372E-09   -1.367E-09   -1.362E-09   -1.356E-09   -1.351E-09   -1.346E-09   -1.340E-09   -1.335E-09   -1.329E-09
    -1.323E-09   -1.317E-09   -1.312E-09   -1.306E-09   -1.300E-09   -1.293E-09   -1.287E-09   -1.281E-09   -1.275E-09   -1.268E-09
    -1.262E-09   -1.255E-09   -1.248E-09   -1.242E-09   -1.235E-09   -1.228E-09   -1.221E-09   -1.214E-09   -1.206E-09   -1.199E-09
    -1.192E-09   -1.184E-09   -1.177E-09   -1.169E-09   -1.161E-09   -1.154E-09   -1.146E-09   -1.138E-09   -1.130E-09   -1.122E-09
    -1.114E-09   -1.105E-09   -1.097E-09   -1.089E-09   -1.080E-09   -1.072E-09   -1.063E-09   -1.055E-09   -1.046E-09   -1.038E-09
    -1.029E-09   -1.020E-09   -1.012E-09   -1.003E-09   -9.943E-10   -9.855E-10   -9.768E-10   -9.681E-10   -9.593E-10   -9.506E-10
    -9.419E-10   -9.332E-10   -9.245E-10
 Ala      Conc. = 7.50E-11
   1.64901E-09  1.64691E-09  1.64326E-09  1.63816E-09  1.63133E-09  1.62299E-09  1.61186E-09  1.59655E-09  1.58253E-09  1.56940E-09
   1.55088E-09  1.53404E-09  1.52128E-09  1.50724E-09  1.49386E-09  1.48243E-09  1.47195E-09  1.46202E-09  1.45244E-09  1.44308E-09
   1.43388E-09  1.42480E-09  1.41582E-09  1.40692E-09  1.39807E-09  1.38929E-09  1.38056E-09  1.37187E-09  1.36323E-09  1.35464E-09
   1.34612E-09  1.33768E-09  1.32935E-09  1.32115E-09  1.31310E-09  1.30521E-09  1.29751E-09  1.29003E-09  1.28278E-09  1.27578E-09
   1.26907E-09  1.26264E-09  1.25654E-09  1.25078E-09  1.24539E-09  1.24038E-09  1.23578E-09  1.23161E-09  1.22788E-09  1.22464E-09
   1.22189E-09  1.21965E-09  1.21796E-09  1.21682E-09  1.21629E-09  1.21634E-09  1.21702E-09  1.21836E-09  1.22034E-09  1.22300E-09
   1.22633E-09  1.23034E-09  1.23505E-09  1.24046E-09  1.24658E-09  1.25343E-09  1.26100E-09  1.26932E-09  1.27840E-09  1.28823E-09
   1.29883E-09  1.31022E-09  1.32240E-09  1.33538E-09  1.34917E-09  1.36378E-09  1.37923E-09  1.39552E-09  1.41266E-09  1.43068E-09
   1.44957E-09  1.46935E-09  1.49003E-09  1.51164E-09  1.53417E-09  1.55762E-09  1.58196E-09  1.60714E-09  1.63313E-09  1.65989E-09
   1.68741E-09  1.71567E-09  1.74466E-09  1.77443E-09  1.80501E-09  1.83655E-09  1.86931E-09  1.90384E-09  1.94147E-09  1.98648E-09
   2.04581E-09  2.10539E-09  2.17094E-09  2.25561E-09  2.34530E-09  2.42893E-09  2.49860E-09  2.54839E-09  2.57432E-09  2.57316E-09
   2.54829E-09  2.51916E-09  2.50572E-09  2.47140E-09  2.43816E-09  2.44183E-09  2.45636E-09  2.47464E-09  2.49428E-09  2.51422E-09
   2.53390E-09  2.55297E-09  2.57120E-09  2.58840E-09  2.60443E-09  2.61918E-09  2.63254E-09  2.64441E-09  2.65470E-09  2.66331E-09
   2.67017E-09  2.67519E-09  2.67830E-09  2.67941E-09  2.67844E-09  2.67532E-09  2.66996E-09  2.66231E-09  2.65227E-09  2.63977E-09
   2.62472E-09  2.60702E-09  2.58653E-09  2.56312E-09  2.53665E-09  2.50698E-09  2.47399E-09  2.43753E-09  2.39747E-09  2.35369E-09
   2.30604E-09  2.25440E-09  2.19863E-09  2.13859E-09  2.07417E-09  2.00522E-09  1.93162E-09  1.85324E-09  1.76995E-09  1.68164E-09
   1.58819E-09  1.48950E-09  1.38551E-09  1.27617E-09  1.16161E-09  1.04236E-09  9.21202E-10  8.04937E-10  6.85297E-10  5.62823E-10
   4.40490E-10  3.17445E-10  1.87417E-10  4.12364E-11 -1.28300E-10 -3.22515E-10 -5.37600E-10 -7.64267E-10 -9.83262E-10 -1.17156E-09
  -1.35273E-09 -1.53142E-09 -1.70842E-09 -1.88367E-09 -2.05686E-09 -2.22760E-09 -2.39543E-09 -2.55988E-09 -2.72046E-09 -2.87668E-09
  -3.02804E-09 -3.17406E-09 -3.31421E-09 -3.44798E-09 -3.57490E-09 -3.69444E-09 -3.80623E-09 -3.91033E-09 -4.00689E-09 -4.09605E-09
  -4.17794E-09 -4.25271E-09 -4.32049E-09 -4.38144E-09 -4.43570E-09 -4.48339E-09 -4.52468E-09 -4.55969E-09 -4.58856E-09 -4.61144E-09
  -4.62848E-09 -4.63980E-09 -4.64556E-09 -4.64589E-09 -4.64093E-09 -4.63083E-09 -4.61572E-09 -4.59575E-09 -4.57106E-09 -4.54179E-09
  -4.50808E-09 -4.47007E-09 -4.42790E-09 -4.38171E-09 -4.33168E-09 -4.27805E-09 -4.22105E-09 -4.16093E-09 -4.09793E-09 -4.03230E-09
  -3.96428E-09 -3.89412E-09 -3.82206E-09 -3.74834E-09 -3.67320E-09 -3.59690E-09 -3.51967E-09 -3.44177E-09 -3.36341E-09 -3.28487E-09
  -3.20638E-09 -3.12818E-09 -3.05052E-09 -2.97365E-09 -2.89779E-09 -2.82321E-09 -2.75014E-09 -2.67882E-09 -2.60951E-09 -2.54245E-09
  -2.47786E-09 -2.41603E-09 -2.35702E-09 -2.30077E-09 -2.24722E-09 -2.19628E-09 -2.14786E-09 -2.10189E-09 -2.05827E-09 -2.01693E-09
  -1.97780E-09 -1.94078E-09 -1.90580E-09 -1.87277E-09 -1.84161E-09 -1.81225E-09 -1.78458E-09 -1.75856E-09 -1.73408E-09 -1.71106E-09
  -1.68942E-09 -1.66909E-09 -1.64997E-09 -1.63199E-09 -1.61508E-09 -1.59912E-09 -1.58407E-09 -1.56983E-09 -1.55632E-09 -1.54346E-09
  -1.53120E-09 -1.51951E-09 -1.50837E-09 -1.49774E-09 -1.48762E-09 -1.47798E-09 -1.46878E-09 -1.46001E-09 -1.45163E-09 -1.44363E-09
  -1.43598E-09 -1.42866E-09 -1.42163E-09 -1.41489E-09 -1.40839E-09 -1.40212E-09 -1.39605E-09 -1.39016E-09 -1.38442E-09 -1.37880E-09
  -1.37330E-09 -1.36786E-09 -1.36248E-09 -1.35714E-09 -1.35179E-09 -1.34642E-09 -1.34101E-09 -1.33553E-09 -1.32997E-09 -1.32433E-09
  -1.31861E-09 -1.31281E-09 -1.30694E-09 -1.30098E-09 -1.29495E-09 -1.28883E-09 -1.28263E-09 -1.27635E-09 -1.27000E-09 -1.26355E-09
  -1.25703E-09 -1.25043E-09 -1.24374E-09 -1.23697E-09 -1.23011E-09 -1.22318E-09 -1.21616E-09 -1.20905E-09 -1.20186E-09 -1.19459E-09
  -1.18723E-09 -1.17979E-09 -1.17226E-09 -1.16464E-09 -1.15694E-09 -1.14915E-09 -1.14128E-09 -1.13334E-09 -1.12531E-09 -1.11721E-09
  -1.10905E-09 -1.10082E-09 -1.09253E-09 -1.08418E-09 -1.07579E-09 -1.06734E-09 -1.05885E-09 -1.05032E-09 -1.04175E-09 -1.03314E-09
  -1.02451E-09 -1.01585E-09 -1.00717E-09 -9.98469E-10 -9.89755E-10 -9.81031E-10 -9.72301E-10 -9.63566E-10 -9.54832E-10 -9.46105E-10
  -9.37386E-10 -9.28681E-10 -9.19988E-10
 Asp      Conc. = 5.21E-10
   2.24793E-09  2.17052E-09  2.09123E-09  1.99954E-09  1.90677E-09  1.80182E-09  1.71529E-09  1.64562E-09  1.60935E-09  1.58569E-09
   1.56817E-09  1.55419E-09  1.54251E-09  1.53225E-09  1.52252E-09  1.51311E-09  1.50406E-09  1.49534E-09  1.48691E-09  1.47874E-09
   1.47080E-09  1.46310E-09  1.45564E-09  1.44843E-09  1.44149E-09  1.43487E-09  1.42859E-09  1.42271E-09  1.41734E-09  1.41257E-09
   1.40858E-09  1.40560E-09  1.40400E-09  1.40432E-09  1.40750E-09  1.41549E-09  1.43282E-09  1.45483E-09  1.48635E-09  1.51937E-09
   1.55264E-09  1.58478E-09  1.61497E-09  1.64638E-09  1.67388E-09  1.71793E-09  1.76311E-09  1.82821E-09  1.94858E-09  2.08437E-09
   2.20069E-09  2.24475E-09  2.20133E-09  2.08070E-09  1.92351E-09  1.78922E-09  1.68752E-09  1.65132E-09  1.58628E-09  1.50067E-09
   1.46185E-09  1.45022E-09  1.44313E-09  1.44620E-09  1.44591E-09  1.42415E-09  1.38789E-09  1.37056E-09  1.36321E-09  1.36149E-09
   1.36348E-09  1.36819E-09  1.37503E-09  1.38366E-09  1.39383E-09  1.40539E-09  1.41822E-09  1.43223E-09  1.44739E-09  1.46363E-09
   1.48093E-09  1.49928E-09  1.51863E-09  1.53900E-09  1.56037E-09  1.58270E-09  1.60594E-09  1.63003E-09  1.65491E-09  1.68051E-09
   1.70680E-09  1.73371E-09  1.76118E-09  1.78917E-09  1.81762E-09  1.84648E-09  1.87570E-09  1.90522E-09  1.93499E-09  1.96496E-09
   1.99508E-09  2.02531E-09  2.05558E-09  2.08584E-09  2.11605E-09  2.14616E-09  2.17612E-09  2.20587E-09  2.23536E-09  2.26455E-09
   2.29339E-09  2.32182E-09  2.34979E-09  2.37724E-09  2.40409E-09  2.43027E-09  2.45571E-09  2.48033E-09  2.50405E-09  2.52681E-09
   2.54851E-09  2.56910E-09  2.58849E-09  2.60662E-09  2.62340E-09  2.63876E-09  2.65263E-09  2.66493E-09  2.67559E-09  2.68454E-09
   2.69169E-09  2.69698E-09  2.70033E-09  2.70166E-09  2.70091E-09  2.69799E-09  2.69285E-09  2.68539E-09  2.67555E-09  2.66325E-09
   2.64841E-09  2.63093E-09  2.61067E-09  2.58749E-09  2.56127E-09  2.53188E-09  2.49918E-09  2.46304E-09  2.42334E-09  2.37995E-09
   2.33274E-09  2.28158E-09  2.22636E-09  2.16696E-09  2.10326E-09  2.03516E-09  1.96255E-09  1.88536E-09  1.80352E-09  1.71698E-09
   1.62577E-09  1.52998E-09  1.42989E-09  1.32607E-09  1.21993E-09  1.11531E-09  1.02732E-09  1.01158E-09  1.01293E-09  1.02720E-09
   1.07271E-09  1.14479E-09  1.20066E-09  1.17416E-09  1.00873E-09  6.87668E-10  2.30668E-10 -3.06925E-10 -8.05320E-10 -1.08144E-09
  -1.29239E-09 -1.48523E-09 -1.67021E-09 -1.85044E-09 -2.02696E-09 -2.20003E-09 -2.36955E-09 -2.53527E-09 -2.69681E-09 -2.85378E-09
  -3.00574E-09 -3.15223E-09 -3.29277E-09 -3.42686E-09 -3.55403E-09 -3.67379E-09 -3.78576E-09 -3.89002E-09 -3.98670E-09 -4.07597E-09
  -4.15795E-09 -4.23280E-09 -4.30065E-09 -4.36166E-09 -4.41597E-09 -4.46370E-09 -4.50502E-09 -4.54007E-09 -4.56897E-09 -4.59187E-09
  -4.60893E-09 -4.62027E-09 -4.62604E-09 -4.62638E-09 -4.62143E-09 -4.61134E-09 -4.59624E-09 -4.57628E-09 -4.55160E-09 -4.52233E-09
  -4.48862E-09 -4.45061E-09 -4.40844E-09 -4.36226E-09 -4.31223E-09 -4.25860E-09 -4.20160E-09 -4.14148E-09 -4.07848E-09 -4.01285E-09
