 LCModel (Version 6.3-1R) Copyright: S.W. Provencher.          Ref.: Magn. Reson. Med. 30:672-679 (1993).                
 onepulse 23x28_ftSpec_smooth_lcm
 26 lines in following concentration table = NCONC+1
    Conc.  %SD   /Cr    Metabolite                                         
    0.000 999%   0.000 Ala                                                 
    0.000 999%   0.000 Asp                                                 
    0.000 999%   0.000 Cr                                                  
 1.85E-09  34%   0.000 GABA                                                
    0.000 999%   0.000 Glc                                                 
    0.000 999%   0.000 Gln                                                 
    0.000 999%   0.000 Glu                                                 
    0.000 999%   0.000 Glyc                                                
 8.98E-11 142%   0.000 GPC                                                 
 4.01E-10 114%   0.000 GSH                                                 
 1.44E-09  31%   0.000 Ins                                                 
    0.000 999%   0.000 Lac                                                 
 5.87E-11 426%   0.000 NAAG                                                
    0.000 999%   0.000 NAA                                                 
    0.000 999%   0.000 PCh                                                 
    0.000 999%   0.000 PCr                                                 
    0.000 999%   0.000 PE                                                  
 3.03E-10  61%   0.000 Scyllo                                              
    0.000 999%   0.000 Ser                                                 
    0.000 999%   0.000 Tau                                                 
 8.98E-11 142%   0.000 GPC+PCh                                             
 5.87E-11 426%   0.000 NAA+NAAG                                            
 1.44E-09  31%   0.000 Ins+Glyc                                            
    0.000 999%   0.000 Cr+PCr                                              
    0.000 999%   0.000 Glu+Gln                                             
   6 lines in following misc. output table
  FWHM = 0.089 ppm    S/N =   1                                            
  Data shift = 0.246 ppm                                                   
  Ph:  -3 deg       8.2 deg/ppm                                            
  alphaB,S = 1.5E+00,   4.2E+01                                            
    9 spline knots.   Ns = 5(1)                                            
  (12) 2 infls.   (11) 1 extrs.                                            
  363 points on ppm-axis = NY
      4.250000     4.238821     4.227641     4.216462     4.205282     4.194103     4.182923     4.171744     4.160564     4.149385
      4.138206     4.127026     4.115847     4.104667     4.093488     4.082308     4.071129     4.059949     4.048770     4.037591
      4.026411     4.015232     4.004052     3.992873     3.981693     3.970514     3.959334     3.948155     3.936975     3.925796
      3.914617     3.903437     3.892258     3.881078     3.869899     3.858719     3.847540     3.836360     3.825181     3.814002
      3.802822     3.791643     3.780463     3.769284     3.758104     3.746925     3.735745     3.724566     3.713387     3.702207
      3.691028     3.679848     3.668669     3.657489     3.646310     3.635130     3.623951     3.612772     3.601592     3.590413
      3.579233     3.568054     3.556874     3.545695     3.534515     3.523336     3.512156     3.500977     3.489798     3.478618
      3.467439     3.456259     3.445080     3.433900     3.422721     3.411541     3.400362     3.389183     3.378003     3.366824
      3.355644     3.344465     3.333285     3.322106     3.310926     3.299747     3.288568     3.277388     3.266209     3.255029
      3.243850     3.232670     3.221491     3.210311     3.199132     3.187953     3.176773     3.165594     3.154414     3.143235
      3.132055     3.120876     3.109696     3.098517     3.087337     3.076158     3.064979     3.053799     3.042620     3.031440
      3.020261     3.009081     2.997902     2.986722     2.975543     2.964364     2.953184     2.942005     2.930825     2.919646
      2.908466     2.897287     2.886107     2.874928     2.863749     2.852569     2.841390     2.830210     2.819031     2.807851
      2.796672     2.785492     2.774313     2.763134     2.751954     2.740775     2.729595     2.718416     2.707236     2.696057
      2.684877     2.673698     2.662519     2.651339     2.640160     2.628980     2.617801     2.606621     2.595442     2.584262
      2.573083     2.561903     2.550724     2.539545     2.528365     2.517186     2.506006     2.494827     2.483647     2.472468
      2.461288     2.450109     2.438930     2.427750     2.416571     2.405391     2.394212     2.383032     2.371853     2.360673
      2.349494     2.338315     2.327135     2.315956     2.304776     2.293597     2.282417     2.271238     2.260058     2.248879
      2.237700     2.226520     2.215341     2.204161     2.192982     2.181802     2.170623     2.159443     2.148264     2.137084
      2.125905     2.114726     2.103546     2.092367     2.081187     2.070008     2.058828     2.047649     2.036469     2.025290
      2.014111     2.002931     1.991752     1.980572     1.969393     1.958213     1.947034     1.935854     1.924675     1.913496
      1.902316     1.891137     1.879957     1.868778     1.857598     1.846419     1.835239     1.824060     1.812881     1.801701
      1.790522     1.779342     1.768163     1.756983     1.745804     1.734624     1.723445     1.712265     1.701086     1.689907
      1.678727     1.667548     1.656368     1.645189     1.634009     1.622830     1.611650     1.600471     1.589292     1.578112
      1.566933     1.555753     1.544574     1.533394     1.522215     1.511035     1.499856     1.488677     1.477497     1.466318
      1.455138     1.443959     1.432779     1.421600     1.410420     1.399241     1.388062     1.376882     1.365703     1.354523
      1.343344     1.332164     1.320985     1.309805     1.298626     1.287446     1.276267     1.265088     1.253908     1.242729
      1.231549     1.220370     1.209190     1.198011     1.186831     1.175652     1.164473     1.153293     1.142114     1.130934
      1.119755     1.108575     1.097396     1.086216     1.075037     1.063858     1.052678     1.041499     1.030319     1.019140
      1.007960     0.996781     0.985601     0.974422     0.963243     0.952063     0.940884     0.929704     0.918525     0.907345
      0.896166     0.884986     0.873807     0.862628     0.851448     0.840269     0.829089     0.817910     0.806730     0.795551
      0.784371     0.773192     0.762012     0.750833     0.739654     0.728474     0.717295     0.706115     0.694936     0.683756
      0.672577     0.661397     0.650218     0.639039     0.627859     0.616680     0.605500     0.594321     0.583141     0.571962
      0.560782     0.549603     0.538424     0.527244     0.516065     0.504885     0.493706     0.482526     0.471347     0.460167
      0.448988     0.437809     0.426629     0.415450     0.404270     0.393091     0.381911     0.370732     0.359552     0.348373
      0.337193     0.326014     0.314835     0.303655     0.292476     0.281296     0.270117     0.258937     0.247758     0.236578
      0.225399     0.214220     0.203040
 NY phased data points follow
   1.11861E-08  1.14503E-08  1.07384E-08  1.12928E-08  1.10763E-08  1.29814E-08  1.36953E-08  1.63012E-08  1.76396E-08  1.99208E-08
   1.85595E-08  1.73142E-08  1.43861E-08  1.35649E-08  1.21187E-08  1.24755E-08  1.18744E-08  1.20312E-08  1.11610E-08  1.20876E-08
   1.20044E-08  1.28448E-08  1.27291E-08  1.32294E-08  1.26493E-08  1.23520E-08  1.10206E-08  1.18120E-08  1.05340E-08  1.11051E-08
   9.46447E-09  9.93383E-09  9.60634E-09  1.01710E-08  1.07228E-08  1.05607E-08  9.45198E-09  9.19200E-09  8.87875E-09  9.61013E-09
   1.04979E-08  1.20720E-08  1.13002E-08  1.07693E-08  8.38203E-09  7.84828E-09  6.49562E-09  6.75848E-09  6.20370E-09  6.08746E-09
   5.51669E-09  5.57664E-09  5.68833E-09  5.66845E-09  5.47696E-09  4.77616E-09  4.15783E-09  4.51180E-09  4.11210E-09  4.89445E-09
   4.89256E-09  5.26777E-09  4.80696E-09  4.57847E-09  3.73667E-09  4.17483E-09  4.57430E-09  5.30965E-09  5.44417E-09  6.18531E-09
   6.34869E-09  8.33174E-09  9.25653E-09  1.02966E-08  8.13384E-09  7.31858E-09  5.71807E-09  4.95689E-09  3.85249E-09  4.69675E-09
   3.43442E-09  3.52375E-09  3.31459E-09  4.14449E-09  3.70312E-09  4.62376E-09  4.92050E-09  8.60627E-09  1.14637E-08  1.36891E-08
   1.32557E-08  1.11851E-08  7.80566E-09  7.42307E-09  6.06917E-09  5.54225E-09  4.86923E-09  4.10878E-09  3.82475E-09  3.82865E-09
   3.15049E-09  2.70278E-09  2.35971E-09  1.95224E-09  1.46351E-09  1.06205E-09  9.38595E-10  1.19914E-09  6.81388E-10  1.15891E-09
   8.42086E-10  1.87334E-09  8.85751E-10  1.11833E-09  7.73506E-10  8.77544E-10  6.27609E-10  7.52461E-11 -1.06864E-09 -3.05327E-10
  -1.46479E-09 -4.87093E-10 -1.73638E-10  2.95831E-10  2.75470E-10  3.74474E-10  1.33724E-11  8.19406E-10  2.80639E-10  2.95565E-10
  -1.05835E-10 -5.04464E-10 -1.23888E-09 -1.17566E-09 -1.93705E-09 -1.39864E-09 -1.13032E-09 -5.98437E-10 -2.27154E-10 -1.56693E-10
  -6.12695E-10  6.40517E-11 -3.69637E-11  6.42794E-10  7.57181E-10  2.58860E-10  1.56218E-10  1.74420E-09  2.17126E-09  3.75134E-09
   3.94873E-09  3.59931E-09  2.72525E-09  3.22732E-09  3.79040E-09  4.62522E-09  3.61343E-09  3.74310E-09  2.76988E-09  3.29779E-09
   2.78278E-09  3.08271E-09  1.87236E-09  2.49871E-09  2.22733E-09  2.84661E-09  2.35544E-09  2.34952E-09  2.80645E-09  2.64206E-09
   2.96060E-09  3.26321E-09  3.09497E-09  3.05557E-09  3.28815E-09  4.35009E-09  4.74914E-09  5.10585E-09  7.18981E-09  1.03221E-08
   1.31642E-08  1.20342E-08  7.66291E-09  3.95089E-09  1.51956E-09 -3.48639E-10 -1.49071E-09 -2.76068E-09 -4.76298E-09 -5.12762E-09
  -6.52196E-09 -7.55088E-09 -8.93710E-09 -9.94861E-09 -1.12459E-08 -1.21749E-08 -1.45676E-08 -1.54751E-08 -1.65021E-08 -1.72445E-08
  -1.93465E-08 -1.99274E-08 -2.12031E-08 -2.20426E-08 -2.28869E-08 -2.25514E-08 -2.29258E-08 -2.21890E-08 -2.12484E-08 -1.94851E-08
  -1.77910E-08 -1.59399E-08 -1.37550E-08 -1.10231E-08 -8.44690E-09 -5.80332E-09 -3.76590E-09 -1.34715E-09 -1.61572E-10  1.24244E-09
   1.72208E-09  2.17936E-09  2.50060E-09  2.63188E-09  2.00739E-09  1.61344E-09  7.86446E-10  1.06047E-10 -4.56301E-10 -5.02006E-10
  -3.88516E-10 -6.67338E-10 -3.86512E-10 -4.82926E-10 -3.00347E-10 -6.24738E-10 -3.57062E-10 -9.48427E-10 -6.18708E-10 -7.43632E-10
  -9.63004E-10 -4.11212E-10 -9.43719E-10 -9.88247E-10 -3.56336E-10 -4.85360E-10 -8.35305E-10 -7.09108E-10 -1.43524E-10 -4.76899E-10
  -1.18056E-10 -7.64932E-10 -9.95212E-10 -5.32395E-10 -4.45543E-10 -5.50322E-10 -4.00902E-10 -3.06250E-10 -5.48023E-10 -3.38815E-10
   3.31196E-11 -3.25616E-10 -1.20141E-10  2.31068E-10  1.16887E-10  9.21842E-11 -4.56191E-10 -2.84320E-10 -1.14036E-09 -9.50535E-10
  -8.12188E-10 -5.24163E-10 -1.33817E-09 -7.90533E-10 -1.14042E-09 -1.09746E-10 -2.91386E-11  2.35802E-10  3.63561E-10  8.33456E-10
   7.41518E-10  6.93078E-10  1.00364E-09  8.74466E-10  5.81366E-10 -1.09621E-11 -1.92776E-10  1.58773E-11 -6.73601E-10 -1.19044E-10
  -5.33270E-10 -4.01618E-10 -8.40896E-10 -1.13754E-09 -7.30010E-10 -6.37652E-10 -8.68989E-10 -6.74274E-10 -4.21743E-10 -3.43381E-10
  -6.27260E-10 -6.41848E-10 -1.49635E-10  3.36372E-11 -3.09751E-10 -8.36206E-11 -5.56638E-11 -1.96969E-10 -1.25248E-10 -1.19859E-10
  -5.53588E-12  4.67952E-11  3.02543E-11  1.81732E-10 -4.68980E-10  6.22537E-10 -2.63742E-10  1.01585E-10 -9.67815E-11  3.75360E-10
   2.75601E-10  6.86814E-11 -1.21581E-10  2.41484E-10  5.30350E-10  4.06539E-10  7.31638E-10  1.71721E-10  2.39677E-11  5.94791E-10
   3.83020E-10  5.81583E-10 -2.97023E-11  9.66995E-10  5.25949E-11  4.82046E-10  2.96068E-10  4.04173E-10  4.03293E-10  2.58567E-10
   4.96545E-10  5.04891E-10  5.23532E-10  4.26942E-10  3.03492E-10  6.06893E-10  6.82710E-10  9.84708E-11  5.14248E-10  8.73371E-10
   3.51821E-10  8.16960E-10  5.65390E-10  6.72877E-10  8.20523E-10  5.92641E-10  6.09745E-10  7.01959E-10  7.66488E-10  7.72433E-10
   9.64728E-10  1.03336E-09  3.36972E-10
 NY points of the fit to the data follow
   1.05581E-08  1.10083E-08  1.13557E-08  1.16339E-08  1.20370E-08  1.25044E-08  1.28408E-08  1.31436E-08  1.36266E-08  1.42106E-08
   1.47960E-08  1.52534E-08  1.54631E-08  1.53802E-08  1.48954E-08  1.41364E-08  1.33358E-08  1.25656E-08  1.19241E-08  1.15498E-08
   1.15618E-08  1.17672E-08  1.19258E-08  1.21542E-08  1.24312E-08  1.25529E-08  1.23438E-08  1.17951E-08  1.11280E-08  1.08246E-08
   1.08235E-08  1.06832E-08  1.06257E-08  1.07238E-08  1.08086E-08  1.10124E-08  1.13057E-08  1.15134E-08  1.15021E-08  1.12421E-08
   1.07888E-08  1.02236E-08  9.43268E-09  8.48861E-09  7.75632E-09  7.13094E-09  6.51438E-09  6.04374E-09  5.77968E-09  5.63845E-09
   5.57463E-09  5.56301E-09  5.56197E-09  5.59077E-09  5.65615E-09  5.70678E-09  5.73866E-09  5.74996E-09  5.73696E-09  5.70715E-09
   5.69385E-09  5.77096E-09  6.04319E-09  6.30319E-09  6.54722E-09  7.03374E-09  7.52400E-09  7.82427E-09  8.00257E-09  8.04172E-09
   7.90368E-09  7.56014E-09  7.09707E-09  6.62159E-09  6.16861E-09  5.59731E-09  5.16746E-09  5.05520E-09  4.86555E-09  4.62650E-09
   4.53484E-09  4.46595E-09  4.38798E-09  4.44045E-09  4.54935E-09  4.59754E-09  4.69456E-09  4.85913E-09  5.01136E-09  5.09869E-09
   5.08726E-09  5.01502E-09  4.88801E-09  4.58149E-09  4.20805E-09  3.95232E-09  3.60934E-09  3.20366E-09  2.93348E-09  2.69879E-09
   2.46300E-09  2.27729E-09  2.12628E-09  1.99728E-09  1.88336E-09  1.77997E-09  1.68433E-09  1.59470E-09  1.50980E-09  1.42868E-09
   1.35055E-09  1.27468E-09  1.20081E-09  1.12864E-09  1.05799E-09  9.88679E-10  9.20495E-10  8.53219E-10  7.86736E-10  7.20995E-10
   6.55839E-10  5.91287E-10  5.27253E-10  4.63700E-10  4.00593E-10  3.37915E-10  2.75639E-10  2.13758E-10  1.52280E-10  9.11893E-11
   3.04827E-11 -2.98340E-11 -8.97656E-11 -1.49295E-10 -2.08420E-10 -2.67125E-10 -3.25411E-10 -3.83263E-10 -4.40663E-10 -4.97599E-10
  -5.54042E-10 -6.09977E-10 -6.65383E-10 -7.20225E-10 -7.74496E-10 -8.28149E-10 -8.81137E-10 -9.33412E-10 -9.84937E-10 -1.03564E-09
  -1.08543E-09 -1.13426E-09 -1.18197E-09 -1.22841E-09 -1.27343E-09 -1.31676E-09 -1.35805E-09 -1.39684E-09 -1.43247E-09 -1.46391E-09
  -1.48964E-09 -1.50705E-09 -1.51162E-09 -1.49442E-09 -1.43522E-09 -1.27541E-09 -7.57846E-10  7.57323E-10  2.66087E-09  4.37525E-09
   5.63770E-09  6.41365E-09  6.74697E-09  6.64791E-09  6.04017E-09  4.80107E-09  2.91024E-09  6.66995E-10 -1.15454E-09 -1.75962E-09
  -2.00489E-09 -2.14467E-09 -2.23953E-09 -2.31088E-09 -2.36823E-09 -2.41644E-09 -2.45825E-09 -2.49533E-09 -2.52874E-09 -2.55919E-09
  -2.58719E-09 -2.61307E-09 -2.63710E-09 -2.65946E-09 -2.68032E-09 -2.69978E-09 -2.71794E-09 -2.73486E-09 -2.75062E-09 -2.76525E-09
  -2.77880E-09 -2.79131E-09 -2.80280E-09 -2.81331E-09 -2.82285E-09 -2.83145E-09 -2.83912E-09 -2.84588E-09 -2.85176E-09 -2.85675E-09
  -2.86088E-09 -2.86415E-09 -2.86658E-09 -2.86818E-09 -2.86895E-09 -2.86892E-09 -2.86808E-09 -2.86645E-09 -2.86404E-09 -2.86085E-09
  -2.85689E-09 -2.85217E-09 -2.84670E-09 -2.84048E-09 -2.83353E-09 -2.82585E-09 -2.81745E-09 -2.80833E-09 -2.79851E-09 -2.78799E-09
  -2.77677E-09 -2.76487E-09 -2.75228E-09 -2.73902E-09 -2.72510E-09 -2.71052E-09 -2.69529E-09 -2.67941E-09 -2.66290E-09 -2.64575E-09
  -2.62797E-09 -2.60958E-09 -2.59058E-09 -2.57097E-09 -2.55077E-09 -2.52999E-09 -2.50865E-09 -2.48676E-09 -2.46432E-09 -2.44136E-09
  -2.41788E-09 -2.39390E-09 -2.36942E-09 -2.34446E-09 -2.31903E-09 -2.29315E-09 -2.26683E-09 -2.24007E-09 -2.21289E-09 -2.18531E-09
  -2.15733E-09 -2.12896E-09 -2.10023E-09 -2.07113E-09 -2.04169E-09 -2.01191E-09 -1.98181E-09 -1.95140E-09 -1.92069E-09 -1.88969E-09
  -1.85841E-09 -1.82688E-09 -1.79509E-09 -1.76306E-09 -1.73081E-09 -1.69834E-09 -1.66567E-09 -1.63281E-09 -1.59977E-09 -1.56656E-09
  -1.53320E-09 -1.49969E-09 -1.46605E-09 -1.43230E-09 -1.39844E-09 -1.36448E-09 -1.33044E-09 -1.29634E-09 -1.26216E-09 -1.22795E-09
  -1.19369E-09 -1.15943E-09 -1.12514E-09 -1.09086E-09 -1.05659E-09 -1.02234E-09 -9.88135E-10 -9.53980E-10 -9.19889E-10 -8.85869E-10
  -8.51926E-10 -8.18074E-10 -7.84351E-10 -7.50734E-10 -7.17233E-10 -6.83842E-10 -6.50557E-10 -6.17380E-10 -5.84302E-10 -5.51328E-10
  -5.18452E-10 -4.85670E-10 -4.52978E-10 -4.20380E-10 -3.87866E-10 -3.55437E-10 -3.23087E-10 -2.90818E-10 -2.58623E-10 -2.26504E-10
  -1.94453E-10 -1.62470E-10 -1.30554E-10 -9.87018E-11 -6.69098E-11 -3.51713E-11 -3.48535E-12  2.81462E-11  5.97243E-11  9.12641E-11
   1.22754E-10  1.54198E-10  1.85614E-10  2.16991E-10  2.48327E-10  2.79642E-10  3.10932E-10  3.42188E-10  3.73425E-10  4.04647E-10
   4.35842E-10  4.67035E-10  4.98208E-10  5.29376E-10  5.60533E-10  5.91689E-10  6.22847E-10  6.54005E-10  6.85168E-10  7.16342E-10
   7.47521E-10  7.78715E-10  8.09922E-10  8.41146E-10  8.72400E-10  9.03672E-10  9.34965E-10  9.66292E-10  9.97649E-10  1.02903E-09
   1.06047E-09  1.09193E-09  1.12345E-09
 NY background values follow
     7.489E-09    7.425E-09    7.361E-09    7.298E-09    7.234E-09    7.170E-09    7.106E-09    7.042E-09    6.979E-09    6.915E-09
     6.851E-09    6.787E-09    6.724E-09    6.660E-09    6.596E-09    6.533E-09    6.469E-09    6.405E-09    6.342E-09    6.278E-09
     6.215E-09    6.151E-09    6.087E-09    6.024E-09    5.961E-09    5.897E-09    5.834E-09    5.770E-09    5.707E-09    5.644E-09
     5.581E-09    5.517E-09    5.454E-09    5.391E-09    5.328E-09    5.265E-09    5.202E-09    5.139E-09    5.076E-09    5.014E-09
     4.951E-09    4.888E-09    4.826E-09    4.763E-09    4.701E-09    4.638E-09    4.576E-09    4.513E-09    4.451E-09    4.389E-09
     4.327E-09    4.265E-09    4.203E-09    4.141E-09    4.079E-09    4.017E-09    3.956E-09    3.894E-09    3.832E-09    3.771E-09
     3.710E-09    3.648E-09    3.587E-09    3.526E-09    3.465E-09    3.404E-09    3.343E-09    3.282E-09    3.222E-09    3.161E-09
     3.101E-09    3.040E-09    2.980E-09    2.919E-09    2.859E-09    2.799E-09    2.739E-09    2.679E-09    2.619E-09    2.559E-09
     2.499E-09    2.439E-09    2.379E-09    2.319E-09    2.260E-09    2.200E-09    2.141E-09    2.081E-09    2.022E-09    1.962E-09
     1.903E-09    1.844E-09    1.784E-09    1.725E-09    1.666E-09    1.607E-09    1.548E-09    1.489E-09    1.430E-09    1.371E-09
     1.312E-09    1.253E-09    1.194E-09    1.135E-09    1.076E-09    1.018E-09    9.589E-10    9.002E-10    8.415E-10    7.828E-10
     7.242E-10    6.655E-10    6.069E-10    5.484E-10    4.898E-10    4.313E-10    3.727E-10    3.142E-10    2.557E-10    1.973E-10
     1.388E-10    8.031E-11    2.185E-11   -3.657E-11   -9.494E-11   -1.533E-10   -2.115E-10   -2.696E-10   -3.277E-10   -3.856E-10
    -4.433E-10   -5.009E-10   -5.583E-10   -6.156E-10   -6.726E-10   -7.294E-10   -7.860E-10   -8.423E-10   -8.983E-10   -9.540E-10
    -1.009E-09   -1.065E-09   -1.119E-09   -1.174E-09   -1.228E-09   -1.282E-09   -1.335E-09   -1.388E-09   -1.440E-09   -1.492E-09
    -1.544E-09   -1.595E-09   -1.645E-09   -1.695E-09   -1.745E-09   -1.794E-09   -1.842E-09   -1.890E-09   -1.937E-09   -1.984E-09
    -2.030E-09   -2.075E-09   -2.120E-09   -2.164E-09   -2.207E-09   -2.250E-09   -2.291E-09   -2.333E-09   -2.373E-09   -2.413E-09
    -2.451E-09   -2.489E-09   -2.527E-09   -2.563E-09   -2.599E-09   -2.633E-09   -2.667E-09   -2.700E-09   -2.732E-09   -2.763E-09
    -2.793E-09   -2.822E-09   -2.850E-09   -2.877E-09   -2.903E-09   -2.929E-09   -2.953E-09   -2.976E-09   -2.999E-09   -3.020E-09
    -3.041E-09   -3.060E-09   -3.079E-09   -3.097E-09   -3.113E-09   -3.129E-09   -3.144E-09   -3.159E-09   -3.172E-09   -3.184E-09
    -3.196E-09   -3.207E-09   -3.216E-09   -3.225E-09   -3.233E-09   -3.241E-09   -3.247E-09   -3.253E-09   -3.258E-09   -3.262E-09
    -3.265E-09   -3.267E-09   -3.269E-09   -3.270E-09   -3.270E-09   -3.269E-09   -3.268E-09   -3.265E-09   -3.262E-09   -3.258E-09
    -3.254E-09   -3.249E-09   -3.243E-09   -3.236E-09   -3.229E-09   -3.220E-09   -3.212E-09   -3.202E-09   -3.192E-09   -3.181E-09
    -3.169E-09   -3.157E-09   -3.144E-09   -3.130E-09   -3.116E-09   -3.101E-09   -3.086E-09   -3.069E-09   -3.053E-09   -3.035E-09
    -3.017E-09   -2.998E-09   -2.979E-09   -2.959E-09   -2.939E-09   -2.918E-09   -2.896E-09   -2.874E-09   -2.851E-09   -2.828E-09
    -2.804E-09   -2.780E-09   -2.755E-09   -2.730E-09   -2.704E-09   -2.678E-09   -2.652E-09   -2.625E-09   -2.597E-09   -2.570E-09
    -2.541E-09   -2.513E-09   -2.484E-09   -2.454E-09   -2.425E-09   -2.395E-09   -2.365E-09   -2.334E-09   -2.303E-09   -2.272E-09
    -2.240E-09   -2.209E-09   -2.177E-09   -2.144E-09   -2.112E-09   -2.079E-09   -2.046E-09   -2.013E-09   -1.980E-09   -1.947E-09
    -1.913E-09   -1.879E-09   -1.846E-09   -1.812E-09   -1.778E-09   -1.744E-09   -1.709E-09   -1.675E-09   -1.641E-09   -1.606E-09
    -1.572E-09   -1.537E-09   -1.503E-09   -1.469E-09   -1.434E-09   -1.400E-09   -1.365E-09   -1.331E-09   -1.297E-09   -1.262E-09
    -1.228E-09   -1.194E-09   -1.160E-09   -1.127E-09   -1.093E-09   -1.059E-09   -1.026E-09   -9.926E-10   -9.593E-10   -9.262E-10
    -8.931E-10   -8.602E-10   -8.273E-10   -7.946E-10   -7.619E-10   -7.293E-10   -6.967E-10   -6.643E-10   -6.319E-10   -5.996E-10
    -5.674E-10   -5.353E-10   -5.032E-10   -4.712E-10   -4.392E-10   -4.073E-10   -3.754E-10   -3.436E-10   -3.119E-10   -2.801E-10
    -2.485E-10   -2.169E-10   -1.853E-10   -1.537E-10   -1.222E-10   -9.071E-11   -5.925E-11   -2.781E-11    3.602E-12    3.500E-11
     6.638E-11    9.775E-11    1.291E-10    1.605E-10    1.918E-10    2.231E-10    2.545E-10    2.858E-10    3.172E-10    3.485E-10
     3.799E-10    4.113E-10    4.427E-10    4.741E-10    5.055E-10    5.370E-10    5.685E-10    6.000E-10    6.315E-10    6.631E-10
     6.947E-10    7.264E-10    7.581E-10
 GABA     Conc. = 1.85E-09
   7.68547E-09  7.62409E-09  7.56290E-09  7.50191E-09  7.44112E-09  7.38058E-09  7.32032E-09  7.26036E-09  7.20076E-09  7.14156E-09
   7.08282E-09  7.02461E-09  6.96708E-09  6.91026E-09  6.85435E-09  6.79951E-09  6.74583E-09  6.69358E-09  6.64316E-09  6.59487E-09
   6.54932E-09  6.50732E-09  6.46997E-09  6.43896E-09  6.41686E-09  6.40760E-09  6.41824E-09  6.46247E-09  6.57233E-09  6.83947E-09
   7.17496E-09  7.47323E-09  7.94562E-09  8.54117E-09  9.02192E-09  9.40677E-09  9.68629E-09  9.78579E-09  9.66092E-09  9.32546E-09
   8.85119E-09  8.32900E-09  7.64945E-09  6.88637E-09  6.38708E-09  5.99111E-09  5.54115E-09  5.22972E-09  5.04500E-09  4.91421E-09
   4.81242E-09  4.72881E-09  4.65801E-09  4.59756E-09  4.54645E-09  4.50476E-09  4.47400E-09  4.45720E-09  4.45985E-09  4.49255E-09
   4.57720E-09  4.77149E-09  5.15457E-09  5.52877E-09  5.89572E-09  6.45146E-09  6.96206E-09  7.27694E-09  7.44711E-09  7.44073E-09
   7.22290E-09  6.79802E-09  6.22989E-09  5.63512E-09  5.07870E-09  4.39889E-09  3.84715E-09  3.63459E-09  3.39157E-09  3.15890E-09
   3.13366E-09  3.15311E-09  3.18173E-09  3.37992E-09  3.62803E-09  3.82204E-09  4.07528E-09  4.34430E-09  4.54422E-09  4.66255E-09
   4.67442E-09  4.62040E-09  4.50886E-09  4.21523E-09  3.85325E-09  3.60735E-09  3.27289E-09  2.87500E-09  2.61214E-09  2.38412E-09
   2.15326E-09  1.97179E-09  1.82510E-09  1.70005E-09  1.58942E-09  1.48884E-09  1.39566E-09  1.30823E-09  1.22534E-09  1.14602E-09
   1.06955E-09  9.95188E-10  9.22699E-10  8.51804E-10  7.82339E-10  7.14119E-10  6.46950E-10  5.80619E-10  5.15018E-10  4.50099E-10
   3.85709E-10  3.21874E-10  2.58510E-10  1.95583E-10  1.33059E-10  7.09251E-11  9.15476E-12 -5.22556E-11 -1.13300E-10 -1.73991E-10
  -2.34332E-10 -2.94317E-10 -3.53950E-10 -4.13216E-10 -4.72113E-10 -5.30627E-10 -5.88759E-10 -6.46498E-10 -7.03829E-10 -7.60740E-10
  -8.17210E-10 -8.73226E-10 -9.28774E-10 -9.83827E-10 -1.03839E-09 -1.09242E-09 -1.14588E-09 -1.19875E-09 -1.25101E-09 -1.30260E-09
  -1.35350E-09 -1.40365E-09 -1.45298E-09 -1.50142E-09 -1.54888E-09 -1.59523E-09 -1.64030E-09 -1.68389E-09 -1.72570E-09 -1.76525E-09
  -1.80190E-09 -1.83454E-09 -1.86132E-09 -1.87871E-09 -1.87912E-09 -1.84244E-09 -1.69215E-09 -1.08524E-09 -2.55054E-10  5.17868E-10
   1.09468E-09  1.44991E-09  1.60327E-09  1.56540E-09  1.30829E-09  7.75492E-10 -5.80220E-11 -1.08931E-09 -2.00206E-09 -2.34413E-09
  -2.48075E-09 -2.56177E-09 -2.62009E-09 -2.66669E-09 -2.70630E-09 -2.74123E-09 -2.77279E-09 -2.80175E-09 -2.82860E-09 -2.85365E-09
  -2.87712E-09 -2.89918E-09 -2.91994E-09 -2.93948E-09 -2.95787E-09 -2.97516E-09 -2.99140E-09 -3.00661E-09 -3.02083E-09 -3.03408E-09
  -3.04638E-09 -3.05775E-09 -3.06821E-09 -3.07776E-09 -3.08642E-09 -3.09421E-09 -3.10113E-09 -3.10719E-09 -3.11241E-09 -3.11679E-09
  -3.12035E-09 -3.12308E-09 -3.12500E-09 -3.12612E-09 -3.12644E-09 -3.12598E-09 -3.12473E-09 -3.12271E-09 -3.11993E-09 -3.11638E-09
  -3.11208E-09 -3.10704E-09 -3.10125E-09 -3.09474E-09 -3.08750E-09 -3.07954E-09 -3.07087E-09 -3.06150E-09 -3.05143E-09 -3.04066E-09
  -3.02921E-09 -3.01708E-09 -3.00427E-09 -2.99080E-09 -2.97667E-09 -2.96189E-09 -2.94646E-09 -2.93039E-09 -2.91368E-09 -2.89635E-09
  -2.87839E-09 -2.85983E-09 -2.84065E-09 -2.82087E-09 -2.80051E-09 -2.77957E-09 -2.75807E-09 -2.73602E-09 -2.71343E-09 -2.69032E-09
  -2.66669E-09 -2.64256E-09 -2.61793E-09 -2.59283E-09 -2.56727E-09 -2.54125E-09 -2.51479E-09 -2.48789E-09 -2.46058E-09 -2.43287E-09
  -2.40476E-09 -2.37626E-09 -2.34740E-09 -2.31818E-09 -2.28861E-09 -2.25871E-09 -2.22849E-09 -2.19796E-09 -2.16712E-09 -2.13601E-09
  -2.10461E-09 -2.07296E-09 -2.04106E-09 -2.00892E-09 -1.97655E-09 -1.94397E-09 -1.91118E-09 -1.87821E-09 -1.84505E-09 -1.81174E-09
  -1.77827E-09 -1.74464E-09 -1.71090E-09 -1.67704E-09 -1.64307E-09 -1.60900E-09 -1.57486E-09 -1.54064E-09 -1.50636E-09 -1.47204E-09
  -1.43768E-09 -1.40331E-09 -1.36892E-09 -1.33453E-09 -1.30016E-09 -1.26580E-09 -1.23149E-09 -1.19723E-09 -1.16303E-09 -1.12891E-09
  -1.09486E-09 -1.06091E-09 -1.02708E-09 -9.93357E-10 -9.59752E-10 -9.26256E-10 -8.92867E-10 -8.59587E-10 -8.26405E-10 -7.93328E-10
  -7.60347E-10 -7.27461E-10 -6.94665E-10 -6.61963E-10 -6.29345E-10 -5.96811E-10 -5.64356E-10 -5.31982E-10 -4.99682E-10 -4.67459E-10
  -4.35303E-10 -4.03214E-10 -3.71193E-10 -3.39235E-10 -3.07337E-10 -2.75492E-10 -2.43700E-10 -2.11962E-10 -1.80277E-10 -1.48630E-10
  -1.17032E-10 -8.54810E-11 -5.39563E-11 -2.24708E-11  8.97327E-12  4.03973E-11  7.17967E-11  1.03163E-10  1.34509E-10  1.65842E-10
   1.97148E-10  2.28453E-10  2.59738E-10  2.91017E-10  3.22286E-10  3.53556E-10  3.84828E-10  4.16100E-10  4.47377E-10  4.78666E-10
   5.09961E-10  5.41270E-10  5.72594E-10  6.03935E-10  6.35307E-10  6.66697E-10  6.98109E-10  7.29555E-10  7.61032E-10  7.92537E-10
   8.24090E-10  8.55676E-10  8.87313E-10
 GPC      Conc. = 8.98E-11
   7.94983E-09  7.82694E-09  7.70564E-09  7.61962E-09  7.58140E-09  7.58913E-09  7.60905E-09  7.61428E-09  7.59473E-09  7.54708E-09
   7.47122E-09  7.36534E-09  7.22939E-09  7.07158E-09  6.90348E-09  6.75051E-09  6.62711E-09  6.53554E-09  6.46281E-09  6.39912E-09
   6.34453E-09  6.30597E-09  6.31096E-09  6.49531E-09  6.79495E-09  7.08476E-09  7.29650E-09  7.41343E-09  7.44218E-09  7.38825E-09
   7.24194E-09  6.98016E-09  6.58942E-09  6.10552E-09  5.65171E-09  5.42119E-09  5.30496E-09  5.21702E-09  5.13985E-09  5.06792E-09
   4.99890E-09  4.93169E-09  4.86567E-09  4.80050E-09  4.73592E-09  4.67182E-09  4.60807E-09  4.54461E-09  4.48142E-09  4.41845E-09
   4.35565E-09  4.29300E-09  4.23052E-09  4.16817E-09  4.10593E-09  4.04380E-09  3.98179E-09  3.91990E-09  3.85810E-09  3.79645E-09
   3.73488E-09  3.67341E-09  3.61206E-09  3.55081E-09  3.48965E-09  3.42857E-09  3.36759E-09  3.30670E-09  3.24588E-09  3.18515E-09
   3.12450E-09  3.06393E-09  3.00344E-09  2.94301E-09  2.88267E-09  2.82240E-09  2.76218E-09  2.70206E-09  2.64198E-09  2.58199E-09
   2.52205E-09  2.46217E-09  2.40235E-09  2.34260E-09  2.28291E-09  2.22326E-09  2.16368E-09  2.10415E-09  2.04467E-09  1.98524E-09
   1.92586E-09  1.86654E-09  1.80726E-09  1.74802E-09  1.68884E-09  1.62969E-09  1.57059E-09  1.51152E-09  1.45249E-09  1.39351E-09
   1.33456E-09  1.27565E-09  1.21677E-09  1.15792E-09  1.09911E-09  1.04033E-09  9.81563E-10  9.22838E-10  8.64146E-10  8.05467E-10
   7.46824E-10  6.88183E-10  6.29581E-10  5.70983E-10  5.12416E-10  4.53862E-10  3.95328E-10  3.36811E-10  2.78306E-10  2.19846E-10
   1.61344E-10  1.02872E-10  4.44131E-11 -1.40109E-11 -7.23898E-11 -1.30704E-10 -1.88943E-10 -2.47086E-10 -3.05116E-10 -3.63019E-10
  -4.20780E-10 -4.78377E-10 -5.35803E-10 -5.93033E-10 -6.50058E-10 -7.06855E-10 -7.63417E-10 -8.19720E-10 -8.75747E-10 -9.31487E-10
  -9.86919E-10 -1.04203E-09 -1.09681E-09 -1.15122E-09 -1.20526E-09 -1.25893E-09 -1.31218E-09 -1.36502E-09 -1.41742E-09 -1.46936E-09
  -1.52082E-09 -1.57181E-09 -1.62228E-09 -1.67222E-09 -1.72162E-09 -1.77045E-09 -1.81869E-09 -1.86631E-09 -1.91330E-09 -1.95959E-09
  -2.00516E-09 -2.04993E-09 -2.09379E-09 -2.13652E-09 -2.17767E-09 -2.21595E-09 -2.24554E-09 -2.25155E-09 -2.24893E-09 -2.25019E-09
  -2.26075E-09 -2.28113E-09 -2.31030E-09 -2.34807E-09 -2.39620E-09 -2.45749E-09 -2.53237E-09 -2.61401E-09 -2.68489E-09 -2.72709E-09
  -2.76164E-09 -2.79313E-09 -2.82272E-09 -2.85086E-09 -2.87775E-09 -2.90350E-09 -2.92817E-09 -2.95181E-09 -2.97445E-09 -2.99610E-09
  -3.01678E-09 -3.03651E-09 -3.05530E-09 -3.07317E-09 -3.09011E-09 -3.10614E-09 -3.12127E-09 -3.13550E-09 -3.14885E-09 -3.16131E-09
  -3.17290E-09 -3.18363E-09 -3.19349E-09 -3.20250E-09 -3.21067E-09 -3.21799E-09 -3.22448E-09 -3.23015E-09 -3.23500E-09 -3.23903E-09
  -3.24225E-09 -3.24467E-09 -3.24630E-09 -3.24714E-09 -3.24720E-09 -3.24648E-09 -3.24499E-09 -3.24274E-09 -3.23974E-09 -3.23598E-09
  -3.23148E-09 -3.22624E-09 -3.22026E-09 -3.21357E-09 -3.20615E-09 -3.19802E-09 -3.18919E-09 -3.17965E-09 -3.16942E-09 -3.15851E-09
