 LCModel (Version 6.3-1R) Copyright: S.W. Provencher.          Ref.: Magn. Reson. Med. 30:672-679 (1993).                
 onepulse 23x29_ftSpec_smooth_lcm
 26 lines in following concentration table = NCONC+1
    Conc.  %SD /Cr+PCr  Metabolite                                         
    0.000 999%   0.000 Ala                                                 
    0.000 999%   0.000 Asp                                                 
    0.000 999%   0.000 Cr                                                  
    0.000 999%   0.000 GABA                                                
 2.18E-11 999%   0.242 Glc                                                 
 1.25E-09  65%  13.880 Gln                                                 
    0.000 999%   0.000 Glu                                                 
    0.000 999%   0.000 Glyc                                                
 3.20E-11 999%   0.355 GPC                                                 
 1.87E-10 290%   2.078 GSH                                                 
 1.66E-09  38%  18.446 Ins                                                 
    0.000 999%   0.000 Lac                                                 
 4.44E-10  52%   4.934 NAAG                                                
    0.000 999%   0.000 NAA                                                 
    0.000 999%   0.000 PCh                                                 
 9.00E-11 406%   1.000 PCr                                                 
 8.86E-10 259%   9.847 PE                                                  
 2.01E-10 144%   2.229 Scyllo                                              
 4.66E-09  44%  51.823 Ser                                                 
    0.000 999%   0.000 Tau                                                 
 3.20E-11 999%   0.355 GPC+PCh                                             
 4.44E-10  52%   4.934 NAA+NAAG                                            
 1.66E-09  38%  18.446 Ins+Glyc                                            
 9.00E-11 406%   1.000 Cr+PCr                                              
 1.25E-09  65%  13.880 Glu+Gln                                             
   6 lines in following misc. output table
  FWHM = 0.101 ppm    S/N =   3                                            
  Data shift = 0.391 ppm                                                   
  Ph: -41 deg     -40.8 deg/ppm                                            
  alphaB,S = 1.1E+00,   4.4E+01                                            
    8 spline knots.   Ns = 5(1)                                            
  ( 6) 4 infls.   ( 3) 1 extrs.                                            
  363 points on ppm-axis = NY
      4.250000     4.238821     4.227641     4.216462     4.205282     4.194103     4.182923     4.171744     4.160564     4.149385
      4.138206     4.127026     4.115847     4.104667     4.093488     4.082308     4.071129     4.059949     4.048770     4.037591
      4.026411     4.015232     4.004052     3.992873     3.981693     3.970514     3.959334     3.948155     3.936975     3.925796
      3.914617     3.903437     3.892258     3.881078     3.869899     3.858719     3.847540     3.836360     3.825181     3.814002
      3.802822     3.791643     3.780463     3.769284     3.758104     3.746925     3.735745     3.724566     3.713387     3.702207
      3.691028     3.679848     3.668669     3.657489     3.646310     3.635130     3.623951     3.612772     3.601592     3.590413
      3.579233     3.568054     3.556874     3.545695     3.534515     3.523336     3.512156     3.500977     3.489798     3.478618
      3.467439     3.456259     3.445080     3.433900     3.422721     3.411541     3.400362     3.389183     3.378003     3.366824
      3.355644     3.344465     3.333285     3.322106     3.310926     3.299747     3.288568     3.277388     3.266209     3.255029
      3.243850     3.232670     3.221491     3.210311     3.199132     3.187953     3.176773     3.165594     3.154414     3.143235
      3.132055     3.120876     3.109696     3.098517     3.087337     3.076158     3.064979     3.053799     3.042620     3.031440
      3.020261     3.009081     2.997902     2.986722     2.975543     2.964364     2.953184     2.942005     2.930825     2.919646
      2.908466     2.897287     2.886107     2.874928     2.863749     2.852569     2.841390     2.830210     2.819031     2.807851
      2.796672     2.785492     2.774313     2.763134     2.751954     2.740775     2.729595     2.718416     2.707236     2.696057
      2.684877     2.673698     2.662519     2.651339     2.640160     2.628980     2.617801     2.606621     2.595442     2.584262
      2.573083     2.561903     2.550724     2.539545     2.528365     2.517186     2.506006     2.494827     2.483647     2.472468
      2.461288     2.450109     2.438930     2.427750     2.416571     2.405391     2.394212     2.383032     2.371853     2.360673
      2.349494     2.338315     2.327135     2.315956     2.304776     2.293597     2.282417     2.271238     2.260058     2.248879
      2.237700     2.226520     2.215341     2.204161     2.192982     2.181802     2.170623     2.159443     2.148264     2.137084
      2.125905     2.114726     2.103546     2.092367     2.081187     2.070008     2.058828     2.047649     2.036469     2.025290
      2.014111     2.002931     1.991752     1.980572     1.969393     1.958213     1.947034     1.935854     1.924675     1.913496
      1.902316     1.891137     1.879957     1.868778     1.857598     1.846419     1.835239     1.824060     1.812881     1.801701
      1.790522     1.779342     1.768163     1.756983     1.745804     1.734624     1.723445     1.712265     1.701086     1.689907
      1.678727     1.667548     1.656368     1.645189     1.634009     1.622830     1.611650     1.600471     1.589292     1.578112
      1.566933     1.555753     1.544574     1.533394     1.522215     1.511035     1.499856     1.488677     1.477497     1.466318
      1.455138     1.443959     1.432779     1.421600     1.410420     1.399241     1.388062     1.376882     1.365703     1.354523
      1.343344     1.332164     1.320985     1.309805     1.298626     1.287446     1.276267     1.265088     1.253908     1.242729
      1.231549     1.220370     1.209190     1.198011     1.186831     1.175652     1.164473     1.153293     1.142114     1.130934
      1.119755     1.108575     1.097396     1.086216     1.075037     1.063858     1.052678     1.041499     1.030319     1.019140
      1.007960     0.996781     0.985601     0.974422     0.963243     0.952063     0.940884     0.929704     0.918525     0.907345
      0.896166     0.884986     0.873807     0.862628     0.851448     0.840269     0.829089     0.817910     0.806730     0.795551
      0.784371     0.773192     0.762012     0.750833     0.739654     0.728474     0.717295     0.706115     0.694936     0.683756
      0.672577     0.661397     0.650218     0.639039     0.627859     0.616680     0.605500     0.594321     0.583141     0.571962
      0.560782     0.549603     0.538424     0.527244     0.516065     0.504885     0.493706     0.482526     0.471347     0.460167
      0.448988     0.437809     0.426629     0.415450     0.404270     0.393091     0.381911     0.370732     0.359552     0.348373
      0.337193     0.326014     0.314835     0.303655     0.292476     0.281296     0.270117     0.258937     0.247758     0.236578
      0.225399     0.214220     0.203040
 NY phased data points follow
   8.14498E-09  7.60752E-09  7.02938E-09  7.11164E-09  6.91133E-09  6.50668E-09  6.02416E-09  6.39113E-09  6.48177E-09  7.04782E-09
   7.53062E-09  8.20285E-09  8.64934E-09  7.97251E-09  8.03857E-09  8.19604E-09  8.08592E-09  8.23681E-09  7.19305E-09  7.60750E-09
   6.99244E-09  7.81081E-09  8.30792E-09  8.26696E-09  7.47877E-09  7.32918E-09  7.01610E-09  7.01113E-09  8.34875E-09  9.76019E-09
   1.04848E-08  1.04318E-08  9.60318E-09  9.40517E-09  8.47455E-09  8.73914E-09  8.31995E-09  8.24616E-09  7.44811E-09  7.71281E-09
   7.62540E-09  7.83931E-09  7.63949E-09  7.17576E-09  6.97368E-09  6.27314E-09  6.23069E-09  6.38943E-09  6.43055E-09  6.59010E-09
   6.34853E-09  5.80178E-09  5.02222E-09  4.87430E-09  4.90681E-09  4.68805E-09  4.94404E-09  4.48505E-09  5.11894E-09  5.99067E-09
   7.81481E-09  8.62085E-09  8.49333E-09  8.55393E-09  7.87097E-09  7.17704E-09  6.81481E-09  6.86955E-09  5.90445E-09  5.35898E-09
   5.03569E-09  4.43721E-09  3.78367E-09  2.68894E-09  2.56443E-09  4.89782E-09  7.39981E-09  1.02940E-08  1.19456E-08  1.15494E-08
   1.06569E-08  1.11648E-08  1.02565E-08  1.07744E-08  9.87002E-09  9.69365E-09  9.60786E-09  9.72335E-09  9.28869E-09  9.16924E-09
   9.11828E-09  8.66816E-09  8.29447E-09  7.69624E-09  7.92974E-09  7.31550E-09  7.22121E-09  6.93851E-09  7.28575E-09  7.51538E-09
   7.04545E-09  7.17161E-09  6.94216E-09  7.24308E-09  7.43980E-09  6.31574E-09  6.21580E-09  5.64592E-09  4.79095E-09  5.29991E-09
   4.83458E-09  5.32289E-09  5.18037E-09  5.16457E-09  4.97816E-09  5.58691E-09  5.20080E-09  5.56367E-09  5.30959E-09  4.83724E-09
   4.53266E-09  3.79295E-09  3.02441E-09  3.09677E-09  2.63994E-09  2.96526E-09  2.95909E-09  2.63266E-09  2.34094E-09  2.38083E-09
   2.12059E-09  2.57925E-09  2.48795E-09  1.34452E-09  1.48038E-09  1.76342E-09  2.29248E-09  3.59138E-09  4.07159E-09  4.09907E-09
   3.75612E-09  4.18108E-09  5.13523E-09  5.82940E-09  6.14253E-09  6.13039E-09  5.84075E-09  6.28531E-09  6.47431E-09  6.41737E-09
   5.79160E-09  6.32939E-09  5.93046E-09  6.70798E-09  5.93544E-09  6.51777E-09  6.25905E-09  6.47567E-09  6.74581E-09  7.14926E-09
   6.83198E-09  6.52799E-09  6.49707E-09  7.24869E-09  6.65065E-09  7.06184E-09  8.59579E-09  1.23185E-08  1.66022E-08  1.84078E-08
   1.79586E-08  1.74659E-08  1.68477E-08  1.62672E-08  1.64637E-08  1.52799E-08  1.49594E-08  1.48393E-08  1.40583E-08  1.35883E-08
   1.29881E-08  1.22398E-08  1.19274E-08  1.07105E-08  8.96389E-09  7.55388E-09  6.68419E-09  5.05785E-09  2.67710E-09  1.24916E-09
  -1.14297E-09 -3.61907E-09 -5.97056E-09 -7.85434E-09 -1.05282E-08 -1.20780E-08 -1.41376E-08 -1.45945E-08 -1.56413E-08 -1.60195E-08
  -1.60913E-08 -1.51868E-08 -1.39627E-08 -1.25932E-08 -1.07810E-08 -8.60609E-09 -7.19651E-09 -4.96487E-09 -4.18673E-09 -2.86194E-09
  -1.96039E-09 -1.01568E-09 -1.00959E-09 -4.22787E-10 -1.06220E-09 -1.23582E-09 -1.79600E-09 -1.35983E-09 -1.61300E-09 -1.15484E-09
  -1.26222E-09 -7.71160E-10 -1.26550E-09 -6.19878E-10 -1.19975E-09 -1.48836E-09 -1.18933E-09 -1.44606E-09 -1.29119E-09 -8.37972E-10
  -1.37812E-09 -1.15702E-09 -9.06958E-10 -7.80290E-10 -1.42320E-09 -1.02136E-09 -1.32419E-09 -8.82532E-10 -7.11398E-10 -1.22704E-09
  -1.26651E-09 -8.69904E-10 -9.49087E-10 -8.55151E-10 -7.72986E-10 -6.09902E-10 -1.13725E-09 -1.03640E-09 -8.57184E-10 -1.34774E-09
  -9.84798E-10 -8.17104E-10 -1.51087E-10 -3.12456E-10 -1.50490E-10 -3.22365E-10 -7.02757E-10 -8.30171E-10 -4.73256E-10 -8.92620E-10
  -1.06525E-09 -1.41957E-09 -1.95889E-09 -1.15136E-09 -1.34963E-09 -1.29939E-09 -1.13932E-09 -6.09256E-10 -1.00029E-09 -4.64139E-10
  -2.23034E-10  6.40086E-11  2.41453E-11 -2.71729E-10 -1.53688E-10 -3.11802E-10 -4.44840E-10 -1.18984E-10 -4.57587E-10 -6.93135E-11
  -8.06191E-10 -9.52629E-10 -8.45512E-10 -7.91254E-10 -1.18951E-09 -1.06468E-09 -1.04453E-09 -8.56864E-10 -1.32255E-09 -1.31357E-09
  -1.11247E-09 -9.51798E-10 -1.30991E-09 -9.04434E-10 -1.10712E-09 -1.03343E-09 -1.15572E-09 -1.16471E-09 -1.08013E-09 -1.25422E-09
  -7.60367E-10 -1.25134E-09 -1.17260E-09 -7.90994E-10 -1.39657E-09 -1.01537E-09 -1.34545E-09 -8.10781E-10 -9.87593E-10 -9.74959E-10
  -1.42705E-09 -1.04809E-09 -1.26013E-09 -8.60232E-10 -4.67434E-10 -1.12636E-09 -1.03573E-09 -9.77730E-10 -7.74899E-10 -1.15358E-09
  -1.05126E-09 -6.30315E-10 -1.41023E-09 -8.04542E-10 -1.26426E-09 -7.75785E-10 -1.31998E-09 -1.07930E-09 -1.20988E-09 -8.77202E-10
  -1.09638E-09 -1.16665E-09 -1.52445E-09 -8.29449E-10 -1.16466E-09 -1.53833E-09 -1.17386E-09 -1.30879E-09 -1.32773E-09 -1.25709E-09
  -1.41487E-09 -1.14479E-09 -1.24631E-09 -1.31113E-09 -1.42947E-09 -1.51172E-09 -1.36029E-09 -1.44455E-09 -9.20439E-10 -1.52151E-09
  -1.42231E-09 -8.02537E-10 -1.52644E-09 -1.05367E-09 -1.48417E-09 -1.05154E-09 -1.53410E-09 -1.38266E-09 -1.69729E-09 -1.27526E-09
  -1.00147E-09 -9.37543E-10 -1.74692E-09
 NY points of the fit to the data follow
   6.16453E-09  7.77007E-09  8.03740E-09  7.54582E-09  7.47988E-09  7.80945E-09  7.72400E-09  6.87592E-09  6.01154E-09  5.89733E-09
   6.23965E-09  6.78689E-09  7.28255E-09  7.77379E-09  8.25070E-09  8.48829E-09  8.45243E-09  8.49779E-09  8.61684E-09  8.21164E-09
   7.56034E-09  7.09255E-09  6.88503E-09  6.76820E-09  6.89321E-09  7.39428E-09  8.18843E-09  8.96332E-09  9.35900E-09  9.28314E-09
   9.35117E-09  9.40025E-09  9.33603E-09  9.21264E-09  9.07639E-09  8.75766E-09  8.34893E-09  7.96434E-09  7.70641E-09  7.53475E-09
   7.41263E-09  7.30485E-09  7.14150E-09  6.92020E-09  6.71529E-09  6.47417E-09  6.24623E-09  6.01385E-09  5.78923E-09  5.61814E-09
   5.47249E-09  5.35570E-09  5.21686E-09  5.05490E-09  5.03466E-09  5.25571E-09  5.47607E-09  5.76463E-09  6.20198E-09  6.63319E-09
   6.94534E-09  7.21742E-09  7.45225E-09  7.62627E-09  7.61972E-09  7.42680E-09  7.21954E-09  6.99219E-09  6.57360E-09  6.21932E-09
   6.01315E-09  5.96201E-09  6.06775E-09  6.20780E-09  6.36314E-09  6.63437E-09  7.46010E-09  8.60520E-09  9.69144E-09  1.04831E-08
   1.09448E-08  1.11434E-08  1.11907E-08  1.13089E-08  1.14069E-08  1.11556E-08  1.04966E-08  9.59102E-09  8.99557E-09  8.57911E-09
   8.25408E-09  7.98695E-09  7.76058E-09  7.56329E-09  7.38480E-09  7.22279E-09  7.07957E-09  6.94897E-09  6.82185E-09  6.69547E-09
   6.58161E-09  6.48198E-09  6.38624E-09  6.29043E-09  6.20000E-09  6.11469E-09  6.03356E-09  5.95589E-09  5.88087E-09  5.80816E-09
   5.73752E-09  5.66861E-09  5.60120E-09  5.53507E-09  5.47001E-09  5.40587E-09  5.34251E-09  5.27976E-09  5.21752E-09  5.15572E-09
   5.09418E-09  5.03290E-09  4.97174E-09  4.91067E-09  4.84960E-09  4.78848E-09  4.72724E-09  4.66588E-09  4.60430E-09  4.54249E-09
   4.48041E-09  4.41800E-09  4.35526E-09  4.29216E-09  4.22867E-09  4.16474E-09  4.10043E-09  4.03565E-09  3.97043E-09  3.90472E-09
   3.83857E-09  3.77196E-09  3.70489E-09  3.63737E-09  3.56943E-09  3.50111E-09  3.43244E-09  3.36351E-09  3.29442E-09  3.22530E-09
   3.15630E-09  3.08762E-09  3.01949E-09  2.95221E-09  2.88618E-09  2.82195E-09  2.76023E-09  2.70207E-09  2.64898E-09  2.60324E-09
   2.56849E-09  2.55090E-09  2.56165E-09  2.62341E-09  2.78938E-09  3.21848E-09  4.62397E-09  9.48242E-09  1.49943E-08  1.86126E-08
   1.98317E-08  1.94930E-08  1.87392E-08  1.82546E-08  1.79195E-08  1.68838E-08  1.41163E-08  9.29832E-09  4.18455E-09  2.37263E-09
   1.71909E-09  1.36555E-09  1.12883E-09  9.49488E-10  8.02583E-10  6.75876E-10  5.62680E-10  4.59065E-10  3.62508E-10  2.71418E-10
   1.84715E-10  1.01597E-10  2.15424E-11 -5.58562E-11 -1.30861E-10 -2.03715E-10 -2.74588E-10 -3.43562E-10 -4.10746E-10 -4.76227E-10
  -5.40037E-10 -6.02214E-10 -6.62776E-10 -7.21749E-10 -7.79155E-10 -8.34968E-10 -8.89211E-10 -9.41881E-10 -9.92979E-10 -1.04246E-09
  -1.09037E-09 -1.13666E-09 -1.18134E-09 -1.22438E-09 -1.26580E-09 -1.30555E-09 -1.34364E-09 -1.38007E-09 -1.41480E-09 -1.44788E-09
  -1.47933E-09 -1.50918E-09 -1.53745E-09 -1.56420E-09 -1.58943E-09 -1.61320E-09 -1.63552E-09 -1.65643E-09 -1.67596E-09 -1.69414E-09
  -1.71100E-09 -1.72657E-09 -1.74088E-09 -1.75397E-09 -1.76587E-09 -1.77660E-09 -1.78620E-09 -1.79469E-09 -1.80211E-09 -1.80849E-09
  -1.81386E-09 -1.81826E-09 -1.82170E-09 -1.82422E-09 -1.82585E-09 -1.82662E-09 -1.82657E-09 -1.82571E-09 -1.82408E-09 -1.82171E-09
  -1.81863E-09 -1.81486E-09 -1.81045E-09 -1.80539E-09 -1.79974E-09 -1.79352E-09 -1.78676E-09 -1.77947E-09 -1.77170E-09 -1.76346E-09
  -1.75478E-09 -1.74569E-09 -1.73621E-09 -1.72638E-09 -1.71619E-09 -1.70570E-09 -1.69492E-09 -1.68386E-09 -1.67256E-09 -1.66104E-09
  -1.64931E-09 -1.63740E-09 -1.62533E-09 -1.61312E-09 -1.60079E-09 -1.58835E-09 -1.57583E-09 -1.56325E-09 -1.55061E-09 -1.53795E-09
  -1.52526E-09 -1.51258E-09 -1.49991E-09 -1.48726E-09 -1.47466E-09 -1.46211E-09 -1.44963E-09 -1.43721E-09 -1.42489E-09 -1.41267E-09
  -1.40055E-09 -1.38855E-09 -1.37665E-09 -1.36486E-09 -1.35317E-09 -1.34159E-09 -1.33010E-09 -1.31871E-09 -1.30741E-09 -1.29621E-09
  -1.28510E-09 -1.27408E-09 -1.26315E-09 -1.25230E-09 -1.24153E-09 -1.23084E-09 -1.22024E-09 -1.20971E-09 -1.19926E-09 -1.18889E-09
  -1.17859E-09 -1.16836E-09 -1.15820E-09 -1.14811E-09 -1.13810E-09 -1.12815E-09 -1.11827E-09 -1.10845E-09 -1.09870E-09 -1.08902E-09
  -1.07940E-09 -1.06984E-09 -1.06035E-09 -1.05092E-09 -1.04156E-09 -1.03226E-09 -1.02302E-09 -1.01384E-09 -1.00473E-09 -9.95685E-10
  -9.86701E-10 -9.77782E-10 -9.68928E-10 -9.60139E-10 -9.51417E-10 -9.42762E-10 -9.34176E-10 -9.25658E-10 -9.17211E-10 -9.08835E-10
  -9.00532E-10 -8.92303E-10 -8.84150E-10 -8.76075E-10 -8.68078E-10 -8.60162E-10 -8.52329E-10 -8.44580E-10 -8.36918E-10 -8.29344E-10
  -8.21862E-10 -8.14473E-10 -8.07179E-10 -7.99985E-10 -7.92891E-10 -7.85901E-10 -7.79017E-10 -7.72243E-10 -7.65582E-10 -7.59036E-10
  -7.52608E-10 -7.46303E-10 -7.40122E-10
 NY background values follow
    -2.803E-10   -1.939E-10   -1.083E-10   -2.344E-11    6.060E-11    1.438E-10    2.263E-10    3.079E-10    3.886E-10    4.686E-10
     5.476E-10    6.259E-10    7.032E-10    7.798E-10    8.554E-10    9.302E-10    1.004E-09    1.077E-09    1.149E-09    1.220E-09
     1.291E-09    1.360E-09    1.428E-09    1.496E-09    1.563E-09    1.628E-09    1.693E-09    1.757E-09    1.820E-09    1.882E-09
     1.943E-09    2.003E-09    2.062E-09    2.120E-09    2.177E-09    2.233E-09    2.289E-09    2.343E-09    2.396E-09    2.449E-09
     2.500E-09    2.551E-09    2.600E-09    2.649E-09    2.697E-09    2.743E-09    2.789E-09    2.834E-09    2.878E-09    2.921E-09
     2.963E-09    3.004E-09    3.044E-09    3.083E-09    3.121E-09    3.158E-09    3.195E-09    3.230E-09    3.265E-09    3.298E-09
     3.331E-09    3.363E-09    3.393E-09    3.423E-09    3.452E-09    3.481E-09    3.508E-09    3.534E-09    3.560E-09    3.584E-09
     3.608E-09    3.631E-09    3.653E-09    3.674E-09    3.695E-09    3.714E-09    3.733E-09    3.751E-09    3.768E-09    3.784E-09
     3.799E-09    3.813E-09    3.827E-09    3.840E-09    3.852E-09    3.863E-09    3.873E-09    3.882E-09    3.890E-09    3.898E-09
     3.904E-09    3.910E-09    3.915E-09    3.919E-09    3.922E-09    3.924E-09    3.925E-09    3.926E-09    3.925E-09    3.924E-09
     3.921E-09    3.918E-09    3.914E-09    3.908E-09    3.902E-09    3.895E-09    3.887E-09    3.878E-09    3.868E-09    3.857E-09
     3.845E-09    3.832E-09    3.818E-09    3.803E-09    3.788E-09    3.771E-09    3.753E-09    3.734E-09    3.714E-09    3.693E-09
     3.671E-09    3.648E-09    3.624E-09    3.599E-09    3.573E-09    3.546E-09    3.518E-09    3.489E-09    3.459E-09    3.427E-09
     3.395E-09    3.361E-09    3.327E-09    3.291E-09    3.255E-09    3.217E-09    3.178E-09    3.138E-09    3.097E-09    3.055E-09
     3.012E-09    2.968E-09    2.922E-09    2.876E-09    2.828E-09    2.780E-09    2.730E-09    2.679E-09    2.627E-09    2.574E-09
     2.521E-09    2.466E-09    2.411E-09    2.354E-09    2.297E-09    2.239E-09    2.181E-09    2.121E-09    2.061E-09    2.001E-09
     1.940E-09    1.878E-09    1.816E-09    1.754E-09    1.691E-09    1.628E-09    1.564E-09    1.501E-09    1.437E-09    1.373E-09
     1.308E-09    1.244E-09    1.180E-09    1.115E-09    1.051E-09    9.868E-10    9.227E-10    8.587E-10    7.950E-10    7.315E-10
     6.684E-10    6.055E-10    5.431E-10    4.811E-10    4.195E-10    3.584E-10    2.979E-10    2.380E-10    1.787E-10    1.201E-10
     6.216E-11    4.965E-12   -5.144E-11   -1.070E-10   -1.618E-10   -2.156E-10   -2.686E-10   -3.205E-10   -3.715E-10   -4.214E-10
    -4.703E-10   -5.180E-10   -5.647E-10   -6.101E-10   -6.544E-10   -6.975E-10   -7.393E-10   -7.799E-10   -8.191E-10   -8.570E-10
    -8.936E-10   -9.287E-10   -9.625E-10   -9.948E-10   -1.026E-09   -1.055E-09   -1.083E-09   -1.110E-09   -1.134E-09   -1.158E-09
    -1.180E-09   -1.200E-09   -1.219E-09   -1.237E-09   -1.253E-09   -1.268E-09   -1.281E-09   -1.294E-09   -1.305E-09   -1.314E-09
    -1.323E-09   -1.330E-09   -1.337E-09   -1.342E-09   -1.346E-09   -1.349E-09   -1.351E-09   -1.351E-09   -1.351E-09   -1.350E-09
    -1.348E-09   -1.345E-09   -1.342E-09   -1.337E-09   -1.332E-09   -1.326E-09   -1.319E-09   -1.311E-09   -1.303E-09   -1.294E-09
    -1.284E-09   -1.274E-09   -1.263E-09   -1.252E-09   -1.240E-09   -1.228E-09   -1.215E-09   -1.202E-09   -1.188E-09   -1.174E-09
    -1.159E-09   -1.145E-09   -1.130E-09   -1.114E-09   -1.098E-09   -1.083E-09   -1.066E-09   -1.050E-09   -1.033E-09   -1.017E-09
    -9.999E-10   -9.830E-10   -9.659E-10   -9.488E-10   -9.316E-10   -9.144E-10   -8.971E-10   -8.799E-10   -8.626E-10   -8.454E-10
    -8.282E-10   -8.111E-10   -7.941E-10   -7.771E-10   -7.602E-10   -7.435E-10   -7.269E-10   -7.104E-10   -6.940E-10   -6.778E-10
    -6.618E-10   -6.459E-10   -6.302E-10   -6.146E-10   -5.993E-10   -5.840E-10   -5.690E-10   -5.540E-10   -5.393E-10   -5.246E-10
    -5.101E-10   -4.958E-10   -4.816E-10   -4.675E-10   -4.536E-10   -4.398E-10   -4.261E-10   -4.126E-10   -3.992E-10   -3.859E-10
    -3.727E-10   -3.597E-10   -3.468E-10   -3.340E-10   -3.213E-10   -3.088E-10   -2.963E-10   -2.840E-10   -2.718E-10   -2.597E-10
    -2.477E-10   -2.358E-10   -2.241E-10   -2.124E-10   -2.009E-10   -1.894E-10   -1.781E-10   -1.669E-10   -1.558E-10   -1.448E-10
    -1.339E-10   -1.232E-10   -1.125E-10   -1.020E-10   -9.153E-11   -8.121E-11   -7.100E-11   -6.090E-11   -5.093E-11   -4.106E-11
    -3.131E-11   -2.169E-11   -1.218E-11   -2.792E-12    6.472E-12    1.561E-11    2.463E-11    3.351E-11    4.227E-11    5.089E-11
     5.938E-11    6.774E-11    7.595E-11    8.403E-11    9.196E-11    9.975E-11    1.074E-10    1.149E-10    1.222E-10    1.294E-10
     1.364E-10    1.432E-10    1.499E-10
 Glc      Conc. = 2.18E-11
  -3.15388E-10 -2.21236E-10 -1.28956E-10 -3.76835E-11  5.20626E-11  1.41099E-10  2.27923E-10  3.12559E-10  3.93811E-10  4.70164E-10
   5.44843E-10  6.18742E-10  6.91660E-10  7.65187E-10  8.43027E-10  9.25709E-10  1.01085E-09  1.09601E-09  1.17802E-09  1.25628E-09
   1.33362E-09  1.41052E-09  1.48576E-09  1.55880E-09  1.62695E-09  1.68866E-09  1.74809E-09  1.80811E-09  1.86896E-09  1.93002E-09
   1.98988E-09  2.04829E-09  2.10617E-09  2.16286E-09  2.21770E-09  2.27182E-09  2.32540E-09  2.37770E-09  2.42885E-09  2.47935E-09
   2.52918E-09  2.57824E-09  2.62652E-09  2.67396E-09  2.72056E-09  2.76629E-09  2.81116E-09  2.85514E-09  2.89823E-09  2.94043E-09
   2.98172E-09  3.02212E-09  3.06160E-09  3.10019E-09  3.13787E-09  3.17464E-09  3.21051E-09  3.24549E-09  3.27953E-09  3.31270E-09
   3.34497E-09  3.37634E-09  3.40683E-09  3.43642E-09  3.46514E-09  3.49297E-09  3.51994E-09  3.54602E-09  3.57124E-09  3.59561E-09
   3.61912E-09  3.64177E-09  3.66360E-09  3.68457E-09  3.70472E-09  3.72403E-09  3.74250E-09  3.76013E-09  3.77692E-09  3.79287E-09
   3.80796E-09  3.82221E-09  3.83561E-09  3.84814E-09  3.85983E-09  3.87066E-09  3.88061E-09  3.88971E-09  3.89793E-09  3.90528E-09
   3.91174E-09  3.91734E-09  3.92203E-09  3.92585E-09  3.92877E-09  3.93078E-09  3.93190E-09  3.93211E-09  3.93140E-09  3.92979E-09
   3.92724E-09  3.92378E-09  3.91938E-09  3.91405E-09  3.90777E-09  3.90055E-09  3.89237E-09  3.88326E-09  3.87318E-09  3.86211E-09
   3.85010E-09  3.83710E-09  3.82311E-09  3.80814E-09  3.79218E-09  3.77522E-09  3.75727E-09  3.73831E-09  3.71833E-09  3.69736E-09
   3.67533E-09  3.65231E-09  3.62824E-09  3.60315E-09  3.57702E-09  3.54984E-09  3.52160E-09  3.49233E-09  3.46200E-09  3.43061E-09
   3.39816E-09  3.36463E-09  3.33005E-09  3.29439E-09  3.25766E-09  3.21983E-09  3.18095E-09  3.14097E-09  3.09992E-09  3.05776E-09
   3.01452E-09  2.97019E-09  2.92478E-09  2.87825E-09  2.83064E-09  2.78194E-09  2.73215E-09  2.68130E-09  2.62944E-09  2.57661E-09
   2.52282E-09  2.46814E-09  2.41259E-09  2.35621E-09  2.29904E-09  2.24112E-09  2.18250E-09  2.12321E-09  2.06331E-09  2.00283E-09
   1.94182E-09  1.88034E-09  1.81846E-09  1.75628E-09  1.69397E-09  1.63200E-09  1.57253E-09  1.52140E-09  1.47042E-09  1.41420E-09
   1.35226E-09  1.28694E-09  1.22097E-09  1.15578E-09  1.09087E-09  1.02408E-09  9.53033E-10  8.77424E-10  8.02250E-10  7.35671E-10
   6.71315E-10  6.07859E-10  5.45001E-10  4.82699E-10  4.20927E-10  3.59699E-10  2.99049E-10  2.39028E-10  1.79624E-10  1.20896E-10
   6.28995E-11  5.63331E-12 -5.08436E-11 -1.06507E-10 -1.61293E-10 -2.15193E-10 -2.68181E-10 -3.20182E-10 -3.71181E-10 -4.21162E-10
  -4.70076E-10 -5.17891E-10 -5.64569E-10 -6.10089E-10 -6.54429E-10 -6.97531E-10 -7.39388E-10 -7.79971E-10 -8.19258E-10 -8.57188E-10
  -8.93788E-10 -9.28993E-10 -9.62790E-10 -9.95162E-10 -1.02610E-09 -1.05555E-09 -1.08351E-09 -1.10997E-09 -1.13489E-09 -1.15831E-09
  -1.18024E-09 -1.20072E-09 -1.21977E-09 -1.23741E-09 -1.25367E-09 -1.26858E-09 -1.28217E-09 -1.29446E-09 -1.30549E-09 -1.31527E-09
  -1.32385E-09 -1.33124E-09 -1.33748E-09 -1.34260E-09 -1.34662E-09 -1.34958E-09 -1.35150E-09 -1.35240E-09 -1.35233E-09 -1.35131E-09
  -1.34936E-09 -1.34653E-09 -1.34284E-09 -1.33830E-09 -1.33296E-09 -1.32685E-09 -1.31998E-09 -1.31240E-09 -1.30413E-09 -1.29519E-09
  -1.28562E-09 -1.27544E-09 -1.26469E-09 -1.25337E-09 -1.24153E-09 -1.22920E-09 -1.21640E-09 -1.20314E-09 -1.18947E-09 -1.17540E-09
  -1.16097E-09 -1.14619E-09 -1.13109E-09 -1.11570E-09 -1.10003E-09 -1.08412E-09 -1.06798E-09 -1.05164E-09 -1.03512E-09 -1.01844E-09
  -1.00162E-09 -9.84676E-10 -9.67642E-10 -9.50524E-10 -9.33354E-10 -9.16137E-10 -8.98900E-10 -8.81659E-10 -8.64424E-10 -8.47217E-10
  -8.30056E-10 -8.12951E-10 -7.95921E-10 -7.78971E-10 -7.62123E-10 -7.45385E-10 -7.28773E-10 -7.12287E-10 -6.95950E-10 -6.79767E-10
  -6.63743E-10 -6.47888E-10 -6.32197E-10 -6.16667E-10 -6.01295E-10 -5.86080E-10 -5.71017E-10 -5.56106E-10 -5.41343E-10 -5.26725E-10
  -5.12252E-10 -4.97920E-10 -4.83728E-10 -4.69672E-10 -4.55751E-10 -4.41963E-10 -4.28307E-10 -4.14780E-10 -4.01381E-10 -3.88107E-10
  -3.74957E-10 -3.61930E-10 -3.49026E-10 -3.36240E-10 -3.23573E-10 -3.11023E-10 -2.98591E-10 -2.86272E-10 -2.74069E-10 -2.61979E-10
  -2.50002E-10 -2.38136E-10 -2.26382E-10 -2.14740E-10 -2.03207E-10 -1.91785E-10 -1.80473E-10 -1.69271E-10 -1.58179E-10 -1.47196E-10
  -1.36325E-10 -1.25563E-10 -1.14912E-10 -1.04372E-10 -9.39439E-11 -8.36282E-11 -7.34259E-11 -6.33372E-11 -5.33638E-11 -4.35059E-11
  -3.37654E-11 -2.41431E-11 -1.46405E-11 -5.25894E-12  3.99999E-12  1.31347E-11  2.21435E-11  3.10246E-11  3.97758E-11  4.83956E-11
   5.68816E-11  6.52315E-11  7.34433E-11  8.15143E-11  8.94424E-11  9.72245E-11  1.04859E-10  1.12342E-10  1.19671E-10  1.26843E-10
   1.33856E-10  1.40705E-10  1.47389E-10
 Gln      Conc. = 1.25E-09
  -1.53363E-09 -1.31348E-09 -1.01623E-09 -6.53398E-10 -2.65385E-10  1.11578E-10  4.51876E-10  7.31409E-10  9.48244E-10  1.17437E-09
   1.27846E-09  1.30066E-09  1.33853E-09  1.28455E-09  1.24768E-09  1.23419E-09  1.23665E-09  1.24991E-09  1.27073E-09  1.29698E-09
   1.32715E-09  1.36015E-09  1.39514E-09  1.43153E-09  1.46897E-09  1.50716E-09  1.54558E-09  1.58409E-09  1.62249E-09  1.66047E-09
   1.69784E-09  1.73442E-09  1.77006E-09  1.80461E-09  1.83793E-09  1.86987E-09  1.90028E-09  1.92898E-09  1.95576E-09  1.98044E-09
   2.00283E-09  2.02270E-09  2.03989E-09  2.05411E-09  2.06488E-09  2.07182E-09  2.07435E-09  2.07120E-09  2.06214E-09  2.04701E-09
   2.02343E-09  1.99050E-09  1.94966E-09  1.91287E-09  1.98220E-09  2.23665E-09  2.47734E-09  2.77210E-09  3.23635E-09  3.75322E-09
   4.20533E-09  4.62168E-09  4.98066E-09  5.23788E-09  5.34915E-09  5.30284E-09  5.20445E-09  5.07682E-09  4.75075E-09  4.42553E-09
   4.19102E-09  4.05981E-09  4.04147E-09  4.07744E-09  4.24244E-09  4.55525E-09  4.88164E-09  5.21821E-09  5.55368E-09  5.85907E-09
   6.11437E-09  6.26983E-09  6.28424E-09  6.27620E-09  6.21871E-09  6.00731E-09  5.81835E-09  5.66608E-09  5.46886E-09  5.30434E-09
   5.17704E-09  5.07522E-09  4.99173E-09  4.92101E-09  4.85905E-09  4.80424E-09  4.75520E-09  4.71056E-09  4.66962E-09  4.63171E-09
   4.59608E-09  4.56218E-09  4.52970E-09  4.49840E-09  4.46807E-09  4.43846E-09  4.40937E-09  4.38063E-09  4.35212E-09  4.32367E-09
   4.29526E-09  4.26674E-09  4.23803E-09  4.20908E-09  4.17981E-09  4.15017E-09  4.12012E-09  4.08959E-09  4.05854E-09  4.02696E-09
   3.99476E-09  3.96196E-09  3.92849E-09  3.89434E-09  3.85950E-09  3.82391E-09  3.78756E-09  3.75045E-09  3.71255E-09  3.67383E-09
   3.63428E-09  3.59388E-09  3.55264E-09  3.51053E-09  3.46753E-09  3.42362E-09  3.37884E-09  3.33312E-09  3.28649E-09  3.23892E-09
   3.19042E-09  3.14098E-09  3.09060E-09  3.03925E-09  2.98697E-09  2.93373E-09  2.87955E-09  2.82446E-09  2.76850E-09  2.71173E-09
   2.65418E-09  2.59592E-09  2.53698E-09  2.47746E-09  2.41742E-09  2.35697E-09  2.29623E-09  2.23536E-09  2.17460E-09  2.11427E-09
   2.05487E-09  1.99729E-09  1.94308E-09  1.89548E-09  1.86231E-09  1.86795E-09  2.02979E-09  2.68382E-09  3.36227E-09  3.75223E-09
   3.82138E-09  3.70086E-09  3.54421E-09  3.43209E-09  3.33353E-09  3.12345E-09  2.66435E-09  1.93371E-09  1.21148E-09  9.66872E-10
   8.34376E-10  7.34757E-10  6.49093E-10  5.70817E-10  4.97034E-10  4.26298E-10  3.57823E-10  2.91163E-10  2.25989E-10  1.62148E-10
   9.95470E-11  3.80800E-11 -2.22719E-11 -8.15425E-11 -1.39713E-10 -1.96808E-10 -2.52829E-10 -3.07723E-10 -3.61492E-10 -4.14136E-10
  -4.65616E-10 -5.15912E-10 -5.64992E-10 -6.12844E-10 -6.59452E-10 -7.04762E-10 -7.48772E-10 -7.91457E-10 -8.32800E-10 -8.72740E-10
  -9.11310E-10 -9.48444E-10 -9.84133E-10 -1.01836E-09 -1.05112E-09 -1.08236E-09 -1.11208E-09 -1.14027E-09 -1.16690E-09 -1.19200E-09
  -1.21558E-09 -1.23768E-09 -1.25832E-09 -1.27754E-09 -1.29535E-09 -1.31179E-09 -1.32689E-09 -1.34067E-09 -1.35316E-09 -1.36439E-09
