 LCModel (Version 6.3-1R) Copyright: S.W. Provencher.          Ref.: Magn. Reson. Med. 30:672-679 (1993).                
 onepulse 23x23_ftSpec_smooth_lcm
 26 lines in following concentration table = NCONC+1
    Conc.  %SD /Cr+PCr  Metabolite                                         
    0.000 999%   0.000 Ala                                                 
    0.000 999%   0.000 Asp                                                 
    0.000 999%   0.000 Cr                                                  
 1.45E-09  64%   6.457 GABA                                                
 2.65E-09  20%  11.751 Glc                                                 
    0.000 999%   0.000 Gln                                                 
 1.40E-09  59%   6.208 Glu                                                 
    0.000 999%   0.000 Glyc                                                
 1.28E-10  71%   0.566 GPC                                                 
 3.94E-10  84%   1.751 GSH                                                 
 1.82E-10 213%   0.806 Ins                                                 
    0.000 999%   0.000 Lac                                                 
    0.000 999%   0.000 NAAG                                                
 6.33E-10  46%   2.811 NAA                                                 
    0.000 999%   0.000 PCh                                                 
 2.25E-10 168%   1.000 PCr                                                 
    0.000 999%   0.000 PE                                                  
    0.000 999%   0.000 Scyllo                                              
    0.000 999%   0.000 Ser                                                 
    0.000 999%   0.000 Tau                                                 
 1.28E-10  71%   0.566 GPC+PCh                                             
 6.33E-10  46%   2.811 NAA+NAAG                                            
 1.82E-10 213%   0.806 Ins+Glyc                                            
 2.25E-10 168%   1.000 Cr+PCr                                              
 1.40E-09  59%   6.208 Glu+Gln                                             
   6 lines in following misc. output table
  FWHM = 0.045 ppm    S/N =   3                                            
  Data shift = 0.279 ppm                                                   
  Ph: -18 deg       6.8 deg/ppm                                            
  alphaB,S = 6.1E-01,   1.4E+01                                            
    8 spline knots.   Ns = 5(1)                                            
  (10) 3 infls.   ( 9) 1 extrs.                                            
  363 points on ppm-axis = NY
      4.250000     4.238821     4.227641     4.216462     4.205282     4.194103     4.182923     4.171744     4.160564     4.149385
      4.138206     4.127026     4.115847     4.104667     4.093488     4.082308     4.071129     4.059949     4.048770     4.037591
      4.026411     4.015232     4.004052     3.992873     3.981693     3.970514     3.959334     3.948155     3.936975     3.925796
      3.914617     3.903437     3.892258     3.881078     3.869899     3.858719     3.847540     3.836360     3.825181     3.814002
      3.802822     3.791643     3.780463     3.769284     3.758104     3.746925     3.735745     3.724566     3.713387     3.702207
      3.691028     3.679848     3.668669     3.657489     3.646310     3.635130     3.623951     3.612772     3.601592     3.590413
      3.579233     3.568054     3.556874     3.545695     3.534515     3.523336     3.512156     3.500977     3.489798     3.478618
      3.467439     3.456259     3.445080     3.433900     3.422721     3.411541     3.400362     3.389183     3.378003     3.366824
      3.355644     3.344465     3.333285     3.322106     3.310926     3.299747     3.288568     3.277388     3.266209     3.255029
      3.243850     3.232670     3.221491     3.210311     3.199132     3.187953     3.176773     3.165594     3.154414     3.143235
      3.132055     3.120876     3.109696     3.098517     3.087337     3.076158     3.064979     3.053799     3.042620     3.031440
      3.020261     3.009081     2.997902     2.986722     2.975543     2.964364     2.953184     2.942005     2.930825     2.919646
      2.908466     2.897287     2.886107     2.874928     2.863749     2.852569     2.841390     2.830210     2.819031     2.807851
      2.796672     2.785492     2.774313     2.763134     2.751954     2.740775     2.729595     2.718416     2.707236     2.696057
      2.684877     2.673698     2.662519     2.651339     2.640160     2.628980     2.617801     2.606621     2.595442     2.584262
      2.573083     2.561903     2.550724     2.539545     2.528365     2.517186     2.506006     2.494827     2.483647     2.472468
      2.461288     2.450109     2.438930     2.427750     2.416571     2.405391     2.394212     2.383032     2.371853     2.360673
      2.349494     2.338315     2.327135     2.315956     2.304776     2.293597     2.282417     2.271238     2.260058     2.248879
      2.237700     2.226520     2.215341     2.204161     2.192982     2.181802     2.170623     2.159443     2.148264     2.137084
      2.125905     2.114726     2.103546     2.092367     2.081187     2.070008     2.058828     2.047649     2.036469     2.025290
      2.014111     2.002931     1.991752     1.980572     1.969393     1.958213     1.947034     1.935854     1.924675     1.913496
      1.902316     1.891137     1.879957     1.868778     1.857598     1.846419     1.835239     1.824060     1.812881     1.801701
      1.790522     1.779342     1.768163     1.756983     1.745804     1.734624     1.723445     1.712265     1.701086     1.689907
      1.678727     1.667548     1.656368     1.645189     1.634009     1.622830     1.611650     1.600471     1.589292     1.578112
      1.566933     1.555753     1.544574     1.533394     1.522215     1.511035     1.499856     1.488677     1.477497     1.466318
      1.455138     1.443959     1.432779     1.421600     1.410420     1.399241     1.388062     1.376882     1.365703     1.354523
      1.343344     1.332164     1.320985     1.309805     1.298626     1.287446     1.276267     1.265088     1.253908     1.242729
      1.231549     1.220370     1.209190     1.198011     1.186831     1.175652     1.164473     1.153293     1.142114     1.130934
      1.119755     1.108575     1.097396     1.086216     1.075037     1.063858     1.052678     1.041499     1.030319     1.019140
      1.007960     0.996781     0.985601     0.974422     0.963243     0.952063     0.940884     0.929704     0.918525     0.907345
      0.896166     0.884986     0.873807     0.862628     0.851448     0.840269     0.829089     0.817910     0.806730     0.795551
      0.784371     0.773192     0.762012     0.750833     0.739654     0.728474     0.717295     0.706115     0.694936     0.683756
      0.672577     0.661397     0.650218     0.639039     0.627859     0.616680     0.605500     0.594321     0.583141     0.571962
      0.560782     0.549603     0.538424     0.527244     0.516065     0.504885     0.493706     0.482526     0.471347     0.460167
      0.448988     0.437809     0.426629     0.415450     0.404270     0.393091     0.381911     0.370732     0.359552     0.348373
      0.337193     0.326014     0.314835     0.303655     0.292476     0.281296     0.270117     0.258937     0.247758     0.236578
      0.225399     0.214220     0.203040
 NY phased data points follow
   1.25784E-08  1.24346E-08  1.40290E-08  1.48069E-08  1.73353E-08  1.83805E-08  1.97430E-08  1.88760E-08  1.71719E-08  1.43539E-08
   1.26048E-08  1.04758E-08  1.06900E-08  9.30065E-09  1.00440E-08  9.94459E-09  1.03812E-08  1.06149E-08  1.10579E-08  1.08997E-08
   1.15173E-08  1.11990E-08  1.09486E-08  1.01663E-08  9.40325E-09  9.31053E-09  9.10911E-09  8.06563E-09  8.02949E-09  8.12227E-09
   8.83341E-09  8.94855E-09  9.39571E-09  8.26934E-09  7.03554E-09  7.03388E-09  7.77674E-09  8.42556E-09  9.31243E-09  1.00539E-08
   8.45027E-09  6.62278E-09  5.06173E-09  3.84260E-09  2.71679E-09  3.18998E-09  3.24538E-09  3.26039E-09  3.64042E-09  2.63385E-09
   3.16323E-09  2.86132E-09  2.54683E-09  2.60616E-09  2.46725E-09  2.77063E-09  3.75366E-09  3.54215E-09  4.47686E-09  3.83766E-09
   3.39998E-09  3.40919E-09  3.40759E-09  4.05437E-09  5.17545E-09  5.61803E-09  6.68486E-09  6.84842E-09  8.91463E-09  1.05077E-08
   1.04054E-08  9.49842E-09  6.58797E-09  4.54272E-09  2.71894E-09  2.73379E-09  2.36825E-09  2.18655E-09  1.67644E-09  2.98724E-09
   2.71811E-09  2.99171E-09  4.11394E-09  5.33325E-09  7.64156E-09  1.11445E-08  1.26341E-08  1.25254E-08  9.65438E-09  6.85239E-09
   4.46735E-09  3.48841E-09  3.24410E-09  2.60211E-09  2.23829E-09  2.15938E-09  1.18455E-09  1.04094E-09  8.13606E-10  2.85620E-10
   1.04312E-10 -2.44011E-10 -5.47122E-10  1.65971E-10 -6.64251E-10 -3.19090E-10  5.70333E-10 -2.47210E-10  5.04144E-10  6.53402E-10
   1.22901E-10  4.02617E-11  1.78722E-10  5.48709E-11 -7.91411E-10 -4.03223E-10 -1.24586E-09 -1.03597E-09 -9.72687E-10  5.10320E-10
   9.96554E-10  5.11964E-10  7.18474E-10  6.33686E-10  8.52079E-10  8.56142E-10  1.96455E-10  4.13873E-10  7.00298E-11 -2.38340E-10
  -1.03388E-09 -1.12537E-09 -5.23707E-10 -7.99193E-10 -4.56384E-10  7.44073E-10  5.39945E-10  4.34493E-10  5.20962E-10  8.07301E-10
   9.51675E-10  7.04577E-10  4.02749E-10  5.94316E-10  5.98679E-10  2.30899E-09  3.02172E-09  2.96395E-09  2.71752E-09  2.70631E-09
   2.21923E-09  2.67753E-09  3.31760E-09  2.57734E-09  3.23255E-09  2.89320E-09  2.29734E-09  2.77524E-09  2.88760E-09  2.51784E-09
   2.35881E-09  2.49454E-09  3.18964E-09  2.84058E-09  3.10002E-09  3.43914E-09  3.69506E-09  4.27144E-09  4.03975E-09  4.53539E-09
   4.95447E-09  4.84402E-09  5.34469E-09  7.08122E-09  8.16313E-09  1.02624E-08  1.23051E-08  1.37009E-08  1.33481E-08  9.32102E-09
   4.95035E-09  1.96272E-09  2.81121E-10 -9.91294E-10 -1.30915E-09 -2.54090E-09 -3.04861E-09 -3.53735E-09 -4.34222E-09 -5.01791E-09
  -5.33676E-09 -6.18581E-09 -7.00369E-09 -7.36532E-09 -8.33766E-09 -8.62282E-09 -1.04112E-08 -1.06651E-08 -1.20562E-08 -1.22820E-08
  -1.35055E-08 -1.42893E-08 -1.50504E-08 -1.62084E-08 -1.63851E-08 -1.70204E-08 -1.74188E-08 -1.74170E-08 -1.69989E-08 -1.64276E-08
  -1.54823E-08 -1.47727E-08 -1.31629E-08 -1.15175E-08 -9.74562E-09 -8.15072E-09 -6.15945E-09 -4.86596E-09 -2.99734E-09 -1.45205E-09
  -1.06568E-10  3.99688E-10  1.01051E-09  1.32135E-09  1.59813E-09  8.71629E-10  7.58936E-10 -3.87129E-10 -3.25018E-10 -1.89139E-10
  -1.06438E-09 -1.15283E-09 -1.15330E-09 -6.61845E-10 -6.53164E-11 -3.79174E-10 -3.76768E-10 -7.32189E-10 -1.86416E-10 -1.47166E-09
  -2.03925E-09 -7.45849E-10 -9.39968E-10 -1.15186E-09 -8.09564E-10 -1.74765E-10 -3.15364E-10 -2.24035E-10 -6.51813E-10 -1.17763E-09
  -5.62097E-10 -1.21942E-09 -1.39587E-09 -8.89048E-10 -8.24669E-10 -6.67374E-10 -5.68791E-10 -1.73959E-10 -2.24972E-10 -4.85368E-10
  -6.09741E-11 -2.47513E-10 -1.70271E-10 -2.80035E-10 -7.56660E-10 -7.65827E-10 -1.63726E-09 -1.08108E-09 -1.57359E-09 -1.17744E-09
  -1.36248E-09 -3.68466E-10 -8.59849E-10 -3.92863E-10  3.76611E-10  5.34159E-10 -1.74212E-10  1.50291E-10  3.05094E-10  6.86944E-10
  -3.87343E-11  2.68686E-10  1.74864E-10 -2.86297E-10 -5.94799E-10 -2.41513E-10 -9.13934E-10 -8.92137E-10 -8.95311E-10 -5.86308E-10
  -3.77916E-10 -5.36539E-10 -1.60248E-09 -2.89309E-10 -7.62619E-10 -5.54437E-10 -3.83521E-10 -4.67652E-10 -6.45214E-10 -4.01128E-10
  -4.17371E-10 -4.58050E-10 -1.57090E-10 -7.06430E-10  1.58934E-11 -7.81988E-10 -4.64084E-10 -4.38975E-10 -3.66796E-10 -3.92584E-10
   9.51916E-11 -2.25048E-10 -4.70372E-10  1.99714E-11 -6.96005E-10 -1.37938E-10 -3.25353E-10  1.57537E-10 -2.33594E-10  1.88912E-10
  -4.09654E-10 -1.03031E-10  2.07219E-10  1.97807E-10  1.23335E-10 -1.43506E-10 -2.41717E-11 -4.98591E-11  6.46447E-12 -1.03161E-10
  -1.81929E-10  3.37383E-10  2.21857E-10  2.65635E-10 -2.51746E-10  1.99078E-10  3.34489E-10  1.95475E-10  3.73848E-12  4.98061E-10
   7.46240E-10  2.11533E-10 -3.98365E-10  1.86956E-10 -7.54480E-11  6.43118E-10  3.13699E-10  3.59910E-10  4.30700E-10  6.30445E-10
   4.40582E-10  2.06205E-10  1.58287E-10  3.19645E-10  3.12224E-10  7.09373E-10  3.02111E-11  9.19318E-10  2.56725E-10  2.14646E-10
   6.96479E-10  3.87503E-10  9.08545E-11
 NY points of the fit to the data follow
   1.39515E-08  1.38945E-08  1.33986E-08  1.40581E-08  1.51291E-08  1.62909E-08  1.68435E-08  1.67999E-08  1.57221E-08  1.30129E-08
   1.14548E-08  1.04995E-08  1.00797E-08  1.00541E-08  1.05398E-08  1.08373E-08  1.08911E-08  1.11176E-08  1.11845E-08  1.11523E-08
   1.17440E-08  1.24923E-08  1.30664E-08  1.34172E-08  1.24952E-08  1.00961E-08  7.83801E-09  7.05942E-09  7.13884E-09  7.78849E-09
   8.28935E-09  8.78904E-09  9.46660E-09  9.09252E-09  7.50568E-09  6.98560E-09  7.36452E-09  7.69963E-09  7.72109E-09  7.67438E-09
   7.63605E-09  7.72318E-09  6.41857E-09  4.85835E-09  4.60490E-09  4.18156E-09  3.31730E-09  2.69667E-09  2.47049E-09  2.48062E-09
   2.60949E-09  2.74299E-09  2.80817E-09  2.80856E-09  2.80511E-09  2.87716E-09  3.16218E-09  3.54712E-09  3.93600E-09  4.27282E-09
   4.46018E-09  4.58997E-09  5.04431E-09  5.32634E-09  5.77033E-09  6.52334E-09  7.06973E-09  7.41920E-09  7.82939E-09  8.04153E-09
   8.10596E-09  8.02394E-09  7.26310E-09  6.22335E-09  5.78014E-09  4.65239E-09  4.02008E-09  4.94205E-09  5.38884E-09  5.61207E-09
   5.87928E-09  6.23758E-09  6.80915E-09  7.41453E-09  7.99183E-09  8.74252E-09  8.78482E-09  7.27958E-09  4.43315E-09  3.45178E-09
   3.04964E-09  2.94582E-09  3.06386E-09  2.60451E-09  2.23246E-09  2.38424E-09  2.03827E-09  1.53565E-09  1.41464E-09  1.24166E-09
   1.01859E-09  8.75587E-10  7.77677E-10  7.06203E-10  6.51147E-10  6.06259E-10  5.68672E-10  5.36553E-10  5.08643E-10  4.84064E-10
   4.61631E-10  4.40383E-10  4.20045E-10  4.00327E-10  3.81142E-10  3.62578E-10  3.44143E-10  3.25594E-10  3.06799E-10  2.87644E-10
   2.68035E-10  2.47992E-10  2.27384E-10  2.06134E-10  1.84182E-10  1.61483E-10  1.37956E-10  1.13565E-10  8.82859E-11  6.20612E-11
   3.48483E-11  6.61921E-12 -2.26463E-11 -5.29814E-11 -8.44133E-11 -1.16975E-10 -1.50677E-10 -1.85571E-10 -2.21656E-10 -2.58949E-10
  -2.97444E-10 -3.37144E-10 -3.78063E-10 -4.20229E-10 -4.63614E-10 -5.08203E-10 -5.53935E-10 -6.00675E-10 -6.48286E-10 -6.96611E-10
  -7.45462E-10 -7.94624E-10 -8.43842E-10 -8.92805E-10 -9.41145E-10 -9.88397E-10 -1.03396E-09 -1.07702E-09 -1.11649E-09 -1.15078E-09
  -1.17752E-09 -1.19292E-09 -1.19043E-09 -1.15751E-09 -1.06606E-09 -8.35805E-10 -1.22434E-10  1.99218E-09  3.79493E-09  4.53153E-09
   4.86056E-09  5.36026E-09  6.37787E-09  8.22198E-09  1.10122E-08  1.41852E-08  1.55583E-08  1.19359E-08  3.67050E-09 -8.29586E-10
  -1.99509E-09 -2.47653E-09 -2.74326E-09 -2.92006E-09 -3.05203E-09 -3.15889E-09 -3.25035E-09 -3.33168E-09 -3.40589E-09 -3.47481E-09
  -3.53958E-09 -3.60095E-09 -3.65938E-09 -3.71518E-09 -3.76858E-09 -3.81969E-09 -3.86860E-09 -3.91535E-09 -3.95995E-09 -4.00240E-09
  -4.04268E-09 -4.08077E-09 -4.11662E-09 -4.15019E-09 -4.18144E-09 -4.21031E-09 -4.23675E-09 -4.26070E-09 -4.28211E-09 -4.30090E-09
  -4.31702E-09 -4.33041E-09 -4.34101E-09 -4.34874E-09 -4.35354E-09 -4.35535E-09 -4.35411E-09 -4.34975E-09 -4.34220E-09 -4.33152E-09
  -4.31777E-09 -4.30102E-09 -4.28136E-09 -4.25885E-09 -4.23357E-09 -4.20560E-09 -4.17500E-09 -4.14185E-09 -4.10624E-09 -4.06822E-09
  -4.02787E-09 -3.98528E-09 -3.94050E-09 -3.89362E-09 -3.84472E-09 -3.79386E-09 -3.74112E-09 -3.68656E-09 -3.63028E-09 -3.57233E-09
  -3.51280E-09 -3.45176E-09 -3.38929E-09 -3.32545E-09 -3.26032E-09 -3.19397E-09 -3.12649E-09 -3.05793E-09 -2.98839E-09 -2.91792E-09
  -2.84662E-09 -2.77454E-09 -2.70177E-09 -2.62837E-09 -2.55442E-09 -2.48001E-09 -2.40519E-09 -2.33004E-09 -2.25465E-09 -2.17907E-09
  -2.10340E-09 -2.02770E-09 -1.95204E-09 -1.87650E-09 -1.80116E-09 -1.72608E-09 -1.65135E-09 -1.57703E-09 -1.50320E-09 -1.42994E-09
  -1.35731E-09 -1.28540E-09 -1.21428E-09 -1.14402E-09 -1.07469E-09 -1.00637E-09 -9.39133E-10 -8.73065E-10 -8.08218E-10 -7.44680E-10
  -6.82522E-10 -6.21820E-10 -5.62651E-10 -5.05076E-10 -4.49183E-10 -3.95041E-10 -3.42726E-10 -2.92299E-10 -2.43857E-10 -1.97458E-10
  -1.53173E-10 -1.11042E-10 -7.10084E-11 -3.30307E-11  2.94231E-12  3.69363E-11  6.90283E-11  9.92378E-11  1.27624E-10  1.54230E-10
   1.79095E-10  2.02277E-10  2.23805E-10  2.43740E-10  2.62127E-10  2.79007E-10  2.94419E-10  3.08411E-10  3.21041E-10  3.32349E-10
   3.42374E-10  3.51174E-10  3.58773E-10  3.65244E-10  3.70612E-10  3.74935E-10  3.78246E-10  3.80610E-10  3.82055E-10  3.82631E-10
   3.82381E-10  3.81376E-10  3.79624E-10  3.77186E-10  3.74117E-10  3.70470E-10  3.66250E-10  3.61538E-10  3.56360E-10  3.50787E-10
   3.44837E-10  3.38570E-10  3.32040E-10  3.25282E-10  3.18330E-10  3.11245E-10  3.04064E-10  2.96847E-10  2.89612E-10  2.82457E-10
   2.75360E-10  2.68422E-10  2.61649E-10  2.55103E-10  2.48867E-10  2.42906E-10  2.37333E-10  2.32151E-10  2.27442E-10  2.23224E-10
   2.19546E-10  2.16473E-10  2.14028E-10  2.12275E-10  2.11237E-10  2.10989E-10  2.11533E-10  2.12963E-10  2.15301E-10  2.18580E-10
   2.22875E-10  2.28208E-10  2.34616E-10
 NY background values follow
     2.283E-09    2.245E-09    2.208E-09    2.171E-09    2.134E-09    2.097E-09    2.060E-09    2.023E-09    1.986E-09    1.950E-09
     1.913E-09    1.877E-09    1.841E-09    1.805E-09    1.770E-09    1.734E-09    1.699E-09    1.664E-09    1.629E-09    1.595E-09
     1.560E-09    1.526E-09    1.492E-09    1.458E-09    1.425E-09    1.391E-09    1.358E-09    1.326E-09    1.293E-09    1.261E-09
     1.229E-09    1.198E-09    1.166E-09    1.135E-09    1.105E-09    1.074E-09    1.044E-09    1.014E-09    9.850E-10    9.559E-10
     9.272E-10    8.989E-10    8.709E-10    8.433E-10    8.160E-10    7.892E-10    7.627E-10    7.366E-10    7.109E-10    6.856E-10
     6.608E-10    6.363E-10    6.123E-10    5.887E-10    5.656E-10    5.429E-10    5.206E-10    4.989E-10    4.775E-10    4.567E-10
     4.363E-10    4.164E-10    3.970E-10    3.781E-10    3.597E-10    3.418E-10    3.245E-10    3.076E-10    2.913E-10    2.756E-10
     2.603E-10    2.456E-10    2.315E-10    2.180E-10    2.050E-10    1.925E-10    1.805E-10    1.689E-10    1.578E-10    1.471E-10
     1.368E-10    1.267E-10    1.170E-10    1.076E-10    9.844E-11    8.948E-11    8.071E-11    7.209E-11    6.361E-11    5.522E-11
     4.689E-11    3.861E-11    3.033E-11    2.203E-11    1.367E-11    5.230E-12   -3.325E-12   -1.202E-11   -2.090E-11   -2.998E-11
    -3.929E-11   -4.887E-11   -5.875E-11   -6.895E-11   -7.951E-11   -9.046E-11   -1.018E-10   -1.136E-10   -1.259E-10   -1.387E-10
    -1.520E-10   -1.659E-10   -1.805E-10   -1.956E-10   -2.114E-10   -2.279E-10   -2.451E-10   -2.630E-10   -2.818E-10   -3.013E-10
    -3.217E-10   -3.430E-10   -3.651E-10   -3.882E-10   -4.123E-10   -4.374E-10   -4.635E-10   -4.906E-10   -5.188E-10   -5.482E-10
    -5.787E-10   -6.103E-10   -6.432E-10   -6.773E-10   -7.127E-10   -7.494E-10   -7.874E-10   -8.268E-10   -8.676E-10   -9.098E-10
    -9.534E-10   -9.985E-10   -1.045E-09   -1.093E-09   -1.143E-09   -1.194E-09   -1.247E-09   -1.302E-09   -1.358E-09   -1.415E-09
    -1.474E-09   -1.534E-09   -1.595E-09   -1.658E-09   -1.721E-09   -1.786E-09   -1.851E-09   -1.918E-09   -1.985E-09   -2.053E-09
    -2.121E-09   -2.191E-09   -2.260E-09   -2.331E-09   -2.401E-09   -2.472E-09   -2.544E-09   -2.615E-09   -2.687E-09   -2.758E-09
    -2.830E-09   -2.902E-09   -2.973E-09   -3.045E-09   -3.116E-09   -3.187E-09   -3.257E-09   -3.327E-09   -3.397E-09   -3.466E-09
    -3.534E-09   -3.601E-09   -3.668E-09   -3.734E-09   -3.799E-09   -3.863E-09   -3.926E-09   -3.987E-09   -4.048E-09   -4.107E-09
    -4.165E-09   -4.222E-09   -4.277E-09   -4.330E-09   -4.382E-09   -4.433E-09   -4.481E-09   -4.528E-09   -4.573E-09   -4.616E-09
    -4.657E-09   -4.696E-09   -4.733E-09   -4.768E-09   -4.800E-09   -4.830E-09   -4.858E-09   -4.883E-09   -4.906E-09   -4.926E-09
    -4.943E-09   -4.958E-09   -4.970E-09   -4.979E-09   -4.985E-09   -4.988E-09   -4.988E-09   -4.985E-09   -4.978E-09   -4.969E-09
    -4.956E-09   -4.941E-09   -4.922E-09   -4.901E-09   -4.876E-09   -4.850E-09   -4.820E-09   -4.788E-09   -4.753E-09   -4.716E-09
    -4.677E-09   -4.635E-09   -4.592E-09   -4.546E-09   -4.498E-09   -4.448E-09   -4.396E-09   -4.342E-09   -4.287E-09   -4.230E-09
    -4.171E-09   -4.111E-09   -4.049E-09   -3.986E-09   -3.922E-09   -3.856E-09   -3.790E-09   -3.722E-09   -3.653E-09   -3.583E-09
    -3.513E-09   -3.441E-09   -3.369E-09   -3.296E-09   -3.223E-09   -3.149E-09   -3.075E-09   -3.001E-09   -2.926E-09   -2.851E-09
    -2.776E-09   -2.701E-09   -2.626E-09   -2.551E-09   -2.476E-09   -2.401E-09   -2.327E-09   -2.253E-09   -2.180E-09   -2.107E-09
    -2.035E-09   -1.964E-09   -1.893E-09   -1.823E-09   -1.754E-09   -1.686E-09   -1.620E-09   -1.554E-09   -1.490E-09   -1.426E-09
    -1.365E-09   -1.304E-09   -1.246E-09   -1.188E-09   -1.133E-09   -1.079E-09   -1.027E-09   -9.770E-10   -9.289E-10   -8.828E-10
    -8.388E-10   -7.970E-10   -7.573E-10   -7.196E-10   -6.839E-10   -6.502E-10   -6.184E-10   -5.884E-10   -5.603E-10   -5.339E-10
    -5.093E-10   -4.863E-10   -4.650E-10   -4.453E-10   -4.271E-10   -4.105E-10   -3.952E-10   -3.814E-10   -3.690E-10   -3.579E-10
    -3.480E-10   -3.394E-10   -3.319E-10   -3.256E-10   -3.204E-10   -3.162E-10   -3.130E-10   -3.107E-10   -3.094E-10   -3.090E-10
    -3.093E-10   -3.104E-10   -3.122E-10   -3.148E-10   -3.179E-10   -3.216E-10   -3.259E-10   -3.307E-10   -3.359E-10   -3.415E-10
    -3.475E-10   -3.538E-10   -3.604E-10   -3.671E-10   -3.741E-10   -3.812E-10   -3.884E-10   -3.956E-10   -4.028E-10   -4.100E-10
    -4.170E-10   -4.239E-10   -4.307E-10   -4.372E-10   -4.434E-10   -4.493E-10   -4.548E-10   -4.599E-10   -4.646E-10   -4.687E-10
    -4.723E-10   -4.753E-10   -4.776E-10   -4.793E-10   -4.802E-10   -4.804E-10   -4.797E-10   -4.781E-10   -4.757E-10   -4.723E-10
    -4.678E-10   -4.623E-10   -4.558E-10
 GABA     Conc. = 1.45E-09
   2.56165E-09  2.52802E-09  2.49472E-09  2.46176E-09  2.42920E-09  2.39705E-09  2.36536E-09  2.33416E-09  2.30351E-09  2.27349E-09
   2.24412E-09  2.21553E-09  2.18779E-09  2.16094E-09  2.13526E-09  2.11076E-09  2.08758E-09  2.06620E-09  2.04683E-09  2.02968E-09
   2.01545E-09  2.00483E-09  1.99864E-09  1.99849E-09  2.00645E-09  2.02588E-09  2.06394E-09  2.13383E-09  2.26944E-09  2.52433E-09
   2.60922E-09  2.73290E-09  3.16147E-09  3.42553E-09  3.57778E-09  3.93938E-09  4.31594E-09  4.59171E-09  4.62926E-09  4.36162E-09
   4.12161E-09  4.39310E-09  3.74072E-09  2.55347E-09  2.54299E-09  2.38698E-09  1.63206E-09  1.31489E-09  1.16798E-09  1.08600E-09
   1.03568E-09  1.00310E-09  9.82619E-10  9.71936E-10  9.69455E-10  9.74657E-10  9.88897E-10  1.01459E-09  1.05701E-09  1.12670E-09
   1.24442E-09  1.47111E-09  1.68711E-09  1.78346E-09  2.07822E-09  2.41512E-09  2.58202E-09  2.80825E-09  3.13607E-09  3.44427E-09
   3.58975E-09  3.40888E-09  2.98891E-09  2.85319E-09  2.62655E-09  1.55763E-09  1.03011E-09  1.10779E-09  8.30177E-10  6.03763E-10
   5.85157E-10  5.49414E-10  6.42785E-10  8.61288E-10  9.46158E-10  1.05815E-09  1.29059E-09  1.50330E-09  1.73307E-09  1.87823E-09
   1.86921E-09  2.04350E-09  2.29300E-09  1.94923E-09  1.64785E-09  1.83362E-09  1.53121E-09  1.06054E-09  9.58922E-10  7.99494E-10
   5.86394E-10  4.50424E-10  3.57151E-10  2.88257E-10  2.34352E-10  1.89756E-10  1.51741E-10  1.18606E-10  8.92054E-11  6.27535E-11
   3.81381E-11  1.44556E-11 -8.52511E-12 -3.10555E-11 -5.31905E-11 -7.48203E-11 -9.64166E-11 -1.18207E-10 -1.40311E-10 -1.62832E-10
  -1.85859E-10 -2.09364E-10 -2.33474E-10 -2.58264E-10 -2.83793E-10 -3.10105E-10 -3.37280E-10 -3.65359E-10 -3.94366E-10 -4.24362E-10
  -4.55395E-10 -4.87498E-10 -5.20696E-10 -5.55030E-10 -5.90534E-10 -6.27252E-10 -6.65205E-10 -7.04457E-10 -7.45020E-10 -7.86927E-10
  -8.30192E-10 -8.74838E-10 -9.20903E-10 -9.68445E-10 -1.01747E-09 -1.06799E-09 -1.12001E-09 -1.17344E-09 -1.22820E-09 -1.28422E-09
  -1.34140E-09 -1.39966E-09 -1.45888E-09 -1.51893E-09 -1.57970E-09 -1.64103E-09 -1.70273E-09 -1.76456E-09 -1.82624E-09 -1.88732E-09
  -1.94721E-09 -2.00490E-09 -2.05869E-09 -2.10515E-09 -2.13616E-09 -2.12617E-09 -1.95025E-09 -1.48236E-09 -1.26978E-09 -1.23864E-09
  -1.23042E-09 -1.15064E-09 -9.37116E-10 -5.28097E-10  6.85592E-11  6.37660E-10  5.72566E-10 -7.36191E-10 -2.59326E-09 -3.07197E-09
  -3.27424E-09 -3.40195E-09 -3.50082E-09 -3.58576E-09 -3.66286E-09 -3.73495E-09 -3.80350E-09 -3.86931E-09 -3.93283E-09 -3.99434E-09
  -4.05397E-09 -4.11180E-09 -4.16787E-09 -4.22219E-09 -4.27475E-09 -4.32550E-09 -4.37443E-09 -4.42147E-09 -4.46658E-09 -4.50971E-09
  -4.55080E-09 -4.58979E-09 -4.62662E-09 -4.66123E-09 -4.69356E-09 -4.72354E-09 -4.75110E-09 -4.77620E-09 -4.79875E-09 -4.81869E-09
  -4.83596E-09 -4.85050E-09 -4.86223E-09 -4.87108E-09 -4.87701E-09 -4.87992E-09 -4.87977E-09 -4.87648E-09 -4.87000E-09 -4.86037E-09
  -4.84764E-09 -4.83192E-09 -4.81325E-09 -4.79173E-09 -4.76742E-09 -4.74040E-09 -4.71074E-09 -4.67852E-09 -4.64381E-09 -4.60668E-09
  -4.56722E-09 -4.52548E-09 -4.48156E-09 -4.43551E-09 -4.38743E-09 -4.33737E-09 -4.28542E-09 -4.23164E-09 -4.17612E-09 -4.11893E-09
  -4.06014E-09 -3.99982E-09 -3.93806E-09 -3.87492E-09 -3.81048E-09 -3.74481E-09 -3.67799E-09 -3.61009E-09 -3.54118E-09 -3.47135E-09
  -3.40066E-09 -3.32919E-09 -3.25701E-09 -3.18420E-09 -3.11083E-09 -3.03698E-09 -2.96272E-09 -2.88812E-09 -2.81326E-09 -2.73821E-09
  -2.66305E-09 -2.58786E-09 -2.51270E-09 -2.43765E-09 -2.36278E-09 -2.28818E-09 -2.21390E-09 -2.14004E-09 -2.06665E-09 -1.99383E-09
  -1.92163E-09 -1.85014E-09 -1.77943E-09 -1.70956E-09 -1.64063E-09 -1.57270E-09 -1.50584E-09 -1.44014E-09 -1.37566E-09 -1.31248E-09
  -1.25067E-09 -1.19031E-09 -1.13147E-09 -1.07422E-09 -1.01865E-09 -9.64816E-10 -9.12806E-10 -8.62676E-10 -8.14526E-10 -7.68410E-10
  -7.24402E-10 -6.82541E-10 -6.42770E-10 -6.05050E-10 -5.69327E-10 -5.35577E-10 -5.03722E-10 -4.73744E-10 -4.45582E-10 -4.19195E-10
  -3.94542E-10 -3.71566E-10 -3.50237E-10 -3.30496E-10 -3.12297E-10 -2.95598E-10 -2.80362E-10 -2.66539E-10 -2.54072E-10 -2.42922E-10
  -2.33049E-10 -2.24396E-10 -2.16937E-10 -2.10601E-10 -2.05362E-10 -2.01162E-10 -1.97968E-10 -1.95716E-10 -1.94378E-10 -1.93903E-10
  -1.94249E-10 -1.95343E-10 -1.97180E-10 -1.99696E-10 -2.02839E-10 -2.06555E-10 -2.10838E-10 -2.15607E-10 -2.20837E-10 -2.26456E-10
  -2.32448E-10 -2.38751E-10 -2.45312E-10 -2.52096E-10 -2.59069E-10 -2.66169E-10 -2.73361E-10 -2.80582E-10 -2.87818E-10 -2.94968E-10
  -3.02054E-10 -3.08977E-10 -3.15729E-10 -3.22249E-10 -3.28455E-10 -3.34381E-10 -3.39914E-10 -3.45050E-10 -3.49707E-10 -3.53870E-10
  -3.57488E-10 -3.60495E-10 -3.62868E-10 -3.64546E-10 -3.65502E-10 -3.65665E-10 -3.65029E-10 -3.63505E-10 -3.61066E-10 -3.57681E-10
  -3.53275E-10 -3.47826E-10 -3.41298E-10
 Glc      Conc. = 2.65E-09
   9.12407E-09  9.16532E-09  9.12134E-09  9.70259E-09  1.04203E-08  1.10029E-08  1.09698E-08  1.06195E-08  9.86488E-09  8.19561E-09
   7.27690E-09  6.88100E-09  6.73786E-09  7.10889E-09  7.97337E-09  8.60016E-09  8.82527E-09  9.09265E-09  9.34862E-09  9.61790E-09
   1.03297E-08  1.10178E-08  1.14683E-08  1.14247E-08  1.01795E-08  7.59358E-09  5.17628E-09  4.16402E-09  3.84570E-09  3.81982E-09
   3.63040E-09  3.24621E-09  3.11202E-09  2.98225E-09  2.54169E-09  2.12471E-09  2.02674E-09  1.81360E-09  1.43450E-09  1.23278E-09
   1.12109E-09  1.04400E-09  9.84582E-10  9.36696E-10  8.95857E-10  8.60239E-10  8.28406E-10  7.99323E-10  7.72336E-10  7.46996E-10
   7.22970E-10  7.00050E-10  6.78046E-10  6.56858E-10  6.36400E-10  6.16577E-10  5.97361E-10  5.78727E-10  5.60591E-10  5.42988E-10
   5.25891E-10  5.09270E-10  4.93142E-10  4.77484E-10  4.62321E-10  4.47622E-10  4.33407E-10  4.19666E-10  4.06412E-10  3.93657E-10
   3.81388E-10  3.69618E-10  3.58367E-10  3.47615E-10  3.37367E-10  3.27588E-10  3.18247E-10  3.09317E-10  3.00766E-10  2.92568E-10
   2.84691E-10  2.77108E-10  2.69788E-10  2.62703E-10  2.55827E-10  2.49125E-10  2.42570E-10  2.36136E-10  2.29793E-10  2.23509E-10
   2.17256E-10  2.11010E-10  2.04732E-10  1.98405E-10  1.91990E-10  1.85458E-10  1.78786E-10  1.71941E-10  1.64895E-10  1.57618E-10
   1.50081E-10  1.42255E-10  1.34109E-10  1.25620E-10  1.16749E-10  1.07474E-10  9.77616E-11  8.75887E-11  7.69190E-11  6.57185E-11
   5.39762E-11  4.16447E-11  2.87013E-11  1.51171E-11  8.62407E-13 -1.40910E-11 -2.97717E-11 -4.62109E-11 -6.34390E-11 -8.14754E-11
  -1.00367E-10 -1.20126E-10 -1.40790E-10 -1.62385E-10 -1.84939E-10 -2.08485E-10 -2.33051E-10 -2.58656E-10 -2.85338E-10 -3.13121E-10
  -3.42032E-10 -3.72105E-10 -4.03356E-10 -4.35819E-10 -4.69518E-10 -5.04488E-10 -5.40735E-10 -5.78301E-10 -6.17202E-10 -6.57469E-10
  -6.99115E-10 -7.42164E-10 -7.86635E-10 -8.32555E-10 -8.79927E-10 -9.28770E-10 -9.79066E-10 -1.03073E-09 -1.08368E-09 -1.13780E-09
  -1.19298E-09 -1.24912E-09 -1.30607E-09 -1.36369E-09 -1.42181E-09 -1.48023E-09 -1.53870E-09 -1.59691E-09 -1.65446E-09 -1.71079E-09
  -1.76511E-09 -1.81620E-09 -1.86207E-09 -1.89914E-09 -1.92003E-09 -1.90649E-09 -1.79717E-09 -1.27395E-09 -4.74099E-10 -1.19412E-10
  -2.45086E-11  6.82836E-11  3.09598E-10  8.12222E-10  1.66661E-09  2.80395E-09  3.69342E-09  3.17640E-09  5.02432E-10 -2.17960E-09
  -2.84125E-09 -3.11632E-09 -3.27914E-09 -3.39698E-09 -3.49287E-09 -3.57649E-09 -3.65244E-09 -3.72317E-09 -3.79004E-09 -3.85384E-09
  -3.91505E-09 -3.97397E-09 -4.03078E-09 -4.08557E-09 -4.13840E-09 -4.18929E-09 -4.23824E-09 -4.28523E-09 -4.33022E-09 -4.37318E-09
  -4.41407E-09 -4.45283E-09 -4.48941E-09 -4.52375E-09 -4.55580E-09 -4.58549E-09 -4.61277E-09 -4.63756E-09 -4.65981E-09 -4.67946E-09
  -4.69643E-09 -4.71066E-09 -4.72209E-09 -4.73065E-09 -4.73628E-09 -4.73891E-09 -4.73847E-09 -4.73490E-09 -4.72814E-09 -4.71823E-09
  -4.70523E-09 -4.68924E-09 -4.67031E-09 -4.64853E-09 -4.62397E-09 -4.59669E-09 -4.56679E-09 -4.53432E-09 -4.49937E-09 -4.46201E-09
