 LCModel (Version 6.3-1R) Copyright: S.W. Provencher.          Ref.: Magn. Reson. Med. 30:672-679 (1993).                
 onepulse 23x24_ftSpec_smooth_lcm
 26 lines in following concentration table = NCONC+1
    Conc.  %SD   /Cr    Metabolite                                         
    0.000 999%   0.000 Ala                                                 
    0.000 999%   0.000 Asp                                                 
    0.000 999%   0.000 Cr                                                  
 2.49E-09  23%   0.000 GABA                                                
    0.000 999%   0.000 Glc                                                 
    0.000 999%   0.000 Gln                                                 
    0.000 999%   0.000 Glu                                                 
    0.000 999%   0.000 Glyc                                                
 1.07E-10 109%   0.000 GPC                                                 
 1.72E-10 243%   0.000 GSH                                                 
 1.68E-09  25%   0.000 Ins                                                 
    0.000 999%   0.000 Lac                                                 
 8.58E-11 258%   0.000 NAAG                                                
    0.000 999%   0.000 NAA                                                 
    0.000 999%   0.000 PCh                                                 
    0.000 999%   0.000 PCr                                                 
    0.000 999%   0.000 PE                                                  
 3.01E-10  56%   0.000 Scyllo                                              
    0.000 999%   0.000 Ser                                                 
    0.000 999%   0.000 Tau                                                 
 1.07E-10 109%   0.000 GPC+PCh                                             
 8.58E-11 258%   0.000 NAA+NAAG                                            
 1.68E-09  25%   0.000 Ins+Glyc                                            
    0.000 999%   0.000 Cr+PCr                                              
    0.000 999%   0.000 Glu+Gln                                             
   6 lines in following misc. output table
  FWHM = 0.089 ppm    S/N =   1                                            
  Data shift = 0.246 ppm                                                   
  Ph:   8 deg      20.4 deg/ppm                                            
  alphaB,S = 1.0E+00,   3.5E+01                                            
    9 spline knots.   Ns = 5(1)                                            
  ( 9) 2 infls.   ( 5) 1 extrs.                                            
  363 points on ppm-axis = NY
      4.250000     4.238821     4.227641     4.216462     4.205282     4.194103     4.182923     4.171744     4.160564     4.149385
      4.138206     4.127026     4.115847     4.104667     4.093488     4.082308     4.071129     4.059949     4.048770     4.037591
      4.026411     4.015232     4.004052     3.992873     3.981693     3.970514     3.959334     3.948155     3.936975     3.925796
      3.914617     3.903437     3.892258     3.881078     3.869899     3.858719     3.847540     3.836360     3.825181     3.814002
      3.802822     3.791643     3.780463     3.769284     3.758104     3.746925     3.735745     3.724566     3.713387     3.702207
      3.691028     3.679848     3.668669     3.657489     3.646310     3.635130     3.623951     3.612772     3.601592     3.590413
      3.579233     3.568054     3.556874     3.545695     3.534515     3.523336     3.512156     3.500977     3.489798     3.478618
      3.467439     3.456259     3.445080     3.433900     3.422721     3.411541     3.400362     3.389183     3.378003     3.366824
      3.355644     3.344465     3.333285     3.322106     3.310926     3.299747     3.288568     3.277388     3.266209     3.255029
      3.243850     3.232670     3.221491     3.210311     3.199132     3.187953     3.176773     3.165594     3.154414     3.143235
      3.132055     3.120876     3.109696     3.098517     3.087337     3.076158     3.064979     3.053799     3.042620     3.031440
      3.020261     3.009081     2.997902     2.986722     2.975543     2.964364     2.953184     2.942005     2.930825     2.919646
      2.908466     2.897287     2.886107     2.874928     2.863749     2.852569     2.841390     2.830210     2.819031     2.807851
      2.796672     2.785492     2.774313     2.763134     2.751954     2.740775     2.729595     2.718416     2.707236     2.696057
      2.684877     2.673698     2.662519     2.651339     2.640160     2.628980     2.617801     2.606621     2.595442     2.584262
      2.573083     2.561903     2.550724     2.539545     2.528365     2.517186     2.506006     2.494827     2.483647     2.472468
      2.461288     2.450109     2.438930     2.427750     2.416571     2.405391     2.394212     2.383032     2.371853     2.360673
      2.349494     2.338315     2.327135     2.315956     2.304776     2.293597     2.282417     2.271238     2.260058     2.248879
      2.237700     2.226520     2.215341     2.204161     2.192982     2.181802     2.170623     2.159443     2.148264     2.137084
      2.125905     2.114726     2.103546     2.092367     2.081187     2.070008     2.058828     2.047649     2.036469     2.025290
      2.014111     2.002931     1.991752     1.980572     1.969393     1.958213     1.947034     1.935854     1.924675     1.913496
      1.902316     1.891137     1.879957     1.868778     1.857598     1.846419     1.835239     1.824060     1.812881     1.801701
      1.790522     1.779342     1.768163     1.756983     1.745804     1.734624     1.723445     1.712265     1.701086     1.689907
      1.678727     1.667548     1.656368     1.645189     1.634009     1.622830     1.611650     1.600471     1.589292     1.578112
      1.566933     1.555753     1.544574     1.533394     1.522215     1.511035     1.499856     1.488677     1.477497     1.466318
      1.455138     1.443959     1.432779     1.421600     1.410420     1.399241     1.388062     1.376882     1.365703     1.354523
      1.343344     1.332164     1.320985     1.309805     1.298626     1.287446     1.276267     1.265088     1.253908     1.242729
      1.231549     1.220370     1.209190     1.198011     1.186831     1.175652     1.164473     1.153293     1.142114     1.130934
      1.119755     1.108575     1.097396     1.086216     1.075037     1.063858     1.052678     1.041499     1.030319     1.019140
      1.007960     0.996781     0.985601     0.974422     0.963243     0.952063     0.940884     0.929704     0.918525     0.907345
      0.896166     0.884986     0.873807     0.862628     0.851448     0.840269     0.829089     0.817910     0.806730     0.795551
      0.784371     0.773192     0.762012     0.750833     0.739654     0.728474     0.717295     0.706115     0.694936     0.683756
      0.672577     0.661397     0.650218     0.639039     0.627859     0.616680     0.605500     0.594321     0.583141     0.571962
      0.560782     0.549603     0.538424     0.527244     0.516065     0.504885     0.493706     0.482526     0.471347     0.460167
      0.448988     0.437809     0.426629     0.415450     0.404270     0.393091     0.381911     0.370732     0.359552     0.348373
      0.337193     0.326014     0.314835     0.303655     0.292476     0.281296     0.270117     0.258937     0.247758     0.236578
      0.225399     0.214220     0.203040
 NY phased data points follow
   1.07433E-08  1.04291E-08  1.05189E-08  1.06850E-08  1.05049E-08  1.15037E-08  1.25424E-08  1.47683E-08  1.72795E-08  1.93901E-08
   2.04134E-08  1.94465E-08  1.72146E-08  1.58364E-08  1.32916E-08  1.30608E-08  1.21225E-08  1.17113E-08  1.18327E-08  1.19767E-08
   1.23611E-08  1.26377E-08  1.28849E-08  1.34405E-08  1.33806E-08  1.32248E-08  1.28220E-08  1.21795E-08  1.18588E-08  1.19003E-08
   1.06722E-08  1.04406E-08  1.03426E-08  1.09760E-08  1.14076E-08  1.18834E-08  1.13147E-08  9.80210E-09  9.46833E-09  9.89240E-09
   1.08430E-08  1.16503E-08  1.27001E-08  1.22799E-08  1.02836E-08  8.86762E-09  7.64729E-09  6.23424E-09  5.84846E-09  5.93391E-09
   5.68673E-09  5.93537E-09  5.16993E-09  5.22048E-09  5.08005E-09  4.26639E-09  4.20590E-09  4.18885E-09  4.12694E-09  4.93146E-09
   4.77762E-09  5.55589E-09  5.47996E-09  4.46573E-09  4.31882E-09  4.24326E-09  4.66661E-09  5.56258E-09  6.14178E-09  7.23324E-09
   7.50142E-09  9.24203E-09  1.17510E-08  1.19200E-08  1.14532E-08  8.87718E-09  6.93021E-09  4.95086E-09  4.41565E-09  4.20522E-09
   3.87604E-09  3.10017E-09  3.86685E-09  3.95021E-09  3.77987E-09  4.62760E-09  5.50301E-09  7.78774E-09  1.17539E-08  1.41310E-08
   1.45059E-08  1.23419E-08  9.30437E-09  7.11656E-09  5.70762E-09  5.27648E-09  4.55514E-09  4.27261E-09  4.06500E-09  3.19190E-09
   2.62338E-09  2.41228E-09  1.72688E-09  1.49005E-09  1.17569E-09  3.50698E-10  1.12560E-09  5.81327E-10  3.77783E-10  1.35379E-09
   7.98097E-10  1.26222E-09  1.34354E-09  8.75788E-10  6.98225E-10  7.04541E-10  7.56684E-10 -3.14422E-10 -2.89578E-10 -6.39248E-10
  -9.50052E-10 -8.04787E-10  4.41719E-10  1.19006E-09  6.69047E-10  8.30749E-10  7.71807E-10  1.06427E-09  8.91064E-10  4.00643E-10
   4.33550E-10  2.07714E-10 -2.45379E-10 -8.61082E-10 -1.37574E-09 -7.80567E-10 -8.39672E-10 -4.11545E-10  3.96193E-10  5.11522E-10
   2.44527E-11  2.40111E-10  4.64192E-10  7.81533E-10  4.41945E-10  3.35071E-10  3.14341E-10  4.60943E-10  2.01980E-09  2.86848E-09
   2.91544E-09  2.42661E-09  2.16334E-09  2.00393E-09  2.52935E-09  3.29313E-09  2.25026E-09  3.03485E-09  2.47087E-09  2.10977E-09
   2.12498E-09  2.47589E-09  1.90191E-09  1.81782E-09  1.85683E-09  2.80337E-09  2.07109E-09  2.63474E-09  2.88314E-09  2.94519E-09
   3.41740E-09  3.41256E-09  3.82095E-09  4.44226E-09  4.04844E-09  4.69338E-09  6.39282E-09  7.18167E-09  9.34494E-09  1.15353E-08
   1.28874E-08  1.17567E-08  6.75108E-09  2.31795E-09 -5.62947E-10 -2.38484E-09 -3.51196E-09 -3.91856E-09 -5.46768E-09 -5.68393E-09
  -6.38701E-09 -7.10115E-09 -8.11525E-09 -8.31966E-09 -9.49504E-09 -1.01483E-08 -1.07622E-08 -1.14651E-08 -1.20636E-08 -1.37244E-08
  -1.42490E-08 -1.54825E-08 -1.57722E-08 -1.65796E-08 -1.74023E-08 -1.76481E-08 -1.84372E-08 -1.82036E-08 -1.85880E-08 -1.82533E-08
  -1.74918E-08 -1.64230E-08 -1.54058E-08 -1.36220E-08 -1.23554E-08 -1.03434E-08 -8.38421E-09 -6.13715E-09 -4.49288E-09 -2.58712E-09
  -1.43986E-09  4.35717E-10  1.36702E-09  2.35169E-09  2.39387E-09  2.70754E-09  2.28144E-09  2.54541E-09  1.12090E-09  9.96316E-10
   1.74618E-11  1.33013E-10 -1.52600E-10 -2.70646E-10 -7.05821E-10 -5.19720E-10 -6.96247E-11  3.41172E-10 -1.75380E-10 -7.12915E-11
  -2.86693E-10 -2.07540E-10 -1.39023E-09 -1.41426E-09 -4.63453E-10 -4.21586E-10 -7.47997E-10 -1.34030E-10  2.29061E-10  1.13005E-10
  -1.97005E-10 -4.86082E-10 -1.05080E-09 -2.71074E-10 -1.01994E-09 -9.70908E-10 -5.37523E-10 -3.81889E-10 -4.30018E-10  1.75799E-10
   1.69125E-10  2.45215E-10 -1.46117E-10  2.96483E-10 -1.92433E-10 -1.21939E-10 -6.08911E-10 -6.02059E-10 -1.18321E-09 -1.40867E-09
  -8.05371E-10 -1.20197E-09 -8.42279E-10 -5.43611E-10  1.66929E-10 -2.37083E-10  2.30398E-10  1.24125E-09  7.05902E-10  3.18737E-10
   4.36824E-10  6.07391E-10  8.37252E-10  7.94176E-11  1.75918E-10 -1.10567E-10 -3.69560E-10 -5.31911E-10 -4.80194E-10 -7.43526E-10
  -9.12486E-10 -7.29676E-10 -5.28077E-10 -1.70703E-10 -5.40720E-10 -1.12007E-09  9.12120E-11 -6.44002E-10 -2.85446E-10 -4.09777E-12
  -4.29299E-10 -4.26873E-10 -1.81659E-12 -1.03206E-10 -2.72231E-10  9.61723E-11 -9.23062E-11  3.90690E-10 -4.48330E-10  1.47789E-10
  -1.47015E-10  3.05682E-10 -7.01133E-11  6.11004E-10 -6.53698E-11  2.23735E-10 -2.29003E-11  7.53826E-11  2.19134E-10  2.67009E-10
   5.84974E-10  1.84693E-10  5.18907E-10  1.90790E-10  4.78228E-10  7.11816E-10  5.81418E-10  4.35770E-10  4.88398E-10  6.95545E-10
   4.23000E-10  4.78643E-10  2.86608E-10  6.31019E-10  6.90594E-10  6.80646E-10  6.79759E-10  4.14929E-10  5.78644E-10  1.07802E-09
   6.50368E-10  6.82689E-10  8.48999E-10  9.25726E-10  2.77642E-10  2.61950E-10  6.46272E-10  7.40837E-10  1.27375E-09  8.63666E-10
   6.72780E-10  9.21370E-10  9.93234E-10  6.60468E-10  7.25957E-10  7.87206E-10  6.62278E-10  1.09227E-09  6.80662E-10  6.45268E-10
   1.42918E-09  5.48026E-10  8.18613E-10
 NY points of the fit to the data follow
   1.01221E-08  1.03616E-08  1.05284E-08  1.07080E-08  1.11670E-08  1.18008E-08  1.23697E-08  1.30130E-08  1.39183E-08  1.48829E-08
   1.56822E-08  1.62237E-08  1.65392E-08  1.65759E-08  1.61520E-08  1.54286E-08  1.47406E-08  1.39104E-08  1.29269E-08  1.21428E-08
   1.18976E-08  1.19670E-08  1.20316E-08  1.23099E-08  1.28020E-08  1.31999E-08  1.32098E-08  1.27253E-08  1.19603E-08  1.15814E-08
   1.17753E-08  1.17643E-08  1.16863E-08  1.18237E-08  1.18406E-08  1.19495E-08  1.22373E-08  1.24716E-08  1.24775E-08  1.21826E-08
   1.16465E-08  1.10392E-08  1.03039E-08  9.16906E-09  8.22901E-09  7.69016E-09  7.02358E-09  6.37092E-09  6.03158E-09  5.83279E-09
   5.70786E-09  5.62703E-09  5.56429E-09  5.52624E-09  5.51976E-09  5.51699E-09  5.51730E-09  5.51987E-09  5.52701E-09  5.54647E-09
   5.61361E-09  5.79448E-09  6.24067E-09  6.69971E-09  7.06682E-09  7.73305E-09  8.44261E-09  8.91196E-09  9.25208E-09  9.43978E-09
   9.39966E-09  9.07050E-09  8.49065E-09  7.81668E-09  7.23027E-09  6.38539E-09  5.54642E-09  5.35007E-09  5.14266E-09  4.76220E-09
   4.63358E-09  4.62169E-09  4.59873E-09  4.75023E-09  4.99933E-09  5.11446E-09  5.24159E-09  5.48220E-09  5.75002E-09  5.95125E-09
   6.00788E-09  5.97886E-09  5.94359E-09  5.66447E-09  5.16402E-09  4.86955E-09  4.52920E-09  3.96076E-09  3.55971E-09  3.27300E-09
   2.95217E-09  2.68962E-09  2.48688E-09  2.32073E-09  2.17895E-09  2.05367E-09  1.94004E-09  1.83533E-09  1.73758E-09  1.64536E-09
   1.55749E-09  1.47272E-09  1.39054E-09  1.31055E-09  1.23248E-09  1.15611E-09  1.08124E-09  1.00742E-09  9.34495E-10  8.62351E-10
   7.90796E-10  7.19830E-10  6.49362E-10  5.79326E-10  5.09675E-10  4.40387E-10  3.71427E-10  3.02782E-10  2.34462E-10  1.66455E-10
   9.87536E-11  3.13657E-11 -3.57093E-11 -1.02449E-10 -1.68846E-10 -2.34878E-10 -3.00540E-10 -3.65819E-10 -4.30694E-10 -4.95139E-10
  -5.59117E-10 -6.22600E-10 -6.85558E-10 -7.47957E-10 -8.09784E-10 -8.70979E-10 -9.31481E-10 -9.91228E-10 -1.05017E-09 -1.10822E-09
  -1.16529E-09 -1.22128E-09 -1.27605E-09 -1.32941E-09 -1.38117E-09 -1.43104E-09 -1.47862E-09 -1.52339E-09 -1.56461E-09 -1.60116E-09
  -1.63132E-09 -1.65224E-09 -1.65895E-09 -1.64168E-09 -1.57828E-09 -1.40433E-09 -8.35728E-10  7.42433E-10  2.76759E-09  4.52403E-09
   5.73585E-09  6.47827E-09  6.94931E-09  7.23502E-09  7.18338E-09  6.44660E-09  4.68952E-09  1.99946E-09 -6.12427E-10 -1.73579E-09
  -2.12013E-09 -2.31805E-09 -2.44407E-09 -2.53465E-09 -2.60497E-09 -2.66245E-09 -2.71116E-09 -2.75348E-09 -2.79093E-09 -2.82450E-09
  -2.85486E-09 -2.88249E-09 -2.90775E-09 -2.93088E-09 -2.95209E-09 -2.97154E-09 -2.98933E-09 -3.00557E-09 -3.02034E-09 -3.03370E-09
  -3.04571E-09 -3.05642E-09 -3.06586E-09 -3.07407E-09 -3.08109E-09 -3.08694E-09 -3.09165E-09 -3.09524E-09 -3.09773E-09 -3.09913E-09
  -3.09948E-09 -3.09879E-09 -3.09707E-09 -3.09433E-09 -3.09061E-09 -3.08590E-09 -3.08022E-09 -3.07358E-09 -3.06601E-09 -3.05750E-09
  -3.04807E-09 -3.03774E-09 -3.02652E-09 -3.01442E-09 -3.00145E-09 -2.98762E-09 -2.97295E-09 -2.95743E-09 -2.94110E-09 -2.92395E-09
  -2.90599E-09 -2.88725E-09 -2.86772E-09 -2.84742E-09 -2.82637E-09 -2.80456E-09 -2.78202E-09 -2.75874E-09 -2.73475E-09 -2.71005E-09
  -2.68466E-09 -2.65858E-09 -2.63182E-09 -2.60440E-09 -2.57633E-09 -2.54764E-09 -2.51833E-09 -2.48844E-09 -2.45796E-09 -2.42693E-09
  -2.39535E-09 -2.36324E-09 -2.33063E-09 -2.29752E-09 -2.26394E-09 -2.22990E-09 -2.19541E-09 -2.16050E-09 -2.12518E-09 -2.08946E-09
  -2.05337E-09 -2.01692E-09 -1.98013E-09 -1.94302E-09 -1.90559E-09 -1.86788E-09 -1.82989E-09 -1.79164E-09 -1.75315E-09 -1.71443E-09
  -1.67550E-09 -1.63639E-09 -1.59709E-09 -1.55765E-09 -1.51805E-09 -1.47834E-09 -1.43851E-09 -1.39860E-09 -1.35860E-09 -1.31856E-09
  -1.27847E-09 -1.23834E-09 -1.19822E-09 -1.15811E-09 -1.11802E-09 -1.07796E-09 -1.03798E-09 -9.98064E-10 -9.58232E-10 -9.18519E-10
  -8.78925E-10 -8.39484E-10 -8.00190E-10 -7.61079E-10 -7.22152E-10 -6.83430E-10 -6.44938E-10 -6.06692E-10 -5.68706E-10 -5.30993E-10
  -4.93562E-10 -4.56434E-10 -4.19651E-10 -3.83190E-10 -3.47057E-10 -3.11242E-10 -2.75736E-10 -2.40538E-10 -2.05632E-10 -1.71019E-10
  -1.36688E-10 -1.02631E-10 -6.88397E-11 -3.53126E-11 -2.03548E-12  3.09962E-11  6.37922E-11  9.63546E-11  1.28697E-10  1.60819E-10
   1.92736E-10  2.24453E-10  2.55973E-10  2.87306E-10  3.18459E-10  3.49445E-10  3.80268E-10  4.10931E-10  4.41441E-10  4.71816E-10
   5.02050E-10  5.32151E-10  5.62144E-10  5.92019E-10  6.21780E-10  6.51454E-10  6.81039E-10  7.10531E-10  7.39950E-10  7.69305E-10
   7.98589E-10  8.27831E-10  8.57017E-10  8.86168E-10  9.15280E-10  9.44372E-10  9.73450E-10  1.00251E-09  1.03158E-09  1.06065E-09
   1.08973E-09  1.11883E-09  1.14795E-09  1.17711E-09  1.20632E-09  1.23557E-09  1.26487E-09  1.29424E-09  1.32368E-09  1.35320E-09
   1.38280E-09  1.41250E-09  1.44230E-09
 NY background values follow
     7.575E-09    7.510E-09    7.446E-09    7.381E-09    7.317E-09    7.252E-09    7.188E-09    7.123E-09    7.058E-09    6.994E-09
     6.929E-09    6.865E-09    6.801E-09    6.736E-09    6.672E-09    6.607E-09    6.543E-09    6.479E-09    6.415E-09    6.350E-09
     6.286E-09    6.222E-09    6.158E-09    6.094E-09    6.030E-09    5.966E-09    5.902E-09    5.839E-09    5.775E-09    5.711E-09
     5.648E-09    5.584E-09    5.521E-09    5.457E-09    5.394E-09    5.331E-09    5.268E-09    5.205E-09    5.142E-09    5.079E-09
     5.016E-09    4.953E-09    4.891E-09    4.828E-09    4.766E-09    4.703E-09    4.641E-09    4.579E-09    4.517E-09    4.455E-09
     4.393E-09    4.332E-09    4.270E-09    4.209E-09    4.147E-09    4.086E-09    4.025E-09    3.964E-09    3.903E-09    3.843E-09
     3.782E-09    3.722E-09    3.661E-09    3.601E-09    3.541E-09    3.481E-09    3.422E-09    3.362E-09    3.302E-09    3.243E-09
     3.183E-09    3.124E-09    3.065E-09    3.006E-09    2.946E-09    2.887E-09    2.828E-09    2.769E-09    2.710E-09    2.652E-09
     2.593E-09    2.534E-09    2.475E-09    2.416E-09    2.357E-09    2.299E-09    2.240E-09    2.181E-09    2.122E-09    2.063E-09
     2.004E-09    1.945E-09    1.886E-09    1.827E-09    1.768E-09    1.709E-09    1.650E-09    1.590E-09    1.531E-09    1.472E-09
     1.412E-09    1.352E-09    1.293E-09    1.233E-09    1.173E-09    1.113E-09    1.053E-09    9.922E-10    9.317E-10    8.711E-10
     8.103E-10    7.494E-10    6.883E-10    6.270E-10    5.656E-10    5.040E-10    4.422E-10    3.803E-10    3.181E-10    2.558E-10
     1.932E-10    1.304E-10    6.737E-11    4.189E-12   -5.915E-11   -1.226E-10   -1.862E-10   -2.499E-10   -3.136E-10   -3.774E-10
    -4.412E-10   -5.050E-10   -5.687E-10   -6.324E-10   -6.960E-10   -7.594E-10   -8.228E-10   -8.860E-10   -9.490E-10   -1.012E-09
    -1.074E-09   -1.137E-09   -1.199E-09   -1.260E-09   -1.322E-09   -1.383E-09   -1.443E-09   -1.504E-09   -1.563E-09   -1.623E-09
    -1.682E-09   -1.740E-09   -1.798E-09   -1.855E-09   -1.912E-09   -1.968E-09   -2.024E-09   -2.078E-09   -2.133E-09   -2.186E-09
    -2.239E-09   -2.291E-09   -2.342E-09   -2.392E-09   -2.442E-09   -2.491E-09   -2.539E-09   -2.586E-09   -2.632E-09   -2.677E-09
    -2.721E-09   -2.764E-09   -2.806E-09   -2.847E-09   -2.887E-09   -2.926E-09   -2.964E-09   -3.001E-09   -3.036E-09   -3.071E-09
    -3.104E-09   -3.136E-09   -3.166E-09   -3.195E-09   -3.224E-09   -3.250E-09   -3.276E-09   -3.300E-09   -3.324E-09   -3.346E-09
    -3.367E-09   -3.386E-09   -3.405E-09   -3.422E-09   -3.438E-09   -3.453E-09   -3.467E-09   -3.480E-09   -3.492E-09   -3.502E-09
    -3.512E-09   -3.520E-09   -3.528E-09   -3.534E-09   -3.539E-09   -3.544E-09   -3.547E-09   -3.549E-09   -3.550E-09   -3.551E-09
    -3.550E-09   -3.548E-09   -3.545E-09   -3.542E-09   -3.537E-09   -3.531E-09   -3.525E-09   -3.518E-09   -3.509E-09   -3.500E-09
    -3.490E-09   -3.479E-09   -3.467E-09   -3.454E-09   -3.441E-09   -3.427E-09   -3.411E-09   -3.395E-09   -3.378E-09   -3.361E-09
    -3.342E-09   -3.323E-09   -3.303E-09   -3.282E-09   -3.261E-09   -3.239E-09   -3.216E-09   -3.192E-09   -3.168E-09   -3.143E-09
    -3.117E-09   -3.091E-09   -3.063E-09   -3.036E-09   -3.007E-09   -2.978E-09   -2.949E-09   -2.918E-09   -2.888E-09   -2.856E-09
    -2.824E-09   -2.792E-09   -2.759E-09   -2.726E-09   -2.692E-09   -2.658E-09   -2.623E-09   -2.588E-09   -2.552E-09   -2.516E-09
    -2.480E-09   -2.443E-09   -2.406E-09   -2.369E-09   -2.331E-09   -2.293E-09   -2.255E-09   -2.216E-09   -2.177E-09   -2.138E-09
    -2.099E-09   -2.060E-09   -2.020E-09   -1.981E-09   -1.941E-09   -1.901E-09   -1.861E-09   -1.821E-09   -1.781E-09   -1.740E-09
    -1.700E-09   -1.660E-09   -1.619E-09   -1.579E-09   -1.539E-09   -1.498E-09   -1.458E-09   -1.418E-09   -1.378E-09   -1.338E-09
    -1.298E-09   -1.259E-09   -1.219E-09   -1.180E-09   -1.141E-09   -1.102E-09   -1.063E-09   -1.025E-09   -9.865E-10   -9.486E-10
    -9.109E-10   -8.736E-10   -8.366E-10   -8.000E-10   -7.636E-10   -7.276E-10   -6.919E-10   -6.565E-10   -6.214E-10   -5.866E-10
    -5.521E-10   -5.178E-10   -4.838E-10   -4.501E-10   -4.166E-10   -3.834E-10   -3.504E-10   -3.176E-10   -2.851E-10   -2.528E-10
    -2.207E-10   -1.888E-10   -1.570E-10   -1.255E-10   -9.416E-11   -6.297E-11   -3.195E-11   -1.090E-12    2.962E-11    6.019E-11
     9.063E-11    1.209E-10    1.511E-10    1.812E-10    2.112E-10    2.410E-10    2.708E-10    3.005E-10    3.301E-10    3.597E-10
     3.892E-10    4.186E-10    4.480E-10    4.774E-10    5.067E-10    5.360E-10    5.653E-10    5.946E-10    6.238E-10    6.531E-10
     6.824E-10    7.117E-10    7.410E-10    7.704E-10    7.998E-10    8.293E-10    8.588E-10    8.884E-10    9.181E-10    9.478E-10
     9.776E-10    1.008E-09    1.038E-09
 GABA     Conc. = 2.49E-09
   7.83276E-09  7.77115E-09  7.70978E-09  7.64865E-09  7.58777E-09  7.52721E-09  7.46699E-09  7.40713E-09  7.34772E-09  7.28881E-09
   7.23047E-09  7.17276E-09  7.11589E-09  7.05992E-09  7.00501E-09  6.95143E-09  6.89928E-09  6.84881E-09  6.80055E-09  6.75494E-09
   6.71257E-09  6.67445E-09  6.64181E-09  6.61658E-09  6.60179E-09  6.60183E-09  6.62451E-09  6.68473E-09  6.81534E-09  7.10920E-09
   7.58074E-09  7.98593E-09  8.49791E-09  9.27495E-09  9.97295E-09  1.05061E-08  1.09659E-08  1.12527E-08  1.12736E-08  1.09898E-08
   1.04695E-08  9.88859E-09  9.19763E-09  8.13796E-09  7.30554E-09  6.87826E-09  6.29192E-09  5.72557E-09  5.43040E-09  5.24229E-09
   5.10703E-09  5.00312E-09  4.92007E-09  4.85302E-09  4.79975E-09  4.75950E-09  4.73346E-09  4.72494E-09  4.74005E-09  4.79076E-09
   4.90089E-09  5.12936E-09  5.61286E-09  6.11387E-09  6.53931E-09  7.23709E-09  7.94908E-09  8.42126E-09  8.74596E-09  8.89488E-09
   8.80173E-09  8.41813E-09  7.77115E-09  7.03062E-09  6.38891E-09  5.46692E-09  4.51106E-09  4.20443E-09  3.92692E-09  3.53126E-09
   3.43280E-09  3.46170E-09  3.48548E-09  3.70592E-09  4.04501E-09  4.30212E-09  4.61473E-09  4.98929E-09  5.30469E-09  5.53412E-09
   5.61176E-09  5.59872E-09  5.57757E-09  5.31018E-09  4.82081E-09  4.53581E-09  4.20348E-09  3.64261E-09  3.24931E-09  2.97024E-09
   2.65418E-09  2.39532E-09  2.19696E-09  2.03502E-09  1.89660E-09  1.77404E-09  1.66274E-09  1.56006E-09  1.46416E-09  1.37359E-09
   1.28721E-09  1.20378E-09  1.12283E-09  1.04396E-09  9.66918E-10  8.91507E-10  8.17509E-10  7.44512E-10  6.72340E-10  6.00900E-10
   5.29999E-10  4.59642E-10  3.89741E-10  3.20233E-10  2.51072E-10  1.82239E-10  1.13700E-10  4.54423E-11 -2.25224E-11 -9.02047E-11
  -1.57614E-10 -2.24740E-10 -2.91585E-10 -3.58128E-10 -4.24360E-10 -4.90264E-10 -5.55834E-10 -6.21060E-10 -6.85923E-10 -7.50403E-10
  -8.14464E-10 -8.78085E-10 -9.41244E-10 -1.00391E-09 -1.06608E-09 -1.12772E-09 -1.18876E-09 -1.24916E-09 -1.30890E-09 -1.36792E-09
  -1.42616E-09 -1.48356E-09 -1.54004E-09 -1.59549E-09 -1.64980E-09 -1.70281E-09 -1.75432E-09 -1.80407E-09 -1.85168E-09 -1.89660E-09
  -1.93807E-09 -1.97477E-09 -2.00456E-09 -2.02345E-09 -2.02313E-09 -1.98266E-09 -1.82986E-09 -1.19296E-09 -1.87887E-10  7.59171E-10
   1.43886E-09  1.85034E-09  2.09475E-09  2.24735E-09  2.26967E-09  2.00468E-09  1.25503E-09 -4.10314E-11 -1.53522E-09 -2.34957E-09
  -2.60895E-09 -2.74055E-09 -2.82592E-09 -2.88931E-09 -2.94030E-09 -2.98344E-09 -3.02114E-09 -3.05479E-09 -3.08526E-09 -3.11310E-09
  -3.13870E-09 -3.16231E-09 -3.18414E-09 -3.20431E-09 -3.22295E-09 -3.24014E-09 -3.25594E-09 -3.27041E-09 -3.28360E-09 -3.29553E-09
  -3.30625E-09 -3.31579E-09 -3.32417E-09 -3.33140E-09 -3.33752E-09 -3.34254E-09 -3.34648E-09 -3.34935E-09 -3.35118E-09 -3.35196E-09
  -3.35173E-09 -3.35049E-09 -3.34826E-09 -3.34504E-09 -3.34085E-09 -3.33570E-09 -3.32961E-09 -3.32258E-09 -3.31463E-09 -3.30577E-09
  -3.29601E-09 -3.28535E-09 -3.27382E-09 -3.26141E-09 -3.24815E-09 -3.23405E-09 -3.21910E-09 -3.20333E-09 -3.18675E-09 -3.16935E-09
  -3.15117E-09 -3.13219E-09 -3.11245E-09 -3.09194E-09 -3.07067E-09 -3.04866E-09 -3.02592E-09 -3.00246E-09 -2.97828E-09 -2.95340E-09
  -2.92782E-09 -2.90157E-09 -2.87464E-09 -2.84705E-09 -2.81882E-09 -2.78997E-09 -2.76050E-09 -2.73045E-09 -2.69982E-09 -2.66864E-09
  -2.63692E-09 -2.60466E-09 -2.57191E-09 -2.53866E-09 -2.50494E-09 -2.47076E-09 -2.43614E-09 -2.40109E-09 -2.36564E-09 -2.32980E-09
  -2.29358E-09 -2.25701E-09 -2.22009E-09 -2.18285E-09 -2.14530E-09 -2.10747E-09 -2.06936E-09 -2.03099E-09 -1.99238E-09 -1.95355E-09
  -1.91450E-09 -1.87527E-09 -1.83587E-09 -1.79630E-09 -1.75660E-09 -1.71677E-09 -1.67683E-09 -1.63681E-09 -1.59670E-09 -1.55655E-09
  -1.51635E-09 -1.47612E-09 -1.43589E-09 -1.39567E-09 -1.35547E-09 -1.31531E-09 -1.27522E-09 -1.23520E-09 -1.19526E-09 -1.15545E-09
  -1.11575E-09 -1.07620E-09 -1.03681E-09 -9.97592E-10 -9.58562E-10 -9.19736E-10 -8.81142E-10 -8.42793E-10 -8.04705E-10 -7.66890E-10
  -7.29357E-10 -6.92126E-10 -6.55242E-10 -6.18679E-10 -5.82445E-10 -5.46528E-10 -5.10921E-10 -4.75621E-10 -4.40613E-10 -4.05898E-10
  -3.71466E-10 -3.37307E-10 -3.03414E-10 -2.69785E-10 -2.36406E-10 -2.03272E-10 -1.70373E-10 -1.37709E-10 -1.05264E-10 -7.30395E-11
  -4.10195E-11 -9.20003E-12  2.24231E-11  5.38590E-11  8.51159E-11  1.16205E-10  1.47132E-10  1.77899E-10  2.08513E-10  2.38994E-10
   2.69332E-10  2.99538E-10  3.29636E-10  3.59618E-10  3.89485E-10  4.19264E-10  4.48956E-10  4.78555E-10  5.08081E-10  5.37544E-10
   5.66936E-10  5.96287E-10  6.25582E-10  6.54842E-10  6.84065E-10  7.13267E-10  7.42455E-10  7.71631E-10  8.00805E-10  8.29988E-10
   8.59179E-10  8.88392E-10  9.17630E-10  9.46902E-10  9.76224E-10  1.00559E-09  1.03501E-09  1.06450E-09  1.09405E-09  1.12368E-09
   1.15341E-09  1.18322E-09  1.21314E-09
 GPC      Conc. = 1.07E-10
   8.14725E-09  8.02335E-09  7.88593E-09  7.78261E-09  7.73281E-09  7.74137E-09  7.76417E-09  7.76960E-09  7.75142E-09  7.71066E-09
   7.64912E-09  7.55954E-09  7.43213E-09  7.26866E-09  7.07611E-09  6.89227E-09  6.74297E-09  6.63852E-09  6.56135E-09  6.49608E-09
   6.44172E-09  6.40640E-09  6.42381E-09  6.66152E-09  7.01647E-09  7.32841E-09  7.52877E-09  7.62739E-09  7.66711E-09  7.67324E-09
   7.62287E-09  7.44808E-09  7.07150E-09  6.48207E-09  5.84780E-09  5.53749E-09  5.39925E-09  5.30207E-09  5.22003E-09  5.14519E-09
   5.07429E-09  5.00579E-09  4.93889E-09  4.87309E-09  4.80808E-09  4.74371E-09  4.67980E-09  4.61628E-09  4.55313E-09  4.49026E-09
   4.42765E-09  4.36525E-09  4.30308E-09  4.24110E-09  4.17929E-09  4.11765E-09  4.05619E-09  3.99492E-09  3.93378E-09  3.87284E-09
   3.81203E-09  3.75139E-09  3.69092E-09  3.63060E-09  3.57042E-09  3.51036E-09  3.45042E-09  3.39060E-09  3.33089E-09  3.27127E-09
   3.21175E-09  3.15232E-09  3.09298E-09  3.03370E-09  2.97449E-09  2.91535E-09  2.85626E-09  2.79723E-09  2.73823E-09  2.67928E-09
   2.62036E-09  2.56145E-09  2.50256E-09  2.44370E-09  2.38484E-09  2.32597E-09  2.26711E-09  2.20823E-09  2.14933E-09  2.09042E-09
   2.03146E-09  1.97249E-09  1.91347E-09  1.85439E-09  1.79527E-09  1.73608E-09  1.67684E-09  1.61751E-09  1.55811E-09  1.49864E-09
   1.43907E-09  1.37941E-09  1.31965E-09  1.25977E-09  1.19979E-09  1.13969E-09  1.07945E-09  1.01910E-09  9.58615E-10  8.97976E-10
   8.37203E-10  7.76255E-10  7.15165E-10  6.53892E-10  5.92461E-10  5.30847E-10  4.69054E-10  4.07074E-10  3.44896E-10  2.82551E-10
   2.19945E-10  1.57147E-10  9.41391E-11  3.09519E-11 -3.23963E-11 -9.58771E-11 -1.59472E-10 -2.23152E-10 -2.86891E-10 -3.50667E-10
  -4.14455E-10 -4.78228E-10 -5.41967E-10 -6.05641E-10 -6.69231E-10 -7.32706E-10 -7.96050E-10 -8.59232E-10 -9.22225E-10 -9.85011E-10
  -1.04756E-09 -1.10985E-09 -1.17186E-09 -1.23354E-09 -1.29491E-09 -1.35592E-09 -1.41653E-09 -1.47674E-09 -1.53652E-09 -1.59583E-09
  -1.65465E-09 -1.71297E-09 -1.77074E-09 -1.82793E-09 -1.88454E-09 -1.94053E-09 -1.99585E-09 -2.05048E-09 -2.10438E-09 -2.15748E-09
  -2.20976E-09 -2.26109E-09 -2.31136E-09 -2.36030E-09 -2.40737E-09 -2.45099E-09 -2.48397E-09 -2.48871E-09 -2.48634E-09 -2.49193E-09
  -2.50979E-09 -2.53674E-09 -2.56783E-09 -2.60163E-09 -2.64267E-09 -2.69976E-09 -2.78066E-09 -2.88179E-09 -2.97580E-09 -3.02627E-09
  -3.06558E-09 -3.10065E-09 -3.13319E-09 -3.16382E-09 -3.19283E-09 -3.22037E-09 -3.24653E-09 -3.27136E-09 -3.29490E-09 -3.31720E-09
  -3.33826E-09 -3.35811E-09 -3.37677E-09 -3.39425E-09 -3.41057E-09 -3.42574E-09 -3.43977E-09 -3.45268E-09 -3.46447E-09 -3.47516E-09
  -3.48475E-09 -3.49327E-09 -3.50071E-09 -3.50710E-09 -3.51243E-09 -3.51673E-09 -3.51999E-09 -3.52224E-09 -3.52348E-09 -3.52372E-09
  -3.52297E-09 -3.52124E-09 -3.51854E-09 -3.51489E-09 -3.51029E-09 -3.50475E-09 -3.49828E-09 -3.49089E-09 -3.48260E-09 -3.47341E-09
  -3.46333E-09 -3.45237E-09 -3.44054E-09 -3.42786E-09 -3.41433E-09 -3.39996E-09 -3.38476E-09 -3.36874E-09 -3.35191E-09 -3.33429E-09
