 LCModel (Version 6.3-1R) Copyright: S.W. Provencher.          Ref.: Magn. Reson. Med. 30:672-679 (1993).                
 onepulse 23x30_ftSpec_smooth_lcm
 26 lines in following concentration table = NCONC+1
    Conc.  %SD   /Cr    Metabolite                                         
    0.000 999%   0.000 Ala                                                 
    0.000 999%   0.000 Asp                                                 
    0.000 999%   0.000 Cr                                                  
    0.000 999%   0.000 GABA                                                
    0.000 999%   0.000 Glc                                                 
    0.000 999%   0.000 Gln                                                 
    0.000 999%   0.000 Glu                                                 
    0.000 999%   0.000 Glyc                                                
    0.000 999%   0.000 GPC                                                 
    0.000 999%   0.000 GSH                                                 
    0.000 999%   0.000 Ins                                                 
    0.000 999%   0.000 Lac                                                 
    0.000 999%   0.000 NAAG                                                
    0.000 999%   0.000 NAA                                                 
    0.000 999%   0.000 PCh                                                 
    0.000 999%   0.000 PCr                                                 
    0.000 999%   0.000 PE                                                  
    0.000 999%   0.000 Scyllo                                              
    0.000 999%   0.000 Ser                                                 
    0.000 999%   0.000 Tau                                                 
    0.000 999%   0.000 GPC+PCh                                             
    0.000 999%   0.000 NAA+NAAG                                            
    0.000 999%   0.000 Ins+Glyc                                            
    0.000 999%   0.000 Cr+PCr                                              
    0.000 999%   0.000 Glu+Gln                                             
   6 lines in following misc. output table
  FWHM = 0.078 ppm    S/N =   0                                            
  Data shift = 0.168 ppm                                                   
  Ph:-167 deg       0.6 deg/ppm                                            
  alphaB,S = 2.3E+00,   3.7E-01                                            
    8 spline knots.   Ns = 5(1)                                            
   2 inflections.     1 extrema                                            
  363 points on ppm-axis = NY
      4.250000     4.238821     4.227641     4.216462     4.205282     4.194103     4.182923     4.171744     4.160564     4.149385
      4.138206     4.127026     4.115847     4.104667     4.093488     4.082308     4.071129     4.059949     4.048770     4.037591
      4.026411     4.015232     4.004052     3.992873     3.981693     3.970514     3.959334     3.948155     3.936975     3.925796
      3.914617     3.903437     3.892258     3.881078     3.869899     3.858719     3.847540     3.836360     3.825181     3.814002
      3.802822     3.791643     3.780463     3.769284     3.758104     3.746925     3.735745     3.724566     3.713387     3.702207
      3.691028     3.679848     3.668669     3.657489     3.646310     3.635130     3.623951     3.612772     3.601592     3.590413
      3.579233     3.568054     3.556874     3.545695     3.534515     3.523336     3.512156     3.500977     3.489798     3.478618
      3.467439     3.456259     3.445080     3.433900     3.422721     3.411541     3.400362     3.389183     3.378003     3.366824
      3.355644     3.344465     3.333285     3.322106     3.310926     3.299747     3.288568     3.277388     3.266209     3.255029
      3.243850     3.232670     3.221491     3.210311     3.199132     3.187953     3.176773     3.165594     3.154414     3.143235
      3.132055     3.120876     3.109696     3.098517     3.087337     3.076158     3.064979     3.053799     3.042620     3.031440
      3.020261     3.009081     2.997902     2.986722     2.975543     2.964364     2.953184     2.942005     2.930825     2.919646
      2.908466     2.897287     2.886107     2.874928     2.863749     2.852569     2.841390     2.830210     2.819031     2.807851
      2.796672     2.785492     2.774313     2.763134     2.751954     2.740775     2.729595     2.718416     2.707236     2.696057
      2.684877     2.673698     2.662519     2.651339     2.640160     2.628980     2.617801     2.606621     2.595442     2.584262
      2.573083     2.561903     2.550724     2.539545     2.528365     2.517186     2.506006     2.494827     2.483647     2.472468
      2.461288     2.450109     2.438930     2.427750     2.416571     2.405391     2.394212     2.383032     2.371853     2.360673
      2.349494     2.338315     2.327135     2.315956     2.304776     2.293597     2.282417     2.271238     2.260058     2.248879
      2.237700     2.226520     2.215341     2.204161     2.192982     2.181802     2.170623     2.159443     2.148264     2.137084
      2.125905     2.114726     2.103546     2.092367     2.081187     2.070008     2.058828     2.047649     2.036469     2.025290
      2.014111     2.002931     1.991752     1.980572     1.969393     1.958213     1.947034     1.935854     1.924675     1.913496
      1.902316     1.891137     1.879957     1.868778     1.857598     1.846419     1.835239     1.824060     1.812881     1.801701
      1.790522     1.779342     1.768163     1.756983     1.745804     1.734624     1.723445     1.712265     1.701086     1.689907
      1.678727     1.667548     1.656368     1.645189     1.634009     1.622830     1.611650     1.600471     1.589292     1.578112
      1.566933     1.555753     1.544574     1.533394     1.522215     1.511035     1.499856     1.488677     1.477497     1.466318
      1.455138     1.443959     1.432779     1.421600     1.410420     1.399241     1.388062     1.376882     1.365703     1.354523
      1.343344     1.332164     1.320985     1.309805     1.298626     1.287446     1.276267     1.265088     1.253908     1.242729
      1.231549     1.220370     1.209190     1.198011     1.186831     1.175652     1.164473     1.153293     1.142114     1.130934
      1.119755     1.108575     1.097396     1.086216     1.075037     1.063858     1.052678     1.041499     1.030319     1.019140
      1.007960     0.996781     0.985601     0.974422     0.963243     0.952063     0.940884     0.929704     0.918525     0.907345
      0.896166     0.884986     0.873807     0.862628     0.851448     0.840269     0.829089     0.817910     0.806730     0.795551
      0.784371     0.773192     0.762012     0.750833     0.739654     0.728474     0.717295     0.706115     0.694936     0.683756
      0.672577     0.661397     0.650218     0.639039     0.627859     0.616680     0.605500     0.594321     0.583141     0.571962
      0.560782     0.549603     0.538424     0.527244     0.516065     0.504885     0.493706     0.482526     0.471347     0.460167
      0.448988     0.437809     0.426629     0.415450     0.404270     0.393091     0.381911     0.370732     0.359552     0.348373
      0.337193     0.326014     0.314835     0.303655     0.292476     0.281296     0.270117     0.258937     0.247758     0.236578
      0.225399     0.214220     0.203040
 NY phased data points follow
  -5.35176E-09 -5.14088E-09 -5.87936E-09 -5.78454E-09 -6.08570E-09 -5.54530E-09 -5.78759E-09 -5.75285E-09 -5.87237E-09 -5.03935E-09
  -5.44953E-09 -5.09292E-09 -6.15793E-09 -6.25360E-09 -7.36275E-09 -8.23898E-09 -9.76595E-09 -9.68444E-09 -9.18968E-09 -7.99901E-09
  -7.58343E-09 -6.86432E-09 -6.91339E-09 -6.70550E-09 -6.67390E-09 -6.13145E-09 -6.43594E-09 -6.66985E-09 -6.98535E-09 -7.14657E-09
  -7.52229E-09 -7.47782E-09 -7.28141E-09 -6.38576E-09 -6.89941E-09 -6.46421E-09 -6.65232E-09 -6.14273E-09 -6.01216E-09 -6.13124E-09
  -6.10957E-09 -6.59761E-09 -6.65550E-09 -6.00170E-09 -5.73082E-09 -5.89145E-09 -5.94097E-09 -6.20623E-09 -7.37047E-09 -7.50803E-09
  -7.29015E-09 -6.31449E-09 -5.92929E-09 -5.54895E-09 -5.17732E-09 -5.33568E-09 -5.10228E-09 -4.83976E-09 -4.60700E-09 -4.88142E-09
  -4.83575E-09 -4.79535E-09 -4.52424E-09 -4.39536E-09 -4.16231E-09 -3.76023E-09 -4.26237E-09 -4.12461E-09 -4.25266E-09 -4.15445E-09
  -3.85301E-09 -3.45537E-09 -3.30139E-09 -3.63919E-09 -3.67992E-09 -3.76767E-09 -4.15188E-09 -4.11351E-09 -5.04678E-09 -5.44737E-09
  -6.24322E-09 -5.62869E-09 -5.55783E-09 -4.99755E-09 -4.46195E-09 -4.04956E-09 -4.07709E-09 -3.97964E-09 -3.37441E-09 -3.32480E-09
  -3.27643E-09 -2.96557E-09 -3.12327E-09 -3.03666E-09 -4.73184E-09 -6.49516E-09 -7.90596E-09 -8.52834E-09 -8.37346E-09 -6.77871E-09
  -6.54833E-09 -6.28763E-09 -5.70167E-09 -5.69152E-09 -4.76977E-09 -4.89619E-09 -4.74305E-09 -4.60620E-09 -4.18641E-09 -4.17390E-09
  -3.96436E-09 -3.41858E-09 -3.22254E-09 -3.01747E-09 -3.27367E-09 -2.61165E-09 -2.92105E-09 -2.74405E-09 -3.19806E-09 -2.82950E-09
  -2.69106E-09 -2.52183E-09 -2.57446E-09 -2.66545E-09 -2.45305E-09 -1.44163E-09 -1.88887E-09 -1.01177E-09 -1.34552E-09 -1.38362E-09
  -1.37203E-09 -1.72267E-09 -1.58421E-09 -1.52764E-09 -1.56736E-09 -1.80965E-09 -1.44046E-09 -1.63593E-09 -1.16363E-09 -8.21296E-10
  -7.24830E-10  1.95897E-11 -1.55881E-10 -1.94709E-10 -2.30757E-10 -5.89367E-10 -5.62004E-10 -3.79788E-10 -4.69977E-10 -6.45252E-10
  -7.58677E-10 -1.15564E-09 -9.48119E-10 -5.44640E-10 -1.46083E-09 -1.77166E-09 -2.69873E-09 -3.21938E-09 -3.35914E-09 -3.24985E-09
  -3.38015E-09 -3.90071E-09 -4.52343E-09 -4.70700E-09 -4.78131E-09 -4.32362E-09 -4.32948E-09 -4.48106E-09 -4.54490E-09 -4.07360E-09
  -4.05956E-09 -4.28740E-09 -4.12950E-09 -4.39516E-09 -4.00234E-09 -4.44631E-09 -4.17226E-09 -4.53389E-09 -4.68317E-09 -4.76062E-09
  -4.45636E-09 -4.21172E-09 -4.59382E-09 -4.98129E-09 -4.86379E-09 -5.93936E-09 -7.44104E-09 -9.51970E-09 -1.06619E-08 -9.82330E-09
  -8.23784E-09 -7.35193E-09 -6.28081E-09 -5.57765E-09 -5.01531E-09 -3.54300E-09 -3.37778E-09 -2.48432E-09 -1.45887E-09 -7.47677E-10
   1.01515E-10  1.08100E-09  1.88085E-09  3.56516E-09  4.96243E-09  6.32916E-09  7.00283E-09  8.93229E-09  1.04118E-08  1.14917E-08
   1.29194E-08  1.44877E-08  1.50169E-08  1.58331E-08  1.62845E-08  1.62216E-08  1.60830E-08  1.48578E-08  1.41271E-08  1.27630E-08
   1.11890E-08  9.11525E-09  7.08192E-09  5.50033E-09  3.26705E-09  1.90425E-09  6.72746E-10 -3.96841E-10 -4.28195E-10 -8.60479E-10
  -9.82908E-10 -7.33535E-10 -2.29901E-10  9.02636E-12  8.14746E-10  1.07252E-09  1.12041E-09  9.10332E-10  7.62613E-10  6.47891E-10
   6.39746E-10  6.84360E-10  1.05807E-09  6.73717E-10  1.69327E-09  1.45375E-09  1.23000E-09  1.33674E-09  9.41592E-10  8.69129E-10
   1.11509E-09  1.10166E-09  8.44407E-10  1.04609E-09  1.37401E-09  1.20529E-09  1.46669E-09  8.49191E-10  1.01688E-09  1.23565E-09
   9.84727E-10  6.41097E-10  8.25097E-10  7.11009E-10  7.37617E-10  7.72546E-10  1.41485E-09  1.15046E-09  1.15398E-09  1.37471E-09
   1.00229E-09  5.68221E-10  1.49643E-10  4.06007E-10  4.31373E-10  6.12835E-10  7.87065E-10  8.45149E-10  6.64127E-10  1.24990E-09
   1.07602E-09  1.67024E-09  1.50771E-09  9.51211E-10  1.08437E-09  1.21120E-09  7.62845E-10  7.57520E-10  8.77944E-10  4.74397E-10
   3.74120E-10  3.49204E-10  4.73774E-10  6.64634E-10  5.38022E-10  7.54082E-10  5.43564E-10  5.80998E-10  7.34891E-10  6.24888E-10
   1.09439E-09  1.11053E-09  8.36875E-10  9.91463E-10  1.08217E-09  1.07443E-09  9.24358E-10  9.30600E-10  1.15262E-09  1.15912E-09
   8.72004E-10  9.56743E-10  1.14623E-09  8.45910E-10  9.63178E-10  9.43386E-10  1.03230E-09  9.79909E-10  9.65027E-10  9.87197E-10
   6.19457E-10  1.07459E-09  8.20605E-10  8.53890E-10  1.01327E-09  7.29672E-10  9.21277E-10  6.38276E-10  6.30909E-10  7.78470E-10
   9.54766E-10  7.27685E-10  8.57966E-10  4.01407E-10  3.07213E-10  8.68644E-10  6.59994E-10  7.54304E-10  5.84013E-10  1.05008E-09
   6.77683E-10  7.29548E-10  1.08293E-09  7.31246E-10  8.68824E-10  6.97852E-10  1.08771E-09  8.97974E-10  8.73435E-10  6.64288E-10
   9.94368E-10  1.03684E-09  1.18244E-09  6.74276E-10  1.09912E-09  1.17594E-09  9.36780E-10  1.06964E-09  9.95239E-10  1.18902E-09
   9.40856E-10  9.59095E-10  1.00067E-09
 NY points of the fit to the data follow
  -7.39197E-09 -7.35604E-09 -7.32010E-09 -7.28413E-09 -7.24815E-09 -7.21216E-09 -7.17615E-09 -7.14011E-09 -7.10407E-09 -7.06799E-09
  -7.03191E-09 -6.99582E-09 -6.95970E-09 -6.92357E-09 -6.88742E-09 -6.85125E-09 -6.81505E-09 -6.77885E-09 -6.74263E-09 -6.70638E-09
  -6.67013E-09 -6.63385E-09 -6.59755E-09 -6.56124E-09 -6.52490E-09 -6.48855E-09 -6.45218E-09 -6.41579E-09 -6.37939E-09 -6.34296E-09
  -6.30652E-09 -6.27006E-09 -6.23357E-09 -6.19707E-09 -6.16054E-09 -6.12403E-09 -6.08746E-09 -6.05087E-09 -6.01429E-09 -5.97766E-09
  -5.94103E-09 -5.90437E-09 -5.86770E-09 -5.83099E-09 -5.79429E-09 -5.75754E-09 -5.72080E-09 -5.68401E-09 -5.64721E-09 -5.61041E-09
  -5.57356E-09 -5.53672E-09 -5.49983E-09 -5.46293E-09 -5.42603E-09 -5.38908E-09 -5.35212E-09 -5.31517E-09 -5.27813E-09 -5.24111E-09
  -5.20408E-09 -5.16700E-09 -5.12992E-09 -5.09280E-09 -5.05569E-09 -5.01854E-09 -4.98137E-09 -4.94417E-09 -4.90695E-09 -4.86972E-09
  -4.83245E-09 -4.79516E-09 -4.75787E-09 -4.72053E-09 -4.68318E-09 -4.64581E-09 -4.60841E-09 -4.57100E-09 -4.53357E-09 -4.49612E-09
  -4.45863E-09 -4.42113E-09 -4.38361E-09 -4.34606E-09 -4.30850E-09 -4.27091E-09 -4.23329E-09 -4.19567E-09 -4.15802E-09 -4.12034E-09
  -4.08264E-09 -4.04493E-09 -4.00719E-09 -3.96944E-09 -3.93166E-09 -3.89385E-09 -3.85603E-09 -3.81819E-09 -3.78032E-09 -3.74244E-09
  -3.70454E-09 -3.66661E-09 -3.62866E-09 -3.59070E-09 -3.55271E-09 -3.51470E-09 -3.47667E-09 -3.43863E-09 -3.40057E-09 -3.36246E-09
  -3.32437E-09 -3.28624E-09 -3.24808E-09 -3.20991E-09 -3.17171E-09 -3.13350E-09 -3.09527E-09 -3.05703E-09 -3.01875E-09 -2.98047E-09
  -2.94215E-09 -2.90383E-09 -2.86547E-09 -2.82711E-09 -2.78872E-09 -2.75031E-09 -2.71187E-09 -2.67343E-09 -2.63497E-09 -2.59648E-09
  -2.55798E-09 -2.51944E-09 -2.48090E-09 -2.44234E-09 -2.40376E-09 -2.36514E-09 -2.32654E-09 -2.28790E-09 -2.24924E-09 -2.21056E-09
  -2.17186E-09 -2.13315E-09 -2.09442E-09 -2.05566E-09 -2.01689E-09 -1.97810E-09 -1.93930E-09 -1.90048E-09 -1.86166E-09 -1.82284E-09
  -1.78402E-09 -1.74522E-09 -1.70644E-09 -1.66768E-09 -1.62896E-09 -1.59027E-09 -1.55162E-09 -1.51303E-09 -1.47449E-09 -1.43602E-09
  -1.39760E-09 -1.35927E-09 -1.32101E-09 -1.28284E-09 -1.24476E-09 -1.20678E-09 -1.16890E-09 -1.13114E-09 -1.09348E-09 -1.05596E-09
  -1.01856E-09 -9.81291E-10 -9.44168E-10 -9.07185E-10 -8.70359E-10 -8.33692E-10 -7.97188E-10 -7.60857E-10 -7.24704E-10 -6.88725E-10
  -6.52946E-10 -6.17364E-10 -5.81968E-10 -5.46790E-10 -5.11823E-10 -4.77070E-10 -4.42544E-10 -4.08269E-10 -3.74212E-10 -3.40398E-10
  -3.06850E-10 -2.73542E-10 -2.40499E-10 -2.07717E-10 -1.75223E-10 -1.43003E-10 -1.11055E-10 -7.94181E-11 -4.80819E-11 -1.70379E-11
   1.36948E-11  4.41105E-11  7.41970E-11  1.03957E-10  1.33394E-10  1.62474E-10  1.91212E-10  2.19601E-10  2.47638E-10  2.75289E-10
   3.02592E-10  3.29506E-10  3.56035E-10  3.82177E-10  4.07936E-10  4.33278E-10  4.58216E-10  4.82751E-10  5.06853E-10  5.30544E-10
   5.53820E-10  5.76689E-10  5.99150E-10  6.21212E-10  6.42873E-10  6.64144E-10  6.85025E-10  7.05519E-10  7.25633E-10  7.45367E-10
   7.64730E-10  7.83723E-10  8.02350E-10  8.20616E-10  8.38525E-10  8.56080E-10  8.73287E-10  8.90146E-10  9.06666E-10  9.22846E-10
   9.38693E-10  9.54214E-10  9.69408E-10  9.84280E-10  9.98833E-10  1.01307E-09  1.02700E-09  1.04063E-09  1.05396E-09  1.06698E-09
   1.07972E-09  1.09216E-09  1.10433E-09  1.11620E-09  1.12780E-09  1.13913E-09  1.15019E-09  1.16098E-09  1.17151E-09  1.18178E-09
   1.19180E-09  1.20157E-09  1.21110E-09  1.22039E-09  1.22943E-09  1.23824E-09  1.24683E-09  1.25519E-09  1.26333E-09  1.27125E-09
   1.27896E-09  1.28645E-09  1.29375E-09  1.30083E-09  1.30773E-09  1.31443E-09  1.32094E-09  1.32727E-09  1.33341E-09  1.33938E-09
   1.34517E-09  1.35080E-09  1.35626E-09  1.36156E-09  1.36670E-09  1.37169E-09  1.37653E-09  1.38122E-09  1.38577E-09  1.39019E-09
   1.39446E-09  1.39862E-09  1.40264E-09  1.40654E-09  1.41031E-09  1.41397E-09  1.41751E-09  1.42092E-09  1.42423E-09  1.42742E-09
   1.43051E-09  1.43348E-09  1.43636E-09  1.43912E-09  1.44179E-09  1.44436E-09  1.44684E-09  1.44922E-09  1.45151E-09  1.45371E-09
   1.45582E-09  1.45785E-09  1.45979E-09  1.46166E-09  1.46345E-09  1.46516E-09  1.46680E-09  1.46836E-09  1.46986E-09  1.47130E-09
   1.47266E-09  1.47397E-09  1.47522E-09  1.47640E-09  1.47754E-09  1.47862E-09  1.47965E-09  1.48063E-09  1.48156E-09  1.48245E-09
   1.48330E-09  1.48412E-09  1.48489E-09  1.48562E-09  1.48633E-09  1.48701E-09  1.48765E-09  1.48827E-09  1.48887E-09  1.48945E-09
   1.49001E-09  1.49054E-09  1.49107E-09  1.49159E-09  1.49209E-09  1.49258E-09  1.49307E-09  1.49356E-09  1.49405E-09  1.49454E-09
   1.49503E-09  1.49553E-09  1.49603E-09  1.49655E-09  1.49707E-09  1.49762E-09  1.49818E-09  1.49876E-09  1.49936E-09  1.49998E-09
   1.50064E-09  1.50131E-09  1.50203E-09
 NY background values follow
    -7.392E-09   -7.356E-09   -7.320E-09   -7.284E-09   -7.248E-09   -7.212E-09   -7.176E-09   -7.140E-09   -7.104E-09   -7.068E-09
    -7.032E-09   -6.996E-09   -6.960E-09   -6.924E-09   -6.887E-09   -6.851E-09   -6.815E-09   -6.779E-09   -6.743E-09   -6.706E-09
    -6.670E-09   -6.634E-09   -6.598E-09   -6.561E-09   -6.525E-09   -6.489E-09   -6.452E-09   -6.416E-09   -6.379E-09   -6.343E-09
    -6.307E-09   -6.270E-09   -6.234E-09   -6.197E-09   -6.161E-09   -6.124E-09   -6.087E-09   -6.051E-09   -6.014E-09   -5.978E-09
    -5.941E-09   -5.904E-09   -5.868E-09   -5.831E-09   -5.794E-09   -5.758E-09   -5.721E-09   -5.684E-09   -5.647E-09   -5.610E-09
    -5.574E-09   -5.537E-09   -5.500E-09   -5.463E-09   -5.426E-09   -5.389E-09   -5.352E-09   -5.315E-09   -5.278E-09   -5.241E-09
    -5.204E-09   -5.167E-09   -5.130E-09   -5.093E-09   -5.056E-09   -5.019E-09   -4.981E-09   -4.944E-09   -4.907E-09   -4.870E-09
    -4.832E-09   -4.795E-09   -4.758E-09   -4.721E-09   -4.683E-09   -4.646E-09   -4.608E-09   -4.571E-09   -4.534E-09   -4.496E-09
    -4.459E-09   -4.421E-09   -4.384E-09   -4.346E-09   -4.308E-09   -4.271E-09   -4.233E-09   -4.196E-09   -4.158E-09   -4.120E-09
    -4.083E-09   -4.045E-09   -4.007E-09   -3.969E-09   -3.932E-09   -3.894E-09   -3.856E-09   -3.818E-09   -3.780E-09   -3.742E-09
    -3.705E-09   -3.667E-09   -3.629E-09   -3.591E-09   -3.553E-09   -3.515E-09   -3.477E-09   -3.439E-09   -3.401E-09   -3.362E-09
    -3.324E-09   -3.286E-09   -3.248E-09   -3.210E-09   -3.172E-09   -3.134E-09   -3.095E-09   -3.057E-09   -3.019E-09   -2.980E-09
    -2.942E-09   -2.904E-09   -2.865E-09   -2.827E-09   -2.789E-09   -2.750E-09   -2.712E-09   -2.673E-09   -2.635E-09   -2.596E-09
    -2.558E-09   -2.519E-09   -2.481E-09   -2.442E-09   -2.404E-09   -2.365E-09   -2.327E-09   -2.288E-09   -2.249E-09   -2.211E-09
    -2.172E-09   -2.133E-09   -2.094E-09   -2.056E-09   -2.017E-09   -1.978E-09   -1.939E-09   -1.900E-09   -1.862E-09   -1.823E-09
    -1.784E-09   -1.745E-09   -1.706E-09   -1.668E-09   -1.629E-09   -1.590E-09   -1.552E-09   -1.513E-09   -1.474E-09   -1.436E-09
    -1.398E-09   -1.359E-09   -1.321E-09   -1.283E-09   -1.245E-09   -1.207E-09   -1.169E-09   -1.131E-09   -1.093E-09   -1.056E-09
    -1.019E-09   -9.813E-10   -9.442E-10   -9.072E-10   -8.704E-10   -8.337E-10   -7.972E-10   -7.609E-10   -7.247E-10   -6.887E-10
    -6.529E-10   -6.174E-10   -5.820E-10   -5.468E-10   -5.118E-10   -4.771E-10   -4.425E-10   -4.083E-10   -3.742E-10   -3.404E-10
    -3.069E-10   -2.735E-10   -2.405E-10   -2.077E-10   -1.752E-10   -1.430E-10   -1.111E-10   -7.942E-11   -4.808E-11   -1.704E-11
     1.369E-11    4.411E-11    7.420E-11    1.040E-10    1.334E-10    1.625E-10    1.912E-10    2.196E-10    2.476E-10    2.753E-10
     3.026E-10    3.295E-10    3.560E-10    3.822E-10    4.079E-10    4.333E-10    4.582E-10    4.828E-10    5.069E-10    5.305E-10
     5.538E-10    5.767E-10    5.992E-10    6.212E-10    6.429E-10    6.641E-10    6.850E-10    7.055E-10    7.256E-10    7.454E-10
     7.647E-10    7.837E-10    8.024E-10    8.206E-10    8.385E-10    8.561E-10    8.733E-10    8.901E-10    9.067E-10    9.228E-10
     9.387E-10    9.542E-10    9.694E-10    9.843E-10    9.988E-10    1.013E-09    1.027E-09    1.041E-09    1.054E-09    1.067E-09
     1.080E-09    1.092E-09    1.104E-09    1.116E-09    1.128E-09    1.139E-09    1.150E-09    1.161E-09    1.172E-09    1.182E-09
     1.192E-09    1.202E-09    1.211E-09    1.220E-09    1.229E-09    1.238E-09    1.247E-09    1.255E-09    1.263E-09    1.271E-09
     1.279E-09    1.286E-09    1.294E-09    1.301E-09    1.308E-09    1.314E-09    1.321E-09    1.327E-09    1.333E-09    1.339E-09
     1.345E-09    1.351E-09    1.356E-09    1.362E-09    1.367E-09    1.372E-09    1.377E-09    1.381E-09    1.386E-09    1.390E-09
     1.394E-09    1.399E-09    1.403E-09    1.407E-09    1.410E-09    1.414E-09    1.418E-09    1.421E-09    1.424E-09    1.427E-09
     1.431E-09    1.433E-09    1.436E-09    1.439E-09    1.442E-09    1.444E-09    1.447E-09    1.449E-09    1.452E-09    1.454E-09
     1.456E-09    1.458E-09    1.460E-09    1.462E-09    1.463E-09    1.465E-09    1.467E-09    1.468E-09    1.470E-09    1.471E-09
     1.473E-09    1.474E-09    1.475E-09    1.476E-09    1.478E-09    1.479E-09    1.480E-09    1.481E-09    1.482E-09    1.482E-09
     1.483E-09    1.484E-09    1.485E-09    1.486E-09    1.486E-09    1.487E-09    1.488E-09    1.488E-09    1.489E-09    1.489E-09
     1.490E-09    1.491E-09    1.491E-09    1.492E-09    1.492E-09    1.493E-09    1.493E-09    1.494E-09    1.494E-09    1.495E-09
     1.495E-09    1.496E-09    1.496E-09    1.497E-09    1.497E-09    1.498E-09    1.498E-09    1.499E-09    1.499E-09    1.500E-09
     1.501E-09    1.501E-09    1.502E-09
   7 lines in following diagnostic table:
   1 ERROR     MYBASI 10                                                  
   4 ERRORS    AREABA  3                                                  
   1 info      STARTV 13                                                  
   1 warning   STARTV 25                                                  
   1 info      STARTV 20                                                  
   1 info      TWOREG  8                                                  
   2 warnings  RBASOL  3                                                  
  79 lines in following table of input changes:
ATTH2O=1.0                                                                
FILH2O='/mnt/c/Users/divya/Downloads/Lexar/DataFo                         
   rDivya/meas_MID01415_FID95676_lb_RosetteSpinEc                         
   ho_ek_v1a_lcm/23x30_ftSpec_smooth_lcm_w'                               
DOWS=T                                                                    
DOECC=T                                                                   
CHRATO(8)='MM9/MM1 = 1.40 +- 0.7'                                         
CHRATO(7)='MM8/MM1 = 0.33 +- 0.17'                                        
CHRATO(6)='MM7/MM1 = 0.54 +- 0.27'                                        
CHRATO(5)='MM6/MM1 = 0.63 +- 0.16'                                        
CHRATO(4)='MM5/MM1 = 3.16 +- 0.79'                                        
CHRATO(3)='MM4/MM1 = 1.29 +- 1.03'                                        
CHRATO(2)='MM3/MM1 = 1.05 +- 0.63'                                        
CHRATO(1)='MM2/MM1 = 0.51 +- 0.17'                                        
NRATIO=8                                                                  
NORATO(7)='-CrCH2/totCr'                                                  
NORATO(6)='MM17/MM09*'                                                    
NORATO(5)='MM14/MM09*'                                                    
NORATO(4)='MM12/MM09*'                                                    
NORATO(3)='MM20/MM09*'                                                    
NORATO(2)='Lip20/Lip13*'                                                  
NORATO(1)='Lip09/Lip13*'                                                  
NNORAT=7                                                                  
CHOMIT(14)='-CrCH2'                                                       
CHOMIT(13)='MM17'                                                         
CHOMIT(12)='MM14'                                                         
CHOMIT(11)='MM12'                                                         
CHOMIT(10)='MM20'                                                         
CHOMIT(9)='Lip20'                                                         
CHOMIT(8)='MM09'                                                          
CHOMIT(7)='Lip09'                                                         
CHOMIT(6)='Lip13d'                                                        
CHOMIT(5)='Lip13c'                                                        
CHOMIT(4)='Lip13b'                                                        
CHOMIT(3)='Lip13a'                                                        
CHOMIT(2)='bHG'                                                           
CHOMIT(1)='bHB'                                                           
NOMIT=14                                                                  
NEACH=999                                                                 
DKNTMN=0.3                                                                
WDLINE(1)=0.025                                                           
RFWHM=0.15                                                                
PPMEND=0.2                                                                
PPMST=4.25                                                                
LPS=8                                                                     
DOREFS(1)=T                                                               
FILPRI='/mnt/c/Users/divya/Downloads/Lexar/DataFo                         
   rDivya/meas_MID01415_FID95676_lb_RosetteSpinEc                         
   ho_ek_v1a_lcm/23x30_ftSpec_smooth_lcm_out/23x3                         
   0_ftSpec_smooth_lcm.print'                                             
LCSV=11                                                                   
LCOORD=9                                                                  
LTABLE=7                                                                  
LPRINT=6                                                                  
ECHOT=20                                                                  
NUNFIL=576                                                                
DELTAT=0.00063000                                                         
HZPPPM=123.25                                                             
FILBAS='/mnt/c/Users/divya/Downloads/linux-send/f                         
   ida2/new/3T_SpinEchoRosetteMRSI_TE20.basis'                            
FILCSV='/mnt/c/Users/divya/Downloads/Lexar/DataFo                         
   rDivya/meas_MID01415_FID95676_lb_RosetteSpinEc                         
   ho_ek_v1a_lcm/23x30_ftSpec_smooth_lcm_out/23x3                         
   0_ftSpec_smooth_lcm.csv'                                               
FILCOO='/mnt/c/Users/divya/Downloads/Lexar/DataFo                         
   rDivya/meas_MID01415_FID95676_lb_RosetteSpinEc                         
   ho_ek_v1a_lcm/23x30_ftSpec_smooth_lcm_out/23x3                         
   0_ftSpec_smooth_lcm.coord'                                             
FILTAB='/mnt/c/Users/divya/Downloads/Lexar/DataFo                         
   rDivya/meas_MID01415_FID95676_lb_RosetteSpinEc                         
   ho_ek_v1a_lcm/23x30_ftSpec_smooth_lcm_out/23x3                         
   0_ftSpec_smooth_lcm.table'                                             
FILPS='/mnt/c/Users/divya/Downloads/Lexar/DataFor                         
   Divya/meas_MID01415_FID95676_lb_RosetteSpinEch                         
   o_ek_v1a_lcm/23x30_ftSpec_smooth_lcm_out/23x30                         
   _ftSpec_smooth_lcm.ps'                                                 
FILRAW='/mnt/c/Users/divya/Downloads/Lexar/DataFo                         
   rDivya/meas_MID01415_FID95676_lb_RosetteSpinEc                         
   ho_ek_v1a_lcm/23x30_ftSpec_smooth_lcm'                                 
