 LCModel (Version 6.3-1R) Copyright: S.W. Provencher.          Ref.: Magn. Reson. Med. 30:672-679 (1993).                
 onepulse 23x4_ftSpec_smooth_lcm
 26 lines in following concentration table = NCONC+1
    Conc.  %SD /Cr+PCr  Metabolite                                         
 7.02E-10  30%   2.254 Ala                                                 
 3.11E-09  15%   9.968 Asp                                                 
    0.000 999%   0.000 Cr                                                  
 4.96E-10  71%   1.591 GABA                                                
 2.85E-10 186%   0.916 Glc                                                 
    0.000 999%   0.000 Gln                                                 
    0.000 999%   0.000 Glu                                                 
    0.000 999%   0.000 Glyc                                                
    0.000 999%   0.000 GPC                                                 
 3.12E-10  86%   1.003 GSH                                                 
 2.41E-09  14%   7.724 Ins                                                 
 3.29E-12 999% 1.1E-02 Lac                                                 
    0.000 999%   0.000 NAAG                                                
 6.14E-11 237%   0.197 NAA                                                 
    0.000 999%   0.000 PCh                                                 
 3.12E-10  61%   1.000 PCr                                                 
 1.44E-09  27%   4.628 PE                                                  
 9.89E-12 999% 3.2E-02 Scyllo                                              
 7.76E-09   9%  24.913 Ser                                                 
    0.000 999%   0.000 Tau                                                 
    0.000 999%   0.000 GPC+PCh                                             
 6.14E-11 237%   0.197 NAA+NAAG                                            
 2.41E-09  14%   7.724 Ins+Glyc                                            
 3.12E-10  61%   1.000 Cr+PCr                                              
    0.000 999%   0.000 Glu+Gln                                             
   6 lines in following misc. output table
  FWHM = 0.123 ppm    S/N =   7                                            
  Data shift = 0.481 ppm                                                   
  Ph:-102 deg      35.9 deg/ppm                                            
  alphaB,S = 1.6E+00,   5.9E+00                                            
   10 spline knots.   Ns = 5(1)                                            
   6 inflections.     5 extrema                                            
  363 points on ppm-axis = NY
      4.250000     4.238821     4.227641     4.216462     4.205282     4.194103     4.182923     4.171744     4.160564     4.149385
      4.138206     4.127026     4.115847     4.104667     4.093488     4.082308     4.071129     4.059949     4.048770     4.037591
      4.026411     4.015232     4.004052     3.992873     3.981693     3.970514     3.959334     3.948155     3.936975     3.925796
      3.914617     3.903437     3.892258     3.881078     3.869899     3.858719     3.847540     3.836360     3.825181     3.814002
      3.802822     3.791643     3.780463     3.769284     3.758104     3.746925     3.735745     3.724566     3.713387     3.702207
      3.691028     3.679848     3.668669     3.657489     3.646310     3.635130     3.623951     3.612772     3.601592     3.590413
      3.579233     3.568054     3.556874     3.545695     3.534515     3.523336     3.512156     3.500977     3.489798     3.478618
      3.467439     3.456259     3.445080     3.433900     3.422721     3.411541     3.400362     3.389183     3.378003     3.366824
      3.355644     3.344465     3.333285     3.322106     3.310926     3.299747     3.288568     3.277388     3.266209     3.255029
      3.243850     3.232670     3.221491     3.210311     3.199132     3.187953     3.176773     3.165594     3.154414     3.143235
      3.132055     3.120876     3.109696     3.098517     3.087337     3.076158     3.064979     3.053799     3.042620     3.031440
      3.020261     3.009081     2.997902     2.986722     2.975543     2.964364     2.953184     2.942005     2.930825     2.919646
      2.908466     2.897287     2.886107     2.874928     2.863749     2.852569     2.841390     2.830210     2.819031     2.807851
      2.796672     2.785492     2.774313     2.763134     2.751954     2.740775     2.729595     2.718416     2.707236     2.696057
      2.684877     2.673698     2.662519     2.651339     2.640160     2.628980     2.617801     2.606621     2.595442     2.584262
      2.573083     2.561903     2.550724     2.539545     2.528365     2.517186     2.506006     2.494827     2.483647     2.472468
      2.461288     2.450109     2.438930     2.427750     2.416571     2.405391     2.394212     2.383032     2.371853     2.360673
      2.349494     2.338315     2.327135     2.315956     2.304776     2.293597     2.282417     2.271238     2.260058     2.248879
      2.237700     2.226520     2.215341     2.204161     2.192982     2.181802     2.170623     2.159443     2.148264     2.137084
      2.125905     2.114726     2.103546     2.092367     2.081187     2.070008     2.058828     2.047649     2.036469     2.025290
      2.014111     2.002931     1.991752     1.980572     1.969393     1.958213     1.947034     1.935854     1.924675     1.913496
      1.902316     1.891137     1.879957     1.868778     1.857598     1.846419     1.835239     1.824060     1.812881     1.801701
      1.790522     1.779342     1.768163     1.756983     1.745804     1.734624     1.723445     1.712265     1.701086     1.689907
      1.678727     1.667548     1.656368     1.645189     1.634009     1.622830     1.611650     1.600471     1.589292     1.578112
      1.566933     1.555753     1.544574     1.533394     1.522215     1.511035     1.499856     1.488677     1.477497     1.466318
      1.455138     1.443959     1.432779     1.421600     1.410420     1.399241     1.388062     1.376882     1.365703     1.354523
      1.343344     1.332164     1.320985     1.309805     1.298626     1.287446     1.276267     1.265088     1.253908     1.242729
      1.231549     1.220370     1.209190     1.198011     1.186831     1.175652     1.164473     1.153293     1.142114     1.130934
      1.119755     1.108575     1.097396     1.086216     1.075037     1.063858     1.052678     1.041499     1.030319     1.019140
      1.007960     0.996781     0.985601     0.974422     0.963243     0.952063     0.940884     0.929704     0.918525     0.907345
      0.896166     0.884986     0.873807     0.862628     0.851448     0.840269     0.829089     0.817910     0.806730     0.795551
      0.784371     0.773192     0.762012     0.750833     0.739654     0.728474     0.717295     0.706115     0.694936     0.683756
      0.672577     0.661397     0.650218     0.639039     0.627859     0.616680     0.605500     0.594321     0.583141     0.571962
      0.560782     0.549603     0.538424     0.527244     0.516065     0.504885     0.493706     0.482526     0.471347     0.460167
      0.448988     0.437809     0.426629     0.415450     0.404270     0.393091     0.381911     0.370732     0.359552     0.348373
      0.337193     0.326014     0.314835     0.303655     0.292476     0.281296     0.270117     0.258937     0.247758     0.236578
      0.225399     0.214220     0.203040
 NY phased data points follow
  -6.05113E-09 -5.98829E-09 -6.40209E-09 -6.11500E-09 -6.01080E-09 -5.84475E-09 -5.80058E-09 -6.15383E-09 -4.93185E-09 -5.55176E-09
  -4.98127E-09 -5.43895E-09 -5.60147E-09 -5.76678E-09 -5.08213E-09 -5.31376E-09 -5.20192E-09 -5.40605E-09 -5.53918E-09 -6.16952E-09
  -6.47715E-09 -6.37374E-09 -5.72004E-09 -5.03280E-09 -4.35721E-09 -4.58039E-09 -4.14533E-09 -4.06592E-09 -4.05515E-09 -4.00478E-09
  -3.97512E-09 -4.13368E-09 -3.56310E-09 -3.62535E-09 -2.98514E-09 -3.23179E-09 -3.07804E-09 -3.21205E-09 -3.00786E-09 -3.14797E-09
  -3.19315E-09 -3.34993E-09 -3.10784E-09 -2.89818E-09 -2.72224E-09 -3.14475E-09 -3.63667E-09 -3.80577E-09 -4.04496E-09 -4.32410E-09
  -5.29455E-09 -6.17927E-09 -5.80910E-09 -5.46053E-09 -4.81727E-09 -4.05485E-09 -3.61670E-09 -3.27467E-09 -3.15106E-09 -2.69588E-09
  -2.90454E-09 -2.46875E-09 -2.47960E-09 -2.52115E-09 -3.20494E-09 -4.12977E-09 -5.65994E-09 -6.18568E-09 -6.81656E-09 -6.56059E-09
  -5.69849E-09 -4.39742E-09 -4.09578E-09 -3.67091E-09 -3.49122E-09 -3.06088E-09 -2.61250E-09 -2.99523E-09 -1.97911E-09 -2.19766E-09
  -1.42491E-09 -1.29409E-09 -4.95965E-10 -5.58455E-10 -2.75992E-10 -3.43884E-10 -1.55824E-10  4.38218E-11 -1.25958E-10 -2.28551E-11
   2.27129E-11 -3.70742E-10 -5.57703E-11 -9.44627E-11 -2.42057E-10  2.95165E-10  4.54181E-10  6.15288E-10  8.86080E-10  4.63225E-10
   2.62654E-10  5.79803E-10 -1.31984E-10 -1.06148E-11  1.31488E-10 -8.15503E-12  2.86265E-10  2.84305E-10  2.30144E-10 -7.19291E-11
  -7.10503E-11  1.38599E-10  3.22559E-10  5.12039E-10 -1.88706E-10 -7.69254E-10 -6.17205E-10 -9.94393E-10 -1.20491E-09 -1.42289E-09
  -1.39750E-09 -1.63723E-09 -1.64614E-09 -1.48228E-09 -1.22678E-09 -1.43487E-09 -1.84540E-09 -1.69639E-09 -2.46871E-09 -2.07935E-09
  -1.50036E-09 -1.42974E-09 -1.27948E-09 -1.64426E-09 -1.65965E-09 -1.27450E-09 -6.13653E-10 -9.04501E-10 -6.46020E-10 -3.23371E-10
   1.50751E-10  7.81663E-10  7.90724E-10  4.88470E-10  1.24989E-09  1.06979E-09  1.29599E-09  1.62091E-09  1.81167E-09  2.15510E-09
   2.33024E-09  2.97377E-09  3.18450E-09  3.11339E-09  3.25999E-09  4.01397E-09  3.73389E-09  2.93278E-09  2.44705E-09  1.80613E-09
   3.46853E-09  5.91153E-09  8.14385E-09  1.02281E-08  1.17724E-08  1.43264E-08  1.59846E-08  1.80105E-08  1.97345E-08  2.09681E-08
   2.23533E-08  2.37971E-08  2.47275E-08  2.50611E-08  2.50355E-08  2.44018E-08  2.31959E-08  2.14705E-08  1.99485E-08  1.73473E-08
   1.44921E-08  1.14603E-08  8.54800E-09  6.14453E-09  3.80166E-09  1.15693E-09 -2.53946E-10 -1.25475E-09 -1.81652E-09 -1.34710E-09
  -1.08724E-09  1.13231E-11  7.15055E-10  1.50937E-09  2.23757E-09  2.63666E-09  2.19406E-09  2.42630E-09  2.06833E-09  1.72798E-09
   1.63791E-09  1.31862E-09  1.83345E-09  2.07210E-09  2.76045E-09  2.99344E-09  3.08829E-09  2.91575E-09  2.24767E-09  1.77416E-09
   1.23979E-09  1.22856E-09  1.60027E-09  1.78356E-09  2.66077E-09  2.93876E-09  3.36134E-09  3.21589E-09  2.63701E-09  2.54370E-09
   1.82885E-09  1.53899E-09  1.40968E-09  1.94751E-09  1.60915E-09  1.76678E-09  2.23789E-09  2.04408E-09  2.74848E-09  2.70904E-09
   2.66383E-09  2.65468E-09  2.55208E-09  2.42204E-09  2.03653E-09  2.01121E-09  1.85837E-09  1.96515E-09  1.74109E-09  1.19341E-09
   1.63601E-09  1.08133E-09  1.53965E-09  1.02906E-09  1.01551E-09  7.11354E-10  6.00969E-10  3.60882E-10  6.97708E-10  3.44263E-10
   1.38535E-09  1.10927E-09  1.27408E-09  8.34575E-10  1.42518E-09  1.14937E-09  7.06890E-10  7.25690E-10  7.79288E-10  3.57123E-10
   7.99564E-10  5.66017E-10  8.91298E-10  4.21552E-10  5.74120E-10  6.35027E-10  1.22288E-09  8.54324E-10  9.89924E-10  9.45771E-10
   1.21443E-09  6.04521E-10  1.30175E-09  4.40780E-10  1.00444E-09  1.43866E-10  1.22291E-09  2.10885E-10  9.21135E-10 -3.19579E-10
   7.56472E-10  1.52898E-10  5.72909E-10 -2.52137E-10  1.49166E-10 -2.90144E-10  8.12570E-10  7.15583E-11  5.86521E-10 -3.58452E-10
   6.39179E-10 -1.55237E-10  9.91043E-11 -5.49477E-11 -1.45482E-10 -4.80893E-10  6.61636E-10 -1.45692E-10  1.54702E-10 -2.93551E-10
   2.58058E-10 -3.81851E-10  3.43285E-10 -6.61263E-10  3.14276E-11 -3.80554E-10  2.31560E-10 -6.63777E-10  1.87897E-10 -6.86401E-10
  -2.59482E-11 -8.95550E-10  6.05209E-11 -5.46942E-10 -2.67313E-11 -7.33276E-10 -1.91009E-10 -5.99135E-10 -4.13739E-10 -9.46349E-10
  -4.20804E-10 -8.39299E-10 -5.35697E-10 -7.60606E-10 -5.23248E-10 -7.78809E-10 -2.84597E-10 -8.19504E-10 -6.18795E-10 -1.51349E-09
  -7.18074E-10 -8.31003E-10 -8.81334E-10 -1.36920E-09 -8.94490E-10 -1.59861E-09 -1.36669E-09 -1.52595E-09 -9.55307E-10 -1.88581E-09
  -1.25037E-09 -1.85908E-09 -1.60386E-09 -2.04153E-09 -1.62343E-09 -2.22295E-09 -1.45541E-09 -2.60226E-09 -2.07833E-09 -2.15193E-09
  -1.93080E-09 -2.81803E-09 -2.19227E-09 -2.89560E-09 -2.65871E-09 -2.59476E-09 -2.25642E-09 -3.07091E-09 -2.70064E-09 -2.84792E-09
  -2.82141E-09 -3.38326E-09 -2.49947E-09
 NY points of the fit to the data follow
  -5.35550E-09 -5.94757E-09 -4.79809E-09 -4.85313E-09 -7.11327E-09 -8.01715E-09 -8.78257E-09 -7.98670E-09 -4.46727E-09 -4.21844E-09
  -5.42797E-09 -5.77204E-09 -4.90193E-09 -3.09958E-09 -2.56747E-09 -3.66052E-09 -6.77134E-09 -5.01846E-09 -2.56449E-09 -5.13804E-09
  -8.03269E-09 -7.21728E-09 -5.56921E-09 -5.48556E-09 -5.56366E-09 -4.67380E-09 -3.86810E-09 -3.82765E-09 -3.73669E-09 -3.31771E-09
  -2.72704E-09 -1.16081E-09 -2.09279E-09 -4.07080E-09 -3.98562E-09 -3.42129E-09 -3.49506E-09 -4.26355E-09 -4.42055E-09 -4.32886E-09
  -4.15425E-09 -3.23173E-09 -3.69423E-09 -4.35323E-09 -3.29287E-09 -3.24687E-09 -1.92008E-09 -3.19651E-09 -3.57777E-09 -2.71173E-09
  -1.75721E-09 -2.55529E-09 -2.95142E-09 -2.29335E-09 -1.94957E-09 -2.50923E-09 -1.51082E-09 -4.40204E-09 -4.82180E-09 -3.82938E-09
  -3.10838E-09 -4.19146E-09 -3.96018E-09 -3.79245E-09 -4.34031E-09 -4.03317E-09 -3.35694E-09 -3.52262E-09 -3.65380E-09 -3.45230E-09
  -3.38169E-09 -3.38685E-09 -3.24087E-09 -3.34184E-09 -2.92740E-09 -2.94723E-09 -3.18900E-09 -2.72062E-09 -2.75064E-09 -2.64162E-09
  -2.60015E-09 -2.61079E-09 -2.11842E-09 -2.12934E-09 -2.34469E-09 -2.07360E-09 -1.78512E-09 -1.72212E-09 -1.95103E-09 -1.80222E-09
  -1.73928E-09 -1.73532E-09 -1.41577E-09 -1.27111E-09 -1.51106E-09 -1.19778E-09 -8.99500E-10 -9.26753E-10 -5.68124E-10  1.66800E-10
   4.13910E-10 -3.01142E-10  4.66462E-10  1.30212E-09  9.87566E-10  7.45845E-10  5.29567E-10  7.82764E-10  1.15450E-09  1.30475E-09
   6.24549E-10 -6.71883E-10  2.76126E-10  3.99204E-10 -7.31225E-10 -8.70869E-10 -8.37861E-10 -7.68579E-10 -6.90033E-10 -5.99099E-10
  -5.16547E-10 -4.36597E-10 -3.54806E-10 -2.74233E-10 -1.95290E-10 -1.17964E-10 -4.21501E-11  3.22080E-11  1.05262E-10  1.77113E-10
   2.47844E-10  3.17555E-10  3.86344E-10  4.54294E-10  5.21474E-10  5.87973E-10  6.53871E-10  7.19259E-10  7.84220E-10  8.48846E-10
   9.13248E-10  9.77541E-10  1.04186E-09  1.10634E-09  1.17117E-09  1.23654E-09  1.30269E-09  1.36992E-09  1.43858E-09  1.50910E-09
   1.58205E-09  1.65810E-09  1.73816E-09  1.82343E-09  1.91548E-09  2.01654E-09  2.12968E-09  2.25954E-09  2.41311E-09  2.60178E-09
   2.84527E-09  3.18111E-09  3.69073E-09  4.58821E-09  6.62963E-09  1.33172E-08  1.74111E-08  1.92389E-08  2.12845E-08  2.26425E-08
   2.28283E-08  2.38314E-08  2.40096E-08  2.34881E-08  2.36759E-08  2.68240E-08  2.48872E-08  2.08848E-08  1.73445E-08  1.15680E-08
   5.10442E-09  3.47172E-09  2.86661E-09  2.57216E-09  2.40759E-09  2.30811E-09  2.24509E-09  2.20407E-09  2.17697E-09  2.15903E-09
   2.14724E-09  2.13962E-09  2.13485E-09  2.13200E-09  2.13040E-09  2.12958E-09  2.12918E-09  2.12893E-09  2.12863E-09  2.12812E-09
   2.12729E-09  2.12603E-09  2.12428E-09  2.12198E-09  2.11908E-09  2.11554E-09  2.11134E-09  2.10645E-09  2.10086E-09  2.09456E-09
   2.08754E-09  2.07980E-09  2.07134E-09  2.06216E-09  2.05228E-09  2.04168E-09  2.03038E-09  2.01839E-09  2.00571E-09  1.99234E-09
   1.97831E-09  1.96362E-09  1.94828E-09  1.93229E-09  1.91567E-09  1.89844E-09  1.88059E-09  1.86215E-09  1.84311E-09  1.82351E-09
   1.80334E-09  1.78262E-09  1.76136E-09  1.73956E-09  1.71726E-09  1.69445E-09  1.67116E-09  1.64738E-09  1.62314E-09  1.59844E-09
   1.57330E-09  1.54774E-09  1.52176E-09  1.49538E-09  1.46861E-09  1.44146E-09  1.41395E-09  1.38608E-09  1.35788E-09  1.32936E-09
   1.30052E-09  1.27138E-09  1.24196E-09  1.21227E-09  1.18231E-09  1.15211E-09  1.12167E-09  1.09101E-09  1.06015E-09  1.02909E-09
   9.97848E-10  9.66433E-10  9.34861E-10  9.03140E-10  8.71284E-10  8.39301E-10  8.07205E-10  7.75008E-10  7.42720E-10  7.10354E-10
   6.77918E-10  6.45429E-10  6.12894E-10  5.80327E-10  5.47738E-10  5.15139E-10  4.82541E-10  4.49957E-10  4.17397E-10  3.84873E-10
   3.52395E-10  3.19977E-10  2.87627E-10  2.55359E-10  2.23183E-10  1.91111E-10  1.59153E-10  1.27321E-10  9.56260E-11  6.40801E-11
   3.26930E-11  1.47593E-12 -2.95595E-11 -6.04017E-11 -9.10414E-11 -1.21467E-10 -1.51667E-10 -1.81632E-10 -2.11351E-10 -2.40810E-10
  -2.70004E-10 -2.98918E-10 -3.27543E-10 -3.55869E-10 -3.83886E-10 -4.11582E-10 -4.38947E-10 -4.65972E-10 -4.92645E-10 -5.18958E-10
  -5.44900E-10 -5.70459E-10 -5.95628E-10 -6.20395E-10 -6.44748E-10 -6.68679E-10 -6.92174E-10 -7.15222E-10 -7.37816E-10 -7.59945E-10
  -7.81599E-10 -8.02765E-10 -8.23434E-10 -8.43598E-10 -8.63249E-10 -8.82375E-10 -9.00965E-10 -9.19013E-10 -9.36509E-10 -9.53441E-10
  -9.69805E-10 -9.85589E-10 -1.00078E-09 -1.01539E-09 -1.02938E-09 -1.04277E-09 -1.05553E-09 -1.06767E-09 -1.07917E-09 -1.09002E-09
  -1.10023E-09 -1.10978E-09 -1.11866E-09 -1.12687E-09 -1.13440E-09 -1.14125E-09 -1.14740E-09 -1.15286E-09 -1.15761E-09 -1.16165E-09
  -1.16498E-09 -1.16758E-09 -1.16946E-09 -1.17060E-09 -1.17101E-09 -1.17067E-09 -1.16959E-09 -1.16776E-09 -1.16516E-09 -1.16181E-09
  -1.15769E-09 -1.15281E-09 -1.14715E-09
 NY background values follow
    -2.467E-09   -2.484E-09   -2.501E-09   -2.517E-09   -2.533E-09   -2.548E-09   -2.562E-09   -2.575E-09   -2.588E-09   -2.600E-09
    -2.612E-09   -2.623E-09   -2.633E-09   -2.643E-09   -2.651E-09   -2.660E-09   -2.667E-09   -2.674E-09   -2.681E-09   -2.686E-09
    -2.691E-09   -2.696E-09   -2.700E-09   -2.703E-09   -2.705E-09   -2.707E-09   -2.708E-09   -2.709E-09   -2.709E-09   -2.709E-09
    -2.707E-09   -2.706E-09   -2.703E-09   -2.700E-09   -2.697E-09   -2.693E-09   -2.688E-09   -2.683E-09   -2.677E-09   -2.670E-09
    -2.663E-09   -2.656E-09   -2.648E-09   -2.639E-09   -2.630E-09   -2.620E-09   -2.610E-09   -2.599E-09   -2.588E-09   -2.576E-09
    -2.563E-09   -2.550E-09   -2.537E-09   -2.523E-09   -2.509E-09   -2.494E-09   -2.478E-09   -2.462E-09   -2.446E-09   -2.429E-09
    -2.412E-09   -2.394E-09   -2.376E-09   -2.357E-09   -2.338E-09   -2.319E-09   -2.299E-09   -2.279E-09   -2.258E-09   -2.237E-09
    -2.215E-09   -2.193E-09   -2.171E-09   -2.149E-09   -2.126E-09   -2.102E-09   -2.079E-09   -2.055E-09   -2.030E-09   -2.006E-09
    -1.981E-09   -1.956E-09   -1.930E-09   -1.904E-09   -1.878E-09   -1.852E-09   -1.825E-09   -1.799E-09   -1.771E-09   -1.744E-09
    -1.717E-09   -1.689E-09   -1.661E-09   -1.633E-09   -1.604E-09   -1.576E-09   -1.547E-09   -1.518E-09   -1.489E-09   -1.460E-09
    -1.431E-09   -1.401E-09   -1.372E-09   -1.342E-09   -1.312E-09   -1.283E-09   -1.253E-09   -1.223E-09   -1.193E-09   -1.162E-09
    -1.132E-09   -1.102E-09   -1.072E-09   -1.042E-09   -1.012E-09   -9.818E-10   -9.518E-10   -9.218E-10   -8.920E-10   -8.621E-10
    -8.324E-10   -8.028E-10   -7.733E-10   -7.440E-10   -7.148E-10   -6.858E-10   -6.569E-10   -6.282E-10   -5.997E-10   -5.714E-10
    -5.434E-10   -5.156E-10   -4.880E-10   -4.607E-10   -4.336E-10   -4.069E-10   -3.804E-10   -3.542E-10   -3.284E-10   -3.029E-10
    -2.778E-10   -2.530E-10   -2.285E-10   -2.045E-10   -1.808E-10   -1.576E-10   -1.348E-10   -1.124E-10   -9.039E-11   -6.888E-11
    -4.783E-11   -2.725E-11   -7.167E-12    1.243E-11    3.151E-11    5.009E-11    6.812E-11    8.562E-11    1.026E-10    1.190E-10
     1.349E-10    1.502E-10    1.649E-10    1.791E-10    1.927E-10    2.058E-10    2.183E-10    2.301E-10    2.414E-10    2.522E-10
     2.623E-10    2.718E-10    2.808E-10    2.891E-10    2.968E-10    3.039E-10    3.105E-10    3.164E-10    3.216E-10    3.263E-10
     3.304E-10    3.338E-10    3.366E-10    3.388E-10    3.404E-10    3.413E-10    3.416E-10    3.413E-10    3.404E-10    3.388E-10
     3.366E-10    3.338E-10    3.303E-10    3.262E-10    3.215E-10    3.161E-10    3.101E-10    3.035E-10    2.963E-10    2.884E-10
     2.799E-10    2.708E-10    2.611E-10    2.507E-10    2.397E-10    2.281E-10    2.159E-10    2.031E-10    1.896E-10    1.756E-10
     1.610E-10    1.457E-10    1.299E-10    1.136E-10    9.665E-11    7.918E-11    6.117E-11    4.263E-11    2.358E-11    4.006E-12
    -1.606E-11   -3.662E-11   -5.766E-11   -7.917E-11   -1.011E-10   -1.236E-10   -1.464E-10   -1.697E-10   -1.934E-10   -2.175E-10
    -2.420E-10   -2.669E-10   -2.922E-10   -3.178E-10   -3.438E-10   -3.701E-10   -3.968E-10   -4.237E-10   -4.510E-10   -4.786E-10
    -5.065E-10   -5.346E-10   -5.630E-10   -5.916E-10   -6.205E-10   -6.496E-10   -6.789E-10   -7.085E-10   -7.382E-10   -7.681E-10
    -7.982E-10   -8.284E-10   -8.587E-10   -8.892E-10   -9.199E-10   -9.506E-10   -9.814E-10   -1.012E-09   -1.043E-09   -1.074E-09
    -1.105E-09   -1.137E-09   -1.168E-09   -1.199E-09   -1.230E-09   -1.261E-09   -1.292E-09   -1.324E-09   -1.355E-09   -1.386E-09
    -1.417E-09   -1.448E-09   -1.479E-09   -1.509E-09   -1.540E-09   -1.571E-09   -1.601E-09   -1.631E-09   -1.661E-09   -1.691E-09
    -1.721E-09   -1.751E-09   -1.781E-09   -1.810E-09   -1.839E-09   -1.868E-09   -1.897E-09   -1.925E-09   -1.953E-09   -1.981E-09
    -2.009E-09   -2.036E-09   -2.063E-09   -2.090E-09   -2.117E-09   -2.143E-09   -2.169E-09   -2.194E-09   -2.219E-09   -2.244E-09
    -2.269E-09   -2.293E-09   -2.316E-09   -2.340E-09   -2.363E-09   -2.385E-09   -2.407E-09   -2.429E-09   -2.450E-09   -2.471E-09
    -2.491E-09   -2.511E-09   -2.530E-09   -2.549E-09   -2.567E-09   -2.585E-09   -2.602E-09   -2.619E-09   -2.635E-09   -2.651E-09
    -2.666E-09   -2.681E-09   -2.695E-09   -2.708E-09   -2.721E-09   -2.733E-09   -2.745E-09   -2.756E-09   -2.766E-09   -2.776E-09
    -2.785E-09   -2.793E-09   -2.801E-09   -2.808E-09   -2.814E-09   -2.820E-09   -2.825E-09   -2.830E-09   -2.833E-09   -2.836E-09
    -2.838E-09   -2.840E-09   -2.840E-09   -2.840E-09   -2.840E-09   -2.838E-09   -2.836E-09   -2.833E-09   -2.829E-09   -2.825E-09
    -2.819E-09   -2.813E-09   -2.806E-09   -2.798E-09   -2.790E-09   -2.781E-09   -2.771E-09   -2.760E-09   -2.748E-09   -2.735E-09
    -2.722E-09   -2.708E-09   -2.693E-09
 Ala      Conc. = 7.02E-10
  -1.96549E-09 -2.07110E-09 -2.05412E-09 -2.12924E-09 -2.21394E-09 -2.19698E-09 -2.22692E-09 -2.60854E-09 -2.47759E-09 -2.27579E-09
  -2.69423E-09 -2.71511E-09 -2.57345E-09 -2.67428E-09 -2.70413E-09 -2.70443E-09 -2.69908E-09 -2.69276E-09 -2.68662E-09 -2.68086E-09
  -2.67548E-09 -2.67037E-09 -2.66542E-09 -2.66054E-09 -2.65565E-09 -2.65065E-09 -2.64549E-09 -2.64011E-09 -2.63447E-09 -2.62852E-09
  -2.62223E-09 -2.61559E-09 -2.60855E-09 -2.60110E-09 -2.59322E-09 -2.58490E-09 -2.57613E-09 -2.56688E-09 -2.55716E-09 -2.54698E-09
  -2.53627E-09 -2.52507E-09 -2.51338E-09 -2.50118E-09 -2.48846E-09 -2.47523E-09 -2.46148E-09 -2.44721E-09 -2.43242E-09 -2.41712E-09
  -2.40126E-09 -2.38488E-09 -2.36797E-09 -2.35053E-09 -2.33256E-09 -2.31406E-09 -2.29502E-09 -2.27544E-09 -2.25532E-09 -2.23466E-09
  -2.21346E-09 -2.19172E-09 -2.16942E-09 -2.14657E-09 -2.12316E-09 -2.09919E-09 -2.07464E-09 -2.04951E-09 -2.02380E-09 -1.99748E-09
  -1.97054E-09 -1.94297E-09 -1.91474E-09 -1.88583E-09 -1.85622E-09 -1.82588E-09 -1.79476E-09 -1.76282E-09 -1.72999E-09 -1.69624E-09
  -1.66147E-09 -1.62559E-09 -1.58848E-09 -1.55002E-09 -1.51004E-09 -1.46830E-09 -1.42456E-09 -1.37845E-09 -1.32955E-09 -1.27726E-09
  -1.22077E-09 -1.15899E-09 -1.09028E-09 -1.01226E-09 -9.21120E-10 -8.10372E-10 -6.68009E-10 -4.68434E-10 -1.45629E-10  5.06496E-10
   7.62130E-10  2.24857E-11  7.50955E-10  1.54175E-09  1.17962E-09  8.88885E-10  6.21854E-10  8.26902E-10  1.15498E-09  1.25458E-09
   5.27599E-10 -8.11864E-10  9.33095E-11  1.74337E-10 -9.99220E-10 -1.18103E-09 -1.18924E-09 -1.15666E-09 -1.11242E-09 -1.06511E-09
  -1.01764E-09 -9.71092E-10 -9.25808E-10 -8.81875E-10 -8.39250E-10 -7.97867E-10 -7.57622E-10 -7.18446E-10 -6.80246E-10 -6.42954E-10
  -6.06509E-10 -5.70862E-10 -5.35966E-10 -5.01773E-10 -4.68260E-10 -4.35394E-10 -4.03156E-10 -3.71520E-10 -3.40475E-10 -3.10008E-10
  -2.80097E-10 -2.50733E-10 -2.21918E-10 -1.93635E-10 -1.65869E-10 -1.38626E-10 -1.11890E-10 -8.56571E-11 -5.99113E-11 -3.46532E-11
  -9.84569E-12  1.45154E-11  3.84497E-11  6.20142E-11  8.52416E-11  1.08216E-10  1.30997E-10  1.53768E-10  1.76730E-10  2.00227E-10
   2.24816E-10  2.51485E-10  2.82145E-10  3.21000E-10  3.79148E-10  4.95616E-10  8.79927E-10  1.56739E-09  1.12329E-09  9.50318E-10
   1.08467E-09  1.33829E-09  1.51883E-09  1.29627E-09  1.09766E-09  1.13777E-09  1.56124E-09  1.92361E-09  7.94349E-10  5.47074E-10
   4.77438E-10  4.50376E-10  4.37953E-10  4.31660E-10  4.28201E-10  4.26056E-10  4.24465E-10  4.23003E-10  4.21405E-10  4.19520E-10
   4.17245E-10  4.14506E-10  4.11263E-10  4.07471E-10  4.03117E-10  3.98180E-10  3.92646E-10  3.86503E-10  3.79753E-10  3.72381E-10
   3.64389E-10  3.55773E-10  3.46533E-10  3.36670E-10  3.26180E-10  3.15065E-10  3.03325E-10  2.90968E-10  2.77987E-10  2.64393E-10
   2.50197E-10  2.35406E-10  2.20028E-10  2.04075E-10  1.87550E-10  1.70465E-10  1.52835E-10  1.34661E-10  1.15957E-10  9.67312E-11
   7.69968E-11  5.67614E-11  3.60358E-11  1.48295E-11 -6.84645E-12 -2.89822E-11 -5.15656E-11 -7.45880E-11 -9.80381E-11 -1.21905E-10
  -1.46177E-10 -1.70844E-10 -1.95894E-10 -2.21318E-10 -2.47103E-10 -2.73238E-10 -2.99712E-10 -3.26513E-10 -3.53631E-10 -3.81053E-10
  -4.08768E-10 -4.36764E-10 -4.65030E-10 -4.93554E-10 -5.22324E-10 -5.51329E-10 -5.80556E-10 -6.09996E-10 -6.39633E-10 -6.69457E-10
  -6.99457E-10 -7.29620E-10 -7.59934E-10 -7.90387E-10 -8.20968E-10 -8.51664E-10 -8.82463E-10 -9.13352E-10 -9.44321E-10 -9.75357E-10
  -1.00645E-09 -1.03759E-09 -1.06876E-09 -1.09995E-09 -1.13116E-09 -1.16237E-09 -1.19357E-09 -1.22476E-09 -1.25592E-09 -1.28703E-09
  -1.31810E-09 -1.34910E-09 -1.38004E-09 -1.41089E-09 -1.44165E-09 -1.47230E-09 -1.50285E-09 -1.53326E-09 -1.56355E-09 -1.59368E-09
  -1.62367E-09 -1.65348E-09 -1.68312E-09 -1.71257E-09 -1.74182E-09 -1.77086E-09 -1.79968E-09 -1.82828E-09 -1.85663E-09 -1.88474E-09
  -1.91258E-09 -1.94015E-09 -1.96744E-09 -1.99444E-09 -2.02114E-09 -2.04753E-09 -2.07360E-09 -2.09933E-09 -2.12472E-09 -2.14977E-09
  -2.17445E-09 -2.19875E-09 -2.22268E-09 -2.24622E-09 -2.26936E-09 -2.29208E-09 -2.31439E-09 -2.33627E-09 -2.35770E-09 -2.37870E-09
  -2.39923E-09 -2.41930E-09 -2.43889E-09 -2.45799E-09 -2.47660E-09 -2.49470E-09 -2.51229E-09 -2.52934E-09 -2.54587E-09 -2.56184E-09
  -2.57727E-09 -2.59212E-09 -2.60641E-09 -2.62011E-09 -2.63322E-09 -2.64573E-09 -2.65763E-09 -2.66892E-09 -2.67957E-09 -2.68960E-09
  -2.69898E-09 -2.70771E-09 -2.71578E-09 -2.72319E-09 -2.72993E-09 -2.73598E-09 -2.74134E-09 -2.74601E-09 -2.74998E-09 -2.75324E-09
  -2.75578E-09 -2.75760E-09 -2.75869E-09 -2.75905E-09 -2.75867E-09 -2.75753E-09 -2.75565E-09 -2.75301E-09 -2.74960E-09 -2.74543E-09
  -2.74048E-09 -2.73475E-09 -2.72824E-09 -2.72094E-09 -2.71284E-09 -2.70395E-09 -2.69426E-09 -2.68376E-09 -2.67246E-09 -2.66034E-09
  -2.64740E-09 -2.63365E-09 -2.61908E-09
 Asp      Conc. = 3.11E-09
  -5.16748E-10 -5.85204E-10 -1.01361E-09 -2.32085E-09 -2.36409E-09 -2.48319E-09 -2.96856E-09 -2.46889E-09 -3.45326E-09 -3.42995E-09
  -3.26527E-09 -3.11331E-09 -2.98611E-09 -2.88029E-09 -2.78406E-09 -2.68525E-09 -2.60745E-09 -2.53696E-09 -2.47104E-09 -2.40829E-09
  -2.34767E-09 -2.28829E-09 -2.22936E-09 -2.17013E-09 -2.10991E-09 -2.04796E-09 -1.98354E-09 -1.91579E-09 -1.84375E-09 -1.76625E-09
  -1.68183E-09 -1.58865E-09 -1.48410E-09 -1.36456E-09 -1.22443E-09 -1.05455E-09 -8.38516E-10 -5.50249E-10 -3.76103E-10 -4.37392E-10
  -4.55819E-10 -4.14536E-10 -1.69107E-11  5.03424E-10  1.28514E-09  1.00818E-09  2.13178E-09  8.97335E-10  3.07596E-10  8.48752E-10
   1.46140E-09  4.61466E-10 -1.44217E-10  1.52592E-10  3.89972E-10 -2.37003E-10  4.97123E-10 -2.54314E-09 -3.12920E-09 -2.27649E-09
  -1.73717E-09 -2.93031E-09 -2.77288E-09 -2.67432E-09 -3.38358E-09 -3.17260E-09 -2.47274E-09 -2.68192E-09 -2.92918E-09 -2.95668E-09
  -2.92773E-09 -2.88027E-09 -2.82611E-09 -2.76976E-09 -2.71314E-09 -2.65712E-09 -2.60208E-09 -2.54819E-09 -2.49544E-09 -2.44384E-09
  -2.39332E-09 -2.34381E-09 -2.29521E-09 -2.24748E-09 -2.20055E-09 -2.15433E-09 -2.10878E-09 -2.06382E-09 -2.01942E-09 -1.97554E-09
  -1.93211E-09 -1.88914E-09 -1.84654E-09 -1.80432E-09 -1.76245E-09 -1.72089E-09 -1.67962E-09 -1.63863E-09 -1.59791E-09 -1.55743E-09
  -1.51721E-09 -1.47718E-09 -1.43737E-09 -1.39778E-09 -1.35836E-09 -1.31914E-09 -1.28012E-09 -1.24128E-09 -1.20263E-09 -1.16418E-09
  -1.12591E-09 -1.08783E-09 -1.04994E-09 -1.01226E-09 -9.74773E-10 -9.37489E-10 -9.00420E-10 -8.63566E-10 -8.26928E-10 -7.90519E-10
  -7.54336E-10 -7.18393E-10 -6.82691E-10 -6.47241E-10 -6.12044E-10 -5.77115E-10 -5.42446E-10 -5.08061E-10 -4.73954E-10 -4.40135E-10
  -4.06609E-10 -3.73389E-10 -3.40477E-10 -3.07872E-10 -2.75589E-10 -2.43625E-10 -2.11993E-10 -1.80688E-10 -1.49721E-10 -1.19095E-10
  -8.87985E-11 -5.88357E-11 -2.92143E-11  7.67025E-14  2.90536E-11  5.77125E-11  8.60733E-11  1.14149E-10  1.41971E-10  1.69557E-10
   1.96971E-10  2.24248E-10  2.51452E-10  2.78696E-10  3.06084E-10  3.33796E-10  3.62012E-10  3.91080E-10  4.21422E-10  4.53674E-10
   4.88784E-10  5.28253E-10  5.74574E-10  6.32195E-10  7.09837E-10  8.27028E-10  1.03669E-09  1.53216E-09  3.40324E-09  5.96432E-09
   4.01525E-09  3.32956E-09  3.93026E-09  5.02336E-09  5.64788E-09  4.62684E-09  3.78611E-09  4.04581E-09  6.01717E-09  7.03180E-09
   2.28984E-09  1.27770E-09  9.66478E-10  8.32503E-10  7.62824E-10  7.21971E-10  6.95882E-10  6.78032E-10  6.65016E-10  6.54938E-10
   6.46655E-10  6.39436E-10  6.32815E-10  6.26460E-10  6.20155E-10  6.13735E-10  6.07083E-10  6.00107E-10  5.92748E-10  5.84947E-10
   5.76674E-10  5.67893E-10  5.58581E-10  5.48722E-10  5.38303E-10  5.27312E-10  5.15735E-10  5.03573E-10  4.90815E-10  4.77469E-10
   4.63538E-10  4.49022E-10  4.33930E-10  4.18266E-10  4.02041E-10  3.85258E-10  3.67927E-10  3.50053E-10  3.31647E-10  3.12716E-10
   2.93271E-10  2.73319E-10  2.52871E-10  2.31935E-10  2.10522E-10  1.88641E-10  1.66304E-10  1.43518E-10  1.20296E-10  9.66478E-11
   7.25841E-11  4.81157E-11  2.32529E-11 -1.99291E-12 -2.76103E-11 -5.35895E-11 -7.99182E-11 -1.06586E-10 -1.33580E-10 -1.60890E-10
