 LCModel (Version 6.3-1R) Copyright: S.W. Provencher.          Ref.: Magn. Reson. Med. 30:672-679 (1993).                
 onepulse 23x5_ftSpec_smooth_lcm
 26 lines in following concentration table = NCONC+1
    Conc.  %SD   /Cr    Metabolite                                         
 1.46E-10 214%   0.000 Ala                                                 
 7.76E-10  98%   0.000 Asp                                                 
    0.000 999%   0.000 Cr                                                  
 1.54E-09  34%   0.000 GABA                                                
    0.000 999%   0.000 Glc                                                 
 1.44E-10 434%   0.000 Gln                                                 
    0.000 999%   0.000 Glu                                                 
    0.000 999%   0.000 Glyc                                                
    0.000 999%   0.000 GPC                                                 
 1.19E-09  33%   0.000 GSH                                                 
 2.58E-09  12%   0.000 Ins                                                 
    0.000 999%   0.000 Lac                                                 
    0.000 999%   0.000 NAAG                                                
 7.30E-10  36%   0.000 NAA                                                 
    0.000 999%   0.000 PCh                                                 
    0.000 999%   0.000 PCr                                                 
 2.78E-09  21%   0.000 PE                                                  
 1.74E-10  86%   0.000 Scyllo                                              
 4.50E-09  30%   0.000 Ser                                                 
    0.000 999%   0.000 Tau                                                 
    0.000 999%   0.000 GPC+PCh                                             
 7.30E-10  36%   0.000 NAA+NAAG                                            
 2.58E-09  12%   0.000 Ins+Glyc                                            
    0.000 999%   0.000 Cr+PCr                                              
 1.44E-10 434%   0.000 Glu+Gln                                             
   6 lines in following misc. output table
  FWHM = 0.123 ppm    S/N =   5                                            
  Data shift = 0.425 ppm                                                   
  Ph:  65 deg     -31.6 deg/ppm                                            
  alphaB,S = 1.2E+00,   1.3E+01                                            
    9 spline knots.   Ns = 5(1)                                            
  ( 9) 6 infls.   (11) 5 extrs.                                            
  363 points on ppm-axis = NY
      4.250000     4.238821     4.227641     4.216462     4.205282     4.194103     4.182923     4.171744     4.160564     4.149385
      4.138206     4.127026     4.115847     4.104667     4.093488     4.082308     4.071129     4.059949     4.048770     4.037591
      4.026411     4.015232     4.004052     3.992873     3.981693     3.970514     3.959334     3.948155     3.936975     3.925796
      3.914617     3.903437     3.892258     3.881078     3.869899     3.858719     3.847540     3.836360     3.825181     3.814002
      3.802822     3.791643     3.780463     3.769284     3.758104     3.746925     3.735745     3.724566     3.713387     3.702207
      3.691028     3.679848     3.668669     3.657489     3.646310     3.635130     3.623951     3.612772     3.601592     3.590413
      3.579233     3.568054     3.556874     3.545695     3.534515     3.523336     3.512156     3.500977     3.489798     3.478618
      3.467439     3.456259     3.445080     3.433900     3.422721     3.411541     3.400362     3.389183     3.378003     3.366824
      3.355644     3.344465     3.333285     3.322106     3.310926     3.299747     3.288568     3.277388     3.266209     3.255029
      3.243850     3.232670     3.221491     3.210311     3.199132     3.187953     3.176773     3.165594     3.154414     3.143235
      3.132055     3.120876     3.109696     3.098517     3.087337     3.076158     3.064979     3.053799     3.042620     3.031440
      3.020261     3.009081     2.997902     2.986722     2.975543     2.964364     2.953184     2.942005     2.930825     2.919646
      2.908466     2.897287     2.886107     2.874928     2.863749     2.852569     2.841390     2.830210     2.819031     2.807851
      2.796672     2.785492     2.774313     2.763134     2.751954     2.740775     2.729595     2.718416     2.707236     2.696057
      2.684877     2.673698     2.662519     2.651339     2.640160     2.628980     2.617801     2.606621     2.595442     2.584262
      2.573083     2.561903     2.550724     2.539545     2.528365     2.517186     2.506006     2.494827     2.483647     2.472468
      2.461288     2.450109     2.438930     2.427750     2.416571     2.405391     2.394212     2.383032     2.371853     2.360673
      2.349494     2.338315     2.327135     2.315956     2.304776     2.293597     2.282417     2.271238     2.260058     2.248879
      2.237700     2.226520     2.215341     2.204161     2.192982     2.181802     2.170623     2.159443     2.148264     2.137084
      2.125905     2.114726     2.103546     2.092367     2.081187     2.070008     2.058828     2.047649     2.036469     2.025290
      2.014111     2.002931     1.991752     1.980572     1.969393     1.958213     1.947034     1.935854     1.924675     1.913496
      1.902316     1.891137     1.879957     1.868778     1.857598     1.846419     1.835239     1.824060     1.812881     1.801701
      1.790522     1.779342     1.768163     1.756983     1.745804     1.734624     1.723445     1.712265     1.701086     1.689907
      1.678727     1.667548     1.656368     1.645189     1.634009     1.622830     1.611650     1.600471     1.589292     1.578112
      1.566933     1.555753     1.544574     1.533394     1.522215     1.511035     1.499856     1.488677     1.477497     1.466318
      1.455138     1.443959     1.432779     1.421600     1.410420     1.399241     1.388062     1.376882     1.365703     1.354523
      1.343344     1.332164     1.320985     1.309805     1.298626     1.287446     1.276267     1.265088     1.253908     1.242729
      1.231549     1.220370     1.209190     1.198011     1.186831     1.175652     1.164473     1.153293     1.142114     1.130934
      1.119755     1.108575     1.097396     1.086216     1.075037     1.063858     1.052678     1.041499     1.030319     1.019140
      1.007960     0.996781     0.985601     0.974422     0.963243     0.952063     0.940884     0.929704     0.918525     0.907345
      0.896166     0.884986     0.873807     0.862628     0.851448     0.840269     0.829089     0.817910     0.806730     0.795551
      0.784371     0.773192     0.762012     0.750833     0.739654     0.728474     0.717295     0.706115     0.694936     0.683756
      0.672577     0.661397     0.650218     0.639039     0.627859     0.616680     0.605500     0.594321     0.583141     0.571962
      0.560782     0.549603     0.538424     0.527244     0.516065     0.504885     0.493706     0.482526     0.471347     0.460167
      0.448988     0.437809     0.426629     0.415450     0.404270     0.393091     0.381911     0.370732     0.359552     0.348373
      0.337193     0.326014     0.314835     0.303655     0.292476     0.281296     0.270117     0.258937     0.247758     0.236578
      0.225399     0.214220     0.203040
 NY phased data points follow
   8.98604E-09  9.43014E-09  9.79023E-09  1.00925E-08  9.92160E-09  1.04857E-08  1.02692E-08  1.13399E-08  1.09236E-08  1.10456E-08
   1.06265E-08  1.05673E-08  1.12880E-08  1.01536E-08  1.01686E-08  1.00362E-08  1.00172E-08  1.07221E-08  1.09860E-08  1.06328E-08
   1.02085E-08  1.05042E-08  1.01863E-08  1.07412E-08  1.12557E-08  1.24830E-08  1.27098E-08  1.26412E-08  1.19585E-08  1.09891E-08
   1.08560E-08  1.06627E-08  1.00336E-08  1.02775E-08  1.00923E-08  9.95863E-09  1.02878E-08  9.87984E-09  9.74149E-09  9.14023E-09
   8.70092E-09  8.85986E-09  8.72819E-09  8.76086E-09  8.50565E-09  8.53225E-09  8.45762E-09  8.67047E-09  8.17851E-09  7.83357E-09
   7.15350E-09  7.83685E-09  7.71141E-09  8.22883E-09  7.97896E-09  8.84005E-09  1.05847E-08  1.18524E-08  1.18826E-08  1.22625E-08
   1.15930E-08  1.10102E-08  1.05011E-08  1.03214E-08  9.59046E-09  9.38099E-09  8.73527E-09  8.02182E-09  7.39398E-09  6.88293E-09
   6.65257E-09  7.77133E-09  9.58194E-09  1.13091E-08  1.32297E-08  1.40274E-08  1.38313E-08  1.30710E-08  1.32878E-08  1.28032E-08
   1.32762E-08  1.21478E-08  1.27699E-08  1.26740E-08  1.24280E-08  1.24722E-08  1.23147E-08  1.18506E-08  1.11266E-08  1.11226E-08
   1.04931E-08  1.05033E-08  9.88212E-09  9.60175E-09  9.60098E-09  9.07938E-09  9.30222E-09  9.45679E-09  9.10442E-09  9.36882E-09
   9.48204E-09  9.03304E-09  8.96999E-09  8.11675E-09  7.67918E-09  7.81022E-09  7.61258E-09  7.10491E-09  7.84355E-09  7.25659E-09
   7.68795E-09  7.45180E-09  7.43074E-09  6.88071E-09  7.24962E-09  7.15308E-09  7.39959E-09  7.00108E-09  6.50778E-09  5.29260E-09
   5.83563E-09  5.58281E-09  5.61695E-09  5.46547E-09  5.91980E-09  5.74542E-09  5.92088E-09  6.01770E-09  6.51212E-09  6.46543E-09
   6.00481E-09  5.84558E-09  6.20310E-09  5.57046E-09  7.48778E-09  7.39787E-09  7.69872E-09  7.31446E-09  7.60891E-09  7.85907E-09
   8.94262E-09  8.75525E-09  8.91295E-09  9.30504E-09  9.73392E-09  9.96087E-09  1.05230E-08  9.68191E-09  9.90239E-09  1.01673E-08
   1.02582E-08  1.04019E-08  1.05859E-08  1.06680E-08  1.10499E-08  1.10034E-08  1.18439E-08  1.11532E-08  1.14465E-08  1.11169E-08
   1.22479E-08  1.06643E-08  1.01504E-08  9.41977E-09  1.10818E-08  1.45273E-08  1.79211E-08  2.00304E-08  2.19753E-08  2.27070E-08
   2.51754E-08  2.54336E-08  2.69709E-08  2.68955E-08  2.73907E-08  2.72078E-08  2.76145E-08  2.65386E-08  2.58375E-08  2.39465E-08
   2.21544E-08  1.93938E-08  1.70730E-08  1.43198E-08  1.12088E-08  7.67287E-09  4.85575E-09  1.96748E-09 -3.61930E-11 -2.09506E-09
  -3.87746E-09 -4.78799E-09 -5.05004E-09 -4.99267E-09 -3.87592E-09 -3.38330E-09 -1.74765E-09 -1.46065E-09 -5.08097E-11  4.52536E-10
   1.13661E-09  4.38537E-10  1.26498E-09  5.91830E-10  8.63825E-10  6.95256E-10  6.78476E-10  1.06281E-09  1.48564E-09  1.97986E-09
   2.36249E-09  2.15167E-09  2.06266E-09  1.30445E-09  1.26204E-09  6.67047E-10  9.75669E-10  1.17163E-09  1.47525E-09  2.21156E-09
   2.48295E-09  2.55620E-09  2.67484E-09  1.91047E-09  2.21214E-09  1.54118E-09  1.37315E-09  1.07512E-09  1.81048E-09  1.30790E-09
   1.47704E-09  1.83972E-09  1.81093E-09  2.40541E-09  2.47917E-09  2.36851E-09  2.44252E-09  2.33701E-09  2.36243E-09  1.88513E-09
   2.08601E-09  1.91170E-09  2.04169E-09  1.86789E-09  1.24013E-09  1.84990E-09  1.42881E-09  1.92198E-09  1.53218E-09  1.71867E-09
   1.56117E-09  1.48238E-09  1.07569E-09  1.71986E-09  1.09663E-09  2.14130E-09  2.29746E-09  2.32919E-09  1.92459E-09  2.29200E-09
   2.39445E-09  1.78050E-09  1.64605E-09  1.82152E-09  1.06829E-09  1.49248E-09  1.21636E-09  1.71204E-09  1.22247E-09  1.33764E-09
   1.07471E-09  2.14599E-09  1.98852E-09  2.20111E-09  2.09164E-09  2.76032E-09  1.81745E-09  3.03995E-09  2.23881E-09  3.00872E-09
   1.97918E-09  3.05561E-09  2.46310E-09  3.15244E-09  2.24867E-09  2.74274E-09  2.71463E-09  3.15783E-09  2.51383E-09  2.58367E-09
   2.09859E-09  3.01739E-09  2.80771E-09  3.31325E-09  2.68623E-09  3.04294E-09  3.18874E-09  2.88153E-09  3.05079E-09  2.95624E-09
   2.27845E-09  3.22360E-09  3.27053E-09  3.46379E-09  2.95866E-09  3.53652E-09  2.94072E-09  3.75961E-09  3.28117E-09  3.22552E-09
   3.20080E-09  3.93769E-09  3.34795E-09  3.84925E-09  3.66268E-09  3.72383E-09  3.48832E-09  3.48777E-09  3.83469E-09  4.01915E-09
   3.93197E-09  3.80759E-09  4.08859E-09  3.91827E-09  3.89263E-09  3.95314E-09  4.19760E-09  4.03752E-09  4.02820E-09  4.10041E-09
   3.99581E-09  4.66371E-09  4.59618E-09  4.95898E-09  4.49494E-09  4.20617E-09  4.63054E-09  5.04015E-09  4.64831E-09  5.08405E-09
   5.04481E-09  5.00716E-09  4.48247E-09  5.26003E-09  5.17837E-09  5.04767E-09  5.24005E-09  5.22958E-09  5.08191E-09  5.35289E-09
   5.08948E-09  5.35765E-09  5.78067E-09  4.98306E-09  5.23461E-09  5.56759E-09  5.60759E-09  5.25490E-09  5.56113E-09  5.19096E-09
   5.07767E-09  5.41062E-09  5.73756E-09
 NY points of the fit to the data follow
   1.34213E-08  9.35129E-09  1.00031E-08  1.04346E-08  1.05785E-08  1.01384E-08  9.17753E-09  9.92005E-09  1.17530E-08  1.15527E-08
   9.89427E-09  1.03274E-08  1.05383E-08  1.12718E-08  1.19924E-08  1.15310E-08  1.00752E-08  1.13395E-08  1.20237E-08  9.82181E-09
   7.89954E-09  8.66609E-09  1.04313E-08  1.10775E-08  1.11656E-08  1.22450E-08  1.27335E-08  1.25075E-08  1.16043E-08  1.16853E-08
   1.18557E-08  1.12717E-08  1.05993E-08  9.79260E-09  9.42671E-09  9.46357E-09  8.91937E-09  9.14348E-09  9.19438E-09  9.18667E-09
   8.91147E-09  8.97465E-09  9.56686E-09  8.90243E-09  8.07542E-09  7.59588E-09  7.72884E-09  7.02507E-09  7.05927E-09  7.52127E-09
   8.27015E-09  8.94507E-09  9.20720E-09  9.42653E-09  9.80359E-09  9.40503E-09  9.65980E-09  1.03072E-08  1.04692E-08  1.01930E-08
   1.03464E-08  1.01973E-08  1.02918E-08  1.04288E-08  1.03652E-08  1.06399E-08  1.07485E-08  1.05348E-08  1.05800E-08  1.08607E-08
   1.12942E-08  1.13284E-08  1.12319E-08  1.09953E-08  1.14821E-08  1.18246E-08  1.14262E-08  1.28234E-08  1.28250E-08  1.25190E-08
   1.25457E-08  1.20945E-08  1.21962E-08  1.21869E-08  1.17042E-08  1.17231E-08  1.21432E-08  1.11969E-08  8.30767E-09  8.35165E-09
   8.54334E-09  8.39778E-09  8.69246E-09  8.96958E-09  8.37831E-09  8.30629E-09  8.67641E-09  8.29649E-09  8.07845E-09  8.26195E-09
   8.26710E-09  8.16256E-09  8.21380E-09  8.34215E-09  8.35494E-09  8.35742E-09  8.38752E-09  8.41588E-09  8.44377E-09  8.44611E-09
   8.31499E-09  8.16470E-09  8.26915E-09  8.21812E-09  8.03863E-09  8.01539E-09  8.01844E-09  8.02577E-09  8.03261E-09  8.03771E-09
   8.04042E-09  8.04079E-09  8.03886E-09  8.03469E-09  8.02832E-09  8.01986E-09  8.00941E-09  7.99703E-09  7.98282E-09  7.96689E-09
   7.94930E-09  7.93013E-09  7.90947E-09  7.88742E-09  7.86404E-09  7.83943E-09  7.81366E-09  7.78683E-09  7.75904E-09  7.73037E-09
   7.70095E-09  7.67088E-09  7.64031E-09  7.60940E-09  7.57824E-09  7.54702E-09  7.51599E-09  7.48538E-09  7.45545E-09  7.42658E-09
   7.39918E-09  7.37368E-09  7.35078E-09  7.33130E-09  7.31621E-09  7.30691E-09  7.30532E-09  7.31403E-09  7.33679E-09  7.37936E-09
   7.45067E-09  7.56603E-09  7.75342E-09  8.07107E-09  8.66360E-09  1.00099E-08  1.44318E-08  2.10067E-08  2.40159E-08  2.42800E-08
   2.53537E-08  2.65449E-08  2.68431E-08  2.66484E-08  2.67762E-08  2.84692E-08  3.11574E-08  2.76694E-08  1.64135E-08  8.74778E-09
   6.67618E-09  5.88679E-09  5.47543E-09  5.21769E-09  5.03493E-09  4.89329E-09  4.77611E-09  4.67435E-09  4.58281E-09  4.49830E-09
   4.41877E-09  4.34292E-09  4.26982E-09  4.19889E-09  4.12967E-09  4.06186E-09  3.99528E-09  3.92975E-09  3.86516E-09  3.80146E-09
   3.73859E-09  3.67651E-09  3.61522E-09  3.55472E-09  3.49499E-09  3.43606E-09  3.37793E-09  3.32065E-09  3.26419E-09  3.20859E-09
   3.15389E-09  3.10012E-09  3.04728E-09  2.99543E-09  2.94455E-09  2.89470E-09  2.84592E-09  2.79822E-09  2.75161E-09  2.70615E-09
   2.66185E-09  2.61876E-09  2.57688E-09  2.53624E-09  2.49686E-09  2.45880E-09  2.42205E-09  2.38664E-09  2.35262E-09  2.31999E-09
   2.28878E-09  2.25901E-09  2.23071E-09  2.20389E-09  2.17859E-09  2.15481E-09  2.13258E-09  2.11191E-09  2.09283E-09  2.07536E-09
   2.05950E-09  2.04528E-09  2.03272E-09  2.02179E-09  2.01248E-09  2.00475E-09  1.99857E-09  1.99391E-09  1.99075E-09  1.98904E-09
   1.98877E-09  1.98990E-09  1.99240E-09  1.99623E-09  2.00138E-09  2.00780E-09  2.01547E-09  2.02435E-09  2.03441E-09  2.04562E-09
   2.05796E-09  2.07137E-09  2.08584E-09  2.10134E-09  2.11783E-09  2.13527E-09  2.15364E-09  2.17291E-09  2.19304E-09  2.21400E-09
   2.23575E-09  2.25828E-09  2.28153E-09  2.30549E-09  2.33012E-09  2.35538E-09  2.38125E-09  2.40770E-09  2.43469E-09  2.46219E-09
   2.49017E-09  2.51859E-09  2.54743E-09  2.57666E-09  2.60624E-09  2.63614E-09  2.66634E-09  2.69680E-09  2.72748E-09  2.75837E-09
   2.78943E-09  2.82064E-09  2.85195E-09  2.88334E-09  2.91479E-09  2.94625E-09  2.97771E-09  3.00914E-09  3.04051E-09  3.07179E-09
   3.10295E-09  3.13395E-09  3.16480E-09  3.19544E-09  3.22587E-09  3.25606E-09  3.28600E-09  3.31566E-09  3.34503E-09  3.37410E-09
   3.40283E-09  3.43123E-09  3.45925E-09  3.48690E-09  3.51415E-09  3.54098E-09  3.56737E-09  3.59332E-09  3.61880E-09  3.64380E-09
   3.66829E-09  3.69227E-09  3.71572E-09  3.73861E-09  3.76095E-09  3.78270E-09  3.80386E-09  3.82440E-09  3.84432E-09  3.86361E-09
   3.88223E-09  3.90019E-09  3.91747E-09  3.93404E-09  3.94991E-09  3.96506E-09  3.97947E-09  3.99313E-09  4.00603E-09  4.01815E-09
   4.02949E-09  4.04003E-09  4.04977E-09  4.05868E-09  4.06676E-09  4.07400E-09  4.08039E-09  4.08591E-09  4.09056E-09  4.09433E-09
   4.09721E-09  4.09919E-09  4.10026E-09  4.10041E-09  4.09964E-09  4.09793E-09  4.09529E-09  4.09169E-09  4.08714E-09  4.08163E-09
   4.07515E-09  4.06769E-09  4.05926E-09
 NY background values follow
     6.918E-09    6.987E-09    7.054E-09    7.120E-09    7.185E-09    7.250E-09    7.313E-09    7.375E-09    7.436E-09    7.496E-09
     7.555E-09    7.613E-09    7.670E-09    7.726E-09    7.781E-09    7.835E-09    7.888E-09    7.940E-09    7.991E-09    8.040E-09
     8.089E-09    8.137E-09    8.183E-09    8.229E-09    8.274E-09    8.317E-09    8.360E-09    8.402E-09    8.442E-09    8.482E-09
     8.520E-09    8.558E-09    8.594E-09    8.630E-09    8.664E-09    8.697E-09    8.730E-09    8.761E-09    8.792E-09    8.821E-09
     8.849E-09    8.877E-09    8.903E-09    8.928E-09    8.953E-09    8.976E-09    8.998E-09    9.020E-09    9.040E-09    9.060E-09
     9.078E-09    9.096E-09    9.112E-09    9.128E-09    9.142E-09    9.156E-09    9.168E-09    9.180E-09    9.191E-09    9.200E-09
     9.209E-09    9.217E-09    9.224E-09    9.230E-09    9.235E-09    9.239E-09    9.242E-09    9.244E-09    9.245E-09    9.245E-09
     9.244E-09    9.243E-09    9.240E-09    9.236E-09    9.232E-09    9.226E-09    9.219E-09    9.212E-09    9.203E-09    9.194E-09
     9.183E-09    9.172E-09    9.159E-09    9.146E-09    9.131E-09    9.116E-09    9.100E-09    9.082E-09    9.064E-09    9.044E-09
     9.024E-09    9.003E-09    8.980E-09    8.957E-09    8.932E-09    8.907E-09    8.881E-09    8.853E-09    8.825E-09    8.795E-09
     8.765E-09    8.733E-09    8.701E-09    8.667E-09    8.633E-09    8.597E-09    8.560E-09    8.523E-09    8.484E-09    8.444E-09
     8.403E-09    8.361E-09    8.319E-09    8.275E-09    8.230E-09    8.184E-09    8.137E-09    8.089E-09    8.040E-09    7.989E-09
     7.938E-09    7.886E-09    7.833E-09    7.778E-09    7.723E-09    7.666E-09    7.609E-09    7.551E-09    7.492E-09    7.431E-09
     7.370E-09    7.308E-09    7.245E-09    7.182E-09    7.117E-09    7.051E-09    6.985E-09    6.918E-09    6.850E-09    6.782E-09
     6.713E-09    6.643E-09    6.572E-09    6.500E-09    6.428E-09    6.356E-09    6.282E-09    6.209E-09    6.134E-09    6.059E-09
     5.983E-09    5.907E-09    5.831E-09    5.754E-09    5.676E-09    5.598E-09    5.520E-09    5.441E-09    5.362E-09    5.282E-09
     5.203E-09    5.122E-09    5.042E-09    4.961E-09    4.880E-09    4.799E-09    4.718E-09    4.636E-09    4.555E-09    4.473E-09
     4.391E-09    4.309E-09    4.227E-09    4.144E-09    4.062E-09    3.980E-09    3.898E-09    3.815E-09    3.733E-09    3.651E-09
     3.569E-09    3.487E-09    3.405E-09    3.324E-09    3.243E-09    3.161E-09    3.081E-09    3.000E-09    2.920E-09    2.840E-09
     2.761E-09    2.682E-09    2.603E-09    2.525E-09    2.448E-09    2.371E-09    2.295E-09    2.220E-09    2.145E-09    2.071E-09
     1.997E-09    1.925E-09    1.853E-09    1.783E-09    1.713E-09    1.644E-09    1.576E-09    1.509E-09    1.442E-09    1.377E-09
     1.314E-09    1.251E-09    1.189E-09    1.129E-09    1.069E-09    1.011E-09    9.545E-10    8.990E-10    8.447E-10    7.919E-10
     7.404E-10    6.902E-10    6.415E-10    5.942E-10    5.484E-10    5.041E-10    4.613E-10    4.200E-10    3.803E-10    3.421E-10
     3.056E-10    2.707E-10    2.374E-10    2.058E-10    1.759E-10    1.476E-10    1.211E-10    9.636E-11    7.334E-11    5.210E-11
     3.264E-11    1.498E-11   -8.689E-13   -1.491E-11   -2.719E-11   -3.773E-11   -4.656E-11   -5.371E-11   -5.922E-11   -6.311E-11
    -6.543E-11   -6.619E-11   -6.544E-11   -6.320E-11   -5.951E-11   -5.440E-11   -4.790E-11   -4.005E-11   -3.087E-11   -2.041E-11
    -8.688E-12    4.254E-12    1.839E-11    3.368E-11    5.009E-11    6.760E-11    8.616E-11    1.057E-10    1.263E-10    1.479E-10
     1.703E-10    1.937E-10    2.179E-10    2.429E-10    2.687E-10    2.953E-10    3.226E-10    3.507E-10    3.793E-10    4.086E-10
     4.385E-10    4.690E-10    5.000E-10    5.314E-10    5.634E-10    5.958E-10    6.286E-10    6.618E-10    6.953E-10    7.291E-10
     7.632E-10    7.975E-10    8.321E-10    8.668E-10    9.017E-10    9.368E-10    9.719E-10    1.007E-09    1.042E-09    1.078E-09
     1.113E-09    1.148E-09    1.183E-09    1.218E-09    1.253E-09    1.288E-09    1.322E-09    1.357E-09    1.391E-09    1.425E-09
     1.459E-09    1.492E-09    1.526E-09    1.558E-09    1.591E-09    1.623E-09    1.655E-09    1.687E-09    1.718E-09    1.749E-09
     1.779E-09    1.809E-09    1.839E-09    1.868E-09    1.897E-09    1.925E-09    1.952E-09    1.979E-09    2.006E-09    2.032E-09
     2.057E-09    2.082E-09    2.106E-09    2.129E-09    2.152E-09    2.174E-09    2.196E-09    2.217E-09    2.237E-09    2.257E-09
     2.275E-09    2.294E-09    2.311E-09    2.327E-09    2.343E-09    2.358E-09    2.372E-09    2.386E-09    2.399E-09    2.410E-09
     2.421E-09    2.432E-09    2.441E-09    2.449E-09    2.457E-09    2.464E-09    2.469E-09    2.474E-09    2.478E-09    2.482E-09
     2.484E-09    2.485E-09    2.485E-09
 Ala      Conc. = 1.46E-10
   7.03372E-09  7.08363E-09  7.15467E-09  7.21029E-09  7.25785E-09  7.32704E-09  7.37245E-09  7.38785E-09  7.47000E-09  7.53741E-09
   7.54334E-09  7.60405E-09  7.67504E-09  7.71739E-09  7.76965E-09  7.82555E-09  7.88118E-09  7.93578E-09  7.98918E-09  8.04132E-09
   8.09222E-09  8.14190E-09  8.19039E-09  8.23771E-09  8.28388E-09  8.32893E-09  8.37283E-09  8.41564E-09  8.45738E-09  8.49800E-09
   8.53757E-09  8.57604E-09  8.61346E-09  8.64984E-09  8.68516E-09  8.71942E-09  8.75266E-09  8.78486E-09  8.81603E-09  8.84619E-09
   8.87530E-09  8.90340E-09  8.93049E-09  8.95659E-09  8.98166E-09  9.00575E-09  9.02883E-09  9.05090E-09  9.07202E-09  9.09214E-09
   9.11128E-09  9.12941E-09  9.14661E-09  9.16283E-09  9.17807E-09  9.19234E-09  9.20566E-09  9.21805E-09  9.22947E-09  9.24000E-09
   9.24956E-09  9.25818E-09  9.26588E-09  9.27266E-09  9.27850E-09  9.28343E-09  9.28742E-09  9.29051E-09  9.29266E-09  9.29390E-09
   9.29422E-09  9.29363E-09  9.29214E-09  9.28973E-09  9.28643E-09  9.28225E-09  9.27715E-09  9.27121E-09  9.26437E-09  9.25670E-09
   9.24818E-09  9.23883E-09  9.22866E-09  9.21774E-09  9.20608E-09  9.19368E-09  9.18065E-09  9.16700E-09  9.15284E-09  9.13828E-09
   9.12342E-09  9.10852E-09  9.09379E-09  9.07964E-09  9.06669E-09  9.05592E-09  9.04911E-09  9.04981E-09  9.06656E-09  9.12488E-09
   9.17797E-09  9.11100E-09  9.13690E-09  9.21530E-09  9.16741E-09  9.10454E-09  9.06800E-09  9.02963E-09  8.99148E-09  8.92877E-09
   8.73335E-09  8.52048E-09  8.56405E-09  8.45370E-09  8.21652E-09  8.13706E-09  8.08484E-09  8.03828E-09  7.99255E-09  7.94629E-09
   7.89883E-09  7.85015E-09  7.80016E-09  7.74888E-09  7.69633E-09  7.64256E-09  7.58758E-09  7.53146E-09  7.47423E-09  7.41591E-09
   7.35655E-09  7.29618E-09  7.23481E-09  7.17249E-09  7.10924E-09  7.04509E-09  6.98004E-09  6.91415E-09  6.84745E-09  6.77992E-09
   6.71163E-09  6.64257E-09  6.57278E-09  6.50232E-09  6.43113E-09  6.35928E-09  6.28679E-09  6.21371E-09  6.14000E-09  6.06576E-09
   5.99099E-09  5.91567E-09  5.83988E-09  5.76366E-09  5.68698E-09  5.60990E-09  5.53250E-09  5.45480E-09  5.37682E-09  5.29872E-09
   5.22052E-09  5.14246E-09  5.06481E-09  4.98819E-09  4.91401E-09  4.84688E-09  4.80953E-09  4.82758E-09  4.75266E-09  4.66761E-09
   4.60485E-09  4.53648E-09  4.45511E-09  4.37074E-09  4.29015E-09  4.22756E-09  4.18909E-09  4.07604E-09  3.81310E-09  3.68985E-09
   3.59555E-09  3.50847E-09  3.42412E-09  3.34113E-09  3.25893E-09  3.17731E-09  3.09619E-09  3.01550E-09  2.93525E-09  2.85545E-09
   2.77609E-09  2.69723E-09  2.61887E-09  2.54106E-09  2.46381E-09  2.38715E-09  2.31113E-09  2.23578E-09  2.16112E-09  2.08719E-09
   2.01403E-09  1.94165E-09  1.87010E-09  1.79941E-09  1.72961E-09  1.66073E-09  1.59279E-09  1.52587E-09  1.45994E-09  1.39505E-09
   1.33125E-09  1.26855E-09  1.20700E-09  1.14662E-09  1.08741E-09  1.02943E-09  9.72713E-10  9.17273E-10  8.63124E-10  8.10321E-10
   7.58886E-10  7.08837E-10  6.60199E-10  6.12989E-10  5.67228E-10  5.22985E-10  4.80228E-10  4.39000E-10  3.99344E-10  3.61263E-10
   3.24777E-10  2.89914E-10  2.56697E-10  2.25130E-10  1.95250E-10  1.67073E-10  1.40608E-10  1.15874E-10  9.28919E-11  7.16893E-11
   5.22591E-11  3.46327E-11  1.88198E-11  4.80599E-12 -7.44083E-12 -1.79519E-11 -2.67572E-11 -3.38853E-11 -3.93708E-11 -4.32444E-11
  -4.55380E-11 -4.62859E-11 -4.55168E-11 -4.32636E-11 -3.95604E-11 -3.44355E-11 -2.79281E-11 -2.00663E-11 -1.08836E-11 -4.12455E-13
   1.13147E-11  2.42599E-11  3.83949E-11  5.36873E-11  7.00995E-11  8.76025E-11  1.06164E-10  1.25746E-10  1.46317E-10  1.67848E-10
   1.90298E-10  2.13643E-10  2.37840E-10  2.62866E-10  2.88681E-10  3.15255E-10  3.42553E-10  3.70545E-10  3.99197E-10  4.28478E-10
   4.58354E-10  4.88785E-10  5.19752E-10  5.51219E-10  5.83152E-10  6.15514E-10  6.48288E-10  6.81430E-10  7.14905E-10  7.48694E-10
   7.82760E-10  8.17080E-10  8.51609E-10  8.86328E-10  9.21201E-10  9.56195E-10  9.91291E-10  1.02646E-09  1.06166E-09  1.09688E-09
   1.13207E-09  1.16720E-09  1.20228E-09  1.23725E-09  1.27209E-09  1.30680E-09  1.34135E-09  1.37572E-09  1.40989E-09  1.44385E-09
   1.47757E-09  1.51103E-09  1.54422E-09  1.57712E-09  1.60970E-09  1.64196E-09  1.67387E-09  1.70542E-09  1.73659E-09  1.76735E-09
   1.79770E-09  1.82762E-09  1.85708E-09  1.88608E-09  1.91460E-09  1.94261E-09  1.97011E-09  1.99708E-09  2.02350E-09  2.04936E-09
   2.07464E-09  2.09932E-09  2.12341E-09  2.14686E-09  2.16968E-09  2.19186E-09  2.21337E-09  2.23420E-09  2.25434E-09  2.27378E-09
   2.29250E-09  2.31049E-09  2.32774E-09  2.34424E-09  2.35997E-09  2.37493E-09  2.38910E-09  2.40248E-09  2.41504E-09  2.42679E-09
   2.43771E-09  2.44779E-09  2.45702E-09  2.46539E-09  2.47290E-09  2.47954E-09  2.48529E-09  2.49015E-09  2.49412E-09  2.49718E-09
   2.49933E-09  2.50055E-09  2.50086E-09
 Asp      Conc. = 7.76E-10
   7.22423E-09  7.07473E-09  7.13651E-09  7.09767E-09  7.11510E-09  7.17048E-09  7.08347E-09  7.15778E-09  7.26335E-09  7.36437E-09
   7.45843E-09  7.54649E-09  7.63093E-09  7.71307E-09  7.78951E-09  7.86289E-09  7.93390E-09  8.00287E-09  8.07008E-09  8.13574E-09
   8.20005E-09  8.26319E-09  8.32533E-09  8.38665E-09  8.44734E-09  8.50758E-09  8.56756E-09  8.62759E-09  8.68798E-09  8.74909E-09
   8.81149E-09  8.87587E-09  8.94331E-09  9.01551E-09  9.09526E-09  9.18741E-09  9.28248E-09  9.32860E-09  9.38420E-09  9.41599E-09
   9.47678E-09  9.57586E-09  9.73654E-09  9.83500E-09  1.00337E-08  1.00255E-08  9.88375E-09  9.83739E-09  9.96317E-09  9.87496E-09
   9.88356E-09  9.97110E-09  9.91396E-09  9.72194E-09  9.60039E-09  9.19370E-09  9.10166E-09  9.28137E-09  9.30763E-09  9.05887E-09
   9.07781E-09  9.08217E-09  8.99886E-09  9.06177E-09  9.14972E-09  9.12196E-09  9.06421E-09  9.05601E-09  9.05990E-09  9.06702E-09
   9.07462E-09  9.08163E-09  9.08761E-09  9.09234E-09  9.09575E-09  9.09782E-09  9.09849E-09  9.09786E-09  9.09585E-09  9.09255E-09
   9.08795E-09  9.08207E-09  9.07492E-09  9.06655E-09  9.05697E-09  9.04615E-09  9.03417E-09  9.02098E-09  9.00662E-09  8.99110E-09
   8.97442E-09  8.95662E-09  8.93767E-09  8.91758E-09  8.89636E-09  8.87403E-09  8.85058E-09  8.82601E-09  8.80033E-09  8.77356E-09
   8.74568E-09  8.71669E-09  8.68662E-09  8.65544E-09  8.62317E-09  8.58981E-09  8.55534E-09  8.51980E-09  8.48319E-09  8.44547E-09
   8.40669E-09  8.36678E-09  8.32582E-09  8.28374E-09  8.24061E-09  8.19638E-09  8.15108E-09  8.10471E-09  8.05724E-09  8.00877E-09
   7.95911E-09  7.90841E-09  7.85663E-09  7.80380E-09  7.74994E-09  7.69506E-09  7.63917E-09  7.58229E-09  7.52446E-09  7.46567E-09
   7.40595E-09  7.34534E-09  7.28382E-09  7.22144E-09  7.15821E-09  7.09415E-09  7.02927E-09  6.96360E-09  6.89718E-09  6.83001E-09
   6.76212E-09  6.69353E-09  6.62426E-09  6.55438E-09  6.48384E-09  6.41270E-09  6.34100E-09  6.26878E-09  6.19602E-09  6.12283E-09
   6.04922E-09  5.97519E-09  5.90085E-09  5.82627E-09  5.75146E-09  5.67654E-09  5.60166E-09  5.52694E-09  5.45260E-09  5.37900E-09
   5.30656E-09  5.23618E-09  5.16932E-09  5.10908E-09  5.06296E-09  5.05496E-09  5.20188E-09  5.65115E-09  5.60856E-09  5.50815E-09
   5.52670E-09  5.51718E-09  5.43875E-09  5.34421E-09  5.26922E-09  5.28803E-09  5.43737E-09  5.20031E-09  4.15632E-09  3.84855E-09
   3.69891E-09  3.58834E-09  3.49199E-09  3.40213E-09  3.31574E-09  3.23145E-09  3.14857E-09  3.06672E-09  2.98570E-09  2.90539E-09
   2.82572E-09  2.74669E-09  2.66825E-09  2.59043E-09  2.51323E-09  2.43667E-09  2.36077E-09  2.28556E-09  2.21106E-09  2.13731E-09
   2.06433E-09  1.99214E-09  1.92078E-09  1.85029E-09  1.78069E-09  1.71200E-09  1.64426E-09  1.57753E-09  1.51180E-09  1.44710E-09
   1.38348E-09  1.32097E-09  1.25959E-09  1.19939E-09  1.14035E-09  1.08254E-09  1.02599E-09  9.70710E-10  9.16717E-10  8.64066E-10
   8.12779E-10  7.62874E-10  7.14375E-10  6.67300E-10  6.21670E-10  5.77554E-10  5.34919E-10  4.93809E-10  4.54267E-10  4.16296E-10
   3.79916E-10  3.45155E-10  3.12034E-10  2.80561E-10  2.50771E-10  2.22680E-10  1.96296E-10  1.71640E-10  1.48731E-10  1.27599E-10
