 LCModel (Version 6.3-1R) Copyright: S.W. Provencher.          Ref.: Magn. Reson. Med. 30:672-679 (1993).                
 onepulse 23x6_ftSpec_smooth_lcm
 26 lines in following concentration table = NCONC+1
    Conc.  %SD   /Cr    Metabolite                                         
 1.27E-10 276%   0.000 Ala                                                 
 2.04E-09  33%   0.000 Asp                                                 
    0.000 999%   0.000 Cr                                                  
 3.22E-09  15%   0.000 GABA                                                
 1.67E-09  37%   0.000 Glc                                                 
    0.000 999%   0.000 Gln                                                 
    0.000 999%   0.000 Glu                                                 
    0.000 999%   0.000 Glyc                                                
 1.39E-10  66%   0.000 GPC                                                 
    0.000 999%   0.000 GSH                                                 
 3.46E-10 120%   0.000 Ins                                                 
    0.000 999%   0.000 Lac                                                 
    0.000 999%   0.000 NAAG                                                
 7.97E-10  31%   0.000 NAA                                                 
    0.000 999%   0.000 PCh                                                 
    0.000 999%   0.000 PCr                                                 
    0.000 999%   0.000 PE                                                  
 6.49E-11 252%   0.000 Scyllo                                              
    0.000 999%   0.000 Ser                                                 
    0.000 999%   0.000 Tau                                                 
 1.39E-10  66%   0.000 GPC+PCh                                             
 7.97E-10  31%   0.000 NAA+NAAG                                            
 3.46E-10 120%   0.000 Ins+Glyc                                            
    0.000 999%   0.000 Cr+PCr                                              
    0.000 999%   0.000 Glu+Gln                                             
   6 lines in following misc. output table
  FWHM = 0.078 ppm    S/N =   3                                            
  Data shift = 0.335 ppm                                                   
  Ph:  78 deg       3.9 deg/ppm                                            
  alphaB,S = 2.8E-01,   2.7E+01                                            
   10 spline knots.   Ns = 5(1)                                            
  (11) 3 infls.   ( 9) 3 extrs.                                            
  363 points on ppm-axis = NY
      4.250000     4.238821     4.227641     4.216462     4.205282     4.194103     4.182923     4.171744     4.160564     4.149385
      4.138206     4.127026     4.115847     4.104667     4.093488     4.082308     4.071129     4.059949     4.048770     4.037591
      4.026411     4.015232     4.004052     3.992873     3.981693     3.970514     3.959334     3.948155     3.936975     3.925796
      3.914617     3.903437     3.892258     3.881078     3.869899     3.858719     3.847540     3.836360     3.825181     3.814002
      3.802822     3.791643     3.780463     3.769284     3.758104     3.746925     3.735745     3.724566     3.713387     3.702207
      3.691028     3.679848     3.668669     3.657489     3.646310     3.635130     3.623951     3.612772     3.601592     3.590413
      3.579233     3.568054     3.556874     3.545695     3.534515     3.523336     3.512156     3.500977     3.489798     3.478618
      3.467439     3.456259     3.445080     3.433900     3.422721     3.411541     3.400362     3.389183     3.378003     3.366824
      3.355644     3.344465     3.333285     3.322106     3.310926     3.299747     3.288568     3.277388     3.266209     3.255029
      3.243850     3.232670     3.221491     3.210311     3.199132     3.187953     3.176773     3.165594     3.154414     3.143235
      3.132055     3.120876     3.109696     3.098517     3.087337     3.076158     3.064979     3.053799     3.042620     3.031440
      3.020261     3.009081     2.997902     2.986722     2.975543     2.964364     2.953184     2.942005     2.930825     2.919646
      2.908466     2.897287     2.886107     2.874928     2.863749     2.852569     2.841390     2.830210     2.819031     2.807851
      2.796672     2.785492     2.774313     2.763134     2.751954     2.740775     2.729595     2.718416     2.707236     2.696057
      2.684877     2.673698     2.662519     2.651339     2.640160     2.628980     2.617801     2.606621     2.595442     2.584262
      2.573083     2.561903     2.550724     2.539545     2.528365     2.517186     2.506006     2.494827     2.483647     2.472468
      2.461288     2.450109     2.438930     2.427750     2.416571     2.405391     2.394212     2.383032     2.371853     2.360673
      2.349494     2.338315     2.327135     2.315956     2.304776     2.293597     2.282417     2.271238     2.260058     2.248879
      2.237700     2.226520     2.215341     2.204161     2.192982     2.181802     2.170623     2.159443     2.148264     2.137084
      2.125905     2.114726     2.103546     2.092367     2.081187     2.070008     2.058828     2.047649     2.036469     2.025290
      2.014111     2.002931     1.991752     1.980572     1.969393     1.958213     1.947034     1.935854     1.924675     1.913496
      1.902316     1.891137     1.879957     1.868778     1.857598     1.846419     1.835239     1.824060     1.812881     1.801701
      1.790522     1.779342     1.768163     1.756983     1.745804     1.734624     1.723445     1.712265     1.701086     1.689907
      1.678727     1.667548     1.656368     1.645189     1.634009     1.622830     1.611650     1.600471     1.589292     1.578112
      1.566933     1.555753     1.544574     1.533394     1.522215     1.511035     1.499856     1.488677     1.477497     1.466318
      1.455138     1.443959     1.432779     1.421600     1.410420     1.399241     1.388062     1.376882     1.365703     1.354523
      1.343344     1.332164     1.320985     1.309805     1.298626     1.287446     1.276267     1.265088     1.253908     1.242729
      1.231549     1.220370     1.209190     1.198011     1.186831     1.175652     1.164473     1.153293     1.142114     1.130934
      1.119755     1.108575     1.097396     1.086216     1.075037     1.063858     1.052678     1.041499     1.030319     1.019140
      1.007960     0.996781     0.985601     0.974422     0.963243     0.952063     0.940884     0.929704     0.918525     0.907345
      0.896166     0.884986     0.873807     0.862628     0.851448     0.840269     0.829089     0.817910     0.806730     0.795551
      0.784371     0.773192     0.762012     0.750833     0.739654     0.728474     0.717295     0.706115     0.694936     0.683756
      0.672577     0.661397     0.650218     0.639039     0.627859     0.616680     0.605500     0.594321     0.583141     0.571962
      0.560782     0.549603     0.538424     0.527244     0.516065     0.504885     0.493706     0.482526     0.471347     0.460167
      0.448988     0.437809     0.426629     0.415450     0.404270     0.393091     0.381911     0.370732     0.359552     0.348373
      0.337193     0.326014     0.314835     0.303655     0.292476     0.281296     0.270117     0.258937     0.247758     0.236578
      0.225399     0.214220     0.203040
 NY phased data points follow
   1.38604E-08  1.65474E-08  1.59073E-08  1.59083E-08  1.38308E-08  1.34316E-08  1.25238E-08  1.27526E-08  1.15057E-08  1.19345E-08
   1.17040E-08  1.28476E-08  1.19475E-08  1.29398E-08  1.22929E-08  1.39324E-08  1.32640E-08  1.37515E-08  1.29102E-08  1.29093E-08
   1.33222E-08  1.28544E-08  1.19250E-08  1.23435E-08  1.16655E-08  1.28068E-08  1.27215E-08  1.30774E-08  1.18170E-08  1.25969E-08
   1.15886E-08  1.26489E-08  1.27314E-08  1.46361E-08  1.46369E-08  1.49431E-08  1.39795E-08  1.30988E-08  1.24204E-08  1.24726E-08
   1.12466E-08  1.17609E-08  1.11606E-08  1.11826E-08  1.11953E-08  1.10151E-08  1.03825E-08  1.00688E-08  9.03297E-09  9.61991E-09
   9.13009E-09  9.55405E-09  8.97009E-09  9.10115E-09  8.49640E-09  9.32161E-09  8.35566E-09  8.33783E-09  7.03632E-09  8.39712E-09
   7.80000E-09  9.01388E-09  8.40855E-09  1.01458E-08  1.17910E-08  1.36713E-08  1.29709E-08  1.36956E-08  1.23319E-08  1.17810E-08
   1.09061E-08  1.09443E-08  9.81405E-09  9.85071E-09  8.47583E-09  8.18788E-09  7.40504E-09  7.52955E-09  7.00211E-09  9.14373E-09
   1.11278E-08  1.40006E-08  1.54347E-08  1.63111E-08  1.52119E-08  1.47139E-08  1.42196E-08  1.39988E-08  1.37613E-08  1.29414E-08
   1.29698E-08  1.32736E-08  1.21938E-08  1.26701E-08  1.17972E-08  1.16007E-08  1.02021E-08  1.08172E-08  9.41483E-09  9.84620E-09
   8.52893E-09  8.93717E-09  8.36265E-09  8.55383E-09  8.39157E-09  8.88509E-09  7.94377E-09  8.74674E-09  7.94318E-09  8.22508E-09
   7.30045E-09  6.84373E-09  6.14756E-09  6.86779E-09  6.16942E-09  6.67325E-09  6.56758E-09  6.62302E-09  6.79091E-09  6.94102E-09
   6.39390E-09  6.63015E-09  6.82248E-09  6.85864E-09  6.47774E-09  6.38368E-09  5.11754E-09  4.97706E-09  5.30312E-09  5.53522E-09
   5.44339E-09  5.99604E-09  6.11585E-09  6.31882E-09  6.11130E-09  6.93320E-09  6.91198E-09  7.17894E-09  6.18716E-09  7.19369E-09
   6.90192E-09  7.63904E-09  9.31919E-09  9.09554E-09  8.93809E-09  9.02011E-09  9.35565E-09  1.01727E-08  1.03539E-08  1.02182E-08
   1.03413E-08  1.08161E-08  1.02961E-08  1.08953E-08  1.03838E-08  9.82217E-09  9.74673E-09  1.03025E-08  1.00150E-08  1.02468E-08
   9.67067E-09  1.03875E-08  9.80960E-09  1.04790E-08  1.00076E-08  9.68473E-09  9.45891E-09  9.75050E-09  1.00047E-08  8.37707E-09
   8.63132E-09  1.01703E-08  1.44534E-08  1.80180E-08  1.92277E-08  1.95823E-08  1.86140E-08  1.79951E-08  1.77054E-08  1.57446E-08
   1.46715E-08  1.22859E-08  1.07193E-08  8.64547E-09  6.51468E-09  3.70438E-09  1.25451E-09 -2.19139E-09 -4.87795E-09 -7.99871E-09
  -1.02547E-08 -1.29574E-08 -1.50763E-08 -1.69669E-08 -1.76587E-08 -1.84069E-08 -1.80713E-08 -1.76722E-08 -1.69669E-08 -1.56174E-08
  -1.40398E-08 -1.18745E-08 -1.04575E-08 -8.62810E-09 -7.50114E-09 -6.56019E-09 -5.22608E-09 -5.07917E-09 -4.79909E-09 -4.72720E-09
  -3.92429E-09 -4.41439E-09 -3.48695E-09 -4.04833E-09 -3.37708E-09 -3.38543E-09 -3.10618E-09 -3.18511E-09 -3.35498E-09 -3.79312E-09
  -3.76003E-09 -3.74894E-09 -3.35430E-09 -3.40327E-09 -2.66044E-09 -2.98067E-09 -2.32375E-09 -2.52963E-09 -2.95475E-09 -2.98442E-09
  -3.23450E-09 -3.22566E-09 -2.93526E-09 -3.42955E-09 -3.09696E-09 -2.83224E-09 -2.44735E-09 -3.19000E-09 -2.33501E-09 -2.74533E-09
  -2.27172E-09 -2.77365E-09 -2.77206E-09 -2.99041E-09 -2.83782E-09 -3.00417E-09 -3.13183E-09 -3.19911E-09 -2.71090E-09 -3.28509E-09
  -2.80855E-09 -3.54855E-09 -2.51243E-09 -2.82254E-09 -2.49408E-09 -2.76979E-09 -2.44786E-09 -2.57838E-09 -2.57450E-09 -2.95338E-09
  -2.06194E-09 -2.56224E-09 -2.42574E-09 -2.21225E-09 -2.83627E-09 -3.28096E-09 -3.10312E-09 -3.23248E-09 -3.58497E-09 -3.84045E-09
  -3.09204E-09 -3.83866E-09 -2.95343E-09 -2.99007E-09 -2.33298E-09 -2.73723E-09 -2.24733E-09 -2.18907E-09 -1.22981E-09 -1.45761E-09
  -1.74642E-09 -2.07419E-09 -1.70511E-09 -2.59141E-09 -1.66063E-09 -2.17217E-09 -2.20826E-09 -2.65042E-09 -2.36191E-09 -2.34676E-09
  -2.57998E-09 -2.71325E-09 -2.79588E-09 -2.61545E-09 -2.71195E-09 -3.24619E-09 -3.24736E-09 -2.98408E-09 -2.61700E-09 -2.83731E-09
  -2.99808E-09 -3.23387E-09 -3.41836E-09 -3.05066E-09 -3.59711E-09 -3.35322E-09 -3.42730E-09 -3.60698E-09 -2.83132E-09 -3.04487E-09
  -3.22077E-09 -3.84735E-09 -3.42786E-09 -3.76193E-09 -3.34146E-09 -3.62245E-09 -3.98040E-09 -3.53115E-09 -3.27065E-09 -3.96088E-09
  -3.81299E-09 -3.81442E-09 -4.33781E-09 -3.95198E-09 -4.08417E-09 -3.78839E-09 -3.92269E-09 -4.31192E-09 -4.40605E-09 -4.14192E-09
  -4.31394E-09 -4.20015E-09 -4.08570E-09 -4.15957E-09 -4.40865E-09 -4.56806E-09 -4.21049E-09 -4.40169E-09 -3.82226E-09 -4.68893E-09
  -4.74287E-09 -5.09317E-09 -4.87668E-09 -4.60215E-09 -4.48125E-09 -5.17749E-09 -4.62313E-09 -5.07741E-09 -5.22332E-09 -5.54020E-09
  -4.76759E-09 -5.19622E-09 -5.56104E-09 -5.32641E-09 -5.48828E-09 -5.54315E-09 -5.40871E-09 -5.66843E-09 -5.55229E-09 -5.51418E-09
  -6.11342E-09 -5.58125E-09 -5.54657E-09
 NY points of the fit to the data follow
   1.51100E-08  1.47173E-08  1.45231E-08  1.43153E-08  1.40421E-08  1.34567E-08  1.27370E-08  1.21977E-08  1.18144E-08  1.17703E-08
   1.19616E-08  1.22339E-08  1.25983E-08  1.30439E-08  1.32932E-08  1.33323E-08  1.34350E-08  1.35959E-08  1.35827E-08  1.35997E-08
   1.36344E-08  1.34669E-08  1.30092E-08  1.25353E-08  1.17337E-08  1.10730E-08  1.11655E-08  1.15696E-08  1.21191E-08  1.28359E-08
   1.32157E-08  1.31888E-08  1.32395E-08  1.29891E-08  1.24361E-08  1.28778E-08  1.35263E-08  1.38485E-08  1.37882E-08  1.32668E-08
   1.25887E-08  1.21533E-08  1.13568E-08  1.00162E-08  9.58503E-09  9.62474E-09  8.94934E-09  8.59300E-09  9.04284E-09  9.67325E-09
   1.02990E-08  1.05934E-08  1.05003E-08  1.00105E-08  9.38913E-09  9.04606E-09  8.98804E-09  9.37527E-09  9.39975E-09  9.14661E-09
   9.24113E-09  9.63177E-09  1.03245E-08  1.08949E-08  1.15820E-08  1.25198E-08  1.29669E-08  1.32215E-08  1.36351E-08  1.39914E-08
   1.40459E-08  1.34983E-08  1.24371E-08  1.14498E-08  1.09367E-08  9.77144E-09  8.81457E-09  9.77948E-09  1.02387E-08  1.01350E-08
   1.06636E-08  1.14903E-08  1.24450E-08  1.35607E-08  1.42033E-08  1.40654E-08  1.33504E-08  1.19380E-08  1.04637E-08  1.05793E-08
   1.07395E-08  1.08810E-08  1.11439E-08  1.08391E-08  1.01266E-08  1.00415E-08  9.77113E-09  8.98102E-09  8.65048E-09  8.52322E-09
   8.28582E-09  8.13615E-09  8.08974E-09  8.13461E-09  8.20537E-09  8.27285E-09  8.33129E-09  8.37884E-09  8.39998E-09  8.36943E-09
   8.28954E-09  8.22176E-09  8.21025E-09  8.12193E-09  8.02073E-09  8.01017E-09  8.01920E-09  8.03235E-09  8.04545E-09  8.05691E-09
   8.06599E-09  8.07237E-09  8.07576E-09  8.07596E-09  8.07278E-09  8.06614E-09  8.05588E-09  8.04191E-09  8.02416E-09  8.00252E-09
   7.97688E-09  7.94719E-09  7.91337E-09  7.87530E-09  7.83292E-09  7.78614E-09  7.73487E-09  7.67900E-09  7.61848E-09  7.55324E-09
   7.48318E-09  7.40825E-09  7.32837E-09  7.24346E-09  7.15342E-09  7.05822E-09  6.95781E-09  6.85217E-09  6.74126E-09  6.62505E-09
   6.50351E-09  6.37669E-09  6.24466E-09  6.10747E-09  5.96534E-09  5.81845E-09  5.66730E-09  5.51262E-09  5.35567E-09  5.19807E-09
   5.04225E-09  4.89193E-09  4.75347E-09  4.63884E-09  4.57435E-09  4.63261E-09  5.10735E-09  7.24476E-09  9.28826E-09  1.04043E-08
   1.14243E-08  1.32700E-08  1.59992E-08  1.88724E-08  2.09972E-08  2.16012E-08  1.96728E-08  1.43443E-08  6.94655E-09  3.32505E-09
   2.05745E-09  1.36062E-09  8.73485E-10  4.85527E-10  1.52375E-10 -1.46868E-10 -4.23326E-10 -6.83314E-10 -9.30542E-10 -1.16739E-09
  -1.39537E-09 -1.61538E-09 -1.82808E-09 -2.03376E-09 -2.23270E-09 -2.42495E-09 -2.61053E-09 -2.78936E-09 -2.96139E-09 -3.12645E-09
  -3.28438E-09 -3.43503E-09 -3.57818E-09 -3.71366E-09 -3.84124E-09 -3.96071E-09 -4.07182E-09 -4.17440E-09 -4.26829E-09 -4.35373E-09
  -4.43095E-09 -4.50021E-09 -4.56176E-09 -4.61585E-09 -4.66272E-09 -4.70263E-09 -4.73580E-09 -4.76248E-09 -4.78293E-09 -4.79737E-09
  -4.80603E-09 -4.80917E-09 -4.80701E-09 -4.79980E-09 -4.78778E-09 -4.77116E-09 -4.75018E-09 -4.72510E-09 -4.69614E-09 -4.66351E-09
  -4.62744E-09 -4.58819E-09 -4.54596E-09 -4.50100E-09 -4.45351E-09 -4.40374E-09 -4.35190E-09 -4.29821E-09 -4.24289E-09 -4.18617E-09
  -4.12825E-09 -4.06936E-09 -4.00972E-09 -3.94953E-09 -3.88901E-09 -3.82836E-09 -3.76782E-09 -3.70757E-09 -3.64781E-09 -3.58875E-09
  -3.53060E-09 -3.47356E-09 -3.41783E-09 -3.36357E-09 -3.31104E-09 -3.26036E-09 -3.21178E-09 -3.16544E-09 -3.12156E-09 -3.08032E-09
  -3.04177E-09 -3.00588E-09 -2.97261E-09 -2.94190E-09 -2.91370E-09 -2.88798E-09 -2.86467E-09 -2.84373E-09 -2.82510E-09 -2.80874E-09
  -2.79461E-09 -2.78264E-09 -2.77281E-09 -2.76503E-09 -2.75927E-09 -2.75550E-09 -2.75365E-09 -2.75367E-09 -2.75550E-09 -2.75913E-09
  -2.76447E-09 -2.77151E-09 -2.78015E-09 -2.79038E-09 -2.80216E-09 -2.81541E-09 -2.83009E-09 -2.84617E-09 -2.86359E-09 -2.88230E-09
  -2.90226E-09 -2.92341E-09 -2.94570E-09 -2.96911E-09 -2.99357E-09 -3.01905E-09 -3.04548E-09 -3.07283E-09 -3.10105E-09 -3.13011E-09
  -3.15996E-09 -3.19051E-09 -3.22178E-09 -3.25368E-09 -3.28619E-09 -3.31927E-09 -3.35286E-09 -3.38691E-09 -3.42142E-09 -3.45628E-09
  -3.49151E-09 -3.52706E-09 -3.56286E-09 -3.59890E-09 -3.63514E-09 -3.67156E-09 -3.70813E-09 -3.74481E-09 -3.78157E-09 -3.81839E-09
  -3.85524E-09 -3.89208E-09 -3.92889E-09 -3.96563E-09 -4.00229E-09 -4.03882E-09 -4.07521E-09 -4.11142E-09 -4.14742E-09 -4.18319E-09
  -4.21871E-09 -4.25394E-09 -4.28886E-09 -4.32345E-09 -4.35766E-09 -4.39149E-09 -4.42491E-09 -4.45788E-09 -4.49039E-09 -4.52241E-09
  -4.55392E-09 -4.58489E-09 -4.61530E-09 -4.64513E-09 -4.67435E-09 -4.70295E-09 -4.73089E-09 -4.75816E-09 -4.78474E-09 -4.81061E-09
  -4.83574E-09 -4.86011E-09 -4.88372E-09 -4.90652E-09 -4.92851E-09 -4.94968E-09 -4.97000E-09 -4.98944E-09 -5.00800E-09 -5.02566E-09
  -5.04240E-09 -5.05820E-09 -5.07306E-09
 NY background values follow
     5.325E-09    5.348E-09    5.371E-09    5.394E-09    5.416E-09    5.438E-09    5.460E-09    5.482E-09    5.504E-09    5.525E-09
     5.547E-09    5.568E-09    5.589E-09    5.609E-09    5.630E-09    5.651E-09    5.671E-09    5.692E-09    5.712E-09    5.732E-09
     5.752E-09    5.772E-09    5.792E-09    5.812E-09    5.832E-09    5.852E-09    5.872E-09    5.892E-09    5.912E-09    5.932E-09
     5.952E-09    5.973E-09    5.993E-09    6.013E-09    6.034E-09    6.054E-09    6.075E-09    6.096E-09    6.117E-09    6.139E-09
     6.160E-09    6.182E-09    6.204E-09    6.226E-09    6.249E-09    6.272E-09    6.295E-09    6.318E-09    6.342E-09    6.366E-09
     6.390E-09    6.415E-09    6.440E-09    6.466E-09    6.492E-09    6.518E-09    6.545E-09    6.572E-09    6.599E-09    6.627E-09
     6.654E-09    6.682E-09    6.711E-09    6.739E-09    6.768E-09    6.797E-09    6.825E-09    6.854E-09    6.883E-09    6.913E-09
     6.942E-09    6.971E-09    7.000E-09    7.029E-09    7.058E-09    7.087E-09    7.116E-09    7.145E-09    7.173E-09    7.201E-09
     7.230E-09    7.257E-09    7.285E-09    7.312E-09    7.339E-09    7.366E-09    7.392E-09    7.418E-09    7.443E-09    7.468E-09
     7.492E-09    7.516E-09    7.539E-09    7.562E-09    7.584E-09    7.605E-09    7.626E-09    7.646E-09    7.665E-09    7.683E-09
     7.701E-09    7.718E-09    7.734E-09    7.749E-09    7.763E-09    7.777E-09    7.789E-09    7.800E-09    7.809E-09    7.818E-09
     7.825E-09    7.830E-09    7.833E-09    7.835E-09    7.835E-09    7.833E-09    7.829E-09    7.822E-09    7.813E-09    7.802E-09
     7.789E-09    7.772E-09    7.753E-09    7.732E-09    7.707E-09    7.679E-09    7.648E-09    7.614E-09    7.577E-09    7.536E-09
     7.491E-09    7.443E-09    7.391E-09    7.336E-09    7.276E-09    7.212E-09    7.144E-09    7.072E-09    6.995E-09    6.914E-09
     6.829E-09    6.738E-09    6.643E-09    6.543E-09    6.438E-09    6.328E-09    6.213E-09    6.093E-09    5.967E-09    5.836E-09
     5.699E-09    5.556E-09    5.408E-09    5.254E-09    5.094E-09    4.927E-09    4.755E-09    4.577E-09    4.393E-09    4.204E-09
     4.010E-09    3.811E-09    3.608E-09    3.400E-09    3.189E-09    2.974E-09    2.756E-09    2.535E-09    2.311E-09    2.084E-09
     1.856E-09    1.625E-09    1.394E-09    1.160E-09    9.264E-10    6.918E-10    4.568E-10    2.217E-10   -1.310E-11   -2.474E-10
    -4.808E-10   -7.131E-10   -9.440E-10   -1.173E-09   -1.400E-09   -1.625E-09   -1.848E-09   -2.067E-09   -2.283E-09   -2.496E-09
    -2.705E-09   -2.910E-09   -3.111E-09   -3.307E-09   -3.498E-09   -3.684E-09   -3.865E-09   -4.040E-09   -4.209E-09   -4.372E-09
    -4.528E-09   -4.677E-09   -4.819E-09   -4.954E-09   -5.082E-09   -5.201E-09   -5.312E-09   -5.415E-09   -5.510E-09   -5.596E-09
    -5.674E-09   -5.744E-09   -5.806E-09   -5.861E-09   -5.909E-09   -5.950E-09   -5.984E-09   -6.012E-09   -6.034E-09   -6.049E-09
    -6.059E-09   -6.063E-09   -6.062E-09   -6.056E-09   -6.045E-09   -6.029E-09   -6.009E-09   -5.985E-09   -5.957E-09   -5.925E-09
    -5.890E-09   -5.852E-09   -5.810E-09   -5.766E-09   -5.719E-09   -5.670E-09   -5.619E-09   -5.566E-09   -5.511E-09   -5.455E-09
    -5.397E-09   -5.339E-09   -5.280E-09   -5.220E-09   -5.159E-09   -5.099E-09   -5.039E-09   -4.979E-09   -4.919E-09   -4.860E-09
    -4.802E-09   -4.745E-09   -4.689E-09   -4.634E-09   -4.582E-09   -4.531E-09   -4.482E-09   -4.435E-09   -4.391E-09   -4.349E-09
    -4.310E-09   -4.274E-09   -4.240E-09   -4.209E-09   -4.180E-09   -4.153E-09   -4.129E-09   -4.107E-09   -4.088E-09   -4.071E-09
    -4.056E-09   -4.043E-09   -4.032E-09   -4.023E-09   -4.016E-09   -4.011E-09   -4.008E-09   -4.007E-09   -4.007E-09   -4.010E-09
    -4.014E-09   -4.019E-09   -4.026E-09   -4.035E-09   -4.045E-09   -4.057E-09   -4.070E-09   -4.084E-09   -4.100E-09   -4.117E-09
    -4.135E-09   -4.155E-09   -4.175E-09   -4.197E-09   -4.219E-09   -4.242E-09   -4.267E-09   -4.292E-09   -4.318E-09   -4.345E-09
    -4.373E-09   -4.401E-09   -4.430E-09   -4.460E-09   -4.490E-09   -4.521E-09   -4.552E-09   -4.583E-09   -4.615E-09   -4.648E-09
    -4.680E-09   -4.713E-09   -4.747E-09   -4.780E-09   -4.813E-09   -4.847E-09   -4.881E-09   -4.915E-09   -4.949E-09   -4.983E-09
    -5.017E-09   -5.050E-09   -5.084E-09   -5.118E-09   -5.152E-09   -5.185E-09   -5.218E-09   -5.251E-09   -5.284E-09   -5.317E-09
    -5.349E-09   -5.381E-09   -5.413E-09   -5.444E-09   -5.475E-09   -5.505E-09   -5.535E-09   -5.565E-09   -5.594E-09   -5.622E-09
    -5.650E-09   -5.678E-09   -5.704E-09   -5.731E-09   -5.756E-09   -5.781E-09   -5.805E-09   -5.829E-09   -5.852E-09   -5.874E-09
    -5.895E-09   -5.916E-09   -5.935E-09   -5.954E-09   -5.972E-09   -5.990E-09   -6.006E-09   -6.021E-09   -6.036E-09   -6.049E-09
    -6.062E-09   -6.074E-09   -6.085E-09
 Ala      Conc. = 1.27E-10
   5.43757E-09  5.46041E-09  5.48106E-09  5.50004E-09  5.51767E-09  5.53312E-09  5.53902E-09  5.54241E-09  5.56076E-09  5.57042E-09
   5.56750E-09  5.58343E-09  5.60266E-09  5.61446E-09  5.63152E-09  5.65194E-09  5.67323E-09  5.69470E-09  5.71617E-09  5.73753E-09
   5.75877E-09  5.77990E-09  5.80092E-09  5.82184E-09  5.84270E-09  5.86350E-09  5.88425E-09  5.90499E-09  5.92573E-09  5.94647E-09
   5.96723E-09  5.98807E-09  6.00895E-09  6.02992E-09  6.05098E-09  6.07217E-09  6.09348E-09  6.11492E-09  6.13654E-09  6.15836E-09
   6.18034E-09  6.20252E-09  6.22495E-09  6.24763E-09  6.27055E-09  6.29376E-09  6.31725E-09  6.34105E-09  6.36519E-09  6.38968E-09
   6.41450E-09  6.43970E-09  6.46529E-09  6.49128E-09  6.51767E-09  6.54441E-09  6.57149E-09  6.59890E-09  6.62662E-09  6.65462E-09
   6.68289E-09  6.71141E-09  6.74014E-09  6.76909E-09  6.79823E-09  6.82752E-09  6.85695E-09  6.88651E-09  6.91617E-09  6.94590E-09
   6.97569E-09  7.00552E-09  7.03536E-09  7.06519E-09  7.09499E-09  7.12474E-09  7.15442E-09  7.18402E-09  7.21349E-09  7.24284E-09
   7.27205E-09  7.30110E-09  7.32995E-09  7.35864E-09  7.38713E-09  7.41541E-09  7.44350E-09  7.47138E-09  7.49910E-09  7.52667E-09
   7.55413E-09  7.58159E-09  7.60911E-09  7.63691E-09  7.66525E-09  7.69456E-09  7.72564E-09  7.76004E-09  7.80132E-09  7.86010E-09
   7.93799E-09  7.98500E-09  8.03602E-09  8.12899E-09  8.22057E-09  8.29296E-09  8.34639E-09  8.38202E-09  8.38640E-09  8.33580E-09
   8.23383E-09  8.14346E-09  8.10899E-09  7.99744E-09  7.87279E-09  7.83853E-09  7.82369E-09  7.81336E-09  7.80338E-09  7.79220E-09
   7.77908E-09  7.76364E-09  7.74559E-09  7.72477E-09  7.70102E-09  7.67423E-09  7.64426E-09  7.61102E-09  7.57439E-09  7.53427E-09
   7.49055E-09  7.44315E-09  7.39195E-09  7.33685E-09  7.27776E-09  7.21456E-09  7.14717E-09  7.07548E-09  6.99940E-09  6.91882E-09
   6.83364E-09  6.74375E-09  6.64908E-09  6.54952E-09  6.44495E-09  6.33529E-09  6.22044E-09  6.10030E-09  5.97478E-09  5.84380E-09
   5.70722E-09  5.56498E-09  5.41701E-09  5.26315E-09  5.10337E-09  4.93753E-09  4.76566E-09  4.58789E-09  4.40456E-09  4.21595E-09
   4.02240E-09  3.82425E-09  3.62191E-09  3.41585E-09  3.20689E-09  2.99689E-09  2.79370E-09  2.61462E-09  2.42146E-09  2.21259E-09
   2.00535E-09  1.81193E-09  1.62900E-09  1.44303E-09  1.24086E-09  1.01074E-09  7.35953E-10  4.07449E-10  6.36667E-11 -2.01032E-10
  -4.45779E-10 -6.83776E-10 -9.18021E-10 -1.14936E-09 -1.37806E-09 -1.60399E-09 -1.82708E-09 -2.04714E-09 -2.26386E-09 -2.47704E-09
  -2.68641E-09 -2.89167E-09 -3.09262E-09 -3.28888E-09 -3.48027E-09 -3.66648E-09 -3.84724E-09 -4.02225E-09 -4.19129E-09 -4.35403E-09
  -4.51023E-09 -4.65962E-09 -4.80192E-09 -4.93688E-09 -5.06424E-09 -5.18372E-09 -5.29505E-09 -5.39802E-09 -5.49245E-09 -5.57854E-09
  -5.65651E-09 -5.72662E-09 -5.78907E-09 -5.84412E-09 -5.89200E-09 -5.93294E-09 -5.96717E-09 -5.99492E-09 -6.01645E-09 -6.03197E-09
  -6.04171E-09 -6.04592E-09 -6.04483E-09 -6.03866E-09 -6.02766E-09 -6.01205E-09 -5.99204E-09 -5.96790E-09 -5.93986E-09 -5.90811E-09
  -5.87290E-09 -5.83447E-09 -5.79301E-09 -5.74879E-09 -5.70200E-09 -5.65289E-09 -5.60167E-09 -5.54855E-09 -5.49377E-09 -5.43754E-09
  -5.38007E-09 -5.32159E-09 -5.26230E-09 -5.20243E-09 -5.14218E-09 -5.08176E-09 -5.02139E-09 -4.96127E-09 -4.90160E-09 -4.84257E-09
  -4.78442E-09 -4.72733E-09 -4.67149E-09 -4.61709E-09 -4.56436E-09 -4.51345E-09 -4.46458E-09 -4.41791E-09 -4.37365E-09 -4.33199E-09
  -4.29296E-09 -4.25656E-09 -4.22273E-09 -4.19141E-09 -4.16256E-09 -4.13614E-09 -4.11208E-09 -4.09036E-09 -4.07089E-09 -4.05366E-09
  -4.03861E-09 -4.02567E-09 -4.01483E-09 -4.00600E-09 -3.99914E-09 -3.99422E-09 -3.99118E-09 -3.98997E-09 -3.99054E-09 -3.99285E-09
  -3.99684E-09 -4.00247E-09 -4.00968E-09 -4.01842E-09 -4.02867E-09 -4.04037E-09 -4.05344E-09 -4.06786E-09 -4.08359E-09 -4.10058E-09
  -4.11877E-09 -4.13810E-09 -4.15855E-09 -4.18007E-09 -4.20260E-09 -4.22611E-09 -4.25054E-09 -4.27584E-09 -4.30198E-09 -4.32892E-09
  -4.35660E-09 -4.38496E-09 -4.41399E-09 -4.44362E-09 -4.47382E-09 -4.50455E-09 -4.53577E-09 -4.56739E-09 -4.59944E-09 -4.63182E-09
  -4.66452E-09 -4.69751E-09 -4.73071E-09 -4.76412E-09 -4.79769E-09 -4.83141E-09 -4.86524E-09 -4.89915E-09 -4.93311E-09 -4.96709E-09
  -5.00106E-09 -5.03500E-09 -5.06887E-09 -5.10264E-09 -5.13629E-09 -5.16979E-09 -5.20311E-09 -5.23622E-09 -5.26910E-09 -5.30171E-09
  -5.33403E-09 -5.36604E-09 -5.39770E-09 -5.42900E-09 -5.45990E-09 -5.49038E-09 -5.52042E-09 -5.54999E-09 -5.57907E-09 -5.60763E-09
  -5.63564E-09 -5.66309E-09 -5.68996E-09 -5.71621E-09 -5.74182E-09 -5.76678E-09 -5.79106E-09 -5.81465E-09 -5.83751E-09 -5.85963E-09
  -5.88099E-09 -5.90157E-09 -5.92135E-09 -5.94031E-09 -5.95843E-09 -5.97570E-09 -5.99209E-09 -6.00758E-09 -6.02217E-09 -6.03583E-09
  -6.04854E-09 -6.06030E-09 -6.07108E-09
 Asp      Conc. = 2.04E-09
   7.06959E-09  6.66241E-09  6.37314E-09  6.06447E-09  5.82007E-09  5.49550E-09  5.28797E-09  5.16854E-09  5.22876E-09  5.31193E-09
   5.39482E-09  5.47399E-09  5.54959E-09  5.62129E-09  5.68634E-09  5.74646E-09  5.80375E-09  5.85893E-09  5.91255E-09  5.96503E-09
   6.01677E-09  6.06813E-09  6.11943E-09  6.17104E-09  6.22331E-09  6.27663E-09  6.33141E-09  6.38814E-09  6.44743E-09  6.50997E-09
   6.57669E-09  6.64885E-09  6.72815E-09  6.81716E-09  6.92006E-09  7.04439E-09  7.20285E-09  7.34311E-09  7.49798E-09  7.61789E-09
   7.74223E-09  7.90767E-09  8.12997E-09  8.40383E-09  8.60773E-09  8.79633E-09  8.76360E-09  8.72034E-09  9.00900E-09  9.41576E-09
   9.81534E-09  9.93506E-09  9.69754E-09  9.08912E-09  8.28713E-09  7.67453E-09  7.26349E-09  7.36586E-09  7.20234E-09  6.82063E-09
   6.69912E-09  6.71654E-09  6.72547E-09  6.81632E-09  6.92565E-09  6.88564E-09  6.71592E-09  6.67221E-09  6.67653E-09  6.69943E-09
   6.73088E-09  6.76663E-09  6.80459E-09  6.84364E-09  6.88313E-09  6.92267E-09  6.96203E-09  7.00106E-09  7.03963E-09  7.07770E-09
   7.11522E-09  7.15215E-09  7.18844E-09  7.22412E-09  7.25915E-09  7.29349E-09  7.32715E-09  7.36011E-09  7.39235E-09  7.42387E-09
   7.45463E-09  7.48465E-09  7.51386E-09  7.54229E-09  7.56992E-09  7.59668E-09  7.62259E-09  7.64763E-09  7.67179E-09  7.69501E-09
   7.71732E-09  7.73862E-09  7.75895E-09  7.77828E-09  7.79654E-09  7.81372E-09  7.82970E-09  7.84440E-09  7.85771E-09  7.86955E-09
   7.87980E-09  7.88839E-09  7.89520E-09  7.90014E-09  7.90311E-09  7.90401E-09  7.90274E-09  7.89920E-09  7.89329E-09  7.88492E-09
   7.87396E-09  7.86035E-09  7.84395E-09  7.82468E-09  7.80243E-09  7.77711E-09  7.74860E-09  7.71682E-09  7.68164E-09  7.64299E-09
   7.60074E-09  7.55481E-09  7.50510E-09  7.45149E-09  7.39389E-09  7.33220E-09  7.26632E-09  7.19615E-09  7.12160E-09  7.04258E-09
   6.95896E-09  6.87066E-09  6.77760E-09  6.67968E-09  6.57678E-09  6.46884E-09  6.35577E-09  6.23747E-09  6.11387E-09  5.98491E-09
   5.85047E-09  5.71053E-09  5.56502E-09  5.41387E-09  5.25708E-09  5.09461E-09  4.92659E-09  4.75330E-09  4.57530E-09  4.39320E-09
   4.20784E-09  4.02033E-09  3.83249E-09  3.64743E-09  3.47171E-09  3.32259E-09  3.26617E-09  3.63420E-09  3.96236E-09  4.05517E-09
   4.12463E-09  4.39860E-09  4.88844E-09  5.40958E-09  5.74423E-09  5.70785E-09  5.05310E-09  3.56136E-09  1.54742E-09  5.12455E-10
   3.44669E-11 -3.07854E-10 -5.99414E-10 -8.66192E-10 -1.11854E-09 -1.36112E-09 -1.59639E-09 -1.82563E-09 -2.04944E-09 -2.26820E-09
  -2.48203E-09 -2.69090E-09 -2.89479E-09 -3.09349E-09 -3.28691E-09 -3.47480E-09 -3.65698E-09 -3.83319E-09 -4.00324E-09 -4.16685E-09
  -4.32378E-09 -4.47379E-09 -4.61662E-09 -4.75204E-09 -4.87977E-09 -4.99959E-09 -5.11118E-09 -5.21440E-09 -5.30902E-09 -5.39527E-09
  -5.47338E-09 -5.54360E-09 -5.60614E-09 -5.66127E-09 -5.70920E-09 -5.75019E-09 -5.78445E-09 -5.81223E-09 -5.83377E-09 -5.84931E-09
  -5.85905E-09 -5.86326E-09 -5.86217E-09 -5.85600E-09 -5.84499E-09 -5.82937E-09 -5.80935E-09 -5.78521E-09 -5.75716E-09 -5.72540E-09
  -5.69019E-09 -5.65175E-09 -5.61030E-09 -5.56608E-09 -5.51929E-09 -5.47019E-09 -5.41899E-09 -5.36588E-09 -5.31112E-09 -5.25491E-09
