 LCModel (Version 6.3-1R) Copyright: S.W. Provencher.          Ref.: Magn. Reson. Med. 30:672-679 (1993).                
 onepulse 23x7_ftSpec_smooth_lcm
 26 lines in following concentration table = NCONC+1
    Conc.  %SD   /Cr    Metabolite                                         
    0.000 999%   0.000 Ala                                                 
 1.00E-09  65%   0.000 Asp                                                 
    0.000 999%   0.000 Cr                                                  
 3.12E-10 176%   0.000 GABA                                                
    0.000 999%   0.000 Glc                                                 
 2.70E-09  23%   0.000 Gln                                                 
    0.000 999%   0.000 Glu                                                 
 2.42E-09  21%   0.000 Glyc                                                
    0.000 999%   0.000 GPC                                                 
 9.69E-10  52%   0.000 GSH                                                 
    0.000 999%   0.000 Ins                                                 
    0.000 999%   0.000 Lac                                                 
 4.41E-10  49%   0.000 NAAG                                                
    0.000 999%   0.000 NAA                                                 
    0.000 999%   0.000 PCh                                                 
    0.000 999%   0.000 PCr                                                 
 2.70E-09  30%   0.000 PE                                                  
 4.28E-10  74%   0.000 Scyllo                                              
    0.000 999%   0.000 Ser                                                 
    0.000 999%   0.000 Tau                                                 
    0.000 999%   0.000 GPC+PCh                                             
 4.41E-10  49%   0.000 NAA+NAAG                                            
 2.42E-09  21%   0.000 Ins+Glyc                                            
    0.000 999%   0.000 Cr+PCr                                              
 2.70E-09  23%   0.000 Glu+Gln                                             
   6 lines in following misc. output table
  FWHM = 0.123 ppm    S/N =   3                                            
  Data shift = 0.402 ppm                                                   
  Ph: -49 deg     -63.8 deg/ppm                                            
  alphaB,S = 4.7E-01,   1.4E+01                                            
   11 spline knots.   Ns = 5(1)                                            
  (10) 6 infls.   ( 9) 5 extrs.                                            
  363 points on ppm-axis = NY
      4.250000     4.238821     4.227641     4.216462     4.205282     4.194103     4.182923     4.171744     4.160564     4.149385
      4.138206     4.127026     4.115847     4.104667     4.093488     4.082308     4.071129     4.059949     4.048770     4.037591
      4.026411     4.015232     4.004052     3.992873     3.981693     3.970514     3.959334     3.948155     3.936975     3.925796
      3.914617     3.903437     3.892258     3.881078     3.869899     3.858719     3.847540     3.836360     3.825181     3.814002
      3.802822     3.791643     3.780463     3.769284     3.758104     3.746925     3.735745     3.724566     3.713387     3.702207
      3.691028     3.679848     3.668669     3.657489     3.646310     3.635130     3.623951     3.612772     3.601592     3.590413
      3.579233     3.568054     3.556874     3.545695     3.534515     3.523336     3.512156     3.500977     3.489798     3.478618
      3.467439     3.456259     3.445080     3.433900     3.422721     3.411541     3.400362     3.389183     3.378003     3.366824
      3.355644     3.344465     3.333285     3.322106     3.310926     3.299747     3.288568     3.277388     3.266209     3.255029
      3.243850     3.232670     3.221491     3.210311     3.199132     3.187953     3.176773     3.165594     3.154414     3.143235
      3.132055     3.120876     3.109696     3.098517     3.087337     3.076158     3.064979     3.053799     3.042620     3.031440
      3.020261     3.009081     2.997902     2.986722     2.975543     2.964364     2.953184     2.942005     2.930825     2.919646
      2.908466     2.897287     2.886107     2.874928     2.863749     2.852569     2.841390     2.830210     2.819031     2.807851
      2.796672     2.785492     2.774313     2.763134     2.751954     2.740775     2.729595     2.718416     2.707236     2.696057
      2.684877     2.673698     2.662519     2.651339     2.640160     2.628980     2.617801     2.606621     2.595442     2.584262
      2.573083     2.561903     2.550724     2.539545     2.528365     2.517186     2.506006     2.494827     2.483647     2.472468
      2.461288     2.450109     2.438930     2.427750     2.416571     2.405391     2.394212     2.383032     2.371853     2.360673
      2.349494     2.338315     2.327135     2.315956     2.304776     2.293597     2.282417     2.271238     2.260058     2.248879
      2.237700     2.226520     2.215341     2.204161     2.192982     2.181802     2.170623     2.159443     2.148264     2.137084
      2.125905     2.114726     2.103546     2.092367     2.081187     2.070008     2.058828     2.047649     2.036469     2.025290
      2.014111     2.002931     1.991752     1.980572     1.969393     1.958213     1.947034     1.935854     1.924675     1.913496
      1.902316     1.891137     1.879957     1.868778     1.857598     1.846419     1.835239     1.824060     1.812881     1.801701
      1.790522     1.779342     1.768163     1.756983     1.745804     1.734624     1.723445     1.712265     1.701086     1.689907
      1.678727     1.667548     1.656368     1.645189     1.634009     1.622830     1.611650     1.600471     1.589292     1.578112
      1.566933     1.555753     1.544574     1.533394     1.522215     1.511035     1.499856     1.488677     1.477497     1.466318
      1.455138     1.443959     1.432779     1.421600     1.410420     1.399241     1.388062     1.376882     1.365703     1.354523
      1.343344     1.332164     1.320985     1.309805     1.298626     1.287446     1.276267     1.265088     1.253908     1.242729
      1.231549     1.220370     1.209190     1.198011     1.186831     1.175652     1.164473     1.153293     1.142114     1.130934
      1.119755     1.108575     1.097396     1.086216     1.075037     1.063858     1.052678     1.041499     1.030319     1.019140
      1.007960     0.996781     0.985601     0.974422     0.963243     0.952063     0.940884     0.929704     0.918525     0.907345
      0.896166     0.884986     0.873807     0.862628     0.851448     0.840269     0.829089     0.817910     0.806730     0.795551
      0.784371     0.773192     0.762012     0.750833     0.739654     0.728474     0.717295     0.706115     0.694936     0.683756
      0.672577     0.661397     0.650218     0.639039     0.627859     0.616680     0.605500     0.594321     0.583141     0.571962
      0.560782     0.549603     0.538424     0.527244     0.516065     0.504885     0.493706     0.482526     0.471347     0.460167
      0.448988     0.437809     0.426629     0.415450     0.404270     0.393091     0.381911     0.370732     0.359552     0.348373
      0.337193     0.326014     0.314835     0.303655     0.292476     0.281296     0.270117     0.258937     0.247758     0.236578
      0.225399     0.214220     0.203040
 NY phased data points follow
   7.00506E-09  6.81830E-09  6.79595E-09  7.06701E-09  7.98954E-09  8.35977E-09  8.23565E-09  8.78677E-09  8.94370E-09  9.54603E-09
   8.83756E-09  8.83258E-09  8.12199E-09  8.22057E-09  8.66874E-09  7.63475E-09  7.75235E-09  7.93287E-09  8.16732E-09  8.82040E-09
   8.99459E-09  8.72164E-09  8.16393E-09  8.62750E-09  8.38819E-09  9.60718E-09  1.00161E-08  1.12938E-08  1.04822E-08  9.94360E-09
   8.73834E-09  7.73312E-09  7.60501E-09  7.11799E-09  6.63703E-09  6.92473E-09  6.65814E-09  6.69100E-09  6.99018E-09  6.33315E-09
   6.22146E-09  5.65249E-09  5.53634E-09  6.04447E-09  6.13204E-09  6.36034E-09  6.34716E-09  5.89137E-09  6.04456E-09  6.75404E-09
   6.05610E-09  5.80178E-09  5.53666E-09  7.25416E-09  7.03157E-09  8.34717E-09  8.34398E-09  1.06440E-08  1.22627E-08  1.32508E-08
   1.19470E-08  1.22235E-08  1.03295E-08  9.69416E-09  8.93955E-09  8.93032E-09  8.09665E-09  7.96647E-09  6.66781E-09  6.72517E-09
   6.61730E-09  7.09389E-09  7.04094E-09  9.80557E-09  1.20644E-08  1.51984E-08  1.59590E-08  1.61798E-08  1.47356E-08  1.40611E-08
   1.33762E-08  1.29646E-08  1.26205E-08  1.19054E-08  1.18564E-08  1.20839E-08  1.08172E-08  1.13603E-08  1.04140E-08  1.05301E-08
   8.79442E-09  9.88129E-09  8.25738E-09  8.75248E-09  7.46779E-09  8.08559E-09  7.55305E-09  8.07418E-09  7.71932E-09  8.29719E-09
   7.21209E-09  8.17422E-09  7.17210E-09  7.90368E-09  6.82081E-09  6.49960E-09  5.64514E-09  6.37636E-09  5.81144E-09  6.69552E-09
   6.12098E-09  6.55557E-09  6.82061E-09  7.17327E-09  6.46756E-09  7.03365E-09  7.18100E-09  7.21068E-09  6.60226E-09  6.89226E-09
   5.38300E-09  5.38141E-09  5.20114E-09  5.75563E-09  5.37815E-09  6.08898E-09  5.91477E-09  6.29301E-09  5.59625E-09  6.77866E-09
   6.41836E-09  6.96446E-09  5.70442E-09  6.76577E-09  6.37418E-09  6.96176E-09  8.58468E-09  8.89878E-09  8.59353E-09  8.75966E-09
   8.98092E-09  1.00375E-08  9.93459E-09  1.01187E-08  1.02535E-08  1.09396E-08  9.97159E-09  1.08638E-08  1.05603E-08  1.02023E-08
   9.64537E-09  1.04151E-08  1.01515E-08  1.04350E-08  9.62956E-09  1.03666E-08  9.88197E-09  1.04819E-08  1.02680E-08  9.77555E-09
   9.61134E-09  9.40665E-09  1.01344E-08  8.39968E-09  7.46732E-09  7.74402E-09  1.16075E-08  1.62180E-08  1.89737E-08  2.09071E-08
   2.15835E-08  2.14681E-08  2.27112E-08  2.21900E-08  2.21808E-08  2.13971E-08  2.07242E-08  2.03438E-08  1.92642E-08  1.82956E-08
   1.72830E-08  1.50980E-08  1.33133E-08  1.09430E-08  8.85998E-09  6.14232E-09  3.87782E-09  9.89427E-10 -1.14504E-09 -3.41346E-09
  -5.15485E-09 -6.20091E-09 -7.52245E-09 -8.65826E-09 -9.35030E-09 -8.88767E-09 -9.01383E-09 -8.29041E-09 -7.51822E-09 -7.21041E-09
  -5.69556E-09 -5.35777E-09 -4.54993E-09 -4.22821E-09 -3.08505E-09 -2.94607E-09 -2.02044E-09 -2.05467E-09 -1.72613E-09 -1.42872E-09
  -1.39968E-09 -1.33333E-09 -1.32269E-09 -1.70857E-09 -1.68964E-09 -1.62697E-09 -1.25401E-09 -1.38851E-09 -7.70981E-10 -1.06714E-09
  -7.80153E-10 -3.25444E-10 -8.54071E-10 -9.16060E-10 -1.05773E-09 -1.09681E-09 -6.12027E-10 -9.26041E-10 -9.42415E-10 -9.95406E-10
  -1.51475E-10 -7.69159E-10 -5.64697E-10 -5.78543E-10 -2.91418E-10 -5.54701E-10 -8.29385E-10 -7.24014E-10 -7.63332E-10 -5.06481E-10
  -6.90471E-10 -1.01815E-09 -5.17529E-10 -8.68846E-10 -6.29745E-10 -1.06173E-09 -8.30971E-10 -6.07861E-10 -5.83810E-10 -7.05202E-10
  -3.89500E-10 -1.65144E-10 -4.04878E-11 -6.86941E-10 -3.68865E-11  3.47274E-10 -5.47916E-11  2.27126E-11  3.20934E-10 -3.97979E-10
  -1.57501E-10 -4.59717E-10 -4.03304E-10 -1.32597E-09 -7.87188E-10 -1.55456E-09 -1.56066E-09 -1.68437E-09 -1.30838E-09 -1.36882E-09
  -1.49928E-09 -1.39007E-09 -8.86927E-10 -4.57950E-11  2.95953E-10  4.25188E-11  4.67156E-10  9.59255E-11  1.57900E-10  7.48992E-10
   8.23612E-10  6.69284E-10  4.49789E-10  7.23430E-10  8.85910E-10  7.83106E-10  1.07537E-09  7.14877E-10  1.27635E-09  1.00839E-09
   6.37891E-10  5.74875E-10  1.00254E-09  1.00488E-09  1.12876E-09  1.16153E-09  9.12047E-10  9.08209E-10  1.08263E-09  6.05703E-10
   1.20519E-09  4.66247E-10  9.40520E-10  8.98723E-10  1.54551E-09  1.18818E-09  1.11942E-09  9.50170E-10  1.02755E-09  1.25111E-09
   1.15139E-09  7.30145E-10  1.53091E-09  1.47866E-09  1.18003E-09  1.58351E-09  1.46432E-09  8.77093E-10  1.60538E-09  1.06339E-09
   1.71959E-09  1.47710E-09  1.47560E-09  1.00331E-09  1.45226E-09  1.13469E-09  1.63372E-09  1.33391E-09  1.99097E-09  1.21384E-09
   1.74168E-09  1.24959E-09  1.89458E-09  2.24087E-09  2.10469E-09  1.57616E-09  1.74132E-09  1.52146E-09  2.10913E-09  1.75654E-09
   1.75830E-09  2.25341E-09  2.39724E-09  1.96089E-09  1.70495E-09  2.40344E-09  2.24782E-09  2.07571E-09  2.26099E-09  2.00116E-09
   2.36705E-09  2.14679E-09  2.24249E-09  2.18129E-09  2.25375E-09  1.78007E-09  2.55202E-09  2.15090E-09  2.24943E-09  1.80188E-09
   2.22539E-09  2.18082E-09  2.15717E-09
 NY points of the fit to the data follow
   8.86270E-09  8.33359E-09  8.09382E-09  7.91508E-09  7.51369E-09  7.26823E-09  7.15135E-09  7.23578E-09  8.50582E-09  9.67215E-09
   9.06047E-09  8.82997E-09  8.61335E-09  8.23550E-09  8.15474E-09  8.04896E-09  8.21323E-09  9.28592E-09  1.06312E-08  8.97317E-09
   6.58630E-09  6.75764E-09  7.57021E-09  8.55390E-09  9.51435E-09  1.03087E-08  1.12531E-08  1.17365E-08  1.08501E-08  9.15329E-09
   8.82980E-09  8.57538E-09  7.94015E-09  7.41524E-09  7.10263E-09  6.52486E-09  6.36634E-09  6.09222E-09  6.15871E-09  6.17661E-09
   6.12000E-09  6.22305E-09  6.38267E-09  6.43515E-09  6.38045E-09  6.14416E-09  6.17814E-09  5.73216E-09  5.64790E-09  5.83606E-09
   6.25687E-09  6.73046E-09  7.12006E-09  7.61074E-09  8.42429E-09  9.14186E-09  9.37508E-09  1.02442E-08  1.12427E-08  1.15040E-08
   1.15528E-08  1.15188E-08  1.15235E-08  1.15953E-08  1.11009E-08  1.01788E-08  9.65622E-09  9.56085E-09  8.69539E-09  8.13367E-09
   8.43441E-09  8.95019E-09  9.39775E-09  9.88636E-09  1.07869E-08  1.20144E-08  1.31553E-08  1.40267E-08  1.45133E-08  1.47323E-08
   1.47210E-08  1.44740E-08  1.37444E-08  1.30621E-08  1.28374E-08  1.19859E-08  1.05337E-08  9.31416E-09  8.60642E-09  8.16814E-09
   7.86407E-09  7.67856E-09  7.60622E-09  7.50907E-09  7.35020E-09  7.31948E-09  7.27870E-09  7.18385E-09  7.15809E-09  7.12176E-09
   7.09181E-09  7.09322E-09  7.09636E-09  7.09928E-09  7.10991E-09  7.12600E-09  7.14506E-09  7.16627E-09  7.18812E-09  7.21041E-09
   7.23277E-09  7.25474E-09  7.27606E-09  7.29647E-09  7.31575E-09  7.33377E-09  7.35034E-09  7.36529E-09  7.37849E-09  7.38981E-09
   7.39913E-09  7.40638E-09  7.41144E-09  7.41421E-09  7.41463E-09  7.41260E-09  7.40805E-09  7.40090E-09  7.39109E-09  7.37855E-09
   7.36320E-09  7.34500E-09  7.32388E-09  7.29979E-09  7.27267E-09  7.24248E-09  7.20916E-09  7.17271E-09  7.13321E-09  7.09077E-09
   7.04548E-09  6.99744E-09  6.94678E-09  6.89359E-09  6.83802E-09  6.78020E-09  6.72030E-09  6.65847E-09  6.59493E-09  6.52988E-09
   6.46359E-09  6.39637E-09  6.32861E-09  6.26075E-09  6.19341E-09  6.12736E-09  6.06365E-09  6.00371E-09  5.94961E-09  5.90443E-09
   5.87306E-09  5.86353E-09  5.89042E-09  5.98287E-09  6.20863E-09  6.76651E-09  8.51560E-09  1.50184E-08  1.96345E-08  2.14518E-08
   2.19180E-08  2.21320E-08  2.24702E-08  2.21701E-08  2.15808E-08  2.14990E-08  2.19030E-08  1.92423E-08  9.57865E-09  5.80193E-09
   4.63390E-09  4.06579E-09  3.70900E-09  3.44802E-09  3.23775E-09  3.05729E-09  2.89577E-09  2.74698E-09  2.60724E-09  2.47417E-09
   2.34623E-09  2.22237E-09  2.10189E-09  1.98427E-09  1.86915E-09  1.75627E-09  1.64548E-09  1.53663E-09  1.42966E-09  1.32450E-09
   1.22113E-09  1.11954E-09  1.01973E-09  9.21716E-10  8.25526E-10  7.31179E-10  6.38720E-10  5.48192E-10  4.59636E-10  3.73108E-10
   2.88658E-10  2.06340E-10  1.26197E-10  4.82847E-11 -2.73044E-11 -1.00539E-10 -1.71353E-10 -2.39694E-10 -3.05483E-10 -3.68649E-10
  -4.29168E-10 -4.86932E-10 -5.41891E-10 -5.94004E-10 -6.43192E-10 -6.89346E-10 -7.32473E-10 -7.72484E-10 -8.09391E-10 -8.43273E-10
  -8.74198E-10 -9.02229E-10 -9.27437E-10 -9.49890E-10 -9.69649E-10 -9.86787E-10 -1.00137E-09 -1.01346E-09 -1.02313E-09 -1.03043E-09
  -1.03545E-09 -1.03825E-09 -1.03888E-09 -1.03743E-09 -1.03395E-09 -1.02850E-09 -1.02117E-09 -1.01201E-09 -1.00108E-09 -9.88466E-10
  -9.74218E-10 -9.58405E-10 -9.41100E-10 -9.22361E-10 -9.02259E-10 -8.80850E-10 -8.58217E-10 -8.34416E-10 -8.09509E-10 -7.83571E-10
  -7.56661E-10 -7.28848E-10 -7.00195E-10 -6.70778E-10 -6.40647E-10 -6.09879E-10 -5.78535E-10 -5.46688E-10 -5.14388E-10 -4.81719E-10
  -4.48734E-10 -4.15506E-10 -3.82098E-10 -3.48542E-10 -3.14852E-10 -2.81030E-10 -2.47090E-10 -2.13032E-10 -1.78863E-10 -1.44590E-10
  -1.10227E-10 -7.57679E-11 -4.12323E-11 -6.61987E-12  2.80605E-11  6.28073E-11  9.76046E-11  1.32453E-10  1.67343E-10  2.02266E-10
   2.37218E-10  2.72194E-10  3.07183E-10  3.42176E-10  3.77175E-10  4.12168E-10  4.47148E-10  4.82106E-10  5.17041E-10  5.51942E-10
   5.86805E-10  6.21622E-10  6.56388E-10  6.91093E-10  7.25732E-10  7.60296E-10  7.94787E-10  8.29183E-10  8.63496E-10  8.97698E-10
   9.31798E-10  9.65789E-10  9.99661E-10  1.03339E-09  1.06700E-09  1.10047E-09  1.13379E-09  1.16696E-09  1.19997E-09  1.23283E-09
   1.26553E-09  1.29809E-09  1.33050E-09  1.36278E-09  1.39491E-09  1.42691E-09  1.45879E-09  1.49053E-09  1.52215E-09  1.55366E-09
   1.58505E-09  1.61632E-09  1.64749E-09  1.67855E-09  1.70950E-09  1.74037E-09  1.77113E-09  1.80180E-09  1.83239E-09  1.86289E-09
   1.89331E-09  1.92365E-09  1.95392E-09  1.98411E-09  2.01425E-09  2.04431E-09  2.07431E-09  2.10426E-09  2.13416E-09  2.16400E-09
   2.19380E-09  2.22356E-09  2.25328E-09  2.28296E-09  2.31261E-09  2.34223E-09  2.37182E-09  2.40139E-09  2.43095E-09  2.46049E-09
   2.49002E-09  2.51954E-09  2.54906E-09
 NY background values follow
    -3.521E-09   -3.417E-09   -3.313E-09   -3.209E-09   -3.105E-09   -3.001E-09   -2.897E-09   -2.793E-09   -2.689E-09   -2.585E-09
    -2.481E-09   -2.377E-09   -2.273E-09   -2.169E-09   -2.065E-09   -1.962E-09   -1.858E-09   -1.755E-09   -1.651E-09   -1.548E-09
    -1.445E-09   -1.342E-09   -1.239E-09   -1.136E-09   -1.033E-09   -9.307E-10   -8.282E-10   -7.260E-10   -6.239E-10   -5.219E-10
    -4.201E-10   -3.185E-10   -2.171E-10   -1.159E-10   -1.482E-11    8.601E-11    1.866E-10    2.871E-10    3.873E-10    4.872E-10
     5.870E-10    6.864E-10    7.857E-10    8.847E-10    9.834E-10    1.082E-09    1.180E-09    1.278E-09    1.376E-09    1.473E-09
     1.570E-09    1.666E-09    1.763E-09    1.858E-09    1.954E-09    2.049E-09    2.143E-09    2.238E-09    2.331E-09    2.424E-09
     2.517E-09    2.609E-09    2.701E-09    2.792E-09    2.882E-09    2.972E-09    3.061E-09    3.150E-09    3.238E-09    3.325E-09
     3.412E-09    3.498E-09    3.583E-09    3.667E-09    3.751E-09    3.834E-09    3.916E-09    3.998E-09    4.079E-09    4.158E-09
     4.237E-09    4.315E-09    4.393E-09    4.469E-09    4.544E-09    4.619E-09    4.692E-09    4.765E-09    4.837E-09    4.907E-09
     4.977E-09    5.045E-09    5.113E-09    5.179E-09    5.244E-09    5.308E-09    5.371E-09    5.432E-09    5.492E-09    5.551E-09
     5.608E-09    5.663E-09    5.717E-09    5.769E-09    5.820E-09    5.869E-09    5.916E-09    5.961E-09    6.004E-09    6.045E-09
     6.084E-09    6.121E-09    6.156E-09    6.188E-09    6.219E-09    6.247E-09    6.273E-09    6.296E-09    6.317E-09    6.335E-09
     6.351E-09    6.364E-09    6.375E-09    6.383E-09    6.388E-09    6.390E-09    6.389E-09    6.385E-09    6.378E-09    6.369E-09
     6.356E-09    6.340E-09    6.321E-09    6.298E-09    6.272E-09    6.243E-09    6.210E-09    6.174E-09    6.135E-09    6.092E-09
     6.046E-09    5.997E-09    5.944E-09    5.889E-09    5.831E-09    5.770E-09    5.706E-09    5.640E-09    5.571E-09    5.499E-09
     5.425E-09    5.349E-09    5.270E-09    5.190E-09    5.107E-09    5.022E-09    4.935E-09    4.846E-09    4.755E-09    4.662E-09
     4.568E-09    4.472E-09    4.375E-09    4.276E-09    4.176E-09    4.075E-09    3.972E-09    3.869E-09    3.764E-09    3.658E-09
     3.552E-09    3.444E-09    3.336E-09    3.227E-09    3.118E-09    3.008E-09    2.897E-09    2.787E-09    2.676E-09    2.564E-09
     2.453E-09    2.342E-09    2.230E-09    2.119E-09    2.008E-09    1.897E-09    1.787E-09    1.677E-09    1.567E-09    1.458E-09
     1.349E-09    1.241E-09    1.134E-09    1.027E-09    9.218E-10    8.171E-10    7.134E-10    6.108E-10    5.092E-10    4.089E-10
     3.098E-10    2.121E-10    1.157E-10    2.083E-11   -7.252E-11   -1.643E-10   -2.544E-10   -3.427E-10   -4.292E-10   -5.139E-10
    -5.966E-10   -6.773E-10   -7.560E-10   -8.325E-10   -9.068E-10   -9.787E-10   -1.048E-09   -1.116E-09   -1.180E-09   -1.243E-09
    -1.302E-09   -1.359E-09   -1.413E-09   -1.464E-09   -1.513E-09   -1.558E-09   -1.601E-09   -1.640E-09   -1.676E-09   -1.709E-09
    -1.740E-09   -1.767E-09   -1.792E-09   -1.813E-09   -1.833E-09   -1.849E-09   -1.863E-09   -1.875E-09   -1.884E-09   -1.891E-09
    -1.895E-09   -1.898E-09   -1.898E-09   -1.896E-09   -1.892E-09   -1.886E-09   -1.878E-09   -1.869E-09   -1.857E-09   -1.844E-09
    -1.830E-09   -1.814E-09   -1.796E-09   -1.777E-09   -1.756E-09   -1.734E-09   -1.711E-09   -1.687E-09   -1.662E-09   -1.636E-09
    -1.608E-09   -1.580E-09   -1.551E-09   -1.521E-09   -1.491E-09   -1.460E-09   -1.428E-09   -1.396E-09   -1.363E-09   -1.330E-09
    -1.297E-09   -1.263E-09   -1.230E-09   -1.196E-09   -1.162E-09   -1.128E-09   -1.093E-09   -1.059E-09   -1.025E-09   -9.899E-10
    -9.552E-10   -9.205E-10   -8.856E-10   -8.507E-10   -8.157E-10   -7.806E-10   -7.455E-10   -7.103E-10   -6.751E-10   -6.399E-10
    -6.046E-10   -5.693E-10   -5.340E-10   -4.987E-10   -4.634E-10   -4.281E-10   -3.928E-10   -3.575E-10   -3.223E-10   -2.870E-10
    -2.519E-10   -2.167E-10   -1.816E-10   -1.466E-10   -1.116E-10   -7.677E-11   -4.195E-11   -7.236E-12    2.740E-11    6.192E-11
     9.634E-11    1.307E-10    1.649E-10    1.989E-10    2.328E-10    2.666E-10    3.003E-10    3.338E-10    3.671E-10    4.003E-10
     4.334E-10    4.662E-10    4.990E-10    5.316E-10    5.641E-10    5.964E-10    6.286E-10    6.607E-10    6.927E-10    7.245E-10
     7.563E-10    7.879E-10    8.194E-10    8.508E-10    8.821E-10    9.133E-10    9.444E-10    9.755E-10    1.006E-09    1.037E-09
     1.068E-09    1.099E-09    1.129E-09    1.160E-09    1.190E-09    1.221E-09    1.251E-09    1.282E-09    1.312E-09    1.342E-09
     1.372E-09    1.402E-09    1.432E-09    1.463E-09    1.493E-09    1.523E-09    1.553E-09    1.583E-09    1.613E-09    1.642E-09
     1.672E-09    1.702E-09    1.732E-09
 Asp      Conc. = 1.00E-09
  -2.39746E-09 -2.46058E-09 -2.46947E-09 -2.52131E-09 -2.47827E-09 -2.50455E-09 -2.51749E-09 -2.55840E-09 -2.51673E-09 -2.44595E-09
  -2.36234E-09 -2.27214E-09 -2.17751E-09 -2.07831E-09 -1.97782E-09 -1.87681E-09 -1.77511E-09 -1.67278E-09 -1.56993E-09 -1.46663E-09
  -1.36293E-09 -1.25887E-09 -1.15442E-09 -1.04959E-09 -9.44347E-10 -8.38606E-10 -7.32283E-10 -6.25240E-10 -5.17297E-10 -4.08143E-10
  -2.97377E-10 -1.84364E-10 -6.80354E-11  5.34436E-11  1.83816E-10  3.32222E-10  5.22222E-10  6.87115E-10  8.70025E-10  9.94982E-10
   1.09499E-09  1.20826E-09  1.38341E-09  1.66311E-09  1.98911E-09  2.39410E-09  2.57229E-09  2.59619E-09  2.79022E-09  2.92708E-09
   3.11042E-09  3.28932E-09  3.43282E-09  3.45686E-09  3.33346E-09  3.17353E-09  2.92554E-09  3.05547E-09  3.17540E-09  3.04381E-09
   3.03353E-09  3.08040E-09  3.06968E-09  3.11585E-09  3.24148E-09  3.34788E-09  3.34312E-09  3.37837E-09  3.43302E-09  3.49712E-09
   3.56648E-09  3.63901E-09  3.71350E-09  3.78919E-09  3.86561E-09  3.94240E-09  4.01931E-09  4.09613E-09  4.17274E-09  4.24900E-09
   4.32483E-09  4.40014E-09  4.47486E-09  4.54894E-09  4.62233E-09  4.69498E-09  4.76685E-09  4.83789E-09  4.90809E-09  4.97741E-09
   5.04581E-09  5.11327E-09  5.17975E-09  5.24518E-09  5.30951E-09  5.37267E-09  5.43460E-09  5.49525E-09  5.55455E-09  5.61246E-09
   5.66890E-09  5.72383E-09  5.77719E-09  5.82892E-09  5.87897E-09  5.92728E-09  5.97380E-09  6.01846E-09  6.06122E-09  6.10202E-09
   6.14081E-09  6.17752E-09  6.21211E-09  6.24452E-09  6.27469E-09  6.30257E-09  6.32812E-09  6.35126E-09  6.37195E-09  6.39014E-09
   6.40576E-09  6.41877E-09  6.42912E-09  6.43673E-09  6.44158E-09  6.44359E-09  6.44272E-09  6.43891E-09  6.43211E-09  6.42226E-09
   6.40931E-09  6.39322E-09  6.37392E-09  6.35136E-09  6.32548E-09  6.29625E-09  6.26359E-09  6.22751E-09  6.18807E-09  6.14536E-09
   6.09944E-09  6.05040E-09  5.99833E-09  5.94330E-09  5.88539E-09  5.82469E-09  5.76129E-09  5.69525E-09  5.62669E-09  5.55567E-09
   5.48232E-09  5.40669E-09  5.32892E-09  5.24911E-09  5.16737E-09  5.08385E-09  4.99872E-09  4.91217E-09  4.82445E-09  4.73591E-09
   4.64711E-09  4.55882E-09  4.47254E-09  4.39121E-09  4.32186E-09  4.28612E-09  4.38563E-09  4.93242E-09  5.22674E-09  5.27180E-09
   5.20957E-09  5.13393E-09  5.06828E-09  4.93620E-09  4.78544E-09  4.68990E-09  4.62430E-09  4.21723E-09  3.18191E-09  2.81396E-09
   2.62020E-09  2.47076E-09  2.33808E-09  2.21342E-09  2.09324E-09  1.97587E-09  1.86048E-09  1.74658E-09  1.63392E-09  1.52233E-09
   1.41177E-09  1.30216E-09  1.19355E-09  1.08591E-09  9.79291E-10  8.73716E-10  7.69246E-10  6.65919E-10  5.63795E-10  4.62921E-10
   3.63366E-10  2.65189E-10  1.68446E-10  7.32102E-11 -2.04613E-11 -1.12514E-10 -2.02872E-10 -2.91471E-10 -3.78248E-10 -4.63129E-10
  -5.46051E-10 -6.26947E-10 -7.05762E-10 -7.82430E-10 -8.56853E-10 -9.28989E-10 -9.98767E-10 -1.06613E-09 -1.13099E-09 -1.19327E-09
  -1.25295E-09 -1.30992E-09 -1.36411E-09 -1.41549E-09 -1.46398E-09 -1.50946E-09 -1.55194E-09 -1.59133E-09 -1.62763E-09 -1.66093E-09
  -1.69130E-09 -1.71878E-09 -1.74346E-09 -1.76540E-09 -1.78466E-09 -1.80131E-09 -1.81542E-09 -1.82704E-09 -1.83626E-09 -1.84312E-09
  -1.84771E-09 -1.85008E-09 -1.85030E-09 -1.84844E-09 -1.84456E-09 -1.83872E-09 -1.83100E-09 -1.82146E-09 -1.81016E-09 -1.79717E-09
  -1.78256E-09 -1.76639E-09 -1.74873E-09 -1.72964E-09 -1.70920E-09 -1.68744E-09 -1.66447E-09 -1.64034E-09 -1.61510E-09 -1.58883E-09
  -1.56159E-09 -1.53346E-09 -1.50448E-09 -1.47475E-09 -1.44430E-09 -1.41322E-09 -1.38156E-09 -1.34940E-09 -1.31679E-09 -1.28382E-09
  -1.25053E-09 -1.21700E-09 -1.18328E-09 -1.14943E-09 -1.11544E-09 -1.08132E-09 -1.04708E-09 -1.01272E-09 -9.78257E-10 -9.43688E-10
  -9.09030E-10 -8.74277E-10 -8.39447E-10 -8.04541E-10 -7.69568E-10 -7.34529E-10 -6.99439E-10 -6.64299E-10 -6.29117E-10 -5.93902E-10
  -5.58658E-10 -5.23391E-10 -4.88110E-10 -4.52824E-10 -4.17534E-10 -3.82247E-10 -3.46975E-10 -3.11724E-10 -2.76496E-10 -2.41301E-10
  -2.06145E-10 -1.71033E-10 -1.35972E-10 -1.00972E-10 -6.60371E-11 -3.11780E-11  3.60985E-12  3.83038E-11  7.29141E-11  1.07415E-10
   1.41814E-10  1.76105E-10  2.10278E-10  2.44312E-10  2.78223E-10  3.11998E-10  3.45619E-10  3.79103E-10  4.12419E-10  4.45582E-10
   4.78594E-10  5.11461E-10  5.44186E-10  5.76772E-10  6.09220E-10  6.41538E-10  6.73725E-10  7.05789E-10  7.37730E-10  7.69553E-10
   8.01263E-10  8.32861E-10  8.64350E-10  8.95737E-10  9.27021E-10  9.58211E-10  9.89305E-10  1.02031E-09  1.05123E-09  1.08206E-09
   1.11282E-09  1.14350E-09  1.17411E-09  1.20465E-09  1.23512E-09  1.26553E-09  1.29588E-09  1.32618E-09  1.35643E-09  1.38663E-09
   1.41678E-09  1.44690E-09  1.47697E-09  1.50701E-09  1.53703E-09  1.56701E-09  1.59698E-09  1.62692E-09  1.65685E-09  1.68676E-09
   1.71666E-09  1.74656E-09  1.77647E-09
 GABA     Conc. = 3.12E-10
  -3.48844E-09 -3.38393E-09 -3.27938E-09 -3.17481E-09 -3.07018E-09 -2.96554E-09 -2.86085E-09 -2.75614E-09 -2.65139E-09 -2.54660E-09
  -2.44176E-09 -2.33689E-09 -2.23195E-09 -2.12696E-09 -2.02185E-09 -1.91663E-09 -1.81133E-09 -1.70581E-09 -1.60003E-09 -1.49398E-09
  -1.38750E-09 -1.28042E-09 -1.17252E-09 -1.06346E-09 -9.52639E-10 -8.39192E-10 -7.21191E-10 -5.94640E-10 -4.48968E-10 -2.55215E-10
  -1.11760E-10  1.93397E-11  2.58190E-10  4.54755E-10  5.80223E-10  7.35229E-10  8.85198E-10  1.02130E-09  1.12099E-09  1.15966E-09
   1.15425E-09  1.27443E-09  1.33534E-09  1.22234E-09  1.26843E-09  1.37147E-09  1.36785E-09  1.41034E-09  1.48221E-09  1.56558E-09
   1.65472E-09  1.74706E-09  1.84147E-09  1.93754E-09  2.03508E-09  2.13402E-09  2.23472E-09  2.33783E-09  2.44470E-09  2.55833E-09
   2.68535E-09  2.84592E-09  3.02672E-09  3.14997E-09  3.31102E-09  3.51850E-09  3.64987E-09  3.75025E-09  3.85877E-09  3.96337E-09
   4.05418E-09  4.10215E-09  4.08855E-09  4.08937E-09  4.18257E-09  4.14847E-09  4.08527E-09  4.17182E-09  4.23368E-09  4.27923E-09
   4.37299E-09  4.44355E-09  4.53515E-09  4.68712E-09  4.79598E-09  4.89026E-09  5.02136E-09  5.13600E-09  5.24265E-09  5.34524E-09
   5.40295E-09  5.45720E-09  5.56929E-09  5.60214E-09  5.56691E-09  5.64553E-09  5.69079E-09  5.66207E-09  5.69369E-09  5.73368E-09
   5.75620E-09  5.78826E-09  5.82585E-09  5.86603E-09  5.90728E-09  5.94860E-09  5.98943E-09  6.02941E-09  6.06827E-09  6.10581E-09
   6.14185E-09  6.17616E-09  6.20865E-09  6.23919E-09  6.26771E-09  6.29415E-09  6.31843E-09  6.34044E-09  6.36011E-09  6.37736E-09
   6.39213E-09  6.40437E-09  6.41401E-09  6.42098E-09  6.42523E-09  6.42668E-09  6.42530E-09  6.42101E-09  6.41376E-09  6.40348E-09
   6.39013E-09  6.37365E-09  6.35398E-09  6.33107E-09  6.30486E-09  6.27530E-09  6.24233E-09  6.20593E-09  6.16617E-09  6.12314E-09
   6.07690E-09  6.02755E-09  5.97515E-09  5.91977E-09  5.86151E-09  5.80043E-09  5.73662E-09  5.67016E-09  5.60112E-09  5.52959E-09
   5.45565E-09  5.37938E-09  5.30086E-09  5.22019E-09  5.13744E-09  5.05273E-09  4.96616E-09  4.87783E-09  4.78788E-09  4.69647E-09
   4.60383E-09  4.51025E-09  4.41625E-09  4.32283E-09  4.23229E-09  4.15177E-09  4.11558E-09  4.21526E-09  4.23222E-09  4.17191E-09
   4.07877E-09  3.98151E-09  3.88643E-09  3.77009E-09  3.64824E-09  3.54371E-09  3.44613E-09  3.23725E-09  2.83934E-09  2.65236E-09
   2.51608E-09  2.39298E-09  2.27498E-09  2.15950E-09  2.04553E-09  1.93259E-09  1.82048E-09  1.70909E-09  1.59840E-09  1.48840E-09
   1.37912E-09  1.27058E-09  1.16286E-09  1.05598E-09  9.50000E-10  8.44980E-10  7.40992E-10  6.38085E-10  5.36331E-10  4.35785E-10
   3.36521E-10  2.38604E-10  1.42094E-10  4.70685E-11 -4.64130E-11 -1.38293E-10 -2.28494E-10 -3.16949E-10 -4.03595E-10 -4.88356E-10
  -5.71166E-10 -6.51959E-10 -7.30680E-10 -8.07260E-10 -8.81601E-10 -9.53661E-10 -1.02337E-09 -1.09066E-09 -1.15546E-09 -1.21769E-09
  -1.27731E-09 -1.33422E-09 -1.38837E-09 -1.43970E-09 -1.48815E-09 -1.53359E-09 -1.57603E-09 -1.61538E-09 -1.65165E-09 -1.68491E-09
  -1.71524E-09 -1.74270E-09 -1.76734E-09 -1.78925E-09 -1.80849E-09 -1.82511E-09 -1.83919E-09 -1.85080E-09 -1.85999E-09 -1.86683E-09
