 LCModel (Version 6.3-1R) Copyright: S.W. Provencher.          Ref.: Magn. Reson. Med. 30:672-679 (1993).                
 onepulse 23x8_ftSpec_smooth_lcm
 26 lines in following concentration table = NCONC+1
    Conc.  %SD /Cr+PCr  Metabolite                                         
    0.000 999%   0.000 Ala                                                 
    0.000 999%   0.000 Asp                                                 
    0.000 999%   0.000 Cr                                                  
    0.000 999%   0.000 GABA                                                
 2.53E-10 373%   1.239 Glc                                                 
 2.36E-09  30%  11.587 Gln                                                 
    0.000 999%   0.000 Glu                                                 
    0.000 999%   0.000 Glyc                                                
    0.000 999%   0.000 GPC                                                 
 4.91E-10  94%   2.404 GSH                                                 
 1.96E-09  29%   9.623 Ins                                                 
    0.000 999%   0.000 Lac                                                 
 3.76E-10  88%   1.844 NAAG                                                
 1.39E-10 337%   0.682 NAA                                                 
    0.000 999%   0.000 PCh                                                 
 2.04E-10 152%   1.000 PCr                                                 
 2.03E-09  31%   9.937 PE                                                  
 2.90E-10  83%   1.419 Scyllo                                              
 2.39E-09  40%  11.690 Ser                                                 
    0.000 999%   0.000 Tau                                                 
    0.000 999%   0.000 GPC+PCh                                             
 5.15E-10  57%   2.526 NAA+NAAG                                            
 1.96E-09  29%   9.623 Ins+Glyc                                            
 2.04E-10 152%   1.000 Cr+PCr                                              
 2.36E-09  30%  11.587 Glu+Gln                                             
   6 lines in following misc. output table
  FWHM = 0.123 ppm    S/N =   3                                            
  Data shift = 0.402 ppm                                                   
  Ph: -13 deg     -42.6 deg/ppm                                            
  alphaB,S = 4.1E-01,   2.7E+01                                            
   11 spline knots.   Ns = 5(1)                                            
  (10) 3 infls.   ( 9) 3 extrs.                                            
  363 points on ppm-axis = NY
      4.250000     4.238821     4.227641     4.216462     4.205282     4.194103     4.182923     4.171744     4.160564     4.149385
      4.138206     4.127026     4.115847     4.104667     4.093488     4.082308     4.071129     4.059949     4.048770     4.037591
      4.026411     4.015232     4.004052     3.992873     3.981693     3.970514     3.959334     3.948155     3.936975     3.925796
      3.914617     3.903437     3.892258     3.881078     3.869899     3.858719     3.847540     3.836360     3.825181     3.814002
      3.802822     3.791643     3.780463     3.769284     3.758104     3.746925     3.735745     3.724566     3.713387     3.702207
      3.691028     3.679848     3.668669     3.657489     3.646310     3.635130     3.623951     3.612772     3.601592     3.590413
      3.579233     3.568054     3.556874     3.545695     3.534515     3.523336     3.512156     3.500977     3.489798     3.478618
      3.467439     3.456259     3.445080     3.433900     3.422721     3.411541     3.400362     3.389183     3.378003     3.366824
      3.355644     3.344465     3.333285     3.322106     3.310926     3.299747     3.288568     3.277388     3.266209     3.255029
      3.243850     3.232670     3.221491     3.210311     3.199132     3.187953     3.176773     3.165594     3.154414     3.143235
      3.132055     3.120876     3.109696     3.098517     3.087337     3.076158     3.064979     3.053799     3.042620     3.031440
      3.020261     3.009081     2.997902     2.986722     2.975543     2.964364     2.953184     2.942005     2.930825     2.919646
      2.908466     2.897287     2.886107     2.874928     2.863749     2.852569     2.841390     2.830210     2.819031     2.807851
      2.796672     2.785492     2.774313     2.763134     2.751954     2.740775     2.729595     2.718416     2.707236     2.696057
      2.684877     2.673698     2.662519     2.651339     2.640160     2.628980     2.617801     2.606621     2.595442     2.584262
      2.573083     2.561903     2.550724     2.539545     2.528365     2.517186     2.506006     2.494827     2.483647     2.472468
      2.461288     2.450109     2.438930     2.427750     2.416571     2.405391     2.394212     2.383032     2.371853     2.360673
      2.349494     2.338315     2.327135     2.315956     2.304776     2.293597     2.282417     2.271238     2.260058     2.248879
      2.237700     2.226520     2.215341     2.204161     2.192982     2.181802     2.170623     2.159443     2.148264     2.137084
      2.125905     2.114726     2.103546     2.092367     2.081187     2.070008     2.058828     2.047649     2.036469     2.025290
      2.014111     2.002931     1.991752     1.980572     1.969393     1.958213     1.947034     1.935854     1.924675     1.913496
      1.902316     1.891137     1.879957     1.868778     1.857598     1.846419     1.835239     1.824060     1.812881     1.801701
      1.790522     1.779342     1.768163     1.756983     1.745804     1.734624     1.723445     1.712265     1.701086     1.689907
      1.678727     1.667548     1.656368     1.645189     1.634009     1.622830     1.611650     1.600471     1.589292     1.578112
      1.566933     1.555753     1.544574     1.533394     1.522215     1.511035     1.499856     1.488677     1.477497     1.466318
      1.455138     1.443959     1.432779     1.421600     1.410420     1.399241     1.388062     1.376882     1.365703     1.354523
      1.343344     1.332164     1.320985     1.309805     1.298626     1.287446     1.276267     1.265088     1.253908     1.242729
      1.231549     1.220370     1.209190     1.198011     1.186831     1.175652     1.164473     1.153293     1.142114     1.130934
      1.119755     1.108575     1.097396     1.086216     1.075037     1.063858     1.052678     1.041499     1.030319     1.019140
      1.007960     0.996781     0.985601     0.974422     0.963243     0.952063     0.940884     0.929704     0.918525     0.907345
      0.896166     0.884986     0.873807     0.862628     0.851448     0.840269     0.829089     0.817910     0.806730     0.795551
      0.784371     0.773192     0.762012     0.750833     0.739654     0.728474     0.717295     0.706115     0.694936     0.683756
      0.672577     0.661397     0.650218     0.639039     0.627859     0.616680     0.605500     0.594321     0.583141     0.571962
      0.560782     0.549603     0.538424     0.527244     0.516065     0.504885     0.493706     0.482526     0.471347     0.460167
      0.448988     0.437809     0.426629     0.415450     0.404270     0.393091     0.381911     0.370732     0.359552     0.348373
      0.337193     0.326014     0.314835     0.303655     0.292476     0.281296     0.270117     0.258937     0.247758     0.236578
      0.225399     0.214220     0.203040
 NY phased data points follow
   1.08423E-08  1.09339E-08  9.91611E-09  9.81990E-09  8.96080E-09  9.87331E-09  9.41287E-09  1.01206E-08  1.00825E-08  1.11060E-08
   1.11103E-08  1.16983E-08  1.13684E-08  1.11291E-08  1.12741E-08  1.15825E-08  1.04519E-08  1.10335E-08  1.02150E-08  1.09001E-08
   1.07089E-08  1.16884E-08  1.09453E-08  1.11884E-08  1.02602E-08  1.07927E-08  1.09874E-08  1.26041E-08  1.37398E-08  1.41735E-08
   1.42512E-08  1.36600E-08  1.31634E-08  1.29866E-08  1.20734E-08  1.18933E-08  1.13550E-08  1.12525E-08  1.11614E-08  1.12664E-08
   1.04428E-08  1.04146E-08  9.08132E-09  9.25766E-09  8.69182E-09  9.05369E-09  8.82224E-09  8.90991E-09  7.24999E-09  8.48112E-09
   7.56126E-09  7.43186E-09  5.19065E-09  6.37796E-09  5.71611E-09  6.33252E-09  5.58432E-09  6.85836E-09  8.61235E-09  1.16313E-08
   1.16284E-08  1.29401E-08  1.23642E-08  1.18131E-08  1.07476E-08  1.06843E-08  9.98652E-09  9.94322E-09  8.38226E-09  7.52997E-09
   6.39121E-09  6.48766E-09  4.61197E-09  5.45130E-09  6.63519E-09  1.03216E-08  1.28668E-08  1.47203E-08  1.49504E-08  1.49453E-08
   1.46319E-08  1.46738E-08  1.41613E-08  1.43090E-08  1.36159E-08  1.47350E-08  1.32172E-08  1.39417E-08  1.28399E-08  1.40576E-08
   1.18340E-08  1.27931E-08  1.16876E-08  1.16003E-08  1.05412E-08  1.05195E-08  1.00029E-08  1.04696E-08  9.95195E-09  1.05319E-08
   9.34259E-09  1.00879E-08  9.31294E-09  9.79783E-09  9.31560E-09  8.69714E-09  7.56757E-09  7.61131E-09  6.90489E-09  7.82544E-09
   7.13398E-09  7.21077E-09  7.65214E-09  8.28417E-09  7.51179E-09  7.90405E-09  8.10463E-09  8.39356E-09  7.53266E-09  8.10198E-09
   6.73151E-09  6.49456E-09  5.59963E-09  6.32150E-09  5.63970E-09  6.23300E-09  5.80859E-09  6.32297E-09  5.32073E-09  6.50737E-09
   5.91149E-09  6.52544E-09  5.18817E-09  5.95677E-09  5.65573E-09  6.03176E-09  7.42970E-09  8.12807E-09  7.97963E-09  8.02763E-09
   8.17210E-09  9.42874E-09  9.16874E-09  9.35117E-09  9.65405E-09  1.04346E-08  9.11838E-09  1.00646E-08  9.77698E-09  9.63675E-09
   8.86726E-09  9.62619E-09  9.23579E-09  9.46465E-09  8.56759E-09  9.17804E-09  8.62720E-09  9.35284E-09  8.83393E-09  8.47646E-09
   8.10830E-09  8.02453E-09  8.33761E-09  7.02222E-09  6.04217E-09  6.53119E-09  1.05144E-08  1.55396E-08  1.81193E-08  2.00082E-08
   2.03572E-08  1.99471E-08  2.06414E-08  2.01441E-08  1.95631E-08  1.88469E-08  1.78440E-08  1.77572E-08  1.58909E-08  1.55536E-08
   1.40559E-08  1.20901E-08  1.01574E-08  8.09840E-09  5.84972E-09  3.21035E-09  1.09913E-09 -1.71609E-09 -4.02988E-09 -6.21286E-09
  -7.89296E-09 -8.92621E-09 -1.03387E-08 -1.16777E-08 -1.24146E-08 -1.19827E-08 -1.24814E-08 -1.11999E-08 -1.09146E-08 -9.90176E-09
  -8.66057E-09 -7.98223E-09 -6.92186E-09 -5.73172E-09 -4.91508E-09 -4.09737E-09 -3.48071E-09 -3.29969E-09 -2.97858E-09 -2.68071E-09
  -3.01338E-09 -2.86467E-09 -3.20436E-09 -3.27468E-09 -3.08748E-09 -2.71395E-09 -2.64077E-09 -2.47927E-09 -2.11998E-09 -2.50018E-09
  -2.10192E-09 -1.93164E-09 -2.59125E-09 -2.41804E-09 -2.89836E-09 -2.19374E-09 -2.27761E-09 -2.22740E-09 -2.37765E-09 -1.99905E-09
  -1.66441E-09 -2.15303E-09 -2.04850E-09 -1.99955E-09 -2.11840E-09 -2.61508E-09 -2.58396E-09 -2.22978E-09 -2.34190E-09 -1.97098E-09
  -2.61719E-09 -2.11494E-09 -2.33089E-09 -2.07568E-09 -2.22857E-09 -1.95589E-09 -2.09582E-09 -1.74939E-09 -2.17971E-09 -1.78022E-09
  -1.61324E-09 -1.40908E-09 -2.06315E-09 -1.98971E-09 -1.36618E-09 -1.57037E-09 -2.38783E-09 -2.22049E-09 -2.39046E-09 -2.62010E-09
  -2.53505E-09 -2.87821E-09 -3.06965E-09 -3.16920E-09 -3.00861E-09 -3.38086E-09 -2.84697E-09 -2.71858E-09 -2.32422E-09 -2.38465E-09
  -2.10150E-09 -1.45310E-09 -9.03855E-10 -5.56912E-10 -1.03578E-09 -1.00344E-09 -1.08690E-09 -1.31762E-09 -1.24096E-09 -8.68096E-10
  -1.40457E-09 -1.68306E-09 -1.73673E-09 -1.38100E-09 -1.68379E-09 -1.50366E-09 -1.86779E-09 -2.02172E-09 -1.80536E-09 -2.55255E-09
  -2.40965E-09 -2.10925E-09 -2.26216E-09 -2.42191E-09 -2.42386E-09 -2.75552E-09 -2.97941E-09 -2.62240E-09 -3.08184E-09 -2.62174E-09
  -2.92472E-09 -3.10010E-09 -2.95162E-09 -2.92166E-09 -2.86510E-09 -3.33795E-09 -3.36208E-09 -3.27930E-09 -3.36229E-09 -3.25683E-09
  -3.42384E-09 -3.12320E-09 -3.08788E-09 -3.74040E-09 -3.64537E-09 -3.34491E-09 -4.18385E-09 -3.33272E-09 -3.66993E-09 -3.86177E-09
  -3.72901E-09 -3.99028E-09 -4.24986E-09 -4.01570E-09 -3.72326E-09 -3.86397E-09 -4.08128E-09 -3.88111E-09 -4.07646E-09 -4.12649E-09
  -3.94949E-09 -4.24604E-09 -3.70846E-09 -4.40421E-09 -4.84159E-09 -4.44113E-09 -4.17147E-09 -4.33190E-09 -4.37906E-09 -4.68777E-09
  -3.98324E-09 -4.33763E-09 -4.71174E-09 -4.97648E-09 -4.33698E-09 -4.52332E-09 -4.90496E-09 -4.76110E-09 -4.95716E-09 -4.57369E-09
  -5.05881E-09 -4.93717E-09 -5.02915E-09 -5.17951E-09 -5.00319E-09 -4.52528E-09 -4.95337E-09 -5.25768E-09 -5.07030E-09 -4.90836E-09
  -4.67893E-09 -5.10253E-09 -4.93153E-09
 NY points of the fit to the data follow
   1.08508E-08  1.14084E-08  1.08605E-08  1.00700E-08  9.65396E-09  1.00212E-08  1.00727E-08  9.58051E-09  9.55807E-09  1.03205E-08
   1.08000E-08  1.09930E-08  1.10295E-08  1.11275E-08  1.15388E-08  1.15905E-08  1.10094E-08  1.10880E-08  1.19468E-08  1.16626E-08
   1.05555E-08  9.84438E-09  9.99582E-09  1.03196E-08  1.07261E-08  1.13566E-08  1.24812E-08  1.36233E-08  1.40199E-08  1.34088E-08
   1.33354E-08  1.34463E-08  1.33679E-08  1.29588E-08  1.27709E-08  1.23093E-08  1.16836E-08  1.09701E-08  1.05575E-08  1.03126E-08
   1.01756E-08  1.00588E-08  9.77138E-09  9.30302E-09  8.92013E-09  8.44124E-09  8.11347E-09  7.72170E-09  7.31000E-09  7.04708E-09
   6.88381E-09  6.81333E-09  6.72033E-09  6.64725E-09  6.91622E-09  7.56174E-09  8.03191E-09  8.57677E-09  9.48361E-09  1.03090E-08
   1.07791E-08  1.11492E-08  1.14918E-08  1.18017E-08  1.17528E-08  1.12657E-08  1.08391E-08  1.06256E-08  9.90396E-09  9.09916E-09
   8.77112E-09  8.79096E-09  8.93222E-09  9.12527E-09  9.46479E-09  1.02047E-08  1.14104E-08  1.27920E-08  1.40139E-08  1.48915E-08
   1.54358E-08  1.56937E-08  1.55797E-08  1.54792E-08  1.55620E-08  1.52247E-08  1.43562E-08  1.32054E-08  1.21763E-08  1.14342E-08
   1.09307E-08  1.05558E-08  1.02639E-08  1.00306E-08  9.82776E-09  9.64850E-09  9.49764E-09  9.37045E-09  9.25407E-09  9.13746E-09
   9.03722E-09  8.95656E-09  8.88188E-09  8.80733E-09  8.73959E-09  8.67813E-09  8.62149E-09  8.56881E-09  8.51895E-09  8.47147E-09
   8.42591E-09  8.38184E-09  8.33888E-09  8.29668E-09  8.25491E-09  8.21330E-09  8.17160E-09  8.12955E-09  8.08693E-09  8.04354E-09
   7.99917E-09  7.95365E-09  7.90680E-09  7.85844E-09  7.80845E-09  7.75664E-09  7.70288E-09  7.64703E-09  7.58896E-09  7.52852E-09
   7.46560E-09  7.40008E-09  7.33184E-09  7.26075E-09  7.18671E-09  7.10963E-09  7.02936E-09  6.94588E-09  6.85925E-09  6.76955E-09
   6.67683E-09  6.58121E-09  6.48276E-09  6.38158E-09  6.27777E-09  6.17145E-09  6.06274E-09  5.95177E-09  5.83868E-09  5.72365E-09
   5.60686E-09  5.48854E-09  5.36895E-09  5.24842E-09  5.12736E-09  5.00633E-09  4.88606E-09  4.76755E-09  4.65230E-09  4.54258E-09
   4.44207E-09  4.35700E-09  4.29901E-09  4.29214E-09  4.39422E-09  4.78158E-09  6.25439E-09  1.23835E-08  1.80066E-08  2.07103E-08
   2.11991E-08  2.08194E-08  2.04293E-08  2.01921E-08  2.02313E-08  2.03588E-08  1.92930E-08  1.46982E-08  6.88984E-09  4.05171E-09
   3.03624E-09  2.48268E-09  2.10595E-09  1.81516E-09  1.57280E-09  1.36065E-09  1.16884E-09  9.91523E-10  8.25100E-10  6.67172E-10
   5.16153E-10  3.70886E-10  2.30607E-10  9.46935E-11 -3.72720E-11 -1.65619E-10 -2.90579E-10 -4.12345E-10 -5.31051E-10 -6.46809E-10
  -7.59687E-10 -8.69742E-10 -9.77019E-10 -1.08154E-09 -1.18331E-09 -1.28237E-09 -1.37870E-09 -1.47229E-09 -1.56314E-09 -1.65123E-09
  -1.73655E-09 -1.81907E-09 -1.89879E-09 -1.97569E-09 -2.04970E-09 -2.12085E-09 -2.18908E-09 -2.25439E-09 -2.31674E-09 -2.37609E-09
  -2.43245E-09 -2.48576E-09 -2.53600E-09 -2.58316E-09 -2.62722E-09 -2.66811E-09 -2.70586E-09 -2.74044E-09 -2.77190E-09 -2.80037E-09
  -2.82597E-09 -2.84882E-09 -2.86903E-09 -2.88672E-09 -2.90200E-09 -2.91499E-09 -2.92581E-09 -2.93456E-09 -2.94136E-09 -2.94632E-09
  -2.94956E-09 -2.95118E-09 -2.95130E-09 -2.95002E-09 -2.94746E-09 -2.94372E-09 -2.93891E-09 -2.93314E-09 -2.92651E-09 -2.91912E-09
  -2.91108E-09 -2.90250E-09 -2.89347E-09 -2.88410E-09 -2.87448E-09 -2.86471E-09 -2.85489E-09 -2.84512E-09 -2.83548E-09 -2.82608E-09
  -2.81701E-09 -2.80835E-09 -2.80020E-09 -2.79264E-09 -2.78576E-09 -2.77965E-09 -2.77439E-09 -2.77006E-09 -2.76674E-09 -2.76452E-09
  -2.76346E-09 -2.76364E-09 -2.76515E-09 -2.76798E-09 -2.77211E-09 -2.77750E-09 -2.78412E-09 -2.79191E-09 -2.80085E-09 -2.81089E-09
  -2.82200E-09 -2.83414E-09 -2.84727E-09 -2.86135E-09 -2.87635E-09 -2.89222E-09 -2.90894E-09 -2.92645E-09 -2.94472E-09 -2.96373E-09
  -2.98342E-09 -3.00375E-09 -3.02471E-09 -3.04624E-09 -3.06831E-09 -3.09088E-09 -3.11392E-09 -3.13739E-09 -3.16126E-09 -3.18548E-09
  -3.21003E-09 -3.23486E-09 -3.25995E-09 -3.28525E-09 -3.31073E-09 -3.33637E-09 -3.36212E-09 -3.38795E-09 -3.41382E-09 -3.43972E-09
  -3.46559E-09 -3.49141E-09 -3.51714E-09 -3.54277E-09 -3.56825E-09 -3.59354E-09 -3.61864E-09 -3.64347E-09 -3.66805E-09 -3.69234E-09
  -3.71631E-09 -3.73994E-09 -3.76319E-09 -3.78605E-09 -3.80850E-09 -3.83050E-09 -3.85204E-09 -3.87310E-09 -3.89364E-09 -3.91365E-09
  -3.93310E-09 -3.95198E-09 -3.97026E-09 -3.98792E-09 -4.00494E-09 -4.02130E-09 -4.03698E-09 -4.05196E-09 -4.06623E-09 -4.07975E-09
  -4.09252E-09 -4.10451E-09 -4.11571E-09 -4.12610E-09 -4.13566E-09 -4.14438E-09 -4.15224E-09 -4.15923E-09 -4.16533E-09 -4.17052E-09
  -4.17479E-09 -4.17813E-09 -4.18052E-09 -4.18196E-09 -4.18242E-09 -4.18189E-09 -4.18037E-09 -4.17785E-09 -4.17430E-09 -4.16973E-09
  -4.16412E-09 -4.15746E-09 -4.14974E-09
 NY background values follow
     1.727E-09    1.763E-09    1.799E-09    1.835E-09    1.871E-09    1.908E-09    1.945E-09    1.982E-09    2.020E-09    2.057E-09
     2.095E-09    2.133E-09    2.172E-09    2.211E-09    2.250E-09    2.289E-09    2.328E-09    2.368E-09    2.408E-09    2.448E-09
     2.488E-09    2.529E-09    2.569E-09    2.610E-09    2.651E-09    2.693E-09    2.734E-09    2.776E-09    2.818E-09    2.860E-09
     2.902E-09    2.945E-09    2.987E-09    3.030E-09    3.073E-09    3.116E-09    3.160E-09    3.203E-09    3.247E-09    3.290E-09
     3.334E-09    3.378E-09    3.422E-09    3.467E-09    3.511E-09    3.556E-09    3.600E-09    3.645E-09    3.690E-09    3.735E-09
     3.780E-09    3.825E-09    3.870E-09    3.915E-09    3.960E-09    4.005E-09    4.051E-09    4.096E-09    4.141E-09    4.187E-09
     4.232E-09    4.277E-09    4.322E-09    4.368E-09    4.413E-09    4.458E-09    4.503E-09    4.548E-09    4.592E-09    4.637E-09
     4.682E-09    4.726E-09    4.770E-09    4.815E-09    4.859E-09    4.902E-09    4.946E-09    4.989E-09    5.033E-09    5.076E-09
     5.119E-09    5.161E-09    5.203E-09    5.245E-09    5.287E-09    5.329E-09    5.370E-09    5.411E-09    5.451E-09    5.491E-09
     5.531E-09    5.571E-09    5.610E-09    5.649E-09    5.687E-09    5.724E-09    5.761E-09    5.797E-09    5.832E-09    5.867E-09
     5.900E-09    5.933E-09    5.964E-09    5.994E-09    6.023E-09    6.050E-09    6.076E-09    6.101E-09    6.124E-09    6.145E-09
     6.165E-09    6.182E-09    6.198E-09    6.212E-09    6.224E-09    6.234E-09    6.241E-09    6.247E-09    6.250E-09    6.250E-09
     6.248E-09    6.243E-09    6.236E-09    6.226E-09    6.213E-09    6.197E-09    6.178E-09    6.155E-09    6.130E-09    6.101E-09
     6.069E-09    6.034E-09    5.995E-09    5.953E-09    5.907E-09    5.857E-09    5.803E-09    5.745E-09    5.684E-09    5.619E-09
     5.550E-09    5.478E-09    5.402E-09    5.323E-09    5.241E-09    5.156E-09    5.067E-09    4.976E-09    4.882E-09    4.785E-09
     4.686E-09    4.584E-09    4.480E-09    4.373E-09    4.264E-09    4.154E-09    4.041E-09    3.926E-09    3.810E-09    3.692E-09
     3.572E-09    3.451E-09    3.329E-09    3.205E-09    3.081E-09    2.955E-09    2.829E-09    2.702E-09    2.574E-09    2.446E-09
     2.318E-09    2.189E-09    2.060E-09    1.931E-09    1.802E-09    1.674E-09    1.546E-09    1.418E-09    1.291E-09    1.164E-09
     1.038E-09    9.134E-10    7.896E-10    6.669E-10    5.454E-10    4.250E-10    3.059E-10    1.881E-10    7.167E-11   -4.334E-11
    -1.569E-10   -2.689E-10   -3.793E-10   -4.881E-10   -5.952E-10   -7.006E-10   -8.041E-10   -9.059E-10   -1.006E-09   -1.104E-09
    -1.200E-09   -1.294E-09   -1.385E-09   -1.475E-09   -1.563E-09   -1.648E-09   -1.731E-09   -1.812E-09   -1.890E-09   -1.966E-09
    -2.039E-09   -2.110E-09   -2.179E-09   -2.245E-09   -2.308E-09   -2.369E-09   -2.427E-09   -2.482E-09   -2.534E-09   -2.584E-09
    -2.631E-09   -2.675E-09   -2.716E-09   -2.754E-09   -2.789E-09   -2.821E-09   -2.851E-09   -2.877E-09   -2.900E-09   -2.920E-09
    -2.938E-09   -2.952E-09   -2.965E-09   -2.975E-09   -2.982E-09   -2.988E-09   -2.991E-09   -2.992E-09   -2.992E-09   -2.990E-09
    -2.986E-09   -2.980E-09   -2.973E-09   -2.965E-09   -2.956E-09   -2.945E-09   -2.934E-09   -2.921E-09   -2.908E-09   -2.894E-09
    -2.880E-09   -2.865E-09   -2.850E-09   -2.834E-09   -2.819E-09   -2.803E-09   -2.787E-09   -2.771E-09   -2.756E-09   -2.740E-09
    -2.726E-09   -2.711E-09   -2.697E-09   -2.684E-09   -2.672E-09   -2.660E-09   -2.649E-09   -2.640E-09   -2.631E-09   -2.623E-09
    -2.617E-09   -2.612E-09   -2.608E-09   -2.606E-09   -2.605E-09   -2.605E-09   -2.607E-09   -2.610E-09   -2.614E-09   -2.619E-09
    -2.625E-09   -2.633E-09   -2.641E-09   -2.650E-09   -2.661E-09   -2.672E-09   -2.684E-09   -2.697E-09   -2.711E-09   -2.725E-09
    -2.741E-09   -2.756E-09   -2.773E-09   -2.790E-09   -2.808E-09   -2.826E-09   -2.845E-09   -2.864E-09   -2.884E-09   -2.904E-09
    -2.925E-09   -2.945E-09   -2.966E-09   -2.988E-09   -3.009E-09   -3.031E-09   -3.053E-09   -3.075E-09   -3.097E-09   -3.119E-09
    -3.141E-09   -3.163E-09   -3.185E-09   -3.207E-09   -3.229E-09   -3.250E-09   -3.272E-09   -3.293E-09   -3.314E-09   -3.335E-09
    -3.355E-09   -3.375E-09   -3.395E-09   -3.414E-09   -3.433E-09   -3.452E-09   -3.470E-09   -3.488E-09   -3.505E-09   -3.522E-09
    -3.538E-09   -3.554E-09   -3.569E-09   -3.583E-09   -3.597E-09   -3.610E-09   -3.623E-09   -3.635E-09   -3.646E-09   -3.657E-09
    -3.666E-09   -3.675E-09   -3.684E-09   -3.691E-09   -3.698E-09   -3.703E-09   -3.708E-09   -3.713E-09   -3.716E-09   -3.718E-09
    -3.720E-09   -3.720E-09   -3.720E-09   -3.719E-09   -3.716E-09   -3.713E-09   -3.709E-09   -3.704E-09   -3.698E-09   -3.691E-09
    -3.682E-09   -3.673E-09   -3.663E-09
 Glc      Conc. = 2.53E-10
   1.71803E-09  1.82975E-09  1.91543E-09  2.00372E-09  2.09154E-09  2.18687E-09  2.25119E-09  2.31243E-09  2.33769E-09  2.31157E-09
   2.29679E-09  2.29691E-09  2.29992E-09  2.34509E-09  2.47594E-09  2.64444E-09  2.80259E-09  2.94380E-09  3.04881E-09  3.13350E-09
   3.23084E-09  3.32871E-09  3.41318E-09  3.50130E-09  3.53590E-09  3.48161E-09  3.43063E-09  3.41000E-09  3.41689E-09  3.44191E-09
   3.45838E-09  3.46800E-09  3.49150E-09  3.51338E-09  3.51788E-09  3.53124E-09  3.55397E-09  3.57012E-09  3.58477E-09  3.60512E-09
   3.62978E-09  3.65724E-09  3.68694E-09  3.71839E-09  3.75126E-09  3.78536E-09  3.82049E-09  3.85652E-09  3.89332E-09  3.93080E-09
   3.96888E-09  4.00750E-09  4.04659E-09  4.08610E-09  4.12599E-09  4.16622E-09  4.20674E-09  4.24754E-09  4.28857E-09  4.32980E-09
   4.37122E-09  4.41279E-09  4.45449E-09  4.49631E-09  4.53821E-09  4.58019E-09  4.62221E-09  4.66426E-09  4.70633E-09  4.74840E-09
   4.79044E-09  4.83246E-09  4.87441E-09  4.91629E-09  4.95809E-09  4.99980E-09  5.04138E-09  5.08285E-09  5.12416E-09  5.16531E-09
   5.20630E-09  5.24709E-09  5.28769E-09  5.32807E-09  5.36822E-09  5.40813E-09  5.44778E-09  5.48717E-09  5.52627E-09  5.56508E-09
   5.60357E-09  5.64174E-09  5.67955E-09  5.71692E-09  5.75379E-09  5.79009E-09  5.82574E-09  5.86067E-09  5.89480E-09  5.92807E-09
   5.96040E-09  5.99172E-09  6.02195E-09  6.05100E-09  6.07882E-09  6.10531E-09  6.13041E-09  6.15403E-09  6.17609E-09  6.19653E-09
   6.21524E-09  6.23217E-09  6.24722E-09  6.26032E-09  6.27139E-09  6.28033E-09  6.28710E-09  6.29158E-09  6.29369E-09  6.29337E-09
   6.29053E-09  6.28508E-09  6.27694E-09  6.26603E-09  6.25228E-09  6.23559E-09  6.21589E-09  6.19309E-09  6.16712E-09  6.13786E-09
   6.10528E-09  6.06927E-09  6.02975E-09  5.98665E-09  5.93987E-09  5.88936E-09  5.83501E-09  5.77680E-09  5.71481E-09  5.64915E-09
   5.57987E-09  5.50710E-09  5.43093E-09  5.35143E-09  5.26873E-09  5.18292E-09  5.09409E-09  5.00234E-09  4.90779E-09  4.81053E-09
   4.71068E-09  4.60833E-09  4.50360E-09  4.39659E-09  4.28742E-09  4.17622E-09  4.06310E-09  3.94820E-09  3.83165E-09  3.71360E-09
   3.59429E-09  3.47393E-09  3.35295E-09  3.23209E-09  3.11306E-09  3.00123E-09  2.92372E-09  2.95929E-09  2.96413E-09  2.89526E-09
   2.77683E-09  2.64138E-09  2.50739E-09  2.37755E-09  2.25470E-09  2.13186E-09  1.97326E-09  1.72370E-09  1.41342E-09  1.23614E-09
   1.09159E-09  9.57035E-10  8.27227E-10  7.00398E-10  5.75801E-10  4.53086E-10  3.32099E-10  2.12731E-10  9.49783E-11 -2.11867E-11
  -1.35727E-10 -2.48650E-10 -3.59882E-10 -4.69425E-10 -5.77222E-10 -6.83238E-10 -7.87418E-10 -8.89728E-10 -9.90116E-10 -1.08855E-09
  -1.18496E-09 -1.27932E-09 -1.37158E-09 -1.46169E-09 -1.54960E-09 -1.63529E-09 -1.71870E-09 -1.79977E-09 -1.87848E-09 -1.95478E-09
  -2.02862E-09 -2.09996E-09 -2.16877E-09 -2.23502E-09 -2.29863E-09 -2.35959E-09 -2.41785E-09 -2.47339E-09 -2.52616E-09 -2.57611E-09
  -2.62324E-09 -2.66748E-09 -2.70881E-09 -2.74722E-09 -2.78266E-09 -2.81506E-09 -2.84446E-09 -2.87081E-09 -2.89416E-09 -2.91465E-09
  -2.93237E-09 -2.94745E-09 -2.96000E-09 -2.97013E-09 -2.97795E-09 -2.98357E-09 -2.98711E-09 -2.98868E-09 -2.98838E-09 -2.98633E-09
  -2.98264E-09 -2.97741E-09 -2.97076E-09 -2.96279E-09 -2.95362E-09 -2.94333E-09 -2.93205E-09 -2.91988E-09 -2.90691E-09 -2.89326E-09
  -2.87902E-09 -2.86430E-09 -2.84920E-09 -2.83381E-09 -2.81824E-09 -2.80258E-09 -2.78692E-09 -2.77137E-09 -2.75602E-09 -2.74095E-09
  -2.72627E-09 -2.71205E-09 -2.69840E-09 -2.68539E-09 -2.67310E-09 -2.66164E-09 -2.65107E-09 -2.64149E-09 -2.63296E-09 -2.62557E-09
  -2.61940E-09 -2.61451E-09 -2.61099E-09 -2.60884E-09 -2.60803E-09 -2.60853E-09 -2.61029E-09 -2.61327E-09 -2.61744E-09 -2.62275E-09
  -2.62917E-09 -2.63666E-09 -2.64518E-09 -2.65469E-09 -2.66516E-09 -2.67653E-09 -2.68878E-09 -2.70187E-09 -2.71576E-09 -2.73041E-09
  -2.74579E-09 -2.76185E-09 -2.77855E-09 -2.79587E-09 -2.81377E-09 -2.83219E-09 -2.85112E-09 -2.87051E-09 -2.89033E-09 -2.91054E-09
  -2.93111E-09 -2.95199E-09 -2.97315E-09 -2.99457E-09 -3.01619E-09 -3.03800E-09 -3.05995E-09 -3.08201E-09 -3.10415E-09 -3.12633E-09
  -3.14852E-09 -3.17069E-09 -3.19280E-09 -3.21483E-09 -3.23674E-09 -3.25849E-09 -3.28006E-09 -3.30141E-09 -3.32253E-09 -3.34339E-09
  -3.36395E-09 -3.38419E-09 -3.40409E-09 -3.42362E-09 -3.44276E-09 -3.46149E-09 -3.47977E-09 -3.49760E-09 -3.51494E-09 -3.53176E-09
  -3.54806E-09 -3.56381E-09 -3.57898E-09 -3.59356E-09 -3.60752E-09 -3.62084E-09 -3.63351E-09 -3.64550E-09 -3.65679E-09 -3.66737E-09
  -3.67721E-09 -3.68630E-09 -3.69462E-09 -3.70216E-09 -3.70889E-09 -3.71480E-09 -3.71987E-09 -3.72408E-09 -3.72743E-09 -3.72990E-09
  -3.73147E-09 -3.73212E-09 -3.73185E-09 -3.73065E-09 -3.72849E-09 -3.72536E-09 -3.72127E-09 -3.71619E-09 -3.71010E-09 -3.70301E-09
  -3.69490E-09 -3.68577E-09 -3.67559E-09
 Gln      Conc. = 2.36E-09
   6.81787E-10  1.08700E-09  1.59788E-09  2.15040E-09  2.66727E-09  3.13571E-09  3.53193E-09  3.79995E-09  3.92512E-09  4.19060E-09
   4.18690E-09  3.91095E-09  3.83832E-09  3.51424E-09  3.26402E-09  3.09770E-09  2.98165E-09  2.89743E-09  2.83502E-09  2.78838E-09
   2.75354E-09  2.72774E-09  2.70885E-09  2.69538E-09  2.68660E-09  2.68213E-09  2.68052E-09  2.68149E-09  2.68490E-09  2.68997E-09
   2.69634E-09  2.70374E-09  2.71190E-09  2.72061E-09  2.72964E-09  2.73880E-09  2.74786E-09  2.75662E-09  2.76478E-09  2.77220E-09
   2.77872E-09  2.78409E-09  2.78831E-09  2.79113E-09  2.79194E-09  2.79070E-09  2.78706E-09  2.77934E-09  2.76918E-09  2.75856E-09
   2.74440E-09  2.73054E-09  2.72828E-09  2.77168E-09  3.03635E-09  3.65259E-09  4.10946E-09  4.61958E-09  5.51172E-09  6.39948E-09
   7.00386E-09  7.56915E-09  8.09274E-09  8.49647E-09  8.63474E-09  8.39048E-09  8.06758E-09  7.98157E-09  7.41665E-09  6.66725E-09
   6.24487E-09  6.15608E-09  6.17997E-09  6.25704E-09  6.56794E-09  7.19314E-09  7.74670E-09  8.28280E-09  8.80577E-09  9.26185E-09
   9.67062E-09  9.95621E-09  9.86782E-09  9.77639E-09  9.76866E-09  9.34252E-09  8.87971E-09  8.65381E-09  8.27968E-09  7.94786E-09
   7.71611E-09  7.54654E-09  7.41993E-09  7.32304E-09  7.24484E-09  7.18192E-09  7.13161E-09  7.09057E-09  7.05727E-09  7.03063E-09
   7.00903E-09  6.99113E-09  6.97625E-09  6.96383E-09  6.95353E-09  6.94490E-09  6.93738E-09  6.93060E-09  6.92427E-09  6.91810E-09
   6.91184E-09  6.90525E-09  6.89812E-09  6.89026E-09  6.88147E-09  6.87159E-09  6.86046E-09  6.84792E-09  6.83381E-09  6.81800E-09
   6.80037E-09  6.78076E-09  6.75907E-09  6.73516E-09  6.70893E-09  6.68025E-09  6.64902E-09  6.61512E-09  6.57845E-09  6.53889E-09
   6.49636E-09  6.45074E-09  6.40195E-09  6.34987E-09  6.29442E-09  6.23551E-09  6.17302E-09  6.10694E-09  6.03732E-09  5.96425E-09
   5.88781E-09  5.80810E-09  5.72520E-09  5.63919E-09  5.55018E-09  5.45827E-09  5.36355E-09  5.26614E-09  5.16613E-09  5.06366E-09
   4.95884E-09  4.85178E-09  4.74265E-09  4.63160E-09  4.51879E-09  4.40445E-09  4.28882E-09  4.17222E-09  4.05507E-09  3.93796E-09
   3.82185E-09  3.70818E-09  3.59966E-09  3.50172E-09  3.42717E-09  3.41430E-09  3.63218E-09  4.90250E-09  6.07962E-09  6.60005E-09
   6.61493E-09  6.42861E-09  6.23789E-09  6.08116E-09  5.98676E-09  5.91615E-09  5.58696E-09  4.46921E-09  2.60120E-09  1.84558E-09
   1.51593E-09  1.29343E-09  1.11211E-09  9.51150E-10  8.02032E-10  6.60655E-10  5.24836E-10  3.93279E-10  2.65236E-10  1.40192E-10
   1.78528E-11 -1.02026E-10 -2.19540E-10 -3.34818E-10 -4.47900E-10 -5.58825E-10 -6.67594E-10 -7.74221E-10 -8.78689E-10 -9.80996E-10
  -1.08111E-09 -1.17900E-09 -1.27465E-09 -1.36803E-09 -1.45909E-09 -1.54782E-09 -1.63417E-09 -1.71811E-09 -1.79960E-09 -1.87860E-09
  -1.95507E-09 -2.02898E-09 -2.10031E-09 -2.16901E-09 -2.23502E-09 -2.29832E-09 -2.35889E-09 -2.41669E-09 -2.47167E-09 -2.52379E-09
  -2.57306E-09 -2.61940E-09 -2.66279E-09 -2.70323E-09 -2.74066E-09 -2.77503E-09 -2.80636E-09 -2.83461E-09 -2.85984E-09 -2.88218E-09
  -2.90172E-09 -2.91860E-09 -2.93292E-09 -2.94480E-09 -2.95435E-09 -2.96167E-09 -2.96690E-09 -2.97012E-09 -2.97147E-09 -2.97104E-09
