 LCModel (Version 6.3-1R) Copyright: S.W. Provencher.          Ref.: Magn. Reson. Med. 30:672-679 (1993).                
 onepulse 23x9_ftSpec_smooth_lcm
 26 lines in following concentration table = NCONC+1
    Conc.  %SD   /Cr    Metabolite                                         
    0.000 999%   0.000 Ala                                                 
    0.000 999%   0.000 Asp                                                 
    0.000 999%   0.000 Cr                                                  
 1.53E-10 364%   0.000 GABA                                                
    0.000 999%   0.000 Glc                                                 
 1.52E-09  41%   0.000 Gln                                                 
    0.000 999%   0.000 Glu                                                 
 2.86E-09  16%   0.000 Glyc                                                
    0.000 999%   0.000 GPC                                                 
 1.90E-09  23%   0.000 GSH                                                 
    0.000 999%   0.000 Ins                                                 
    0.000 999%   0.000 Lac                                                 
 5.18E-10  56%   0.000 NAAG                                                
 4.60E-11 984%   0.000 NAA                                                 
    0.000 999%   0.000 PCh                                                 
    0.000 999%   0.000 PCr                                                 
 4.02E-09  22%   0.000 PE                                                  
 9.49E-11 251%   0.000 Scyllo                                              
    0.000 999%   0.000 Ser                                                 
 4.44E-10 201%   0.000 Tau                                                 
    0.000 999%   0.000 GPC+PCh                                             
 5.64E-10  53%   0.000 NAA+NAAG                                            
 2.86E-09  16%   0.000 Ins+Glyc                                            
    0.000 999%   0.000 Cr+PCr                                              
 1.52E-09  41%   0.000 Glu+Gln                                             
   6 lines in following misc. output table
  FWHM = 0.123 ppm    S/N =   4                                            
  Data shift = 0.436 ppm                                                   
  Ph:  24 deg     -32.0 deg/ppm                                            
  alphaB,S = 4.6E-01,   1.1E+01                                            
   10 spline knots.   Ns = 5(1)                                            
  (10) 6 infls.   ( 9) 5 extrs.                                            
  363 points on ppm-axis = NY
      4.250000     4.238821     4.227641     4.216462     4.205282     4.194103     4.182923     4.171744     4.160564     4.149385
      4.138206     4.127026     4.115847     4.104667     4.093488     4.082308     4.071129     4.059949     4.048770     4.037591
      4.026411     4.015232     4.004052     3.992873     3.981693     3.970514     3.959334     3.948155     3.936975     3.925796
      3.914617     3.903437     3.892258     3.881078     3.869899     3.858719     3.847540     3.836360     3.825181     3.814002
      3.802822     3.791643     3.780463     3.769284     3.758104     3.746925     3.735745     3.724566     3.713387     3.702207
      3.691028     3.679848     3.668669     3.657489     3.646310     3.635130     3.623951     3.612772     3.601592     3.590413
      3.579233     3.568054     3.556874     3.545695     3.534515     3.523336     3.512156     3.500977     3.489798     3.478618
      3.467439     3.456259     3.445080     3.433900     3.422721     3.411541     3.400362     3.389183     3.378003     3.366824
      3.355644     3.344465     3.333285     3.322106     3.310926     3.299747     3.288568     3.277388     3.266209     3.255029
      3.243850     3.232670     3.221491     3.210311     3.199132     3.187953     3.176773     3.165594     3.154414     3.143235
      3.132055     3.120876     3.109696     3.098517     3.087337     3.076158     3.064979     3.053799     3.042620     3.031440
      3.020261     3.009081     2.997902     2.986722     2.975543     2.964364     2.953184     2.942005     2.930825     2.919646
      2.908466     2.897287     2.886107     2.874928     2.863749     2.852569     2.841390     2.830210     2.819031     2.807851
      2.796672     2.785492     2.774313     2.763134     2.751954     2.740775     2.729595     2.718416     2.707236     2.696057
      2.684877     2.673698     2.662519     2.651339     2.640160     2.628980     2.617801     2.606621     2.595442     2.584262
      2.573083     2.561903     2.550724     2.539545     2.528365     2.517186     2.506006     2.494827     2.483647     2.472468
      2.461288     2.450109     2.438930     2.427750     2.416571     2.405391     2.394212     2.383032     2.371853     2.360673
      2.349494     2.338315     2.327135     2.315956     2.304776     2.293597     2.282417     2.271238     2.260058     2.248879
      2.237700     2.226520     2.215341     2.204161     2.192982     2.181802     2.170623     2.159443     2.148264     2.137084
      2.125905     2.114726     2.103546     2.092367     2.081187     2.070008     2.058828     2.047649     2.036469     2.025290
      2.014111     2.002931     1.991752     1.980572     1.969393     1.958213     1.947034     1.935854     1.924675     1.913496
      1.902316     1.891137     1.879957     1.868778     1.857598     1.846419     1.835239     1.824060     1.812881     1.801701
      1.790522     1.779342     1.768163     1.756983     1.745804     1.734624     1.723445     1.712265     1.701086     1.689907
      1.678727     1.667548     1.656368     1.645189     1.634009     1.622830     1.611650     1.600471     1.589292     1.578112
      1.566933     1.555753     1.544574     1.533394     1.522215     1.511035     1.499856     1.488677     1.477497     1.466318
      1.455138     1.443959     1.432779     1.421600     1.410420     1.399241     1.388062     1.376882     1.365703     1.354523
      1.343344     1.332164     1.320985     1.309805     1.298626     1.287446     1.276267     1.265088     1.253908     1.242729
      1.231549     1.220370     1.209190     1.198011     1.186831     1.175652     1.164473     1.153293     1.142114     1.130934
      1.119755     1.108575     1.097396     1.086216     1.075037     1.063858     1.052678     1.041499     1.030319     1.019140
      1.007960     0.996781     0.985601     0.974422     0.963243     0.952063     0.940884     0.929704     0.918525     0.907345
      0.896166     0.884986     0.873807     0.862628     0.851448     0.840269     0.829089     0.817910     0.806730     0.795551
      0.784371     0.773192     0.762012     0.750833     0.739654     0.728474     0.717295     0.706115     0.694936     0.683756
      0.672577     0.661397     0.650218     0.639039     0.627859     0.616680     0.605500     0.594321     0.583141     0.571962
      0.560782     0.549603     0.538424     0.527244     0.516065     0.504885     0.493706     0.482526     0.471347     0.460167
      0.448988     0.437809     0.426629     0.415450     0.404270     0.393091     0.381911     0.370732     0.359552     0.348373
      0.337193     0.326014     0.314835     0.303655     0.292476     0.281296     0.270117     0.258937     0.247758     0.236578
      0.225399     0.214220     0.203040
 NY phased data points follow
   1.23929E-08  1.22506E-08  1.25379E-08  1.28703E-08  1.33257E-08  1.37467E-08  1.40205E-08  1.40415E-08  1.41770E-08  1.35915E-08
   1.33159E-08  1.35878E-08  1.28495E-08  1.26903E-08  1.29428E-08  1.25561E-08  1.31107E-08  1.30279E-08  1.34309E-08  1.30324E-08
   1.27833E-08  1.23786E-08  1.30091E-08  1.38659E-08  1.51752E-08  1.56604E-08  1.53197E-08  1.49820E-08  1.37991E-08  1.34622E-08
   1.25202E-08  1.20458E-08  1.14483E-08  1.12207E-08  1.09892E-08  1.10950E-08  1.06218E-08  1.01438E-08  9.61059E-09  8.89984E-09
   8.76737E-09  8.80053E-09  8.79685E-09  9.14468E-09  8.44931E-09  7.56455E-09  8.43988E-09  7.72023E-09  7.14621E-09  5.70081E-09
   7.19504E-09  6.95701E-09  7.62375E-09  7.45277E-09  9.44453E-09  1.16997E-08  1.40780E-08  1.36835E-08  1.43216E-08  1.31664E-08
   1.22861E-08  1.09547E-08  1.05987E-08  1.01648E-08  9.69554E-09  8.44088E-09  7.57937E-09  6.90937E-09  7.14892E-09  5.90071E-09
   7.35399E-09  9.24185E-09  1.32371E-08  1.54133E-08  1.63955E-08  1.60501E-08  1.58061E-08  1.52732E-08  1.50762E-08  1.42145E-08
   1.42778E-08  1.38771E-08  1.43825E-08  1.29699E-08  1.33193E-08  1.22873E-08  1.35153E-08  1.12146E-08  1.20848E-08  1.10395E-08
   1.09085E-08  9.92973E-09  9.88243E-09  9.42751E-09  1.00581E-08  9.58816E-09  9.92467E-09  8.81119E-09  9.54179E-09  8.94207E-09
   9.19370E-09  8.73759E-09  7.93964E-09  7.09631E-09  6.93748E-09  6.28549E-09  7.51184E-09  6.76254E-09  6.92893E-09  7.48010E-09
   8.25242E-09  7.43333E-09  7.81504E-09  7.88069E-09  8.30443E-09  7.33887E-09  7.75287E-09  6.68389E-09  6.55482E-09  5.23924E-09
   6.28648E-09  5.49254E-09  6.06527E-09  5.48690E-09  6.15657E-09  5.28586E-09  6.43416E-09  5.50289E-09  6.24962E-09  4.84451E-09
   5.57447E-09  5.17427E-09  5.82888E-09  6.88442E-09  7.61348E-09  7.60121E-09  7.54904E-09  7.55951E-09  8.92851E-09  8.56202E-09
   8.67601E-09  9.06741E-09  9.81236E-09  8.43250E-09  9.29290E-09  8.91819E-09  8.99690E-09  8.23164E-09  8.83451E-09  8.41516E-09
   8.53308E-09  7.76878E-09  8.14984E-09  7.57475E-09  8.40738E-09  7.80524E-09  7.50588E-09  6.99180E-09  6.90529E-09  6.81993E-09
   5.93319E-09  4.81219E-09  4.69572E-09  7.82676E-09  1.34609E-08  1.65311E-08  1.86360E-08  1.95388E-08  1.92773E-08  1.99708E-08
   2.02594E-08  1.98995E-08  1.97808E-08  1.92116E-08  1.99635E-08  1.84327E-08  1.87299E-08  1.80817E-08  1.69445E-08  1.57387E-08
   1.44681E-08  1.30137E-08  1.09812E-08  9.43541E-09  7.17925E-09  4.68804E-09  2.42614E-09  4.44719E-10 -1.18506E-09 -2.89763E-09
  -4.82259E-09 -6.63553E-09 -7.29233E-09 -8.72157E-09 -8.36404E-09 -8.99207E-09 -8.86010E-09 -8.23632E-09 -8.01119E-09 -7.19956E-09
  -5.81915E-09 -5.36322E-09 -4.38056E-09 -3.63557E-09 -3.17192E-09 -2.61504E-09 -1.99547E-09 -2.20752E-09 -1.84884E-09 -2.13053E-09
  -2.38549E-09 -2.14807E-09 -2.10347E-09 -2.01490E-09 -2.02248E-09 -1.49036E-09 -1.71218E-09 -1.42903E-09 -9.29181E-10 -1.35301E-09
  -1.23759E-09 -2.07681E-09 -1.57460E-09 -1.52839E-09 -1.55724E-09 -1.44830E-09 -1.59655E-09 -9.28930E-10 -1.23834E-09 -1.01435E-09
  -9.80743E-10 -1.12351E-09 -1.60473E-09 -1.72216E-09 -1.35881E-09 -1.58328E-09 -1.31772E-09 -1.90478E-09 -1.37910E-09 -1.75852E-09
  -1.40850E-09 -1.57316E-09 -1.05554E-09 -1.39304E-09 -1.21778E-09 -1.39894E-09 -1.31573E-09 -8.91199E-10 -7.30242E-10 -9.25254E-10
  -1.37390E-09 -5.91202E-10 -5.47201E-10 -7.93156E-10 -1.55474E-09 -1.09473E-09 -1.55229E-09 -1.31430E-09 -1.91275E-09 -1.91928E-09
  -2.21985E-09 -2.21557E-09 -2.75147E-09 -2.46486E-09 -2.40580E-09 -2.32005E-09 -2.34294E-09 -2.28842E-09 -1.87301E-09 -1.10705E-09
  -6.55789E-10 -7.75375E-10 -7.25839E-10 -3.15829E-10 -4.79162E-10 -6.48516E-10 -3.18758E-10 -1.33122E-10 -7.39921E-10 -6.65570E-10
  -6.25390E-10 -3.82107E-10 -4.58163E-10 -2.54377E-10 -9.06655E-10 -2.02944E-10 -9.43286E-10 -9.23238E-10 -7.64285E-10 -7.39644E-10
  -9.93990E-10 -6.66430E-10 -1.02479E-09 -1.42155E-09 -1.11721E-09 -1.33234E-09 -1.15229E-09 -9.12607E-10 -1.47864E-09 -1.37494E-09
  -1.61819E-09 -1.26898E-09 -1.55364E-09 -1.64168E-09 -1.50554E-09 -1.76458E-09 -1.90806E-09 -1.51247E-09 -1.67445E-09 -1.20328E-09
  -1.69349E-09 -2.17888E-09 -1.67964E-09 -2.13734E-09 -1.85250E-09 -1.49329E-09 -2.12290E-09 -1.90158E-09 -2.04521E-09 -2.18858E-09
  -2.61956E-09 -1.90140E-09 -2.10383E-09 -2.30794E-09 -2.41762E-09 -2.18682E-09 -2.43618E-09 -2.01802E-09 -2.52867E-09 -2.19696E-09
  -2.08007E-09 -2.92517E-09 -2.84663E-09 -2.30481E-09 -2.52800E-09 -2.40499E-09 -2.94186E-09 -2.45351E-09 -2.36332E-09 -2.57330E-09
  -2.95685E-09 -2.72337E-09 -2.44900E-09 -2.72788E-09 -2.83979E-09 -3.06186E-09 -2.64746E-09 -2.86150E-09 -3.15270E-09 -2.78412E-09
  -3.52085E-09 -3.45454E-09 -3.06891E-09 -2.69953E-09 -3.22484E-09 -3.23900E-09 -3.44256E-09 -2.94826E-09 -3.22969E-09 -3.18285E-09
  -3.30310E-09 -3.37580E-09 -3.48138E-09
 NY points of the fit to the data follow
   1.45931E-08  1.37482E-08  1.36111E-08  1.26762E-08  1.23541E-08  1.21946E-08  1.20543E-08  1.29564E-08  1.43456E-08  1.51243E-08
   1.42024E-08  1.28556E-08  1.21945E-08  1.23007E-08  1.26439E-08  1.27643E-08  1.29377E-08  1.34234E-08  1.49388E-08  1.54917E-08
   1.19301E-08  1.14148E-08  1.23716E-08  1.36548E-08  1.42658E-08  1.49547E-08  1.50210E-08  1.47035E-08  1.43794E-08  1.42321E-08
   1.40579E-08  1.28451E-08  1.20844E-08  1.16222E-08  1.09883E-08  1.00787E-08  9.74660E-09  9.68816E-09  9.41887E-09  9.35370E-09
   9.36526E-09  9.39205E-09  9.62006E-09  9.58831E-09  8.69425E-09  7.97587E-09  8.04563E-09  7.06649E-09  6.91612E-09  7.26714E-09
   7.99207E-09  8.33812E-09  8.58759E-09  9.80790E-09  1.06939E-08  1.06458E-08  1.11409E-08  1.20627E-08  1.22889E-08  1.20092E-08
   1.20045E-08  1.14954E-08  1.13816E-08  1.14471E-08  1.04154E-08  9.77056E-09  1.00734E-08  9.85137E-09  9.26367E-09  9.79443E-09
   1.03938E-08  1.08041E-08  1.18160E-08  1.21142E-08  1.29356E-08  1.44088E-08  1.55752E-08  1.56703E-08  1.56873E-08  1.56649E-08
   1.50377E-08  1.48366E-08  1.42886E-08  1.31756E-08  1.29859E-08  1.25130E-08  1.12985E-08  9.71323E-09  8.94949E-09  8.60959E-09
   8.35306E-09  8.21157E-09  8.15882E-09  8.09976E-09  7.98456E-09  7.95434E-09  7.92179E-09  7.86399E-09  7.85709E-09  7.81380E-09
   7.78340E-09  7.78811E-09  7.78785E-09  7.77983E-09  7.77789E-09  7.78000E-09  7.78375E-09  7.78879E-09  7.79331E-09  7.79741E-09
   7.80084E-09  7.80333E-09  7.80471E-09  7.80479E-09  7.80343E-09  7.80056E-09  7.79606E-09  7.78983E-09  7.78179E-09  7.77188E-09
   7.76003E-09  7.74621E-09  7.73034E-09  7.71240E-09  7.69233E-09  7.67010E-09  7.64567E-09  7.61902E-09  7.59010E-09  7.55889E-09
   7.52536E-09  7.48949E-09  7.45127E-09  7.41066E-09  7.36766E-09  7.32224E-09  7.27442E-09  7.22417E-09  7.17149E-09  7.11640E-09
   7.05888E-09  6.99897E-09  6.93668E-09  6.87206E-09  6.80513E-09  6.73597E-09  6.66465E-09  6.59127E-09  6.51597E-09  6.43893E-09
   6.36035E-09  6.28055E-09  6.19993E-09  6.11897E-09  6.03841E-09  5.95922E-09  5.88283E-09  5.81135E-09  5.74804E-09  5.69783E-09
   5.66887E-09  5.67547E-09  5.74554E-09  5.94131E-09  6.43323E-09  7.87219E-09  1.35802E-08  1.99483E-08  2.18002E-08  2.06989E-08
   2.02543E-08  2.04297E-08  2.04443E-08  2.01107E-08  1.96042E-08  1.99746E-08  2.07320E-08  1.65550E-08  9.50088E-09  5.05721E-09
   3.68261E-09  3.05249E-09  2.65808E-09  2.36569E-09  2.12622E-09  1.91777E-09  1.72911E-09  1.55401E-09  1.38881E-09  1.23121E-09
   1.07973E-09  9.33427E-10  7.91624E-10  6.53964E-10  5.20105E-10  3.89907E-10  2.63264E-10  1.40161E-10  2.05437E-11 -9.55146E-11
  -2.07983E-10 -3.16796E-10 -4.21865E-10 -5.23108E-10 -6.20416E-10 -7.13691E-10 -8.02785E-10 -8.87642E-10 -9.68139E-10 -1.04439E-09
  -1.11649E-09 -1.18456E-09 -1.24869E-09 -1.30900E-09 -1.36557E-09 -1.41851E-09 -1.46792E-09 -1.51390E-09 -1.55654E-09 -1.59596E-09
  -1.63221E-09 -1.66543E-09 -1.69571E-09 -1.72312E-09 -1.74778E-09 -1.76978E-09 -1.78919E-09 -1.80614E-09 -1.82073E-09 -1.83300E-09
  -1.84309E-09 -1.85108E-09 -1.85706E-09 -1.86113E-09 -1.86338E-09 -1.86392E-09 -1.86282E-09 -1.86018E-09 -1.85609E-09 -1.85066E-09
  -1.84396E-09 -1.83609E-09 -1.82715E-09 -1.81724E-09 -1.80643E-09 -1.79483E-09 -1.78254E-09 -1.76964E-09 -1.75621E-09 -1.74235E-09
  -1.72817E-09 -1.71376E-09 -1.69920E-09 -1.68457E-09 -1.67001E-09 -1.65555E-09 -1.64134E-09 -1.62743E-09 -1.61394E-09 -1.60096E-09
  -1.58853E-09 -1.57665E-09 -1.56534E-09 -1.55459E-09 -1.54442E-09 -1.53482E-09 -1.52579E-09 -1.51734E-09 -1.50947E-09 -1.50219E-09
  -1.49550E-09 -1.48940E-09 -1.48389E-09 -1.47898E-09 -1.47467E-09 -1.47097E-09 -1.46788E-09 -1.46539E-09 -1.46351E-09 -1.46226E-09
  -1.46162E-09 -1.46161E-09 -1.46222E-09 -1.46345E-09 -1.46533E-09 -1.46784E-09 -1.47098E-09 -1.47476E-09 -1.47919E-09 -1.48427E-09
  -1.49000E-09 -1.49638E-09 -1.50341E-09 -1.51111E-09 -1.51947E-09 -1.52850E-09 -1.53819E-09 -1.54855E-09 -1.55959E-09 -1.57131E-09
  -1.58372E-09 -1.59679E-09 -1.61056E-09 -1.62502E-09 -1.64017E-09 -1.65602E-09 -1.67257E-09 -1.68981E-09 -1.70777E-09 -1.72642E-09
  -1.74580E-09 -1.76589E-09 -1.78668E-09 -1.80815E-09 -1.83029E-09 -1.85307E-09 -1.87648E-09 -1.90050E-09 -1.92511E-09 -1.95030E-09
  -1.97605E-09 -2.00232E-09 -2.02912E-09 -2.05642E-09 -2.08420E-09 -2.11244E-09 -2.14113E-09 -2.17025E-09 -2.19978E-09 -2.22969E-09
  -2.25998E-09 -2.29063E-09 -2.32160E-09 -2.35291E-09 -2.38450E-09 -2.41638E-09 -2.44852E-09 -2.48091E-09 -2.51352E-09 -2.54634E-09
  -2.57936E-09 -2.61254E-09 -2.64588E-09 -2.67936E-09 -2.71295E-09 -2.74664E-09 -2.78041E-09 -2.81425E-09 -2.84813E-09 -2.88203E-09
  -2.91595E-09 -2.94985E-09 -2.98373E-09 -3.01756E-09 -3.05132E-09 -3.08501E-09 -3.11859E-09 -3.15205E-09 -3.18538E-09 -3.21856E-09
  -3.25156E-09 -3.28437E-09 -3.31697E-09
 NY background values follow
    -6.033E-10   -5.145E-10   -4.256E-10   -3.367E-10   -2.476E-10   -1.584E-10   -6.923E-11    2.002E-11    1.093E-10    1.986E-10
     2.879E-10    3.773E-10    4.666E-10    5.559E-10    6.452E-10    7.344E-10    8.235E-10    9.126E-10    1.002E-09    1.091E-09
     1.179E-09    1.268E-09    1.357E-09    1.445E-09    1.533E-09    1.622E-09    1.710E-09    1.797E-09    1.885E-09    1.972E-09
     2.060E-09    2.146E-09    2.233E-09    2.320E-09    2.406E-09    2.492E-09    2.577E-09    2.663E-09    2.748E-09    2.832E-09
     2.917E-09    3.001E-09    3.084E-09    3.168E-09    3.251E-09    3.333E-09    3.415E-09    3.497E-09    3.578E-09    3.659E-09
     3.739E-09    3.819E-09    3.899E-09    3.978E-09    4.056E-09    4.134E-09    4.211E-09    4.288E-09    4.364E-09    4.440E-09
     4.515E-09    4.589E-09    4.662E-09    4.735E-09    4.807E-09    4.878E-09    4.948E-09    5.018E-09    5.086E-09    5.154E-09
     5.220E-09    5.286E-09    5.351E-09    5.415E-09    5.477E-09    5.539E-09    5.600E-09    5.659E-09    5.718E-09    5.775E-09
     5.831E-09    5.886E-09    5.939E-09    5.992E-09    6.043E-09    6.092E-09    6.141E-09    6.188E-09    6.233E-09    6.277E-09
     6.320E-09    6.361E-09    6.401E-09    6.439E-09    6.476E-09    6.511E-09    6.545E-09    6.577E-09    6.607E-09    6.635E-09
     6.662E-09    6.687E-09    6.711E-09    6.732E-09    6.752E-09    6.770E-09    6.786E-09    6.800E-09    6.813E-09    6.823E-09
     6.831E-09    6.838E-09    6.842E-09    6.845E-09    6.845E-09    6.843E-09    6.839E-09    6.833E-09    6.825E-09    6.814E-09
     6.801E-09    6.786E-09    6.769E-09    6.750E-09    6.728E-09    6.703E-09    6.677E-09    6.648E-09    6.616E-09    6.582E-09
     6.545E-09    6.506E-09    6.465E-09    6.421E-09    6.374E-09    6.324E-09    6.272E-09    6.218E-09    6.160E-09    6.100E-09
     6.037E-09    5.971E-09    5.903E-09    5.831E-09    5.757E-09    5.680E-09    5.600E-09    5.517E-09    5.431E-09    5.342E-09
     5.250E-09    5.155E-09    5.057E-09    4.956E-09    4.851E-09    4.744E-09    4.633E-09    4.519E-09    4.402E-09    4.283E-09
     4.161E-09    4.036E-09    3.909E-09    3.780E-09    3.649E-09    3.516E-09    3.381E-09    3.244E-09    3.106E-09    2.967E-09
     2.826E-09    2.685E-09    2.542E-09    2.399E-09    2.255E-09    2.111E-09    1.966E-09    1.821E-09    1.676E-09    1.531E-09
     1.386E-09    1.242E-09    1.098E-09    9.550E-10    8.127E-10    6.714E-10    5.311E-10    3.921E-10    2.545E-10    1.184E-10
    -1.609E-11   -1.487E-10   -2.794E-10   -4.079E-10   -5.342E-10   -6.582E-10   -7.796E-10   -8.983E-10   -1.014E-09   -1.127E-09
    -1.237E-09   -1.343E-09   -1.447E-09   -1.546E-09   -1.642E-09   -1.734E-09   -1.823E-09   -1.907E-09   -1.986E-09   -2.062E-09
    -2.134E-09   -2.202E-09   -2.265E-09   -2.326E-09   -2.382E-09   -2.435E-09   -2.484E-09   -2.530E-09   -2.573E-09   -2.613E-09
    -2.649E-09   -2.682E-09   -2.713E-09   -2.740E-09   -2.765E-09   -2.788E-09   -2.807E-09   -2.824E-09   -2.839E-09   -2.852E-09
    -2.862E-09   -2.871E-09   -2.877E-09   -2.881E-09   -2.884E-09   -2.885E-09   -2.884E-09   -2.881E-09   -2.878E-09   -2.872E-09
    -2.866E-09   -2.858E-09   -2.850E-09   -2.840E-09   -2.830E-09   -2.818E-09   -2.806E-09   -2.794E-09   -2.781E-09   -2.767E-09
    -2.753E-09   -2.739E-09   -2.725E-09   -2.710E-09   -2.696E-09   -2.682E-09   -2.668E-09   -2.654E-09   -2.641E-09   -2.628E-09
    -2.616E-09   -2.604E-09   -2.593E-09   -2.582E-09   -2.572E-09   -2.563E-09   -2.554E-09   -2.546E-09   -2.538E-09   -2.531E-09
    -2.524E-09   -2.518E-09   -2.513E-09   -2.508E-09   -2.504E-09   -2.500E-09   -2.497E-09   -2.495E-09   -2.493E-09   -2.492E-09
    -2.491E-09   -2.492E-09   -2.492E-09   -2.494E-09   -2.495E-09   -2.498E-09   -2.501E-09   -2.505E-09   -2.509E-09   -2.515E-09
    -2.520E-09   -2.527E-09   -2.534E-09   -2.541E-09   -2.550E-09   -2.559E-09   -2.568E-09   -2.579E-09   -2.590E-09   -2.601E-09
    -2.614E-09   -2.627E-09   -2.640E-09   -2.655E-09   -2.670E-09   -2.686E-09   -2.702E-09   -2.719E-09   -2.737E-09   -2.756E-09
    -2.775E-09   -2.795E-09   -2.815E-09   -2.837E-09   -2.859E-09   -2.881E-09   -2.905E-09   -2.929E-09   -2.953E-09   -2.978E-09
    -3.004E-09   -3.030E-09   -3.056E-09   -3.083E-09   -3.111E-09   -3.139E-09   -3.167E-09   -3.196E-09   -3.226E-09   -3.255E-09
    -3.285E-09   -3.316E-09   -3.346E-09   -3.377E-09   -3.409E-09   -3.440E-09   -3.472E-09   -3.504E-09   -3.537E-09   -3.569E-09
    -3.602E-09   -3.635E-09   -3.668E-09   -3.701E-09   -3.734E-09   -3.767E-09   -3.801E-09   -3.834E-09   -3.868E-09   -3.901E-09
    -3.935E-09   -3.968E-09   -4.002E-09   -4.035E-09   -4.069E-09   -4.102E-09   -4.135E-09   -4.168E-09   -4.201E-09   -4.234E-09
    -4.266E-09   -4.299E-09   -4.331E-09
 GABA     Conc. = 1.53E-10
  -5.76716E-10 -4.87545E-10 -3.98245E-10 -3.08828E-10 -2.19293E-10 -1.29663E-10 -3.99341E-11  4.98817E-11  1.39780E-10  2.29768E-10
   3.19810E-10  4.09937E-10  5.00145E-10  5.90397E-10  6.80765E-10  7.71201E-10  8.61679E-10  9.52354E-10  1.04317E-09  1.13413E-09
   1.22539E-09  1.31703E-09  1.40918E-09  1.50208E-09  1.59613E-09  1.69192E-09  1.79085E-09  1.89589E-09  2.01510E-09  2.16576E-09
   2.23968E-09  2.33606E-09  2.54219E-09  2.63708E-09  2.68544E-09  2.82339E-09  2.92894E-09  3.00425E-09  3.08823E-09  3.14637E-09
   3.15637E-09  3.26670E-09  3.35021E-09  3.30705E-09  3.36995E-09  3.47106E-09  3.49802E-09  3.55439E-09  3.62529E-09  3.70137E-09
   3.77988E-09  3.85938E-09  3.93954E-09  4.02024E-09  4.10134E-09  4.18290E-09  4.26521E-09  4.34871E-09  4.43432E-09  4.52426E-09
   4.62346E-09  4.74708E-09  4.86132E-09  4.91834E-09  5.04787E-09  5.18628E-09  5.22636E-09  5.28783E-09  5.38049E-09  5.44743E-09
   5.50704E-09  5.56191E-09  5.57297E-09  5.59212E-09  5.67998E-09  5.68160E-09  5.66565E-09  5.73588E-09  5.78714E-09  5.83804E-09
   5.90717E-09  5.94112E-09  6.01488E-09  6.12939E-09  6.16736E-09  6.21917E-09  6.31958E-09  6.37165E-09  6.41783E-09  6.48663E-09
   6.51914E-09  6.53946E-09  6.61066E-09  6.63476E-09  6.60972E-09  6.66044E-09  6.69097E-09  6.67333E-09  6.69205E-09  6.71388E-09
   6.72404E-09  6.73837E-09  6.75446E-09  6.77082E-09  6.78666E-09  6.80150E-09  6.81511E-09  6.82727E-09  6.83787E-09  6.84683E-09
   6.85406E-09  6.85944E-09  6.86293E-09  6.86449E-09  6.86405E-09  6.86162E-09  6.85715E-09  6.85057E-09  6.84187E-09  6.83101E-09
   6.81794E-09  6.80266E-09  6.78512E-09  6.76529E-09  6.74315E-09  6.71867E-09  6.69182E-09  6.66257E-09  6.63088E-09  6.59674E-09
   6.56011E-09  6.52098E-09  6.47931E-09  6.43506E-09  6.38823E-09  6.33878E-09  6.28668E-09  6.23190E-09  6.17443E-09  6.11423E-09
   6.05127E-09  5.98553E-09  5.91700E-09  5.84563E-09  5.77140E-09  5.69428E-09  5.61426E-09  5.53130E-09  5.44538E-09  5.35649E-09
   5.26458E-09  5.16964E-09  5.07167E-09  4.97060E-09  4.86646E-09  4.75919E-09  4.64886E-09  4.53554E-09  4.41943E-09  4.30073E-09
   4.17967E-09  4.05656E-09  3.93186E-09  3.80636E-09  3.68194E-09  3.56457E-09  3.48482E-09  3.49888E-09  3.36691E-09  3.19769E-09
   3.05749E-09  2.92347E-09  2.78299E-09  2.63780E-09  2.48741E-09  2.34311E-09  2.22596E-09  2.05984E-09  1.75624E-09  1.57246E-09
   1.41546E-09  1.26556E-09  1.11870E-09  9.73684E-10  8.30082E-10  6.87847E-10  5.46933E-10  4.07391E-10  2.69371E-10  1.32958E-10
  -1.73905E-12 -1.34556E-10 -2.65407E-10 -3.94089E-10 -5.20530E-10 -6.44559E-10 -7.66046E-10 -8.84825E-10 -1.00080E-09 -1.11379E-09
  -1.22366E-09 -1.33028E-09 -1.43349E-09 -1.53316E-09 -1.62915E-09 -1.72132E-09 -1.80949E-09 -1.89359E-09 -1.97346E-09 -2.04921E-09
  -2.12091E-09 -2.18867E-09 -2.25257E-09 -2.31271E-09 -2.36919E-09 -2.42209E-09 -2.47150E-09 -2.51752E-09 -2.56025E-09 -2.59978E-09
  -2.63618E-09 -2.66957E-09 -2.70004E-09 -2.72766E-09 -2.75255E-09 -2.77478E-09 -2.79445E-09 -2.81166E-09 -2.82652E-09 -2.83907E-09
  -2.84944E-09 -2.85773E-09 -2.86400E-09 -2.86837E-09 -2.87092E-09 -2.87175E-09 -2.87095E-09 -2.86861E-09 -2.86482E-09 -2.85969E-09
  -2.85328E-09 -2.84571E-09 -2.83707E-09 -2.82744E-09 -2.81692E-09 -2.80560E-09 -2.79358E-09 -2.78096E-09 -2.76779E-09 -2.75420E-09
  -2.74028E-09 -2.72612E-09 -2.71181E-09 -2.69743E-09 -2.68310E-09 -2.66889E-09 -2.65490E-09 -2.64121E-09 -2.62794E-09 -2.61517E-09
  -2.60294E-09 -2.59126E-09 -2.58014E-09 -2.56958E-09 -2.55958E-09 -2.55015E-09 -2.54129E-09 -2.53301E-09 -2.52529E-09 -2.51816E-09
  -2.51161E-09 -2.50564E-09 -2.50027E-09 -2.49548E-09 -2.49128E-09 -2.48769E-09 -2.48470E-09 -2.48231E-09 -2.48052E-09 -2.47935E-09
  -2.47879E-09 -2.47885E-09 -2.47952E-09 -2.48081E-09 -2.48274E-09 -2.48529E-09 -2.48847E-09 -2.49228E-09 -2.49674E-09 -2.50184E-09
  -2.50758E-09 -2.51396E-09 -2.52099E-09 -2.52868E-09 -2.53702E-09 -2.54603E-09 -2.55569E-09 -2.56602E-09 -2.57702E-09 -2.58869E-09
  -2.60104E-09 -2.61405E-09 -2.62776E-09 -2.64214E-09 -2.65721E-09 -2.67298E-09 -2.68943E-09 -2.70657E-09 -2.72443E-09 -2.74297E-09
  -2.76223E-09 -2.78220E-09 -2.80286E-09 -2.82419E-09 -2.84618E-09 -2.86881E-09 -2.89206E-09 -2.91592E-09 -2.94036E-09 -2.96537E-09
  -2.99093E-09 -3.01702E-09 -3.04362E-09 -3.07072E-09 -3.09829E-09 -3.12632E-09 -3.15479E-09 -3.18368E-09 -3.21297E-09 -3.24264E-09
  -3.27269E-09 -3.30308E-09 -3.33379E-09 -3.36483E-09 -3.39615E-09 -3.42775E-09 -3.45961E-09 -3.49170E-09 -3.52402E-09 -3.55653E-09
  -3.58924E-09 -3.62210E-09 -3.65512E-09 -3.68826E-09 -3.72151E-09 -3.75486E-09 -3.78828E-09 -3.82176E-09 -3.85527E-09 -3.88881E-09
  -3.92235E-09 -3.95586E-09 -3.98935E-09 -4.02279E-09 -4.05614E-09 -4.08942E-09 -4.12259E-09 -4.15562E-09 -4.18853E-09 -4.22126E-09
  -4.25382E-09 -4.28618E-09 -4.31832E-09
 Gln      Conc. = 1.52E-09
   1.11542E-09  1.26199E-09  1.54189E-09  1.64807E-09  1.69325E-09  1.77801E-09  1.82652E-09  1.70576E-09  1.69630E-09  1.77129E-09
   1.22870E-09  1.24060E-09  1.14732E-09  9.92624E-10  9.89437E-10  1.03586E-09  1.10145E-09  1.17680E-09  1.25785E-09  1.34227E-09
   1.42883E-09  1.51688E-09  1.60579E-09  1.69531E-09  1.78610E-09  1.87742E-09  1.96864E-09  2.06075E-09  2.15308E-09  2.24558E-09
   2.33831E-09  2.43127E-09  2.52452E-09  2.61811E-09  2.71208E-09  2.80649E-09  2.90141E-09  2.99695E-09  3.09318E-09  3.19061E-09
   3.28906E-09  3.38926E-09  3.49127E-09  3.59526E-09  3.70206E-09  3.81271E-09  3.92712E-09  4.04867E-09  4.18137E-09  4.32363E-09
   4.48453E-09  4.68057E-09  4.93439E-09  5.31146E-09  5.95290E-09  6.24728E-09  6.34990E-09  7.17656E-09  7.58373E-09  7.43729E-09
   7.59310E-09  7.75863E-09  7.74471E-09  7.75254E-09  7.62169E-09  7.08026E-09  6.97438E-09  7.11620E-09  6.46948E-09  6.10394E-09
   6.34610E-09  6.65601E-09  6.71555E-09  6.82484E-09  7.48894E-09  7.75606E-09  7.85638E-09  8.17996E-09  8.31703E-09  8.31324E-09
   8.47095E-09  8.46199E-09  8.09130E-09  8.06234E-09  8.06543E-09  7.49295E-09  7.31354E-09  7.22847E-09  6.97259E-09  6.84651E-09
   6.78707E-09  6.75984E-09  6.75326E-09  6.75705E-09  6.76548E-09  6.77852E-09  6.79477E-09  6.81209E-09  6.83045E-09  6.84947E-09
   6.86821E-09  6.88628E-09  6.90349E-09  6.91965E-09  6.93499E-09  6.94908E-09  6.96179E-09  6.97302E-09  6.98270E-09  6.99075E-09
   6.99711E-09  7.00172E-09  7.00453E-09  7.00547E-09  7.00450E-09  7.00158E-09  6.99667E-09  6.98972E-09  6.98070E-09  6.96957E-09
   6.95629E-09  6.94083E-09  6.92316E-09  6.90324E-09  6.88104E-09  6.85654E-09  6.82970E-09  6.80049E-09  6.76888E-09  6.73485E-09
   6.69836E-09  6.65939E-09  6.61791E-09  6.57389E-09  6.52731E-09  6.47813E-09  6.42635E-09  6.37192E-09  6.31483E-09  6.25506E-09
   6.19257E-09  6.12734E-09  6.05937E-09  5.98863E-09  5.91508E-09  5.83872E-09  5.75955E-09  5.67753E-09  5.59268E-09  5.50498E-09
   5.41443E-09  5.32105E-09  5.22488E-09  5.12592E-09  5.02426E-09  4.91998E-09  4.81327E-09  4.70443E-09  4.59399E-09  4.48267E-09
   4.37153E-09  4.26235E-09  4.15839E-09  4.06648E-09  4.00388E-09  4.02788E-09  4.42974E-09  5.76919E-09  5.70889E-09  5.27985E-09
   5.13954E-09  5.07197E-09  4.94998E-09  4.78833E-09  4.58093E-09  4.43480E-09  4.55580E-09  4.21018E-09  2.51528E-09  1.97250E-09
   1.70225E-09  1.50133E-09  1.32653E-09  1.16433E-09  1.00931E-09  8.59055E-10  7.12280E-10  5.68319E-10  4.26885E-10  2.87778E-10
   1.50925E-10  1.63555E-11 -1.15935E-10 -2.45811E-10 -3.73251E-10 -4.98123E-10 -6.20324E-10 -7.39711E-10 -8.56208E-10 -9.69641E-10
  -1.07990E-09 -1.18685E-09 -1.29035E-09 -1.39028E-09 -1.48649E-09 -1.57884E-09 -1.66718E-09 -1.75142E-09 -1.83141E-09 -1.90726E-09
  -1.97906E-09 -2.04689E-09 -2.11086E-09 -2.17107E-09 -2.22759E-09 -2.28053E-09 -2.32998E-09 -2.37603E-09 -2.41878E-09 -2.45832E-09
  -2.49474E-09 -2.52814E-09 -2.55860E-09 -2.58623E-09 -2.61112E-09 -2.63335E-09 -2.65301E-09 -2.67021E-09 -2.68506E-09 -2.69760E-09
  -2.70796E-09 -2.71623E-09 -2.72248E-09 -2.72684E-09 -2.72937E-09 -2.73018E-09 -2.72937E-09 -2.72701E-09 -2.72321E-09 -2.71805E-09
