 LCModel (Version 6.3-1R) Copyright: S.W. Provencher.          Ref.: Magn. Reson. Med. 30:672-679 (1993).                
 onepulse 24x13_ftSpec_smooth_lcm
 26 lines in following concentration table = NCONC+1
    Conc.  %SD   /Cr    Metabolite                                         
 6.01E-10  56%   0.000 Ala                                                 
 1.08E-10 680%   0.000 Asp                                                 
    0.000 999%   0.000 Cr                                                  
 8.64E-10  66%   0.000 GABA                                                
    0.000 999%   0.000 Glc                                                 
 9.75E-10  81%   0.000 Gln                                                 
    0.000 999%   0.000 Glu                                                 
 1.28E-09  36%   0.000 Glyc                                                
    0.000 999%   0.000 GPC                                                 
 8.90E-10  58%   0.000 GSH                                                 
    0.000 999%   0.000 Ins                                                 
 3.06E-10 113%   0.000 Lac                                                 
 7.13E-10  51%   0.000 NAAG                                                
 2.22E-11 999%   0.000 NAA                                                 
    0.000 999%   0.000 PCh                                                 
    0.000 999%   0.000 PCr                                                 
 1.74E-09  60%   0.000 PE                                                  
    0.000 999%   0.000 Scyllo                                              
 6.79E-10 119%   0.000 Ser                                                 
 1.48E-09  46%   0.000 Tau                                                 
    0.000 999%   0.000 GPC+PCh                                             
 7.35E-10  50%   0.000 NAA+NAAG                                            
 1.28E-09  36%   0.000 Ins+Glyc                                            
    0.000 999%   0.000 Cr+PCr                                              
 9.75E-10  81%   0.000 Glu+Gln                                             
   6 lines in following misc. output table
  FWHM = 0.123 ppm    S/N =   3                                            
  Data shift = 0.481 ppm                                                   
  Ph:  78 deg     -12.7 deg/ppm                                            
  alphaB,S = 1.1E+00,   6.0E+00                                            
    9 spline knots.   Ns = 5(1)                                            
  (10) 6 infls.   ( 9) 3 extrs.                                            
  363 points on ppm-axis = NY
      4.250000     4.238821     4.227641     4.216462     4.205282     4.194103     4.182923     4.171744     4.160564     4.149385
      4.138206     4.127026     4.115847     4.104667     4.093488     4.082308     4.071129     4.059949     4.048770     4.037591
      4.026411     4.015232     4.004052     3.992873     3.981693     3.970514     3.959334     3.948155     3.936975     3.925796
      3.914617     3.903437     3.892258     3.881078     3.869899     3.858719     3.847540     3.836360     3.825181     3.814002
      3.802822     3.791643     3.780463     3.769284     3.758104     3.746925     3.735745     3.724566     3.713387     3.702207
      3.691028     3.679848     3.668669     3.657489     3.646310     3.635130     3.623951     3.612772     3.601592     3.590413
      3.579233     3.568054     3.556874     3.545695     3.534515     3.523336     3.512156     3.500977     3.489798     3.478618
      3.467439     3.456259     3.445080     3.433900     3.422721     3.411541     3.400362     3.389183     3.378003     3.366824
      3.355644     3.344465     3.333285     3.322106     3.310926     3.299747     3.288568     3.277388     3.266209     3.255029
      3.243850     3.232670     3.221491     3.210311     3.199132     3.187953     3.176773     3.165594     3.154414     3.143235
      3.132055     3.120876     3.109696     3.098517     3.087337     3.076158     3.064979     3.053799     3.042620     3.031440
      3.020261     3.009081     2.997902     2.986722     2.975543     2.964364     2.953184     2.942005     2.930825     2.919646
      2.908466     2.897287     2.886107     2.874928     2.863749     2.852569     2.841390     2.830210     2.819031     2.807851
      2.796672     2.785492     2.774313     2.763134     2.751954     2.740775     2.729595     2.718416     2.707236     2.696057
      2.684877     2.673698     2.662519     2.651339     2.640160     2.628980     2.617801     2.606621     2.595442     2.584262
      2.573083     2.561903     2.550724     2.539545     2.528365     2.517186     2.506006     2.494827     2.483647     2.472468
      2.461288     2.450109     2.438930     2.427750     2.416571     2.405391     2.394212     2.383032     2.371853     2.360673
      2.349494     2.338315     2.327135     2.315956     2.304776     2.293597     2.282417     2.271238     2.260058     2.248879
      2.237700     2.226520     2.215341     2.204161     2.192982     2.181802     2.170623     2.159443     2.148264     2.137084
      2.125905     2.114726     2.103546     2.092367     2.081187     2.070008     2.058828     2.047649     2.036469     2.025290
      2.014111     2.002931     1.991752     1.980572     1.969393     1.958213     1.947034     1.935854     1.924675     1.913496
      1.902316     1.891137     1.879957     1.868778     1.857598     1.846419     1.835239     1.824060     1.812881     1.801701
      1.790522     1.779342     1.768163     1.756983     1.745804     1.734624     1.723445     1.712265     1.701086     1.689907
      1.678727     1.667548     1.656368     1.645189     1.634009     1.622830     1.611650     1.600471     1.589292     1.578112
      1.566933     1.555753     1.544574     1.533394     1.522215     1.511035     1.499856     1.488677     1.477497     1.466318
      1.455138     1.443959     1.432779     1.421600     1.410420     1.399241     1.388062     1.376882     1.365703     1.354523
      1.343344     1.332164     1.320985     1.309805     1.298626     1.287446     1.276267     1.265088     1.253908     1.242729
      1.231549     1.220370     1.209190     1.198011     1.186831     1.175652     1.164473     1.153293     1.142114     1.130934
      1.119755     1.108575     1.097396     1.086216     1.075037     1.063858     1.052678     1.041499     1.030319     1.019140
      1.007960     0.996781     0.985601     0.974422     0.963243     0.952063     0.940884     0.929704     0.918525     0.907345
      0.896166     0.884986     0.873807     0.862628     0.851448     0.840269     0.829089     0.817910     0.806730     0.795551
      0.784371     0.773192     0.762012     0.750833     0.739654     0.728474     0.717295     0.706115     0.694936     0.683756
      0.672577     0.661397     0.650218     0.639039     0.627859     0.616680     0.605500     0.594321     0.583141     0.571962
      0.560782     0.549603     0.538424     0.527244     0.516065     0.504885     0.493706     0.482526     0.471347     0.460167
      0.448988     0.437809     0.426629     0.415450     0.404270     0.393091     0.381911     0.370732     0.359552     0.348373
      0.337193     0.326014     0.314835     0.303655     0.292476     0.281296     0.270117     0.258937     0.247758     0.236578
      0.225399     0.214220     0.203040
 NY phased data points follow
  -1.16983E-09 -1.65264E-09 -1.28517E-09 -1.37918E-09  1.49482E-10 -5.58138E-10  4.64521E-10  4.60977E-10  7.46513E-10  1.26877E-10
   6.03403E-10 -9.06008E-10 -7.44126E-10 -1.28901E-10  1.30872E-09  1.14472E-09  1.18732E-09  2.57410E-10 -3.79286E-10 -5.71258E-10
   1.27698E-09  2.76206E-09  3.83705E-09  4.98224E-09  5.71921E-09  5.46484E-09  4.85791E-09  4.49167E-09  4.71776E-09  4.76797E-09
   4.40310E-09  3.77598E-09  4.54399E-09  3.95471E-09  3.91036E-09  3.79947E-09  2.74400E-09  2.80128E-09  1.67401E-09  1.93726E-09
   2.82971E-09  1.74679E-09  2.06687E-09  1.62222E-09  6.35432E-10 -2.85751E-10 -7.87980E-10 -1.68209E-09 -2.06883E-09 -4.13739E-09
  -5.71575E-09 -3.79926E-09  4.28812E-10  3.47164E-09  4.88136E-09  5.56921E-09  5.65281E-09  5.26451E-09  4.35691E-09  4.69041E-09
   3.98612E-09  3.31666E-09  2.67755E-09  1.42947E-09  5.53161E-10 -1.24216E-09 -3.16950E-09 -4.85421E-09 -1.63330E-09  2.21978E-09
   5.46817E-09  5.53444E-09  5.97096E-09  7.08750E-09  7.57217E-09  7.12348E-09  7.57649E-09  7.10618E-09  7.29369E-09  7.91461E-09
   8.04299E-09  7.07762E-09  8.27879E-09  7.24063E-09  7.58256E-09  7.16304E-09  7.37795E-09  7.17124E-09  7.07494E-09  6.08474E-09
   6.27204E-09  6.48431E-09  6.91363E-09  6.02497E-09  6.22890E-09  7.22515E-09  7.19034E-09  6.27929E-09  6.18056E-09  5.49247E-09
   4.44779E-09  3.92892E-09  4.60378E-09  4.65243E-09  4.28130E-09  3.98912E-09  4.71449E-09  5.01658E-09  4.94504E-09  5.19580E-09
   5.99902E-09  5.80186E-09  5.61247E-09  5.37523E-09  4.85849E-09  3.93502E-09  3.72330E-09  3.96752E-09  4.12961E-09  3.93671E-09
   3.97238E-09  4.13902E-09  4.44392E-09  3.65325E-09  3.50526E-09  3.40578E-09  3.03924E-09  1.53447E-09  1.77544E-09  2.74335E-09
   4.06557E-09  3.69667E-09  3.51675E-09  3.04868E-09  3.44186E-09  3.91481E-09  4.28451E-09  4.96750E-09  4.69103E-09  4.85852E-09
   5.68992E-09  5.09040E-09  4.99557E-09  5.05472E-09  4.98443E-09  4.69327E-09  4.64263E-09  4.45597E-09  4.60812E-09  4.42037E-09
   4.49490E-09  4.50249E-09  4.25594E-09  3.43725E-09  2.10714E-09  1.53920E-09  2.26043E-09  4.14306E-10 -1.84253E-09 -2.72146E-10
   7.29452E-09  1.17004E-08  1.40054E-08  1.40341E-08  1.48983E-08  1.53287E-08  1.60172E-08  1.59931E-08  1.63458E-08  1.66859E-08
   1.70608E-08  1.74604E-08  1.71129E-08  1.75581E-08  1.78733E-08  1.76020E-08  1.76971E-08  1.73976E-08  1.69775E-08  1.62157E-08
   1.65857E-08  1.51076E-08  1.42769E-08  1.30195E-08  1.15853E-08  1.00831E-08  7.92909E-09  6.18916E-09  4.64604E-09  2.64253E-09
   6.77691E-10 -1.03056E-09 -2.63841E-09 -3.36320E-09 -5.15286E-09 -4.99638E-09 -5.64039E-09 -5.92506E-09 -5.83110E-09 -5.45650E-09
  -4.93785E-09 -3.99936E-09 -3.58495E-09 -2.40019E-09 -1.67101E-09 -1.62469E-09 -1.09694E-09 -1.02384E-09 -1.35124E-09 -1.80870E-09
  -1.64438E-09 -1.21621E-09 -8.27272E-10 -7.10247E-10 -7.25401E-10 -1.14413E-09 -3.27422E-10 -9.41710E-10 -6.56987E-10 -3.61782E-10
  -4.43253E-10 -3.92155E-10 -1.38667E-09 -9.38075E-10 -7.73642E-10 -4.63347E-10 -5.69761E-10 -1.12603E-09 -4.21335E-10  1.66372E-12
  -2.20517E-10 -4.09801E-10 -1.07045E-09 -6.71261E-10 -1.11071E-09 -7.98283E-10 -8.85462E-10 -1.57408E-09 -8.69188E-10 -1.06897E-09
  -6.48569E-10 -6.89175E-10  8.27095E-11 -4.42379E-10 -9.07217E-12  4.80897E-10 -4.35425E-10 -1.33711E-11 -4.29930E-10  2.75893E-10
  -7.44808E-10 -9.08844E-10 -1.14661E-09 -1.59744E-09 -1.25978E-09 -1.29082E-09 -1.80119E-09 -1.67826E-09 -1.73916E-09 -1.61882E-09
  -1.51403E-09 -1.05928E-09 -1.51050E-09 -7.70945E-10 -3.37910E-10 -5.35278E-11 -1.03728E-10 -1.18735E-10 -1.59402E-10 -2.03536E-11
   2.63702E-10 -1.06409E-10 -3.76679E-10 -1.32841E-10 -4.04541E-10  2.71192E-11 -5.88231E-10 -1.19743E-10 -2.31631E-10 -7.44425E-10
  -8.73919E-10 -5.97989E-10 -7.44976E-10 -8.10098E-10 -8.95707E-10 -6.77747E-10 -5.92899E-10 -8.98778E-10 -1.14856E-09 -5.32868E-10
  -1.30896E-09 -6.67292E-10 -1.67511E-09 -1.18762E-09 -8.68222E-10 -1.44814E-09 -8.33103E-10 -1.54779E-09 -1.89390E-09 -1.30934E-09
  -1.50606E-09 -1.51618E-09 -1.63048E-09 -1.36764E-09 -1.93513E-09 -1.59179E-09 -1.95036E-09 -1.69920E-09 -1.68433E-09 -1.91363E-09
  -1.70374E-09 -2.19006E-09 -1.71161E-09 -1.64687E-09 -2.11484E-09 -2.28532E-09 -1.59566E-09 -1.90969E-09 -2.83829E-09 -1.92226E-09
  -1.85774E-09 -2.43568E-09 -2.28881E-09 -2.40540E-09 -1.46624E-09 -2.19644E-09 -2.27871E-09 -2.20764E-09 -2.08397E-09 -2.20786E-09
  -2.39591E-09 -2.66720E-09 -2.55296E-09 -2.34532E-09 -2.87665E-09 -2.31708E-09 -2.42001E-09 -2.25803E-09 -2.59386E-09 -2.50185E-09
  -2.10769E-09 -2.22650E-09 -2.90584E-09 -2.48024E-09 -2.17482E-09 -2.52063E-09 -3.09638E-09 -2.64359E-09 -2.48981E-09 -2.29239E-09
  -2.62307E-09 -2.95954E-09 -2.95105E-09 -2.56468E-09 -2.65141E-09 -2.62713E-09 -2.85318E-09 -2.57575E-09 -3.08114E-09 -2.36021E-09
  -2.82938E-09 -2.76906E-09 -2.86029E-09
 NY points of the fit to the data follow
   8.74730E-10  3.83467E-10 -4.65863E-11 -5.66164E-10 -7.84969E-10 -8.96549E-10 -1.06950E-09 -1.22410E-09  1.06087E-09  9.81819E-10
  -5.99886E-10 -7.79284E-10 -7.99020E-10 -6.20559E-10  3.45541E-10  5.90789E-10  1.39660E-09  1.78062E-09  2.49110E-09  1.51000E-09
   1.30355E-09  2.08425E-09  3.01255E-09  4.02498E-09  4.47081E-09  4.85826E-09  5.10534E-09  4.53228E-09  4.62897E-09  5.31555E-09
   5.70764E-09  5.27173E-09  5.29275E-09  4.75567E-09  4.01134E-09  3.60146E-09  3.11237E-09  2.76870E-09  2.51711E-09  2.46212E-09
   2.22665E-09  2.15138E-09  2.49825E-09  2.21132E-09  1.69879E-09  1.19516E-09  1.14111E-09  4.67568E-10  1.55252E-10  1.12357E-10
   3.50425E-10  4.23598E-10  3.17998E-10  8.00282E-10  1.45478E-09  1.49550E-09  1.78206E-09  2.54595E-09  2.80798E-09  2.63995E-09
   2.99643E-09  3.11176E-09  3.25664E-09  3.35779E-09  3.36556E-09  3.51845E-09  3.48222E-09  3.38738E-09  3.24262E-09  3.44669E-09
   3.92482E-09  4.42641E-09  4.85964E-09  4.54937E-09  5.24767E-09  6.70326E-09  8.25639E-09  8.32053E-09  8.46086E-09  8.70055E-09
   8.77906E-09  8.60285E-09  8.36415E-09  8.30205E-09  8.24819E-09  8.24095E-09  8.03577E-09  5.99598E-09  5.10013E-09  4.85929E-09
   4.58790E-09  4.22392E-09  4.22529E-09  4.27469E-09  3.81574E-09  3.72018E-09  3.79436E-09  3.53062E-09  3.50459E-09  3.77536E-09
   4.45780E-09  4.07048E-09  4.05859E-09  4.97049E-09  5.06473E-09  5.05189E-09  5.32502E-09  5.79714E-09  5.68569E-09  5.97371E-09
   6.31728E-09  5.46450E-09  5.55470E-09  5.79006E-09  5.08494E-09  4.82177E-09  4.75885E-09  4.63913E-09  4.18460E-09  4.22668E-09
   4.14636E-09  3.78818E-09  3.65346E-09  3.58711E-09  3.54881E-09  3.52497E-09  3.50965E-09  3.49971E-09  3.49335E-09  3.48943E-09
   3.48716E-09  3.48599E-09  3.48555E-09  3.48553E-09  3.48569E-09  3.48586E-09  3.48589E-09  3.48567E-09  3.48510E-09  3.48412E-09
   3.48268E-09  3.48072E-09  3.47822E-09  3.47516E-09  3.47153E-09  3.46734E-09  3.46260E-09  3.45735E-09  3.45166E-09  3.44559E-09
   3.43925E-09  3.43280E-09  3.42644E-09  3.42045E-09  3.41526E-09  3.41142E-09  3.40975E-09  3.41152E-09  3.41865E-09  3.43425E-09
   3.46367E-09  3.51666E-09  3.61286E-09  3.79712E-09  4.19351E-09  5.26532E-09  9.70016E-09  1.86162E-08  1.72638E-08  1.61588E-08
   1.66065E-08  1.70434E-08  1.70511E-08  1.73598E-08  1.73988E-08  1.74093E-08  1.83403E-08  1.67719E-08  7.37053E-09  4.95725E-09
   4.10971E-09  3.68318E-09  3.42019E-09  3.23592E-09  3.09499E-09  2.98019E-09  2.88220E-09  2.79554E-09  2.71680E-09  2.64375E-09
   2.57487E-09  2.50912E-09  2.44572E-09  2.38414E-09  2.32394E-09  2.26481E-09  2.20653E-09  2.14890E-09  2.09179E-09  2.03508E-09
   1.97870E-09  1.92256E-09  1.86664E-09  1.81088E-09  1.75526E-09  1.69977E-09  1.64438E-09  1.58911E-09  1.53393E-09  1.47885E-09
   1.42388E-09  1.36903E-09  1.31431E-09  1.25974E-09  1.20531E-09  1.15105E-09  1.09699E-09  1.04313E-09  9.89494E-10  9.36106E-10
   8.82989E-10  8.30159E-10  7.77641E-10  7.25452E-10  6.73617E-10  6.22172E-10  5.71123E-10  5.20502E-10  4.70340E-10  4.20654E-10
   3.71469E-10  3.22813E-10  2.74712E-10  2.27184E-10  1.80265E-10  1.33977E-10  8.83419E-11  4.33877E-11 -8.60256E-13 -4.43714E-11
  -8.71275E-11 -1.29096E-10 -1.70255E-10 -2.10605E-10 -2.50162E-10 -2.88944E-10 -3.26965E-10 -3.64238E-10 -4.00784E-10 -4.36615E-10
  -4.71748E-10 -5.06202E-10 -5.39988E-10 -5.73123E-10 -6.05623E-10 -6.37502E-10 -6.68779E-10 -6.99466E-10 -7.29580E-10 -7.59135E-10
  -7.88146E-10 -8.16634E-10 -8.44608E-10 -8.72083E-10 -8.99079E-10 -9.25607E-10 -9.51681E-10 -9.77320E-10 -1.00254E-09 -1.02735E-09
  -1.05177E-09 -1.07581E-09 -1.09949E-09 -1.12282E-09 -1.14582E-09 -1.16851E-09 -1.19089E-09 -1.21298E-09 -1.23480E-09 -1.25635E-09
  -1.27767E-09 -1.29876E-09 -1.31962E-09 -1.34029E-09 -1.36077E-09 -1.38108E-09 -1.40123E-09 -1.42123E-09 -1.44111E-09 -1.46087E-09
  -1.48054E-09 -1.50010E-09 -1.51960E-09 -1.53904E-09 -1.55843E-09 -1.57780E-09 -1.59715E-09 -1.61648E-09 -1.63583E-09 -1.65520E-09
  -1.67461E-09 -1.69408E-09 -1.71360E-09 -1.73319E-09 -1.75285E-09 -1.77257E-09 -1.79236E-09 -1.81220E-09 -1.83208E-09 -1.85202E-09
  -1.87200E-09 -1.89202E-09 -1.91208E-09 -1.93217E-09 -1.95228E-09 -1.97242E-09 -1.99258E-09 -2.01275E-09 -2.03294E-09 -2.05313E-09
  -2.07333E-09 -2.09352E-09 -2.11372E-09 -2.13391E-09 -2.15408E-09 -2.17424E-09 -2.19438E-09 -2.21449E-09 -2.23458E-09 -2.25464E-09
  -2.27466E-09 -2.29465E-09 -2.31459E-09 -2.33449E-09 -2.35434E-09 -2.37413E-09 -2.39387E-09 -2.41354E-09 -2.43316E-09 -2.45270E-09
  -2.47217E-09 -2.49156E-09 -2.51088E-09 -2.53011E-09 -2.54926E-09 -2.56832E-09 -2.58728E-09 -2.60615E-09 -2.62491E-09 -2.64357E-09
  -2.66212E-09 -2.68056E-09 -2.69889E-09 -2.71710E-09 -2.73518E-09 -2.75314E-09 -2.77097E-09 -2.78867E-09 -2.80624E-09 -2.82366E-09
  -2.84095E-09 -2.85809E-09 -2.87507E-09
 NY background values follow
    -7.304E-09   -7.228E-09   -7.151E-09   -7.074E-09   -6.996E-09   -6.919E-09   -6.841E-09   -6.762E-09   -6.684E-09   -6.605E-09
    -6.526E-09   -6.446E-09   -6.367E-09   -6.287E-09   -6.206E-09   -6.126E-09   -6.045E-09   -5.964E-09   -5.883E-09   -5.802E-09
    -5.720E-09   -5.638E-09   -5.556E-09   -5.474E-09   -5.391E-09   -5.309E-09   -5.226E-09   -5.143E-09   -5.060E-09   -4.976E-09
    -4.893E-09   -4.809E-09   -4.725E-09   -4.641E-09   -4.557E-09   -4.473E-09   -4.388E-09   -4.304E-09   -4.219E-09   -4.134E-09
    -4.050E-09   -3.965E-09   -3.880E-09   -3.795E-09   -3.709E-09   -3.624E-09   -3.539E-09   -3.453E-09   -3.368E-09   -3.282E-09
    -3.197E-09   -3.111E-09   -3.026E-09   -2.940E-09   -2.854E-09   -2.769E-09   -2.683E-09   -2.597E-09   -2.512E-09   -2.426E-09
    -2.340E-09   -2.255E-09   -2.169E-09   -2.084E-09   -1.998E-09   -1.913E-09   -1.828E-09   -1.743E-09   -1.658E-09   -1.574E-09
    -1.489E-09   -1.405E-09   -1.321E-09   -1.238E-09   -1.154E-09   -1.071E-09   -9.889E-10   -9.068E-10   -8.250E-10   -7.437E-10
    -6.629E-10   -5.825E-10   -5.026E-10   -4.233E-10   -3.445E-10   -2.663E-10   -1.887E-10   -1.118E-10   -3.544E-11    4.022E-11
     1.152E-10    1.894E-10    2.629E-10    3.356E-10    4.076E-10    4.787E-10    5.490E-10    6.184E-10    6.870E-10    7.546E-10
     8.213E-10    8.871E-10    9.518E-10    1.016E-09    1.078E-09    1.140E-09    1.201E-09    1.260E-09    1.318E-09    1.376E-09
     1.432E-09    1.487E-09    1.540E-09    1.593E-09    1.644E-09    1.693E-09    1.742E-09    1.789E-09    1.835E-09    1.879E-09
     1.922E-09    1.964E-09    2.004E-09    2.043E-09    2.080E-09    2.116E-09    2.150E-09    2.183E-09    2.215E-09    2.245E-09
     2.274E-09    2.301E-09    2.327E-09    2.351E-09    2.375E-09    2.397E-09    2.417E-09    2.436E-09    2.454E-09    2.471E-09
     2.486E-09    2.500E-09    2.512E-09    2.523E-09    2.533E-09    2.542E-09    2.549E-09    2.555E-09    2.560E-09    2.564E-09
     2.566E-09    2.567E-09    2.567E-09    2.566E-09    2.563E-09    2.559E-09    2.554E-09    2.548E-09    2.540E-09    2.532E-09
     2.522E-09    2.511E-09    2.499E-09    2.486E-09    2.472E-09    2.456E-09    2.440E-09    2.422E-09    2.403E-09    2.384E-09
     2.363E-09    2.341E-09    2.318E-09    2.294E-09    2.268E-09    2.242E-09    2.215E-09    2.187E-09    2.158E-09    2.128E-09
     2.096E-09    2.064E-09    2.031E-09    1.997E-09    1.962E-09    1.926E-09    1.890E-09    1.852E-09    1.814E-09    1.775E-09
     1.735E-09    1.694E-09    1.653E-09    1.611E-09    1.569E-09    1.526E-09    1.482E-09    1.438E-09    1.394E-09    1.349E-09
     1.303E-09    1.257E-09    1.211E-09    1.164E-09    1.117E-09    1.070E-09    1.022E-09    9.746E-10    9.266E-10    8.784E-10
     8.300E-10    7.815E-10    7.330E-10    6.844E-10    6.357E-10    5.870E-10    5.384E-10    4.898E-10    4.413E-10    3.929E-10
     3.447E-10    2.966E-10    2.487E-10    2.010E-10    1.536E-10    1.065E-10    5.963E-11    1.314E-11   -3.297E-11   -7.869E-11
    -1.240E-10   -1.688E-10   -2.132E-10   -2.570E-10   -3.003E-10   -3.431E-10   -3.852E-10   -4.267E-10   -4.676E-10   -5.078E-10
    -5.473E-10   -5.861E-10   -6.241E-10   -6.613E-10   -6.978E-10   -7.335E-10   -7.686E-10   -8.029E-10   -8.366E-10   -8.695E-10
    -9.018E-10   -9.335E-10   -9.646E-10   -9.950E-10   -1.025E-09   -1.054E-09   -1.083E-09   -1.111E-09   -1.138E-09   -1.165E-09
    -1.192E-09   -1.218E-09   -1.244E-09   -1.269E-09   -1.293E-09   -1.318E-09   -1.341E-09   -1.365E-09   -1.388E-09   -1.410E-09
    -1.432E-09   -1.454E-09   -1.476E-09   -1.497E-09   -1.518E-09   -1.538E-09   -1.559E-09   -1.579E-09   -1.599E-09   -1.618E-09
    -1.637E-09   -1.657E-09   -1.675E-09   -1.694E-09   -1.713E-09   -1.731E-09   -1.749E-09   -1.768E-09   -1.786E-09   -1.804E-09
    -1.821E-09   -1.839E-09   -1.857E-09   -1.875E-09   -1.892E-09   -1.910E-09   -1.928E-09   -1.945E-09   -1.963E-09   -1.981E-09
    -1.998E-09   -2.016E-09   -2.034E-09   -2.052E-09   -2.070E-09   -2.088E-09   -2.106E-09   -2.125E-09   -2.143E-09   -2.161E-09
    -2.180E-09   -2.198E-09   -2.217E-09   -2.236E-09   -2.254E-09   -2.273E-09   -2.292E-09   -2.310E-09   -2.329E-09   -2.348E-09
    -2.367E-09   -2.386E-09   -2.404E-09   -2.423E-09   -2.442E-09   -2.461E-09   -2.480E-09   -2.498E-09   -2.517E-09   -2.536E-09
    -2.555E-09   -2.573E-09   -2.592E-09   -2.611E-09   -2.629E-09   -2.648E-09   -2.666E-09   -2.685E-09   -2.703E-09   -2.721E-09
    -2.740E-09   -2.758E-09   -2.776E-09   -2.794E-09   -2.812E-09   -2.830E-09   -2.847E-09   -2.865E-09   -2.883E-09   -2.900E-09
    -2.918E-09   -2.935E-09   -2.952E-09   -2.969E-09   -2.986E-09   -3.003E-09   -3.020E-09   -3.036E-09   -3.053E-09   -3.069E-09
    -3.086E-09   -3.102E-09   -3.118E-09
 Ala      Conc. = 6.01E-10
  -6.99812E-09 -6.92753E-09 -6.85165E-09 -6.69322E-09 -6.59628E-09 -6.55321E-09 -6.39887E-09 -6.31275E-09 -6.38561E-09 -6.24496E-09
  -6.12996E-09 -6.19170E-09 -6.13303E-09 -6.05529E-09 -6.02312E-09 -5.97592E-09 -5.91895E-09 -5.85591E-09 -5.78883E-09 -5.71886E-09
  -5.64673E-09 -5.57291E-09 -5.49776E-09 -5.42151E-09 -5.34435E-09 -5.26642E-09 -5.18778E-09 -5.10856E-09 -5.02884E-09 -4.94863E-09
  -4.86802E-09 -4.78702E-09 -4.70567E-09 -4.62403E-09 -4.54209E-09 -4.45987E-09 -4.37743E-09 -4.29477E-09 -4.21189E-09 -4.12884E-09
  -4.04559E-09 -3.96218E-09 -3.87863E-09 -3.79495E-09 -3.71113E-09 -3.62722E-09 -3.54319E-09 -3.45905E-09 -3.37487E-09 -3.29060E-09
  -3.20627E-09 -3.12186E-09 -3.03744E-09 -2.95298E-09 -2.86847E-09 -2.78394E-09 -2.69941E-09 -2.61489E-09 -2.53036E-09 -2.44589E-09
  -2.36142E-09 -2.27698E-09 -2.19259E-09 -2.10829E-09 -2.02408E-09 -1.94000E-09 -1.85608E-09 -1.77234E-09 -1.68880E-09 -1.60549E-09
  -1.52243E-09 -1.43966E-09 -1.35719E-09 -1.27505E-09 -1.19327E-09 -1.11188E-09 -1.03089E-09 -9.50350E-10 -8.70252E-10 -7.90660E-10
  -7.11569E-10 -6.33010E-10 -5.55001E-10 -4.77579E-10 -4.00752E-10 -3.24507E-10 -2.48884E-10 -1.73840E-10 -9.93569E-11 -2.53759E-11
   4.82286E-11  1.21627E-10  1.95189E-10  2.69534E-10  3.45800E-10  4.26270E-10  5.15900E-10  6.27216E-10  7.99980E-10  1.21537E-09
   2.10502E-09  1.85491E-09  1.95146E-09  2.96786E-09  3.13779E-09  3.15377E-09  3.31227E-09  3.45504E-09  3.53970E-09  3.72662E-09
   3.72574E-09  2.89256E-09  3.03494E-09  3.25452E-09  2.54942E-09  2.30050E-09  2.20317E-09  2.16312E-09  2.15037E-09  2.15248E-09
   2.16345E-09  2.17979E-09  2.19953E-09  2.22136E-09  2.24443E-09  2.26816E-09  2.29211E-09  2.31597E-09  2.33951E-09  2.36254E-09
   2.38494E-09  2.40658E-09  2.42738E-09  2.44728E-09  2.46622E-09  2.48415E-09  2.50105E-09  2.51687E-09  2.53160E-09  2.54521E-09
   2.55770E-09  2.56906E-09  2.57926E-09  2.58831E-09  2.59620E-09  2.60294E-09  2.60852E-09  2.61294E-09  2.61622E-09  2.61834E-09
   2.61932E-09  2.61918E-09  2.61793E-09  2.61558E-09  2.61218E-09  2.60776E-09  2.60235E-09  2.59606E-09  2.58900E-09  2.58134E-09
   2.57343E-09  2.56582E-09  2.55966E-09  2.55756E-09  2.56657E-09  2.61234E-09  2.84075E-09  3.43297E-09  3.32882E-09  3.23380E-09
   3.24205E-09  3.25147E-09  3.22871E-09  3.22673E-09  3.20708E-09  3.17989E-09  3.21232E-09  3.13450E-09  2.48418E-09  2.29925E-09
   2.21530E-09  2.15768E-09  2.10969E-09  2.06590E-09  2.02405E-09  1.98305E-09  1.94235E-09  1.90161E-09  1.86064E-09  1.81933E-09
   1.77760E-09  1.73542E-09  1.69277E-09  1.64963E-09  1.60600E-09  1.56190E-09  1.51733E-09  1.47231E-09  1.42686E-09  1.38100E-09
   1.33475E-09  1.28813E-09  1.24116E-09  1.19388E-09  1.14631E-09  1.09846E-09  1.05037E-09  1.00208E-09  9.53589E-10  9.04939E-10
   8.56156E-10  8.07271E-10  7.58309E-10  7.09300E-10  6.60262E-10  6.11233E-10  5.62244E-10  5.13315E-10  4.64474E-10  4.15756E-10
   3.67189E-10  3.18798E-10  2.70612E-10  2.22656E-10  1.74958E-10  1.27559E-10  8.04706E-11  3.37270E-11 -1.26361E-11 -5.85975E-11
  -1.04130E-10 -1.49202E-10 -1.93785E-10 -2.37858E-10 -2.81384E-10 -3.24338E-10 -3.66695E-10 -4.08425E-10 -4.49502E-10 -4.89892E-10
  -5.29577E-10 -5.68522E-10 -6.06704E-10 -6.44120E-10 -6.80788E-10 -7.16722E-10 -7.51936E-10 -7.86442E-10 -8.20257E-10 -8.53397E-10
  -8.85874E-10 -9.17707E-10 -9.48908E-10 -9.79490E-10 -1.00947E-09 -1.03886E-09 -1.06768E-09 -1.09594E-09 -1.12366E-09 -1.15084E-09
  -1.17752E-09 -1.20369E-09 -1.22938E-09 -1.25459E-09 -1.27936E-09 -1.30368E-09 -1.32757E-09 -1.35105E-09 -1.37413E-09 -1.39683E-09
  -1.41916E-09 -1.44113E-09 -1.46277E-09 -1.48408E-09 -1.50508E-09 -1.52578E-09 -1.54620E-09 -1.56635E-09 -1.58624E-09 -1.60590E-09
  -1.62532E-09 -1.64455E-09 -1.66357E-09 -1.68241E-09 -1.70107E-09 -1.71959E-09 -1.73796E-09 -1.75620E-09 -1.77434E-09 -1.79237E-09
  -1.81032E-09 -1.82818E-09 -1.84600E-09 -1.86377E-09 -1.88151E-09 -1.89924E-09 -1.91696E-09 -1.93469E-09 -1.95244E-09 -1.97023E-09
  -1.98808E-09 -2.00599E-09 -2.02396E-09 -2.04203E-09 -2.06017E-09 -2.07839E-09 -2.09668E-09 -2.11504E-09 -2.13347E-09 -2.15195E-09
  -2.17049E-09 -2.18907E-09 -2.20771E-09 -2.22639E-09 -2.24510E-09 -2.26385E-09 -2.28263E-09 -2.30144E-09 -2.32027E-09 -2.33912E-09
  -2.35798E-09 -2.37685E-09 -2.39573E-09 -2.41461E-09 -2.43348E-09 -2.45235E-09 -2.47121E-09 -2.49006E-09 -2.50889E-09 -2.52770E-09
  -2.54648E-09 -2.56524E-09 -2.58395E-09 -2.60263E-09 -2.62127E-09 -2.63987E-09 -2.65841E-09 -2.67691E-09 -2.69534E-09 -2.71372E-09
  -2.73203E-09 -2.75027E-09 -2.76845E-09 -2.78654E-09 -2.80456E-09 -2.82249E-09 -2.84034E-09 -2.85810E-09 -2.87576E-09 -2.89333E-09
  -2.91079E-09 -2.92815E-09 -2.94540E-09 -2.96254E-09 -2.97957E-09 -2.99647E-09 -3.01326E-09 -3.02992E-09 -3.04644E-09 -3.06284E-09
  -3.07910E-09 -3.09522E-09 -3.11120E-09
 Asp      Conc. = 1.08E-10
  -7.19262E-09 -7.12651E-09 -7.05502E-09 -6.99377E-09 -6.91658E-09 -6.85240E-09 -6.78035E-09 -6.72087E-09 -6.65268E-09 -6.58042E-09
  -6.50594E-09 -6.43006E-09 -6.35329E-09 -6.27550E-09 -6.19703E-09 -6.11811E-09 -6.03878E-09 -5.95905E-09 -5.87898E-09 -5.79858E-09
  -5.71787E-09 -5.63687E-09 -5.55559E-09 -5.47407E-09 -5.39231E-09 -5.31031E-09 -5.22805E-09 -5.14558E-09 -5.06289E-09 -4.97993E-09
  -4.89673E-09 -4.81319E-09 -4.72923E-09 -4.64468E-09 -4.55897E-09 -4.47048E-09 -4.37335E-09 -4.28738E-09 -4.19116E-09 -4.11144E-09
  -4.03085E-09 -3.94573E-09 -3.84892E-09 -3.73531E-09 -3.62565E-09 -3.49059E-09 -3.41567E-09 -3.35016E-09 -3.22836E-09 -3.14061E-09
  -3.05552E-09 -2.95192E-09 -2.85091E-09 -2.76775E-09 -2.69728E-09 -2.60832E-09 -2.57358E-09 -2.49538E-09 -2.39470E-09 -2.33234E-09
  -2.26330E-09 -2.18095E-09 -2.10713E-09 -2.03166E-09 -1.94549E-09 -1.85307E-09 -1.77820E-09 -1.70013E-09 -1.62011E-09 -1.53911E-09
  -1.45760E-09 -1.37582E-09 -1.29395E-09 -1.21209E-09 -1.13032E-09 -1.04873E-09 -9.67341E-10 -8.86243E-10 -8.05431E-10 -7.24988E-10
  -6.44920E-10 -5.65267E-10 -4.86057E-10 -4.07339E-10 -3.29135E-10 -2.51450E-10 -1.74348E-10 -9.78273E-11 -2.19267E-11  5.33252E-11
   1.27915E-10  2.01788E-10  2.74943E-10  3.47356E-10  4.18992E-10  4.89831E-10  5.59844E-10  6.29012E-10  6.97305E-10  7.64689E-10
   8.31160E-10  8.96681E-10  9.61225E-10  1.02478E-09  1.08731E-09  1.14879E-09  1.20921E-09  1.26853E-09  1.32672E-09  1.38378E-09
   1.43966E-09  1.49437E-09  1.54784E-09  1.60010E-09  1.65107E-09  1.70076E-09  1.74914E-09  1.79618E-09  1.84186E-09  1.88611E-09
   1.92902E-09  1.97048E-09  2.01049E-09  2.04906E-09  2.08619E-09  2.12190E-09  2.15619E-09  2.18906E-09  2.22052E-09  2.25058E-09
   2.27925E-09  2.30652E-09  2.33242E-09  2.35694E-09  2.38009E-09  2.40188E-09  2.42232E-09  2.44141E-09  2.45916E-09  2.47557E-09
   2.49067E-09  2.50444E-09  2.51691E-09  2.52807E-09  2.53794E-09  2.54653E-09  2.55384E-09  2.55987E-09  2.56466E-09  2.56818E-09
   2.57046E-09  2.57152E-09  2.57135E-09  2.56996E-09  2.56738E-09  2.56362E-09  2.55869E-09  2.55261E-09  2.54541E-09  2.53713E-09
   2.52785E-09  2.51765E-09  2.50674E-09  2.49557E-09  2.48534E-09  2.48024E-09  2.50376E-09  2.60248E-09  2.56912E-09  2.53456E-09
   2.51873E-09  2.50280E-09  2.47965E-09  2.45970E-09  2.43578E-09  2.40902E-09  2.39252E-09  2.36140E-09  2.21604E-09  2.15641E-09
   2.11556E-09  2.07884E-09  2.04311E-09  2.00738E-09  1.97125E-09  1.93455E-09  1.89721E-09  1.85918E-09  1.82046E-09  1.78106E-09
   1.74097E-09  1.70022E-09  1.65883E-09  1.61682E-09  1.57422E-09  1.53104E-09  1.48732E-09  1.44309E-09  1.39836E-09  1.35318E-09
   1.30756E-09  1.26153E-09  1.21513E-09  1.16837E-09  1.12130E-09  1.07393E-09  1.02629E-09  9.78430E-10  9.30357E-10  8.82105E-10
   8.33704E-10  7.85186E-10  7.36578E-10  6.87909E-10  6.39202E-10  5.90492E-10  5.41811E-10  4.93182E-10  4.44631E-10  3.96194E-10
   3.47900E-10  2.99774E-10  2.51846E-10  2.04141E-10  1.56687E-10  1.09526E-10  6.26703E-11  1.61530E-11 -2.99891E-11 -7.57344E-11
