 LCModel (Version 6.3-1R) Copyright: S.W. Provencher.          Ref.: Magn. Reson. Med. 30:672-679 (1993).                
 onepulse 24x18_ftSpec_smooth_lcm
 26 lines in following concentration table = NCONC+1
    Conc.  %SD /Cr+PCr  Metabolite                                         
    0.000 999%   0.000 Ala                                                 
    0.000 999%   0.000 Asp                                                 
 4.60E-10  71%   1.000 Cr                                                  
 2.96E-10 297%   0.645 GABA                                                
 1.67E-09  27%   3.640 Glc                                                 
    0.000 999%   0.000 Gln                                                 
 2.43E-09  30%   5.290 Glu                                                 
    0.000 999%   0.000 Glyc                                                
    0.000 999%   0.000 GPC                                                 
 1.60E-10 177%   0.349 GSH                                                 
    0.000 999%   0.000 Ins                                                 
    0.000 999%   0.000 Lac                                                 
    0.000 999%   0.000 NAAG                                                
 2.08E-10 127%   0.453 NAA                                                 
 1.22E-10 369%   0.265 PCh                                                 
    0.000 999%   0.000 PCr                                                 
    0.000 999%   0.000 PE                                                  
    0.000 999%   0.000 Scyllo                                              
 2.66E-10 326%   0.579 Ser                                                 
    0.000 999%   0.000 Tau                                                 
 1.22E-10  62%   0.265 GPC+PCh                                             
 2.08E-10 127%   0.453 NAA+NAAG                                            
    0.000 999%   0.000 Ins+Glyc                                            
 4.60E-10  71%   1.000 Cr+PCr                                              
 2.43E-09  30%   5.290 Glu+Gln                                             
   6 lines in following misc. output table
  FWHM = 0.045 ppm    S/N =   3                                            
  Data shift = 0.268 ppm                                                   
  Ph: -53 deg      -8.8 deg/ppm                                            
  alphaB,S = 5.0E-01,   1.3E+01                                            
    8 spline knots.   Ns = 5(1)                                            
  ( 9) 3 infls.   (11) 3 extrs.                                            
  363 points on ppm-axis = NY
      4.250000     4.238821     4.227641     4.216462     4.205282     4.194103     4.182923     4.171744     4.160564     4.149385
      4.138206     4.127026     4.115847     4.104667     4.093488     4.082308     4.071129     4.059949     4.048770     4.037591
      4.026411     4.015232     4.004052     3.992873     3.981693     3.970514     3.959334     3.948155     3.936975     3.925796
      3.914617     3.903437     3.892258     3.881078     3.869899     3.858719     3.847540     3.836360     3.825181     3.814002
      3.802822     3.791643     3.780463     3.769284     3.758104     3.746925     3.735745     3.724566     3.713387     3.702207
      3.691028     3.679848     3.668669     3.657489     3.646310     3.635130     3.623951     3.612772     3.601592     3.590413
      3.579233     3.568054     3.556874     3.545695     3.534515     3.523336     3.512156     3.500977     3.489798     3.478618
      3.467439     3.456259     3.445080     3.433900     3.422721     3.411541     3.400362     3.389183     3.378003     3.366824
      3.355644     3.344465     3.333285     3.322106     3.310926     3.299747     3.288568     3.277388     3.266209     3.255029
      3.243850     3.232670     3.221491     3.210311     3.199132     3.187953     3.176773     3.165594     3.154414     3.143235
      3.132055     3.120876     3.109696     3.098517     3.087337     3.076158     3.064979     3.053799     3.042620     3.031440
      3.020261     3.009081     2.997902     2.986722     2.975543     2.964364     2.953184     2.942005     2.930825     2.919646
      2.908466     2.897287     2.886107     2.874928     2.863749     2.852569     2.841390     2.830210     2.819031     2.807851
      2.796672     2.785492     2.774313     2.763134     2.751954     2.740775     2.729595     2.718416     2.707236     2.696057
      2.684877     2.673698     2.662519     2.651339     2.640160     2.628980     2.617801     2.606621     2.595442     2.584262
      2.573083     2.561903     2.550724     2.539545     2.528365     2.517186     2.506006     2.494827     2.483647     2.472468
      2.461288     2.450109     2.438930     2.427750     2.416571     2.405391     2.394212     2.383032     2.371853     2.360673
      2.349494     2.338315     2.327135     2.315956     2.304776     2.293597     2.282417     2.271238     2.260058     2.248879
      2.237700     2.226520     2.215341     2.204161     2.192982     2.181802     2.170623     2.159443     2.148264     2.137084
      2.125905     2.114726     2.103546     2.092367     2.081187     2.070008     2.058828     2.047649     2.036469     2.025290
      2.014111     2.002931     1.991752     1.980572     1.969393     1.958213     1.947034     1.935854     1.924675     1.913496
      1.902316     1.891137     1.879957     1.868778     1.857598     1.846419     1.835239     1.824060     1.812881     1.801701
      1.790522     1.779342     1.768163     1.756983     1.745804     1.734624     1.723445     1.712265     1.701086     1.689907
      1.678727     1.667548     1.656368     1.645189     1.634009     1.622830     1.611650     1.600471     1.589292     1.578112
      1.566933     1.555753     1.544574     1.533394     1.522215     1.511035     1.499856     1.488677     1.477497     1.466318
      1.455138     1.443959     1.432779     1.421600     1.410420     1.399241     1.388062     1.376882     1.365703     1.354523
      1.343344     1.332164     1.320985     1.309805     1.298626     1.287446     1.276267     1.265088     1.253908     1.242729
      1.231549     1.220370     1.209190     1.198011     1.186831     1.175652     1.164473     1.153293     1.142114     1.130934
      1.119755     1.108575     1.097396     1.086216     1.075037     1.063858     1.052678     1.041499     1.030319     1.019140
      1.007960     0.996781     0.985601     0.974422     0.963243     0.952063     0.940884     0.929704     0.918525     0.907345
      0.896166     0.884986     0.873807     0.862628     0.851448     0.840269     0.829089     0.817910     0.806730     0.795551
      0.784371     0.773192     0.762012     0.750833     0.739654     0.728474     0.717295     0.706115     0.694936     0.683756
      0.672577     0.661397     0.650218     0.639039     0.627859     0.616680     0.605500     0.594321     0.583141     0.571962
      0.560782     0.549603     0.538424     0.527244     0.516065     0.504885     0.493706     0.482526     0.471347     0.460167
      0.448988     0.437809     0.426629     0.415450     0.404270     0.393091     0.381911     0.370732     0.359552     0.348373
      0.337193     0.326014     0.314835     0.303655     0.292476     0.281296     0.270117     0.258937     0.247758     0.236578
      0.225399     0.214220     0.203040
 NY phased data points follow
   1.03816E-08  1.10519E-08  1.19708E-08  1.24855E-08  1.42285E-08  1.51642E-08  1.47843E-08  1.52345E-08  1.36150E-08  1.18121E-08
   9.32969E-09  8.32147E-09  7.58954E-09  6.76526E-09  7.34003E-09  7.30573E-09  6.99800E-09  7.92218E-09  7.65989E-09  8.75986E-09
   7.96401E-09  8.03191E-09  8.25071E-09  7.18455E-09  7.42621E-09  7.26666E-09  6.93408E-09  7.01447E-09  6.07414E-09  5.98327E-09
   7.26218E-09  7.14321E-09  7.72349E-09  6.89681E-09  6.06269E-09  6.16285E-09  6.26209E-09  6.76457E-09  7.73365E-09  7.88538E-09
   6.86952E-09  4.84173E-09  3.68785E-09  2.59767E-09  1.92204E-09  1.88183E-09  2.31482E-09  1.85869E-09  1.90473E-09  1.89781E-09
   2.26428E-09  1.92587E-09  2.21923E-09  2.33783E-09  1.85838E-09  2.00972E-09  2.80425E-09  3.28076E-09  3.40611E-09  3.82711E-09
   3.06698E-09  2.86553E-09  3.07999E-09  3.73824E-09  4.08734E-09  4.52091E-09  5.20251E-09  6.74924E-09  8.00645E-09  9.41970E-09
   1.02933E-08  1.04534E-08  6.84430E-09  4.66562E-09  2.76972E-09  2.00183E-09  1.44506E-09  1.50181E-09  1.02386E-09  1.63159E-09
   1.66136E-09  2.09947E-09  2.98290E-09  4.27437E-09  5.39737E-09  7.67928E-09  9.57971E-09  9.89609E-09  8.99716E-09  6.37319E-09
   4.25852E-09  2.98975E-09  2.14125E-09  2.34565E-09  1.30614E-09  1.25863E-09  7.62506E-10  9.92637E-11  8.47631E-11  7.58698E-11
   7.35523E-11 -1.72842E-10 -4.70588E-10  3.18515E-11 -7.87849E-10  3.98716E-10 -4.53536E-10  3.42852E-10  4.68977E-10  1.02763E-10
   6.63508E-10 -3.03627E-10  3.07237E-10  1.62315E-10 -2.21730E-10 -3.05667E-12 -7.67908E-10 -5.17207E-10 -3.09956E-10  3.80111E-10
   8.99949E-10  1.31434E-09  5.31245E-10  1.06351E-09  1.28612E-09  1.60601E-09  1.89126E-09  1.13005E-09  3.18116E-10  5.14563E-10
   2.81423E-11 -6.54984E-10 -2.21596E-10 -1.09815E-09  2.36351E-10  8.11259E-10  1.57981E-09  2.40218E-10  6.00426E-10  9.20129E-10
   1.00510E-09  1.29828E-10  4.96442E-10  6.98525E-10  9.38274E-10  8.12162E-10  2.02775E-09  2.20392E-09  2.68180E-09  2.68892E-09
   2.49170E-09  2.11501E-09  2.95780E-09  3.12326E-09  3.17492E-09  3.04714E-09  2.83447E-09  2.27486E-09  2.84119E-09  2.51265E-09
   1.98733E-09  2.82541E-09  2.52606E-09  3.08103E-09  3.39893E-09  3.12180E-09  3.50192E-09  3.15430E-09  3.48905E-09  3.43393E-09
   2.92287E-09  3.67528E-09  4.56378E-09  5.39724E-09  7.00262E-09  8.80439E-09  1.04010E-08  1.18036E-08  1.30207E-08  1.08003E-08
   8.00797E-09  4.45347E-09  2.36611E-09  8.26409E-10 -5.37379E-10 -2.82469E-10 -1.14868E-09 -1.76494E-09 -2.80135E-09 -2.73015E-09
  -3.35876E-09 -4.20716E-09 -4.23388E-09 -5.23323E-09 -5.08057E-09 -5.99921E-09 -6.70392E-09 -7.13234E-09 -7.67121E-09 -9.24313E-09
  -8.93996E-09 -1.10720E-08 -1.10407E-08 -1.27649E-08 -1.28275E-08 -1.41421E-08 -1.42853E-08 -1.45598E-08 -1.46494E-08 -1.47420E-08
  -1.43192E-08 -1.36491E-08 -1.28953E-08 -1.17828E-08 -1.13361E-08 -9.81026E-09 -7.80414E-09 -6.69541E-09 -4.31849E-09 -4.32132E-09
  -2.42878E-09 -1.52450E-09 -3.97379E-10 -1.92159E-10  4.52981E-10 -2.98820E-11  4.97813E-10 -5.51418E-10 -4.10591E-10 -4.32467E-10
  -1.75394E-09 -1.88819E-09 -8.18880E-10 -1.00455E-09 -8.37776E-10 -5.49892E-10 -7.57035E-10 -7.51228E-10 -1.03658E-09 -7.04230E-10
  -1.33698E-09 -1.29105E-09 -1.68589E-09 -1.37700E-09 -7.81633E-10 -5.98587E-10 -1.11309E-09 -5.77316E-10 -6.69255E-10 -6.40107E-10
  -4.62307E-10 -8.42823E-10 -1.59611E-09 -1.52280E-09 -9.40470E-10 -1.26698E-09 -6.87035E-10 -7.66572E-10 -2.64649E-10 -5.98835E-10
  -4.11166E-10 -1.19313E-10 -2.55853E-10 -2.76995E-10 -7.37308E-10 -4.75649E-10 -1.61844E-09 -6.39538E-10 -1.31089E-09 -1.63233E-09
  -1.71009E-09 -1.13011E-09 -1.01133E-09 -9.23919E-10 -4.63544E-10 -4.05487E-10  4.03618E-10  7.14800E-11  3.74442E-10  4.54692E-11
  -1.77900E-10  4.07635E-10 -9.99379E-11 -2.54908E-10 -1.35871E-11 -4.64803E-10 -5.35100E-10 -9.23207E-10 -9.94529E-10 -5.22755E-10
  -1.21172E-09 -9.46163E-10 -1.13450E-09 -8.31086E-10 -5.55867E-10 -9.65821E-10  7.34961E-11 -5.56551E-10 -6.12034E-10 -4.50686E-10
  -1.11098E-10 -6.62543E-10 -1.62743E-10 -2.05300E-10 -9.72847E-10 -1.22298E-09 -3.06190E-10 -8.06915E-10 -7.80012E-10 -3.06396E-10
  -6.64106E-10 -3.89518E-10 -9.42899E-10 -9.20584E-10 -3.46923E-10 -4.18415E-10 -5.87206E-10 -6.73672E-10 -7.50587E-10 -1.31275E-10
  -7.40637E-10  5.11434E-10 -6.83052E-10 -3.51696E-10 -5.55825E-10 -3.57579E-10  3.10822E-10 -9.45473E-10 -3.10502E-10 -1.83845E-10
   9.27118E-11  1.52655E-10 -4.08778E-10 -4.84422E-10 -3.05909E-10 -6.14053E-10  7.93386E-10 -2.21415E-10 -7.40373E-10 -1.78046E-10
  -2.47008E-10 -3.21123E-10 -8.93644E-11 -6.26206E-10 -1.87198E-10 -1.12995E-10 -3.93094E-10 -3.42822E-10  8.11261E-11 -4.88243E-11
  -8.23710E-10  4.88601E-10 -2.79900E-10 -1.19513E-10 -4.09361E-10 -5.59408E-10  1.64640E-11 -3.41098E-10 -2.06598E-10 -5.21293E-11
  -2.87252E-10  5.05358E-10  7.18169E-11
 NY points of the fit to the data follow
   1.19048E-08  1.21395E-08  1.15188E-08  1.12240E-08  1.20225E-08  1.29014E-08  1.33723E-08  1.35828E-08  1.30017E-08  1.12666E-08
   1.03889E-08  9.18780E-09  8.29882E-09  7.89825E-09  7.58483E-09  7.52310E-09  7.37546E-09  7.39675E-09  7.57127E-09  7.84190E-09
   8.41550E-09  8.97730E-09  9.41050E-09  9.74929E-09  9.26712E-09  7.66616E-09  6.19225E-09  5.62252E-09  5.62780E-09  5.97800E-09
   6.35871E-09  6.98994E-09  7.72797E-09  7.55640E-09  6.15035E-09  5.15260E-09  5.25797E-09  5.53640E-09  5.87537E-09  6.39102E-09
   6.75628E-09  6.38301E-09  4.64317E-09  3.26339E-09  2.85520E-09  2.57405E-09  2.27375E-09  1.98702E-09  1.83501E-09  1.77938E-09
   1.77332E-09  1.78094E-09  1.77390E-09  1.75752E-09  1.75126E-09  1.77717E-09  1.89118E-09  2.07026E-09  2.29051E-09  2.60242E-09
   2.92165E-09  3.05931E-09  3.48655E-09  4.13370E-09  4.60478E-09  5.27099E-09  6.10230E-09  6.87926E-09  7.59324E-09  7.94630E-09
   7.83077E-09  7.84367E-09  7.77695E-09  6.36731E-09  5.04057E-09  4.51124E-09  3.66832E-09  3.59879E-09  3.99476E-09  4.39737E-09
   4.96112E-09  5.60560E-09  6.24688E-09  6.80489E-09  6.88759E-09  6.86226E-09  6.63112E-09  5.71237E-09  4.21121E-09  3.21898E-09
   2.76728E-09  2.30290E-09  2.11544E-09  1.86517E-09  1.59234E-09  1.54870E-09  1.43329E-09  1.24082E-09  1.16004E-09  1.09049E-09
   1.01204E-09  9.56510E-10  9.16424E-10  8.87015E-10  8.65488E-10  8.48623E-10  8.35407E-10  8.25087E-10  8.17049E-10  8.10814E-10
   8.05937E-10  8.01946E-10  7.98609E-10  7.95698E-10  7.93044E-10  7.90544E-10  7.87987E-10  7.85203E-10  7.82065E-10  7.78467E-10
   7.74278E-10  7.69443E-10  7.63845E-10  7.57399E-10  7.50018E-10  7.41621E-10  7.32126E-10  7.21471E-10  7.09576E-10  6.96376E-10
   6.81799E-10  6.65779E-10  6.48263E-10  6.29184E-10  6.08480E-10  5.86082E-10  5.61959E-10  5.36028E-10  5.08246E-10  4.78550E-10
   4.46906E-10  4.13262E-10  3.77570E-10  3.39763E-10  2.99827E-10  2.57716E-10  2.13434E-10  1.67081E-10  1.18772E-10  6.86300E-11
   1.67899E-11 -3.66002E-11 -9.13680E-11 -1.47322E-10 -2.04233E-10 -2.61827E-10 -3.19759E-10 -3.77574E-10 -4.34666E-10 -4.90176E-10
  -5.42817E-10 -5.90559E-10 -6.29882E-10 -6.54036E-10 -6.47898E-10 -5.68333E-10 -2.30756E-10  9.60917E-10  2.30364E-09  2.76187E-09
   2.99250E-09  3.67960E-09  4.88211E-09  6.56772E-09  8.87145E-09  1.15938E-08  1.34133E-08  1.17254E-08  5.52977E-09  4.36232E-10
  -9.17348E-10 -1.47946E-09 -1.79885E-09 -2.01649E-09 -2.18277E-09 -2.31975E-09 -2.43843E-09 -2.54483E-09 -2.64248E-09 -2.73355E-09
  -2.81944E-09 -2.90107E-09 -2.97905E-09 -3.05380E-09 -3.12561E-09 -3.19468E-09 -3.26113E-09 -3.32505E-09 -3.38647E-09 -3.44542E-09
  -3.50189E-09 -3.55587E-09 -3.60734E-09 -3.65624E-09 -3.70253E-09 -3.74618E-09 -3.78711E-09 -3.82527E-09 -3.86059E-09 -3.89302E-09
  -3.92247E-09 -3.94888E-09 -3.97218E-09 -3.99230E-09 -4.00915E-09 -4.02266E-09 -4.03277E-09 -4.03939E-09 -4.04246E-09 -4.04201E-09
  -4.03814E-09 -4.03093E-09 -4.02046E-09 -4.00683E-09 -3.99010E-09 -3.97037E-09 -3.94773E-09 -3.92224E-09 -3.89401E-09 -3.86311E-09
  -3.82963E-09 -3.79364E-09 -3.75524E-09 -3.71451E-09 -3.67152E-09 -3.62637E-09 -3.57913E-09 -3.52989E-09 -3.47873E-09 -3.42573E-09
  -3.37097E-09 -3.31455E-09 -3.25653E-09 -3.19701E-09 -3.13606E-09 -3.07377E-09 -3.01022E-09 -2.94549E-09 -2.87967E-09 -2.81283E-09
  -2.74507E-09 -2.67645E-09 -2.60708E-09 -2.53701E-09 -2.46633E-09 -2.39516E-09 -2.32353E-09 -2.25155E-09 -2.17930E-09 -2.10685E-09
  -2.03430E-09 -1.96173E-09 -1.88921E-09 -1.81682E-09 -1.74466E-09 -1.67279E-09 -1.60132E-09 -1.53031E-09 -1.45984E-09 -1.39001E-09
  -1.32089E-09 -1.25256E-09 -1.18511E-09 -1.11862E-09 -1.05317E-09 -9.88837E-10 -9.25709E-10 -8.63879E-10 -8.03405E-10 -7.44385E-10
  -6.86901E-10 -6.31031E-10 -5.76863E-10 -5.24464E-10 -4.73930E-10 -4.25341E-10 -3.78781E-10 -3.34310E-10 -2.92045E-10 -2.52045E-10
  -2.14389E-10 -1.79122E-10 -1.46175E-10 -1.15502E-10 -8.70412E-11 -6.07587E-11 -3.65689E-11 -1.44441E-11  5.68323E-12  2.38647E-11
   4.01485E-11  5.46006E-11  6.72590E-11  7.81910E-11  8.74527E-11  9.50925E-11  1.01158E-10  1.05705E-10  1.08802E-10  1.10495E-10
   1.10832E-10  1.09880E-10  1.07672E-10  1.04288E-10  9.97626E-11  9.41618E-11  8.75287E-11  7.99337E-11  7.14158E-11  6.20324E-11
   5.18348E-11  4.09040E-11  2.92546E-11  1.69586E-11  4.07691E-12 -9.32854E-12 -2.32425E-11 -3.75768E-11 -5.22957E-11 -6.73203E-11
  -8.26251E-11 -9.81396E-11 -1.13802E-10 -1.29570E-10 -1.45399E-10 -1.61220E-10 -1.76989E-10 -1.92634E-10 -2.08132E-10 -2.23374E-10
  -2.38373E-10 -2.53022E-10 -2.67303E-10 -2.81148E-10 -2.94465E-10 -3.07279E-10 -3.19469E-10 -3.31023E-10 -3.41849E-10 -3.51923E-10
  -3.61186E-10 -3.69564E-10 -3.77023E-10 -3.83495E-10 -3.88943E-10 -3.93288E-10 -3.96515E-10 -3.98526E-10 -3.99286E-10 -3.98753E-10
  -3.96846E-10 -3.93531E-10 -3.88764E-10
 NY background values follow
     2.919E-09    2.868E-09    2.817E-09    2.765E-09    2.713E-09    2.661E-09    2.608E-09    2.556E-09    2.503E-09    2.450E-09
     2.396E-09    2.343E-09    2.290E-09    2.236E-09    2.183E-09    2.129E-09    2.076E-09    2.022E-09    1.969E-09    1.916E-09
     1.862E-09    1.809E-09    1.756E-09    1.704E-09    1.651E-09    1.599E-09    1.547E-09    1.496E-09    1.444E-09    1.393E-09
     1.343E-09    1.293E-09    1.243E-09    1.194E-09    1.145E-09    1.097E-09    1.049E-09    1.002E-09    9.554E-10    9.094E-10
     8.642E-10    8.195E-10    7.756E-10    7.324E-10    6.899E-10    6.482E-10    6.073E-10    5.672E-10    5.280E-10    4.897E-10
     4.522E-10    4.157E-10    3.801E-10    3.456E-10    3.120E-10    2.795E-10    2.480E-10    2.176E-10    1.883E-10    1.601E-10
     1.332E-10    1.073E-10    8.276E-11    5.941E-11    3.735E-11    1.656E-11   -2.897E-12   -2.102E-11   -3.777E-11   -5.312E-11
    -6.705E-11   -7.954E-11   -9.053E-11   -1.000E-10   -1.081E-10   -1.147E-10   -1.199E-10   -1.238E-10   -1.265E-10   -1.279E-10
    -1.282E-10   -1.274E-10   -1.256E-10   -1.227E-10   -1.189E-10   -1.143E-10   -1.088E-10   -1.026E-10   -9.560E-11   -8.798E-11
    -7.974E-11   -7.095E-11   -6.167E-11   -5.193E-11   -4.181E-11   -3.135E-11   -2.061E-11   -9.648E-12    1.490E-12    1.275E-11
     2.406E-11    3.539E-11    4.667E-11    5.786E-11    6.888E-11    7.970E-11    9.026E-11    1.005E-10    1.104E-10    1.198E-10
     1.288E-10    1.372E-10    1.450E-10    1.522E-10    1.587E-10    1.644E-10    1.693E-10    1.734E-10    1.765E-10    1.787E-10
     1.799E-10    1.799E-10    1.789E-10    1.766E-10    1.731E-10    1.683E-10    1.622E-10    1.546E-10    1.456E-10    1.350E-10
     1.229E-10    1.092E-10    9.379E-11    7.664E-11    5.771E-11    3.693E-11    1.426E-11   -1.036E-11   -3.699E-11   -6.569E-11
    -9.650E-11   -1.295E-10   -1.647E-10   -2.022E-10   -2.420E-10   -2.842E-10   -3.288E-10   -3.757E-10   -4.249E-10   -4.762E-10
    -5.297E-10   -5.851E-10   -6.425E-10   -7.017E-10   -7.626E-10   -8.253E-10   -8.895E-10   -9.552E-10   -1.022E-09   -1.091E-09
    -1.161E-09   -1.232E-09   -1.304E-09   -1.377E-09   -1.451E-09   -1.525E-09   -1.601E-09   -1.677E-09   -1.754E-09   -1.832E-09
    -1.910E-09   -1.988E-09   -2.066E-09   -2.145E-09   -2.224E-09   -2.302E-09   -2.381E-09   -2.460E-09   -2.538E-09   -2.616E-09
    -2.694E-09   -2.771E-09   -2.848E-09   -2.924E-09   -2.999E-09   -3.074E-09   -3.148E-09   -3.220E-09   -3.292E-09   -3.363E-09
    -3.432E-09   -3.500E-09   -3.567E-09   -3.632E-09   -3.695E-09   -3.758E-09   -3.818E-09   -3.876E-09   -3.933E-09   -3.988E-09
    -4.041E-09   -4.091E-09   -4.140E-09   -4.186E-09   -4.230E-09   -4.271E-09   -4.310E-09   -4.346E-09   -4.379E-09   -4.410E-09
    -4.438E-09   -4.463E-09   -4.485E-09   -4.504E-09   -4.519E-09   -4.532E-09   -4.541E-09   -4.546E-09   -4.548E-09   -4.547E-09
    -4.542E-09   -4.534E-09   -4.523E-09   -4.509E-09   -4.491E-09   -4.471E-09   -4.447E-09   -4.421E-09   -4.392E-09   -4.361E-09
    -4.327E-09   -4.290E-09   -4.251E-09   -4.210E-09   -4.167E-09   -4.121E-09   -4.073E-09   -4.023E-09   -3.972E-09   -3.918E-09
    -3.863E-09   -3.806E-09   -3.748E-09   -3.688E-09   -3.627E-09   -3.564E-09   -3.500E-09   -3.435E-09   -3.369E-09   -3.302E-09
    -3.233E-09   -3.164E-09   -3.095E-09   -3.024E-09   -2.953E-09   -2.882E-09   -2.810E-09   -2.738E-09   -2.665E-09   -2.592E-09
    -2.519E-09   -2.447E-09   -2.374E-09   -2.301E-09   -2.229E-09   -2.156E-09   -2.085E-09   -2.013E-09   -1.943E-09   -1.873E-09
    -1.803E-09   -1.735E-09   -1.667E-09   -1.600E-09   -1.534E-09   -1.470E-09   -1.406E-09   -1.344E-09   -1.284E-09   -1.224E-09
    -1.167E-09   -1.111E-09   -1.056E-09   -1.004E-09   -9.528E-10   -9.039E-10   -8.571E-10   -8.124E-10   -7.699E-10   -7.297E-10
    -6.918E-10   -6.563E-10   -6.231E-10   -5.922E-10   -5.636E-10   -5.370E-10   -5.126E-10   -4.903E-10   -4.699E-10   -4.515E-10
    -4.350E-10   -4.203E-10   -4.075E-10   -3.963E-10   -3.868E-10   -3.790E-10   -3.727E-10   -3.679E-10   -3.646E-10   -3.627E-10
    -3.621E-10   -3.629E-10   -3.648E-10   -3.680E-10   -3.723E-10   -3.777E-10   -3.841E-10   -3.915E-10   -3.998E-10   -4.089E-10
    -4.189E-10   -4.296E-10   -4.411E-10   -4.531E-10   -4.658E-10   -4.790E-10   -4.927E-10   -5.068E-10   -5.213E-10   -5.361E-10
    -5.512E-10   -5.665E-10   -5.819E-10   -5.974E-10   -6.131E-10   -6.287E-10   -6.442E-10   -6.596E-10   -6.749E-10   -6.899E-10
    -7.047E-10   -7.191E-10   -7.331E-10   -7.468E-10   -7.599E-10   -7.724E-10   -7.844E-10   -7.957E-10   -8.063E-10   -8.162E-10
    -8.252E-10   -8.333E-10   -8.405E-10   -8.468E-10   -8.520E-10   -8.561E-10   -8.591E-10   -8.609E-10   -8.614E-10   -8.606E-10
    -8.584E-10   -8.549E-10   -8.499E-10
 Cr       Conc. = 4.60E-10
   5.44627E-09  5.47773E-09  4.66952E-09  3.38094E-09  3.02614E-09  2.86966E-09  2.76795E-09  2.68765E-09  2.61762E-09  2.55317E-09
   2.49206E-09  2.43310E-09  2.37560E-09  2.31917E-09  2.26356E-09  2.20862E-09  2.15427E-09  2.10048E-09  2.04725E-09  1.99460E-09
   1.94260E-09  1.89134E-09  1.84097E-09  1.79169E-09  1.74384E-09  1.69795E-09  1.65490E-09  1.61638E-09  1.58599E-09  1.57336E-09
   1.61485E-09  1.91491E-09  2.19882E-09  2.25765E-09  2.28141E-09  2.42746E-09  2.69257E-09  3.07379E-09  3.61014E-09  4.25670E-09
   4.67674E-09  4.17852E-09  2.47000E-09  1.32835E-09  1.01091E-09  8.61851E-10  7.67119E-10  6.95862E-10  6.36830E-10  5.85070E-10
   5.38080E-10  4.94533E-10  4.53616E-10  4.14871E-10  3.78002E-10  3.42780E-10  3.09105E-10  2.76907E-10  2.46070E-10  2.16624E-10
   1.88533E-10  1.61767E-10  1.36355E-10  1.12277E-10  8.95721E-11  6.82197E-11  4.82542E-11  2.96783E-11  1.25228E-11 -3.18660E-12
  -1.74489E-11 -3.02335E-11 -4.14997E-11 -5.12603E-11 -5.95134E-11 -6.63239E-11 -7.17492E-11 -7.58407E-11 -7.86595E-11 -8.02569E-11
  -8.06958E-11 -8.00243E-11 -7.83013E-11 -7.55829E-11 -7.19178E-11 -6.73686E-11 -6.19888E-11 -5.58290E-11 -4.89477E-11 -4.14008E-11
  -3.32438E-11 -2.45234E-11 -1.53089E-11 -5.63442E-12  4.42510E-12  1.48216E-11  2.55056E-11  3.64183E-11  4.75057E-11  5.87138E-11
   6.99864E-11  8.12701E-11  9.25090E-11  1.03656E-10  1.14642E-10  1.25425E-10  1.35944E-10  1.46153E-10  1.55989E-10  1.65388E-10
   1.74325E-10  1.82717E-10  1.90518E-10  1.97676E-10  2.04137E-10  2.09847E-10  2.14752E-10  2.18794E-10  2.21917E-10  2.24081E-10
   2.25206E-10  2.25263E-10  2.24181E-10  2.21914E-10  2.18405E-10  2.13597E-10  2.07432E-10  1.99872E-10  1.90848E-10  1.80311E-10
   1.68206E-10  1.54472E-10  1.39067E-10  1.21932E-10  1.03012E-10  8.22405E-11  5.95942E-11  3.49915E-11  8.39000E-12 -2.02749E-11
  -5.10437E-11 -8.39724E-11 -1.19114E-10 -1.56541E-10 -1.96280E-10 -2.38393E-10 -2.82896E-10 -3.29714E-10 -3.78761E-10 -4.29952E-10
  -4.83200E-10 -5.38417E-10 -5.95511E-10 -6.54391E-10 -7.14960E-10 -7.77117E-10 -8.40756E-10 -9.05757E-10 -9.71986E-10 -1.03928E-09
  -1.10743E-09 -1.17613E-09 -1.24490E-09 -1.31279E-09 -1.37759E-09 -1.43194E-09 -1.43690E-09 -1.36890E-09 -1.38221E-09 -1.44314E-09
  -1.47509E-09 -1.46008E-09 -1.40934E-09 -1.31089E-09 -1.16072E-09 -1.02320E-09 -1.09050E-09 -1.57394E-09 -2.22909E-09 -2.44584E-09
  -2.57298E-09 -2.67408E-09 -2.76438E-09 -2.84906E-09 -2.93026E-09 -3.00900E-09 -3.08579E-09 -3.16091E-09 -3.23446E-09 -3.30652E-09
  -3.37709E-09 -3.44617E-09 -3.51371E-09 -3.57966E-09 -3.64397E-09 -3.70658E-09 -3.76741E-09 -3.82641E-09 -3.88350E-09 -3.93859E-09
  -3.99161E-09 -4.04249E-09 -4.09115E-09 -4.13751E-09 -4.18148E-09 -4.22301E-09 -4.26199E-09 -4.29834E-09 -4.33200E-09 -4.36287E-09
  -4.39088E-09 -4.41594E-09 -4.43798E-09 -4.45691E-09 -4.47264E-09 -4.48511E-09 -4.49422E-09 -4.49989E-09 -4.50206E-09 -4.50077E-09
  -4.49608E-09 -4.48810E-09 -4.47689E-09 -4.46254E-09 -4.44514E-09 -4.42476E-09 -4.40149E-09 -4.37540E-09 -4.34659E-09 -4.31513E-09
  -4.28111E-09 -4.24460E-09 -4.20569E-09 -4.16447E-09 -4.12101E-09 -4.07539E-09 -4.02771E-09 -3.97803E-09 -3.92644E-09 -3.87303E-09
  -3.81787E-09 -3.76105E-09 -3.70265E-09 -3.64275E-09 -3.58144E-09 -3.51879E-09 -3.45489E-09 -3.38982E-09 -3.32366E-09 -3.25649E-09
  -3.18840E-09 -3.11946E-09 -3.04978E-09 -2.97940E-09 -2.90843E-09 -2.83695E-09 -2.76503E-09 -2.69276E-09 -2.62023E-09 -2.54750E-09
  -2.47467E-09 -2.40183E-09 -2.32904E-09 -2.25639E-09 -2.18396E-09 -2.11184E-09 -2.04011E-09 -1.96884E-09 -1.89812E-09 -1.82805E-09
  -1.75868E-09 -1.69011E-09 -1.62242E-09 -1.55568E-09 -1.49000E-09 -1.42543E-09 -1.36207E-09 -1.30001E-09 -1.23931E-09 -1.18006E-09
  -1.12235E-09 -1.06626E-09 -1.01187E-09 -9.59245E-10 -9.08491E-10 -8.59683E-10 -8.12906E-10 -7.68220E-10 -7.25739E-10 -6.85526E-10
  -6.47657E-10 -6.12177E-10 -5.79019E-10 -5.48135E-10 -5.19465E-10 -4.92973E-10 -4.68576E-10 -4.46243E-10 -4.25909E-10 -4.07522E-10
  -3.91032E-10 -3.76375E-10 -3.63512E-10 -3.52376E-10 -3.42911E-10 -3.35068E-10 -3.28800E-10 -3.24050E-10 -3.20750E-10 -3.18856E-10
  -3.18317E-10 -3.19068E-10 -3.21074E-10 -3.24256E-10 -3.28581E-10 -3.33980E-10 -3.40412E-10 -3.47806E-10 -3.56123E-10 -3.65305E-10
  -3.75301E-10 -3.86030E-10 -3.97478E-10 -4.09572E-10 -4.22252E-10 -4.35456E-10 -4.49168E-10 -4.63299E-10 -4.77816E-10 -4.92637E-10
  -5.07739E-10 -5.23050E-10 -5.38508E-10 -5.54071E-10 -5.69696E-10 -5.85312E-10 -6.00874E-10 -6.16314E-10 -6.31605E-10 -6.46640E-10
  -6.61431E-10 -6.75872E-10 -6.89945E-10 -7.03580E-10 -7.16687E-10 -7.29290E-10 -7.41269E-10 -7.52611E-10 -7.63225E-10 -7.73086E-10
  -7.82134E-10 -7.90297E-10 -7.97541E-10 -8.03795E-10 -8.09026E-10 -8.13153E-10 -8.16161E-10 -8.17952E-10 -8.18491E-10 -8.17736E-10
  -8.15605E-10 -8.12066E-10 -8.07075E-10
 GABA     Conc. = 2.96E-10
   2.94959E-09  2.89892E-09  2.84792E-09  2.79663E-09  2.74506E-09  2.69327E-09  2.64127E-09  2.58909E-09  2.53677E-09  2.48433E-09
   2.43182E-09  2.37927E-09  2.32672E-09  2.27419E-09  2.22175E-09  2.16943E-09  2.11726E-09  2.06535E-09  2.01377E-09  1.96253E-09
   1.91178E-09  1.86166E-09  1.81229E-09  1.76395E-09  1.71697E-09  1.67188E-09  1.62986E-09  1.59313E-09  1.56745E-09  1.56672E-09
   1.53554E-09  1.50573E-09  1.54759E-09  1.56817E-09  1.55520E-09  1.59289E-09  1.65315E-09  1.69375E-09  1.68888E-09  1.61843E-09
   1.53607E-09  1.58399E-09  1.45295E-09  1.14954E-09  1.09257E-09  1.03878E-09  8.39468E-10  7.22836E-10  6.47574E-10  5.89374E-10
   5.40180E-10  4.96529E-10  4.56845E-10  4.20480E-10  3.86976E-10  3.56017E-10  3.27770E-10  3.02570E-10  2.81158E-10  2.65383E-10
   2.58649E-10  2.72132E-10  2.91542E-10  2.85186E-10  3.15645E-10  3.76335E-10  4.03632E-10  4.37404E-10  5.08629E-10  5.85846E-10
   6.31547E-10  6.11099E-10  5.25449E-10  4.85113E-10  4.69878E-10  2.56291E-10  9.79202E-11  1.09033E-10  5.73533E-11 -6.37952E-12
  -1.89394E-11 -3.30349E-11 -2.36387E-11  2.25188E-11  4.41461E-11  6.33546E-11  1.17236E-10  1.73702E-10  2.31671E-10  2.82682E-10
   2.98184E-10  3.43810E-10  4.31459E-10  3.91082E-10  3.23893E-10  3.85103E-10  3.54225E-10  2.58023E-10  2.45648E-10  2.28808E-10
   1.93985E-10  1.75196E-10  1.65992E-10  1.62360E-10  1.62172E-10  1.64101E-10  1.67450E-10  1.71773E-10  1.76740E-10  1.82116E-10
   1.87655E-10  1.93047E-10  1.98196E-10  2.02988E-10  2.07349E-10  2.11257E-10  2.14570E-10  2.17176E-10  2.18996E-10  2.19970E-10
   2.20003E-10  2.19073E-10  2.17091E-10  2.13998E-10  2.09727E-10  2.04218E-10  1.97403E-10  1.89235E-10  1.79648E-10  1.68586E-10
   1.55987E-10  1.41791E-10  1.25953E-10  1.08411E-10  8.91091E-11  6.79779E-11  4.49912E-11  2.00630E-11 -6.84886E-12 -3.58097E-11
  -6.68599E-11 -1.00055E-10 -1.35451E-10 -1.73127E-10 -2.13110E-10 -2.55461E-10 -3.00197E-10 -3.47242E-10 -3.96514E-10 -4.47931E-10
  -5.01408E-10 -5.56861E-10 -6.14200E-10 -6.73337E-10 -7.34182E-10 -7.96641E-10 -8.60618E-10 -9.26007E-10 -9.92696E-10 -1.06055E-09
  -1.12941E-09 -1.19907E-09 -1.26920E-09 -1.33923E-09 -1.40785E-09 -1.47102E-09 -1.50855E-09 -1.48588E-09 -1.51626E-09 -1.58411E-09
  -1.63565E-09 -1.65546E-09 -1.65242E-09 -1.61915E-09 -1.54992E-09 -1.47843E-09 -1.52265E-09 -1.83844E-09 -2.32740E-09 -2.50717E-09
  -2.61938E-09 -2.71287E-09 -2.79870E-09 -2.88050E-09 -2.95973E-09 -3.03706E-09 -3.11279E-09 -3.18710E-09 -3.26002E-09 -3.33158E-09
  -3.40175E-09 -3.47049E-09 -3.53775E-09 -3.60346E-09 -3.66758E-09 -3.73002E-09 -3.79071E-09 -3.84959E-09 -3.90656E-09 -3.96156E-09
  -4.01450E-09 -4.06531E-09 -4.11391E-09 -4.16022E-09 -4.20414E-09 -4.24562E-09 -4.28456E-09 -4.32089E-09 -4.35451E-09 -4.38536E-09
  -4.41334E-09 -4.43838E-09 -4.46040E-09 -4.47931E-09 -4.49503E-09 -4.50748E-09 -4.51658E-09 -4.52224E-09 -4.52440E-09 -4.52310E-09
  -4.51840E-09 -4.51041E-09 -4.49920E-09 -4.48485E-09 -4.46743E-09 -4.44705E-09 -4.42378E-09 -4.39769E-09 -4.36887E-09 -4.33741E-09
