 LCModel (Version 6.3-1R) Copyright: S.W. Provencher.          Ref.: Magn. Reson. Med. 30:672-679 (1993).                
 onepulse 24x10_ftSpec_smooth_lcm
 26 lines in following concentration table = NCONC+1
    Conc.  %SD   /Cr    Metabolite                                         
 4.74E-10  59%   0.000 Ala                                                 
 2.40E-09  26%   0.000 Asp                                                 
    0.000 999%   0.000 Cr                                                  
 1.37E-09  34%   0.000 GABA                                                
 2.88E-09  31%   0.000 Glc                                                 
 7.97E-10  80%   0.000 Gln                                                 
    0.000 999%   0.000 Glu                                                 
    0.000 999%   0.000 Glyc                                                
    0.000 999%   0.000 GPC                                                 
 4.28E-11 999%   0.000 GSH                                                 
 7.13E-10  55%   0.000 Ins                                                 
    0.000 999%   0.000 Lac                                                 
 1.01E-09  20%   0.000 NAAG                                                
    0.000 999%   0.000 NAA                                                 
    0.000 999%   0.000 PCh                                                 
    0.000 999%   0.000 PCr                                                 
 1.95E-09  35%   0.000 PE                                                  
    0.000 999%   0.000 Scyllo                                              
    0.000 999%   0.000 Ser                                                 
 8.33E-11 900%   0.000 Tau                                                 
    0.000 999%   0.000 GPC+PCh                                             
 1.01E-09  20%   0.000 NAA+NAAG                                            
 7.13E-10  55%   0.000 Ins+Glyc                                            
    0.000 999%   0.000 Cr+PCr                                              
 7.97E-10  80%   0.000 Glu+Gln                                             
   6 lines in following misc. output table
  FWHM = 0.123 ppm    S/N =   4                                            
  Data shift = 0.481 ppm                                                   
  Ph:  43 deg     -36.2 deg/ppm                                            
  alphaB,S = 8.1E-01,   5.4E+00                                            
   10 spline knots.   Ns = 5(1)                                            
  (10) 8 infls.   (11) 5 extrs.                                            
  363 points on ppm-axis = NY
      4.250000     4.238821     4.227641     4.216462     4.205282     4.194103     4.182923     4.171744     4.160564     4.149385
      4.138206     4.127026     4.115847     4.104667     4.093488     4.082308     4.071129     4.059949     4.048770     4.037591
      4.026411     4.015232     4.004052     3.992873     3.981693     3.970514     3.959334     3.948155     3.936975     3.925796
      3.914617     3.903437     3.892258     3.881078     3.869899     3.858719     3.847540     3.836360     3.825181     3.814002
      3.802822     3.791643     3.780463     3.769284     3.758104     3.746925     3.735745     3.724566     3.713387     3.702207
      3.691028     3.679848     3.668669     3.657489     3.646310     3.635130     3.623951     3.612772     3.601592     3.590413
      3.579233     3.568054     3.556874     3.545695     3.534515     3.523336     3.512156     3.500977     3.489798     3.478618
      3.467439     3.456259     3.445080     3.433900     3.422721     3.411541     3.400362     3.389183     3.378003     3.366824
      3.355644     3.344465     3.333285     3.322106     3.310926     3.299747     3.288568     3.277388     3.266209     3.255029
      3.243850     3.232670     3.221491     3.210311     3.199132     3.187953     3.176773     3.165594     3.154414     3.143235
      3.132055     3.120876     3.109696     3.098517     3.087337     3.076158     3.064979     3.053799     3.042620     3.031440
      3.020261     3.009081     2.997902     2.986722     2.975543     2.964364     2.953184     2.942005     2.930825     2.919646
      2.908466     2.897287     2.886107     2.874928     2.863749     2.852569     2.841390     2.830210     2.819031     2.807851
      2.796672     2.785492     2.774313     2.763134     2.751954     2.740775     2.729595     2.718416     2.707236     2.696057
      2.684877     2.673698     2.662519     2.651339     2.640160     2.628980     2.617801     2.606621     2.595442     2.584262
      2.573083     2.561903     2.550724     2.539545     2.528365     2.517186     2.506006     2.494827     2.483647     2.472468
      2.461288     2.450109     2.438930     2.427750     2.416571     2.405391     2.394212     2.383032     2.371853     2.360673
      2.349494     2.338315     2.327135     2.315956     2.304776     2.293597     2.282417     2.271238     2.260058     2.248879
      2.237700     2.226520     2.215341     2.204161     2.192982     2.181802     2.170623     2.159443     2.148264     2.137084
      2.125905     2.114726     2.103546     2.092367     2.081187     2.070008     2.058828     2.047649     2.036469     2.025290
      2.014111     2.002931     1.991752     1.980572     1.969393     1.958213     1.947034     1.935854     1.924675     1.913496
      1.902316     1.891137     1.879957     1.868778     1.857598     1.846419     1.835239     1.824060     1.812881     1.801701
      1.790522     1.779342     1.768163     1.756983     1.745804     1.734624     1.723445     1.712265     1.701086     1.689907
      1.678727     1.667548     1.656368     1.645189     1.634009     1.622830     1.611650     1.600471     1.589292     1.578112
      1.566933     1.555753     1.544574     1.533394     1.522215     1.511035     1.499856     1.488677     1.477497     1.466318
      1.455138     1.443959     1.432779     1.421600     1.410420     1.399241     1.388062     1.376882     1.365703     1.354523
      1.343344     1.332164     1.320985     1.309805     1.298626     1.287446     1.276267     1.265088     1.253908     1.242729
      1.231549     1.220370     1.209190     1.198011     1.186831     1.175652     1.164473     1.153293     1.142114     1.130934
      1.119755     1.108575     1.097396     1.086216     1.075037     1.063858     1.052678     1.041499     1.030319     1.019140
      1.007960     0.996781     0.985601     0.974422     0.963243     0.952063     0.940884     0.929704     0.918525     0.907345
      0.896166     0.884986     0.873807     0.862628     0.851448     0.840269     0.829089     0.817910     0.806730     0.795551
      0.784371     0.773192     0.762012     0.750833     0.739654     0.728474     0.717295     0.706115     0.694936     0.683756
      0.672577     0.661397     0.650218     0.639039     0.627859     0.616680     0.605500     0.594321     0.583141     0.571962
      0.560782     0.549603     0.538424     0.527244     0.516065     0.504885     0.493706     0.482526     0.471347     0.460167
      0.448988     0.437809     0.426629     0.415450     0.404270     0.393091     0.381911     0.370732     0.359552     0.348373
      0.337193     0.326014     0.314835     0.303655     0.292476     0.281296     0.270117     0.258937     0.247758     0.236578
      0.225399     0.214220     0.203040
 NY phased data points follow
   1.12368E-08  1.04936E-08  1.20499E-08  1.09465E-08  1.25986E-08  1.07217E-08  1.20523E-08  1.09769E-08  1.15811E-08  1.00511E-08
   1.15788E-08  9.23875E-09  1.14134E-08  1.05455E-08  1.20143E-08  1.05501E-08  1.13287E-08  9.35610E-09  1.06039E-08  1.01731E-08
   1.32642E-08  1.30586E-08  1.44474E-08  1.36826E-08  1.39129E-08  1.22246E-08  1.24788E-08  1.10471E-08  1.16071E-08  1.02685E-08
   1.07352E-08  9.79970E-09  1.07476E-08  9.09653E-09  9.96922E-09  7.97388E-09  8.55673E-09  7.15818E-09  8.25622E-09  7.28736E-09
   8.54247E-09  5.95286E-09  7.74862E-09  5.81247E-09  6.70722E-09  3.55399E-09  5.09445E-09  3.67042E-09  4.96459E-09  2.89303E-09
   4.72634E-09  6.17196E-09  1.05825E-08  1.05438E-08  1.20702E-08  1.08559E-08  1.12865E-08  9.15458E-09  9.33880E-09  8.48267E-09
   8.50405E-09  6.93038E-09  6.88147E-09  4.56775E-09  5.31150E-09  2.49537E-09  2.71440E-09  2.36531E-09  7.46315E-09  1.03109E-08
   1.30975E-08  1.15935E-08  1.29445E-08  1.21998E-08  1.31832E-08  1.14320E-08  1.26010E-08  1.16787E-08  1.32571E-08  1.14400E-08
   1.26163E-08  1.05931E-08  1.29325E-08  1.06990E-08  1.16692E-08  1.04951E-08  1.10041E-08  9.58157E-09  9.92020E-09  8.39027E-09
   9.79254E-09  8.89324E-09  9.77410E-09  8.08872E-09  9.23288E-09  8.85720E-09  9.35707E-09  8.30024E-09  8.45527E-09  6.69716E-09
   6.90050E-09  5.21298E-09  6.84564E-09  5.89424E-09  6.22357E-09  5.63733E-09  7.50948E-09  6.27410E-09  7.16456E-09  6.31171E-09
   7.94651E-09  6.64860E-09  7.60656E-09  6.27073E-09  6.91767E-09  4.44617E-09  5.57798E-09  4.59429E-09  5.45449E-09  4.26628E-09
   5.18389E-09  4.09072E-09  5.40334E-09  4.38567E-09  5.09389E-09  3.70219E-09  3.81145E-09  2.74328E-09  3.34220E-09  3.99323E-09
   5.33177E-09  4.99696E-09  5.22040E-09  4.37216E-09  6.02564E-09  5.96170E-09  6.45618E-09  6.21713E-09  7.33614E-09  6.47800E-09
   7.10217E-09  6.77751E-09  6.94296E-09  6.59605E-09  7.14266E-09  6.65370E-09  6.79140E-09  6.07202E-09  6.29964E-09  5.47734E-09
   6.36891E-09  6.11812E-09  6.04384E-09  5.24583E-09  4.50714E-09  4.27384E-09  4.00987E-09  1.70483E-09 -8.94666E-10 -6.45902E-10
   5.64918E-09  1.05983E-08  1.33239E-08  1.48571E-08  1.56248E-08  1.61948E-08  1.71870E-08  1.78389E-08  1.84975E-08  1.85825E-08
   2.00745E-08  1.98369E-08  2.01069E-08  2.08700E-08  2.08903E-08  2.06450E-08  2.00911E-08  2.00544E-08  1.88974E-08  1.80480E-08
   1.72274E-08  1.53642E-08  1.33981E-08  1.16597E-08  9.80180E-09  8.02958E-09  5.99029E-09  3.88546E-09  2.21208E-09  4.62733E-11
  -8.86537E-10 -2.19600E-09 -3.45276E-09 -3.60855E-09 -4.54208E-09 -4.48698E-09 -3.57317E-09 -3.50679E-09 -3.29041E-09 -2.49067E-09
  -2.15611E-09 -1.64940E-09 -1.33128E-09 -1.00372E-09 -4.95889E-10 -3.11830E-10 -7.72700E-10 -3.95203E-10 -9.49612E-10 -6.37690E-10
  -1.14064E-09 -5.85058E-10 -6.72799E-10 -4.55622E-10  2.84160E-11  4.91115E-11  2.16970E-10 -5.35604E-10 -8.01045E-10 -2.18421E-10
  -6.74500E-10  1.08962E-10 -9.80843E-10 -2.67000E-10 -6.84346E-10  5.65603E-13  1.73505E-10  1.19549E-10 -3.76613E-10 -3.98535E-10
  -2.88853E-10 -2.83227E-10 -6.81191E-10 -7.74744E-10 -7.46515E-10 -7.76301E-10 -7.51555E-10 -8.26964E-10 -7.04982E-10 -3.07893E-10
  -7.66961E-10 -3.22098E-10 -6.99273E-10  6.54716E-11 -4.34948E-10  4.32956E-10 -8.20523E-10  3.54357E-10 -2.11331E-10  7.47619E-10
  -6.11879E-10  1.65031E-10 -3.59909E-10 -3.41829E-11 -8.01442E-10 -6.72479E-10 -1.13262E-09 -1.03593E-09 -1.77301E-09 -1.62094E-09
  -1.78037E-09 -1.41152E-09 -2.03702E-09 -1.62945E-09 -2.10696E-09 -8.32772E-10 -8.88458E-10 -2.02779E-10 -1.06444E-09  2.08498E-10
  -1.01364E-10  4.37068E-10 -2.91735E-10  7.37195E-10 -1.68861E-10  3.63110E-10 -3.09524E-10  6.00664E-10 -6.47327E-11  8.53552E-10
  -8.27724E-11  6.40168E-10  2.13119E-10  2.99979E-10  2.88718E-10  4.79776E-10 -3.27695E-10  6.46987E-10  2.67069E-10  9.88405E-11
  -1.21311E-10  2.87762E-10 -6.18208E-11  4.36458E-10 -1.05134E-10  4.16728E-10 -4.08001E-10  1.24956E-10 -3.07029E-10  3.56690E-11
  -7.39365E-11  1.07640E-10 -7.00005E-10  1.96732E-10 -2.26266E-10  7.44203E-11  2.30443E-11 -2.91168E-10 -4.68579E-10 -3.13414E-10
  -2.87392E-10  1.08358E-10 -6.82349E-10  3.09627E-11 -4.38124E-10 -1.41560E-10 -1.03657E-09 -1.71232E-10 -4.72596E-10 -3.06159E-10
  -6.27998E-10 -2.48567E-10 -9.70535E-10 -2.77177E-10 -6.62497E-10 -3.49305E-10 -5.12870E-10 -7.54558E-10 -1.02871E-09 -4.72492E-10
  -7.25811E-10 -3.07833E-10 -9.90875E-10 -4.01885E-10 -7.92326E-10 -7.06609E-10 -1.12506E-09 -5.82626E-10 -6.68309E-10 -4.39192E-10
  -1.08071E-09 -9.16537E-10 -8.95925E-10 -4.63360E-10 -1.49231E-09 -2.52953E-10 -1.40943E-09 -1.14240E-09 -1.56556E-09 -7.13469E-10
  -1.21559E-09 -9.13811E-10 -1.63986E-09 -6.14093E-10 -1.11340E-09 -9.27450E-10 -1.28865E-09 -8.79350E-10 -1.62985E-09 -1.01979E-09
  -1.83147E-09 -9.76320E-10 -1.39950E-09
 NY points of the fit to the data follow
   1.32930E-08  1.28241E-08  1.20027E-08  1.14067E-08  1.13906E-08  1.17057E-08  1.14986E-08  1.06853E-08  1.18573E-08  1.08297E-08
   9.36432E-09  9.30194E-09  9.48454E-09  9.58370E-09  1.14043E-08  1.26361E-08  1.19527E-08  1.21328E-08  1.23018E-08  1.14727E-08
   1.17907E-08  1.28077E-08  1.29807E-08  1.29904E-08  1.40719E-08  1.33679E-08  1.16806E-08  1.08624E-08  1.05895E-08  1.08564E-08
   1.07176E-08  1.11765E-08  1.13673E-08  9.92102E-09  9.76770E-09  9.02550E-09  8.57363E-09  7.73537E-09  7.36562E-09  7.02290E-09
   6.21848E-09  6.56535E-09  7.73550E-09  6.40370E-09  7.37622E-09  7.45408E-09  6.76377E-09  6.52016E-09  7.54170E-09  6.98410E-09
   7.38131E-09  7.63732E-09  7.81689E-09  7.24057E-09  8.54681E-09  7.18698E-09  7.00609E-09  7.45899E-09  7.90002E-09  6.95182E-09
   7.53072E-09  7.99087E-09  7.51732E-09  7.53037E-09  9.25259E-09  8.79987E-09  8.47867E-09  8.83453E-09  8.78804E-09  8.69924E-09
   9.68345E-09  1.02826E-08  9.37766E-09  9.25186E-09  1.06923E-08  1.20283E-08  1.30139E-08  1.20086E-08  1.21839E-08  1.24005E-08
   1.24118E-08  1.22685E-08  1.19467E-08  1.19829E-08  1.16353E-08  1.24409E-08  1.20824E-08  8.61864E-09  8.05691E-09  8.02712E-09
   7.52605E-09  7.23241E-09  7.54963E-09  7.37844E-09  6.67621E-09  6.88059E-09  6.82622E-09  6.34145E-09  6.44177E-09  6.62980E-09
   6.91327E-09  6.33769E-09  6.60709E-09  7.23351E-09  6.97294E-09  6.95639E-09  7.04746E-09  7.03838E-09  7.05776E-09  7.15933E-09
   7.15375E-09  6.26184E-09  6.37126E-09  6.59797E-09  5.88974E-09  5.66241E-09  5.56635E-09  5.51561E-09  5.48522E-09  5.46546E-09
   5.45165E-09  5.44150E-09  5.43356E-09  5.42692E-09  5.42095E-09  5.41528E-09  5.40960E-09  5.40364E-09  5.39727E-09  5.39035E-09
   5.38274E-09  5.37438E-09  5.36521E-09  5.35515E-09  5.34416E-09  5.33220E-09  5.31922E-09  5.30521E-09  5.29015E-09  5.27404E-09
   5.25684E-09  5.23859E-09  5.21929E-09  5.19895E-09  5.17760E-09  5.15528E-09  5.13204E-09  5.10799E-09  5.08323E-09  5.05788E-09
   5.03212E-09  5.00620E-09  4.98042E-09  4.95523E-09  4.93120E-09  4.90914E-09  4.89024E-09  4.87622E-09  4.86975E-09  4.87497E-09
   4.89879E-09  4.95351E-09  5.06332E-09  5.28242E-09  5.75841E-09  7.03950E-09  1.22381E-08  1.96325E-08  1.93058E-08  1.78027E-08
   1.87261E-08  1.95890E-08  2.01689E-08  2.08297E-08  2.09144E-08  2.08417E-08  2.22232E-08  2.21129E-08  1.35357E-08  6.93976E-09
   5.13184E-09  4.39263E-09  3.98200E-09  3.70977E-09  3.50759E-09  3.34536E-09  3.20784E-09  3.08659E-09  2.97662E-09  2.87476E-09
   2.77894E-09  2.68777E-09  2.60026E-09  2.51575E-09  2.43371E-09  2.35380E-09  2.27573E-09  2.19934E-09  2.12446E-09  2.05101E-09
   1.97889E-09  1.90807E-09  1.83851E-09  1.77020E-09  1.70312E-09  1.63729E-09  1.57273E-09  1.50941E-09  1.44741E-09  1.38664E-09
   1.32711E-09  1.26877E-09  1.21162E-09  1.15562E-09  1.10075E-09  1.04700E-09  9.94347E-10  9.42779E-10  8.92278E-10  8.42827E-10
   7.94427E-10  7.47050E-10  7.00692E-10  6.55340E-10  6.10980E-10  5.67604E-10  5.25212E-10  4.83772E-10  4.43280E-10  4.03744E-10
   3.65148E-10  3.27472E-10  2.90720E-10  2.54873E-10  2.19929E-10  1.85872E-10  1.52698E-10  1.20407E-10  8.89827E-11  5.84198E-11
   2.87118E-11 -1.49547E-13 -2.81751E-11 -5.53713E-11 -8.17419E-11 -1.07296E-10 -1.32047E-10 -1.56007E-10 -1.79158E-10 -2.01517E-10
  -2.23106E-10 -2.43928E-10 -2.63979E-10 -2.83264E-10 -3.01818E-10 -3.19613E-10 -3.36677E-10 -3.53005E-10 -3.68618E-10 -3.83520E-10
  -3.97711E-10 -4.11217E-10 -4.24059E-10 -4.36254E-10 -4.47823E-10 -4.58782E-10 -4.69153E-10 -4.78954E-10 -4.88203E-10 -4.96921E-10
  -5.05125E-10 -5.12835E-10 -5.20071E-10 -5.26850E-10 -5.33192E-10 -5.39116E-10 -5.44641E-10 -5.49785E-10 -5.54569E-10 -5.59010E-10
  -5.63126E-10 -5.66939E-10 -5.70468E-10 -5.73728E-10 -5.76741E-10 -5.79526E-10 -5.82100E-10 -5.84484E-10 -5.86696E-10 -5.88753E-10
  -5.90677E-10 -5.92485E-10 -5.94198E-10 -5.95832E-10 -5.97407E-10 -5.98943E-10 -6.00457E-10 -6.01969E-10 -6.03498E-10 -6.05063E-10
  -6.06683E-10 -6.08375E-10 -6.10159E-10 -6.12055E-10 -6.14081E-10 -6.16255E-10 -6.18597E-10 -6.21126E-10 -6.23859E-10 -6.26817E-10
  -6.30018E-10 -6.33478E-10 -6.37203E-10 -6.41184E-10 -6.45414E-10 -6.49888E-10 -6.54598E-10 -6.59539E-10 -6.64705E-10 -6.70087E-10
  -6.75682E-10 -6.81479E-10 -6.87475E-10 -6.93664E-10 -7.00039E-10 -7.06592E-10 -7.13317E-10 -7.20208E-10 -7.27259E-10 -7.34460E-10
  -7.41813E-10 -7.49304E-10 -7.56925E-10 -7.64680E-10 -7.72553E-10 -7.80538E-10 -7.88635E-10 -7.96832E-10 -8.05124E-10 -8.13503E-10
  -8.21966E-10 -8.30505E-10 -8.39113E-10 -8.47784E-10 -8.56509E-10 -8.65285E-10 -8.74107E-10 -8.82964E-10 -8.91852E-10 -9.00762E-10
  -9.09693E-10 -9.18632E-10 -9.27579E-10 -9.36522E-10 -9.45454E-10 -9.54377E-10 -9.63279E-10 -9.72148E-10 -9.80988E-10 -9.89786E-10
  -9.98537E-10 -1.00724E-09 -1.01587E-09
 NY background values follow
    -2.244E-09   -2.174E-09   -2.104E-09   -2.034E-09   -1.963E-09   -1.893E-09   -1.822E-09   -1.752E-09   -1.681E-09   -1.611E-09
    -1.540E-09   -1.470E-09   -1.400E-09   -1.329E-09   -1.259E-09   -1.188E-09   -1.118E-09   -1.048E-09   -9.778E-10   -9.077E-10
    -8.377E-10   -7.678E-10   -6.980E-10   -6.283E-10   -5.587E-10   -4.892E-10   -4.198E-10   -3.505E-10   -2.814E-10   -2.125E-10
    -1.436E-10   -7.498E-11   -6.489E-12    6.183E-11    1.300E-10    1.979E-10    2.657E-10    3.332E-10    4.006E-10    4.677E-10
     5.346E-10    6.013E-10    6.678E-10    7.339E-10    7.999E-10    8.656E-10    9.310E-10    9.961E-10    1.061E-09    1.126E-09
     1.190E-09    1.254E-09    1.318E-09    1.381E-09    1.444E-09    1.507E-09    1.569E-09    1.631E-09    1.692E-09    1.753E-09
     1.814E-09    1.875E-09    1.934E-09    1.994E-09    2.053E-09    2.111E-09    2.169E-09    2.227E-09    2.284E-09    2.340E-09
     2.396E-09    2.451E-09    2.506E-09    2.560E-09    2.614E-09    2.667E-09    2.719E-09    2.771E-09    2.822E-09    2.872E-09
     2.922E-09    2.971E-09    3.020E-09    3.067E-09    3.114E-09    3.160E-09    3.206E-09    3.250E-09    3.294E-09    3.337E-09
     3.379E-09    3.421E-09    3.461E-09    3.501E-09    3.540E-09    3.578E-09    3.615E-09    3.651E-09    3.686E-09    3.721E-09
     3.754E-09    3.786E-09    3.818E-09    3.848E-09    3.878E-09    3.906E-09    3.934E-09    3.960E-09    3.986E-09    4.010E-09
     4.033E-09    4.055E-09    4.076E-09    4.096E-09    4.115E-09    4.132E-09    4.149E-09    4.164E-09    4.178E-09    4.191E-09
     4.203E-09    4.213E-09    4.222E-09    4.230E-09    4.236E-09    4.242E-09    4.246E-09    4.248E-09    4.250E-09    4.250E-09
     4.248E-09    4.245E-09    4.241E-09    4.235E-09    4.228E-09    4.220E-09    4.210E-09    4.199E-09    4.186E-09    4.171E-09
     4.155E-09    4.138E-09    4.119E-09    4.099E-09    4.076E-09    4.053E-09    4.028E-09    4.001E-09    3.972E-09    3.942E-09
     3.910E-09    3.877E-09    3.842E-09    3.805E-09    3.766E-09    3.726E-09    3.684E-09    3.640E-09    3.595E-09    3.548E-09
     3.499E-09    3.449E-09    3.398E-09    3.345E-09    3.291E-09    3.236E-09    3.179E-09    3.122E-09    3.063E-09    3.003E-09
     2.942E-09    2.880E-09    2.818E-09    2.754E-09    2.690E-09    2.625E-09    2.559E-09    2.493E-09    2.426E-09    2.358E-09
     2.290E-09    2.222E-09    2.154E-09    2.085E-09    2.016E-09    1.946E-09    1.877E-09    1.807E-09    1.738E-09    1.668E-09
     1.599E-09    1.529E-09    1.460E-09    1.391E-09    1.323E-09    1.254E-09    1.187E-09    1.119E-09    1.052E-09    9.859E-10
     9.203E-10    8.553E-10    7.910E-10    7.275E-10    6.648E-10    6.030E-10    5.422E-10    4.824E-10    4.236E-10    3.659E-10
     3.091E-10    2.534E-10    1.988E-10    1.451E-10    9.241E-11    4.074E-11   -9.939E-12   -5.963E-11   -1.083E-10   -1.561E-10
    -2.029E-10   -2.487E-10   -2.936E-10   -3.375E-10   -3.805E-10   -4.226E-10   -4.637E-10   -5.039E-10   -5.432E-10   -5.816E-10
    -6.191E-10   -6.557E-10   -6.914E-10   -7.263E-10   -7.602E-10   -7.933E-10   -8.256E-10   -8.570E-10   -8.875E-10   -9.172E-10
    -9.461E-10   -9.742E-10   -1.001E-09   -1.028E-09   -1.053E-09   -1.078E-09   -1.102E-09   -1.125E-09   -1.148E-09   -1.170E-09
    -1.190E-09   -1.211E-09   -1.230E-09   -1.249E-09   -1.267E-09   -1.284E-09   -1.300E-09   -1.316E-09   -1.331E-09   -1.345E-09
    -1.359E-09   -1.372E-09   -1.384E-09   -1.396E-09   -1.407E-09   -1.417E-09   -1.427E-09   -1.436E-09   -1.445E-09   -1.453E-09
    -1.461E-09   -1.468E-09   -1.475E-09   -1.481E-09   -1.487E-09   -1.492E-09   -1.497E-09   -1.502E-09   -1.506E-09   -1.510E-09
    -1.514E-09   -1.517E-09   -1.520E-09   -1.523E-09   -1.525E-09   -1.528E-09   -1.530E-09   -1.532E-09   -1.534E-09   -1.535E-09
    -1.537E-09   -1.538E-09   -1.539E-09   -1.540E-09   -1.541E-09   -1.543E-09   -1.544E-09   -1.545E-09   -1.546E-09   -1.547E-09
    -1.548E-09   -1.549E-09   -1.551E-09   -1.552E-09   -1.554E-09   -1.555E-09   -1.557E-09   -1.559E-09   -1.562E-09   -1.564E-09
    -1.567E-09   -1.570E-09   -1.573E-09   -1.577E-09   -1.581E-09   -1.585E-09   -1.589E-09   -1.593E-09   -1.598E-09   -1.603E-09
    -1.608E-09   -1.614E-09   -1.619E-09   -1.625E-09   -1.631E-09   -1.637E-09   -1.643E-09   -1.650E-09   -1.656E-09   -1.663E-09
    -1.670E-09   -1.677E-09   -1.684E-09   -1.691E-09   -1.699E-09   -1.706E-09   -1.714E-09   -1.722E-09   -1.730E-09   -1.738E-09
    -1.746E-09   -1.754E-09   -1.762E-09   -1.770E-09   -1.778E-09   -1.787E-09   -1.795E-09   -1.803E-09   -1.812E-09   -1.820E-09
    -1.829E-09   -1.837E-09   -1.846E-09   -1.854E-09   -1.862E-09   -1.871E-09   -1.879E-09   -1.888E-09   -1.896E-09   -1.904E-09
    -1.913E-09   -1.921E-09   -1.929E-09
 Ala      Conc. = 4.74E-10
  -1.86955E-09 -1.86829E-09 -1.74392E-09 -1.63439E-09 -1.59799E-09 -1.55488E-09 -1.41353E-09 -1.40186E-09 -1.45878E-09 -1.29199E-09
  -1.25294E-09 -1.31094E-09 -1.22586E-09 -1.17079E-09 -1.14068E-09 -1.09275E-09 -1.03644E-09 -9.75730E-10 -9.12463E-10 -8.47565E-10
  -7.81602E-10 -7.14906E-10 -6.47692E-10 -5.80122E-10 -5.12319E-10 -4.44346E-10 -3.76276E-10 -3.08151E-10 -2.40021E-10 -1.71905E-10
  -1.03822E-10 -3.58335E-11  3.20795E-11  9.98810E-11  1.67563E-10  2.35100E-10  3.02487E-10  3.69725E-10  4.36776E-10  5.03627E-10
   5.70308E-10  6.36789E-10  7.03038E-10  7.69061E-10  8.34863E-10  9.00415E-10  9.65729E-10  1.03078E-09  1.09556E-09  1.16006E-09
   1.22429E-09  1.28824E-09  1.35189E-09  1.41523E-09  1.47825E-09  1.54094E-09  1.60328E-09  1.66527E-09  1.72688E-09  1.78811E-09
   1.84895E-09  1.90938E-09  1.96938E-09  2.02896E-09  2.08808E-09  2.14676E-09  2.20496E-09  2.26269E-09  2.31992E-09  2.37666E-09
   2.43288E-09  2.48858E-09  2.54376E-09  2.59839E-09  2.65249E-09  2.70603E-09  2.75901E-09  2.81144E-09  2.86331E-09  2.91462E-09
   2.96537E-09  3.01558E-09  3.06526E-09  3.11442E-09  3.16310E-09  3.21135E-09  3.25921E-09  3.30678E-09  3.35416E-09  3.40152E-09
   3.44909E-09  3.49724E-09  3.54651E-09  3.59776E-09  3.65248E-09  3.71339E-09  3.78602E-09  3.88347E-09  4.04497E-09  4.43459E-09
   4.97372E-09  4.51358E-09  4.87909E-09  5.60852E-09  5.42781E-09  5.47262E-09  5.61488E-09  5.64646E-09  5.70184E-09  5.83424E-09
   5.85548E-09  4.98733E-09  5.11779E-09  5.36327E-09  4.67222E-09  4.46000E-09  4.37756E-09  4.33925E-09  4.32017E-09  4.31074E-09
   4.30648E-09  4.30507E-09  4.30514E-09  4.30587E-09  4.30671E-09  4.30731E-09  4.30739E-09  4.30677E-09  4.30530E-09  4.30287E-09
   4.29940E-09  4.29482E-09  4.28906E-09  4.28208E-09  4.27383E-09  4.26428E-09  4.25339E-09  4.24114E-09  4.22750E-09  4.21244E-09
   4.19595E-09  4.17799E-09  4.15856E-09  4.13763E-09  4.11518E-09  4.09121E-09  4.06569E-09  4.03860E-09  4.00995E-09  3.97971E-09
   3.94788E-09  3.91446E-09  3.87944E-09  3.84281E-09  3.80459E-09  3.76479E-09  3.72346E-09  3.68070E-09  3.63666E-09  3.59156E-09
   3.54575E-09  3.49979E-09  3.45475E-09  3.41299E-09  3.38092E-09  3.38204E-09  3.55209E-09  3.94578E-09  3.64488E-09  3.59576E-09
   3.59032E-09  3.56421E-09  3.51845E-09  3.50078E-09  3.42291E-09  3.36686E-09  3.35158E-09  3.38027E-09  2.70970E-09  2.50168E-09
   2.38816E-09  2.29887E-09  2.21851E-09  2.14223E-09  2.06806E-09  1.99512E-09  1.92295E-09  1.85129E-09  1.78005E-09  1.70915E-09
   1.63855E-09  1.56829E-09  1.49833E-09  1.42875E-09  1.35955E-09  1.29077E-09  1.22246E-09  1.15467E-09  1.08742E-09  1.02078E-09
   9.54792E-10  8.89506E-10  8.24976E-10  7.61246E-10  6.98370E-10  6.36395E-10  5.75397E-10  5.15385E-10  4.56438E-10  3.98532E-10
   3.41668E-10  2.85835E-10  2.31029E-10  1.77238E-10  1.24459E-10  7.26784E-11  2.18991E-11 -2.78905E-11 -7.67026E-11 -1.24542E-10
  -1.71404E-10 -2.17309E-10 -2.62260E-10 -3.06262E-10 -3.49325E-10 -3.91454E-10 -4.32644E-10 -4.72925E-10 -5.12299E-10 -5.50753E-10
  -5.88306E-10 -6.24970E-10 -6.60740E-10 -6.95636E-10 -7.29653E-10 -7.62810E-10 -7.95108E-10 -8.26545E-10 -8.57138E-10 -8.86890E-10
  -9.15808E-10 -9.43895E-10 -9.71164E-10 -9.97621E-10 -1.02327E-09 -1.04811E-09 -1.07217E-09 -1.09545E-09 -1.11793E-09 -1.13963E-09
  -1.16057E-09 -1.18076E-09 -1.20018E-09 -1.21885E-09 -1.23680E-09 -1.25400E-09 -1.27048E-09 -1.28623E-09 -1.30127E-09 -1.31560E-09
  -1.32924E-09 -1.34220E-09 -1.35450E-09 -1.36615E-09 -1.37719E-09 -1.38763E-09 -1.39748E-09 -1.40676E-09 -1.41550E-09 -1.42372E-09
  -1.43142E-09 -1.43864E-09 -1.44538E-09 -1.45167E-09 -1.45753E-09 -1.46298E-09 -1.46802E-09 -1.47270E-09 -1.47701E-09 -1.48099E-09
  -1.48464E-09 -1.48799E-09 -1.49106E-09 -1.49387E-09 -1.49643E-09 -1.49876E-09 -1.50089E-09 -1.50283E-09 -1.50459E-09 -1.50621E-09
  -1.50769E-09 -1.50906E-09 -1.51034E-09 -1.51154E-09 -1.51268E-09 -1.51378E-09 -1.51486E-09 -1.51594E-09 -1.51704E-09 -1.51818E-09
  -1.51937E-09 -1.52064E-09 -1.52200E-09 -1.52347E-09 -1.52507E-09 -1.52682E-09 -1.52874E-09 -1.53084E-09 -1.53316E-09 -1.53569E-09
  -1.53847E-09 -1.54151E-09 -1.54481E-09 -1.54837E-09 -1.55218E-09 -1.55623E-09 -1.56052E-09 -1.56504E-09 -1.56978E-09 -1.57474E-09
  -1.57991E-09 -1.58529E-09 -1.59086E-09 -1.59662E-09 -1.60257E-09 -1.60870E-09 -1.61500E-09 -1.62147E-09 -1.62809E-09 -1.63486E-09
  -1.64179E-09 -1.64885E-09 -1.65604E-09 -1.66336E-09 -1.67080E-09 -1.67836E-09 -1.68602E-09 -1.69378E-09 -1.70163E-09 -1.70958E-09
  -1.71760E-09 -1.72570E-09 -1.73386E-09 -1.74209E-09 -1.75037E-09 -1.75870E-09 -1.76708E-09 -1.77548E-09 -1.78392E-09 -1.79238E-09
  -1.80085E-09 -1.80934E-09 -1.81783E-09 -1.82631E-09 -1.83478E-09 -1.84324E-09 -1.85168E-09 -1.86008E-09 -1.86845E-09 -1.87677E-09
  -1.88505E-09 -1.89327E-09 -1.90143E-09
 Asp      Conc. = 2.40E-09
   5.10094E-10 -1.44528E-10 -1.05142E-10 -3.20982E-10 -6.69547E-10 -4.79903E-10 -9.72199E-10 -1.20829E-09 -1.27649E-09 -1.28169E-09
  -1.25819E-09 -1.21932E-09 -1.17380E-09 -1.11104E-09 -1.04835E-09 -9.84061E-10 -9.17944E-10 -8.50187E-10 -7.81031E-10 -7.10605E-10
  -6.39017E-10 -5.66299E-10 -4.92421E-10 -4.17320E-10 -3.40874E-10 -2.62856E-10 -1.82974E-10 -1.00784E-10 -1.56660E-11  7.33263E-11
   1.67634E-10  2.69548E-10  3.83194E-10  5.16616E-10  6.88703E-10  9.54259E-10  1.27633E-09  1.34076E-09  1.51387E-09  1.47605E-09
   1.63790E-09  1.92822E-09  2.70054E-09  2.87543E-09  4.20973E-09  3.96434E-09  3.67449E-09  3.77476E-09  4.70027E-09  4.22878E-09
   4.50294E-09  4.98059E-09  5.13923E-09  4.50478E-09  5.25732E-09  4.05304E-09  3.29418E-09  3.45563E-09  3.93850E-09  3.17132E-09
   3.00874E-09  3.12909E-09  2.76997E-09  2.69600E-09  3.00477E-09  2.98240E-09  2.82670E-09  2.76536E-09  2.74643E-09  2.74940E-09
   2.76525E-09  2.78934E-09  2.81899E-09  2.85254E-09  2.88888E-09  2.92722E-09  2.96702E-09  3.00786E-09  3.04943E-09  3.09146E-09
   3.13377E-09  3.17620E-09  3.21861E-09  3.26090E-09  3.30296E-09  3.34473E-09  3.38613E-09  3.42711E-09  3.46760E-09  3.50757E-09
   3.54697E-09  3.58576E-09  3.62392E-09  3.66139E-09  3.69816E-09  3.73420E-09  3.76948E-09  3.80397E-09  3.83766E-09  3.87052E-09
   3.90252E-09  3.93365E-09  3.96390E-09  3.99323E-09  4.02165E-09  4.04911E-09  4.07560E-09  4.10111E-09  4.12561E-09  4.14911E-09
   4.17156E-09  4.19297E-09  4.21330E-09  4.23255E-09  4.25069E-09  4.26772E-09  4.28361E-09  4.29836E-09  4.31194E-09  4.32434E-09
   4.33554E-09  4.34553E-09  4.35430E-09  4.36183E-09  4.36810E-09  4.37311E-09  4.37683E-09  4.37926E-09  4.38037E-09  4.38016E-09
   4.37861E-09  4.37571E-09  4.37145E-09  4.36581E-09  4.35879E-09  4.35036E-09  4.34052E-09  4.32925E-09  4.31656E-09  4.30243E-09
   4.28684E-09  4.26980E-09  4.25130E-09  4.23133E-09  4.20989E-09  4.18699E-09  4.16263E-09  4.13681E-09  4.10955E-09  4.08089E-09
   4.05083E-09  4.01945E-09  3.98680E-09  3.95297E-09  3.91809E-09  3.88235E-09  3.84605E-09  3.80963E-09  3.77381E-09  3.73969E-09
   3.70912E-09  3.68544E-09  3.67540E-09  3.69473E-09  3.78878E-09  4.13937E-09  5.84205E-09  6.77824E-09  5.90100E-09  5.98534E-09
   6.17369E-09  6.23537E-09  6.32317E-09  6.37391E-09  6.28013E-09  6.22639E-09  6.76918E-09  5.85938E-09  3.53188E-09  2.94558E-09
   2.69189E-09  2.53407E-09  2.41437E-09  2.31308E-09  2.22185E-09  2.13668E-09  2.05538E-09  1.97671E-09  1.89994E-09  1.82460E-09
   1.75037E-09  1.67709E-09  1.60460E-09  1.53288E-09  1.46183E-09  1.39146E-09  1.32175E-09  1.25274E-09  1.18441E-09  1.11681E-09
   1.04997E-09  9.83912E-10  9.18687E-10  8.54326E-10  7.90879E-10  7.28381E-10  6.66902E-10  6.06449E-10  5.47096E-10  4.88814E-10
   4.31601E-10  3.75443E-10  3.20336E-10  2.66261E-10  2.13219E-10  1.61190E-10  1.10176E-10  6.01680E-11  1.11486E-11 -3.68869E-11
  -8.39358E-11 -1.30018E-10 -1.75137E-10 -2.19299E-10 -2.62515E-10 -3.04790E-10 -3.46120E-10 -3.86535E-10 -4.26037E-10 -4.64614E-10
