 LCModel (Version 6.3-1R) Copyright: S.W. Provencher.          Ref.: Magn. Reson. Med. 30:672-679 (1993).                
 onepulse 24x15_ftSpec_smooth_lcm
 26 lines in following concentration table = NCONC+1
    Conc.  %SD /Cr+PCr  Metabolite                                         
    0.000 999%   0.000 Ala                                                 
    0.000 999%   0.000 Asp                                                 
    0.000 999%   0.000 Cr                                                  
 4.23E-10 151%   1.627 GABA                                                
 7.50E-10  62%   2.884 Glc                                                 
    0.000 999%   0.000 Gln                                                 
 2.51E-09  19%   9.648 Glu                                                 
    0.000 999%   0.000 Glyc                                                
    0.000 999%   0.000 GPC                                                 
 1.42E-10 196%   0.544 GSH                                                 
    0.000 999%   0.000 Ins                                                 
    0.000 999%   0.000 Lac                                                 
    0.000 999%   0.000 NAAG                                                
    0.000 999%   0.000 NAA                                                 
 8.94E-11  86%   0.344 PCh                                                 
 2.60E-10 109%   1.000 PCr                                                 
    0.000 999%   0.000 PE                                                  
 4.29E-11 294%   0.165 Scyllo                                              
    0.000 999%   0.000 Ser                                                 
    0.000 999%   0.000 Tau                                                 
 8.94E-11  86%   0.344 GPC+PCh                                             
    0.000 999%   0.000 NAA+NAAG                                            
    0.000 999%   0.000 Ins+Glyc                                            
 2.60E-10 109%   1.000 Cr+PCr                                              
 2.51E-09  19%   9.648 Glu+Gln                                             
   6 lines in following misc. output table
  FWHM = 0.045 ppm    S/N =   2                                            
  Data shift = 0.246 ppm                                                   
  Ph: -65 deg      -6.5 deg/ppm                                            
  alphaB,S = 2.0E-01,   1.3E+01                                            
   10 spline knots.   Ns = 5(1)                                            
  ( 7) 3 infls.   ( 9) 3 extrs.                                            
  363 points on ppm-axis = NY
      4.250000     4.238821     4.227641     4.216462     4.205282     4.194103     4.182923     4.171744     4.160564     4.149385
      4.138206     4.127026     4.115847     4.104667     4.093488     4.082308     4.071129     4.059949     4.048770     4.037591
      4.026411     4.015232     4.004052     3.992873     3.981693     3.970514     3.959334     3.948155     3.936975     3.925796
      3.914617     3.903437     3.892258     3.881078     3.869899     3.858719     3.847540     3.836360     3.825181     3.814002
      3.802822     3.791643     3.780463     3.769284     3.758104     3.746925     3.735745     3.724566     3.713387     3.702207
      3.691028     3.679848     3.668669     3.657489     3.646310     3.635130     3.623951     3.612772     3.601592     3.590413
      3.579233     3.568054     3.556874     3.545695     3.534515     3.523336     3.512156     3.500977     3.489798     3.478618
      3.467439     3.456259     3.445080     3.433900     3.422721     3.411541     3.400362     3.389183     3.378003     3.366824
      3.355644     3.344465     3.333285     3.322106     3.310926     3.299747     3.288568     3.277388     3.266209     3.255029
      3.243850     3.232670     3.221491     3.210311     3.199132     3.187953     3.176773     3.165594     3.154414     3.143235
      3.132055     3.120876     3.109696     3.098517     3.087337     3.076158     3.064979     3.053799     3.042620     3.031440
      3.020261     3.009081     2.997902     2.986722     2.975543     2.964364     2.953184     2.942005     2.930825     2.919646
      2.908466     2.897287     2.886107     2.874928     2.863749     2.852569     2.841390     2.830210     2.819031     2.807851
      2.796672     2.785492     2.774313     2.763134     2.751954     2.740775     2.729595     2.718416     2.707236     2.696057
      2.684877     2.673698     2.662519     2.651339     2.640160     2.628980     2.617801     2.606621     2.595442     2.584262
      2.573083     2.561903     2.550724     2.539545     2.528365     2.517186     2.506006     2.494827     2.483647     2.472468
      2.461288     2.450109     2.438930     2.427750     2.416571     2.405391     2.394212     2.383032     2.371853     2.360673
      2.349494     2.338315     2.327135     2.315956     2.304776     2.293597     2.282417     2.271238     2.260058     2.248879
      2.237700     2.226520     2.215341     2.204161     2.192982     2.181802     2.170623     2.159443     2.148264     2.137084
      2.125905     2.114726     2.103546     2.092367     2.081187     2.070008     2.058828     2.047649     2.036469     2.025290
      2.014111     2.002931     1.991752     1.980572     1.969393     1.958213     1.947034     1.935854     1.924675     1.913496
      1.902316     1.891137     1.879957     1.868778     1.857598     1.846419     1.835239     1.824060     1.812881     1.801701
      1.790522     1.779342     1.768163     1.756983     1.745804     1.734624     1.723445     1.712265     1.701086     1.689907
      1.678727     1.667548     1.656368     1.645189     1.634009     1.622830     1.611650     1.600471     1.589292     1.578112
      1.566933     1.555753     1.544574     1.533394     1.522215     1.511035     1.499856     1.488677     1.477497     1.466318
      1.455138     1.443959     1.432779     1.421600     1.410420     1.399241     1.388062     1.376882     1.365703     1.354523
      1.343344     1.332164     1.320985     1.309805     1.298626     1.287446     1.276267     1.265088     1.253908     1.242729
      1.231549     1.220370     1.209190     1.198011     1.186831     1.175652     1.164473     1.153293     1.142114     1.130934
      1.119755     1.108575     1.097396     1.086216     1.075037     1.063858     1.052678     1.041499     1.030319     1.019140
      1.007960     0.996781     0.985601     0.974422     0.963243     0.952063     0.940884     0.929704     0.918525     0.907345
      0.896166     0.884986     0.873807     0.862628     0.851448     0.840269     0.829089     0.817910     0.806730     0.795551
      0.784371     0.773192     0.762012     0.750833     0.739654     0.728474     0.717295     0.706115     0.694936     0.683756
      0.672577     0.661397     0.650218     0.639039     0.627859     0.616680     0.605500     0.594321     0.583141     0.571962
      0.560782     0.549603     0.538424     0.527244     0.516065     0.504885     0.493706     0.482526     0.471347     0.460167
      0.448988     0.437809     0.426629     0.415450     0.404270     0.393091     0.381911     0.370732     0.359552     0.348373
      0.337193     0.326014     0.314835     0.303655     0.292476     0.281296     0.270117     0.258937     0.247758     0.236578
      0.225399     0.214220     0.203040
 NY phased data points follow
   7.35396E-09  7.31131E-09  8.03722E-09  8.65681E-09  9.75443E-09  1.05534E-08  1.21077E-08  1.26255E-08  1.28443E-08  1.15760E-08
   9.73436E-09  6.81420E-09  4.85480E-09  4.42265E-09  4.35310E-09  3.69813E-09  4.86189E-09  4.41232E-09  5.10044E-09  5.03335E-09
   5.65547E-09  5.67325E-09  5.22126E-09  5.57229E-09  5.89456E-09  4.05825E-09  4.91696E-09  4.02682E-09  4.41210E-09  3.78208E-09
   3.26056E-09  3.74161E-09  5.12456E-09  4.94869E-09  4.91332E-09  3.60640E-09  3.33489E-09  2.90452E-09  4.00240E-09  4.42121E-09
   5.26947E-09  4.69580E-09  2.63535E-09  8.46457E-10  1.04864E-10 -7.83969E-10 -1.58467E-09 -7.24581E-10 -3.41475E-10 -7.68782E-10
  -8.62525E-10 -3.65213E-10  6.20092E-13 -1.03375E-09 -2.02927E-10  3.15068E-10 -5.26119E-10  6.66233E-10  3.76826E-10  1.38723E-09
   1.82589E-09  6.61328E-10  1.17010E-09  1.22285E-09  8.24161E-10  2.62885E-09  3.22912E-09  2.91691E-09  4.39681E-09  5.05082E-09
   7.05218E-09  9.23376E-09  9.35077E-09  6.28386E-09  2.25362E-09  2.76516E-10 -1.15740E-09 -8.87875E-10 -1.04028E-09 -6.89773E-10
  -6.81007E-10 -6.16862E-10  3.77106E-11  6.37571E-10  1.43522E-09  2.33556E-09  4.41424E-09  6.73164E-09  8.96495E-09  7.42093E-09
   4.51404E-09  1.75381E-09  2.19103E-10 -6.87266E-10 -1.43397E-09 -1.89540E-09 -2.18208E-09 -2.62900E-09 -2.45834E-09 -2.25107E-09
  -3.06398E-09 -3.54043E-09 -2.69656E-09 -3.57580E-09 -3.00372E-09 -3.25742E-09 -2.74596E-09 -2.54707E-09 -3.06591E-09 -2.71752E-09
  -2.63246E-09 -2.34670E-09 -1.84963E-09 -3.13208E-09 -2.38620E-09 -2.03887E-09 -2.94352E-09 -3.20403E-09 -3.03344E-09 -2.65022E-09
  -2.54467E-09 -1.56261E-09 -1.14868E-09 -1.21946E-09 -1.32669E-09 -9.30464E-10 -9.62292E-10 -7.73034E-10 -1.11339E-09 -1.33322E-09
  -1.85420E-09 -2.31788E-09 -2.56408E-09 -2.75303E-09 -2.23613E-09 -2.16601E-09 -1.30801E-09 -8.15208E-10 -8.69791E-10 -1.45031E-09
  -1.20629E-09 -1.20623E-09 -1.12206E-09 -1.78455E-09 -8.90877E-10 -9.52877E-10 -4.92796E-10 -6.69725E-10  9.94144E-10  1.16120E-09
   1.10419E-09 -2.73520E-10 -7.41412E-11  2.35703E-10  8.45269E-10  1.12112E-09  5.23324E-10  4.62374E-10 -2.56102E-10 -1.64117E-10
   1.06658E-10 -1.28955E-09 -7.77988E-10 -4.89955E-10 -5.48576E-10 -4.48157E-10 -8.47462E-11 -1.12809E-10  1.35044E-10 -4.29133E-11
   8.39143E-12 -5.71639E-11 -3.34305E-10  2.91134E-10  1.31045E-09  2.58733E-09  3.80563E-09  3.77207E-09  5.50675E-09  7.92987E-09
   8.67225E-09  3.57138E-09 -1.01139E-09 -3.98096E-09 -5.05026E-09 -6.00495E-09 -7.09691E-09 -7.85846E-09 -8.32979E-09 -9.09015E-09
  -9.61449E-09 -9.68855E-09 -1.05125E-08 -1.10850E-08 -1.16216E-08 -1.22916E-08 -1.27604E-08 -1.36021E-08 -1.39006E-08 -1.44500E-08
  -1.45048E-08 -1.56515E-08 -1.57304E-08 -1.59384E-08 -1.64413E-08 -1.64276E-08 -1.64148E-08 -1.59042E-08 -1.46633E-08 -1.41526E-08
  -1.32794E-08 -1.14867E-08 -1.02553E-08 -8.34294E-09 -7.51347E-09 -5.07706E-09 -4.34735E-09 -2.92755E-09 -1.00517E-09 -4.46141E-10
   1.14981E-09  7.79911E-10  1.35503E-09  1.88948E-09  1.49980E-09  4.52487E-10  1.10687E-09 -1.62371E-10 -5.17143E-11 -8.36517E-10
  -2.27539E-10 -3.10761E-11 -7.84604E-10 -7.02165E-10 -8.65670E-11 -4.44276E-10  2.67009E-13 -2.59693E-10 -6.75803E-10 -3.30684E-10
  -9.71084E-10 -9.04484E-10 -1.12572E-09 -6.49163E-10 -5.45859E-10 -4.42467E-10 -2.51836E-10 -2.39138E-10  9.89484E-11 -2.81278E-10
  -1.08292E-09 -4.85337E-10 -8.49746E-10 -6.59221E-10 -8.23232E-10 -7.54634E-10 -4.23916E-10 -4.86815E-10  5.80196E-10 -6.61063E-11
   2.19003E-10  1.63709E-10  3.55160E-10 -3.58769E-10 -3.14394E-10 -4.13207E-10 -1.28412E-09 -6.25883E-10 -1.09990E-09 -6.48466E-10
  -1.15353E-09 -1.18549E-09 -4.35530E-10 -3.33464E-10 -2.34502E-10 -5.13158E-11 -1.14650E-10  3.79083E-10  1.13127E-09  5.53150E-10
   6.65838E-10  4.54364E-10  7.15028E-10  9.38396E-10  4.19636E-10  1.25011E-10  9.29294E-11 -3.60371E-10 -1.37884E-10 -9.16983E-10
  -4.33367E-10 -8.78040E-10 -6.54009E-10 -4.64662E-10 -5.72133E-10 -2.41900E-10 -6.38976E-10 -5.23822E-10 -1.30008E-10 -8.33248E-10
  -4.62440E-10 -1.72009E-10 -2.45314E-10 -4.18405E-11  1.43370E-10  1.34344E-10 -3.06351E-10 -5.47040E-10 -3.96732E-10  3.19429E-10
  -7.14795E-10 -1.17886E-10 -1.45736E-10 -1.03331E-11  1.48913E-10 -7.92511E-10  2.21429E-10 -3.44089E-10 -5.30935E-10  3.80524E-10
   3.38074E-11  2.09728E-10  1.53976E-10  6.27007E-10 -7.09834E-11  5.68088E-10  9.02478E-11  6.91983E-10  3.81938E-10 -1.18126E-10
   5.36356E-10  5.72714E-10  7.17923E-10  5.02389E-10  3.26405E-10  2.77486E-10  6.70828E-10  5.12458E-10  6.27785E-10  9.37767E-10
   7.55001E-10  4.50422E-10  8.82117E-10  5.56123E-10  1.19957E-09  4.62599E-10  2.59500E-10  9.30211E-10  5.91410E-10  9.85080E-10
   6.11038E-10  7.83277E-10  8.82801E-10  1.43084E-09  5.77122E-10  1.10843E-09  7.68897E-10  9.28538E-10  1.09487E-09  7.82997E-10
   1.24696E-09  6.50061E-10  3.87997E-10
 NY points of the fit to the data follow
   8.48478E-09  8.34423E-09  7.93551E-09  8.23836E-09  8.87513E-09  9.59603E-09  1.01960E-08  1.05382E-08  1.01103E-08  9.21094E-09
   8.63055E-09  7.57896E-09  6.81242E-09  6.24475E-09  5.63432E-09  5.30695E-09  5.05548E-09  4.91950E-09  4.89289E-09  4.99334E-09
   5.20121E-09  5.42618E-09  5.55872E-09  5.60959E-09  5.29795E-09  4.65645E-09  4.24384E-09  3.90225E-09  3.60381E-09  3.57601E-09
   3.84896E-09  4.38988E-09  4.93391E-09  4.71548E-09  3.70189E-09  2.97498E-09  2.90210E-09  3.04150E-09  3.36113E-09  3.72825E-09
   3.92704E-09  3.70921E-09  2.66486E-09  1.63170E-09  1.28963E-09  9.87467E-10  5.94560E-10  2.54641E-10  3.58982E-11 -9.49081E-11
  -1.79771E-10 -2.40341E-10 -2.98539E-10 -3.32445E-10 -3.43113E-10 -3.44536E-10 -3.09208E-10 -2.26313E-10 -7.09459E-11  2.54768E-10
   6.37214E-10  8.67942E-10  1.32447E-09  1.92956E-09  2.37702E-09  3.06402E-09  3.90147E-09  4.73327E-09  5.49319E-09  5.91458E-09
   5.95502E-09  6.07251E-09  5.81289E-09  4.37729E-09  3.15823E-09  2.39207E-09  1.37960E-09  1.09508E-09  1.27590E-09  1.60280E-09
   2.13236E-09  2.69312E-09  3.19708E-09  3.54665E-09  3.35755E-09  3.04067E-09  2.63633E-09  2.07296E-09  1.45037E-09  8.08342E-10
   4.13073E-10 -2.97118E-12 -1.80886E-10 -4.65861E-10 -7.44280E-10 -7.96034E-10 -9.58091E-10 -1.19211E-09 -1.29673E-09 -1.39412E-09
  -1.50225E-09 -1.58034E-09 -1.63765E-09 -1.68035E-09 -1.71232E-09 -1.73712E-09 -1.75609E-09 -1.77022E-09 -1.78029E-09 -1.78693E-09
  -1.79081E-09 -1.79253E-09 -1.79242E-09 -1.79079E-09 -1.78786E-09 -1.78381E-09 -1.77894E-09 -1.77350E-09 -1.76770E-09 -1.76170E-09
  -1.75569E-09 -1.74979E-09 -1.74418E-09 -1.73901E-09 -1.73442E-09 -1.73054E-09 -1.72753E-09 -1.72550E-09 -1.72459E-09 -1.72492E-09
  -1.72662E-09 -1.72981E-09 -1.73461E-09 -1.74112E-09 -1.74949E-09 -1.75981E-09 -1.77221E-09 -1.78679E-09 -1.80369E-09 -1.82300E-09
  -1.84482E-09 -1.86927E-09 -1.89647E-09 -1.92652E-09 -1.95952E-09 -1.99559E-09 -2.03481E-09 -2.07729E-09 -2.12313E-09 -2.17242E-09
  -2.22525E-09 -2.28170E-09 -2.34184E-09 -2.40572E-09 -2.47339E-09 -2.54485E-09 -2.62007E-09 -2.69866E-09 -2.78011E-09 -2.86371E-09
  -2.94850E-09 -3.03297E-09 -3.11459E-09 -3.18837E-09 -3.24289E-09 -3.24426E-09 -3.04026E-09 -2.08509E-09 -9.38857E-10 -5.13074E-10
  -6.21281E-10 -7.22941E-10 -2.53593E-10  1.19550E-09  3.58494E-09  6.19379E-09  7.43804E-09  5.52486E-09  6.68970E-10 -2.85055E-09
  -3.90020E-09 -4.39327E-09 -4.70258E-09 -4.92980E-09 -5.11290E-09 -5.26902E-09 -5.40690E-09 -5.53136E-09 -5.64526E-09 -5.75033E-09
  -5.84763E-09 -5.93784E-09 -6.02135E-09 -6.09842E-09 -6.16914E-09 -6.23354E-09 -6.29158E-09 -6.34320E-09 -6.38826E-09 -6.42665E-09
  -6.45820E-09 -6.48273E-09 -6.50007E-09 -6.51002E-09 -6.51237E-09 -6.50692E-09 -6.49346E-09 -6.47176E-09 -6.44175E-09 -6.40365E-09
  -6.35774E-09 -6.30432E-09 -6.24368E-09 -6.17608E-09 -6.10182E-09 -6.02118E-09 -5.93443E-09 -5.84186E-09 -5.74374E-09 -5.64034E-09
  -5.53196E-09 -5.41885E-09 -5.30131E-09 -5.17960E-09 -5.05399E-09 -4.92477E-09 -4.79221E-09 -4.65658E-09 -4.51816E-09 -4.37721E-09
  -4.23402E-09 -4.08886E-09 -3.94201E-09 -3.79372E-09 -3.64429E-09 -3.49397E-09 -3.34305E-09 -3.19180E-09 -3.04048E-09 -2.88939E-09
  -2.73877E-09 -2.58891E-09 -2.44009E-09 -2.29256E-09 -2.14661E-09 -2.00251E-09 -1.86054E-09 -1.72094E-09 -1.58402E-09 -1.45005E-09
  -1.31927E-09 -1.19198E-09 -1.06844E-09 -9.48935E-10 -8.33722E-10 -7.23073E-10 -6.17276E-10 -5.16596E-10 -4.21291E-10 -3.31653E-10
  -2.47740E-10 -1.69423E-10 -9.65596E-11 -2.89778E-11  3.34690E-11  9.09272E-11  1.43560E-10  1.91509E-10  2.34943E-10  2.74004E-10
   3.08838E-10  3.39617E-10  3.66470E-10  3.89579E-10  4.09090E-10  4.25131E-10  4.37884E-10  4.47486E-10  4.54111E-10  4.57878E-10
   4.58976E-10  4.57518E-10  4.53711E-10  4.47676E-10  4.39549E-10  4.29504E-10  4.17712E-10  4.04305E-10  3.89426E-10  3.73231E-10
   3.55894E-10  3.37569E-10  3.18402E-10  2.98513E-10  2.78111E-10  2.57298E-10  2.36274E-10  2.15166E-10  1.94139E-10  1.73322E-10
   1.52879E-10  1.33007E-10  1.13785E-10  9.54285E-11  7.80661E-11  6.18275E-11  4.68935E-11  3.34457E-11  2.15600E-11  1.14704E-11
   3.27199E-12 -2.89871E-12 -6.96607E-12 -9.02919E-12 -9.15037E-12 -7.38901E-12 -3.80870E-12  1.52864E-12  8.56148E-12  1.72278E-11
   2.74686E-11  3.92149E-11  5.24100E-11  6.69917E-11  8.28974E-11  1.00065E-10  1.18432E-10  1.37938E-10  1.58520E-10  1.80114E-10
   2.02663E-10  2.26103E-10  2.50368E-10  2.75403E-10  3.01141E-10  3.27521E-10  3.54485E-10  3.81966E-10  4.09903E-10  4.38236E-10
   4.66903E-10  4.95839E-10  5.24987E-10  5.54283E-10  5.83660E-10  6.13062E-10  6.42430E-10  6.71693E-10  7.00796E-10  7.29671E-10
   7.58265E-10  7.86508E-10  8.14343E-10  8.41704E-10  8.68529E-10  8.94764E-10  9.20342E-10  9.45194E-10  9.69270E-10  9.92501E-10
   1.01483E-09  1.03618E-09  1.05651E-09
 NY background values follow
     3.913E-09    3.802E-09    3.691E-09    3.580E-09    3.469E-09    3.358E-09    3.247E-09    3.135E-09    3.023E-09    2.912E-09
     2.800E-09    2.689E-09    2.578E-09    2.466E-09    2.356E-09    2.245E-09    2.135E-09    2.025E-09    1.915E-09    1.806E-09
     1.698E-09    1.590E-09    1.482E-09    1.376E-09    1.270E-09    1.164E-09    1.060E-09    9.559E-10    8.530E-10    7.510E-10
     6.499E-10    5.498E-10    4.508E-10    3.528E-10    2.560E-10    1.603E-10    6.590E-11   -2.730E-11   -1.192E-10   -2.097E-10
    -2.988E-10   -3.865E-10   -4.727E-10   -5.574E-10   -6.405E-10   -7.220E-10   -8.019E-10   -8.800E-10   -9.564E-10   -1.031E-09
    -1.104E-09   -1.175E-09   -1.243E-09   -1.310E-09   -1.375E-09   -1.439E-09   -1.500E-09   -1.559E-09   -1.616E-09   -1.672E-09
    -1.726E-09   -1.778E-09   -1.828E-09   -1.876E-09   -1.923E-09   -1.967E-09   -2.011E-09   -2.052E-09   -2.091E-09   -2.129E-09
    -2.166E-09   -2.200E-09   -2.233E-09   -2.265E-09   -2.294E-09   -2.323E-09   -2.349E-09   -2.374E-09   -2.398E-09   -2.420E-09
    -2.440E-09   -2.460E-09   -2.477E-09   -2.493E-09   -2.508E-09   -2.521E-09   -2.533E-09   -2.544E-09   -2.553E-09   -2.561E-09
    -2.567E-09   -2.572E-09   -2.576E-09   -2.579E-09   -2.580E-09   -2.580E-09   -2.579E-09   -2.577E-09   -2.573E-09   -2.568E-09
    -2.562E-09   -2.555E-09   -2.547E-09   -2.538E-09   -2.528E-09   -2.516E-09   -2.504E-09   -2.491E-09   -2.477E-09   -2.463E-09
    -2.448E-09   -2.432E-09   -2.417E-09   -2.401E-09   -2.385E-09   -2.369E-09   -2.353E-09   -2.338E-09   -2.323E-09   -2.308E-09
    -2.294E-09   -2.280E-09   -2.267E-09   -2.255E-09   -2.244E-09   -2.234E-09   -2.226E-09   -2.218E-09   -2.212E-09   -2.207E-09
    -2.204E-09   -2.203E-09   -2.203E-09   -2.206E-09   -2.210E-09   -2.217E-09   -2.225E-09   -2.236E-09   -2.250E-09   -2.266E-09
    -2.284E-09   -2.305E-09   -2.330E-09   -2.357E-09   -2.387E-09   -2.420E-09   -2.457E-09   -2.497E-09   -2.540E-09   -2.587E-09
    -2.638E-09   -2.692E-09   -2.750E-09   -2.812E-09   -2.879E-09   -2.949E-09   -3.024E-09   -3.103E-09   -3.186E-09   -3.272E-09
    -3.362E-09   -3.455E-09   -3.551E-09   -3.650E-09   -3.751E-09   -3.854E-09   -3.959E-09   -4.065E-09   -4.174E-09   -4.283E-09
    -4.393E-09   -4.504E-09   -4.616E-09   -4.727E-09   -4.839E-09   -4.951E-09   -5.061E-09   -5.172E-09   -5.281E-09   -5.389E-09
    -5.495E-09   -5.600E-09   -5.703E-09   -5.804E-09   -5.902E-09   -5.998E-09   -6.090E-09   -6.180E-09   -6.266E-09   -6.348E-09
    -6.427E-09   -6.501E-09   -6.571E-09   -6.636E-09   -6.697E-09   -6.752E-09   -6.802E-09   -6.847E-09   -6.885E-09   -6.918E-09
    -6.944E-09   -6.964E-09   -6.977E-09   -6.983E-09   -6.981E-09   -6.972E-09   -6.955E-09   -6.930E-09   -6.897E-09   -6.857E-09
    -6.808E-09   -6.752E-09   -6.689E-09   -6.620E-09   -6.543E-09   -6.461E-09   -6.372E-09   -6.277E-09   -6.178E-09   -6.073E-09
    -5.963E-09   -5.848E-09   -5.729E-09   -5.606E-09   -5.479E-09   -5.348E-09   -5.214E-09   -5.078E-09   -4.938E-09   -4.796E-09
    -4.651E-09   -4.505E-09   -4.357E-09   -4.208E-09   -4.058E-09   -3.906E-09   -3.754E-09   -3.602E-09   -3.450E-09   -3.298E-09
    -3.146E-09   -2.996E-09   -2.846E-09   -2.698E-09   -2.551E-09   -2.406E-09   -2.263E-09   -2.123E-09   -1.985E-09   -1.851E-09
    -1.719E-09   -1.591E-09   -1.467E-09   -1.347E-09   -1.231E-09   -1.120E-09   -1.013E-09   -9.120E-10   -8.161E-10   -7.259E-10
    -6.414E-10   -5.625E-10   -4.891E-10   -4.209E-10   -3.579E-10   -2.999E-10   -2.467E-10   -1.983E-10   -1.543E-10   -1.147E-10
    -7.938E-11   -4.810E-11   -2.075E-11    2.851E-12    2.285E-11    3.937E-11    5.260E-11    6.267E-11    6.975E-11    7.398E-11
     7.553E-11    7.452E-11    7.116E-11    6.556E-11    5.787E-11    4.826E-11    3.689E-11    2.391E-11    9.446E-12   -6.335E-12
    -2.326E-11   -4.118E-11   -5.994E-11   -7.943E-11   -9.943E-11   -1.199E-10   -1.405E-10   -1.612E-10   -1.819E-10   -2.023E-10
    -2.224E-10   -2.418E-10   -2.607E-10   -2.787E-10   -2.957E-10   -3.115E-10   -3.261E-10   -3.392E-10   -3.507E-10   -3.605E-10
    -3.683E-10   -3.741E-10   -3.778E-10   -3.796E-10   -3.793E-10   -3.772E-10   -3.733E-10   -3.676E-10   -3.603E-10   -3.513E-10
    -3.407E-10   -3.286E-10   -3.151E-10   -3.002E-10   -2.839E-10   -2.664E-10   -2.477E-10   -2.279E-10   -2.070E-10   -1.851E-10
    -1.622E-10   -1.384E-10   -1.139E-10   -8.850E-11   -6.245E-11   -3.575E-11   -8.471E-12    1.933E-11    4.758E-11    7.622E-11
     1.052E-10    1.345E-10    1.639E-10    1.935E-10    2.232E-10    2.529E-10    2.826E-10    3.122E-10    3.416E-10    3.708E-10
     3.997E-10    4.282E-10    4.563E-10    4.840E-10    5.111E-10    5.377E-10    5.636E-10    5.887E-10    6.131E-10    6.366E-10
     6.593E-10    6.809E-10    7.016E-10
 GABA     Conc. = 4.23E-10
   3.94418E-09  3.83406E-09  3.72366E-09  3.61303E-09  3.50221E-09  3.39126E-09  3.28023E-09  3.16915E-09  3.05810E-09  2.94711E-09
   2.83624E-09  2.72556E-09  2.61511E-09  2.50495E-09  2.39517E-09  2.28581E-09  2.17695E-09  2.06870E-09  1.96118E-09  1.85443E-09
   1.74866E-09  1.64404E-09  1.54076E-09  1.43919E-09  1.33987E-09  1.24352E-09  1.15190E-09  1.06826E-09  1.00168E-09  9.75293E-10
   9.09270E-10  8.30670E-10  8.44203E-10  8.46277E-10  8.15143E-10  8.41723E-10  8.89033E-10  9.18595E-10  8.90606E-10  7.87241E-10
   6.85541E-10  6.98247E-10  4.70102E-10  7.28332E-11 -3.18982E-11 -1.59862E-10 -4.56820E-10 -6.44425E-10 -7.74833E-10 -8.80502E-10
  -9.72598E-10 -1.05596E-09 -1.13285E-09 -1.20430E-09 -1.27111E-09 -1.33372E-09 -1.39204E-09 -1.44566E-09 -1.49347E-09 -1.53298E-09
  -1.55888E-09 -1.55346E-09 -1.53386E-09 -1.55549E-09 -1.54171E-09 -1.48337E-09 -1.45610E-09 -1.41659E-09 -1.33445E-09 -1.24349E-09
  -1.18875E-09 -1.22044E-09 -1.32704E-09 -1.39459E-09 -1.47247E-09 -1.78199E-09 -2.00092E-09 -2.01965E-09 -2.12175E-09 -2.23306E-09
  -2.27091E-09 -2.30933E-09 -2.32198E-09 -2.28357E-09 -2.27072E-09 -2.26151E-09 -2.21017E-09 -2.15252E-09 -2.09019E-09 -2.04037E-09
  -2.02552E-09 -1.96698E-09 -1.87815E-09 -1.94448E-09 -2.02622E-09 -1.96874E-09 -2.03378E-09 -2.16811E-09 -2.19979E-09 -2.23917E-09
  -2.29842E-09 -2.33490E-09 -2.35685E-09 -2.36966E-09 -2.37627E-09 -2.37848E-09 -2.37732E-09 -2.37342E-09 -2.36728E-09 -2.35926E-09
  -2.34982E-09 -2.33937E-09 -2.32811E-09 -2.31622E-09 -2.30381E-09 -2.29097E-09 -2.27794E-09 -2.26489E-09 -2.25197E-09 -2.23930E-09
  -2.22701E-09 -2.21521E-09 -2.20402E-09 -2.19357E-09 -2.18397E-09 -2.17534E-09 -2.16779E-09 -2.16145E-09 -2.15641E-09 -2.15280E-09
  -2.15071E-09 -2.15027E-09 -2.15157E-09 -2.15473E-09 -2.15985E-09 -2.16703E-09 -2.17640E-09 -2.18806E-09 -2.20212E-09 -2.21868E-09
  -2.23783E-09 -2.25970E-09 -2.28438E-09 -2.31199E-09 -2.34263E-09 -2.37641E-09 -2.41343E-09 -2.45378E-09 -2.49758E-09 -2.54494E-09
  -2.59595E-09 -2.65072E-09 -2.70935E-09 -2.77193E-09 -2.83857E-09 -2.90936E-09 -2.98436E-09 -3.06338E-09 -3.14615E-09 -3.23236E-09
  -3.32170E-09 -3.41375E-09 -3.50796E-09 -3.60342E-09 -3.69818E-09 -3.78624E-09 -3.83692E-09 -3.78866E-09 -3.80258E-09 -3.89694E-09
  -4.01931E-09 -4.11243E-09 -4.11968E-09 -4.01653E-09 -3.83766E-09 -3.69849E-09 -3.80197E-09 -4.29109E-09 -4.94878E-09 -5.20289E-09
  -5.36249E-09 -5.49365E-09 -5.61200E-09 -5.72277E-09 -5.82806E-09 -5.92883E-09 -6.02545E-09 -6.11805E-09 -6.20666E-09 -6.29117E-09
  -6.37144E-09 -6.44732E-09 -6.51861E-09 -6.58512E-09 -6.64663E-09 -6.70292E-09 -6.75376E-09 -6.79894E-09 -6.83821E-09 -6.87136E-09
  -6.89813E-09 -6.91829E-09 -6.93162E-09 -6.93786E-09 -6.93678E-09 -6.92814E-09 -6.91171E-09 -6.88723E-09 -6.85461E-09 -6.81405E-09
  -6.76584E-09 -6.71023E-09 -6.64752E-09 -6.57796E-09 -6.50184E-09 -6.41942E-09 -6.33098E-09 -6.23678E-09 -6.13711E-09 -6.03223E-09
  -5.92242E-09 -5.80794E-09 -5.68908E-09 -5.56610E-09 -5.43927E-09 -5.30887E-09 -5.17517E-09 -5.03843E-09 -4.89894E-09 -4.75697E-09
  -4.61277E-09 -4.46664E-09 -4.31884E-09 -4.16964E-09 -4.01931E-09 -3.86812E-09 -3.71635E-09 -3.56427E-09 -3.41215E-09 -3.26027E-09
  -3.10889E-09 -2.95828E-09 -2.80872E-09 -2.66048E-09 -2.51383E-09 -2.36905E-09 -2.22640E-09 -2.08615E-09 -1.94858E-09 -1.81397E-09
  -1.68257E-09 -1.55467E-09 -1.43054E-09 -1.31045E-09 -1.19466E-09 -1.08344E-09 -9.77088E-10 -8.75861E-10 -7.80018E-10 -6.89849E-10
  -6.05414E-10 -5.26583E-10 -4.53213E-10 -3.85133E-10 -3.22194E-10 -2.64251E-10 -2.11141E-10 -1.62720E-10 -1.18821E-10 -7.93006E-11
  -4.40138E-11 -1.27874E-11  1.45076E-11  3.80524E-11  5.79941E-11  7.44610E-11  8.76352E-11  9.76536E-11  1.04690E-10  1.08864E-10
   1.10365E-10  1.09306E-10  1.05893E-10  1.00249E-10  9.25085E-11  8.28460E-11  7.14335E-11  5.84014E-11  4.38944E-11  2.80685E-11
   1.10966E-11 -6.86658E-12 -2.56739E-11 -4.52059E-11 -6.52544E-11 -8.57166E-11 -1.06393E-10 -1.27156E-10 -1.47841E-10 -1.68318E-10
  -1.88423E-10 -2.07960E-10 -2.26850E-10 -2.44876E-10 -2.61910E-10 -2.77823E-10 -2.92434E-10 -3.05560E-10 -3.17126E-10 -3.26897E-10
  -3.34780E-10 -3.40637E-10 -3.44392E-10 -3.46144E-10 -3.45956E-10 -3.43887E-10 -3.40001E-10 -3.34360E-10 -3.27024E-10 -3.18056E-10
  -3.07515E-10 -2.95470E-10 -2.81978E-10 -2.67100E-10 -2.50900E-10 -2.33438E-10 -2.14779E-10 -1.94981E-10 -1.74109E-10 -1.52225E-10
  -1.29388E-10 -1.05661E-10 -8.11100E-11 -5.57891E-11 -2.97668E-11 -3.10272E-12  2.41438E-11  5.19072E-11  8.01258E-11  1.08739E-10
   1.37687E-10  1.66903E-10  1.96329E-10  2.25903E-10  2.55558E-10  2.85237E-10  3.14882E-10  3.44421E-10  3.73800E-10  4.02951E-10
   4.31820E-10  4.60338E-10  4.88448E-10  5.16083E-10  5.43182E-10  5.69691E-10  5.95543E-10  6.20668E-10  6.45018E-10  6.68522E-10
   6.91120E-10  7.12751E-10  7.33352E-10
 Glc      Conc. = 7.50E-10
   5.49852E-09  5.40031E-09  5.42070E-09  5.58890E-09  5.77129E-09  5.86538E-09  5.75999E-09  5.58417E-09  5.09551E-09  4.59226E-09
   4.29008E-09  4.08172E-09  3.96319E-09  4.02805E-09  4.14426E-09  4.15140E-09  4.09750E-09  4.07121E-09  4.05731E-09  4.17521E-09
   4.41628E-09  4.66009E-09  4.74755E-09  4.55189E-09  3.85642E-09  2.93007E-09  2.39137E-09  2.09685E-09  1.93897E-09  1.81259E-09
   1.62144E-09  1.45336E-09  1.33602E-09  1.14909E-09  9.06389E-10  7.61311E-10  6.14651E-10  4.08952E-10  2.33511E-10  9.50473E-11
  -2.56088E-11 -1.37174E-10 -2.41657E-10 -3.41121E-10 -4.36440E-10 -5.28149E-10 -6.16703E-10 -7.02358E-10 -7.85309E-10 -8.65673E-10
  -9.43598E-10 -1.01910E-09 -1.09221E-09 -1.16298E-09 -1.23146E-09 -1.29773E-09 -1.36184E-09 -1.42383E-09 -1.48376E-09 -1.54165E-09
  -1.59754E-09 -1.65146E-09 -1.70346E-09 -1.75354E-09 -1.80175E-09 -1.84811E-09 -1.89264E-09 -1.93538E-09 -1.97633E-09 -2.01553E-09
  -2.05300E-09 -2.08876E-09 -2.12283E-09 -2.15523E-09 -2.18599E-09 -2.21512E-09 -2.24263E-09 -2.26856E-09 -2.29293E-09 -2.31575E-09
  -2.33703E-09 -2.35680E-09 -2.37509E-09 -2.39189E-09 -2.40724E-09 -2.42115E-09 -2.43364E-09 -2.44474E-09 -2.45446E-09 -2.46280E-09
  -2.46981E-09 -2.47547E-09 -2.47984E-09 -2.48290E-09 -2.48469E-09 -2.48523E-09 -2.48453E-09 -2.48261E-09 -2.47948E-09 -2.47516E-09
  -2.46966E-09 -2.46303E-09 -2.45526E-09 -2.44636E-09 -2.43638E-09 -2.42536E-09 -2.41341E-09 -2.40064E-09 -2.38715E-09 -2.37305E-09
  -2.35844E-09 -2.34342E-09 -2.32811E-09 -2.31260E-09 -2.29700E-09 -2.28141E-09 -2.26595E-09 -2.25071E-09 -2.23580E-09 -2.22132E-09
  -2.20738E-09 -2.19408E-09 -2.18153E-09 -2.16984E-09 -2.15910E-09 -2.14942E-09 -2.14090E-09 -2.13366E-09 -2.12780E-09 -2.12341E-09
  -2.12060E-09 -2.11949E-09 -2.12017E-09 -2.12274E-09 -2.12732E-09 -2.13400E-09 -2.14289E-09 -2.15410E-09 -2.16773E-09 -2.18389E-09
  -2.20267E-09 -2.22418E-09 -2.24853E-09 -2.27582E-09 -2.30615E-09 -2.33963E-09 -2.37635E-09 -2.41643E-09 -2.45996E-09 -2.50704E-09
  -2.55778E-09 -2.61227E-09 -2.67061E-09 -2.73289E-09 -2.79921E-09 -2.86963E-09 -2.94423E-09 -3.02277E-09 -3.10497E-09 -3.19047E-09
  -3.27889E-09 -3.36969E-09 -3.46211E-09 -3.55483E-09 -3.64491E-09 -3.72355E-09 -3.74891E-09 -3.57825E-09 -3.50288E-09 -3.57612E-09
  -3.70905E-09 -3.80002E-09 -3.74485E-09 -3.49141E-09 -3.08939E-09 -2.72743E-09 -2.76383E-09 -3.49476E-09 -4.63092E-09 -5.04099E-09
  -5.24977E-09 -5.40326E-09 -5.53396E-09 -5.65242E-09 -5.76289E-09 -5.86734E-09 -5.96668E-09 -6.06138E-09 -6.15163E-09 -6.23746E-09
  -6.31881E-09 -6.39559E-09 -6.46763E-09 -6.53479E-09 -6.59685E-09 -6.65362E-09 -6.70488E-09 -6.75043E-09 -6.79002E-09 -6.82346E-09
  -6.85049E-09 -6.87089E-09 -6.88443E-09 -6.89087E-09 -6.88997E-09 -6.88149E-09 -6.86521E-09 -6.84087E-09 -6.80837E-09 -6.76793E-09
  -6.71982E-09 -6.66432E-09 -6.60170E-09 -6.53224E-09 -6.45620E-09 -6.37386E-09 -6.28549E-09 -6.19137E-09 -6.09177E-09 -5.98695E-09
  -5.87720E-09 -5.76279E-09 -5.64398E-09 -5.52105E-09 -5.39428E-09 -5.26392E-09 -5.13027E-09 -4.99358E-09 -4.85414E-09 -4.71220E-09
