 LCModel (Version 6.3-1R) Copyright: S.W. Provencher.          Ref.: Magn. Reson. Med. 30:672-679 (1993).                
 onepulse 24x11_ftSpec_smooth_lcm
 26 lines in following concentration table = NCONC+1
    Conc.  %SD   /Cr    Metabolite                                         
 6.18E-10  52%   0.000 Ala                                                 
 2.25E-09  30%   0.000 Asp                                                 
    0.000 999%   0.000 Cr                                                  
 1.55E-09  28%   0.000 GABA                                                
 2.57E-09  26%   0.000 Glc                                                 
 3.80E-11 999%   0.000 Gln                                                 
    0.000 999%   0.000 Glu                                                 
 7.68E-10  62%   0.000 Glyc                                                
    0.000 999%   0.000 GPC                                                 
    0.000 999%   0.000 GSH                                                 
    0.000 999%   0.000 Ins                                                 
 6.18E-11 500%   0.000 Lac                                                 
 1.10E-09  19%   0.000 NAAG                                                
    0.000 999%   0.000 NAA                                                 
    0.000 999%   0.000 PCh                                                 
    0.000 999%   0.000 PCr                                                 
 2.22E-09  27%   0.000 PE                                                  
    0.000 999%   0.000 Scyllo                                              
 6.65E-11 999%   0.000 Ser                                                 
    0.000 999%   0.000 Tau                                                 
    0.000 999%   0.000 GPC+PCh                                             
 1.10E-09  19%   0.000 NAA+NAAG                                            
 7.68E-10  62%   0.000 Ins+Glyc                                            
    0.000 999%   0.000 Cr+PCr                                              
 3.80E-11 999%   0.000 Glu+Gln                                             
   6 lines in following misc. output table
  FWHM = 0.123 ppm    S/N =   3                                            
  Data shift = 0.503 ppm                                                   
  Ph:  67 deg     -28.0 deg/ppm                                            
  alphaB,S = 9.9E-01,   6.1E+00                                            
   10 spline knots.   Ns = 5(1)                                            
  (10) 6 infls.   (11) 5 extrs.                                            
  363 points on ppm-axis = NY
      4.250000     4.238821     4.227641     4.216462     4.205282     4.194103     4.182923     4.171744     4.160564     4.149385
      4.138206     4.127026     4.115847     4.104667     4.093488     4.082308     4.071129     4.059949     4.048770     4.037591
      4.026411     4.015232     4.004052     3.992873     3.981693     3.970514     3.959334     3.948155     3.936975     3.925796
      3.914617     3.903437     3.892258     3.881078     3.869899     3.858719     3.847540     3.836360     3.825181     3.814002
      3.802822     3.791643     3.780463     3.769284     3.758104     3.746925     3.735745     3.724566     3.713387     3.702207
      3.691028     3.679848     3.668669     3.657489     3.646310     3.635130     3.623951     3.612772     3.601592     3.590413
      3.579233     3.568054     3.556874     3.545695     3.534515     3.523336     3.512156     3.500977     3.489798     3.478618
      3.467439     3.456259     3.445080     3.433900     3.422721     3.411541     3.400362     3.389183     3.378003     3.366824
      3.355644     3.344465     3.333285     3.322106     3.310926     3.299747     3.288568     3.277388     3.266209     3.255029
      3.243850     3.232670     3.221491     3.210311     3.199132     3.187953     3.176773     3.165594     3.154414     3.143235
      3.132055     3.120876     3.109696     3.098517     3.087337     3.076158     3.064979     3.053799     3.042620     3.031440
      3.020261     3.009081     2.997902     2.986722     2.975543     2.964364     2.953184     2.942005     2.930825     2.919646
      2.908466     2.897287     2.886107     2.874928     2.863749     2.852569     2.841390     2.830210     2.819031     2.807851
      2.796672     2.785492     2.774313     2.763134     2.751954     2.740775     2.729595     2.718416     2.707236     2.696057
      2.684877     2.673698     2.662519     2.651339     2.640160     2.628980     2.617801     2.606621     2.595442     2.584262
      2.573083     2.561903     2.550724     2.539545     2.528365     2.517186     2.506006     2.494827     2.483647     2.472468
      2.461288     2.450109     2.438930     2.427750     2.416571     2.405391     2.394212     2.383032     2.371853     2.360673
      2.349494     2.338315     2.327135     2.315956     2.304776     2.293597     2.282417     2.271238     2.260058     2.248879
      2.237700     2.226520     2.215341     2.204161     2.192982     2.181802     2.170623     2.159443     2.148264     2.137084
      2.125905     2.114726     2.103546     2.092367     2.081187     2.070008     2.058828     2.047649     2.036469     2.025290
      2.014111     2.002931     1.991752     1.980572     1.969393     1.958213     1.947034     1.935854     1.924675     1.913496
      1.902316     1.891137     1.879957     1.868778     1.857598     1.846419     1.835239     1.824060     1.812881     1.801701
      1.790522     1.779342     1.768163     1.756983     1.745804     1.734624     1.723445     1.712265     1.701086     1.689907
      1.678727     1.667548     1.656368     1.645189     1.634009     1.622830     1.611650     1.600471     1.589292     1.578112
      1.566933     1.555753     1.544574     1.533394     1.522215     1.511035     1.499856     1.488677     1.477497     1.466318
      1.455138     1.443959     1.432779     1.421600     1.410420     1.399241     1.388062     1.376882     1.365703     1.354523
      1.343344     1.332164     1.320985     1.309805     1.298626     1.287446     1.276267     1.265088     1.253908     1.242729
      1.231549     1.220370     1.209190     1.198011     1.186831     1.175652     1.164473     1.153293     1.142114     1.130934
      1.119755     1.108575     1.097396     1.086216     1.075037     1.063858     1.052678     1.041499     1.030319     1.019140
      1.007960     0.996781     0.985601     0.974422     0.963243     0.952063     0.940884     0.929704     0.918525     0.907345
      0.896166     0.884986     0.873807     0.862628     0.851448     0.840269     0.829089     0.817910     0.806730     0.795551
      0.784371     0.773192     0.762012     0.750833     0.739654     0.728474     0.717295     0.706115     0.694936     0.683756
      0.672577     0.661397     0.650218     0.639039     0.627859     0.616680     0.605500     0.594321     0.583141     0.571962
      0.560782     0.549603     0.538424     0.527244     0.516065     0.504885     0.493706     0.482526     0.471347     0.460167
      0.448988     0.437809     0.426629     0.415450     0.404270     0.393091     0.381911     0.370732     0.359552     0.348373
      0.337193     0.326014     0.314835     0.303655     0.292476     0.281296     0.270117     0.258937     0.247758     0.236578
      0.225399     0.214220     0.203040
 NY phased data points follow
   8.24593E-09  7.03241E-09  9.13265E-09  7.30185E-09  8.92990E-09  7.83853E-09  8.42866E-09  6.76479E-09  8.58421E-09  5.87559E-09
   7.92015E-09  7.44688E-09  9.02208E-09  7.57804E-09  8.34808E-09  6.35096E-09  7.15812E-09  6.71793E-09  9.72145E-09  9.68845E-09
   1.13178E-08  1.11657E-08  1.18212E-08  1.01846E-08  1.05222E-08  9.14586E-09  9.88969E-09  8.75461E-09  9.05492E-09  7.82916E-09
   9.12788E-09  7.54095E-09  8.46534E-09  6.71336E-09  7.03923E-09  5.55818E-09  6.27305E-09  5.48065E-09  6.87136E-09  4.47867E-09
   5.95794E-09  4.16650E-09  4.95490E-09  2.09437E-09  2.77997E-09  1.34112E-09  2.13316E-09 -1.97421E-10  5.92132E-10  2.17520E-09
   6.68791E-09  7.73261E-09  9.26026E-09  8.73728E-09  9.43872E-09  7.79609E-09  7.52807E-09  7.05521E-09  6.79387E-09  5.53131E-09
   5.48340E-09  3.14079E-09  3.35058E-09  8.40127E-10 -3.52496E-12 -1.27235E-09  3.03708E-09  6.33138E-09  9.85984E-09  8.43437E-09
   9.76261E-09  9.66725E-09  1.07766E-08  9.28440E-09  1.02915E-08  9.46613E-09  1.09619E-08  9.80717E-09  1.06925E-08  9.00935E-09
   1.10089E-08  9.34693E-09  1.00914E-08  9.19487E-09  9.84608E-09  8.73188E-09  8.94488E-09  7.27015E-09  8.45205E-09  7.96745E-09
   8.61129E-09  7.25865E-09  8.06720E-09  8.20281E-09  8.60028E-09  7.50509E-09  7.65699E-09  6.12918E-09  6.05549E-09  4.35696E-09
   5.75974E-09  5.26796E-09  5.36912E-09  4.49937E-09  6.25522E-09  5.48234E-09  6.15123E-09  5.40713E-09  6.99369E-09  6.06785E-09
   6.66270E-09  5.76367E-09  6.29735E-09  4.10455E-09  4.65526E-09  4.12260E-09  4.71746E-09  3.69980E-09  4.36679E-09  3.79689E-09
   4.71498E-09  3.72297E-09  4.20900E-09  3.38288E-09  3.12248E-09  1.84886E-09  2.11983E-09  2.75231E-09  4.00125E-09  3.80898E-09
   4.02308E-09  3.13502E-09  4.29562E-09  4.48687E-09  4.95005E-09  5.04535E-09  5.72093E-09  5.27825E-09  5.82363E-09  5.50797E-09
   5.54976E-09  5.42032E-09  5.74547E-09  5.48608E-09  5.45888E-09  4.97184E-09  5.12092E-09  4.39497E-09  5.01023E-09  4.87391E-09
   4.84741E-09  4.17181E-09  3.18246E-09  2.44285E-09  2.58240E-09  4.79791E-10 -2.63241E-09 -3.33989E-09  2.75970E-09  8.09847E-09
   1.10588E-08  1.23890E-08  1.33959E-08  1.40657E-08  1.50400E-08  1.58351E-08  1.63431E-08  1.68261E-08  1.81091E-08  1.85148E-08
   1.85075E-08  1.94696E-08  1.99898E-08  2.00056E-08  1.98573E-08  2.00471E-08  1.95459E-08  1.89159E-08  1.89861E-08  1.77818E-08
   1.62645E-08  1.49391E-08  1.32983E-08  1.17170E-08  9.75440E-09  7.86460E-09  6.03086E-09  3.83418E-09  2.46270E-09  7.69743E-10
  -1.08837E-09 -1.57446E-09 -3.10713E-09 -3.40342E-09 -3.05064E-09 -3.26486E-09 -3.49217E-09 -2.83629E-09 -2.68216E-09 -2.05977E-09
  -1.61139E-09 -1.23614E-09 -4.48634E-10 -1.47460E-10 -4.60763E-10 -7.16410E-12 -7.34897E-10 -6.49552E-10 -1.09313E-09 -7.54421E-10
  -5.88142E-10 -2.70623E-10  8.44142E-11  4.15104E-12  4.05688E-10 -2.66931E-10 -5.90262E-10  3.61017E-11 -5.89862E-10  3.84885E-10
  -9.48743E-10 -3.78312E-10 -6.74082E-10  4.72253E-11  2.95983E-10 -3.94040E-11 -3.15649E-10 -6.13853E-11  4.40098E-12  5.07575E-11
  -6.36120E-10 -5.77035E-10 -7.30379E-10 -7.57999E-10 -5.69870E-10 -9.13976E-10 -7.74817E-10 -4.12481E-10 -7.63288E-10 -3.63487E-10
  -4.93346E-10  1.03413E-11 -5.08385E-10  6.59673E-10 -5.36749E-10  4.38089E-10 -2.65898E-10  9.08510E-10 -2.96011E-10  2.17296E-10
  -1.61449E-10 -2.72033E-10 -9.22809E-10 -7.24669E-10 -1.19896E-09 -1.00128E-09 -1.71895E-09 -1.61884E-09 -1.87608E-09 -1.29857E-09
  -2.02324E-09 -1.60059E-09 -1.80794E-09 -7.07460E-10 -8.30030E-10 -1.60702E-10 -1.06639E-09  1.34316E-10 -1.06217E-10  4.70022E-10
  -4.06316E-10  5.53463E-10 -3.18533E-10  3.49716E-10 -2.87026E-10  4.29146E-10  5.54520E-12  6.43089E-10 -2.27209E-10  2.87089E-10
   6.63792E-11  2.80464E-10  4.38971E-11  2.87177E-10 -4.39606E-10  3.23452E-10  1.43467E-11  1.28247E-11 -3.28195E-10  2.43332E-10
  -2.17069E-10 -2.31071E-12 -2.38628E-10  4.28342E-11 -4.48002E-10 -4.60887E-11 -6.65561E-10 -2.35857E-10 -2.59664E-10 -1.30618E-10
  -8.87025E-10  1.15537E-10 -4.74709E-10 -3.50880E-10 -2.86238E-10 -6.78062E-10 -7.53288E-10 -7.02365E-10 -3.37837E-10 -3.94023E-10
  -1.03045E-09 -2.97453E-10 -8.74230E-10 -7.17202E-10 -1.27073E-09 -2.44349E-10 -1.01205E-09 -8.02640E-10 -8.94282E-10 -8.26762E-10
  -1.31950E-09 -9.21854E-10 -9.83592E-10 -7.45762E-10 -1.10446E-09 -1.17890E-09 -1.26944E-09 -7.33543E-10 -1.18906E-09 -8.38855E-10
  -1.42978E-09 -7.80995E-10 -1.52945E-09 -1.41431E-09 -1.70266E-09 -9.82058E-10 -1.36221E-09 -1.07422E-09 -1.73449E-09 -1.30653E-09
  -1.49682E-09 -1.23947E-09 -1.98299E-09 -7.68603E-10 -2.02596E-09 -1.76378E-09 -2.16426E-09 -1.35149E-09 -1.75650E-09 -1.36688E-09
  -2.31429E-09 -1.24585E-09 -1.87778E-09 -1.63407E-09 -2.02088E-09 -1.54585E-09 -2.40028E-09 -1.68736E-09 -2.29948E-09 -1.51145E-09
  -2.07759E-09 -1.78703E-09 -2.27259E-09
 NY points of the fit to the data follow
   1.01895E-08  9.23710E-09  8.80593E-09  7.55052E-09  7.44160E-09  7.71344E-09  7.42739E-09  6.55705E-09  8.06631E-09  7.13761E-09
   6.18938E-09  6.00182E-09  6.33630E-09  6.75502E-09  8.23192E-09  9.58257E-09  9.45613E-09  9.61579E-09  1.04709E-08  9.28815E-09
   9.73811E-09  1.02978E-08  1.04697E-08  1.10262E-08  1.14445E-08  1.12469E-08  9.40549E-09  8.84408E-09  8.59937E-09  9.01473E-09
   9.39553E-09  8.42799E-09  8.26321E-09  8.19888E-09  6.91702E-09  6.48794E-09  6.01777E-09  5.81129E-09  5.72785E-09  5.52889E-09
   5.10916E-09  4.79911E-09  5.85328E-09  5.48670E-09  5.15229E-09  5.73737E-09  5.43851E-09  4.75892E-09  5.61772E-09  5.38585E-09
   5.55619E-09  5.67476E-09  5.70866E-09  5.33122E-09  5.66961E-09  5.23458E-09  4.47126E-09  4.47950E-09  4.98264E-09  4.14361E-09
   4.29745E-09  4.64541E-09  4.87465E-09  4.70616E-09  5.50210E-09  6.77989E-09  6.55567E-09  6.34872E-09  6.92103E-09  7.29349E-09
   7.98109E-09  8.59705E-09  8.40924E-09  7.52779E-09  8.23899E-09  1.05135E-08  1.09873E-08  1.00180E-08  1.02727E-08  1.00708E-08
   1.04235E-08  1.04530E-08  9.71204E-09  9.93083E-09  9.98385E-09  1.06174E-08  1.03102E-08  7.12409E-09  6.40715E-09  6.48081E-09
   6.34864E-09  5.91119E-09  5.99131E-09  6.40327E-09  5.60847E-09  5.32504E-09  5.70340E-09  5.26231E-09  5.10118E-09  5.42882E-09
   5.79910E-09  5.32359E-09  5.51084E-09  6.16850E-09  6.15066E-09  6.18135E-09  6.23182E-09  6.29218E-09  6.34051E-09  6.55826E-09
   6.43154E-09  5.35962E-09  5.57291E-09  5.73857E-09  4.87873E-09  4.61178E-09  4.51272E-09  4.43581E-09  4.30414E-09  4.31377E-09
   4.28288E-09  4.20146E-09  4.17589E-09  4.16604E-09  4.16248E-09  4.16208E-09  4.16346E-09  4.16577E-09  4.16856E-09  4.17155E-09
   4.17445E-09  4.17713E-09  4.17947E-09  4.18137E-09  4.18274E-09  4.18353E-09  4.18368E-09  4.18316E-09  4.18193E-09  4.17999E-09
   4.17731E-09  4.17389E-09  4.16976E-09  4.16492E-09  4.15938E-09  4.15319E-09  4.14640E-09  4.13909E-09  4.13138E-09  4.12337E-09
   4.11525E-09  4.10723E-09  4.09962E-09  4.09281E-09  4.08737E-09  4.08404E-09  4.08392E-09  4.08861E-09  4.10055E-09  4.12350E-09
   4.16374E-09  4.23236E-09  4.35096E-09  4.56759E-09  5.01224E-09  6.16924E-09  1.05963E-08  1.75549E-08  1.82169E-08  1.74545E-08
   1.78385E-08  1.90390E-08  2.02700E-08  2.08440E-08  2.03707E-08  2.00951E-08  2.15841E-08  2.06885E-08  1.15592E-08  6.15124E-09
   4.65924E-09  4.02897E-09  3.67751E-09  3.44681E-09  3.27820E-09  3.14531E-09  3.03460E-09  2.93848E-09  2.85244E-09  2.77357E-09
   2.69997E-09  2.63036E-09  2.56382E-09  2.49971E-09  2.43755E-09  2.37699E-09  2.31777E-09  2.25971E-09  2.20264E-09  2.14647E-09
   2.09110E-09  2.03648E-09  1.98257E-09  1.92933E-09  1.87674E-09  1.82480E-09  1.77350E-09  1.72283E-09  1.67281E-09  1.62341E-09
   1.57461E-09  1.52640E-09  1.47876E-09  1.43168E-09  1.38514E-09  1.33914E-09  1.29368E-09  1.24874E-09  1.20432E-09  1.16041E-09
   1.11702E-09  1.07412E-09  1.03174E-09  9.89849E-10  9.48458E-10  9.07564E-10  8.67172E-10  8.27266E-10  7.87847E-10  7.48929E-10
   7.10503E-10  6.72566E-10  6.35125E-10  5.98170E-10  5.61709E-10  5.25733E-10  4.90250E-10  4.55263E-10  4.20768E-10  3.86768E-10
   3.53263E-10  3.20256E-10  2.87743E-10  2.55726E-10  2.24210E-10  1.93195E-10  1.62676E-10  1.32651E-10  1.03142E-10  7.41416E-11
   4.56400E-11  1.76416E-11 -9.84374E-12 -3.68127E-11 -6.32860E-11 -8.92351E-11 -1.14674E-10 -1.39592E-10 -1.63999E-10 -1.87891E-10
  -2.11264E-10 -2.34136E-10 -2.56518E-10 -2.78426E-10 -2.99871E-10 -3.20864E-10 -3.41419E-10 -3.61550E-10 -3.81268E-10 -4.00586E-10
  -4.19516E-10 -4.38072E-10 -4.56266E-10 -4.74111E-10 -4.91620E-10 -5.08803E-10 -5.25676E-10 -5.42248E-10 -5.58536E-10 -5.74549E-10
  -5.90301E-10 -6.05804E-10 -6.21073E-10 -6.36118E-10 -6.50951E-10 -6.65585E-10 -6.80035E-10 -6.94310E-10 -7.08426E-10 -7.22391E-10
  -7.36222E-10 -7.49930E-10 -7.63528E-10 -7.77026E-10 -7.90440E-10 -8.03780E-10 -8.17060E-10 -8.30291E-10 -8.43489E-10 -8.56661E-10
  -8.69824E-10 -8.82989E-10 -8.96168E-10 -9.09375E-10 -9.22621E-10 -9.35919E-10 -9.49281E-10 -9.62722E-10 -9.76250E-10 -9.89882E-10
  -1.00363E-09 -1.01750E-09 -1.03150E-09 -1.04562E-09 -1.05987E-09 -1.07424E-09 -1.08872E-09 -1.10331E-09 -1.11802E-09 -1.13283E-09
  -1.14774E-09 -1.16275E-09 -1.17786E-09 -1.19306E-09 -1.20835E-09 -1.22372E-09 -1.23918E-09 -1.25472E-09 -1.27033E-09 -1.28602E-09
  -1.30178E-09 -1.31761E-09 -1.33350E-09 -1.34945E-09 -1.36546E-09 -1.38152E-09 -1.39763E-09 -1.41379E-09 -1.43000E-09 -1.44625E-09
  -1.46253E-09 -1.47885E-09 -1.49520E-09 -1.51158E-09 -1.52798E-09 -1.54441E-09 -1.56085E-09 -1.57731E-09 -1.59378E-09 -1.61026E-09
  -1.62675E-09 -1.64323E-09 -1.65972E-09 -1.67621E-09 -1.69268E-09 -1.70914E-09 -1.72560E-09 -1.74203E-09 -1.75844E-09 -1.77483E-09
  -1.79120E-09 -1.80753E-09 -1.82383E-09
 NY background values follow
    -3.345E-09   -3.282E-09   -3.218E-09   -3.154E-09   -3.090E-09   -3.027E-09   -2.963E-09   -2.899E-09   -2.835E-09   -2.771E-09
    -2.707E-09   -2.643E-09   -2.579E-09   -2.515E-09   -2.450E-09   -2.386E-09   -2.322E-09   -2.258E-09   -2.194E-09   -2.130E-09
    -2.066E-09   -2.002E-09   -1.939E-09   -1.875E-09   -1.811E-09   -1.747E-09   -1.683E-09   -1.620E-09   -1.556E-09   -1.493E-09
    -1.429E-09   -1.366E-09   -1.303E-09   -1.240E-09   -1.177E-09   -1.114E-09   -1.051E-09   -9.884E-10   -9.258E-10   -8.634E-10
    -8.011E-10   -7.389E-10   -6.769E-10   -6.150E-10   -5.533E-10   -4.918E-10   -4.303E-10   -3.691E-10   -3.081E-10   -2.472E-10
    -1.865E-10   -1.260E-10   -6.564E-11   -5.521E-12    5.438E-11    1.141E-10    1.735E-10    2.327E-10    2.916E-10    3.503E-10
     4.087E-10    4.668E-10    5.246E-10    5.821E-10    6.393E-10    6.961E-10    7.526E-10    8.087E-10    8.645E-10    9.198E-10
     9.748E-10    1.029E-09    1.084E-09    1.137E-09    1.191E-09    1.243E-09    1.296E-09    1.348E-09    1.399E-09    1.450E-09
     1.501E-09    1.550E-09    1.600E-09    1.649E-09    1.697E-09    1.745E-09    1.792E-09    1.838E-09    1.884E-09    1.930E-09
     1.974E-09    2.019E-09    2.062E-09    2.105E-09    2.147E-09    2.189E-09    2.229E-09    2.269E-09    2.309E-09    2.347E-09
     2.385E-09    2.423E-09    2.459E-09    2.495E-09    2.530E-09    2.564E-09    2.597E-09    2.630E-09    2.661E-09    2.692E-09
     2.722E-09    2.751E-09    2.779E-09    2.807E-09    2.833E-09    2.859E-09    2.883E-09    2.907E-09    2.930E-09    2.952E-09
     2.972E-09    2.992E-09    3.011E-09    3.029E-09    3.046E-09    3.061E-09    3.076E-09    3.090E-09    3.103E-09    3.114E-09
     3.125E-09    3.134E-09    3.142E-09    3.149E-09    3.155E-09    3.160E-09    3.164E-09    3.166E-09    3.167E-09    3.167E-09
     3.166E-09    3.164E-09    3.160E-09    3.155E-09    3.149E-09    3.142E-09    3.133E-09    3.123E-09    3.112E-09    3.099E-09
     3.085E-09    3.070E-09    3.054E-09    3.035E-09    3.016E-09    2.995E-09    2.973E-09    2.950E-09    2.925E-09    2.898E-09
     2.871E-09    2.842E-09    2.812E-09    2.781E-09    2.749E-09    2.716E-09    2.681E-09    2.646E-09    2.609E-09    2.572E-09
     2.534E-09    2.495E-09    2.455E-09    2.414E-09    2.372E-09    2.330E-09    2.287E-09    2.243E-09    2.199E-09    2.154E-09
     2.108E-09    2.062E-09    2.016E-09    1.969E-09    1.921E-09    1.873E-09    1.825E-09    1.777E-09    1.728E-09    1.679E-09
     1.630E-09    1.580E-09    1.531E-09    1.481E-09    1.431E-09    1.381E-09    1.332E-09    1.282E-09    1.232E-09    1.183E-09
     1.133E-09    1.084E-09    1.035E-09    9.860E-10    9.375E-10    8.892E-10    8.414E-10    7.939E-10    7.468E-10    7.002E-10
     6.539E-10    6.081E-10    5.627E-10    5.178E-10    4.732E-10    4.291E-10    3.855E-10    3.422E-10    2.994E-10    2.571E-10
     2.151E-10    1.737E-10    1.326E-10    9.202E-11    5.187E-11    1.216E-11   -2.708E-11   -6.589E-11   -1.042E-10   -1.421E-10
    -1.796E-10   -2.165E-10   -2.530E-10   -2.891E-10   -3.247E-10   -3.598E-10   -3.944E-10   -4.286E-10   -4.623E-10   -4.956E-10
    -5.283E-10   -5.606E-10   -5.924E-10   -6.237E-10   -6.545E-10   -6.849E-10   -7.147E-10   -7.441E-10   -7.730E-10   -8.014E-10
    -8.293E-10   -8.567E-10   -8.836E-10   -9.100E-10   -9.359E-10   -9.612E-10   -9.861E-10   -1.011E-09   -1.034E-09   -1.058E-09
    -1.081E-09   -1.103E-09   -1.125E-09   -1.146E-09   -1.167E-09   -1.188E-09   -1.208E-09   -1.227E-09   -1.247E-09   -1.265E-09
    -1.284E-09   -1.302E-09   -1.320E-09   -1.337E-09   -1.354E-09   -1.371E-09   -1.387E-09   -1.403E-09   -1.419E-09   -1.435E-09
    -1.450E-09   -1.465E-09   -1.480E-09   -1.495E-09   -1.509E-09   -1.523E-09   -1.537E-09   -1.551E-09   -1.565E-09   -1.579E-09
    -1.592E-09   -1.605E-09   -1.618E-09   -1.632E-09   -1.645E-09   -1.657E-09   -1.670E-09   -1.683E-09   -1.696E-09   -1.709E-09
    -1.721E-09   -1.734E-09   -1.747E-09   -1.760E-09   -1.773E-09   -1.786E-09   -1.799E-09   -1.812E-09   -1.825E-09   -1.838E-09
    -1.851E-09   -1.865E-09   -1.878E-09   -1.892E-09   -1.906E-09   -1.920E-09   -1.934E-09   -1.948E-09   -1.963E-09   -1.977E-09
    -1.992E-09   -2.006E-09   -2.021E-09   -2.036E-09   -2.051E-09   -2.066E-09   -2.081E-09   -2.096E-09   -2.111E-09   -2.126E-09
    -2.142E-09   -2.157E-09   -2.172E-09   -2.188E-09   -2.204E-09   -2.219E-09   -2.235E-09   -2.251E-09   -2.267E-09   -2.282E-09
    -2.298E-09   -2.314E-09   -2.330E-09   -2.346E-09   -2.362E-09   -2.378E-09   -2.394E-09   -2.410E-09   -2.426E-09   -2.442E-09
    -2.458E-09   -2.474E-09   -2.490E-09   -2.507E-09   -2.523E-09   -2.539E-09   -2.555E-09   -2.571E-09   -2.587E-09   -2.603E-09
    -2.618E-09   -2.634E-09   -2.650E-09
 Ala      Conc. = 6.18E-10
  -2.87815E-09 -2.84963E-09 -2.74105E-09 -2.64358E-09 -2.61137E-09 -2.56229E-09 -2.42106E-09 -2.45866E-09 -2.52746E-09 -2.34465E-09
  -2.34557E-09 -2.43160E-09 -2.34987E-09 -2.31104E-09 -2.29780E-09 -2.26225E-09 -2.21609E-09 -2.16429E-09 -2.10916E-09 -2.05187E-09
  -1.99314E-09 -1.93339E-09 -1.87288E-09 -1.81183E-09 -1.75039E-09 -1.68864E-09 -1.62666E-09 -1.56450E-09 -1.50223E-09 -1.43987E-09
  -1.37744E-09 -1.31500E-09 -1.25255E-09 -1.19011E-09 -1.12769E-09 -1.06532E-09 -1.00301E-09 -9.40742E-10 -8.78569E-10 -8.16500E-10
  -7.54498E-10 -6.92595E-10 -6.30822E-10 -5.69172E-10 -5.07636E-10 -4.46245E-10 -3.84980E-10 -3.23869E-10 -2.62915E-10 -2.02134E-10
  -1.41490E-10 -8.10211E-11 -2.07244E-11  3.93809E-11  9.92875E-11  1.58993E-10  2.18482E-10  2.77744E-10  3.36768E-10  3.95545E-10
   4.54061E-10  5.12307E-10  5.70277E-10  6.27956E-10  6.85331E-10  7.42406E-10  7.99160E-10  8.55590E-10  9.11685E-10  9.67436E-10
   1.02284E-09  1.07789E-09  1.13258E-09  1.18690E-09  1.24085E-09  1.29443E-09  1.34764E-09  1.40047E-09  1.45295E-09  1.50506E-09
   1.55683E-09  1.60826E-09  1.65939E-09  1.71023E-09  1.76084E-09  1.81129E-09  1.86163E-09  1.91199E-09  1.96251E-09  2.01339E-09
   2.06495E-09  2.11762E-09  2.17209E-09  2.22940E-09  2.29135E-09  2.36121E-09  2.44547E-09  2.55929E-09  2.74714E-09  3.19058E-09
   3.83008E-09  3.51316E-09  3.81860E-09  4.59253E-09  4.65903E-09  4.74493E-09  4.81122E-09  4.85788E-09  4.97459E-09  5.17763E-09
   5.02536E-09  3.97529E-09  4.20460E-09  4.38373E-09  3.53877E-09  3.27857E-09  3.17845E-09  3.13393E-09  3.11423E-09  3.10736E-09
   3.10770E-09  3.11228E-09  3.11939E-09  3.12798E-09  3.13736E-09  3.14706E-09  3.15675E-09  3.16619E-09  3.17520E-09  3.18365E-09
   3.19143E-09  3.19845E-09  3.20465E-09  3.20996E-09  3.21434E-09  3.21774E-09  3.22014E-09  3.22150E-09  3.22178E-09  3.22097E-09
   3.21905E-09  3.21598E-09  3.21176E-09  3.20636E-09  3.19977E-09  3.19198E-09  3.18297E-09  3.17273E-09  3.16125E-09  3.14852E-09
   3.13453E-09  3.11930E-09  3.10281E-09  3.08507E-09  3.06610E-09  3.04593E-09  3.02461E-09  3.00224E-09  2.97898E-09  2.95508E-09
   2.93091E-09  2.90711E-09  2.88493E-09  2.86710E-09  2.86091E-09  2.89263E-09  3.11063E-09  3.58971E-09  3.43069E-09  3.37744E-09
   3.36794E-09  3.41231E-09  3.44234E-09  3.43604E-09  3.35235E-09  3.29753E-09  3.35936E-09  3.33363E-09  2.55479E-09  2.33718E-09
   2.23448E-09  2.16176E-09  2.10020E-09  2.04370E-09  1.98977E-09  1.93728E-09  1.88558E-09  1.83434E-09  1.78338E-09  1.73258E-09
   1.68186E-09  1.63120E-09  1.58057E-09  1.53000E-09  1.47946E-09  1.42898E-09  1.37857E-09  1.32828E-09  1.27809E-09  1.22807E-09
   1.17822E-09  1.12859E-09  1.07920E-09  1.03007E-09  9.81255E-10  9.32769E-10  8.84666E-10  8.36948E-10  7.89670E-10  7.42818E-10
   6.96402E-10  6.50417E-10  6.04869E-10  5.59754E-10  5.15075E-10  4.70830E-10  4.27028E-10  3.83666E-10  3.40741E-10  2.98257E-10
   2.56224E-10  2.14633E-10  1.73489E-10  1.32795E-10  9.25491E-11  5.27550E-11  1.34233E-11 -2.54633E-11 -6.38975E-11 -1.01864E-10
  -1.39370E-10 -1.76418E-10 -2.12997E-10 -2.49115E-10 -2.84763E-10 -3.19948E-10 -3.54663E-10 -3.88901E-10 -4.22668E-10 -4.55957E-10
  -4.88769E-10 -5.21099E-10 -5.52950E-10 -5.84320E-10 -6.15201E-10 -6.45596E-10 -6.75506E-10 -7.04935E-10 -7.33858E-10 -7.62284E-10
  -7.90221E-10 -8.17664E-10 -8.44604E-10 -8.71036E-10 -8.96980E-10 -9.22408E-10 -9.47334E-10 -9.71746E-10 -9.95655E-10 -1.01905E-09
  -1.04194E-09 -1.06433E-09 -1.08624E-09 -1.10768E-09 -1.12866E-09 -1.14920E-09 -1.16930E-09 -1.18898E-09 -1.20825E-09 -1.22713E-09
  -1.24562E-09 -1.26375E-09 -1.28151E-09 -1.29893E-09 -1.31602E-09 -1.33279E-09 -1.34924E-09 -1.36540E-09 -1.38128E-09 -1.39689E-09
  -1.41224E-09 -1.42734E-09 -1.44220E-09 -1.45685E-09 -1.47129E-09 -1.48553E-09 -1.49959E-09 -1.51347E-09 -1.52720E-09 -1.54078E-09
  -1.55422E-09 -1.56755E-09 -1.58077E-09 -1.59388E-09 -1.60692E-09 -1.61988E-09 -1.63278E-09 -1.64563E-09 -1.65846E-09 -1.67125E-09
  -1.68404E-09 -1.69683E-09 -1.70964E-09 -1.72248E-09 -1.73535E-09 -1.74828E-09 -1.76127E-09 -1.77434E-09 -1.78750E-09 -1.80076E-09
  -1.81413E-09 -1.82763E-09 -1.84127E-09 -1.85502E-09 -1.86890E-09 -1.88290E-09 -1.89701E-09 -1.91123E-09 -1.92556E-09 -1.94000E-09
  -1.95454E-09 -1.96918E-09 -1.98392E-09 -1.99874E-09 -2.01366E-09 -2.02866E-09 -2.04375E-09 -2.05891E-09 -2.07415E-09 -2.08946E-09
  -2.10485E-09 -2.12030E-09 -2.13580E-09 -2.15138E-09 -2.16701E-09 -2.18268E-09 -2.19842E-09 -2.21419E-09 -2.23001E-09 -2.24587E-09
  -2.26177E-09 -2.27770E-09 -2.29367E-09 -2.30965E-09 -2.32566E-09 -2.34170E-09 -2.35775E-09 -2.37381E-09 -2.38988E-09 -2.40596E-09
  -2.42205E-09 -2.43813E-09 -2.45422E-09 -2.47029E-09 -2.48636E-09 -2.50242E-09 -2.51846E-09 -2.53448E-09 -2.55048E-09 -2.56645E-09
  -2.58240E-09 -2.59831E-09 -2.61419E-09
 Asp      Conc. = 2.25E-09
  -7.48401E-10 -1.27074E-09 -1.22641E-09 -1.63630E-09 -1.71691E-09 -1.77832E-09 -2.08289E-09 -2.36100E-09 -2.44434E-09 -2.45818E-09
  -2.44113E-09 -2.40873E-09 -2.36887E-09 -2.31353E-09 -2.25666E-09 -2.19847E-09 -2.13852E-09 -2.07697E-09 -2.01406E-09 -1.94991E-09
  -1.88464E-09 -1.81828E-09 -1.75082E-09 -1.68221E-09 -1.61235E-09 -1.54106E-09 -1.46809E-09 -1.39306E-09 -1.31548E-09 -1.23457E-09
  -1.14917E-09 -1.05749E-09 -9.56417E-10 -8.40122E-10 -6.95797E-10 -4.88638E-10 -1.65249E-10 -9.99738E-11  1.52410E-10  1.16492E-10
   2.27750E-10  4.31086E-10  9.34811E-10  1.36529E-09  2.13801E-09  2.56357E-09  2.30456E-09  2.12079E-09  3.01534E-09  2.87664E-09
   3.02542E-09  3.36717E-09  3.50010E-09  3.31121E-09  3.40796E-09  2.87774E-09  1.89147E-09  1.96709E-09  2.43171E-09  1.73472E-09
   1.55016E-09  1.64139E-09  1.34166E-09  1.25114E-09  1.43152E-09  1.56482E-09  1.39606E-09  1.32832E-09  1.30701E-09  1.30895E-09
   1.32430E-09  1.34817E-09  1.37778E-09  1.41142E-09  1.44797E-09  1.48665E-09  1.52692E-09  1.56834E-09  1.61063E-09  1.65353E-09
   1.69684E-09  1.74041E-09  1.78413E-09  1.82788E-09  1.87156E-09  1.91511E-09  1.95846E-09  2.00156E-09  2.04436E-09  2.08679E-09
   2.12885E-09  2.17048E-09  2.21166E-09  2.25234E-09  2.29250E-09  2.33214E-09  2.37122E-09  2.40970E-09  2.44757E-09  2.48483E-09
   2.52142E-09  2.55737E-09  2.59263E-09  2.62719E-09  2.66104E-09  2.69416E-09  2.72653E-09  2.75813E-09  2.78896E-09  2.81900E-09
   2.84823E-09  2.87663E-09  2.90420E-09  2.93092E-09  2.95677E-09  2.98174E-09  3.00582E-09  3.02899E-09  3.05125E-09  3.07257E-09
   3.09295E-09  3.11236E-09  3.13081E-09  3.14827E-09  3.16474E-09  3.18020E-09  3.19463E-09  3.20804E-09  3.22040E-09  3.23170E-09
   3.24193E-09  3.25109E-09  3.25915E-09  3.26611E-09  3.27196E-09  3.27668E-09  3.28028E-09  3.28273E-09  3.28403E-09  3.28417E-09
   3.28314E-09  3.28093E-09  3.27755E-09  3.27299E-09  3.26724E-09  3.26030E-09  3.25218E-09  3.24288E-09  3.23241E-09  3.22078E-09
   3.20803E-09  3.19419E-09  3.17930E-09  3.16344E-09  3.14670E-09  3.12922E-09  3.11122E-09  3.09304E-09  3.07519E-09  3.05849E-09
   3.04424E-09  3.03479E-09  3.03470E-09  3.05414E-09  3.12042E-09  3.33192E-09  4.23648E-09  6.00265E-09  5.54452E-09  5.45350E-09
   5.52376E-09  5.78464E-09  5.99605E-09  6.07442E-09  5.88337E-09  5.80105E-09  6.13788E-09  6.09197E-09  3.45227E-09  2.78292E-09
   2.52874E-09  2.38521E-09  2.28381E-09  2.20220E-09  2.13120E-09  2.06645E-09  2.00559E-09  1.94728E-09  1.89072E-09  1.83540E-09
   1.78096E-09  1.72720E-09  1.67395E-09  1.62114E-09  1.56867E-09  1.51651E-09  1.46463E-09  1.41304E-09  1.36170E-09  1.31064E-09
   1.25987E-09  1.20940E-09  1.15925E-09  1.10943E-09  1.05998E-09  1.01092E-09  9.62282E-10  9.14073E-10  8.66340E-10  8.19065E-10
   7.72255E-10  7.25903E-10  6.80012E-10  6.34575E-10  5.89596E-10  5.45068E-10  5.00997E-10  4.57384E-10  4.14221E-10  3.71510E-10
   3.29262E-10  2.87467E-10  2.46128E-10  2.05249E-10  1.64826E-10  1.24862E-10  8.53682E-11  4.63261E-11  7.74263E-12 -3.03668E-11
