 LCModel (Version 6.3-1R) Copyright: S.W. Provencher.          Ref.: Magn. Reson. Med. 30:672-679 (1993).                
 onepulse 24x17_ftSpec_smooth_lcm
 26 lines in following concentration table = NCONC+1
    Conc.  %SD /Cr+PCr  Metabolite                                         
    0.000 999%   0.000 Ala                                                 
    0.000 999%   0.000 Asp                                                 
    0.000 999%   0.000 Cr                                                  
 1.85E-10 373%   0.323 GABA                                                
 1.45E-09  40%   2.520 Glc                                                 
    0.000 999%   0.000 Gln                                                 
 2.67E-09  20%   4.662 Glu                                                 
    0.000 999%   0.000 Glyc                                                
    0.000 999%   0.000 GPC                                                 
 2.09E-10 141%   0.363 GSH                                                 
 1.46E-11 999% 2.5E-02 Ins                                                 
    0.000 999%   0.000 Lac                                                 
    0.000 999%   0.000 NAAG                                                
    0.000 999%   0.000 NAA                                                 
 1.35E-10  58%   0.235 PCh                                                 
 5.74E-10  51%   1.000 PCr                                                 
    0.000 999%   0.000 PE                                                  
 4.14E-11 353% 7.2E-02 Scyllo                                              
    0.000 999%   0.000 Ser                                                 
    0.000 999%   0.000 Tau                                                 
 1.35E-10  58%   0.235 GPC+PCh                                             
    0.000 999%   0.000 NAA+NAAG                                            
 1.46E-11 999% 2.5E-02 Ins+Glyc                                            
 5.74E-10  51%   1.000 Cr+PCr                                              
 2.67E-09  20%   4.662 Glu+Gln                                             
   6 lines in following misc. output table
  FWHM = 0.045 ppm    S/N =   2                                            
  Data shift = 0.257 ppm                                                   
  Ph: -34 deg      -0.1 deg/ppm                                            
  alphaB,S = 4.5E-01,   2.0E+01                                            
    9 spline knots.   Ns = 5(1)                                            
  ( 7) 3 infls.   ( 7) 3 extrs.                                            
  363 points on ppm-axis = NY
      4.250000     4.238821     4.227641     4.216462     4.205282     4.194103     4.182923     4.171744     4.160564     4.149385
      4.138206     4.127026     4.115847     4.104667     4.093488     4.082308     4.071129     4.059949     4.048770     4.037591
      4.026411     4.015232     4.004052     3.992873     3.981693     3.970514     3.959334     3.948155     3.936975     3.925796
      3.914617     3.903437     3.892258     3.881078     3.869899     3.858719     3.847540     3.836360     3.825181     3.814002
      3.802822     3.791643     3.780463     3.769284     3.758104     3.746925     3.735745     3.724566     3.713387     3.702207
      3.691028     3.679848     3.668669     3.657489     3.646310     3.635130     3.623951     3.612772     3.601592     3.590413
      3.579233     3.568054     3.556874     3.545695     3.534515     3.523336     3.512156     3.500977     3.489798     3.478618
      3.467439     3.456259     3.445080     3.433900     3.422721     3.411541     3.400362     3.389183     3.378003     3.366824
      3.355644     3.344465     3.333285     3.322106     3.310926     3.299747     3.288568     3.277388     3.266209     3.255029
      3.243850     3.232670     3.221491     3.210311     3.199132     3.187953     3.176773     3.165594     3.154414     3.143235
      3.132055     3.120876     3.109696     3.098517     3.087337     3.076158     3.064979     3.053799     3.042620     3.031440
      3.020261     3.009081     2.997902     2.986722     2.975543     2.964364     2.953184     2.942005     2.930825     2.919646
      2.908466     2.897287     2.886107     2.874928     2.863749     2.852569     2.841390     2.830210     2.819031     2.807851
      2.796672     2.785492     2.774313     2.763134     2.751954     2.740775     2.729595     2.718416     2.707236     2.696057
      2.684877     2.673698     2.662519     2.651339     2.640160     2.628980     2.617801     2.606621     2.595442     2.584262
      2.573083     2.561903     2.550724     2.539545     2.528365     2.517186     2.506006     2.494827     2.483647     2.472468
      2.461288     2.450109     2.438930     2.427750     2.416571     2.405391     2.394212     2.383032     2.371853     2.360673
      2.349494     2.338315     2.327135     2.315956     2.304776     2.293597     2.282417     2.271238     2.260058     2.248879
      2.237700     2.226520     2.215341     2.204161     2.192982     2.181802     2.170623     2.159443     2.148264     2.137084
      2.125905     2.114726     2.103546     2.092367     2.081187     2.070008     2.058828     2.047649     2.036469     2.025290
      2.014111     2.002931     1.991752     1.980572     1.969393     1.958213     1.947034     1.935854     1.924675     1.913496
      1.902316     1.891137     1.879957     1.868778     1.857598     1.846419     1.835239     1.824060     1.812881     1.801701
      1.790522     1.779342     1.768163     1.756983     1.745804     1.734624     1.723445     1.712265     1.701086     1.689907
      1.678727     1.667548     1.656368     1.645189     1.634009     1.622830     1.611650     1.600471     1.589292     1.578112
      1.566933     1.555753     1.544574     1.533394     1.522215     1.511035     1.499856     1.488677     1.477497     1.466318
      1.455138     1.443959     1.432779     1.421600     1.410420     1.399241     1.388062     1.376882     1.365703     1.354523
      1.343344     1.332164     1.320985     1.309805     1.298626     1.287446     1.276267     1.265088     1.253908     1.242729
      1.231549     1.220370     1.209190     1.198011     1.186831     1.175652     1.164473     1.153293     1.142114     1.130934
      1.119755     1.108575     1.097396     1.086216     1.075037     1.063858     1.052678     1.041499     1.030319     1.019140
      1.007960     0.996781     0.985601     0.974422     0.963243     0.952063     0.940884     0.929704     0.918525     0.907345
      0.896166     0.884986     0.873807     0.862628     0.851448     0.840269     0.829089     0.817910     0.806730     0.795551
      0.784371     0.773192     0.762012     0.750833     0.739654     0.728474     0.717295     0.706115     0.694936     0.683756
      0.672577     0.661397     0.650218     0.639039     0.627859     0.616680     0.605500     0.594321     0.583141     0.571962
      0.560782     0.549603     0.538424     0.527244     0.516065     0.504885     0.493706     0.482526     0.471347     0.460167
      0.448988     0.437809     0.426629     0.415450     0.404270     0.393091     0.381911     0.370732     0.359552     0.348373
      0.337193     0.326014     0.314835     0.303655     0.292476     0.281296     0.270117     0.258937     0.247758     0.236578
      0.225399     0.214220     0.203040
 NY phased data points follow
   1.06248E-08  1.03599E-08  1.06324E-08  1.19951E-08  1.23467E-08  1.43635E-08  1.53747E-08  1.59465E-08  1.63153E-08  1.54354E-08
   1.33078E-08  1.11460E-08  9.78054E-09  9.22484E-09  8.07174E-09  8.71025E-09  8.39706E-09  8.54611E-09  8.74214E-09  8.77298E-09
   9.85403E-09  9.32719E-09  8.91685E-09  9.89757E-09  8.24492E-09  8.70701E-09  8.42290E-09  8.45293E-09  8.29982E-09  7.22827E-09
   6.97813E-09  8.62632E-09  8.50386E-09  9.08397E-09  8.11082E-09  7.55823E-09  7.16303E-09  7.64389E-09  7.94202E-09  9.09600E-09
   9.54683E-09  8.55285E-09  6.30255E-09  5.36247E-09  4.39102E-09  3.26720E-09  3.24315E-09  3.66794E-09  3.22826E-09  2.86329E-09
   2.88973E-09  3.42140E-09  2.57008E-09  2.91157E-09  3.47733E-09  2.63957E-09  2.75552E-09  3.27541E-09  3.66448E-09  4.18871E-09
   4.11807E-09  3.65778E-09  3.52933E-09  3.22566E-09  4.22388E-09  4.87387E-09  4.64331E-09  5.45470E-09  7.03858E-09  8.51940E-09
   1.03223E-08  1.15642E-08  1.15980E-08  7.76219E-09  5.70543E-09  3.63555E-09  3.09253E-09  2.50939E-09  2.34652E-09  2.08126E-09
   2.16971E-09  2.29193E-09  2.68672E-09  3.41913E-09  4.38193E-09  5.81431E-09  8.18668E-09  1.04551E-08  1.07058E-08  9.79532E-09
   7.44559E-09  5.42058E-09  3.98105E-09  3.16985E-09  3.21099E-09  2.15722E-09  1.91354E-09  1.48909E-09  1.03903E-09  8.04504E-10
   5.47029E-10  6.34238E-10  3.66889E-10  1.98390E-10  2.63511E-10 -1.60808E-10  8.97120E-10 -2.17294E-11  7.09482E-10  7.14080E-10
   4.11709E-10  1.17096E-09 -4.17136E-11  4.16696E-10  6.82609E-10 -2.38573E-12  1.73083E-10 -5.54978E-10 -2.23406E-10  5.20198E-12
   5.11436E-10  1.07381E-09  1.48567E-09  8.85875E-10  1.22817E-09  1.30437E-09  1.71679E-09  2.08761E-09  1.30144E-09  5.00591E-10
   5.74193E-10  1.82745E-10 -5.53179E-10 -9.38510E-11 -7.07249E-10  4.01290E-10  1.09844E-09  1.50751E-09  3.59328E-10  6.48021E-10
   8.07459E-10  9.71135E-10  1.32711E-10  5.93846E-10  7.32606E-10  9.25663E-10  8.48794E-10  2.07099E-09  2.31823E-09  2.74899E-09
   2.42263E-09  2.23726E-09  2.16037E-09  2.85549E-09  3.22168E-09  2.97471E-09  2.97395E-09  2.45448E-09  2.22148E-09  2.62747E-09
   2.06706E-09  1.66579E-09  2.53046E-09  2.14258E-09  2.70445E-09  2.84764E-09  2.68141E-09  2.95213E-09  2.84494E-09  2.95462E-09
   2.96421E-09  2.33031E-09  3.15733E-09  4.01658E-09  5.15434E-09  6.57396E-09  7.98973E-09  9.57674E-09  1.12887E-08  1.23789E-08
   9.53500E-09  6.17265E-09  2.76496E-09  9.18090E-10 -3.41054E-10 -1.77771E-09 -1.71555E-09 -2.54606E-09 -3.32125E-09 -4.23647E-09
  -4.00606E-09 -4.77998E-09 -5.54698E-09 -5.87831E-09 -6.70330E-09 -6.80387E-09 -7.75916E-09 -8.35413E-09 -8.84424E-09 -9.41619E-09
  -1.07490E-08 -1.08443E-08 -1.23480E-08 -1.26386E-08 -1.39340E-08 -1.38947E-08 -1.51335E-08 -1.46894E-08 -1.46020E-08 -1.44942E-08
  -1.39794E-08 -1.33885E-08 -1.21450E-08 -1.14642E-08 -9.96279E-09 -9.35976E-09 -7.78176E-09 -5.61623E-09 -4.79719E-09 -2.46583E-09
  -2.75958E-09 -1.07079E-09 -2.08077E-10  3.74499E-10 -2.80297E-11  5.92370E-10 -3.00488E-10  3.00717E-10 -9.54965E-10 -7.42350E-10
  -5.95715E-10 -1.89321E-09 -1.66858E-09 -5.82109E-10 -8.60389E-10 -7.25252E-10 -5.23962E-10 -9.59030E-10 -7.43341E-10 -1.22883E-09
  -9.98855E-10 -1.48879E-09 -1.29949E-09 -1.57489E-09 -1.15172E-09 -6.13260E-10 -6.15842E-10 -9.31621E-10 -6.14234E-10 -1.03842E-09
  -5.68041E-10 -6.21289E-10 -1.15276E-09 -1.64979E-09 -1.47440E-09 -8.51622E-10 -1.22605E-09 -3.38612E-10 -6.83892E-10 -2.89442E-10
  -5.23987E-10 -1.62597E-10 -3.93874E-10 -3.24500E-10 -4.96514E-10 -1.05135E-09 -8.88494E-10 -1.71579E-09 -7.43789E-10 -1.46651E-09
  -1.64602E-09 -1.55154E-09 -9.08183E-10 -1.09178E-09 -6.00868E-10 -3.13690E-10 -2.51991E-10  6.62425E-10  5.32822E-11  2.30799E-10
  -1.45779E-10 -4.72136E-11  4.22097E-10 -2.93800E-10 -2.70358E-10 -1.46575E-10 -6.55228E-10 -6.57940E-10 -1.28880E-09 -1.02674E-09
  -8.68167E-10 -1.25461E-09 -8.43307E-10 -1.20834E-09 -6.47177E-10 -6.61406E-10 -9.11709E-10 -8.60007E-11 -7.41739E-10 -8.30402E-10
  -4.94256E-10 -3.38862E-10 -4.96238E-10 -2.39558E-10 -2.89631E-10 -1.16741E-09 -9.84557E-10 -3.82593E-10 -5.99617E-10 -7.37816E-10
  -4.23934E-10 -6.20469E-10 -4.37432E-10 -8.12538E-10 -1.00143E-09 -2.46646E-10 -4.90999E-10 -7.63652E-10 -6.42029E-10 -4.86277E-10
  -1.64445E-10 -6.20483E-10  5.42454E-10 -8.84352E-10 -3.89274E-11 -6.28516E-10  5.30249E-11  1.53364E-10 -8.39871E-10 -7.94409E-11
  -1.71455E-11  1.24282E-10  1.26584E-10 -3.42541E-10 -3.66345E-10 -2.16858E-10 -1.92817E-10  7.15910E-10 -2.97091E-10 -4.79606E-10
   1.29521E-11 -1.24890E-10 -3.25442E-10 -2.81771E-11 -3.66224E-10 -1.98875E-10  7.76187E-11 -1.76518E-10 -6.17422E-12  1.74513E-10
  -1.33465E-10 -1.80693E-10  7.44295E-10 -2.70410E-10  1.52962E-10 -3.88050E-10 -2.01377E-10  1.98143E-10 -1.85340E-10  1.91685E-10
   3.29853E-11 -1.30942E-10  8.65949E-10
 NY points of the fit to the data follow
   1.25535E-08  1.19649E-08  1.09412E-08  1.12932E-08  1.22210E-08  1.32804E-08  1.40792E-08  1.45619E-08  1.41213E-08  1.28501E-08
   1.19502E-08  1.13300E-08  1.01772E-08  9.69593E-09  9.30834E-09  8.79823E-09  8.54719E-09  8.50949E-09  8.60113E-09  8.84625E-09
   9.37484E-09  9.97838E-09  1.04075E-08  1.05512E-08  9.94337E-09  8.67598E-09  7.73188E-09  7.20990E-09  6.98156E-09  7.14612E-09
   7.68520E-09  8.61004E-09  9.39685E-09  9.00434E-09  7.47312E-09  6.39047E-09  6.39917E-09  6.81326E-09  7.59760E-09  8.52481E-09
   8.91036E-09  8.07194E-09  5.99929E-09  4.54700E-09  4.05404E-09  3.69161E-09  3.39081E-09  3.07056E-09  2.87073E-09  2.77684E-09
   2.73356E-09  2.71686E-09  2.69799E-09  2.70247E-09  2.73539E-09  2.77387E-09  2.84313E-09  2.95154E-09  3.09689E-09  3.29512E-09
   3.62759E-09  3.99670E-09  4.27257E-09  4.72713E-09  5.28423E-09  5.85046E-09  6.64019E-09  7.56032E-09  8.51084E-09  9.24441E-09
   9.52976E-09  9.42351E-09  9.43894E-09  8.95318E-09  7.31882E-09  6.13369E-09  5.51746E-09  4.69654E-09  4.55349E-09  4.88828E-09
   5.37846E-09  6.02380E-09  6.66636E-09  7.12288E-09  7.41009E-09  7.13405E-09  6.73211E-09  6.18518E-09  5.50624E-09  4.75997E-09
   4.07906E-09  3.67513E-09  3.22263E-09  2.92608E-09  2.66335E-09  2.49460E-09  2.35243E-09  2.18601E-09  2.06864E-09  1.97342E-09
   1.88311E-09  1.81049E-09  1.75019E-09  1.69867E-09  1.65373E-09  1.61346E-09  1.57569E-09  1.53989E-09  1.50549E-09  1.47201E-09
   1.43901E-09  1.40605E-09  1.37291E-09  1.33932E-09  1.30512E-09  1.27015E-09  1.23421E-09  1.19713E-09  1.15878E-09  1.11904E-09
   1.07775E-09  1.03486E-09  9.90298E-10  9.44076E-10  8.96230E-10  8.46799E-10  7.95822E-10  7.43342E-10  6.89410E-10  6.34071E-10
   5.77375E-10  5.19376E-10  4.60131E-10  3.99695E-10  3.38126E-10  2.75482E-10  2.11822E-10  1.47208E-10  8.17050E-11  1.53788E-11
  -5.17021E-11 -1.19468E-10 -1.87850E-10 -2.56777E-10 -3.26172E-10 -3.95954E-10 -4.66038E-10 -5.36335E-10 -6.06753E-10 -6.77189E-10
  -7.47528E-10 -8.17647E-10 -8.87403E-10 -9.56630E-10 -1.02514E-09 -1.09269E-09 -1.15899E-09 -1.22366E-09 -1.28619E-09 -1.34586E-09
  -1.40162E-09 -1.45182E-09 -1.49371E-09 -1.52212E-09 -1.52589E-09 -1.47447E-09 -1.24311E-09 -4.17386E-10  6.04397E-10  1.51000E-09
   1.92620E-09  2.19543E-09  2.86705E-09  4.40070E-09  6.91459E-09  9.80785E-09  1.15396E-08  1.03092E-08  5.99819E-09  1.84423E-09
  -1.08854E-09 -1.91767E-09 -2.28744E-09 -2.50316E-09 -2.64973E-09 -2.75941E-09 -2.84695E-09 -2.92002E-09 -2.98296E-09 -3.03837E-09
  -3.08795E-09 -3.13279E-09 -3.17368E-09 -3.21114E-09 -3.24559E-09 -3.27731E-09 -3.30654E-09 -3.33345E-09 -3.35818E-09 -3.38084E-09
  -3.40152E-09 -3.42031E-09 -3.43726E-09 -3.45242E-09 -3.46586E-09 -3.47760E-09 -3.48768E-09 -3.49614E-09 -3.50300E-09 -3.50830E-09
  -3.51205E-09 -3.51428E-09 -3.51502E-09 -3.51427E-09 -3.51206E-09 -3.50841E-09 -3.50333E-09 -3.49685E-09 -3.48898E-09 -3.47973E-09
  -3.46912E-09 -3.45716E-09 -3.44388E-09 -3.42927E-09 -3.41337E-09 -3.39617E-09 -3.37770E-09 -3.35796E-09 -3.33698E-09 -3.31475E-09
  -3.29131E-09 -3.26665E-09 -3.24080E-09 -3.21376E-09 -3.18555E-09 -3.15618E-09 -3.12567E-09 -3.09402E-09 -3.06125E-09 -3.02736E-09
  -2.99238E-09 -2.95632E-09 -2.91918E-09 -2.88101E-09 -2.84183E-09 -2.80170E-09 -2.76064E-09 -2.71872E-09 -2.67596E-09 -2.63240E-09
  -2.58810E-09 -2.54309E-09 -2.49741E-09 -2.45110E-09 -2.40421E-09 -2.35677E-09 -2.30883E-09 -2.26043E-09 -2.21161E-09 -2.16241E-09
  -2.11288E-09 -2.06304E-09 -2.01296E-09 -1.96266E-09 -1.91218E-09 -1.86158E-09 -1.81089E-09 -1.76015E-09 -1.70940E-09 -1.65869E-09
  -1.60805E-09 -1.55753E-09 -1.50717E-09 -1.45700E-09 -1.40708E-09 -1.35744E-09 -1.30812E-09 -1.25916E-09 -1.21061E-09 -1.16251E-09
  -1.11490E-09 -1.06780E-09 -1.02128E-09 -9.75380E-10 -9.30130E-10 -8.85565E-10 -8.41748E-10 -7.98702E-10 -7.56463E-10 -7.15094E-10
  -6.74618E-10 -6.35095E-10 -5.96541E-10 -5.59021E-10 -5.22557E-10 -4.87193E-10 -4.52984E-10 -4.19967E-10 -3.88181E-10 -3.57663E-10
  -3.28446E-10 -3.00576E-10 -2.74123E-10 -2.49064E-10 -2.25382E-10 -2.03037E-10 -1.81993E-10 -1.62221E-10 -1.43676E-10 -1.26334E-10
  -1.10154E-10 -9.50979E-11 -8.11324E-11 -6.82282E-11 -5.63408E-11 -4.54386E-11 -3.54836E-11 -2.64461E-11 -1.82842E-11 -1.09706E-11
  -4.46096E-12  1.27606E-12  6.27226E-12  1.05660E-11  1.41930E-11  1.71930E-11  1.95995E-11  2.14423E-11  2.27549E-11  2.35882E-11
   2.39590E-11  2.39055E-11  2.34820E-11  2.27057E-11  2.16056E-11  2.02411E-11  1.86373E-11  1.68155E-11  1.48263E-11  1.27076E-11
   1.04760E-11  8.19475E-12  5.87261E-12  3.55996E-12  1.28259E-12 -9.13686E-13 -2.99544E-12 -4.93305E-12 -6.68848E-12 -8.21895E-12
  -9.50415E-12 -1.04973E-11 -1.11691E-11 -1.14817E-11 -1.13886E-11 -1.08729E-11 -9.89658E-12 -8.41341E-12 -6.39375E-12 -3.81273E-12
  -6.11261E-13  3.22406E-12  7.74728E-12
 NY background values follow
     4.479E-09    4.421E-09    4.363E-09    4.304E-09    4.245E-09    4.185E-09    4.125E-09    4.064E-09    4.003E-09    3.942E-09
     3.880E-09    3.818E-09    3.756E-09    3.693E-09    3.631E-09    3.568E-09    3.505E-09    3.443E-09    3.380E-09    3.317E-09
     3.255E-09    3.192E-09    3.130E-09    3.068E-09    3.006E-09    2.944E-09    2.883E-09    2.822E-09    2.761E-09    2.701E-09
     2.642E-09    2.582E-09    2.524E-09    2.466E-09    2.409E-09    2.352E-09    2.296E-09    2.241E-09    2.186E-09    2.133E-09
     2.080E-09    2.028E-09    1.977E-09    1.927E-09    1.878E-09    1.830E-09    1.783E-09    1.738E-09    1.693E-09    1.650E-09
     1.608E-09    1.567E-09    1.528E-09    1.490E-09    1.453E-09    1.418E-09    1.384E-09    1.352E-09    1.321E-09    1.292E-09
     1.265E-09    1.239E-09    1.215E-09    1.193E-09    1.172E-09    1.152E-09    1.134E-09    1.117E-09    1.102E-09    1.087E-09
     1.074E-09    1.062E-09    1.051E-09    1.041E-09    1.032E-09    1.023E-09    1.016E-09    1.009E-09    1.003E-09    9.970E-10
     9.919E-10    9.872E-10    9.828E-10    9.789E-10    9.752E-10    9.716E-10    9.683E-10    9.650E-10    9.617E-10    9.584E-10
     9.550E-10    9.514E-10    9.476E-10    9.435E-10    9.390E-10    9.341E-10    9.287E-10    9.227E-10    9.162E-10    9.090E-10
     9.010E-10    8.922E-10    8.826E-10    8.721E-10    8.606E-10    8.480E-10    8.343E-10    8.194E-10    8.033E-10    7.859E-10
     7.672E-10    7.470E-10    7.253E-10    7.021E-10    6.772E-10    6.507E-10    6.225E-10    5.924E-10    5.605E-10    5.266E-10
     4.908E-10    4.529E-10    4.129E-10    3.710E-10    3.271E-10    2.813E-10    2.337E-10    1.843E-10    1.332E-10    8.057E-11
     2.633E-11   -2.940E-11   -8.657E-11   -1.451E-10   -2.049E-10   -2.660E-10   -3.283E-10   -3.916E-10   -4.561E-10   -5.215E-10
    -5.878E-10   -6.550E-10   -7.229E-10   -7.916E-10   -8.610E-10   -9.310E-10   -1.001E-09   -1.072E-09   -1.144E-09   -1.216E-09
    -1.288E-09   -1.360E-09   -1.432E-09   -1.505E-09   -1.577E-09   -1.650E-09   -1.722E-09   -1.794E-09   -1.866E-09   -1.938E-09
    -2.009E-09   -2.080E-09   -2.150E-09   -2.220E-09   -2.289E-09   -2.358E-09   -2.425E-09   -2.492E-09   -2.559E-09   -2.624E-09
    -2.688E-09   -2.751E-09   -2.813E-09   -2.874E-09   -2.933E-09   -2.991E-09   -3.048E-09   -3.104E-09   -3.157E-09   -3.210E-09
    -3.260E-09   -3.309E-09   -3.356E-09   -3.402E-09   -3.446E-09   -3.487E-09   -3.528E-09   -3.566E-09   -3.603E-09   -3.638E-09
    -3.672E-09   -3.703E-09   -3.733E-09   -3.762E-09   -3.789E-09   -3.814E-09   -3.838E-09   -3.860E-09   -3.880E-09   -3.899E-09
    -3.916E-09   -3.932E-09   -3.946E-09   -3.959E-09   -3.970E-09   -3.980E-09   -3.988E-09   -3.995E-09   -4.000E-09   -4.004E-09
    -4.007E-09   -4.008E-09   -4.007E-09   -4.005E-09   -4.002E-09   -3.997E-09   -3.991E-09   -3.984E-09   -3.975E-09   -3.965E-09
    -3.954E-09   -3.941E-09   -3.927E-09   -3.912E-09   -3.896E-09   -3.878E-09   -3.859E-09   -3.839E-09   -3.817E-09   -3.794E-09
    -3.770E-09   -3.745E-09   -3.719E-09   -3.691E-09   -3.663E-09   -3.633E-09   -3.602E-09   -3.570E-09   -3.537E-09   -3.503E-09
    -3.467E-09   -3.431E-09   -3.393E-09   -3.355E-09   -3.315E-09   -3.275E-09   -3.233E-09   -3.191E-09   -3.148E-09   -3.104E-09
    -3.060E-09   -3.014E-09   -2.968E-09   -2.922E-09   -2.875E-09   -2.827E-09   -2.779E-09   -2.730E-09   -2.681E-09   -2.632E-09
    -2.582E-09   -2.532E-09   -2.481E-09   -2.431E-09   -2.380E-09   -2.329E-09   -2.278E-09   -2.227E-09   -2.176E-09   -2.125E-09
    -2.074E-09   -2.024E-09   -1.973E-09   -1.923E-09   -1.873E-09   -1.823E-09   -1.773E-09   -1.724E-09   -1.675E-09   -1.627E-09
    -1.579E-09   -1.532E-09   -1.485E-09   -1.439E-09   -1.393E-09   -1.349E-09   -1.305E-09   -1.261E-09   -1.219E-09   -1.177E-09
    -1.137E-09   -1.097E-09   -1.058E-09   -1.021E-09   -9.839E-10   -9.483E-10   -9.139E-10   -8.807E-10   -8.487E-10   -8.180E-10
    -7.885E-10   -7.605E-10   -7.338E-10   -7.086E-10   -6.847E-10   -6.621E-10   -6.409E-10   -6.209E-10   -6.022E-10   -5.846E-10
    -5.682E-10   -5.530E-10   -5.388E-10   -5.257E-10   -5.136E-10   -5.025E-10   -4.924E-10   -4.831E-10   -4.748E-10   -4.673E-10
    -4.606E-10   -4.546E-10   -4.494E-10   -4.449E-10   -4.411E-10   -4.379E-10   -4.353E-10   -4.332E-10   -4.317E-10   -4.307E-10
    -4.301E-10   -4.300E-10   -4.302E-10   -4.307E-10   -4.316E-10   -4.328E-10   -4.342E-10   -4.358E-10   -4.376E-10   -4.395E-10
    -4.415E-10   -4.436E-10   -4.457E-10   -4.478E-10   -4.499E-10   -4.518E-10   -4.537E-10   -4.554E-10   -4.570E-10   -4.583E-10
    -4.593E-10   -4.601E-10   -4.606E-10   -4.607E-10   -4.603E-10   -4.596E-10   -4.584E-10   -4.567E-10   -4.544E-10   -4.516E-10
    -4.482E-10   -4.441E-10   -4.394E-10
 GABA     Conc. = 1.85E-10
   4.49788E-09  4.44050E-09  4.38252E-09  4.32399E-09  4.26493E-09  4.20540E-09  4.14544E-09  4.08508E-09  4.02437E-09  3.96336E-09
   3.90207E-09  3.84057E-09  3.77890E-09  3.71710E-09  3.65522E-09  3.59331E-09  3.53143E-09  3.46964E-09  3.40801E-09  3.34660E-09
   3.28550E-09  3.22481E-09  3.16463E-09  3.10516E-09  3.04664E-09  2.98940E-09  2.93413E-09  2.88216E-09  2.83682E-09  2.80649E-09
   2.76384E-09  2.71694E-09  2.70430E-09  2.69209E-09  2.66767E-09  2.66480E-09  2.67465E-09  2.67223E-09  2.63952E-09  2.58047E-09
   2.52481E-09  2.50631E-09  2.38394E-09  2.20047E-09  2.14037E-09  2.06673E-09  1.92561E-09  1.83373E-09  1.76729E-09  1.71183E-09
   1.66255E-09  1.61739E-09  1.57546E-09  1.53632E-09  1.49969E-09  1.46545E-09  1.43370E-09  1.40467E-09  1.37884E-09  1.35727E-09
   1.34195E-09  1.33929E-09  1.34405E-09  1.33612E-09  1.34164E-09  1.36708E-09  1.38451E-09  1.40600E-09  1.44624E-09  1.49002E-09
   1.51141E-09  1.49461E-09  1.45091E-09  1.42138E-09  1.38200E-09  1.24937E-09  1.16024E-09  1.15554E-09  1.11502E-09  1.07068E-09
   1.05825E-09  1.04774E-09  1.04652E-09  1.06496E-09  1.07565E-09  1.08323E-09  1.10750E-09  1.13737E-09  1.16549E-09  1.18583E-09
   1.19493E-09  1.22016E-09  1.25148E-09  1.21779E-09  1.17972E-09  1.19612E-09  1.15842E-09  1.09300E-09  1.07052E-09  1.04329E-09
   1.00690E-09  9.79526E-10  9.57210E-10  9.37459E-10  9.18935E-10  9.00803E-10  8.82595E-10  8.64031E-10  8.44884E-10  8.24955E-10
   8.04054E-10  7.81959E-10  7.58601E-10  7.33866E-10  7.07702E-10  6.80042E-10  6.50776E-10  6.19808E-10  5.87058E-10  5.52473E-10
   5.15926E-10  4.77409E-10  4.36879E-10  3.94387E-10  3.49992E-10  3.03755E-10  2.55734E-10  2.05987E-10  1.54582E-10  1.01576E-10
   4.70315E-11 -8.98969E-12 -6.64238E-11 -1.25207E-10 -1.85278E-10 -2.46573E-10 -3.09030E-10 -3.72588E-10 -4.37182E-10 -5.02749E-10
  -5.69221E-10 -6.36537E-10 -7.04632E-10 -7.73446E-10 -8.42915E-10 -9.12974E-10 -9.83556E-10 -1.05460E-09 -1.12603E-09 -1.19779E-09
  -1.26982E-09 -1.34205E-09 -1.41441E-09 -1.48683E-09 -1.55924E-09 -1.63158E-09 -1.70377E-09 -1.77573E-09 -1.84738E-09 -1.91862E-09
  -1.98935E-09 -2.05943E-09 -2.12864E-09 -2.19663E-09 -2.26264E-09 -2.32440E-09 -2.37102E-09 -2.37959E-09 -2.40611E-09 -2.46006E-09
  -2.52066E-09 -2.56439E-09 -2.57497E-09 -2.54169E-09 -2.47575E-09 -2.43367E-09 -2.50537E-09 -2.73967E-09 -3.03044E-09 -3.14300E-09
  -3.21437E-09 -3.27316E-09 -3.32591E-09 -3.37484E-09 -3.42090E-09 -3.46454E-09 -3.50602E-09 -3.54551E-09 -3.58308E-09 -3.61882E-09
  -3.65278E-09 -3.68499E-09 -3.71548E-09 -3.74428E-09 -3.77140E-09 -3.79688E-09 -3.82073E-09 -3.84296E-09 -3.86359E-09 -3.88263E-09
  -3.90010E-09 -3.91601E-09 -3.93038E-09 -3.94322E-09 -3.95454E-09 -3.96435E-09 -3.97267E-09 -3.97950E-09 -3.98487E-09 -3.98879E-09
  -3.99126E-09 -3.99229E-09 -3.99191E-09 -3.99011E-09 -3.98693E-09 -3.98235E-09 -3.97641E-09 -3.96910E-09 -3.96045E-09 -3.95046E-09
  -3.93915E-09 -3.92651E-09 -3.91258E-09 -3.89737E-09 -3.88088E-09 -3.86311E-09 -3.84410E-09 -3.82385E-09 -3.80236E-09 -3.77966E-09
  -3.75575E-09 -3.73064E-09 -3.70435E-09 -3.67689E-09 -3.64827E-09 -3.61851E-09 -3.58760E-09 -3.55558E-09 -3.52244E-09 -3.48820E-09
  -3.45287E-09 -3.41647E-09 -3.37900E-09 -3.34051E-09 -3.30101E-09 -3.26056E-09 -3.21920E-09 -3.17698E-09 -3.13393E-09 -3.09009E-09
  -3.04550E-09 -3.00021E-09 -2.95426E-09 -2.90768E-09 -2.86052E-09 -2.81283E-09 -2.76463E-09 -2.71598E-09 -2.66691E-09 -2.61746E-09
  -2.56768E-09 -2.51761E-09 -2.46728E-09 -2.41675E-09 -2.36604E-09 -2.31521E-09 -2.26429E-09 -2.21333E-09 -2.16236E-09 -2.11142E-09
  -2.06056E-09 -2.00983E-09 -1.95924E-09 -1.90887E-09 -1.85873E-09 -1.80888E-09 -1.75935E-09 -1.71018E-09 -1.66142E-09 -1.61312E-09
  -1.56530E-09 -1.51800E-09 -1.47128E-09 -1.42518E-09 -1.37972E-09 -1.33496E-09 -1.29094E-09 -1.24770E-09 -1.20526E-09 -1.16370E-09
  -1.12303E-09 -1.08331E-09 -1.04456E-09 -1.00684E-09 -9.70184E-10 -9.34627E-10 -9.00224E-10 -8.67014E-10 -8.35035E-10 -8.04325E-10
  -7.74917E-10 -7.46855E-10 -7.20210E-10 -6.94960E-10 -6.71087E-10 -6.48551E-10 -6.27316E-10 -6.07353E-10 -5.88618E-10 -5.71085E-10
  -5.54714E-10 -5.39467E-10 -5.25311E-10 -5.12215E-10 -5.00137E-10 -4.89043E-10 -4.78896E-10 -4.69667E-10 -4.61313E-10 -4.53808E-10
  -4.47105E-10 -4.41175E-10 -4.35986E-10 -4.31499E-10 -4.27678E-10 -4.24484E-10 -4.21883E-10 -4.19845E-10 -4.18336E-10 -4.17307E-10
  -4.16740E-10 -4.16596E-10 -4.16822E-10 -4.17401E-10 -4.18302E-10 -4.19468E-10 -4.20871E-10 -4.22493E-10 -4.24281E-10 -4.26198E-10
  -4.28227E-10 -4.30305E-10 -4.32423E-10 -4.34531E-10 -4.36603E-10 -4.38594E-10 -4.40469E-10 -4.42198E-10 -4.43744E-10 -4.45065E-10
  -4.46140E-10 -4.46922E-10 -4.47381E-10 -4.47480E-10 -4.47172E-10 -4.46441E-10 -4.45248E-10 -4.43548E-10 -4.41310E-10 -4.38509E-10
  -4.35086E-10 -4.31029E-10 -4.26283E-10
 Glc      Conc. = 1.45E-09
   7.64069E-09  7.63433E-09  7.76826E-09  8.23827E-09  8.73108E-09  9.10512E-09  9.09955E-09  8.90621E-09  8.22529E-09  7.30840E-09
   6.80233E-09  6.50598E-09  6.38551E-09  6.58889E-09  6.93512E-09  7.13364E-09  7.21911E-09  7.37059E-09  7.53356E-09  7.83293E-09
   8.40234E-09  9.00762E-09  9.36384E-09  9.21063E-09  8.13984E-09  6.53126E-09  5.43639E-09  4.91849E-09  4.72697E-09  4.63564E-09
   4.43159E-09  4.21588E-09  4.10955E-09  3.90834E-09  3.58482E-09  3.38746E-09  3.24409E-09  3.00996E-09  2.77622E-09  2.62385E-09
   2.51079E-09  2.41550E-09  2.33227E-09  2.25697E-09  2.18758E-09  2.12297E-09  2.06225E-09  2.00478E-09  1.95019E-09  1.89815E-09
   1.84844E-09  1.80093E-09  1.75551E-09  1.71209E-09  1.67062E-09  1.63105E-09  1.59338E-09  1.55760E-09  1.52367E-09  1.49164E-09
   1.46148E-09  1.43320E-09  1.40676E-09  1.38208E-09  1.35908E-09  1.33768E-09  1.31780E-09  1.29937E-09  1.28232E-09  1.26658E-09
   1.25207E-09  1.23872E-09  1.22647E-09  1.21525E-09  1.20498E-09  1.19561E-09  1.18705E-09  1.17927E-09  1.17216E-09  1.16568E-09
   1.15977E-09  1.15434E-09  1.14934E-09  1.14472E-09  1.14039E-09  1.13629E-09  1.13237E-09  1.12855E-09  1.12477E-09  1.12097E-09
   1.11708E-09  1.11305E-09  1.10880E-09  1.10427E-09  1.09940E-09  1.09413E-09  1.08839E-09  1.08212E-09  1.07525E-09  1.06773E-09
   1.05948E-09  1.05044E-09  1.04057E-09  1.02977E-09  1.01801E-09  1.00521E-09  9.91298E-10  9.76233E-10  9.59947E-10  9.42362E-10
   9.23435E-10  9.03077E-10  8.81255E-10  8.57882E-10  8.32912E-10  8.06274E-10  7.77908E-10  7.47754E-10  7.15744E-10  6.81840E-10
   6.45920E-10  6.07973E-10  5.67971E-10  5.25970E-10  4.82036E-10  4.36234E-10  3.88627E-10  3.39281E-10  2.88259E-10  2.35628E-10
   1.81451E-10  1.25794E-10  6.87207E-11  1.02982E-11 -4.94087E-11 -1.10335E-10 -1.72414E-10 -2.35581E-10 -2.99768E-10 -3.64909E-10
  -4.30937E-10 -4.97783E-10 -5.65379E-10 -6.33656E-10 -7.02546E-10 -7.71975E-10 -8.41873E-10 -9.12164E-10 -9.82773E-10 -1.05362E-09
  -1.12462E-09 -1.19570E-09 -1.26675E-09 -1.33768E-09 -1.40837E-09 -1.47870E-09 -1.54853E-09 -1.61768E-09 -1.68592E-09 -1.75295E-09
  -1.81836E-09 -1.88151E-09 -1.94134E-09 -1.99592E-09 -2.04105E-09 -2.06543E-09 -2.02500E-09 -1.69785E-09 -1.40323E-09 -1.32448E-09
  -1.35665E-09 -1.31876E-09 -1.07321E-09 -5.20146E-10  3.21174E-10  1.12783E-09  1.25919E-09  1.79253E-10 -1.73362E-09 -2.59689E-09
  -2.87261E-09 -3.01514E-09 -3.11082E-09 -3.18482E-09 -3.24683E-09 -3.30126E-09 -3.35037E-09 -3.39543E-09 -3.43722E-09 -3.47620E-09
  -3.51271E-09 -3.54695E-09 -3.57909E-09 -3.60924E-09 -3.63749E-09 -3.66391E-09 -3.68855E-09 -3.71145E-09 -3.73266E-09 -3.75220E-09
  -3.77010E-09 -3.78639E-09 -3.80110E-09 -3.81423E-09 -3.82581E-09 -3.83585E-09 -3.84438E-09 -3.85140E-09 -3.85694E-09 -3.86100E-09
  -3.86361E-09 -3.86477E-09 -3.86450E-09 -3.86281E-09 -3.85973E-09 -3.85524E-09 -3.84938E-09 -3.84215E-09 -3.83358E-09 -3.82366E-09
  -3.81240E-09 -3.79983E-09 -3.78596E-09 -3.77080E-09 -3.75436E-09 -3.73665E-09 -3.71769E-09 -3.69748E-09 -3.67604E-09 -3.65337E-09
