 LCModel (Version 6.3-1R) Copyright: S.W. Provencher.          Ref.: Magn. Reson. Med. 30:672-679 (1993).                
 onepulse 24x14_ftSpec_smooth_lcm
 26 lines in following concentration table = NCONC+1
    Conc.  %SD /Cr+PCr  Metabolite                                         
    0.000 999%   0.000 Ala                                                 
 1.82E-10 312%   0.613 Asp                                                 
 2.97E-10  79%   1.000 Cr                                                  
    0.000 999%   0.000 GABA                                                
    0.000 999%   0.000 Glc                                                 
 3.55E-09  15%  11.949 Gln                                                 
    0.000 999%   0.000 Glu                                                 
    0.000 999%   0.000 Glyc                                                
    0.000 999%   0.000 GPC                                                 
    0.000 999%   0.000 GSH                                                 
 1.07E-09  33%   3.581 Ins                                                 
    0.000 999%   0.000 Lac                                                 
 2.45E-10  76%   0.825 NAAG                                                
    0.000 999%   0.000 NAA                                                 
    0.000 999%   0.000 PCh                                                 
    0.000 999%   0.000 PCr                                                 
 1.14E-09  60%   3.818 PE                                                  
 8.97E-12 999% 3.0E-02 Scyllo                                              
 6.37E-10 107%   2.142 Ser                                                 
 1.02E-09  79%   3.440 Tau                                                 
    0.000 999%   0.000 GPC+PCh                                             
 2.45E-10  76%   0.825 NAA+NAAG                                            
 1.07E-09  33%   3.581 Ins+Glyc                                            
 2.97E-10  79%   1.000 Cr+PCr                                              
 3.55E-09  15%  11.949 Glu+Gln                                             
   6 lines in following misc. output table
  FWHM = 0.101 ppm    S/N =   3                                            
  Data shift = 0.380 ppm                                                   
  Ph: -36 deg     -32.3 deg/ppm                                            
  alphaB,S = 6.5E-01,   5.1E+01                                            
    8 spline knots.   Ns = 5(1)                                            
  ( 8) 4 infls.   ( 5) 1 extrs.                                            
  363 points on ppm-axis = NY
      4.250000     4.238821     4.227641     4.216462     4.205282     4.194103     4.182923     4.171744     4.160564     4.149385
      4.138206     4.127026     4.115847     4.104667     4.093488     4.082308     4.071129     4.059949     4.048770     4.037591
      4.026411     4.015232     4.004052     3.992873     3.981693     3.970514     3.959334     3.948155     3.936975     3.925796
      3.914617     3.903437     3.892258     3.881078     3.869899     3.858719     3.847540     3.836360     3.825181     3.814002
      3.802822     3.791643     3.780463     3.769284     3.758104     3.746925     3.735745     3.724566     3.713387     3.702207
      3.691028     3.679848     3.668669     3.657489     3.646310     3.635130     3.623951     3.612772     3.601592     3.590413
      3.579233     3.568054     3.556874     3.545695     3.534515     3.523336     3.512156     3.500977     3.489798     3.478618
      3.467439     3.456259     3.445080     3.433900     3.422721     3.411541     3.400362     3.389183     3.378003     3.366824
      3.355644     3.344465     3.333285     3.322106     3.310926     3.299747     3.288568     3.277388     3.266209     3.255029
      3.243850     3.232670     3.221491     3.210311     3.199132     3.187953     3.176773     3.165594     3.154414     3.143235
      3.132055     3.120876     3.109696     3.098517     3.087337     3.076158     3.064979     3.053799     3.042620     3.031440
      3.020261     3.009081     2.997902     2.986722     2.975543     2.964364     2.953184     2.942005     2.930825     2.919646
      2.908466     2.897287     2.886107     2.874928     2.863749     2.852569     2.841390     2.830210     2.819031     2.807851
      2.796672     2.785492     2.774313     2.763134     2.751954     2.740775     2.729595     2.718416     2.707236     2.696057
      2.684877     2.673698     2.662519     2.651339     2.640160     2.628980     2.617801     2.606621     2.595442     2.584262
      2.573083     2.561903     2.550724     2.539545     2.528365     2.517186     2.506006     2.494827     2.483647     2.472468
      2.461288     2.450109     2.438930     2.427750     2.416571     2.405391     2.394212     2.383032     2.371853     2.360673
      2.349494     2.338315     2.327135     2.315956     2.304776     2.293597     2.282417     2.271238     2.260058     2.248879
      2.237700     2.226520     2.215341     2.204161     2.192982     2.181802     2.170623     2.159443     2.148264     2.137084
      2.125905     2.114726     2.103546     2.092367     2.081187     2.070008     2.058828     2.047649     2.036469     2.025290
      2.014111     2.002931     1.991752     1.980572     1.969393     1.958213     1.947034     1.935854     1.924675     1.913496
      1.902316     1.891137     1.879957     1.868778     1.857598     1.846419     1.835239     1.824060     1.812881     1.801701
      1.790522     1.779342     1.768163     1.756983     1.745804     1.734624     1.723445     1.712265     1.701086     1.689907
      1.678727     1.667548     1.656368     1.645189     1.634009     1.622830     1.611650     1.600471     1.589292     1.578112
      1.566933     1.555753     1.544574     1.533394     1.522215     1.511035     1.499856     1.488677     1.477497     1.466318
      1.455138     1.443959     1.432779     1.421600     1.410420     1.399241     1.388062     1.376882     1.365703     1.354523
      1.343344     1.332164     1.320985     1.309805     1.298626     1.287446     1.276267     1.265088     1.253908     1.242729
      1.231549     1.220370     1.209190     1.198011     1.186831     1.175652     1.164473     1.153293     1.142114     1.130934
      1.119755     1.108575     1.097396     1.086216     1.075037     1.063858     1.052678     1.041499     1.030319     1.019140
      1.007960     0.996781     0.985601     0.974422     0.963243     0.952063     0.940884     0.929704     0.918525     0.907345
      0.896166     0.884986     0.873807     0.862628     0.851448     0.840269     0.829089     0.817910     0.806730     0.795551
      0.784371     0.773192     0.762012     0.750833     0.739654     0.728474     0.717295     0.706115     0.694936     0.683756
      0.672577     0.661397     0.650218     0.639039     0.627859     0.616680     0.605500     0.594321     0.583141     0.571962
      0.560782     0.549603     0.538424     0.527244     0.516065     0.504885     0.493706     0.482526     0.471347     0.460167
      0.448988     0.437809     0.426629     0.415450     0.404270     0.393091     0.381911     0.370732     0.359552     0.348373
      0.337193     0.326014     0.314835     0.303655     0.292476     0.281296     0.270117     0.258937     0.247758     0.236578
      0.225399     0.214220     0.203040
 NY phased data points follow
   1.14552E-08  1.02840E-08  1.03777E-08  8.79212E-09  9.80448E-09  9.33702E-09  9.48621E-09  9.49617E-09  1.02121E-08  1.02467E-08
   1.02145E-08  1.03994E-08  1.13341E-08  1.00012E-08  1.02503E-08  9.92199E-09  9.58012E-09  9.37709E-09  8.90806E-09  8.68046E-09
   9.56670E-09  1.05096E-08  1.08326E-08  1.01438E-08  9.34631E-09  9.01898E-09  9.16164E-09  1.02766E-08  1.14495E-08  1.23696E-08
   1.11326E-08  1.01753E-08  8.81696E-09  7.76981E-09  6.21392E-09  6.15600E-09  6.36725E-09  6.09482E-09  5.51359E-09  5.39893E-09
   5.82147E-09  5.25311E-09  4.60958E-09  5.39805E-09  4.21152E-09  4.92850E-09  4.73583E-09  4.99444E-09  6.32722E-09  5.12115E-09
   5.05387E-09  5.25676E-09  4.32584E-09  4.70743E-09  5.81988E-09  5.56499E-09  6.45142E-09  6.81855E-09  7.97133E-09  1.16708E-08
   1.51306E-08  1.54745E-08  1.31053E-08  1.08537E-08  8.84425E-09  7.57920E-09  6.79140E-09  6.44752E-09  6.29641E-09  5.31776E-09
   5.46885E-09  5.02882E-09  5.49363E-09  5.26056E-09  6.41586E-09  8.07712E-09  1.25948E-08  1.55811E-08  1.54263E-08  1.34864E-08
   1.17905E-08  1.12113E-08  1.04593E-08  9.11968E-09  8.81394E-09  8.02947E-09  7.63794E-09  7.84154E-09  7.75036E-09  6.10317E-09
   6.74679E-09  6.03148E-09  5.57209E-09  5.60562E-09  5.24615E-09  5.53589E-09  5.07688E-09  4.73442E-09  4.70443E-09  4.93454E-09
   5.42948E-09  4.87864E-09  4.32543E-09  5.38122E-09  4.91417E-09  3.91710E-09  3.47710E-09  3.55676E-09  2.92023E-09  3.20803E-09
   4.11376E-09  4.37200E-09  4.17007E-09  4.34707E-09  4.82142E-09  5.20554E-09  5.15357E-09  5.02732E-09  5.38952E-09  4.76795E-09
   4.28437E-09  3.65217E-09  3.47135E-09  2.99828E-09  3.27866E-09  3.71660E-09  4.33975E-09  3.99773E-09  4.11710E-09  3.93712E-09
   4.38859E-09  3.54258E-09  3.48121E-09  3.50681E-09  3.76218E-09  3.07073E-09  3.54485E-09  5.05569E-09  6.04197E-09  5.79526E-09
   4.81030E-09  5.00764E-09  5.08731E-09  6.06293E-09  6.23036E-09  6.47433E-09  6.40870E-09  5.78562E-09  6.74068E-09  6.10500E-09
   5.31771E-09  5.54936E-09  5.47946E-09  5.22707E-09  5.25915E-09  5.39639E-09  5.53724E-09  5.67411E-09  5.57440E-09  5.63596E-09
   5.39975E-09  4.77863E-09  4.60559E-09  4.63942E-09  6.32383E-09  6.77190E-09  6.65828E-09  9.07530E-09  1.55479E-08  1.98799E-08
   1.87700E-08  1.70041E-08  1.50626E-08  1.46993E-08  1.36646E-08  1.29906E-08  1.18919E-08  1.16921E-08  1.06717E-08  1.04422E-08
   9.72657E-09  8.99650E-09  8.61406E-09  7.82999E-09  7.05432E-09  6.23932E-09  5.14153E-09  4.08491E-09  3.26626E-09  2.52282E-09
   4.03863E-10 -1.50412E-10 -2.00884E-09 -3.17745E-09 -5.02407E-09 -6.59593E-09 -7.68076E-09 -8.39695E-09 -1.00967E-08 -1.06644E-08
  -1.13114E-08 -1.11861E-08 -1.13556E-08 -1.13294E-08 -9.97531E-09 -1.02563E-08 -8.91491E-09 -8.07912E-09 -6.81442E-09 -5.41840E-09
  -4.65128E-09 -3.77104E-09 -2.22548E-09 -2.34612E-09 -1.95052E-09 -1.45268E-09 -1.77845E-09 -1.93754E-09 -2.35109E-09 -1.52341E-09
  -1.28897E-09 -1.39303E-09 -1.40410E-09 -1.35435E-09 -1.44164E-09 -5.87077E-10 -1.23022E-09 -6.72144E-10 -7.14453E-10 -7.95643E-10
  -1.23820E-09 -1.55270E-09 -1.07135E-09 -9.72314E-10 -8.92486E-10 -1.03323E-09 -1.00227E-09  3.96335E-11 -2.98317E-10 -6.39315E-10
  -7.66140E-10 -1.11060E-09 -7.11562E-10 -1.18875E-09 -7.98163E-10 -1.38210E-09 -1.27854E-09 -5.46288E-10 -8.07187E-10 -2.98027E-10
  -2.49354E-10  4.69151E-10 -3.32497E-10  5.40160E-10  4.36219E-11 -4.42997E-10 -2.16516E-10 -5.29119E-10 -1.53342E-10 -1.24703E-09
  -1.27975E-09 -1.28001E-09 -1.37243E-09 -9.95252E-10 -1.25607E-09 -1.69278E-09 -1.29779E-09 -9.40639E-10 -9.02100E-10 -6.38654E-10
  -6.07550E-10 -4.97519E-10  2.64660E-10  3.36338E-10  4.63905E-10  2.88864E-10  2.89305E-10  4.09533E-10  9.34589E-11  4.58369E-10
  -3.16540E-10 -1.00051E-10 -2.90251E-10 -1.42734E-10 -6.53675E-11 -5.34482E-10 -1.86256E-10 -1.95777E-10 -9.60423E-10 -6.21155E-10
  -6.73411E-10 -7.32360E-10 -8.72004E-10 -5.83819E-10 -4.35568E-10 -1.86844E-10 -1.05404E-09 -7.99353E-10 -3.04545E-10 -1.21829E-09
  -6.18727E-10 -1.42769E-09 -6.84426E-10 -5.65266E-10 -1.35155E-09 -4.19320E-10 -1.50587E-09 -1.53944E-09 -1.08884E-09 -1.27848E-09
  -1.34554E-09 -1.29586E-09 -1.17719E-09 -1.52482E-09 -1.18971E-09 -1.62471E-09 -1.00162E-09 -1.30664E-09 -1.60613E-09 -1.50488E-09
  -1.58853E-09 -1.18681E-09 -1.21518E-09 -1.58978E-09 -1.76640E-09 -1.20266E-09 -1.67636E-09 -2.17583E-09 -1.32660E-09 -1.35985E-09
  -1.87425E-09 -1.65007E-09 -1.90808E-09 -7.58414E-10 -1.67485E-09 -1.69205E-09 -1.63784E-09 -1.64761E-09 -1.59278E-09 -1.80451E-09
  -2.08558E-09 -1.95286E-09 -1.54212E-09 -2.11857E-09 -1.55062E-09 -1.90908E-09 -1.65635E-09 -1.85033E-09 -1.84738E-09 -1.23848E-09
  -1.61411E-09 -2.41410E-09 -1.75085E-09 -1.49883E-09 -2.04697E-09 -2.34918E-09 -1.85623E-09 -1.93236E-09 -1.62326E-09 -1.98508E-09
  -2.44004E-09 -2.28695E-09 -2.17821E-09
 NY points of the fit to the data follow
   1.05462E-08  1.03733E-08  1.02003E-08  1.00195E-08  9.99712E-09  1.00049E-08  9.84792E-09  9.61119E-09  9.69059E-09  1.00583E-08
   1.01886E-08  1.03085E-08  1.02716E-08  1.01662E-08  1.02288E-08  1.02363E-08  1.02716E-08  1.01159E-08  9.50803E-09  8.73267E-09
   8.43862E-09  8.73051E-09  9.34420E-09  1.00080E-08  1.04939E-08  1.08670E-08  1.11454E-08  1.11588E-08  1.10005E-08  1.05674E-08
   9.86631E-09  9.07117E-09  8.45047E-09  7.96374E-09  7.45593E-09  6.82188E-09  6.20591E-09  5.82968E-09  5.61323E-09  5.44372E-09
   5.23247E-09  4.90984E-09  4.51606E-09  4.26313E-09  4.23830E-09  4.27922E-09  4.33924E-09  4.39855E-09  4.49189E-09  4.61629E-09
   4.77264E-09  4.96058E-09  5.20173E-09  5.56291E-09  6.30126E-09  7.35869E-09  8.28996E-09  9.31749E-09  1.04399E-08  1.12817E-08
   1.17246E-08  1.18265E-08  1.16047E-08  1.10665E-08  1.02112E-08  9.17993E-09  8.29329E-09  7.46582E-09  6.52508E-09  6.06255E-09
   6.02642E-09  6.32707E-09  6.94415E-09  7.66353E-09  8.58237E-09  9.72153E-09  1.08924E-08  1.19073E-08  1.25563E-08  1.27557E-08
   1.25605E-08  1.19974E-08  1.11899E-08  1.04644E-08  9.61476E-09  8.47147E-09  7.49895E-09  6.75231E-09  6.17579E-09  5.80891E-09
   5.57050E-09  5.40446E-09  5.28107E-09  5.18815E-09  5.11306E-09  5.05459E-09  5.00924E-09  4.97218E-09  4.94068E-09  4.91368E-09
   4.89666E-09  4.88504E-09  4.87406E-09  4.86504E-09  4.85938E-09  4.85602E-09  4.85415E-09  4.85330E-09  4.85302E-09  4.85311E-09
   4.85338E-09  4.85360E-09  4.85360E-09  4.85322E-09  4.85233E-09  4.85080E-09  4.84852E-09  4.84538E-09  4.84128E-09  4.83615E-09
   4.82988E-09  4.82241E-09  4.81366E-09  4.80355E-09  4.79203E-09  4.77903E-09  4.76447E-09  4.74831E-09  4.73049E-09  4.71095E-09
   4.68964E-09  4.66650E-09  4.64149E-09  4.61455E-09  4.58564E-09  4.55472E-09  4.52174E-09  4.48666E-09  4.44945E-09  4.41006E-09
   4.36846E-09  4.32464E-09  4.27855E-09  4.23019E-09  4.17952E-09  4.12656E-09  4.07133E-09  4.01396E-09  3.95461E-09  3.89344E-09
   3.83065E-09  3.76648E-09  3.70118E-09  3.63511E-09  3.56868E-09  3.50245E-09  3.43714E-09  3.37378E-09  3.31381E-09  3.25942E-09
   3.21400E-09  3.18328E-09  3.17750E-09  3.21714E-09  3.34953E-09  3.71296E-09  4.90967E-09  8.92321E-09  1.38371E-08  1.75026E-08
   1.89428E-08  1.86146E-08  1.75830E-08  1.65765E-08  1.56001E-08  1.41440E-08  1.15510E-08  7.66063E-09  3.76055E-09  2.46841E-09
   1.92861E-09  1.60406E-09  1.36899E-09  1.17977E-09  1.01726E-09  8.71793E-10  7.37938E-10  6.12461E-10  4.93294E-10  3.79105E-10
   2.68992E-10  1.62319E-10  5.86600E-11 -4.22942E-11 -1.40748E-10 -2.36858E-10 -3.30723E-10 -4.22388E-10 -5.11898E-10 -5.99269E-10
  -6.84487E-10 -7.67540E-10 -8.48397E-10 -9.27023E-10 -1.00338E-09 -1.07740E-09 -1.14905E-09 -1.21826E-09 -1.28498E-09 -1.34914E-09
  -1.41068E-09 -1.46952E-09 -1.52560E-09 -1.57886E-09 -1.62922E-09 -1.67660E-09 -1.72092E-09 -1.76214E-09 -1.80016E-09 -1.83504E-09
  -1.86682E-09 -1.89562E-09 -1.92147E-09 -1.94447E-09 -1.96467E-09 -1.98216E-09 -1.99700E-09 -2.00927E-09 -2.01903E-09 -2.02636E-09
  -2.03133E-09 -2.03401E-09 -2.03446E-09 -2.03277E-09 -2.02899E-09 -2.02321E-09 -2.01549E-09 -2.00589E-09 -1.99449E-09 -1.98136E-09
  -1.96656E-09 -1.95019E-09 -1.93229E-09 -1.91293E-09 -1.89219E-09 -1.87013E-09 -1.84683E-09 -1.82235E-09 -1.79678E-09 -1.77015E-09
  -1.74258E-09 -1.71409E-09 -1.68479E-09 -1.65471E-09 -1.62394E-09 -1.59257E-09 -1.56064E-09 -1.52822E-09 -1.49539E-09 -1.46220E-09
  -1.42874E-09 -1.39509E-09 -1.36130E-09 -1.32744E-09 -1.29357E-09 -1.25977E-09 -1.22612E-09 -1.19267E-09 -1.15949E-09 -1.12667E-09
  -1.09425E-09 -1.06232E-09 -1.03095E-09 -1.00018E-09 -9.70120E-10 -9.40806E-10 -9.12325E-10 -8.84748E-10 -8.58121E-10 -8.32533E-10
  -8.08058E-10 -7.84750E-10 -7.62691E-10 -7.41929E-10 -7.22552E-10 -7.04626E-10 -6.88225E-10 -6.73381E-10 -6.60212E-10 -6.48767E-10
  -6.39097E-10 -6.31256E-10 -6.25191E-10 -6.20866E-10 -6.18237E-10 -6.17278E-10 -6.17931E-10 -6.20172E-10 -6.23954E-10 -6.29240E-10
  -6.35993E-10 -6.44168E-10 -6.53735E-10 -6.64647E-10 -6.76863E-10 -6.90347E-10 -7.05066E-10 -7.20977E-10 -7.38034E-10 -7.56203E-10
  -7.75446E-10 -7.95718E-10 -8.16993E-10 -8.39213E-10 -8.62355E-10 -8.86370E-10 -9.11227E-10 -9.36875E-10 -9.63285E-10 -9.90416E-10
  -1.01823E-09 -1.04667E-09 -1.07573E-09 -1.10534E-09 -1.13548E-09 -1.16609E-09 -1.19716E-09 -1.22863E-09 -1.26048E-09 -1.29263E-09
  -1.32509E-09 -1.35779E-09 -1.39070E-09 -1.42377E-09 -1.45699E-09 -1.49029E-09 -1.52364E-09 -1.55701E-09 -1.59036E-09 -1.62362E-09
  -1.65680E-09 -1.68982E-09 -1.72266E-09 -1.75529E-09 -1.78763E-09 -1.81969E-09 -1.85141E-09 -1.88275E-09 -1.91366E-09 -1.94412E-09
  -1.97409E-09 -2.00351E-09 -2.03237E-09 -2.06060E-09 -2.08818E-09 -2.11506E-09 -2.14123E-09 -2.16661E-09 -2.19117E-09 -2.21490E-09
  -2.23773E-09 -2.25963E-09 -2.28057E-09
 NY background values follow
     1.518E-09    1.538E-09    1.558E-09    1.578E-09    1.597E-09    1.616E-09    1.635E-09    1.654E-09    1.673E-09    1.691E-09
     1.709E-09    1.728E-09    1.746E-09    1.764E-09    1.781E-09    1.799E-09    1.817E-09    1.834E-09    1.851E-09    1.869E-09
     1.886E-09    1.903E-09    1.920E-09    1.937E-09    1.955E-09    1.972E-09    1.989E-09    2.006E-09    2.023E-09    2.040E-09
     2.057E-09    2.074E-09    2.092E-09    2.109E-09    2.126E-09    2.144E-09    2.161E-09    2.179E-09    2.197E-09    2.215E-09
     2.233E-09    2.251E-09    2.269E-09    2.288E-09    2.306E-09    2.325E-09    2.344E-09    2.363E-09    2.383E-09    2.402E-09
     2.422E-09    2.442E-09    2.462E-09    2.483E-09    2.504E-09    2.525E-09    2.546E-09    2.568E-09    2.590E-09    2.612E-09
     2.635E-09    2.657E-09    2.681E-09    2.704E-09    2.728E-09    2.753E-09    2.777E-09    2.802E-09    2.828E-09    2.854E-09
     2.880E-09    2.907E-09    2.934E-09    2.961E-09    2.989E-09    3.018E-09    3.047E-09    3.076E-09    3.105E-09    3.134E-09
     3.164E-09    3.194E-09    3.223E-09    3.253E-09    3.283E-09    3.313E-09    3.343E-09    3.372E-09    3.401E-09    3.431E-09
     3.459E-09    3.488E-09    3.516E-09    3.544E-09    3.571E-09    3.598E-09    3.624E-09    3.650E-09    3.675E-09    3.700E-09
     3.723E-09    3.746E-09    3.769E-09    3.790E-09    3.810E-09    3.830E-09    3.849E-09    3.866E-09    3.883E-09    3.898E-09
     3.912E-09    3.926E-09    3.937E-09    3.948E-09    3.957E-09    3.965E-09    3.972E-09    3.977E-09    3.981E-09    3.983E-09
     3.983E-09    3.982E-09    3.979E-09    3.975E-09    3.969E-09    3.961E-09    3.951E-09    3.939E-09    3.926E-09    3.910E-09
     3.893E-09    3.873E-09    3.851E-09    3.827E-09    3.801E-09    3.773E-09    3.742E-09    3.710E-09    3.674E-09    3.637E-09
     3.597E-09    3.554E-09    3.509E-09    3.462E-09    3.411E-09    3.359E-09    3.303E-09    3.245E-09    3.184E-09    3.121E-09
     3.056E-09    2.988E-09    2.918E-09    2.846E-09    2.772E-09    2.696E-09    2.618E-09    2.539E-09    2.457E-09    2.374E-09
     2.290E-09    2.204E-09    2.116E-09    2.028E-09    1.938E-09    1.847E-09    1.755E-09    1.661E-09    1.567E-09    1.473E-09
     1.377E-09    1.281E-09    1.184E-09    1.087E-09    9.889E-10    8.909E-10    7.925E-10    6.940E-10    5.954E-10    4.968E-10
     3.982E-10    2.998E-10    2.016E-10    1.037E-10    6.250E-12   -9.078E-11   -1.873E-10   -2.831E-10   -3.783E-10   -4.726E-10
    -5.661E-10   -6.586E-10   -7.501E-10   -8.405E-10   -9.297E-10   -1.018E-09   -1.104E-09   -1.189E-09   -1.273E-09   -1.355E-09
    -1.435E-09   -1.514E-09   -1.591E-09   -1.666E-09   -1.738E-09   -1.809E-09   -1.878E-09   -1.944E-09   -2.008E-09   -2.070E-09
    -2.129E-09   -2.186E-09   -2.240E-09   -2.291E-09   -2.339E-09   -2.385E-09   -2.427E-09   -2.467E-09   -2.503E-09   -2.537E-09
    -2.567E-09   -2.594E-09   -2.619E-09   -2.641E-09   -2.659E-09   -2.676E-09   -2.689E-09   -2.700E-09   -2.709E-09   -2.715E-09
    -2.719E-09   -2.721E-09   -2.720E-09   -2.718E-09   -2.713E-09   -2.706E-09   -2.698E-09   -2.687E-09   -2.675E-09   -2.661E-09
    -2.645E-09   -2.628E-09   -2.609E-09   -2.589E-09   -2.568E-09   -2.545E-09   -2.521E-09   -2.496E-09   -2.470E-09   -2.442E-09
    -2.414E-09   -2.385E-09   -2.355E-09   -2.324E-09   -2.293E-09   -2.261E-09   -2.228E-09   -2.195E-09   -2.162E-09   -2.128E-09
    -2.094E-09   -2.060E-09   -2.025E-09   -1.991E-09   -1.956E-09   -1.922E-09   -1.888E-09   -1.854E-09   -1.820E-09   -1.787E-09
    -1.754E-09   -1.722E-09   -1.690E-09   -1.658E-09   -1.628E-09   -1.598E-09   -1.569E-09   -1.541E-09   -1.514E-09   -1.488E-09
    -1.463E-09   -1.439E-09   -1.417E-09   -1.395E-09   -1.376E-09   -1.357E-09   -1.340E-09   -1.325E-09   -1.311E-09   -1.300E-09
    -1.289E-09   -1.281E-09   -1.275E-09   -1.270E-09   -1.267E-09   -1.265E-09   -1.266E-09   -1.267E-09   -1.271E-09   -1.276E-09
    -1.282E-09   -1.290E-09   -1.299E-09   -1.310E-09   -1.321E-09   -1.334E-09   -1.349E-09   -1.364E-09   -1.381E-09   -1.399E-09
    -1.418E-09   -1.437E-09   -1.458E-09   -1.480E-09   -1.503E-09   -1.527E-09   -1.551E-09   -1.576E-09   -1.602E-09   -1.629E-09
    -1.656E-09   -1.685E-09   -1.713E-09   -1.742E-09   -1.772E-09   -1.802E-09   -1.833E-09   -1.864E-09   -1.896E-09   -1.927E-09
    -1.960E-09   -1.992E-09   -2.024E-09   -2.057E-09   -2.090E-09   -2.123E-09   -2.156E-09   -2.189E-09   -2.222E-09   -2.255E-09
    -2.288E-09   -2.320E-09   -2.353E-09   -2.385E-09   -2.417E-09   -2.449E-09   -2.480E-09   -2.511E-09   -2.541E-09   -2.572E-09
    -2.601E-09   -2.630E-09   -2.659E-09   -2.686E-09   -2.714E-09   -2.740E-09   -2.766E-09   -2.791E-09   -2.815E-09   -2.839E-09
    -2.861E-09   -2.883E-09   -2.903E-09
 Asp      Conc. = 1.82E-10
   1.71323E-09  1.70342E-09  1.69913E-09  1.69383E-09  1.69274E-09  1.68835E-09  1.68641E-09  1.68984E-09  1.70077E-09  1.71461E-09
   1.72987E-09  1.74595E-09  1.76257E-09  1.77954E-09  1.79657E-09  1.81363E-09  1.83075E-09  1.84789E-09  1.86506E-09  1.88226E-09
   1.89948E-09  1.91674E-09  1.93404E-09  1.95140E-09  1.96883E-09  1.98636E-09  2.00401E-09  2.02182E-09  2.03984E-09  2.05812E-09
   2.07676E-09  2.09587E-09  2.11565E-09  2.13645E-09  2.15892E-09  2.18461E-09  2.21737E-09  2.25170E-09  2.28725E-09  2.31585E-09
   2.33572E-09  2.35139E-09  2.37460E-09  2.41537E-09  2.47626E-09  2.55256E-09  2.61129E-09  2.63978E-09  2.66593E-09  2.69532E-09
   2.73011E-09  2.75839E-09  2.76856E-09  2.75350E-09  2.72252E-09  2.69777E-09  2.69431E-09  2.71358E-09  2.72312E-09  2.72042E-09
   2.72824E-09  2.73960E-09  2.75278E-09  2.77330E-09  2.79501E-09  2.81160E-09  2.82482E-09  2.84282E-09  2.86345E-09  2.88574E-09
   2.90924E-09  2.93371E-09  2.95901E-09  2.98505E-09  3.01174E-09  3.03900E-09  3.06673E-09  3.09487E-09  3.12336E-09  3.15214E-09
   3.18115E-09  3.21034E-09  3.23966E-09  3.26905E-09  3.29847E-09  3.32787E-09  3.35720E-09  3.38642E-09  3.41548E-09  3.44432E-09
   3.47292E-09  3.50121E-09  3.52916E-09  3.55673E-09  3.58386E-09  3.61052E-09  3.63665E-09  3.66222E-09  3.68718E-09  3.71148E-09
   3.73508E-09  3.75795E-09  3.78003E-09  3.80128E-09  3.82165E-09  3.84111E-09  3.85960E-09  3.87710E-09  3.89354E-09  3.90889E-09
   3.92311E-09  3.93615E-09  3.94797E-09  3.95852E-09  3.96776E-09  3.97565E-09  3.98214E-09  3.98719E-09  3.99076E-09  3.99280E-09
   3.99327E-09  3.99213E-09  3.98933E-09  3.98483E-09  3.97858E-09  3.97055E-09  3.96069E-09  3.94895E-09  3.93530E-09  3.91968E-09
   3.90206E-09  3.88239E-09  3.86064E-09  3.83675E-09  3.81068E-09  3.78238E-09  3.75183E-09  3.71897E-09  3.68376E-09  3.64615E-09
   3.60611E-09  3.56359E-09  3.51855E-09  3.47094E-09  3.42072E-09  3.36786E-09  3.31233E-09  3.25422E-09  3.19360E-09  3.13057E-09
   3.06519E-09  2.99756E-09  2.92775E-09  2.85587E-09  2.78198E-09  2.70619E-09  2.62858E-09  2.54927E-09  2.46835E-09  2.38596E-09
   2.30225E-09  2.21743E-09  2.13181E-09  2.04594E-09  1.96105E-09  1.88061E-09  1.82052E-09  1.82302E-09  1.84107E-09  1.82766E-09
   1.76332E-09  1.66018E-09  1.54239E-09  1.42532E-09  1.30805E-09  1.17857E-09  1.02240E-09  8.37622E-10  6.56358E-10  5.34132E-10
   4.26295E-10  3.22963E-10  2.21725E-10  1.21781E-10  2.27978E-11 -7.53516E-11 -1.72703E-10 -2.69242E-10 -3.64954E-10 -4.59779E-10
  -5.53655E-10 -6.46529E-10 -7.38324E-10 -8.28971E-10 -9.18389E-10 -1.00651E-09 -1.09327E-09 -1.17856E-09 -1.26232E-09 -1.34448E-09
  -1.42495E-09 -1.50366E-09 -1.58052E-09 -1.65545E-09 -1.72838E-09 -1.79922E-09 -1.86790E-09 -1.93434E-09 -1.99845E-09 -2.06015E-09
  -2.11937E-09 -2.17603E-09 -2.23003E-09 -2.28132E-09 -2.32980E-09 -2.37539E-09 -2.41801E-09 -2.45759E-09 -2.49404E-09 -2.52742E-09
  -2.55776E-09 -2.58517E-09 -2.60968E-09 -2.63139E-09 -2.65034E-09 -2.66663E-09 -2.68031E-09 -2.69145E-09 -2.70012E-09 -2.70638E-09
  -2.71032E-09 -2.71199E-09 -2.71147E-09 -2.70882E-09 -2.70412E-09 -2.69743E-09 -2.68883E-09 -2.67836E-09 -2.66613E-09 -2.65217E-09
  -2.63657E-09 -2.61941E-09 -2.60073E-09 -2.58062E-09 -2.55913E-09 -2.53634E-09 -2.51233E-09 -2.48715E-09 -2.46089E-09 -2.43359E-09
  -2.40535E-09 -2.37620E-09 -2.34626E-09 -2.31555E-09 -2.28415E-09 -2.25216E-09 -2.21962E-09 -2.18661E-09 -2.15319E-09 -2.11942E-09
  -2.08539E-09 -2.05117E-09 -2.01682E-09 -1.98241E-09 -1.94799E-09 -1.91366E-09 -1.87948E-09 -1.84550E-09 -1.81180E-09 -1.77847E-09
  -1.74554E-09 -1.71310E-09 -1.68123E-09 -1.64997E-09 -1.61943E-09 -1.58963E-09 -1.56067E-09 -1.53262E-09 -1.50552E-09 -1.47947E-09
  -1.45453E-09 -1.43077E-09 -1.40825E-09 -1.38704E-09 -1.36722E-09 -1.34885E-09 -1.33201E-09 -1.31672E-09 -1.30312E-09 -1.29124E-09
  -1.28115E-09 -1.27288E-09 -1.26639E-09 -1.26165E-09 -1.25860E-09 -1.25723E-09 -1.25747E-09 -1.25930E-09 -1.26267E-09 -1.26755E-09
  -1.27390E-09 -1.28167E-09 -1.29084E-09 -1.30135E-09 -1.31317E-09 -1.32626E-09 -1.34059E-09 -1.35611E-09 -1.37278E-09 -1.39056E-09
  -1.40942E-09 -1.42930E-09 -1.45019E-09 -1.47203E-09 -1.49479E-09 -1.51843E-09 -1.54291E-09 -1.56818E-09 -1.59421E-09 -1.62096E-09
  -1.64840E-09 -1.67647E-09 -1.70515E-09 -1.73440E-09 -1.76416E-09 -1.79440E-09 -1.82510E-09 -1.85620E-09 -1.88768E-09 -1.91947E-09
  -1.95156E-09 -1.98389E-09 -2.01643E-09 -2.04914E-09 -2.08198E-09 -2.11492E-09 -2.14791E-09 -2.18091E-09 -2.21389E-09 -2.24679E-09
  -2.27960E-09 -2.31225E-09 -2.34473E-09 -2.37699E-09 -2.40897E-09 -2.44067E-09 -2.47201E-09 -2.50299E-09 -2.53354E-09 -2.56363E-09
  -2.59323E-09 -2.62229E-09 -2.65077E-09 -2.67863E-09 -2.70585E-09 -2.73236E-09 -2.75815E-09 -2.78316E-09 -2.80736E-09 -2.83071E-09
  -2.85316E-09 -2.87469E-09 -2.89526E-09
 Cr       Conc. = 2.97E-10
   2.48256E-09  2.32370E-09  2.06532E-09  1.80197E-09  1.73333E-09  1.71785E-09  1.71826E-09  1.72543E-09  1.73608E-09  1.74874E-09
   1.76265E-09  1.77738E-09  1.79266E-09  1.80835E-09  1.82433E-09  1.84055E-09  1.85695E-09  1.87354E-09  1.89030E-09  1.90725E-09
   1.92443E-09  1.94190E-09  1.95976E-09  1.97816E-09  1.99735E-09  2.01772E-09  2.04000E-09  2.06555E-09  2.09731E-09  2.14284E-09
   2.22809E-09  2.49318E-09  2.99668E-09  3.50607E-09  3.83775E-09  3.94803E-09  3.91487E-09  3.84057E-09  3.77265E-09  3.68874E-09
   3.52556E-09  3.22756E-09  2.83013E-09  2.55019E-09  2.48066E-09  2.45949E-09  2.45556E-09  2.45984E-09  2.46875E-09  2.48059E-09
   2.49443E-09  2.50974E-09  2.52618E-09  2.54354E-09  2.56166E-09  2.58045E-09  2.59984E-09  2.61976E-09  2.64020E-09  2.66112E-09
   2.68250E-09  2.70434E-09  2.72661E-09  2.74933E-09  2.77247E-09  2.79606E-09  2.82007E-09  2.84453E-09  2.86943E-09  2.89477E-09
   2.92056E-09  2.94681E-09  2.97353E-09  3.00071E-09  3.02834E-09  3.05636E-09  3.08474E-09  3.11343E-09  3.14238E-09  3.17156E-09
   3.20091E-09  3.23039E-09  3.25995E-09  3.28956E-09  3.31917E-09  3.34873E-09  3.37820E-09  3.40754E-09  3.43670E-09  3.46564E-09
   3.49431E-09  3.52267E-09  3.55068E-09  3.57830E-09  3.60547E-09  3.63216E-09  3.65832E-09  3.68391E-09  3.70889E-09  3.73321E-09
   3.75683E-09  3.77970E-09  3.80178E-09  3.82303E-09  3.84341E-09  3.86287E-09  3.88136E-09  3.89885E-09  3.91529E-09  3.93063E-09
   3.94484E-09  3.95787E-09  3.96967E-09  3.98021E-09  3.98943E-09  3.99731E-09  4.00378E-09  4.00882E-09  4.01237E-09  4.01440E-09
   4.01485E-09  4.01370E-09  4.01088E-09  4.00636E-09  4.00010E-09  3.99205E-09  3.98217E-09  3.97042E-09  3.95675E-09  3.94112E-09
   3.92348E-09  3.90380E-09  3.88202E-09  3.85812E-09  3.83203E-09  3.80373E-09  3.77316E-09  3.74029E-09  3.70507E-09  3.66745E-09
   3.62740E-09  3.58488E-09  3.53983E-09  3.49222E-09  3.44200E-09  3.38914E-09  3.33362E-09  3.27552E-09  3.21492E-09  3.15191E-09
   3.08657E-09  3.01898E-09  2.94923E-09  2.87742E-09  2.80362E-09  2.72795E-09  2.65050E-09  2.57139E-09  2.49075E-09  2.40873E-09
   2.32554E-09  2.24146E-09  2.15695E-09  2.07288E-09  1.99118E-09  1.91752E-09  1.87789E-09  1.94074E-09  2.02932E-09  2.06704E-09
   2.02224E-09  1.91470E-09  1.78370E-09  1.65419E-09  1.52456E-09  1.37516E-09  1.18240E-09  9.43220E-10  7.10094E-10  5.73030E-10
   4.59328E-10  3.52876E-10  2.49704E-10  1.48447E-10  4.85150E-11 -5.03499E-11 -1.48259E-10 -2.45245E-10 -3.41323E-10 -4.36452E-10
  -5.30585E-10 -6.23679E-10 -7.15665E-10 -8.06479E-10 -8.96044E-10 -9.84299E-10 -1.07117E-09 -1.15657E-09 -1.24043E-09 -1.32268E-09
  -1.40323E-09 -1.48201E-09 -1.55893E-09 -1.63393E-09 -1.70692E-09 -1.77782E-09 -1.84655E-09 -1.91304E-09 -1.97720E-09 -2.03894E-09
  -2.09820E-09 -2.15490E-09 -2.20894E-09 -2.26026E-09 -2.30878E-09 -2.35440E-09 -2.39705E-09 -2.43667E-09 -2.47315E-09 -2.50655E-09
  -2.53693E-09 -2.56436E-09 -2.58890E-09 -2.61063E-09 -2.62961E-09 -2.64592E-09 -2.65962E-09 -2.67078E-09 -2.67947E-09 -2.68576E-09
