 LCModel (Version 6.3-1R) Copyright: S.W. Provencher.          Ref.: Magn. Reson. Med. 30:672-679 (1993).                
 onepulse 24x19_ftSpec_smooth_lcm
 26 lines in following concentration table = NCONC+1
    Conc.  %SD /Cr+PCr  Metabolite                                         
    0.000 999%   0.000 Ala                                                 
    0.000 999%   0.000 Asp                                                 
    0.000 999%   0.000 Cr                                                  
 7.22E-10 112%   1.768 GABA                                                
 1.74E-09  24%   4.261 Glc                                                 
    0.000 999%   0.000 Gln                                                 
 2.27E-09  30%   5.558 Glu                                                 
    0.000 999%   0.000 Glyc                                                
 1.24E-10  65%   0.303 GPC                                                 
 2.24E-10 127%   0.548 GSH                                                 
    0.000 999%   0.000 Ins                                                 
    0.000 999%   0.000 Lac                                                 
    0.000 999%   0.000 NAAG                                                
 1.55E-10 171%   0.379 NAA                                                 
    0.000 999%   0.000 PCh                                                 
 4.08E-10  83%   1.000 PCr                                                 
    0.000 999%   0.000 PE                                                  
    0.000 999%   0.000 Scyllo                                              
    0.000 999%   0.000 Ser                                                 
    0.000 999%   0.000 Tau                                                 
 1.24E-10  65%   0.303 GPC+PCh                                             
 1.55E-10 171%   0.379 NAA+NAAG                                            
    0.000 999%   0.000 Ins+Glyc                                            
 4.08E-10  83%   1.000 Cr+PCr                                              
 2.27E-09  30%   5.558 Glu+Gln                                             
   6 lines in following misc. output table
  FWHM = 0.056 ppm    S/N =   2                                            
  Data shift = 0.268 ppm                                                   
  Ph: -38 deg      -0.9 deg/ppm                                            
  alphaB,S = 4.6E-01,   2.0E+01                                            
    8 spline knots.   Ns = 5(1)                                            
  ( 9) 3 infls.   (11) 1 extrs.                                            
  363 points on ppm-axis = NY
      4.250000     4.238821     4.227641     4.216462     4.205282     4.194103     4.182923     4.171744     4.160564     4.149385
      4.138206     4.127026     4.115847     4.104667     4.093488     4.082308     4.071129     4.059949     4.048770     4.037591
      4.026411     4.015232     4.004052     3.992873     3.981693     3.970514     3.959334     3.948155     3.936975     3.925796
      3.914617     3.903437     3.892258     3.881078     3.869899     3.858719     3.847540     3.836360     3.825181     3.814002
      3.802822     3.791643     3.780463     3.769284     3.758104     3.746925     3.735745     3.724566     3.713387     3.702207
      3.691028     3.679848     3.668669     3.657489     3.646310     3.635130     3.623951     3.612772     3.601592     3.590413
      3.579233     3.568054     3.556874     3.545695     3.534515     3.523336     3.512156     3.500977     3.489798     3.478618
      3.467439     3.456259     3.445080     3.433900     3.422721     3.411541     3.400362     3.389183     3.378003     3.366824
      3.355644     3.344465     3.333285     3.322106     3.310926     3.299747     3.288568     3.277388     3.266209     3.255029
      3.243850     3.232670     3.221491     3.210311     3.199132     3.187953     3.176773     3.165594     3.154414     3.143235
      3.132055     3.120876     3.109696     3.098517     3.087337     3.076158     3.064979     3.053799     3.042620     3.031440
      3.020261     3.009081     2.997902     2.986722     2.975543     2.964364     2.953184     2.942005     2.930825     2.919646
      2.908466     2.897287     2.886107     2.874928     2.863749     2.852569     2.841390     2.830210     2.819031     2.807851
      2.796672     2.785492     2.774313     2.763134     2.751954     2.740775     2.729595     2.718416     2.707236     2.696057
      2.684877     2.673698     2.662519     2.651339     2.640160     2.628980     2.617801     2.606621     2.595442     2.584262
      2.573083     2.561903     2.550724     2.539545     2.528365     2.517186     2.506006     2.494827     2.483647     2.472468
      2.461288     2.450109     2.438930     2.427750     2.416571     2.405391     2.394212     2.383032     2.371853     2.360673
      2.349494     2.338315     2.327135     2.315956     2.304776     2.293597     2.282417     2.271238     2.260058     2.248879
      2.237700     2.226520     2.215341     2.204161     2.192982     2.181802     2.170623     2.159443     2.148264     2.137084
      2.125905     2.114726     2.103546     2.092367     2.081187     2.070008     2.058828     2.047649     2.036469     2.025290
      2.014111     2.002931     1.991752     1.980572     1.969393     1.958213     1.947034     1.935854     1.924675     1.913496
      1.902316     1.891137     1.879957     1.868778     1.857598     1.846419     1.835239     1.824060     1.812881     1.801701
      1.790522     1.779342     1.768163     1.756983     1.745804     1.734624     1.723445     1.712265     1.701086     1.689907
      1.678727     1.667548     1.656368     1.645189     1.634009     1.622830     1.611650     1.600471     1.589292     1.578112
      1.566933     1.555753     1.544574     1.533394     1.522215     1.511035     1.499856     1.488677     1.477497     1.466318
      1.455138     1.443959     1.432779     1.421600     1.410420     1.399241     1.388062     1.376882     1.365703     1.354523
      1.343344     1.332164     1.320985     1.309805     1.298626     1.287446     1.276267     1.265088     1.253908     1.242729
      1.231549     1.220370     1.209190     1.198011     1.186831     1.175652     1.164473     1.153293     1.142114     1.130934
      1.119755     1.108575     1.097396     1.086216     1.075037     1.063858     1.052678     1.041499     1.030319     1.019140
      1.007960     0.996781     0.985601     0.974422     0.963243     0.952063     0.940884     0.929704     0.918525     0.907345
      0.896166     0.884986     0.873807     0.862628     0.851448     0.840269     0.829089     0.817910     0.806730     0.795551
      0.784371     0.773192     0.762012     0.750833     0.739654     0.728474     0.717295     0.706115     0.694936     0.683756
      0.672577     0.661397     0.650218     0.639039     0.627859     0.616680     0.605500     0.594321     0.583141     0.571962
      0.560782     0.549603     0.538424     0.527244     0.516065     0.504885     0.493706     0.482526     0.471347     0.460167
      0.448988     0.437809     0.426629     0.415450     0.404270     0.393091     0.381911     0.370732     0.359552     0.348373
      0.337193     0.326014     0.314835     0.303655     0.292476     0.281296     0.270117     0.258937     0.247758     0.236578
      0.225399     0.214220     0.203040
 NY phased data points follow
   1.10183E-08  1.15952E-08  1.21357E-08  1.27490E-08  1.42805E-08  1.61110E-08  1.56315E-08  1.66171E-08  1.54779E-08  1.41930E-08
   1.14930E-08  1.02155E-08  9.32050E-09  8.30780E-09  8.30467E-09  8.61949E-09  7.60804E-09  9.18117E-09  8.73957E-09  9.49095E-09
   9.08690E-09  9.42848E-09  9.29180E-09  8.58861E-09  8.57875E-09  8.39040E-09  7.78606E-09  8.02320E-09  7.41509E-09  6.93983E-09
   7.80063E-09  7.87103E-09  8.49919E-09  8.30121E-09  6.95027E-09  7.19376E-09  6.99600E-09  7.68626E-09  8.49329E-09  8.95673E-09
   8.49415E-09  6.73069E-09  5.24086E-09  3.68832E-09  3.10454E-09  2.70908E-09  3.11094E-09  2.46502E-09  2.72065E-09  2.64834E-09
   2.68775E-09  2.71303E-09  2.74873E-09  2.57077E-09  2.28413E-09  2.37656E-09  3.13386E-09  3.84360E-09  3.63813E-09  4.40328E-09
   3.49352E-09  3.16914E-09  3.51700E-09  3.74088E-09  3.93638E-09  4.87750E-09  5.37091E-09  6.57457E-09  7.79134E-09  9.38618E-09
   1.04366E-08  1.11705E-08  8.46368E-09  5.97313E-09  3.99350E-09  2.69981E-09  2.05482E-09  2.01502E-09  1.24669E-09  2.01014E-09
   1.98777E-09  2.12208E-09  2.93482E-09  4.37239E-09  5.36015E-09  7.53788E-09  9.69271E-09  1.05567E-08  9.82966E-09  7.20942E-09
   4.99517E-09  3.64149E-09  2.61836E-09  2.74340E-09  1.93514E-09  1.66385E-09  1.37511E-09  5.11504E-10  4.58567E-10  4.11865E-10
   5.26448E-10  1.12901E-11 -3.84505E-10  3.96201E-10 -5.89999E-10  3.13961E-10 -2.33960E-10  1.99260E-10  5.77528E-10  1.33138E-10
   6.29132E-10 -1.15367E-10  5.06155E-10  8.94471E-11 -6.67103E-11  3.94964E-12 -6.33115E-10 -6.14594E-10 -5.88595E-10  3.06655E-10
   9.02134E-10  1.19220E-09  4.14165E-10  9.96838E-10  1.34809E-09  1.43902E-09  1.65328E-09  1.05557E-09  3.50070E-10  2.95187E-10
  -1.60164E-10 -8.38411E-10 -2.83907E-10 -1.34556E-09 -5.80103E-11  3.41775E-10  1.45581E-09  1.16724E-10  5.21370E-10  8.77856E-10
   8.96636E-10 -1.18547E-11  3.64989E-10  4.51571E-10  8.40289E-10  6.28488E-10  1.93883E-09  2.05739E-09  2.49431E-09  2.66722E-09
   2.43766E-09  1.90326E-09  2.81299E-09  2.80575E-09  2.95075E-09  2.81853E-09  2.93959E-09  1.91327E-09  2.79769E-09  2.38687E-09
   1.99331E-09  2.66282E-09  2.50062E-09  2.91307E-09  3.37824E-09  3.16894E-09  3.52271E-09  2.98935E-09  3.45209E-09  3.27893E-09
   3.01646E-09  3.62576E-09  4.61813E-09  5.15860E-09  6.81520E-09  8.65399E-09  1.02119E-08  1.13133E-08  1.21768E-08  1.02009E-08
   7.31432E-09  3.63907E-09  1.31684E-09 -3.58483E-10 -1.56493E-09 -1.39745E-09 -2.38157E-09 -2.73714E-09 -3.81363E-09 -3.98124E-09
  -4.54169E-09 -5.36190E-09 -5.31518E-09 -6.35738E-09 -6.25714E-09 -7.17952E-09 -7.92872E-09 -8.32933E-09 -8.92802E-09 -1.04165E-08
  -1.00828E-08 -1.23855E-08 -1.21996E-08 -1.39616E-08 -1.42031E-08 -1.51028E-08 -1.53920E-08 -1.58713E-08 -1.58712E-08 -1.60471E-08
  -1.53373E-08 -1.49059E-08 -1.39086E-08 -1.25653E-08 -1.19071E-08 -1.01229E-08 -8.34384E-09 -6.57262E-09 -4.50010E-09 -4.14452E-09
  -2.07473E-09 -1.35330E-09  1.79823E-11  4.55390E-10  1.19542E-09  8.85130E-10  9.92014E-10  1.15957E-10  1.98139E-10 -2.12234E-10
  -1.27076E-09 -1.72179E-09 -6.82197E-10 -1.06978E-09 -6.37622E-10 -4.10454E-10 -4.02519E-10 -7.15876E-10 -8.48598E-10 -4.24265E-10
  -1.24527E-09 -1.34751E-09 -1.58411E-09 -1.31039E-09 -8.03745E-10 -5.16056E-10 -9.77693E-10 -4.54782E-10 -3.64360E-10 -7.46771E-10
  -6.51415E-10 -7.25220E-10 -1.52935E-09 -1.35607E-09 -1.02851E-09 -1.04472E-09 -7.65403E-10 -6.65758E-10 -2.21952E-10 -6.03660E-10
  -4.79356E-10 -9.53414E-12 -3.96419E-10 -3.59802E-10 -6.74511E-10 -5.05603E-10 -1.37604E-09 -7.86674E-10 -1.38428E-09 -1.68231E-09
  -1.56610E-09 -9.92598E-10 -7.31851E-10 -8.80682E-10 -4.77195E-10 -1.31442E-10  3.78121E-10  1.41390E-10  5.15330E-10  3.61638E-11
  -2.11693E-10  2.44664E-10 -1.06431E-10 -4.17762E-10 -2.68894E-10 -6.25271E-10 -7.63071E-10 -9.89891E-10 -9.22893E-10 -4.76414E-10
  -1.29292E-09 -1.01320E-09 -9.97417E-10 -6.94977E-10 -5.93192E-10 -8.32411E-10  2.09662E-10 -7.15306E-10 -4.03213E-10 -3.82065E-10
  -3.14420E-11 -8.99208E-10  1.12427E-10 -4.56424E-10 -9.83266E-10 -1.24460E-09 -2.53358E-10 -1.06385E-09 -5.29269E-10 -3.87395E-10
  -5.13493E-10 -3.82049E-10 -9.52339E-10 -5.63718E-10 -2.06482E-10 -4.94247E-10 -3.67742E-10 -5.09709E-10 -5.41160E-10 -2.91426E-11
  -3.72604E-10  4.19377E-10 -5.31887E-10 -3.16705E-10 -4.22958E-10 -1.31421E-10  1.93487E-10 -9.15933E-10 -1.43069E-10 -7.58796E-11
   2.70095E-10 -1.84548E-11 -4.34771E-10 -2.54901E-10 -3.24820E-10 -5.43184E-10  9.75987E-10 -3.71812E-10 -5.00417E-10 -9.48360E-11
   2.19194E-11  2.45505E-11  1.35130E-10 -5.99843E-10  2.60085E-10 -1.77507E-10 -2.82555E-10 -1.53861E-10  3.99095E-10  1.11480E-10
  -7.67983E-10  6.09878E-10 -2.46475E-10 -7.53836E-11 -1.38916E-10 -2.00924E-10  4.19092E-10 -9.12474E-11  1.18066E-10  1.79850E-10
   2.46054E-10  4.53922E-10  2.53657E-10
 NY points of the fit to the data follow
   1.25806E-08  1.23700E-08  1.17446E-08  1.22415E-08  1.31558E-08  1.41640E-08  1.47695E-08  1.48623E-08  1.40421E-08  1.23766E-08
   1.13867E-08  1.03541E-08  9.60912E-09  9.22406E-09  8.86258E-09  8.70569E-09  8.57626E-09  8.64507E-09  8.80656E-09  9.08467E-09
   9.65940E-09  1.02468E-08  1.06202E-08  1.07122E-08  9.93723E-09  8.38100E-09  7.11127E-09  6.63494E-09  6.71059E-09  7.17242E-09
   7.66985E-09  8.25328E-09  8.72774E-09  8.24078E-09  6.92187E-09  6.41778E-09  6.64736E-09  7.02671E-09  7.44428E-09  7.84570E-09
   7.91639E-09  7.36726E-09  5.77876E-09  4.42905E-09  3.99477E-09  3.59430E-09  3.06751E-09  2.64858E-09  2.42020E-09  2.32115E-09
   2.28704E-09  2.27627E-09  2.25336E-09  2.23783E-09  2.24977E-09  2.29182E-09  2.40452E-09  2.57293E-09  2.77929E-09  3.07071E-09
   3.40267E-09  3.64417E-09  4.09687E-09  4.71619E-09  5.27982E-09  6.04876E-09  6.90502E-09  7.66625E-09  8.32334E-09  8.67806E-09
   8.66744E-09  8.55397E-09  8.09857E-09  6.76986E-09  5.59191E-09  4.78536E-09  3.98190E-09  3.98506E-09  4.32027E-09  4.68971E-09
   5.20215E-09  5.73526E-09  6.23985E-09  6.64225E-09  6.68174E-09  6.55385E-09  6.18378E-09  5.35389E-09  4.28546E-09  3.56726E-09
   3.18549E-09  2.85880E-09  2.73195E-09  2.43197E-09  2.13548E-09  2.10309E-09  1.90157E-09  1.60729E-09  1.48748E-09  1.36819E-09
   1.23089E-09  1.13509E-09  1.06590E-09  1.01387E-09  9.73538E-10  9.40660E-10  9.13447E-10  8.90695E-10  8.71472E-10  8.55030E-10
   8.40643E-10  8.27603E-10  8.15617E-10  8.04418E-10  7.93825E-10  7.83716E-10  7.73786E-10  7.63804E-10  7.53610E-10  7.43082E-10
   7.32070E-10  7.20523E-10  7.08294E-10  6.95286E-10  6.81398E-10  6.66542E-10  6.50616E-10  6.33557E-10  6.15280E-10  5.95707E-10
   5.74761E-10  5.52369E-10  5.28477E-10  5.03012E-10  4.75907E-10  4.47084E-10  4.16516E-10  3.84103E-10  3.49805E-10  3.13555E-10
   2.75319E-10  2.35043E-10  1.92672E-10  1.48127E-10  1.01398E-10  5.24382E-11  1.25294E-12 -5.20500E-11 -1.07351E-10 -1.64520E-10
  -2.23415E-10 -2.83877E-10 -3.45725E-10 -4.08754E-10 -4.72724E-10 -5.37348E-10 -6.02261E-10 -6.66991E-10 -7.30903E-10 -7.93107E-10
  -8.52273E-10 -9.06316E-10 -9.51652E-10 -9.81499E-10 -9.80925E-10 -9.08485E-10 -5.93290E-10  5.55615E-10  2.02757E-09  2.85997E-09
   3.25824E-09  3.79656E-09  4.89890E-09  6.81809E-09  9.45762E-09  1.19621E-08  1.26189E-08  9.69299E-09  3.77092E-09 -3.42172E-10
  -1.49234E-09 -1.99557E-09 -2.29321E-09 -2.50230E-09 -2.66572E-09 -2.80260E-09 -2.92261E-09 -3.03111E-09 -3.13125E-09 -3.22500E-09
  -3.31363E-09 -3.39796E-09 -3.47855E-09 -3.55577E-09 -3.62990E-09 -3.70109E-09 -3.76944E-09 -3.83504E-09 -3.89790E-09 -3.95803E-09
  -4.01543E-09 -4.07006E-09 -4.12189E-09 -4.17087E-09 -4.21695E-09 -4.26006E-09 -4.30015E-09 -4.33714E-09 -4.37097E-09 -4.40156E-09
  -4.42884E-09 -4.45272E-09 -4.47314E-09 -4.49000E-09 -4.50322E-09 -4.51274E-09 -4.51846E-09 -4.52030E-09 -4.51819E-09 -4.51217E-09
  -4.50235E-09 -4.48882E-09 -4.47168E-09 -4.45102E-09 -4.42694E-09 -4.39954E-09 -4.36891E-09 -4.33515E-09 -4.29834E-09 -4.25860E-09
  -4.21600E-09 -4.17066E-09 -4.12265E-09 -4.07209E-09 -4.01906E-09 -3.96365E-09 -3.90596E-09 -3.84609E-09 -3.78413E-09 -3.72017E-09
  -3.65430E-09 -3.58664E-09 -3.51726E-09 -3.44626E-09 -3.37373E-09 -3.29977E-09 -3.22447E-09 -3.14794E-09 -3.07025E-09 -2.99150E-09
  -2.91181E-09 -2.83123E-09 -2.74989E-09 -2.66786E-09 -2.58525E-09 -2.50215E-09 -2.41865E-09 -2.33484E-09 -2.25083E-09 -2.16670E-09
  -2.08254E-09 -1.99846E-09 -1.91455E-09 -1.83089E-09 -1.74758E-09 -1.66472E-09 -1.58241E-09 -1.50072E-09 -1.41976E-09 -1.33963E-09
  -1.26041E-09 -1.18219E-09 -1.10509E-09 -1.02917E-09 -9.54548E-10 -8.81304E-10 -8.09537E-10 -7.39354E-10 -6.70822E-10 -6.04052E-10
  -5.39135E-10 -4.76166E-10 -4.15241E-10 -3.56439E-10 -2.99869E-10 -2.45621E-10 -1.93792E-10 -1.44453E-10 -9.77317E-11 -5.37017E-11
  -1.24502E-11  2.59755E-11  6.16557E-11  9.46513E-11  1.25037E-10  1.52858E-10  1.78216E-10  2.01151E-10  2.21742E-10  2.40057E-10
   2.56154E-10  2.70115E-10  2.81989E-10  2.91858E-10  2.99793E-10  3.05852E-10  3.10097E-10  3.12598E-10  3.13437E-10  3.12672E-10
   3.10365E-10  3.06596E-10  3.01410E-10  2.94904E-10  2.87121E-10  2.78144E-10  2.68027E-10  2.56856E-10  2.44682E-10  2.31574E-10
   2.17598E-10  2.02851E-10  1.87356E-10  1.71200E-10  1.54458E-10  1.37207E-10  1.19470E-10  1.01352E-10  8.29013E-11  6.42114E-11
   4.53191E-11  2.63090E-11  7.25786E-12 -1.17806E-11 -3.07507E-11 -4.95672E-11 -6.81732E-11 -8.64839E-11 -1.04465E-10 -1.21988E-10
  -1.39060E-10 -1.55556E-10 -1.71447E-10 -1.86652E-10 -2.01061E-10 -2.14694E-10 -2.27411E-10 -2.39189E-10 -2.49921E-10 -2.59571E-10
  -2.68068E-10 -2.75320E-10 -2.81286E-10 -2.85880E-10 -2.89055E-10 -2.90715E-10 -2.90837E-10 -2.89304E-10 -2.86070E-10 -2.81083E-10
  -2.74244E-10 -2.65508E-10 -2.54820E-10
 NY background values follow
     3.967E-09    3.902E-09    3.835E-09    3.769E-09    3.703E-09    3.636E-09    3.569E-09    3.502E-09    3.435E-09    3.368E-09
     3.300E-09    3.233E-09    3.166E-09    3.098E-09    3.031E-09    2.964E-09    2.897E-09    2.830E-09    2.763E-09    2.697E-09
     2.630E-09    2.564E-09    2.498E-09    2.433E-09    2.367E-09    2.302E-09    2.238E-09    2.174E-09    2.110E-09    2.047E-09
     1.984E-09    1.921E-09    1.860E-09    1.798E-09    1.738E-09    1.678E-09    1.618E-09    1.559E-09    1.501E-09    1.444E-09
     1.387E-09    1.331E-09    1.276E-09    1.222E-09    1.168E-09    1.116E-09    1.064E-09    1.013E-09    9.637E-10    9.149E-10
     8.670E-10    8.203E-10    7.745E-10    7.299E-10    6.864E-10    6.439E-10    6.027E-10    5.627E-10    5.238E-10    4.862E-10
     4.499E-10    4.148E-10    3.811E-10    3.488E-10    3.178E-10    2.882E-10    2.600E-10    2.333E-10    2.081E-10    1.844E-10
     1.622E-10    1.415E-10    1.225E-10    1.051E-10    8.922E-11    7.491E-11    6.207E-11    5.065E-11    4.059E-11    3.184E-11
     2.433E-11    1.801E-11    1.282E-11    8.705E-12    5.615E-12    3.483E-12    2.254E-12    1.875E-12    2.287E-12    3.430E-12
     5.247E-12    7.690E-12    1.068E-11    1.420E-11    1.815E-11    2.249E-11    2.717E-11    3.212E-11    3.730E-11    4.263E-11
     4.808E-11    5.357E-11    5.905E-11    6.447E-11    6.976E-11    7.487E-11    7.975E-11    8.434E-11    8.857E-11    9.239E-11
     9.576E-11    9.859E-11    1.008E-10    1.025E-10    1.034E-10    1.036E-10    1.029E-10    1.014E-10    9.902E-11    9.563E-11
     9.119E-11    8.567E-11    7.900E-11    7.112E-11    6.198E-11    5.151E-11    3.966E-11    2.638E-11    1.161E-11   -4.708E-12
    -2.263E-11   -4.223E-11   -6.354E-11   -8.663E-11   -1.115E-10   -1.384E-10   -1.671E-10   -1.979E-10   -2.307E-10   -2.657E-10
    -3.028E-10   -3.422E-10   -3.838E-10   -4.278E-10   -4.743E-10   -5.231E-10   -5.745E-10   -6.282E-10   -6.843E-10   -7.426E-10
    -8.030E-10   -8.654E-10   -9.299E-10   -9.962E-10   -1.064E-09   -1.134E-09   -1.205E-09   -1.278E-09   -1.353E-09   -1.428E-09
    -1.505E-09   -1.583E-09   -1.662E-09   -1.742E-09   -1.823E-09   -1.905E-09   -1.987E-09   -2.070E-09   -2.154E-09   -2.238E-09
    -2.323E-09   -2.407E-09   -2.492E-09   -2.577E-09   -2.662E-09   -2.747E-09   -2.832E-09   -2.916E-09   -3.000E-09   -3.084E-09
    -3.167E-09   -3.249E-09   -3.331E-09   -3.412E-09   -3.492E-09   -3.571E-09   -3.649E-09   -3.726E-09   -3.802E-09   -3.876E-09
    -3.949E-09   -4.020E-09   -4.090E-09   -4.158E-09   -4.224E-09   -4.289E-09   -4.351E-09   -4.412E-09   -4.470E-09   -4.526E-09
    -4.580E-09   -4.631E-09   -4.680E-09   -4.726E-09   -4.770E-09   -4.811E-09   -4.848E-09   -4.884E-09   -4.916E-09   -4.945E-09
    -4.970E-09   -4.993E-09   -5.012E-09   -5.027E-09   -5.039E-09   -5.048E-09   -5.052E-09   -5.053E-09   -5.050E-09   -5.043E-09
    -5.032E-09   -5.018E-09   -5.000E-09   -4.979E-09   -4.954E-09   -4.926E-09   -4.894E-09   -4.860E-09   -4.822E-09   -4.782E-09
    -4.739E-09   -4.693E-09   -4.644E-09   -4.593E-09   -4.540E-09   -4.484E-09   -4.426E-09   -4.365E-09   -4.303E-09   -4.238E-09
    -4.172E-09   -4.104E-09   -4.034E-09   -3.963E-09   -3.890E-09   -3.816E-09   -3.740E-09   -3.663E-09   -3.585E-09   -3.506E-09
    -3.426E-09   -3.345E-09   -3.263E-09   -3.181E-09   -3.098E-09   -3.014E-09   -2.930E-09   -2.846E-09   -2.762E-09   -2.678E-09
    -2.593E-09   -2.509E-09   -2.424E-09   -2.341E-09   -2.257E-09   -2.174E-09   -2.091E-09   -2.009E-09   -1.928E-09   -1.848E-09
    -1.768E-09   -1.690E-09   -1.612E-09   -1.536E-09   -1.461E-09   -1.388E-09   -1.316E-09   -1.245E-09   -1.176E-09   -1.109E-09
    -1.044E-09   -9.809E-10   -9.197E-10   -8.607E-10   -8.039E-10   -7.494E-10   -6.973E-10   -6.477E-10   -6.007E-10   -5.565E-10
    -5.150E-10   -4.763E-10   -4.404E-10   -4.072E-10   -3.765E-10   -3.485E-10   -3.229E-10   -2.997E-10   -2.789E-10   -2.603E-10
    -2.440E-10   -2.298E-10   -2.177E-10   -2.076E-10   -1.994E-10   -1.931E-10   -1.887E-10   -1.859E-10   -1.849E-10   -1.854E-10
    -1.875E-10   -1.910E-10   -1.960E-10   -2.023E-10   -2.098E-10   -2.186E-10   -2.284E-10   -2.394E-10   -2.513E-10   -2.642E-10
    -2.780E-10   -2.925E-10   -3.077E-10   -3.237E-10   -3.402E-10   -3.572E-10   -3.747E-10   -3.926E-10   -4.108E-10   -4.293E-10
    -4.479E-10   -4.667E-10   -4.855E-10   -5.043E-10   -5.231E-10   -5.416E-10   -5.600E-10   -5.781E-10   -5.958E-10   -6.131E-10
    -6.299E-10   -6.462E-10   -6.619E-10   -6.768E-10   -6.910E-10   -7.044E-10   -7.169E-10   -7.284E-10   -7.389E-10   -7.483E-10
    -7.565E-10   -7.635E-10   -7.693E-10   -7.736E-10   -7.765E-10   -7.779E-10   -7.778E-10   -7.760E-10   -7.725E-10   -7.673E-10
    -7.602E-10   -7.512E-10   -7.403E-10
 GABA     Conc. = 7.22E-10
   4.04148E-09  3.97654E-09  3.91140E-09  3.84608E-09  3.78061E-09  3.71505E-09  3.64941E-09  3.58373E-09  3.51807E-09  3.45245E-09
   3.38693E-09  3.32157E-09  3.25642E-09  3.19150E-09  3.12695E-09  3.06280E-09  2.99909E-09  2.93605E-09  2.87377E-09  2.81235E-09
   2.75204E-09  2.69315E-09  2.63597E-09  2.58113E-09  2.52943E-09  2.48220E-09  2.44214E-09  2.41438E-09  2.41230E-09  2.46866E-09
   2.47886E-09  2.47772E-09  2.61034E-09  2.73760E-09  2.81237E-09  2.96280E-09  3.14222E-09  3.26549E-09  3.28177E-09  3.18767E-09
   3.08424E-09  3.11501E-09  2.78910E-09  2.24683E-09  2.13233E-09  1.97385E-09  1.58660E-09  1.37182E-09  1.24326E-09  1.15052E-09
   1.07658E-09  1.01404E-09  9.59476E-10  9.11313E-10  8.68522E-10  8.30516E-10  7.97660E-10  7.70823E-10  7.51840E-10  7.44776E-10
   7.57825E-10  8.16420E-10  8.99868E-10  9.34718E-10  1.02417E-09  1.18404E-09  1.30254E-09  1.42683E-09  1.60400E-09  1.77306E-09
   1.85462E-09  1.79707E-09  1.63042E-09  1.51165E-09  1.36686E-09  9.05851E-10  6.01906E-10  5.86449E-10  4.49966E-10  3.09120E-10
   2.80714E-10  2.56755E-10  2.70148E-10  3.58439E-10  4.15960E-10  4.65868E-10  5.79201E-10  7.05366E-10  8.24466E-10  9.18919E-10
   9.64478E-10  1.05934E-09  1.17755E-09  1.06826E-09  9.41911E-10  1.00490E-09  8.84349E-10  6.74133E-10  6.15136E-10  5.43388E-10
   4.45599E-10  3.83062E-10  3.41780E-10  3.13091E-10  2.92342E-10  2.76709E-10  2.64713E-10  2.55431E-10  2.48191E-10  2.42462E-10
   2.37700E-10  2.33339E-10  2.29211E-10  2.25150E-10  2.21065E-10  2.16905E-10  2.12428E-10  2.07457E-10  2.01874E-10  1.95600E-10
   1.88519E-10  1.80607E-10  1.71746E-10  1.61861E-10  1.50871E-10  1.38704E-10  1.25274E-10  1.10531E-10  9.44015E-11  7.68178E-11
   5.77103E-11  3.70122E-11  1.46773E-11 -9.36348E-12 -3.51715E-11 -6.28247E-11 -9.23482E-11 -1.23843E-10 -1.57348E-10 -1.92934E-10
  -2.30640E-10 -2.70524E-10 -3.12649E-10 -3.57106E-10 -4.03915E-10 -4.53142E-10 -5.04799E-10 -5.58801E-10 -6.15059E-10 -6.73485E-10
  -7.33983E-10 -7.96457E-10 -8.60802E-10 -9.26914E-10 -9.94683E-10 -1.06399E-09 -1.13472E-09 -1.20672E-09 -1.27981E-09 -1.35381E-09
  -1.42840E-09 -1.50321E-09 -1.57754E-09 -1.65014E-09 -1.71806E-09 -1.77231E-09 -1.76941E-09 -1.62213E-09 -1.54067E-09 -1.55260E-09
  -1.58036E-09 -1.55497E-09 -1.43483E-09 -1.19834E-09 -8.98694E-10 -7.11446E-10 -9.03928E-10 -1.63365E-09 -2.54232E-09 -2.83738E-09
  -2.99444E-09 -3.11250E-09 -3.21459E-09 -3.30847E-09 -3.39736E-09 -3.48279E-09 -3.56556E-09 -3.64610E-09 -3.72463E-09 -3.80127E-09
  -3.87608E-09 -3.94906E-09 -4.02019E-09 -4.08943E-09 -4.15674E-09 -4.22206E-09 -4.28530E-09 -4.34642E-09 -4.40533E-09 -4.46196E-09
  -4.51621E-09 -4.56801E-09 -4.61729E-09 -4.66396E-09 -4.70792E-09 -4.74910E-09 -4.78741E-09 -4.82276E-09 -4.85507E-09 -4.88425E-09
  -4.91021E-09 -4.93286E-09 -4.95213E-09 -4.96791E-09 -4.98012E-09 -4.98868E-09 -4.99349E-09 -4.99447E-09 -4.99155E-09 -4.98476E-09
  -4.97420E-09 -4.95997E-09 -4.94215E-09 -4.92085E-09 -4.89615E-09 -4.86815E-09 -4.83695E-09 -4.80264E-09 -4.76531E-09 -4.72506E-09
  -4.68197E-09 -4.63615E-09 -4.58769E-09 -4.53667E-09 -4.48321E-09 -4.42738E-09 -4.36928E-09 -4.30901E-09 -4.24666E-09 -4.18232E-09
  -4.11609E-09 -4.04807E-09 -3.97833E-09 -3.90699E-09 -3.83413E-09 -3.75984E-09 -3.68422E-09 -3.60737E-09 -3.52937E-09 -3.45032E-09
  -3.37032E-09 -3.28945E-09 -3.20783E-09 -3.12552E-09 -3.04262E-09 -2.95925E-09 -2.87548E-09 -2.79141E-09 -2.70713E-09 -2.62274E-09
  -2.53833E-09 -2.45399E-09 -2.36983E-09 -2.28592E-09 -2.20237E-09 -2.11927E-09 -2.03672E-09 -1.95479E-09 -1.87360E-09 -1.79323E-09
  -1.71378E-09 -1.63534E-09 -1.55801E-09 -1.48186E-09 -1.40702E-09 -1.33356E-09 -1.26157E-09 -1.19117E-09 -1.12243E-09 -1.05544E-09
  -9.90311E-10 -9.27129E-10 -8.65993E-10 -8.06982E-10 -7.50203E-10 -6.95748E-10 -6.43712E-10 -5.94167E-10 -5.47242E-10 -5.03008E-10
  -4.61553E-10 -4.22925E-10 -3.87043E-10 -3.53846E-10 -3.23259E-10 -2.95238E-10 -2.69680E-10 -2.46547E-10 -2.25757E-10 -2.07244E-10
  -1.90949E-10 -1.76790E-10 -1.64719E-10 -1.54653E-10 -1.46522E-10 -1.40266E-10 -1.35825E-10 -1.33128E-10 -1.32093E-10 -1.32662E-10
  -1.34773E-10 -1.38346E-10 -1.43336E-10 -1.49646E-10 -1.57233E-10 -1.66014E-10 -1.75934E-10 -1.86909E-10 -1.98887E-10 -2.11798E-10
  -2.25577E-10 -2.40127E-10 -2.55424E-10 -2.71382E-10 -2.87926E-10 -3.04979E-10 -3.22518E-10 -3.40436E-10 -3.58687E-10 -3.77177E-10
  -3.95868E-10 -4.14678E-10 -4.33528E-10 -4.52364E-10 -4.71132E-10 -4.89745E-10 -5.08147E-10 -5.26254E-10 -5.44030E-10 -5.61347E-10
  -5.78214E-10 -5.94502E-10 -6.10187E-10 -6.25183E-10 -6.39384E-10 -6.52808E-10 -6.65314E-10 -6.76880E-10 -6.87400E-10 -6.96838E-10
  -7.05120E-10 -7.12158E-10 -7.17908E-10 -7.22285E-10 -7.25243E-10 -7.26684E-10 -7.26586E-10 -7.24833E-10 -7.21377E-10 -7.16167E-10
  -7.09104E-10 -7.00144E-10 -6.89230E-10
 Glc      Conc. = 1.74E-09
   7.85610E-09  7.92683E-09  8.06499E-09  8.55625E-09  9.07317E-09  9.45991E-09  9.43295E-09  9.15939E-09  8.48348E-09  7.42977E-09
   6.81740E-09  6.48433E-09  6.34428E-09  6.53406E-09  6.95761E-09  7.27858E-09  7.46426E-09  7.70259E-09  7.94310E-09  8.26421E-09
   8.85821E-09  9.43841E-09  9.74817E-09  9.55231E-09  8.47533E-09  6.75016E-09  5.36861E-09  4.71792E-09  4.46416E-09  4.35212E-09
   4.13696E-09  3.86503E-09  3.71693E-09  3.51425E-09  3.16583E-09  2.89281E-09  2.73440E-09  2.49748E-09  2.21837E-09  2.03725E-09
   1.90640E-09  1.79810E-09  1.70379E-09  1.61891E-09  1.54081E-09  1.46805E-09  1.39958E-09  1.33460E-09  1.27260E-09  1.21321E-09
   1.15612E-09  1.10118E-09  1.04818E-09  9.97048E-10  9.47700E-10  9.00026E-10  8.54014E-10  8.09648E-10  7.66813E-10  7.25583E-10
   6.85921E-10  6.47794E-10  6.11237E-10  5.76224E-10  5.42799E-10  5.10926E-10  4.80641E-10  4.51937E-10  4.24845E-10  3.99389E-10
   3.75558E-10  3.53382E-10  3.32904E-10  3.14096E-10  2.96965E-10  2.81436E-10  2.67446E-10  2.54939E-10  2.43847E-10  2.34116E-10
   2.25676E-10  2.18476E-10  2.12450E-10  2.07537E-10  2.03687E-10  2.00831E-10  1.98911E-10  1.97874E-10  1.97658E-10  1.98201E-10
   1.99445E-10  2.01340E-10  2.03811E-10  2.06825E-10  2.10298E-10  2.14180E-10  2.18421E-10  2.22957E-10  2.27730E-10  2.32683E-10
   2.37758E-10  2.42897E-10  2.48042E-10  2.53145E-10  2.58128E-10  2.62951E-10  2.67548E-10  2.71873E-10  2.75856E-10  2.79429E-10
   2.82572E-10  2.85191E-10  2.87242E-10  2.88668E-10  2.89413E-10  2.89421E-10  2.88634E-10  2.86993E-10  2.84438E-10  2.80931E-10
   2.76381E-10  2.70763E-10  2.64001E-10  2.56048E-10  2.46845E-10  2.36330E-10  2.24444E-10  2.11149E-10  1.96372E-10  1.80063E-10
   1.62164E-10  1.42613E-10  1.21367E-10  9.83641E-11  7.35488E-11  4.68497E-11  1.82512E-11 -1.23374E-11 -4.49547E-11 -7.96693E-11
  -1.16518E-10 -1.55556E-10 -1.96835E-10 -2.40431E-10 -2.86361E-10 -3.34686E-10 -3.85414E-10 -4.38457E-10 -4.93711E-10 -5.51072E-10
  -6.10429E-10 -6.71669E-10 -7.34668E-10 -7.99299E-10 -8.65416E-10 -9.32862E-10 -1.00145E-09 -1.07097E-09 -1.14114E-09 -1.21161E-09
  -1.28189E-09 -1.35123E-09 -1.41846E-09 -1.48142E-09 -1.53564E-09 -1.56962E-09 -1.54205E-09 -1.22972E-09 -8.36177E-10 -6.49576E-10
  -5.94427E-10 -4.94128E-10 -2.23126E-10  2.97997E-10  1.04375E-09  1.75484E-09  1.90175E-09  9.27615E-10 -1.02129E-09 -2.28050E-09
  -2.67023E-09 -2.87578E-09 -3.02050E-09 -3.13848E-09 -3.24233E-09 -3.33769E-09 -3.42737E-09 -3.51289E-09 -3.59513E-09 -3.67459E-09
  -3.75159E-09 -3.82629E-09 -3.89880E-09 -3.96916E-09 -4.03738E-09 -4.10344E-09 -4.16731E-09 -4.22895E-09 -4.28830E-09 -4.34530E-09
  -4.39987E-09 -4.45194E-09 -4.50145E-09 -4.54832E-09 -4.59245E-09 -4.63378E-09 -4.67221E-09 -4.70768E-09 -4.74008E-09 -4.76935E-09
  -4.79538E-09 -4.81810E-09 -4.83742E-09 -4.85326E-09 -4.86551E-09 -4.87411E-09 -4.87895E-09 -4.87996E-09 -4.87706E-09 -4.87030E-09
  -4.85976E-09 -4.84555E-09 -4.82775E-09 -4.80646E-09 -4.78178E-09 -4.75380E-09 -4.72261E-09 -4.68831E-09 -4.65098E-09 -4.61074E-09
